t,carotid_880nm,carotid_660nm,brachial_880nm,brachial_660nm
3.3,246.95,62.272,-30.595,-22.655
13.2,246.95,62.272,-34.595,-25.655
23.1,228.95,54.272,-34.595,-25.655
33.0,228.95,54.272,-37.595,-23.655
42.9,215.95,49.272,-37.595,-23.655
52.8,215.95,49.272,-37.595,-24.655
62.6,204.95,43.272,-37.595,-24.655
72.5,204.95,43.272,-42.595,-24.655
82.4,189.95,39.272,-42.595,-24.655
92.3,189.95,39.272,-44.595,-25.655
102.2,193.95,44.272,-44.595,-25.655
112.1,193.95,44.272,-48.595,-26.655
122.0,229.95,62.272,-48.595,-26.655
131.8,229.95,62.272,-52.595,-27.655
141.7,240.95,63.272,-52.595,-27.655
151.6,240.95,63.272,-49.595,-26.655
161.5,248.95,63.272,-45.595,-24.655
171.4,248.95,63.272,-40.595,-21.655
181.3,254.95,66.272,-36.595,-22.655
191.2,258.95,68.272,-30.595,-20.655
201.0,265.95,71.272,-26.595,-18.655
210.9,270.95,73.272,-22.595,-18.655
220.8,273.95,74.272,-20.595,-18.655
230.7,275.95,73.272,-14.595,-18.655
240.6,274.95,72.272,-12.595,-16.655
250.5,267.95,68.272,-9.5946,-14.655
260.4,260.95,64.272,-10.595,-16.655
270.2,249.95,60.272,-8.5946,-15.655
280.1,250.95,62.272,-6.5946,-15.655
290.0,252.95,61.272,-8.5946,-16.655
299.9,251.95,61.272,-12.595,-18.655
309.8,249.95,60.272,-14.595,-19.655
319.7,247.95,61.272,-17.595,-20.655
329.6,243.95,59.272,-18.595,-20.655
339.4,242.95,59.272,-21.595,-21.655
349.3,239.95,58.272,-24.595,-21.655
359.2,235.95,55.272,-23.595,-20.655
369.1,230.95,53.272,-26.595,-21.655
379.0,226.95,51.272,-25.595,-20.655
388.9,220.95,49.272,-26.595,-22.655
398.8,218.95,47.272,-25.595,-20.655
408.6,214.95,46.272,-27.595,-21.655
418.5,207.95,43.272,-27.595,-20.655
428.4,201.95,42.272,-31.595,-21.655
438.3,197.95,40.272,-30.595,-20.655
448.2,193.95,38.272,-30.595,-21.655
458.1,188.95,36.272,-33.595,-20.655
468.0,183.95,33.272,-33.595,-21.655
477.8,175.95,31.272,-35.595,-22.655
487.7,168.95,28.272,-37.595,-23.655
497.6,163.95,25.272,-40.595,-23.655
507.5,158.95,24.272,-40.595,-23.655
517.4,151.95,21.272,-44.595,-24.655
527.3,143.95,18.272,-44.595,-24.655
537.2,136.95,15.272,-44.595,-24.655
547.0,128.95,12.272,-46.595,-24.655
556.9,121.95,8.2722,-46.595,-24.655
566.8,115.95,5.2722,-48.595,-25.655
576.7,122.95,14.272,-50.595,-24.655
586.6,145.95,27.272,-50.595,-25.655
596.5,168.95,37.272,-54.595,-28.655
606.4,174.95,40.272,-56.595,-26.655
616.2,177.95,39.272,-54.595,-25.655
626.1,178.95,36.272,-50.595,-24.655
636.0,184.95,38.272,-46.595,-23.655
645.9,192.95,40.272,-43.595,-22.655
655.8,196.95,41.272,-36.595,-19.655
665.7,203.95,45.272,-30.595,-17.655
675.6,205.95,46.272,-25.595,-16.655
685.4,204.95,45.272,-21.595,-14.655
695.3,200.95,42.272,-16.595,-13.655
705.2,193.95,38.272,-14.595,-12.655
715.1,186.95,35.272,-12.595,-11.655
725.0,179.95,30.272,-9.5946,-10.655
734.9,169.95,26.272,-7.5946,-9.6548
744.7,167.95,25.272,-7.5946,-11.655
754.6,167.95,25.272,-8.5946,-10.655
764.5,166.95,25.272,-10.595,-11.655
774.4,167.95,27.272,-11.595,-10.655
784.3,164.95,25.272,-11.595,-12.655
794.2,161.95,23.272,-16.595,-11.655
804.1,157.95,20.272,-15.595,-12.655
814.0,152.95,20.272,-16.595,-12.655
823.8,148.95,17.272,-17.595,-11.655
833.7,144.95,15.272,-16.595,-9.6548
843.6,138.95,13.272,-18.595,-8.6548
853.5,134.95,11.272,-17.595,-9.6548
863.4,131.95,10.272,-15.595,-8.6548
873.3,125.95,7.2722,-16.595,-6.6548
883.1,125.95,7.2722,-14.595,-6.6548
893.0,115.95,4.2722,-15.595,-6.6548
902.9,115.95,4.2722,-17.595,-7.6548
912.8,106.95,-0.72779,-18.595,-6.6548
922.7,106.95,-0.72779,-19.595,-6.6548
932.6,94.952,-3.7278,-21.595,-6.6548
942.5,94.952,-3.7278,-23.595,-7.6548
952.3,83.952,-9.7278,-23.595,-7.6548
962.2,83.952,-9.7278,-24.595,-9.6548
972.1,71.952,-13.728,-24.595,-9.6548
982.0,71.952,-13.728,-31.595,-10.655
991.9,61.952,-18.728,-31.595,-10.655
1001.8,61.952,-18.728,-32.595,-10.655
1011.7,48.952,-22.728,-32.595,-10.655
1021.5,48.952,-22.728,-38.595,-11.655
1031.4,43.952,-22.728,-38.595,-11.655
1041.3,43.952,-22.728,-40.595,-13.655
1051.2,65.952,-8.7278,-40.595,-13.655
1061.1,102.95,9.2722,-46.595,-15.655
1071.0,110.95,12.272,-46.595,-15.655
1080.9,115.95,12.272,-44.595,-13.655
1090.7,114.95,11.272,-44.595,-13.655
1100.6,122.95,11.272,-37.595,-10.655
1110.5,128.95,13.272,-37.595,-10.655
1120.4,131.95,13.272,-26.595,-8.6548
1130.3,137.95,16.272,-26.595,-8.6548
1140.2,145.95,20.272,-15.595,-5.6548
1150.1,151.95,22.272,-15.595,-5.6548
1159.9,154.95,23.272,-13.595,-4.6548
1169.8,154.95,23.272,-7.5946,-4.6548
1179.7,149.95,20.272,-8.5946,-3.6548
1189.6,142.95,17.272,-4.5946,-3.6548
1199.5,135.95,13.272,-2.5946,-2.6548
1209.4,127.95,9.2722,-4.5946,-3.6548
1219.3,125.95,7.2722,-7.5946,-4.6548
1229.1,122.95,8.2722,-6.5946,-5.6548
1239.0,122.95,7.2722,-8.5946,-4.6548
1248.9,117.95,4.2722,-7.5946,-6.6548
1258.8,116.95,5.2722,-12.595,-7.6548
1268.7,115.95,5.2722,-15.595,-7.6548
1278.6,113.95,2.2722,-16.595,-7.6548
1288.5,110.95,2.2722,-17.595,-6.6548
1298.3,104.95,-0.72779,-19.595,-7.6548
1308.2,99.952,-2.7278,-20.595,-7.6548
1318.1,95.952,-3.7278,-20.595,-8.6548
1328.0,93.952,-4.7278,-21.595,-7.6548
1337.9,89.952,-6.7278,-23.595,-7.6548
1347.8,86.952,-6.7278,-23.595,-5.6548
1357.7,85.952,-8.7278,-24.595,-6.6548
1367.5,82.952,-8.7278,-24.595,-6.6548
1377.4,79.952,-10.728,-25.595,-7.6548
1387.3,75.952,-12.728,-28.595,-7.6548
1397.2,71.952,-13.728,-28.595,-8.6548
1407.1,65.952,-15.728,-28.595,-8.6548
1417.0,60.952,-16.728,-31.595,-8.6548
1426.9,55.952,-18.728,-33.595,-10.655
1436.7,52.952,-19.728,-36.595,-11.655
1446.6,47.952,-21.728,-35.595,-10.655
1456.5,40.952,-23.728,-37.595,-10.655
1466.4,35.952,-27.728,-40.595,-11.655
1476.3,29.952,-29.728,-41.595,-11.655
1486.2,22.952,-31.728,-42.595,-12.655
1496.1,25.952,-27.728,-44.595,-12.655
1505.9,48.952,-12.728,-46.595,-12.655
1515.8,92.952,8.2722,-48.595,-14.655
1525.7,102.95,12.272,-49.595,-14.655
1535.6,109.95,14.272,-51.595,-14.655
1545.5,112.95,12.272,-49.595,-13.655
1555.4,120.95,14.272,-46.595,-12.655
1565.3,124.95,15.272,-41.595,-10.655
1575.1,132.95,17.272,-36.595,-8.6548
1585.0,139.95,21.272,-29.595,-6.6548
1594.9,146.95,24.272,-26.595,-7.6548
1604.8,151.95,26.272,-21.595,-5.6548
1614.7,155.95,27.272,-17.595,-3.6548
1624.6,155.95,27.272,-12.595,-1.6548
1634.5,152.95,26.272,-11.595,-2.6548
1644.3,149.95,24.272,-9.5946,-1.6548
1654.2,144.95,22.272,-7.5946,-1.6548
1664.1,136.95,17.272,-8.5946,-2.6548
1674.0,133.95,15.272,-8.5946,-4.6548
1683.9,130.95,13.272,-8.5946,-3.6548
1693.8,127.95,13.272,-10.595,-4.6548
1703.7,123.95,13.272,-13.595,-5.6548
1713.5,121.95,12.272,-17.595,-5.6548
1723.4,118.95,11.272,-18.595,-7.6548
1733.3,118.95,11.272,-19.595,-8.6548
1743.2,112.95,8.2722,-19.595,-7.6548
1753.1,112.95,8.2722,-21.595,-8.6548
1763.0,104.95,4.2722,-24.595,-8.6548
1772.9,104.95,4.2722,-25.595,-8.6548
1782.7,95.952,1.2722,-28.595,-8.6548
1792.6,95.952,1.2722,-27.595,-8.6548
1802.5,86.952,-1.7278,-29.595,-9.6548
1812.4,86.952,-1.7278,-30.595,-10.655
1822.3,80.952,-4.7278,-32.595,-9.6548
1832.2,80.952,-4.7278,-34.595,-10.655
1842.1,71.952,-8.7278,-37.595,-11.655
1851.9,71.952,-8.7278,-37.595,-12.655
1861.8,59.952,-11.728,-40.595,-13.655
1871.7,59.952,-11.728,-42.595,-13.655
1881.6,50.952,-14.728,-45.595,-15.655
1891.5,50.952,-14.728,-47.595,-15.655
1901.4,41.952,-17.728,-47.595,-15.655
1911.3,41.952,-17.728,-48.595,-15.655
1921.1,39.952,-18.728,-51.595,-15.655
1931.0,33.952,-21.728,-48.595,-15.655
1940.9,26.952,-22.728,-53.595,-16.655
1950.8,22.952,-25.728,-55.595,-16.655
1960.7,44.952,-10.728,-57.595,-17.655
1970.6,82.952,12.272,-59.595,-17.655
1980.5,101.95,18.272,-60.595,-19.655
1990.3,110.95,21.272,-64.595,-19.655
2000.2,110.95,20.272,-64.595,-19.655
2010.1,116.95,21.272,-56.595,-16.655
2020.0,122.95,22.272,-56.595,-16.655
2029.9,124.95,21.272,-45.595,-13.655
2039.8,128.95,23.272,-45.595,-13.655
2049.7,135.95,27.272,-38.595,-10.655
2059.5,148.95,32.272,-38.595,-10.655
2069.4,153.95,34.272,-29.595,-10.655
2079.3,154.95,34.272,-29.595,-10.655
2089.2,154.95,34.272,-25.595,-10.655
2099.1,151.95,31.272,-25.595,-10.655
2109.0,145.95,28.272,-25.595,-10.655
2118.9,139.95,25.272,-25.595,-10.655
2128.7,129.95,21.272,-25.595,-12.655
2138.6,126.95,19.272,-25.595,-12.655
2148.5,123.95,18.272,-27.595,-15.655
2158.4,122.95,18.272,-27.595,-15.655
2168.3,121.95,18.272,-33.595,-16.655
2178.2,117.95,17.272,-33.595,-16.655
2188.1,116.95,16.272,-35.595,-18.655
2197.9,113.95,14.272,-35.595,-18.655
2207.8,108.95,12.272,-40.595,-18.655
2217.7,102.95,10.272,-40.595,-18.655
2227.6,96.952,6.2722,-40.595,-18.655
2237.5,92.952,5.2722,-44.595,-21.655
2247.4,89.952,3.2722,-46.595,-20.655
2257.3,84.952,3.2722,-47.595,-21.655
2267.1,79.952,-0.72779,-48.595,-19.655
2277.0,75.952,-0.72779,-50.595,-21.655
2286.9,70.952,-3.7278,-49.595,-21.655
2296.8,67.952,-4.7278,-52.595,-22.655
2306.7,59.952,-7.7278,-53.595,-23.655
2316.6,55.952,-8.7278,-55.595,-23.655
2326.5,49.952,-10.728,-57.595,-24.655
2336.3,47.952,-11.728,-58.595,-24.655
2346.2,41.952,-13.728,-62.595,-24.655
2356.1,37.952,-15.728,-60.595,-24.655
2366.0,34.952,-16.728,-63.595,-23.655
2375.9,28.952,-17.728,-63.595,-25.655
2385.8,20.952,-20.728,-66.595,-25.655
2395.7,15.952,-22.728,-68.595,-26.655
2405.5,12.952,-21.728,-70.595,-26.655
2415.4,35.952,-6.7278,-73.595,-28.655
2425.3,76.952,14.272,-71.595,-28.655
2435.2,91.952,19.272,-75.595,-29.655
2445.1,100.95,23.272,-80.595,-30.655
2455.0,103.95,21.272,-78.595,-30.655
2464.9,108.95,23.272,-74.595,-30.655
2474.7,111.95,22.272,-71.595,-27.655
2484.6,113.95,22.272,-65.595,-25.655
2494.5,121.95,24.272,-61.595,-23.655
2504.4,131.95,29.272,-56.595,-23.655
2514.3,140.95,35.272,-51.595,-22.655
2524.2,147.95,38.272,-46.595,-19.655
2534.1,150.95,38.272,-40.595,-19.655
2543.9,150.95,37.272,-36.595,-19.655
2553.8,147.95,36.272,-34.595,-17.655
2563.7,144.95,34.272,-34.595,-17.655
2573.6,140.95,32.272,-32.595,-18.655
2583.5,136.95,28.272,-32.595,-18.655
2593.4,135.95,30.272,-34.595,-19.655
2603.3,135.95,30.272,-33.595,-18.655
2613.1,137.95,31.272,-35.595,-19.655
2623.0,137.95,31.272,-36.595,-20.655
2632.9,135.95,32.272,-37.595,-21.655
2642.8,135.95,32.272,-39.595,-21.655
2652.7,125.95,26.272,-40.595,-21.655
2662.6,125.95,26.272,-40.595,-22.655
2672.5,110.95,19.272,-41.595,-22.655
2682.3,110.95,19.272,-43.595,-21.655
2692.2,99.952,15.272,-44.595,-22.655
2702.1,99.952,15.272,-43.595,-21.655
2712.0,90.952,12.272,-47.595,-22.655
2721.9,90.952,12.272,-48.595,-20.655
2731.8,82.952,10.272,-48.595,-20.655
2741.7,82.952,10.272,-48.595,-21.655
2751.5,78.952,7.2722,-49.595,-21.655
2761.4,78.952,7.2722,-51.595,-21.655
2771.3,75.952,7.2722,-52.595,-22.655
2781.2,72.952,6.2722,-53.595,-21.655
2791.1,69.952,5.2722,-55.595,-23.655
2801.0,67.952,4.2722,-58.595,-24.655
2810.9,63.952,4.2722,-61.595,-25.655
2820.7,60.952,3.2722,-61.595,-26.655
2830.6,57.952,3.2722,-63.595,-25.655
2840.5,57.952,2.2722,-65.595,-27.655
2850.4,51.952,1.2722,-67.595,-28.655
2860.3,49.952,0.27221,-69.595,-29.655
2870.2,45.952,0.27221,-70.595,-28.655
2880.1,59.952,11.272,-71.595,-29.655
2889.9,103.95,34.272,-72.595,-28.655
2899.8,117.95,40.272,-74.595,-28.655
2909.7,126.95,43.272,-74.595,-27.655
2919.6,130.95,42.272,-68.595,-26.655
2929.5,131.95,41.272,-62.595,-23.655
2939.4,134.95,38.272,-57.595,-22.655
2949.3,131.95,36.272,-53.595,-21.655
2959.1,136.95,39.272,-48.595,-20.655
2969.0,146.95,42.272,-43.595,-18.655
2978.9,156.95,49.272,-38.595,-18.655
2988.8,165.95,52.272,-32.595,-15.655
2998.7,169.95,53.272,-29.595,-16.655
3008.6,165.95,50.272,-26.595,-14.655
3018.5,156.95,46.272,-24.595,-15.655
3028.3,149.95,41.272,-23.595,-15.655
3038.2,138.95,34.272,-21.595,-15.655
3048.1,128.95,31.272,-21.595,-15.655
3058.0,126.95,31.272,-25.595,-16.655
3067.9,128.95,32.272,-25.595,-16.655
3077.8,127.95,32.272,-24.595,-17.655
3087.7,125.95,31.272,-24.595,-17.655
3097.5,119.95,30.272,-27.595,-18.655
3107.4,117.95,28.272,-27.595,-18.655
3117.3,112.95,26.272,-28.595,-18.655
3127.2,109.95,24.272,-28.595,-18.655
3137.1,106.95,23.272,-32.595,-16.655
3147.0,106.95,23.272,-32.595,-16.655
3156.9,105.95,23.272,-35.595,-18.655
3166.7,105.95,24.272,-35.595,-18.655
3176.6,105.95,23.272,-35.595,-19.655
3186.5,107.95,25.272,-35.595,-19.655
3196.4,105.95,26.272,-38.595,-17.655
3206.3,105.95,26.272,-38.595,-17.655
3216.2,101.95,24.272,-41.595,-19.655
3226.1,98.952,23.272,-41.595,-19.655
3235.9,92.952,21.272,-44.595,-20.655
3245.8,86.952,18.272,-44.595,-20.655
3255.7,80.952,16.272,-46.595,-21.655
3265.6,75.952,13.272,-49.595,-22.655
3275.5,70.952,11.272,-53.595,-23.655
3285.4,64.952,9.2722,-51.595,-23.655
3295.3,58.952,7.2722,-54.595,-23.655
3305.1,54.952,5.2722,-54.595,-24.655
3315.0,47.952,2.2722,-56.595,-23.655
3324.9,39.952,-0.72779,-59.595,-23.655
3334.8,41.952,4.2722,-59.595,-25.655
3344.7,60.952,15.272,-60.595,-25.655
3354.6,96.952,31.272,-65.595,-26.655
3364.5,104.95,37.272,-67.595,-27.655
3374.3,112.95,38.272,-70.595,-29.655
3384.2,111.95,36.272,-69.595,-29.655
3394.1,118.95,37.272,-64.595,-27.655
3404.0,120.95,36.272,-61.595,-25.655
3413.9,121.95,34.272,-56.595,-24.655
3423.8,121.95,34.272,-52.595,-22.655
3433.6,126.95,37.272,-43.595,-20.655
3443.5,131.95,40.272,-36.595,-18.655
3453.4,139.95,41.272,-31.595,-16.655
3463.3,139.95,41.272,-26.595,-14.655
3473.2,139.95,41.272,-25.595,-16.655
3483.1,130.95,34.272,-23.595,-16.655
3493.0,130.95,34.272,-21.595,-15.655
3502.9,114.95,26.272,-22.595,-17.655
3512.7,114.95,26.272,-22.595,-19.655
3522.6,116.95,29.272,-24.595,-18.655
3532.5,116.95,29.272,-28.595,-21.655
3542.4,116.95,29.272,-27.595,-22.655
3552.3,116.95,29.272,-30.595,-21.655
3562.2,105.95,24.272,-31.595,-21.655
3572.0,105.95,24.272,-33.595,-23.655
3581.9,91.952,16.272,-34.595,-22.655
3591.8,91.952,16.272,-36.595,-22.655
3601.7,78.952,12.272,-40.595,-25.655
3611.6,78.952,12.272,-39.595,-23.655
3621.5,71.952,8.2722,-42.595,-23.655
3631.4,71.952,8.2722,-43.595,-24.655
3641.2,65.952,6.2722,-45.595,-24.655
3651.1,62.952,5.2722,-45.595,-24.655
3661.0,56.952,3.2722,-45.595,-24.655
3670.9,55.952,2.2722,-46.595,-22.655
3680.8,54.952,2.2722,-47.595,-25.655
3690.7,53.952,2.2722,-50.595,-24.655
3700.6,51.952,1.2722,-51.595,-25.655
3710.4,49.952,0.27221,-54.595,-27.655
3720.3,48.952,1.2722,-56.595,-27.655
3730.2,45.952,-0.72779,-61.595,-28.655
3740.1,45.952,0.27221,-61.595,-30.655
3750.0,41.952,-2.7278,-62.595,-29.655
3759.9,37.952,-2.7278,-62.595,-29.655
3769.8,33.952,-3.7278,-63.595,-30.655
3779.6,29.952,-6.7278,-64.595,-29.655
3789.5,21.952,-8.7278,-65.595,-30.655
3799.4,12.952,-11.728,-66.595,-29.655
3809.3,8.9524,-11.728,-68.595,-29.655
3819.2,24.952,-0.72779,-69.595,-29.655
3829.1,61.952,17.272,-71.595,-30.655
3839.0,70.952,21.272,-74.595,-33.655
3848.8,81.952,26.272,-74.595,-31.655
3858.7,87.952,24.272,-69.595,-29.655
3868.6,93.952,26.272,-67.595,-30.655
3878.5,97.952,25.272,-63.595,-28.655
3888.4,100.95,25.272,-59.595,-28.655
3898.3,105.95,27.272,-53.595,-26.655
3908.2,109.95,29.272,-50.595,-25.655
3918.0,114.95,31.272,-44.595,-24.655
3927.9,115.95,31.272,-39.595,-23.655
3937.8,112.95,30.272,-38.595,-23.655
3947.7,106.95,27.272,-37.595,-23.655
3957.6,101.95,23.272,-36.595,-24.655
3967.5,94.952,18.272,-33.595,-23.655
3977.4,90.952,16.272,-36.595,-23.655
3987.2,90.952,16.272,-34.595,-24.655
3997.1,87.952,16.272,-37.595,-24.655
4007.0,84.952,15.272,-41.595,-26.655
4016.9,81.952,13.272,-42.595,-26.655
4026.8,78.952,12.272,-44.595,-27.655
4036.7,75.952,10.272,-45.595,-27.655
4046.6,74.952,10.272,-45.595,-26.655
4056.4,71.952,8.2722,-47.595,-27.655
4066.3,68.952,7.2722,-48.595,-27.655
4076.2,66.952,6.2722,-48.595,-27.655
4086.1,63.952,5.2722,-48.595,-25.655
4096.0,61.952,2.2722,-48.595,-25.655
4105.9,58.952,3.2722,-51.595,-25.655
4115.8,55.952,3.2722,-51.595,-25.655
4125.6,53.952,1.2722,-52.595,-25.655
4135.5,52.952,1.2722,-52.595,-25.655
4145.4,45.952,-0.72779,-50.595,-26.655
4155.3,43.952,-1.7278,-50.595,-26.655
4165.2,41.952,-2.7278,-57.595,-27.655
4175.1,40.952,-3.7278,-57.595,-27.655
4185.0,36.952,-4.7278,-59.595,-26.655
4194.8,32.952,-5.7278,-59.595,-26.655
4204.7,26.952,-7.7278,-61.595,-27.655
4214.6,22.952,-10.728,-61.595,-27.655
4224.5,19.952,-10.728,-64.595,-27.655
4234.4,14.952,-11.728,-64.595,-27.655
4244.3,11.952,-13.728,-67.595,-29.655
4254.2,5.9524,-16.728,-67.595,-29.655
4264.0,-1.0476,-18.728,-71.595,-29.655
4273.9,-9.0476,-21.728,-71.595,-29.655
4283.8,3.9524,-11.728,-72.595,-29.655
4293.7,23.952,0.27221,-74.595,-31.655
4303.6,48.952,13.272,-77.595,-31.655
4313.5,58.952,15.272,-80.595,-33.655
4323.4,63.952,16.272,-82.595,-32.655
4333.2,67.952,15.272,-80.595,-32.655
4343.1,67.952,15.272,-76.595,-30.655
4353.0,75.952,16.272,-70.595,-28.655
4362.9,75.952,16.272,-66.595,-26.655
4372.8,77.952,15.272,-59.595,-26.655
4382.7,77.952,15.272,-54.595,-23.655
4392.6,87.952,18.272,-50.595,-22.655
4402.4,87.952,18.272,-49.595,-20.655
4412.3,90.952,18.272,-43.595,-20.655
4422.2,90.952,18.272,-41.595,-19.655
4432.1,75.952,11.272,-38.595,-20.655
4442.0,75.952,11.272,-36.595,-19.655
4451.9,68.952,8.2722,-36.595,-18.655
4461.8,68.952,8.2722,-37.595,-18.655
4471.6,65.952,8.2722,-37.595,-21.655
4481.5,65.952,8.2722,-40.595,-21.655
4491.4,60.952,6.2722,-41.595,-20.655
4501.3,60.952,6.2722,-43.595,-21.655
4511.2,62.952,5.2722,-43.595,-22.655
4521.1,59.952,4.2722,-48.595,-22.655
4531.0,55.952,3.2722,-46.595,-22.655
4540.8,54.952,1.2722,-47.595,-22.655
4550.7,51.952,1.2722,-47.595,-20.655
4560.6,49.952,0.27221,-47.595,-20.655
4570.5,48.952,-0.72779,-45.595,-18.655
4580.4,44.952,-1.7278,-46.595,-18.655
4590.3,43.952,-1.7278,-45.595,-16.655
4600.2,42.952,-1.7278,-44.595,-17.655
4610.0,41.952,-1.7278,-46.595,-16.655
4619.9,38.952,-1.7278,-47.595,-15.655
4629.8,35.952,-3.7278,-45.595,-16.655
4639.7,32.952,-5.7278,-48.595,-17.655
4649.6,29.952,-7.7278,-48.595,-17.655
4659.5,24.952,-8.7278,-49.595,-15.655
4669.4,20.952,-9.7278,-50.595,-17.655
4679.2,16.952,-11.728,-53.595,-16.655
4689.1,12.952,-12.728,-51.595,-17.655
4699.0,9.9524,-13.728,-53.595,-16.655
4708.9,4.9524,-15.728,-55.595,-18.655
4718.8,-0.047588,-17.728,-57.595,-17.655
4728.7,-7.0476,-20.728,-57.595,-18.655
4738.6,-12.048,-22.728,-58.595,-18.655
4748.4,-19.048,-24.728,-59.595,-18.655
4758.3,-9.0476,-16.728,-61.595,-17.655
4768.2,10.952,-3.7278,-62.595,-18.655
4778.1,52.952,15.272,-67.595,-19.655
4788.0,64.952,20.272,-69.595,-20.655
4797.9,72.952,22.272,-67.595,-20.655
4807.8,78.952,22.272,-63.595,-17.655
4817.6,83.952,23.272,-59.595,-17.655
4827.5,87.952,22.272,-54.595,-14.655
4837.4,86.952,20.272,-47.595,-11.655
4847.3,86.952,19.272,-43.595,-11.655
4857.2,86.952,19.272,-35.595,-9.6548
4867.1,92.952,21.272,-31.595,-7.6548
4877.0,94.952,21.272,-25.595,-6.6548
4886.8,94.952,21.272,-21.595,-5.6548
4896.7,89.952,19.272,-20.595,-4.6548
4906.6,83.952,15.272,-20.595,-5.6548
4916.5,71.952,10.272,-18.595,-4.6548
4926.4,69.952,10.272,-20.595,-4.6548
4936.3,70.952,10.272,-17.595,-4.6548
4946.2,69.952,10.272,-19.595,-5.6548
4956.0,69.952,9.2722,-20.595,-7.6548
4965.9,67.952,10.272,-23.595,-6.6548
4975.8,69.952,10.272,-24.595,-7.6548
4985.7,68.952,12.272,-24.595,-6.6548
4995.6,68.952,10.272,-23.595,-5.6548
5005.5,68.952,9.2722,-25.595,-5.6548
5015.4,64.952,9.2722,-27.595,-5.6548
5025.2,65.952,7.2722,-27.595,-6.6548
5035.1,62.952,6.2722,-27.595,-5.6548
5045.0,58.952,6.2722,-27.595,-4.6548
5054.9,56.952,4.2722,-28.595,-3.6548
5064.8,55.952,5.2722,-29.595,-3.6548
5074.7,52.952,5.2722,-31.595,-4.6548
5084.6,52.952,3.2722,-31.595,-4.6548
5094.4,50.952,2.2722,-32.595,-5.6548
5104.3,48.952,4.2722,-32.595,-4.6548
5114.2,48.952,3.2722,-34.595,-5.6548
5124.1,46.952,2.2722,-34.595,-5.6548
5134.0,44.952,1.2722,-36.595,-6.6548
5143.9,39.952,0.27221,-36.595,-6.6548
5153.8,35.952,-1.7278,-40.595,-6.6548
5163.6,29.952,-4.7278,-40.595,-6.6548
5173.5,28.952,-4.7278,-40.595,-5.6548
5183.4,23.952,-5.7278,-40.595,-5.6548
5193.3,18.952,-8.7278,-42.595,-5.6548
5203.2,11.952,-9.7278,-42.595,-5.6548
5213.1,11.952,-9.7278,-44.595,-6.6548
5223.0,23.952,-0.72779,-44.595,-6.6548
5232.8,23.952,-0.72779,-47.595,-7.6548
5242.7,86.952,30.272,-47.595,-7.6548
5252.6,86.952,30.272,-51.595,-8.6548
5262.5,102.95,33.272,-51.595,-8.6548
5272.4,102.95,33.272,-47.595,-6.6548
5282.3,105.95,31.272,-47.595,-6.6548
5292.2,105.95,31.272,-35.595,-1.6548
5302.0,105.95,27.272,-35.595,-1.6548
5311.9,105.95,27.272,-23.595,0.34524
5321.8,119.95,34.272,-23.595,0.34524
5331.7,119.95,34.272,-18.595,3.3452
5341.6,128.95,36.272,-10.595,6.3452
5351.5,128.95,36.272,-8.5946,6.3452
5361.4,125.95,33.272,-3.5946,6.3452
5371.2,125.95,33.272,0.40535,8.3452
5381.1,119.95,29.272,2.4054,9.3452
5391.0,109.95,25.272,1.4054,7.3452
5400.9,105.95,23.272,2.4054,7.3452
5410.8,103.95,22.272,2.4054,7.3452
5420.7,101.95,23.272,3.4054,6.3452
5430.6,98.952,20.272,3.4054,6.3452
5440.4,98.952,21.272,-2.5946,6.3452
5450.3,97.952,21.272,-2.5946,5.3452
5460.2,93.952,20.272,-4.5946,5.3452
5470.1,93.952,18.272,-2.5946,6.3452
5480.0,90.952,17.272,-2.5946,5.3452
5489.9,86.952,14.272,-4.5946,6.3452
5499.8,83.952,13.272,-6.5946,7.3452
5509.6,81.952,13.272,-5.5946,6.3452
5519.5,77.952,11.272,-4.5946,8.3452
5529.4,73.952,9.2722,-5.5946,8.3452
5539.3,69.952,8.2722,-5.5946,8.3452
5549.2,65.952,7.2722,-6.5946,9.3452
5559.1,63.952,6.2722,-7.5946,10.345
5569.0,59.952,5.2722,-6.5946,9.3452
5578.8,55.952,2.2722,-8.5946,9.3452
5588.7,53.952,2.2722,-9.5946,9.3452
5598.6,51.952,0.27221,-12.595,6.3452
5608.5,46.952,1.2722,-13.595,7.3452
5618.4,44.952,-1.7278,-16.595,6.3452
5628.3,40.952,-1.7278,-15.595,6.3452
5638.2,36.952,-3.7278,-17.595,6.3452
5648.0,30.952,-5.7278,-16.595,5.3452
5657.9,25.952,-8.7278,-19.595,5.3452
5667.8,18.952,-12.728,-22.595,5.3452
5677.7,15.952,-9.7278,-21.595,4.3452
5687.6,43.952,6.2722,-24.595,5.3452
5697.5,99.952,33.272,-25.595,3.3452
5707.4,110.95,39.272,-29.595,2.3452
5717.2,120.95,42.272,-32.595,1.3452
5727.1,125.95,42.272,-30.595,3.3452
5737.0,130.95,42.272,-24.595,3.3452
5746.9,135.95,41.272,-20.595,6.3452
5756.8,139.95,41.272,-13.595,7.3452
5766.7,144.95,44.272,-8.5946,10.345
5776.6,152.95,47.272,-1.5946,9.3452
5786.4,159.95,49.272,3.4054,13.345
5796.3,162.95,51.272,9.4054,13.345
5806.2,165.95,52.272,16.405,15.345
5816.1,165.95,52.272,18.405,16.345
5826.0,166.95,50.272,21.405,17.345
5835.9,160.95,47.272,24.405,15.345
5845.7,151.95,42.272,23.405,15.345
5855.6,145.95,39.272,24.405,14.345
5865.5,142.95,39.272,22.405,14.345
5875.4,141.95,39.272,21.405,12.345
5885.3,141.95,38.272,20.405,13.345
5895.2,137.95,38.272,18.405,12.345
5905.1,137.95,37.272,17.405,11.345
5915.0,136.95,37.272,17.405,11.345
5924.8,135.95,34.272,15.405,10.345
5934.7,129.95,33.272,12.405,10.345
5944.6,124.95,31.272,11.405,9.3452
5954.5,120.95,29.272,9.4054,9.3452
5964.4,116.95,28.272,8.4054,9.3452
5974.3,112.95,25.272,8.4054,9.3452
5984.1,107.95,23.272,8.4054,9.3452
5994.0,106.95,22.272,6.4054,9.3452
6003.9,103.95,21.272,7.4054,8.3452
6013.8,104.95,22.272,4.4054,9.3452
6023.7,103.95,22.272,2.4054,9.3452
6033.6,102.95,22.272,4.4054,7.3452
6043.5,97.952,21.272,2.4054,8.3452
6053.4,95.952,20.272,1.4054,7.3452
6063.2,88.952,16.272,-1.5946,6.3452
6073.1,80.952,12.272,-3.5946,6.3452
6083.0,80.952,12.272,-5.5946,5.3452
6092.9,66.952,7.2722,-8.5946,5.3452
6102.8,66.952,7.2722,-11.595,4.3452
6112.7,45.952,-1.7278,-11.595,3.3452
6122.5,45.952,-1.7278,-15.595,2.3452
6132.4,50.952,4.2722,-15.595,2.3452
6142.3,50.952,4.2722,-19.595,1.3452
6152.2,108.95,32.272,-19.595,1.3452
6162.1,108.95,32.272,-24.595,-2.6548
6172.0,113.95,31.272,-24.595,-2.6548
6181.9,113.95,31.272,-18.595,1.3452
6191.7,109.95,24.272,-18.595,1.3452
6201.6,109.95,24.272,-10.595,3.3452
6211.5,111.95,22.272,-10.595,3.3452
6221.4,111.95,22.272,0.40535,5.3452
6231.3,130.95,30.272,0.40535,5.3452
6241.2,130.95,30.272,11.405,6.3452
6251.1,137.95,33.272,11.405,6.3452
6260.9,141.95,34.272,17.405,7.3452
6270.8,144.95,34.272,17.405,7.3452
6280.7,146.95,34.272,21.405,6.3452
6290.6,143.95,33.272,21.405,6.3452
6300.5,142.95,33.272,22.405,4.3452
6310.4,138.95,29.272,22.405,4.3452
6320.3,136.95,29.272,21.405,4.3452
6330.1,137.95,30.272,21.405,4.3452
6340.0,137.95,32.272,19.405,3.3452
6349.9,137.95,31.272,19.405,2.3452
6359.8,136.95,32.272,17.405,0.34524
6369.7,136.95,32.272,16.405,-0.65476
6379.6,138.95,33.272,13.405,-1.6548
6389.5,139.95,34.272,11.405,-1.6548
6399.3,137.95,33.272,8.4054,-2.6548
6409.2,138.95,34.272,6.4054,-2.6548
6419.1,135.95,32.272,7.4054,-1.6548
6429.0,137.95,34.272,6.4054,-0.65476
6438.9,136.95,33.272,5.4054,-1.6548
6448.8,134.95,33.272,4.4054,-2.6548
6458.7,134.95,34.272,2.4054,-2.6548
6468.5,131.95,33.272,2.4054,-3.6548
6478.4,129.95,32.272,-1.5946,-5.6548
6488.3,127.95,32.272,-4.5946,-7.6548
6498.2,126.95,32.272,-7.5946,-7.6548
6508.1,124.95,30.272,-10.595,-8.6548
6518.0,120.95,30.272,-13.595,-10.655
6527.9,116.95,29.272,-12.595,-9.6548
6537.7,115.95,28.272,-15.595,-12.655
6547.6,112.95,28.272,-19.595,-13.655
6557.5,108.95,26.272,-20.595,-14.655
6567.4,104.95,24.272,-23.595,-14.655
6577.3,97.952,22.272,-27.595,-16.655
6587.2,93.952,21.272,-30.595,-18.655
6597.1,109.95,33.272,-32.595,-20.655
6606.9,148.95,52.272,-36.595,-19.655
6616.8,158.95,56.272,-39.595,-22.655
6626.7,166.95,58.272,-38.595,-22.655
6636.6,167.95,57.272,-37.595,-19.655
6646.5,170.95,56.272,-30.595,-18.655
6656.4,175.95,57.272,-26.595,-15.655
6666.3,185.95,61.272,-19.595,-14.655
6676.1,197.95,65.272,-14.595,-14.655
6686.0,206.95,69.272,-8.5946,-13.655
6695.9,213.95,70.272,-5.5946,-12.655
6705.8,216.95,72.272,-2.5946,-12.655
6715.7,219.95,72.272,3.4054,-12.655
6725.6,220.95,72.272,6.4054,-12.655
6735.5,219.95,71.272,7.4054,-12.655
6745.3,216.95,67.272,10.405,-11.655
6755.2,210.95,66.272,13.405,-11.655
6765.1,207.95,64.272,13.405,-11.655
6775.0,206.95,63.272,13.405,-11.655
6784.9,205.95,62.272,14.405,-11.655
6794.8,200.95,61.272,11.405,-12.655
6804.7,196.95,59.272,9.4054,-16.655
6814.5,192.95,57.272,7.4054,-15.655
6824.4,185.95,53.272,6.4054,-17.655
6834.3,179.95,50.272,2.4054,-17.655
6844.2,172.95,49.272,1.4054,-18.655
6854.1,166.95,45.272,1.4054,-18.655
6864.0,160.95,42.272,-1.5946,-18.655
6873.9,155.95,40.272,-1.5946,-17.655
6883.7,151.95,39.272,-0.59465,-16.655
6893.6,148.95,36.272,0.40535,-15.655
6903.5,145.95,35.272,-3.5946,-15.655
6913.4,141.95,35.272,-2.5946,-16.655
6923.3,136.95,32.272,-7.5946,-18.655
6933.2,132.95,30.272,-7.5946,-18.655
6943.1,126.95,28.272,-10.595,-20.655
6952.9,126.95,28.272,-13.595,-20.655
6962.8,117.95,25.272,-15.595,-21.655
6972.7,117.95,25.272,-17.595,-22.655
6982.6,105.95,19.272,-18.595,-21.655
6992.5,105.95,19.272,-19.595,-22.655
7002.4,91.952,14.272,-22.595,-23.655
7012.3,91.952,14.272,-22.595,-26.655
7022.1,79.952,8.2722,-26.595,-26.655
7032.0,79.952,8.2722,-29.595,-27.655
7041.9,64.952,2.2722,-32.595,-27.655
7051.8,64.952,2.2722,-32.595,-29.655
7061.7,105.95,29.272,-36.595,-28.655
7071.6,105.95,29.272,-39.595,-31.655
7081.5,123.95,35.272,-40.595,-29.655
7091.3,123.95,35.272,-37.595,-29.655
7101.2,122.95,29.272,-32.595,-26.655
7111.1,122.95,29.272,-28.595,-25.655
7121.0,129.95,32.272,-23.595,-23.655
7130.9,136.95,35.272,-17.595,-22.655
7140.8,147.95,37.272,-12.595,-21.655
7150.7,152.95,41.272,-7.5946,-21.655
7160.5,160.95,44.272,-2.5946,-20.655
7170.4,160.95,42.272,0.40535,-19.655
7180.3,161.95,42.272,0.40535,-19.655
7190.2,160.95,40.272,5.4054,-18.655
7200.1,159.95,40.272,7.4054,-18.655
7210.0,154.95,37.272,9.4054,-18.655
7219.9,150.95,34.272,9.4054,-18.655
7229.7,145.95,31.272,8.4054,-20.655
7239.6,146.95,33.272,8.4054,-20.655
7249.5,149.95,34.272,4.4054,-22.655
7259.4,148.95,34.272,4.4054,-22.655
7269.3,147.95,34.272,0.40535,-23.655
7279.2,147.95,34.272,0.40535,-23.655
7289.1,143.95,32.272,-4.5946,-25.655
7298.9,140.95,31.272,-4.5946,-25.655
7308.8,136.95,29.272,-7.5946,-26.655
7318.7,134.95,28.272,-7.5946,-26.655
7328.6,128.95,26.272,-8.5946,-24.655
7338.5,123.95,24.272,-8.5946,-24.655
7348.4,118.95,23.272,-11.595,-25.655
7358.3,116.95,20.272,-11.595,-25.655
7368.1,112.95,20.272,-15.595,-26.655
7378.0,110.95,19.272,-15.595,-26.655
7387.9,109.95,18.272,-18.595,-27.655
7397.8,105.95,17.272,-18.595,-27.655
7407.7,101.95,16.272,-20.595,-27.655
7417.6,97.952,14.272,-20.595,-27.655
7427.5,93.952,12.272,-23.595,-27.655
7437.3,88.952,11.272,-23.595,-27.655
7447.2,83.952,9.2722,-26.595,-28.655
7457.1,80.952,8.2722,-26.595,-29.655
7467.0,75.952,5.2722,-29.595,-31.655
7476.9,70.952,5.2722,-34.595,-32.655
7486.8,65.952,1.2722,-35.595,-34.655
7496.7,57.952,-0.72779,-37.595,-34.655
7506.5,50.952,-4.7278,-40.595,-36.655
7516.4,41.952,-8.7278,-45.595,-36.655
7526.3,42.952,-3.7278,-46.595,-37.655
7536.2,65.952,10.272,-48.595,-39.655
7546.1,86.952,19.272,-50.595,-39.655
7556.0,92.952,21.272,-56.595,-41.655
7565.9,90.952,18.272,-56.595,-39.655
7575.7,89.952,15.272,-54.595,-39.655
7585.6,94.952,16.272,-47.595,-39.655
7595.5,98.952,16.272,-46.595,-38.655
7605.4,103.95,18.272,-41.595,-37.655
7615.3,110.95,21.272,-34.595,-35.655
7625.2,115.95,23.272,-30.595,-32.655
7635.1,117.95,23.272,-24.595,-31.655
7644.9,115.95,22.272,-18.595,-30.655
7654.8,111.95,19.272,-16.595,-28.655
7664.7,102.95,15.272,-12.595,-30.655
7674.6,94.952,9.2722,-9.5946,-29.655
7684.5,84.952,4.2722,-11.595,-29.655
7694.4,75.952,-0.72779,-13.595,-30.655
7704.3,70.952,0.27221,-11.595,-31.655
7714.1,71.952,-1.7278,-15.595,-33.655
7724.0,70.952,-1.7278,-17.595,-33.655
7733.9,65.952,-3.7278,-20.595,-35.655
7743.8,59.952,-6.7278,-22.595,-36.655
7753.7,55.952,-8.7278,-24.595,-37.655
7763.6,49.952,-9.7278,-29.595,-38.655
7773.5,44.952,-12.728,-29.595,-37.655
7783.3,42.952,-14.728,-32.595,-39.655
7793.2,39.952,-15.728,-34.595,-38.655
7803.1,35.952,-15.728,-36.595,-39.655
7813.0,35.952,-16.728,-36.595,-38.655
7822.9,35.952,-16.728,-36.595,-37.655
7832.8,30.952,-17.728,-36.595,-38.655
7842.7,30.952,-17.728,-36.595,-36.655
7852.5,26.952,-18.728,-36.595,-36.655
7862.4,26.952,-18.728,-37.595,-36.655
7872.3,20.952,-20.728,-35.595,-34.655
7882.2,20.952,-20.728,-35.595,-35.655
7892.1,9.9524,-23.728,-37.595,-34.655
7902.0,9.9524,-23.728,-36.595,-33.655
7911.9,-1.0476,-28.728,-36.595,-33.655
7921.7,-1.0476,-28.728,-39.595,-32.655
7931.6,-17.048,-34.728,-38.595,-34.655
7941.5,-17.048,-34.728,-39.595,-33.655
7951.4,-29.048,-39.728,-43.595,-34.655
7961.3,-29.048,-39.728,-44.595,-33.655
7971.2,-37.048,-42.728,-43.595,-33.655
7981.1,-37.048,-42.728,-45.595,-33.655
7990.9,-43.048,-45.728,-46.595,-35.655
8000.8,-50.048,-46.728,-47.595,-33.655
8010.7,-40.048,-38.728,-48.595,-33.655
8020.6,-16.048,-24.728,-52.595,-34.655
8030.5,-2.0476,-19.728,-54.595,-35.655
8040.4,1.9524,-19.728,-52.595,-32.655
8050.3,-0.047588,-22.728,-49.595,-33.655
8060.1,-0.047588,-23.728,-45.595,-31.655
8070.0,3.9524,-22.728,-41.595,-29.655
8079.9,9.9524,-21.728,-35.595,-27.655
8089.8,13.952,-19.728,-30.595,-25.655
8099.7,22.952,-16.728,-25.595,-26.655
8109.6,29.952,-14.728,-19.595,-21.655
8119.5,32.952,-11.728,-15.595,-20.655
8129.3,29.952,-12.728,-10.595,-20.655
8139.2,28.952,-14.728,-5.5946,-18.655
8149.1,22.952,-18.728,-4.5946,-16.655
8159.0,16.952,-21.728,-0.59465,-15.655
8168.9,6.9524,-26.728,-0.59465,-15.655
8178.8,2.9524,-27.728,1.4054,-15.655
8188.7,0.95241,-27.728,1.4054,-13.655
8198.5,-1.0476,-28.728,-0.59465,-14.655
8208.4,-3.0476,-29.728,-1.5946,-15.655
8218.3,-4.0476,-31.728,-2.5946,-15.655
8228.2,-7.0476,-31.728,-4.5946,-16.655
8238.1,-9.0476,-32.728,-7.5946,-17.655
8248.0,-13.048,-32.728,-8.5946,-15.655
8257.9,-14.048,-34.728,-9.5946,-16.655
8267.7,-17.048,-36.728,-9.5946,-16.655
8277.6,-19.048,-37.728,-8.5946,-15.655
8287.5,-21.048,-37.728,-8.5946,-15.655
8297.4,-25.048,-39.728,-8.5946,-14.655
8307.3,-28.048,-39.728,-8.5946,-14.655
8317.2,-33.048,-41.728,-7.5946,-11.655
8327.1,-38.048,-44.728,-7.5946,-11.655
8336.9,-44.048,-46.728,-9.5946,-11.655
8346.8,-50.048,-47.728,-9.5946,-11.655
8356.7,-51.048,-49.728,-8.5946,-8.6548
8366.6,-56.048,-52.728,-8.5946,-8.6548
8376.5,-64.048,-54.728,-10.595,-11.655
8386.4,-68.048,-56.728,-10.595,-11.655
8396.3,-74.048,-58.728,-13.595,-12.655
8406.1,-80.048,-60.728,-13.595,-12.655
8416.0,-84.048,-63.728,-18.595,-11.655
8425.9,-87.048,-64.728,-18.595,-11.655
8435.8,-91.048,-63.728,-17.595,-11.655
8445.7,-96.048,-66.728,-17.595,-11.655
8455.6,-103.05,-69.728,-22.595,-10.655
8465.5,-110.05,-71.728,-22.595,-10.655
8475.3,-111.05,-69.728,-20.595,-10.655
8485.2,-100.05,-60.728,-24.595,-10.655
8495.1,-68.048,-46.728,-24.595,-11.655
8505.0,-65.048,-44.728,-26.595,-11.655
8514.9,-67.048,-47.728,-27.595,-10.655
8524.8,-66.048,-49.728,-24.595,-9.6548
8534.6,-58.048,-47.728,-20.595,-7.6548
8544.5,-54.048,-46.728,-15.595,-5.6548
8554.4,-52.048,-46.728,-10.595,-3.6548
8564.3,-51.048,-46.728,-5.5946,-2.6548
8574.2,-46.048,-44.728,2.4054,0.34524
8584.1,-43.048,-43.728,6.4054,1.3452
8594.0,-42.048,-41.728,11.405,3.3452
8603.9,-41.048,-41.728,15.405,5.3452
8613.7,-46.048,-44.728,20.405,6.3452
8623.6,-51.048,-47.728,22.405,6.3452
8633.5,-59.048,-51.728,22.405,6.3452
8643.4,-63.048,-52.728,21.405,6.3452
8653.3,-61.048,-51.728,21.405,5.3452
8663.2,-62.048,-50.728,23.405,7.3452
8673.0,-64.048,-51.728,23.405,6.3452
8682.9,-66.048,-51.728,21.405,5.3452
8692.8,-66.048,-51.728,18.405,5.3452
8702.7,-69.048,-53.728,17.405,5.3452
8712.6,-69.048,-53.728,14.405,3.3452
8722.5,-74.048,-54.728,14.405,5.3452
8732.4,-74.048,-54.728,14.405,5.3452
8742.2,-78.048,-58.728,12.405,5.3452
8752.1,-78.048,-58.728,14.405,5.3452
8762.0,-85.048,-59.728,12.405,5.3452
8771.9,-85.048,-59.728,12.405,6.3452
8781.8,-89.048,-61.728,10.405,6.3452
8791.7,-89.048,-61.728,11.405,7.3452
8801.6,-94.048,-62.728,9.4054,7.3452
8811.4,-94.048,-62.728,9.4054,6.3452
8821.3,-100.05,-63.728,5.4054,6.3452
8831.2,-100.05,-63.728,6.4054,6.3452
8841.1,-101.05,-61.728,3.4054,6.3452
8851.0,-101.05,-61.728,4.4054,6.3452
8860.9,-98.048,-60.728,2.4054,5.3452
8870.8,-101.05,-60.728,2.4054,6.3452
8880.6,-102.05,-59.728,-0.59465,4.3452
8890.5,-101.05,-60.728,-2.5946,3.3452
8900.4,-102.05,-59.728,-4.5946,2.3452
8910.3,-103.05,-58.728,-7.5946,2.3452
8920.2,-106.05,-60.728,-9.5946,1.3452
8930.1,-111.05,-61.728,-11.595,0.34524
8940.0,-120.05,-66.728,-12.595,-2.6548
8949.8,-115.05,-60.728,-15.595,-0.65476
8959.7,-89.048,-44.728,-19.595,-1.6548
8969.6,-57.048,-31.728,-21.595,-2.6548
8979.5,-50.048,-27.728,-22.595,-3.6548
8989.4,-48.048,-27.728,-21.595,0.34524
8999.3,-48.048,-28.728,-17.595,0.34524
9009.2,-40.048,-27.728,-11.595,2.3452
9019.0,-38.048,-27.728,-10.595,2.3452
9028.9,-37.048,-29.728,-3.5946,4.3452
9038.8,-35.048,-28.728,-0.59465,4.3452
9048.7,-30.048,-26.728,5.4054,7.3452
9058.6,-25.048,-24.728,10.405,8.3452
9068.5,-23.048,-23.728,15.405,8.3452
9078.4,-24.048,-24.728,17.405,11.345
9088.2,-25.048,-24.728,20.405,11.345
9098.1,-26.048,-25.728,23.405,11.345
9108.0,-30.048,-28.728,23.405,10.345
9117.9,-39.048,-31.728,23.405,10.345
9127.8,-39.048,-31.728,21.405,8.3452
9137.7,-39.048,-31.728,18.405,5.3452
9147.6,-43.048,-32.728,12.405,3.3452
9157.4,-44.048,-31.728,11.405,3.3452
9167.3,-47.048,-32.728,8.4054,3.3452
9177.2,-50.048,-34.728,9.4054,2.3452
9187.1,-51.048,-34.728,6.4054,1.3452
9197.0,-52.048,-35.728,6.4054,1.3452
9206.9,-54.048,-37.728,4.4054,2.3452
9216.8,-59.048,-37.728,3.4054,2.3452
9226.6,-62.048,-41.728,1.4054,1.3452
9236.5,-70.048,-42.728,-1.5946,2.3452
9246.4,-75.048,-43.728,-2.5946,1.3452
9256.3,-78.048,-46.728,-4.5946,1.3452
9266.2,-83.048,-49.728,-8.5946,-2.6548
9276.1,-87.048,-48.728,-7.5946,-2.6548
9286.0,-90.048,-50.728,-12.595,-2.6548
9295.8,-96.048,-50.728,-13.595,-4.6548
9305.7,-101.05,-53.728,-16.595,-5.6548
9315.6,-107.05,-57.728,-16.595,-5.6548
9325.5,-115.05,-58.728,-16.595,-5.6548
9335.4,-120.05,-61.728,-16.595,-5.6548
9345.3,-124.05,-62.728,-22.595,-7.6548
9355.2,-127.05,-63.728,-22.595,-7.6548
9365.0,-130.05,-65.728,-29.595,-11.655
9374.9,-136.05,-66.728,-29.595,-11.655
9384.8,-140.05,-68.728,-36.595,-13.655
9394.7,-146.05,-70.728,-36.595,-13.655
9404.6,-149.05,-70.728,-40.595,-16.655
9414.5,-130.05,-58.728,-40.595,-16.655
9424.4,-94.048,-38.728,-44.595,-17.655
9434.2,-82.048,-34.728,-44.595,-17.655
9444.1,-78.048,-33.728,-50.595,-19.655
9454.0,-77.048,-35.728,-50.595,-19.655
9463.9,-76.048,-36.728,-42.595,-16.655
9473.8,-73.048,-37.728,-42.595,-16.655
9483.7,-73.048,-37.728,-33.595,-14.655
9493.6,-72.048,-36.728,-33.595,-14.655
9503.4,-63.048,-34.728,-25.595,-14.655
9513.3,-57.048,-30.728,-25.595,-14.655
9523.2,-49.048,-28.728,-19.595,-12.655
9533.1,-44.048,-25.728,-19.595,-12.655
9543.0,-44.048,-25.728,-18.595,-12.655
9552.9,-44.048,-27.728,-15.595,-13.655
9562.8,-44.048,-27.728,-13.595,-14.655
9572.6,-47.048,-30.728,-13.595,-15.655
9582.5,-47.048,-30.728,-14.595,-15.655
9592.4,-53.048,-31.728,-14.595,-15.655
9602.3,-53.048,-31.728,-14.595,-16.655
9612.2,-50.048,-29.728,-17.595,-17.655
9622.1,-50.048,-29.728,-20.595,-17.655
9632.0,-50.048,-28.728,-21.595,-18.655
9641.8,-50.048,-28.728,-23.595,-20.655
9651.7,-50.048,-28.728,-25.595,-22.655
9661.6,-50.048,-28.728,-30.595,-23.655
9671.5,-54.048,-30.728,-32.595,-24.655
9681.4,-54.048,-30.728,-35.595,-23.655
9691.3,-58.048,-31.728,-35.595,-23.655
9701.2,-58.048,-31.728,-37.595,-24.655
9711.0,-61.048,-32.728,-39.595,-24.655
9720.9,-64.048,-34.728,-41.595,-25.655
9730.8,-67.048,-34.728,-43.595,-25.655
9740.7,-72.048,-37.728,-47.595,-27.655
9750.6,-75.048,-37.728,-47.595,-28.655
9760.5,-79.048,-37.728,-49.595,-29.655
9770.4,-83.048,-40.728,-51.595,-29.655
9780.2,-87.048,-41.728,-54.595,-30.655
9790.1,-92.048,-42.728,-56.595,-30.655
9800.0,-96.048,-43.728,-58.595,-31.655
9809.9,-98.048,-44.728,-59.595,-32.655
9819.8,-104.05,-46.728,-60.595,-32.655
9829.7,-106.05,-47.728,-61.595,-32.655
9839.6,-111.05,-50.728,-62.595,-33.655
9849.4,-115.05,-51.728,-65.595,-34.655
9859.3,-120.05,-53.728,-67.595,-35.655
9869.2,-126.05,-55.728,-71.595,-35.655
9879.1,-129.05,-54.728,-73.595,-36.655
9889.0,-112.05,-43.728,-75.595,-37.655
9898.9,-74.048,-25.728,-79.595,-40.655
9908.8,-67.048,-23.728,-80.595,-39.655
9918.6,-61.048,-20.728,-81.595,-39.655
9928.5,-61.048,-22.728,-74.595,-37.655
9938.4,-56.048,-22.728,-72.595,-36.655
9948.3,-54.048,-23.728,-64.595,-34.655
9958.2,-53.048,-24.728,-62.595,-32.655
9968.1,-48.048,-20.728,-54.595,-32.655
9978.0,-39.048,-18.728,-53.595,-31.655
9987.8,-30.048,-15.728,-46.595,-29.655
9997.7,-23.048,-12.728,-43.595,-28.655
10008.0,-19.048,-10.728,-40.595,-28.655
10018.0,-17.048,-10.728,-37.595,-28.655
10027.0,-15.048,-10.728,-35.595,-27.655
10037.0,-16.048,-10.728,-34.595,-28.655
10047.0,-18.048,-11.728,-33.595,-28.655
10057.0,-19.048,-12.728,-34.595,-28.655
10067.0,-17.048,-11.728,-33.595,-28.655
10077.0,-18.048,-11.728,-36.595,-31.655
10087.0,-18.048,-11.728,-39.595,-31.655
10097.0,-18.048,-11.728,-40.595,-30.655
10107.0,-19.048,-10.728,-42.595,-32.655
10116.0,-21.048,-10.728,-43.595,-31.655
10126.0,-23.048,-11.728,-45.595,-33.655
10136.0,-26.048,-13.728,-47.595,-34.655
10146.0,-29.048,-14.728,-50.595,-33.655
10156.0,-31.048,-16.728,-50.595,-34.655
10166.0,-35.048,-17.728,-51.595,-35.655
10176.0,-37.048,-17.728,-53.595,-34.655
10186.0,-39.048,-18.728,-53.595,-33.655
10195.0,-42.048,-18.728,-54.595,-34.655
10205.0,-46.048,-20.728,-55.595,-33.655
10215.0,-49.048,-21.728,-56.595,-35.655
10225.0,-55.048,-24.728,-59.595,-35.655
10235.0,-58.048,-24.728,-58.595,-35.655
10245.0,-63.048,-28.728,-65.595,-38.655
10255.0,-68.048,-28.728,-67.595,-39.655
10265.0,-73.048,-32.728,-69.595,-40.655
10275.0,-76.048,-32.728,-72.595,-42.655
10284.0,-83.048,-34.728,-74.595,-41.655
10294.0,-89.048,-36.728,-75.595,-41.655
10304.0,-90.048,-36.728,-76.595,-41.655
10314.0,-96.048,-38.728,-77.595,-41.655
10324.0,-100.05,-41.728,-77.595,-41.655
10334.0,-106.05,-43.728,-79.595,-40.655
10344.0,-115.05,-46.728,-82.595,-42.655
10354.0,-103.05,-37.728,-83.595,-45.655
10364.0,-72.048,-20.728,-83.595,-45.655
10373.0,-55.048,-14.728,-91.595,-47.655
10383.0,-50.048,-11.728,-91.595,-47.655
10393.0,-46.048,-12.728,-88.595,-46.655
10403.0,-44.048,-12.728,-88.595,-46.655
10413.0,-44.048,-12.728,-82.595,-43.655
10423.0,-42.048,-16.728,-82.595,-43.655
10433.0,-42.048,-16.728,-69.595,-39.655
10443.0,-30.048,-11.728,-69.595,-39.655
10453.0,-30.048,-11.728,-59.595,-37.655
10462.0,-17.048,-6.7278,-59.595,-37.655
10472.0,-17.048,-6.7278,-52.595,-36.655
10482.0,-15.048,-6.7278,-52.595,-36.655
10492.0,-15.048,-6.7278,-49.595,-35.655
10502.0,-25.048,-12.728,-49.595,-35.655
10512.0,-25.048,-12.728,-44.595,-35.655
10522.0,-32.048,-16.728,-44.595,-35.655
10532.0,-32.048,-16.728,-41.595,-35.655
10541.0,-32.048,-15.728,-41.595,-35.655
10551.0,-32.048,-15.728,-40.595,-33.655
10561.0,-30.048,-14.728,-43.595,-35.655
10571.0,-30.048,-14.728,-44.595,-35.655
10581.0,-30.048,-14.728,-46.595,-36.655
10591.0,-33.048,-15.728,-49.595,-37.655
10601.0,-36.048,-16.728,-50.595,-38.655
10611.0,-39.048,-17.728,-55.595,-39.655
10621.0,-43.048,-19.728,-56.595,-38.655
10630.0,-48.048,-22.728,-56.595,-39.655
10640.0,-52.048,-23.728,-56.595,-39.655
10650.0,-57.048,-25.728,-58.595,-38.655
10660.0,-60.048,-26.728,-58.595,-38.655
10670.0,-62.048,-28.728,-59.595,-38.655
10680.0,-65.048,-28.728,-62.595,-38.655
10690.0,-68.048,-30.728,-63.595,-40.655
10700.0,-74.048,-31.728,-67.595,-41.655
10710.0,-76.048,-31.728,-68.595,-42.655
10719.0,-79.048,-33.728,-69.595,-42.655
10729.0,-85.048,-35.728,-70.595,-42.655
10739.0,-87.048,-36.728,-70.595,-42.655
10749.0,-91.048,-38.728,-71.595,-42.655
10759.0,-97.048,-40.728,-72.595,-42.655
10769.0,-101.05,-42.728,-74.595,-44.655
10779.0,-106.05,-43.728,-74.595,-42.655
10789.0,-112.05,-45.728,-75.595,-43.655
10799.0,-116.05,-47.728,-74.595,-42.655
10808.0,-121.05,-49.728,-76.595,-44.655
10818.0,-126.05,-52.728,-79.595,-43.655
10828.0,-133.05,-53.728,-82.595,-44.655
10838.0,-119.05,-43.728,-84.595,-45.655
10848.0,-86.048,-27.728,-87.595,-48.655
10858.0,-82.048,-24.728,-91.595,-48.655
10868.0,-76.048,-23.728,-91.595,-48.655
10878.0,-75.048,-24.728,-87.595,-46.655
10887.0,-73.048,-24.728,-85.595,-45.655
10897.0,-68.048,-24.728,-78.595,-43.655
10907.0,-67.048,-25.728,-74.595,-40.655
10917.0,-62.048,-24.728,-70.595,-39.655
10927.0,-56.048,-22.728,-63.595,-37.655
10937.0,-48.048,-19.728,-58.595,-37.655
10947.0,-43.048,-16.728,-54.595,-36.655
10957.0,-38.048,-15.728,-52.595,-36.655
10967.0,-37.048,-16.728,-49.595,-36.655
10976.0,-39.048,-17.728,-45.595,-37.655
10986.0,-45.048,-20.728,-47.595,-35.655
10996.0,-52.048,-23.728,-43.595,-35.655
11006.0,-55.048,-22.728,-43.595,-34.655
11016.0,-49.048,-21.728,-46.595,-36.655
11026.0,-47.048,-20.728,-46.595,-36.655
11036.0,-48.048,-18.728,-48.595,-36.655
11046.0,-52.048,-21.728,-50.595,-37.655
11056.0,-55.048,-22.728,-52.595,-40.655
11065.0,-56.048,-24.728,-56.595,-40.655
11075.0,-61.048,-25.728,-55.595,-40.655
11085.0,-64.048,-26.728,-58.595,-40.655
11095.0,-68.048,-28.728,-58.595,-40.655
11105.0,-71.048,-29.728,-59.595,-40.655
11115.0,-75.048,-31.728,-62.595,-40.655
11125.0,-76.048,-32.728,-61.595,-41.655
11135.0,-80.048,-34.728,-61.595,-41.655
11145.0,-84.048,-33.728,-62.595,-40.655
11154.0,-87.048,-36.728,-64.595,-40.655
11164.0,-92.048,-36.728,-65.595,-40.655
11174.0,-94.048,-37.728,-68.595,-40.655
11184.0,-95.048,-37.728,-69.595,-42.655
11194.0,-98.048,-39.728,-69.595,-41.655
11204.0,-103.05,-41.728,-73.595,-42.655
11214.0,-107.05,-42.728,-75.595,-42.655
11224.0,-112.05,-44.728,-76.595,-44.655
11233.0,-117.05,-47.728,-75.595,-44.655
11243.0,-121.05,-49.728,-79.595,-44.655
11253.0,-129.05,-52.728,-81.595,-45.655
11263.0,-135.05,-54.728,-81.595,-46.655
11273.0,-139.05,-56.728,-82.595,-46.655
11283.0,-139.05,-56.728,-84.595,-47.655
11293.0,-155.05,-62.728,-87.595,-46.655
11303.0,-155.05,-62.728,-88.595,-47.655
11313.0,-155.05,-60.728,-90.595,-49.655
11322.0,-155.05,-60.728,-94.595,-49.655
11332.0,-114.05,-39.728,-95.595,-50.655
11342.0,-114.05,-39.728,-96.595,-49.655
11352.0,-107.05,-37.728,-96.595,-49.655
11362.0,-107.05,-37.728,-89.595,-46.655
11372.0,-98.048,-38.728,-89.595,-46.655
11382.0,-98.048,-38.728,-78.595,-42.655
11392.0,-93.048,-36.728,-78.595,-42.655
11402.0,-93.048,-36.728,-71.595,-41.655
11411.0,-78.048,-30.728,-71.595,-41.655
11421.0,-78.048,-30.728,-59.595,-36.655
11431.0,-69.048,-25.728,-59.595,-36.655
11441.0,-69.048,-25.728,-52.595,-35.655
11451.0,-70.048,-26.728,-52.595,-35.655
11461.0,-74.048,-29.728,-48.595,-34.655
11471.0,-80.048,-32.728,-48.595,-34.655
11481.0,-86.048,-37.728,-46.595,-34.655
11491.0,-87.048,-36.728,-46.595,-34.655
11500.0,-86.048,-34.728,-50.595,-35.655
11510.0,-85.048,-34.728,-50.595,-35.655
11520.0,-86.048,-34.728,-53.595,-36.655
11530.0,-89.048,-36.728,-53.595,-36.655
11540.0,-90.048,-36.728,-56.595,-38.655
11550.0,-91.048,-37.728,-56.595,-38.655
11560.0,-92.048,-37.728,-56.595,-39.655
11570.0,-93.048,-39.728,-59.595,-38.655
11579.0,-98.048,-40.728,-58.595,-38.655
11589.0,-101.05,-40.728,-59.595,-37.655
11599.0,-104.05,-42.728,-61.595,-37.655
11609.0,-107.05,-43.728,-60.595,-36.655
11619.0,-107.05,-44.728,-60.595,-36.655
11629.0,-110.05,-45.728,-61.595,-36.655
11639.0,-113.05,-46.728,-61.595,-35.655
11649.0,-115.05,-47.728,-62.595,-34.655
11659.0,-117.05,-47.728,-63.595,-35.655
11668.0,-119.05,-47.728,-63.595,-36.655
11678.0,-122.05,-48.728,-65.595,-38.655
11688.0,-125.05,-50.728,-66.595,-37.655
11698.0,-129.05,-51.728,-68.595,-38.655
11708.0,-131.05,-51.728,-70.595,-38.655
11718.0,-135.05,-52.728,-70.595,-38.655
11728.0,-139.05,-54.728,-69.595,-38.655
11738.0,-143.05,-56.728,-73.595,-37.655
11748.0,-148.05,-58.728,-73.595,-38.655
11757.0,-151.05,-59.728,-76.595,-38.655
11767.0,-155.05,-60.728,-76.595,-38.655
11777.0,-161.05,-62.728,-79.595,-40.655
11787.0,-166.05,-66.728,-77.595,-38.655
11797.0,-168.05,-64.728,-79.595,-40.655
11807.0,-157.05,-54.728,-82.595,-40.655
11817.0,-119.05,-38.728,-84.595,-41.655
11827.0,-115.05,-37.728,-84.595,-40.655
11837.0,-114.05,-38.728,-86.595,-41.655
11846.0,-113.05,-39.728,-83.595,-39.655
11856.0,-106.05,-38.728,-80.595,-39.655
11866.0,-104.05,-37.728,-74.595,-37.655
11876.0,-102.05,-36.728,-70.595,-35.655
11886.0,-99.048,-35.728,-65.595,-33.655
11896.0,-95.048,-35.728,-58.595,-31.655
11906.0,-92.048,-33.728,-54.595,-29.655
11916.0,-90.048,-33.728,-48.595,-28.655
11925.0,-90.048,-34.728,-46.595,-27.655
11935.0,-94.048,-36.728,-42.595,-27.655
11945.0,-96.048,-39.728,-39.595,-25.655
11955.0,-107.05,-43.728,-39.595,-27.655
11965.0,-108.05,-43.728,-36.595,-26.655
11975.0,-109.05,-43.728,-40.595,-26.655
11985.0,-110.05,-44.728,-40.595,-29.655
11995.0,-112.05,-43.728,-41.595,-28.655
12005.0,-113.05,-45.728,-44.595,-28.655
12014.0,-113.05,-45.728,-46.595,-29.655
12024.0,-113.05,-44.728,-46.595,-30.655
12034.0,-113.05,-45.728,-49.595,-30.655
12044.0,-116.05,-46.728,-49.595,-30.655
12054.0,-119.05,-46.728,-49.595,-28.655
12064.0,-119.05,-48.728,-49.595,-28.655
12074.0,-121.05,-48.728,-49.595,-28.655
12084.0,-122.05,-49.728,-48.595,-27.655
12094.0,-123.05,-50.728,-51.595,-27.655
12103.0,-127.05,-50.728,-49.595,-25.655
12113.0,-128.05,-51.728,-51.595,-26.655
12123.0,-133.05,-53.728,-50.595,-26.655
12133.0,-136.05,-55.728,-51.595,-27.655
12143.0,-137.05,-55.728,-51.595,-26.655
12153.0,-137.05,-55.728,-54.595,-26.655
12163.0,-144.05,-57.728,-54.595,-27.655
12173.0,-144.05,-57.728,-56.595,-27.655
12183.0,-153.05,-60.728,-55.595,-26.655
12192.0,-153.05,-60.728,-56.595,-27.655
12202.0,-158.05,-63.728,-58.595,-27.655
12212.0,-158.05,-63.728,-59.595,-27.655
12222.0,-163.05,-65.728,-59.595,-26.655
12232.0,-163.05,-65.728,-61.595,-28.655
12242.0,-176.05,-69.728,-63.595,-27.655
12252.0,-176.05,-69.728,-64.595,-28.655
12262.0,-187.05,-73.728,-66.595,-27.655
12271.0,-187.05,-73.728,-67.595,-28.655
12281.0,-137.05,-43.728,-69.595,-28.655
12291.0,-137.05,-43.728,-71.595,-30.655
12301.0,-111.05,-34.728,-75.595,-31.655
12311.0,-111.05,-34.728,-75.595,-31.655
12321.0,-107.05,-34.728,-73.595,-28.655
12331.0,-102.05,-35.728,-68.595,-27.655
12341.0,-95.048,-33.728,-62.595,-26.655
12351.0,-93.048,-33.728,-56.595,-24.655
12360.0,-88.048,-33.728,-49.595,-23.655
12370.0,-83.048,-30.728,-43.595,-19.655
12380.0,-75.048,-28.728,-37.595,-17.655
12390.0,-70.048,-25.728,-35.595,-17.655
12400.0,-69.048,-25.728,-31.595,-16.655
12410.0,-71.048,-26.728,-27.595,-16.655
12420.0,-74.048,-28.728,-27.595,-16.655
12430.0,-78.048,-30.728,-25.595,-15.655
12440.0,-85.048,-34.728,-25.595,-15.655
12449.0,-87.048,-35.728,-26.595,-17.655
12459.0,-84.048,-34.728,-26.595,-17.655
12469.0,-86.048,-34.728,-28.595,-17.655
12479.0,-84.048,-34.728,-28.595,-17.655
12489.0,-86.048,-35.728,-33.595,-18.655
12499.0,-86.048,-35.728,-33.595,-18.655
12509.0,-83.048,-32.728,-33.595,-19.655
12519.0,-85.048,-34.728,-33.595,-19.655
12529.0,-85.048,-33.728,-35.595,-18.655
12538.0,-86.048,-33.728,-35.595,-18.655
12548.0,-86.048,-34.728,-36.595,-18.655
12558.0,-89.048,-36.728,-36.595,-18.655
12568.0,-90.048,-37.728,-38.595,-17.655
12578.0,-91.048,-37.728,-38.595,-17.655
12588.0,-94.048,-38.728,-39.595,-17.655
12598.0,-95.048,-38.728,-39.595,-17.655
12608.0,-97.048,-38.728,-40.595,-17.655
12617.0,-100.05,-40.728,-40.595,-17.655
12627.0,-100.05,-39.728,-40.595,-17.655
12637.0,-105.05,-43.728,-42.595,-17.655
12647.0,-107.05,-41.728,-44.595,-18.655
12657.0,-110.05,-43.728,-45.595,-18.655
12667.0,-112.05,-44.728,-46.595,-20.655
12677.0,-116.05,-45.728,-48.595,-19.655
12687.0,-119.05,-48.728,-50.595,-20.655
12697.0,-121.05,-49.728,-51.595,-21.655
12706.0,-127.05,-49.728,-52.595,-20.655
12716.0,-131.05,-51.728,-53.595,-20.655
12726.0,-137.05,-54.728,-54.595,-20.655
12736.0,-141.05,-56.728,-58.595,-20.655
12746.0,-144.05,-56.728,-57.595,-21.655
12756.0,-122.05,-43.728,-59.595,-21.655
12766.0,-80.048,-21.728,-63.595,-21.655
12776.0,-69.048,-17.728,-64.595,-23.655
12786.0,-65.048,-17.728,-63.595,-22.655
12795.0,-63.048,-19.728,-58.595,-21.655
12805.0,-61.048,-18.728,-55.595,-19.655
12815.0,-56.048,-18.728,-49.595,-17.655
12825.0,-52.048,-17.728,-42.595,-16.655
12835.0,-46.048,-15.728,-36.595,-14.655
12845.0,-37.048,-12.728,-32.595,-13.655
12855.0,-29.048,-9.7278,-26.595,-9.6548
12865.0,-26.048,-9.7278,-22.595,-11.655
12875.0,-25.048,-9.7278,-18.595,-9.6548
12884.0,-28.048,-11.728,-16.595,-7.6548
12894.0,-30.048,-13.728,-13.595,-8.6548
12904.0,-37.048,-17.728,-9.5946,-7.6548
12914.0,-44.048,-21.728,-9.5946,-6.6548
12924.0,-53.048,-26.728,-7.5946,-6.6548
12934.0,-58.048,-26.728,-7.5946,-6.6548
12944.0,-56.048,-26.728,-7.5946,-5.6548
12954.0,-57.048,-27.728,-9.5946,-7.6548
12963.0,-58.048,-27.728,-10.595,-7.6548
12973.0,-59.048,-28.728,-10.595,-6.6548
12983.0,-61.048,-29.728,-12.595,-7.6548
12993.0,-65.048,-32.728,-11.595,-6.6548
13003.0,-71.048,-34.728,-12.595,-5.6548
13013.0,-76.048,-37.728,-12.595,-3.6548
13023.0,-76.048,-37.728,-12.595,-3.6548
13033.0,-82.048,-39.728,-13.595,-2.6548
13043.0,-82.048,-39.728,-12.595,-3.6548
13052.0,-88.048,-43.728,-11.595,-1.6548
13062.0,-88.048,-43.728,-11.595,-1.6548
13072.0,-99.048,-48.728,-11.595,-1.6548
13082.0,-99.048,-48.728,-12.595,-0.65476
13092.0,-110.05,-53.728,-12.595,-2.6548
13102.0,-110.05,-53.728,-12.595,-0.65476
13112.0,-119.05,-56.728,-15.595,-0.65476
13122.0,-119.05,-56.728,-15.595,-0.65476
13132.0,-131.05,-63.728,-15.595,0.34524
13141.0,-131.05,-63.728,-16.595,-0.65476
13151.0,-141.05,-67.728,-16.595,0.34524
13161.0,-141.05,-67.728,-16.595,1.3452
13171.0,-152.05,-72.728,-16.595,0.34524
13181.0,-152.05,-72.728,-17.595,1.3452
13191.0,-156.05,-73.728,-18.595,1.3452
13201.0,-158.05,-75.728,-18.595,1.3452
13211.0,-162.05,-76.728,-19.595,1.3452
13221.0,-145.05,-65.728,-21.595,1.3452
13230.0,-108.05,-42.728,-21.595,0.34524
13240.0,-79.048,-31.728,-24.595,1.3452
13250.0,-71.048,-28.728,-22.595,2.3452
13260.0,-66.048,-30.728,-16.595,5.3452
13270.0,-66.048,-32.728,-7.5946,7.3452
13280.0,-62.048,-32.728,-1.5946,9.3452
13290.0,-59.048,-32.728,5.4054,12.345
13300.0,-51.048,-29.728,12.405,13.345
13309.0,-40.048,-25.728,20.405,16.345
13319.0,-27.048,-20.728,25.405,18.345
13329.0,-22.048,-18.728,29.405,19.345
13339.0,-18.048,-17.728,33.405,21.345
13349.0,-13.048,-15.728,36.405,20.345
13359.0,-10.048,-16.728,37.405,21.345
13369.0,-9.0476,-15.728,39.405,21.345
13379.0,-13.048,-18.728,42.405,21.345
13389.0,-21.048,-22.728,41.405,22.345
13398.0,-32.048,-29.728,42.405,22.345
13408.0,-36.048,-29.728,44.405,23.345
13418.0,-33.048,-28.728,42.405,22.345
13428.0,-32.048,-26.728,39.405,22.345
13438.0,-30.048,-28.728,42.405,23.345
13448.0,-30.048,-26.728,43.405,24.345
13458.0,-33.048,-27.728,41.405,23.345
13468.0,-32.048,-28.728,41.405,23.345
13478.0,-34.048,-27.728,40.405,24.345
13487.0,-35.048,-28.728,40.405,24.345
13497.0,-37.048,-31.728,38.405,25.345
13507.0,-40.048,-31.728,38.405,25.345
13517.0,-41.048,-32.728,42.405,28.345
13527.0,-41.048,-32.728,42.405,28.345
13537.0,-40.048,-32.728,40.405,29.345
13547.0,-41.048,-31.728,40.405,29.345
13557.0,-41.048,-32.728,38.405,28.345
13567.0,-42.048,-32.728,38.405,28.345
13576.0,-42.048,-32.728,37.405,29.345
13586.0,-43.048,-31.728,37.405,29.345
13596.0,-46.048,-32.728,35.405,28.345
13606.0,-46.048,-32.728,35.405,28.345
13616.0,-48.048,-31.728,34.405,28.345
13626.0,-49.048,-32.728,34.405,28.345
13636.0,-52.048,-33.728,30.405,26.345
13646.0,-57.048,-33.728,30.405,26.345
13655.0,-58.048,-33.728,27.405,25.345
13665.0,-53.048,-30.728,27.405,25.345
13675.0,-18.048,-9.7278,26.405,26.345
13685.0,32.952,16.272,24.405,23.345
13695.0,43.952,18.272,20.405,24.345
13705.0,52.952,21.272,21.405,23.345
13715.0,56.952,20.272,25.405,25.345
13725.0,64.952,22.272,29.405,27.345
13735.0,72.952,25.272,36.405,29.345
13744.0,81.952,28.272,43.405,32.345
13754.0,94.952,33.272,50.405,34.345
13764.0,106.95,40.272,54.405,35.345
13774.0,116.95,43.272,60.405,36.345
13784.0,122.95,45.272,66.405,37.345
13794.0,127.95,46.272,68.405,38.345
13804.0,126.95,45.272,70.405,38.345
13814.0,126.95,45.272,73.405,39.345
13824.0,123.95,43.272,74.405,38.345
13833.0,116.95,39.272,75.405,38.345
13843.0,103.95,34.272,75.405,38.345
13853.0,97.952,32.272,76.405,38.345
13863.0,96.952,30.272,74.405,37.345
13873.0,92.952,28.272,73.405,37.345
13883.0,88.952,26.272,74.405,36.345
13893.0,88.952,26.272,72.405,36.345
13903.0,75.952,21.272,71.405,36.345
13912.0,75.952,21.272,71.405,34.345
13922.0,71.952,19.272,67.405,35.345
13932.0,71.952,19.272,66.405,36.345
13942.0,67.952,17.272,65.405,35.345
13952.0,67.952,17.272,66.405,34.345
13962.0,64.952,16.272,64.405,34.345
13972.0,64.952,16.272,61.405,35.345
13982.0,55.952,13.272,61.405,34.345
13992.0,55.952,13.272,60.405,35.345
14001.0,43.952,8.2722,58.405,33.345
14011.0,43.952,8.2722,58.405,34.345
14021.0,35.952,4.2722,54.405,31.345
14031.0,35.952,4.2722,51.405,32.345
14041.0,24.952,-0.72779,50.405,30.345
14051.0,24.952,-0.72779,50.405,30.345
14061.0,14.952,-3.7278,48.405,30.345
14071.0,14.952,-3.7278,48.405,30.345
14081.0,9.9524,-6.7278,45.405,30.345
14090.0,4.9524,-7.7278,44.405,31.345
14100.0,-1.0476,-10.728,44.405,29.345
14110.0,-7.0476,-12.728,42.405,29.345
14120.0,-14.048,-14.728,42.405,28.345
14130.0,-14.048,-14.728,40.405,31.345
14140.0,9.9524,-0.72779,37.405,29.345
14150.0,48.952,19.272,38.405,29.345
14160.0,58.952,22.272,38.405,29.345
14170.0,67.952,26.272,40.405,32.345
14179.0,70.952,25.272,46.405,33.345
14189.0,73.952,25.272,51.405,35.345
14199.0,80.952,25.272,58.405,37.345
14209.0,88.952,28.272,61.405,38.345
14219.0,100.95,33.272,67.405,39.345
14229.0,110.95,37.272,71.405,40.345
14239.0,118.95,41.272,78.405,40.345
14249.0,124.95,43.272,82.405,42.345
14258.0,123.95,43.272,85.405,42.345
14268.0,122.95,41.272,89.405,44.345
14278.0,120.95,39.272,90.405,44.345
14288.0,114.95,35.272,96.405,44.345
14298.0,108.95,33.272,96.405,44.345
14308.0,101.95,28.272,94.405,43.345
14318.0,97.952,27.272,92.405,43.345
14328.0,96.952,27.272,91.405,41.345
14338.0,95.952,25.272,89.405,41.345
14347.0,90.952,25.272,87.405,40.345
14357.0,86.952,22.272,85.405,40.345
14367.0,79.952,21.272,84.405,38.345
14377.0,77.952,18.272,82.405,40.345
14387.0,72.952,16.272,81.405,38.345
14397.0,67.952,13.272,78.405,40.345
14407.0,57.952,9.2722,79.405,40.345
14417.0,51.952,7.2722,76.405,40.345
14427.0,47.952,5.2722,75.405,38.345
14436.0,41.952,1.2722,72.405,38.345
14446.0,34.952,-0.72779,70.405,38.345
14456.0,27.952,-3.7278,69.405,37.345
14466.0,20.952,-6.7278,68.405,36.345
14476.0,15.952,-9.7278,65.405,35.345
14486.0,10.952,-11.728,63.405,35.345
14496.0,5.9524,-13.728,62.405,34.345
14506.0,-2.0476,-16.728,62.405,33.345
14516.0,-8.0476,-18.728,59.405,34.345
14525.0,-17.048,-21.728,57.405,33.345
14535.0,-21.048,-24.728,57.405,33.345
14545.0,-27.048,-27.728,54.405,31.345
14555.0,-35.048,-29.728,54.405,31.345
14565.0,-41.048,-31.728,48.405,29.345
14575.0,-48.048,-34.728,48.405,29.345
14585.0,-55.048,-36.728,41.405,26.345
14595.0,-58.048,-37.728,41.405,26.345
14604.0,-38.048,-24.728,36.405,24.345
14614.0,1.9524,-4.7278,36.405,24.345
14624.0,15.952,2.2722,33.405,22.345
14634.0,27.952,5.2722,33.405,22.345
14644.0,29.952,4.2722,40.405,25.345
14654.0,35.952,6.2722,40.405,25.345
14664.0,46.952,10.272,48.405,27.345
14674.0,56.952,12.272,48.405,27.345
14684.0,67.952,18.272,58.405,28.345
14693.0,82.952,24.272,58.405,28.345
14703.0,93.952,29.272,69.405,31.345
14713.0,102.95,33.272,69.405,31.345
14723.0,107.95,34.272,75.405,30.345
14733.0,108.95,34.272,75.405,30.345
14743.0,107.95,33.272,76.405,31.345
14753.0,105.95,32.272,79.405,30.345
14763.0,103.95,31.272,79.405,31.345
14773.0,102.95,31.272,80.405,31.345
14782.0,102.95,31.272,80.405,31.345
14792.0,101.95,30.272,79.405,29.345
14802.0,101.95,30.272,77.405,28.345
14812.0,99.952,30.272,75.405,27.345
14822.0,99.952,30.272,74.405,28.345
14832.0,97.952,30.272,70.405,25.345
14842.0,97.952,30.272,67.405,24.345
14852.0,95.952,30.272,64.405,22.345
14862.0,95.952,30.272,62.405,22.345
14871.0,91.952,29.272,57.405,21.345
14881.0,91.952,29.272,56.405,21.345
14891.0,85.952,27.272,54.405,20.345
14901.0,85.952,27.272,52.405,21.345
14911.0,82.952,27.272,52.405,21.345
14921.0,82.952,27.272,52.405,21.345
14931.0,73.952,23.272,52.405,19.345
14941.0,73.952,23.272,48.405,19.345
14950.0,68.952,21.272,45.405,18.345
14960.0,66.952,20.272,44.405,16.345
14970.0,63.952,18.272,42.405,16.345
14980.0,59.952,18.272,40.405,15.345
14990.0,59.952,17.272,36.405,14.345
15000.0,53.952,18.272,36.405,12.345
15010.0,52.952,15.272,34.405,14.345
15020.0,46.952,16.272,32.405,12.345
15030.0,41.952,12.272,33.405,13.345
15039.0,34.952,10.272,29.405,13.345
15049.0,28.952,8.2722,27.405,12.345
15059.0,24.952,6.2722,22.405,11.345
15069.0,16.952,3.2722,18.405,8.3452
15079.0,10.952,1.2722,17.405,7.3452
15089.0,22.952,10.272,12.405,6.3452
15099.0,51.952,26.272,6.4054,4.3452
15109.0,66.952,33.272,7.4054,5.3452
15119.0,74.952,36.272,14.405,5.3452
15128.0,77.952,35.272,16.405,8.3452
15138.0,78.952,33.272,23.405,11.345
15148.0,86.952,37.272,30.405,13.345
15158.0,89.952,37.272,35.405,15.345
15168.0,94.952,38.272,40.405,16.345
15178.0,99.952,40.272,45.405,17.345
15188.0,107.95,44.272,45.405,16.345
15198.0,115.95,46.272,47.405,15.345
15208.0,120.95,49.272,48.405,14.345
15217.0,125.95,49.272,49.405,13.345
15227.0,128.95,52.272,51.405,13.345
15237.0,127.95,50.272,51.405,14.345
15247.0,122.95,48.272,52.405,13.345
15257.0,117.95,45.272,53.405,13.345
15267.0,113.95,43.272,54.405,13.345
15277.0,108.95,43.272,51.405,12.345
15287.0,107.95,43.272,48.405,11.345
15296.0,102.95,41.272,47.405,9.3452
15306.0,95.952,36.272,43.405,8.3452
15316.0,90.952,35.272,39.405,6.3452
15326.0,86.952,32.272,37.405,5.3452
15336.0,80.952,29.272,37.405,6.3452
15346.0,77.952,28.272,33.405,6.3452
15356.0,75.952,27.272,34.405,7.3452
15366.0,71.952,26.272,32.405,7.3452
15376.0,68.952,26.272,31.405,7.3452
15385.0,67.952,24.272,30.405,8.3452
15395.0,63.952,23.272,26.405,7.3452
15405.0,58.952,22.272,24.405,6.3452
15415.0,55.952,21.272,22.405,3.3452
15425.0,53.952,20.272,21.405,5.3452
15435.0,53.952,20.272,18.405,3.3452
15445.0,49.952,18.272,16.405,3.3452
15455.0,47.952,17.272,15.405,2.3452
15465.0,43.952,15.272,12.405,1.3452
15474.0,36.952,13.272,13.405,2.3452
15484.0,31.952,11.272,11.405,2.3452
15494.0,25.952,9.2722,10.405,1.3452
15504.0,18.952,5.2722,9.4054,-0.65476
15514.0,11.952,3.2722,5.4054,-0.65476
15524.0,5.9524,2.2722,2.4054,-2.6548
15534.0,0.95241,-0.72779,0.40535,-3.6548
15544.0,-4.0476,-2.7278,-2.5946,-3.6548
15554.0,-10.048,-3.7278,-4.5946,-3.6548
15563.0,-15.048,-6.7278,-4.5946,-3.6548
15573.0,-2.0476,4.2722,-9.5946,-4.6548
15583.0,25.952,18.272,-9.5946,-4.6548
15593.0,40.952,25.272,-9.5946,-4.6548
15603.0,51.952,28.272,-9.5946,-4.6548
15613.0,53.952,28.272,-5.5946,-3.6548
15623.0,56.952,27.272,-5.5946,-3.6548
15633.0,56.952,27.272,4.4054,0.34524
15642.0,61.952,27.272,4.4054,0.34524
15652.0,61.952,27.272,13.405,2.3452
15662.0,71.952,30.272,13.405,2.3452
15672.0,71.952,30.272,21.405,4.3452
15682.0,88.952,37.272,21.405,4.3452
15692.0,88.952,37.272,25.405,3.3452
15702.0,94.952,40.272,25.405,3.3452
15712.0,94.952,40.272,28.405,3.3452
15722.0,84.952,35.272,28.405,3.3452
15731.0,84.952,35.272,28.405,4.3452
15741.0,73.952,29.272,28.405,4.3452
15751.0,73.952,29.272,27.405,3.3452
15761.0,75.952,31.272,28.405,3.3452
15771.0,75.952,31.272,25.405,1.3452
15781.0,71.952,29.272,22.405,0.34524
15791.0,71.952,29.272,19.405,-0.65476
15801.0,65.952,28.272,17.405,-1.6548
15811.0,65.952,28.272,15.405,-1.6548
15820.0,63.952,27.272,14.405,-1.6548
15830.0,62.952,26.272,11.405,-1.6548
15840.0,58.952,25.272,11.405,-1.6548
15850.0,55.952,23.272,9.4054,-0.65476
15860.0,52.952,22.272,10.405,-0.65476
15870.0,48.952,21.272,8.4054,-0.65476
15880.0,46.952,19.272,9.4054,0.34524
15890.0,42.952,18.272,8.4054,0.34524
15900.0,38.952,17.272,6.4054,-1.6548
15909.0,36.952,17.272,1.4054,-1.6548
15919.0,35.952,16.272,0.40535,-2.6548
15929.0,33.952,15.272,-1.5946,-3.6548
15939.0,29.952,15.272,-3.5946,-4.6548
15949.0,28.952,14.272,-3.5946,-3.6548
15959.0,25.952,13.272,-5.5946,-4.6548
15969.0,22.952,12.272,-4.5946,-5.6548
15979.0,18.952,10.272,-8.5946,-6.6548
15988.0,11.952,7.2722,-9.5946,-4.6548
15998.0,8.9524,6.2722,-10.595,-5.6548
16008.0,3.9524,6.2722,-12.595,-7.6548
16018.0,-1.0476,3.2722,-13.595,-5.6548
16028.0,-3.0476,2.2722,-15.595,-8.6548
16038.0,-7.0476,1.2722,-17.595,-7.6548
16048.0,-12.048,-0.72779,-18.595,-8.6548
16058.0,-19.048,-3.7278,-22.595,-7.6548
16068.0,-16.048,2.2722,-25.595,-9.6548
16077.0,1.9524,13.272,-25.595,-9.6548
16087.0,31.952,26.272,-29.595,-11.655
16097.0,36.952,28.272,-29.595,-10.655
16107.0,43.952,31.272,-24.595,-8.6548
16117.0,44.952,29.272,-20.595,-7.6548
16127.0,51.952,30.272,-17.595,-6.6548
16137.0,52.952,30.272,-12.595,-4.6548
16147.0,49.952,27.272,-7.5946,-3.6548
16157.0,49.952,26.272,-3.5946,-3.6548
16166.0,55.952,29.272,0.40535,-1.6548
16176.0,58.952,30.272,4.4054,-0.65476
16186.0,61.952,31.272,8.4054,-0.65476
16196.0,63.952,31.272,9.4054,0.34524
16206.0,59.952,29.272,12.405,1.3452
16216.0,51.952,26.272,12.405,0.34524
16226.0,45.952,22.272,12.405,-0.65476
16236.0,42.952,20.272,11.405,-0.65476
16246.0,43.952,21.272,10.405,-0.65476
16255.0,45.952,23.272,8.4054,-2.6548
16265.0,46.952,25.272,6.4054,-2.6548
16275.0,46.952,25.272,2.4054,-3.6548
16285.0,46.952,25.272,2.4054,-2.6548
16295.0,46.952,24.272,0.40535,-3.6548
16305.0,45.952,23.272,-0.59465,-3.6548
16315.0,43.952,23.272,-2.5946,-4.6548
16325.0,39.952,21.272,-3.5946,-4.6548
16334.0,38.952,20.272,-5.5946,-4.6548
16344.0,33.952,19.272,-6.5946,-5.6548
16354.0,29.952,18.272,-7.5946,-4.6548
16364.0,27.952,16.272,-8.5946,-3.6548
16374.0,23.952,16.272,-6.5946,-3.6548
16384.0,19.952,14.272,-9.5946,-3.6548
16394.0,16.952,13.272,-11.595,-5.6548
16404.0,14.952,13.272,-13.595,-6.6548
16414.0,12.952,13.272,-15.595,-5.6548
16423.0,9.9524,11.272,-18.595,-7.6548
16433.0,7.9524,11.272,-18.595,-7.6548
16443.0,6.9524,10.272,-20.595,-7.6548
16453.0,1.9524,9.2722,-23.595,-8.6548
16463.0,-1.0476,7.2722,-23.595,-8.6548
16473.0,-6.0476,5.2722,-25.595,-9.6548
16483.0,-11.048,3.2722,-27.595,-8.6548
16493.0,-13.048,3.2722,-26.595,-9.6548
16503.0,-18.048,1.2722,-29.595,-9.6548
16512.0,-22.048,-0.72779,-31.595,-8.6548
16522.0,-22.048,-0.72779,-32.595,-10.655
16532.0,-31.048,-2.7278,-35.595,-9.6548
16542.0,-31.048,-2.7278,-35.595,-10.655
16552.0,-38.048,-4.7278,-38.595,-10.655
16562.0,-38.048,-4.7278,-40.595,-12.655
16572.0,6.9524,20.272,-41.595,-13.655
16582.0,6.9524,20.272,-44.595,-13.655
16592.0,17.952,25.272,-44.595,-13.655
16601.0,17.952,25.272,-37.595,-10.655
16611.0,26.952,26.272,-37.595,-10.655
16621.0,26.952,26.272,-29.595,-8.6548
16631.0,31.952,24.272,-29.595,-8.6548
16641.0,31.952,24.272,-21.595,-5.6548
16651.0,33.952,25.272,-21.595,-5.6548
16661.0,33.952,25.272,-14.595,-3.6548
16671.0,39.952,28.272,-14.595,-3.6548
16680.0,39.952,28.272,-9.5946,-2.6548
16690.0,42.952,28.272,-9.5946,-2.6548
16700.0,39.952,27.272,-5.5946,-0.65476
16710.0,33.952,24.272,-5.5946,-0.65476
16720.0,23.952,18.272,-6.5946,-2.6548
16730.0,19.952,16.272,-6.5946,-2.6548
16740.0,17.952,16.272,-9.5946,-3.6548
16750.0,16.952,17.272,-9.5946,-3.6548
16760.0,19.952,18.272,-14.595,-5.6548
16769.0,20.952,18.272,-14.595,-5.6548
16779.0,22.952,19.272,-20.595,-7.6548
16789.0,22.952,20.272,-20.595,-7.6548
16799.0,22.952,20.272,-20.595,-7.6548
16809.0,20.952,19.272,-21.595,-8.6548
16819.0,20.952,18.272,-26.595,-8.6548
16829.0,16.952,16.272,-26.595,-8.6548
16839.0,11.952,14.272,-26.595,-7.6548
16849.0,6.9524,12.272,-29.595,-9.6548
16858.0,2.9524,10.272,-28.595,-8.6548
16868.0,-0.047588,10.272,-30.595,-10.655
16878.0,-5.0476,7.2722,-30.595,-8.6548
16888.0,-9.0476,6.2722,-33.595,-10.655
16898.0,-14.048,4.2722,-35.595,-10.655
16908.0,-19.048,4.2722,-37.595,-13.655
16918.0,-19.048,3.2722,-39.595,-12.655
16928.0,-21.048,2.2722,-42.595,-13.655
16938.0,-25.048,0.27221,-42.595,-13.655
16947.0,-31.048,-1.7278,-45.595,-14.655
16957.0,-37.048,-4.7278,-46.595,-16.655
16967.0,-45.048,-6.7278,-49.595,-16.655
16977.0,-54.048,-11.728,-50.595,-16.655
16987.0,-62.048,-15.728,-54.595,-17.655
16997.0,-67.048,-17.728,-55.595,-17.655
17007.0,-73.048,-18.728,-58.595,-19.655
17017.0,-75.048,-19.728,-60.595,-19.655
17026.0,-80.048,-21.728,-62.595,-20.655
17036.0,-85.048,-23.728,-66.595,-22.655
17046.0,-90.048,-23.728,-67.595,-23.655
17056.0,-76.048,-14.728,-71.595,-24.655
17066.0,-48.048,0.27221,-72.595,-24.655
17076.0,-31.048,8.2722,-75.595,-25.655
17086.0,-21.048,10.272,-75.595,-24.655
17096.0,-20.048,10.272,-70.595,-23.655
17106.0,-13.048,10.272,-68.595,-22.655
17115.0,-10.048,11.272,-65.595,-21.655
17125.0,-10.048,9.2722,-61.595,-20.655
17135.0,-13.048,6.2722,-58.595,-19.655
17145.0,-12.048,7.2722,-55.595,-21.655
17155.0,-8.0476,9.2722,-51.595,-19.655
17165.0,-4.0476,10.272,-51.595,-20.655
17175.0,-1.0476,12.272,-48.595,-20.655
17185.0,-0.047588,11.272,-47.595,-20.655
17195.0,-4.0476,9.2722,-47.595,-19.655
17204.0,-10.048,6.2722,-45.595,-21.655
17214.0,-19.048,2.2722,-50.595,-22.655
17224.0,-18.048,2.2722,-50.595,-23.655
17234.0,-16.048,3.2722,-52.595,-25.655
17244.0,-13.048,5.2722,-55.595,-25.655
17254.0,-9.0476,7.2722,-57.595,-27.655
17264.0,-8.0476,9.2722,-58.595,-28.655
17274.0,-5.0476,9.2722,-63.595,-29.655
17284.0,-8.0476,9.2722,-64.595,-30.655
17293.0,-11.048,7.2722,-65.595,-30.655
17303.0,-13.048,6.2722,-70.595,-31.655
17313.0,-16.048,4.2722,-68.595,-31.655
17323.0,-23.048,2.2722,-72.595,-32.655
17333.0,-27.048,0.27221,-73.595,-32.655
17343.0,-33.048,-1.7278,-74.595,-32.655
17353.0,-38.048,-3.7278,-76.595,-32.655
17363.0,-43.048,-5.7278,-76.595,-31.655
17372.0,-43.048,-5.7278,-77.595,-32.655
17382.0,-49.048,-8.7278,-76.595,-32.655
17392.0,-49.048,-8.7278,-76.595,-31.655
17402.0,-51.048,-8.7278,-78.595,-31.655
17412.0,-51.048,-8.7278,-80.595,-32.655
17422.0,-52.048,-9.7278,-82.595,-32.655
17432.0,-52.048,-9.7278,-82.595,-31.655
17442.0,-55.048,-9.7278,-83.595,-32.655
17452.0,-55.048,-9.7278,-85.595,-31.655
17461.0,-65.048,-13.728,-86.595,-33.655
17471.0,-65.048,-13.728,-87.595,-33.655
17481.0,-74.048,-16.728,-90.595,-33.655
17491.0,-74.048,-16.728,-90.595,-35.655
17501.0,-82.048,-20.728,-92.595,-35.655
17511.0,-82.048,-20.728,-94.595,-36.655
17521.0,-95.048,-25.728,-97.595,-36.655
17531.0,-95.048,-25.728,-98.595,-38.655
17541.0,-85.048,-16.728,-102.59,-38.655
17550.0,-85.048,-16.728,-102.59,-37.655
17560.0,-61.048,-1.7278,-104.59,-39.655
17570.0,-44.048,5.2722,-105.59,-37.655
17580.0,-37.048,7.2722,-101.59,-37.655
17590.0,-36.048,6.2722,-97.595,-36.655
17600.0,-27.048,7.2722,-91.595,-32.655
17610.0,-21.048,8.2722,-87.595,-32.655
17620.0,-18.048,8.2722,-82.595,-30.655
17630.0,-20.048,6.2722,-78.595,-29.655
17639.0,-20.048,6.2722,-73.595,-28.655
17649.0,-16.048,7.2722,-68.595,-26.655
17659.0,-12.048,8.2722,-68.595,-26.655
17669.0,-10.048,9.2722,-64.595,-24.655
17679.0,-13.048,7.2722,-64.595,-24.655
17689.0,-18.048,5.2722,-59.595,-24.655
17699.0,-21.048,1.2722,-59.595,-24.655
17709.0,-28.048,-1.7278,-57.595,-24.655
17718.0,-28.048,-0.72779,-57.595,-24.655
17728.0,-31.048,-1.7278,-59.595,-24.655
17738.0,-32.048,-1.7278,-59.595,-24.655
17748.0,-32.048,-1.7278,-59.595,-23.655
17758.0,-34.048,-2.7278,-59.595,-23.655
17768.0,-35.048,-4.7278,-59.595,-22.655
17778.0,-39.048,-4.7278,-59.595,-22.655
17788.0,-40.048,-6.7278,-62.595,-21.655
17798.0,-41.048,-5.7278,-62.595,-21.655
17807.0,-43.048,-6.7278,-62.595,-20.655
17817.0,-43.048,-6.7278,-62.595,-20.655
17827.0,-43.048,-6.7278,-60.595,-18.655
17837.0,-46.048,-8.7278,-60.595,-18.655
17847.0,-48.048,-9.7278,-60.595,-18.655
17857.0,-49.048,-9.7278,-60.595,-19.655
17867.0,-51.048,-9.7278,-62.595,-19.655
17877.0,-53.048,-10.728,-61.595,-19.655
17887.0,-54.048,-10.728,-61.595,-18.655
17896.0,-56.048,-11.728,-64.595,-18.655
17906.0,-58.048,-11.728,-65.595,-18.655
17916.0,-60.048,-12.728,-67.595,-20.655
17926.0,-64.048,-14.728,-66.595,-18.655
17936.0,-66.048,-15.728,-68.595,-19.655
17946.0,-68.048,-15.728,-68.595,-19.655
17956.0,-71.048,-17.728,-69.595,-18.655
17966.0,-75.048,-17.728,-71.595,-17.655
17976.0,-79.048,-19.728,-70.595,-18.655
17985.0,-82.048,-20.728,-69.595,-17.655
17995.0,-84.048,-21.728,-71.595,-17.655
18005.0,-89.048,-24.728,-72.595,-17.655
18015.0,-94.048,-25.728,-74.595,-17.655
18025.0,-96.048,-25.728,-74.595,-16.655
18035.0,-83.048,-16.728,-72.595,-17.655
18045.0,-56.048,-0.72779,-75.595,-17.655
18055.0,-44.048,3.2722,-77.595,-18.655
18064.0,-35.048,5.2722,-76.595,-16.655
18074.0,-31.048,7.2722,-71.595,-15.655
18084.0,-20.048,8.2722,-65.595,-13.655
18094.0,-13.048,10.272,-60.595,-11.655
18104.0,-9.0476,9.2722,-56.595,-10.655
18114.0,-7.0476,10.272,-51.595,-8.6548
18124.0,-7.0476,10.272,-45.595,-6.6548
18134.0,-4.0476,11.272,-41.595,-4.6548
18144.0,-0.047588,12.272,-35.595,-3.6548
18153.0,0.95241,13.272,-31.595,-2.6548
18163.0,0.95241,12.272,-29.595,-0.65476
18173.0,-6.0476,8.2722,-27.595,-0.65476
18183.0,-9.0476,6.2722,-24.595,-0.65476
18193.0,-16.048,2.2722,-23.595,0.34524
18203.0,-17.048,3.2722,-23.595,-0.65476
18213.0,-15.048,3.2722,-25.595,-1.6548
18223.0,-17.048,3.2722,-24.595,-2.6548
18233.0,-16.048,4.2722,-27.595,-1.6548
18242.0,-16.048,4.2722,-29.595,-1.6548
18252.0,-18.048,3.2722,-28.595,-2.6548
18262.0,-18.048,3.2722,-30.595,-3.6548
18272.0,-22.048,1.2722,-29.595,-2.6548
18282.0,-22.048,1.2722,-30.595,-1.6548
18292.0,-23.048,1.2722,-31.595,-1.6548
18302.0,-23.048,1.2722,-31.595,-1.6548
18312.0,-26.048,-0.72779,-30.595,-2.6548
18322.0,-26.048,-0.72779,-30.595,0.34524
18331.0,-30.048,-2.7278,-29.595,0.34524
18341.0,-30.048,-2.7278,-30.595,-0.65476
18351.0,-33.048,-3.7278,-30.595,-0.65476
18361.0,-33.048,-3.7278,-31.595,-0.65476
18371.0,-38.048,-5.7278,-30.595,0.34524
18381.0,-38.048,-5.7278,-32.595,-0.65476
18391.0,-45.048,-8.7278,-32.595,-0.65476
18401.0,-45.048,-8.7278,-34.595,0.34524
18410.0,-48.048,-9.7278,-37.595,-0.65476
18420.0,-50.048,-10.728,-38.595,-0.65476
18430.0,-54.048,-10.728,-38.595,-0.65476
18440.0,-58.048,-12.728,-40.595,-2.6548
18450.0,-61.048,-14.728,-39.595,-0.65476
18460.0,-64.048,-16.728,-39.595,-1.6548
18470.0,-69.048,-16.728,-42.595,-1.6548
18480.0,-71.048,-17.728,-41.595,-1.6548
18490.0,-78.048,-21.728,-42.595,-2.6548
18499.0,-81.048,-22.728,-45.595,-1.6548
18509.0,-87.048,-24.728,-45.595,-2.6548
18519.0,-74.048,-15.728,-46.595,-1.6548
18529.0,-49.048,0.27221,-49.595,-4.6548
18539.0,-25.048,9.2722,-49.595,-2.6548
18549.0,-17.048,12.272,-45.595,-0.65476
18559.0,-9.0476,15.272,-40.595,1.3452
18569.0,-1.0476,15.272,-35.595,4.3452
18579.0,5.9524,17.272,-26.595,5.3452
18588.0,10.952,17.272,-20.595,7.3452
18598.0,13.952,17.272,-15.595,10.345
18608.0,18.952,18.272,-7.5946,11.345
18618.0,20.952,19.272,-3.5946,12.345
18628.0,24.952,21.272,0.40535,14.345
18638.0,26.952,22.272,4.4054,15.345
18648.0,26.952,21.272,7.4054,14.345
18658.0,23.952,19.272,9.4054,15.345
18668.0,18.952,17.272,11.405,16.345
18677.0,14.952,12.272,13.405,16.345
18687.0,9.9524,11.272,13.405,16.345
18697.0,10.952,12.272,14.405,15.345
18707.0,13.952,13.272,14.405,15.345
18717.0,11.952,13.272,11.405,14.345
18727.0,12.952,14.272,11.405,14.345
18737.0,11.952,14.272,9.4054,15.345
18747.0,14.952,14.272,9.4054,15.345
18756.0,13.952,13.272,10.405,15.345
18766.0,11.952,12.272,10.405,15.345
18776.0,8.9524,11.272,12.405,18.345
18786.0,7.9524,10.272,12.405,18.345
18796.0,6.9524,10.272,14.405,20.345
18806.0,4.9524,9.2722,14.405,20.345
18816.0,3.9524,9.2722,14.405,21.345
18826.0,1.9524,6.2722,14.405,21.345
18836.0,-0.047588,6.2722,15.405,22.345
18845.0,-3.0476,6.2722,15.405,22.345
18855.0,-5.0476,5.2722,14.405,23.345
18865.0,-8.0476,4.2722,14.405,23.345
18875.0,-9.0476,4.2722,14.405,21.345
18885.0,-15.048,2.2722,11.405,19.345
18895.0,-16.048,1.2722,12.405,20.345
18905.0,-20.048,-0.72779,12.405,20.345
18915.0,-23.048,-1.7278,10.405,21.345
18925.0,-27.048,-2.7278,10.405,20.345
18934.0,-29.048,-4.7278,10.405,21.345
18944.0,-36.048,-7.7278,9.4054,21.345
18954.0,-40.048,-7.7278,8.4054,21.345
18964.0,-45.048,-10.728,8.4054,22.345
18974.0,-51.048,-12.728,6.4054,21.345
18984.0,-48.048,-9.7278,5.4054,21.345
18994.0,-33.048,1.2722,5.4054,21.345
19004.0,1.9524,17.272,3.4054,19.345
19013.0,12.952,22.272,0.40535,19.345
19023.0,23.952,25.272,1.4054,20.345
19033.0,31.952,26.272,5.4054,21.345
19043.0,35.952,25.272,12.405,23.345
19053.0,41.952,27.272,18.405,25.345
19063.0,48.952,28.272,25.405,28.345
19073.0,53.952,30.272,32.405,29.345
19083.0,56.952,31.272,38.405,30.345
19093.0,61.952,32.272,44.405,34.345
19102.0,65.952,34.272,51.405,35.345
19112.0,65.952,34.272,56.405,35.345
19122.0,70.952,34.272,61.405,37.345
19132.0,70.952,34.272,62.405,36.345
19142.0,64.952,30.272,65.405,37.345
19152.0,64.952,30.272,65.405,35.345
19162.0,56.952,25.272,67.405,36.345
19172.0,56.952,25.272,68.405,37.345
19182.0,58.952,27.272,67.405,37.345
19191.0,58.952,27.272,67.405,36.345
19201.0,59.952,28.272,66.405,37.345
19211.0,59.952,28.272,65.405,37.345
19221.0,58.952,26.272,66.405,37.345
19231.0,58.952,26.272,65.405,37.345
19241.0,54.952,23.272,65.405,38.345
19251.0,54.952,23.272,67.405,39.345
19261.0,47.952,21.272,64.405,38.345
19271.0,47.952,21.272,66.405,40.345
19280.0,43.952,20.272,66.405,40.345
19290.0,41.952,19.272,65.405,39.345
19300.0,38.952,17.272,67.405,40.345
19310.0,35.952,16.272,68.405,43.345
19320.0,30.952,12.272,69.405,42.345
19330.0,27.952,12.272,69.405,42.345
19340.0,23.952,11.272,68.405,43.345
19350.0,20.952,10.272,66.405,43.345
19359.0,17.952,8.2722,68.405,41.345
19369.0,16.952,8.2722,65.405,42.345
19379.0,13.952,7.2722,63.405,41.345
19389.0,8.9524,5.2722,62.405,41.345
19399.0,6.9524,4.2722,62.405,40.345
19409.0,2.9524,2.2722,58.405,42.345
19419.0,-2.0476,0.27221,59.405,41.345
19429.0,-6.0476,-0.72779,58.405,41.345
19439.0,-11.048,-3.7278,59.405,42.345
19448.0,-17.048,-4.7278,60.405,43.345
19458.0,-14.048,-1.7278,57.405,41.345
19468.0,10.952,13.272,56.405,41.345
19478.0,43.952,28.272,54.405,40.345
19488.0,55.952,33.272,56.405,41.345
19498.0,60.952,34.272,60.405,43.345
19508.0,68.952,33.272,65.405,45.345
19518.0,74.952,34.272,72.405,48.345
19528.0,79.952,34.272,81.405,50.345
19537.0,86.952,37.272,89.405,52.345
19547.0,92.952,40.272,95.405,52.345
19557.0,101.95,44.272,102.41,57.345
19567.0,106.95,46.272,110.41,59.345
19577.0,112.95,47.272,114.41,60.345
19587.0,114.95,48.272,120.41,61.345
19597.0,114.95,47.272,122.41,61.345
19607.0,115.95,46.272,126.41,63.345
19617.0,115.95,46.272,128.41,62.345
19626.0,115.95,45.272,127.41,61.345
19636.0,109.95,42.272,130.41,63.345
19646.0,106.95,40.272,127.41,61.345
19656.0,105.95,40.272,126.41,60.345
19666.0,106.95,42.272,126.41,61.345
19676.0,108.95,42.272,125.41,61.345
19686.0,107.95,43.272,126.41,61.345
19696.0,107.95,42.272,126.41,62.345
19705.0,105.95,42.272,125.41,62.345
19715.0,104.95,40.272,126.41,63.345
19725.0,104.95,38.272,124.41,63.345
19735.0,100.95,37.272,124.41,63.345
19745.0,97.952,37.272,124.41,63.345
19755.0,96.952,36.272,124.41,63.345
19765.0,94.952,36.272,126.41,65.345
19775.0,91.952,35.272,126.41,65.345
19785.0,88.952,33.272,125.41,66.345
19794.0,85.952,32.272,125.41,66.345
19804.0,83.952,31.272,124.41,64.345
19814.0,79.952,30.272,124.41,64.345
19824.0,78.952,29.272,121.41,65.345
19834.0,73.952,28.272,121.41,65.345
19844.0,67.952,26.272,122.41,64.345
19854.0,65.952,25.272,122.41,64.345
19864.0,62.952,22.272,118.41,65.345
19874.0,57.952,21.272,118.41,65.345
19883.0,54.952,21.272,118.41,65.345
19893.0,47.952,18.272,118.41,65.345
19903.0,43.952,17.272,115.41,63.345
19913.0,41.952,17.272,115.41,63.345
19923.0,64.952,31.272,113.41,63.345
19933.0,102.95,51.272,113.41,63.345
19943.0,114.95,55.272,109.41,62.345
19953.0,124.95,57.272,108.41,61.345
19963.0,124.95,57.272,112.41,63.345
19972.0,135.95,59.272,117.41,64.345
19982.0,135.95,59.272,124.41,67.345
19992.0,155.95,66.272,131.41,69.345
20002.0,155.95,66.272,137.41,71.345
20012.0,175.95,74.272,143.41,72.345
20022.0,175.95,74.272,152.41,74.345
20032.0,183.95,76.272,158.41,76.345
20042.0,183.95,76.272,159.41,75.345
20051.0,190.95,78.272,165.41,76.345
20061.0,190.95,78.272,167.41,77.345
20071.0,196.95,79.272,168.41,77.345
20081.0,196.95,79.272,171.41,77.345
20091.0,187.95,74.272,170.41,76.345
20101.0,187.95,74.272,172.41,76.345
20111.0,175.95,68.272,172.41,77.345
20121.0,175.95,68.272,170.41,75.345
20131.0,171.95,68.272,169.41,74.345
20140.0,171.95,68.272,170.41,75.345
20150.0,169.95,66.272,170.41,75.345
20160.0,167.95,67.272,165.41,74.345
20170.0,165.95,65.272,164.41,75.345
20180.0,164.95,65.272,164.41,72.345
20190.0,164.95,64.272,163.41,75.345
20200.0,163.95,64.272,160.41,73.345
20210.0,161.95,63.272,160.41,73.345
20220.0,156.95,62.272,159.41,74.345
20229.0,151.95,62.272,158.41,74.345
20239.0,150.95,60.272,157.41,75.345
20249.0,146.95,58.272,155.41,73.345
20259.0,144.95,58.272,157.41,73.345
20269.0,142.95,57.272,155.41,72.345
20279.0,138.95,56.272,154.41,72.345
20289.0,135.95,54.272,152.41,71.345
20299.0,132.95,54.272,150.41,72.345
20309.0,128.95,52.272,149.41,71.345
20318.0,124.95,50.272,147.41,70.345
20328.0,121.95,50.272,145.41,70.345
20338.0,119.95,49.272,147.41,70.345
20348.0,114.95,47.272,144.41,68.345
20358.0,107.95,44.272,142.41,69.345
20368.0,104.95,43.272,140.41,68.345
20378.0,101.95,44.272,139.41,68.345
20388.0,125.95,59.272,137.41,65.345
20397.0,162.95,77.272,135.41,65.345
20407.0,171.95,79.272,134.41,66.345
20417.0,178.95,82.272,138.41,67.345
20427.0,181.95,82.272,143.41,70.345
20437.0,186.95,82.272,151.41,72.345
20447.0,195.95,86.272,156.41,74.345
20457.0,206.95,89.272,163.41,77.345
20467.0,215.95,94.272,169.41,78.345
20477.0,223.95,96.272,175.41,79.345
20486.0,227.95,98.272,182.41,81.345
20496.0,230.95,99.272,187.41,81.345
20506.0,232.95,99.272,190.41,82.345
20516.0,235.95,100.27,193.41,82.345
20526.0,237.95,101.27,195.41,82.345
20536.0,236.95,99.272,197.41,82.345
20546.0,233.95,98.272,196.41,82.345
20556.0,227.95,94.272,197.41,79.345
20566.0,219.95,89.272,197.41,80.345
20575.0,221.95,92.272,193.41,79.345
20585.0,220.95,92.272,193.41,79.345
20595.0,218.95,91.272,191.41,77.345
20605.0,216.95,91.272,189.41,78.345
20615.0,215.95,89.272,187.41,78.345
20625.0,213.95,90.272,185.41,77.345
20635.0,212.95,89.272,185.41,76.345
20645.0,210.95,88.272,183.41,77.345
20655.0,208.95,88.272,182.41,76.345
20664.0,204.95,87.272,179.41,76.345
20674.0,204.95,86.272,177.41,76.345
20684.0,200.95,85.272,175.41,75.345
20694.0,195.95,83.272,174.41,74.345
20704.0,192.95,81.272,174.41,74.345
20714.0,187.95,80.272,170.41,72.345
20724.0,179.95,77.272,170.41,72.345
20734.0,176.95,75.272,169.41,73.345
20743.0,170.95,74.272,169.41,73.345
20753.0,166.95,70.272,165.41,72.345
20763.0,160.95,70.272,165.41,72.345
20773.0,155.95,66.272,160.41,70.345
20783.0,149.95,66.272,160.41,70.345
20793.0,143.95,62.272,155.41,68.345
20803.0,137.95,61.272,155.41,68.345
20813.0,128.95,57.272,151.41,67.345
20823.0,122.95,55.272,151.41,67.345
20832.0,115.95,52.272,146.41,64.345
20842.0,121.95,58.272,146.41,64.345
20852.0,121.95,58.272,137.41,61.345
20862.0,164.95,79.272,137.41,61.345
20872.0,164.95,79.272,139.41,63.345
20882.0,170.95,81.272,139.41,63.345
20892.0,170.95,81.272,146.41,65.345
20902.0,178.95,81.272,146.41,65.345
20912.0,178.95,81.272,159.41,69.345
20921.0,197.95,88.272,159.41,69.345
20931.0,197.95,88.272,163.41,70.345
20941.0,212.95,94.272,169.41,71.345
20951.0,212.95,94.272,173.41,72.345
20961.0,214.95,93.272,177.41,71.345
20971.0,214.95,93.272,181.41,75.345
20981.0,215.95,93.272,184.41,73.345
20991.0,215.95,93.272,190.41,73.345
21001.0,216.95,95.272,191.41,74.345
21010.0,216.95,95.272,190.41,73.345
21020.0,214.95,92.272,190.41,73.345
21030.0,209.95,90.272,187.41,71.345
21040.0,203.95,87.272,186.41,70.345
21050.0,201.95,87.272,182.41,68.345
21060.0,200.95,86.272,180.41,66.345
21070.0,198.95,86.272,176.41,65.345
21080.0,195.95,85.272,177.41,66.345
21089.0,193.95,84.272,172.41,64.345
21099.0,193.95,83.272,170.41,64.345
21109.0,190.95,83.272,167.41,63.345
21119.0,189.95,82.272,164.41,63.345
21129.0,185.95,80.272,163.41,63.345
21139.0,185.95,80.272,158.41,62.345
21149.0,183.95,81.272,156.41,61.345
21159.0,180.95,81.272,153.41,61.345
21169.0,178.95,79.272,149.41,58.345
21178.0,174.95,78.272,148.41,59.345
21188.0,170.95,76.272,145.41,58.345
21198.0,164.95,73.272,144.41,58.345
21208.0,159.95,72.272,144.41,58.345
21218.0,153.95,69.272,140.41,56.345
21228.0,146.95,67.272,138.41,56.345
21238.0,142.95,65.272,136.41,55.345
21248.0,135.95,63.272,133.41,52.345
21258.0,128.95,60.272,126.41,51.345
21267.0,123.95,57.272,125.41,50.345
21277.0,117.95,56.272,122.41,50.345
21287.0,113.95,55.272,121.41,48.345
21297.0,107.95,53.272,120.41,48.345
21307.0,99.952,49.272,119.41,48.345
21317.0,93.952,47.272,114.41,48.345
21327.0,103.95,56.272,113.41,47.345
21337.0,126.95,68.272,109.41,46.345
21347.0,139.95,74.272,106.41,44.345
21356.0,146.95,75.272,110.41,45.345
21366.0,149.95,75.272,110.41,45.345
21376.0,153.95,76.272,116.41,46.345
21386.0,161.95,79.272,122.41,48.345
21396.0,170.95,82.272,127.41,50.345
21406.0,181.95,87.272,133.41,52.345
21416.0,189.95,92.272,140.41,54.345
21426.0,194.95,92.272,144.41,53.345
21435.0,198.95,94.272,144.41,54.345
21445.0,200.95,93.272,147.41,53.345
21455.0,200.95,92.272,148.41,51.345
21465.0,199.95,93.272,148.41,50.345
21475.0,200.95,92.272,150.41,50.345
21485.0,197.95,91.272,149.41,48.345
21495.0,195.95,90.272,148.41,47.345
21505.0,195.95,88.272,145.41,48.345
21515.0,192.95,89.272,144.41,48.345
21524.0,192.95,89.272,142.41,45.345
21534.0,188.95,87.272,138.41,44.345
21544.0,183.95,84.272,135.41,44.345
21554.0,175.95,81.272,128.41,41.345
21564.0,169.95,78.272,124.41,38.345
21574.0,161.95,76.272,119.41,36.345
21584.0,157.95,74.272,116.41,35.345
21594.0,153.95,72.272,111.41,34.345
21604.0,149.95,70.272,109.41,34.345
21613.0,146.95,71.272,107.41,34.345
21623.0,146.95,70.272,107.41,35.345
21633.0,143.95,70.272,104.41,34.345
21643.0,138.95,68.272,103.41,34.345
21653.0,133.95,66.272,101.41,34.345
21663.0,127.95,64.272,98.405,32.345
21673.0,123.95,61.272,93.405,32.345
21683.0,117.95,59.272,91.405,28.345
21693.0,114.95,57.272,88.405,28.345
21702.0,110.95,56.272,85.405,27.345
21712.0,103.95,55.272,83.405,26.345
21722.0,103.95,55.272,83.405,25.345
21732.0,92.952,50.272,81.405,25.345
21742.0,92.952,50.272,79.405,25.345
21752.0,79.952,45.272,74.405,25.345
21762.0,79.952,45.272,71.405,24.345
21772.0,65.952,39.272,71.405,24.345
21781.0,65.952,39.272,65.405,20.345
21791.0,52.952,34.272,65.405,20.345
21801.0,52.952,34.272,59.405,18.345
21811.0,47.952,35.272,59.405,18.345
21821.0,47.952,35.272,53.405,16.345
21831.0,92.952,58.272,53.405,16.345
21841.0,92.952,58.272,51.405,17.345
21851.0,101.95,61.272,51.405,17.345
21861.0,101.95,61.272,60.405,21.345
21870.0,108.95,62.272,60.405,21.345
21880.0,108.95,62.272,71.405,22.345
21890.0,114.95,63.272,71.405,22.345
21900.0,119.95,66.272,80.405,23.345
21910.0,127.95,68.272,80.405,23.345
21920.0,136.95,73.272,86.405,25.345
21930.0,140.95,74.272,86.405,25.345
21940.0,145.95,77.272,91.405,25.345
21950.0,146.95,77.272,91.405,25.345
21959.0,146.95,77.272,95.405,25.345
21969.0,145.95,74.272,95.405,25.345
21979.0,141.95,73.272,96.405,25.345
21989.0,139.95,71.272,96.405,25.345
21999.0,132.95,68.272,96.405,24.345
22009.0,133.95,68.272,93.405,22.345
22019.0,131.95,67.272,91.405,22.345
22029.0,126.95,65.272,86.405,19.345
22039.0,123.95,65.272,83.405,19.345
22048.0,119.95,63.272,80.405,18.345
22058.0,120.95,62.272,80.405,17.345
22068.0,117.95,62.272,77.405,17.345
22078.0,114.95,60.272,75.405,16.345
22088.0,110.95,59.272,73.405,16.345
22098.0,104.95,55.272,72.405,17.345
22108.0,100.95,55.272,70.405,17.345
22118.0,95.952,52.272,68.405,17.345
22127.0,89.952,50.272,67.405,17.345
22137.0,84.952,48.272,68.405,16.345
22147.0,81.952,47.272,66.405,17.345
22157.0,76.952,44.272,62.405,15.345
22167.0,70.952,43.272,60.405,15.345
22177.0,65.952,42.272,58.405,14.345
22187.0,60.952,39.272,56.405,13.345
22197.0,54.952,37.272,55.405,14.345
22207.0,50.952,36.272,54.405,13.345
22216.0,46.952,33.272,52.405,14.345
22226.0,39.952,31.272,51.405,13.345
22236.0,32.952,28.272,50.405,12.345
22246.0,26.952,25.272,47.405,12.345
22256.0,18.952,22.272,44.405,12.345
22266.0,11.952,19.272,42.405,10.345
22276.0,-0.047588,14.272,38.405,9.3452
22286.0,-6.0476,10.272,36.405,9.3452
22296.0,-18.048,6.2722,35.405,9.3452
22305.0,-28.048,3.2722,33.405,7.3452
22315.0,-38.048,0.27221,30.405,7.3452
22325.0,-29.048,7.2722,28.405,6.3452
22335.0,-6.0476,20.272,26.405,5.3452
22345.0,5.9524,25.272,23.405,5.3452
22355.0,10.952,26.272,25.405,6.3452
22365.0,10.952,25.272,26.405,6.3452
22375.0,9.9524,24.272,32.405,9.3452
22385.0,13.952,24.272,37.405,10.345
22394.0,13.952,23.272,40.405,10.345
22404.0,14.952,23.272,43.405,12.345
22414.0,17.952,24.272,46.405,11.345
22424.0,24.952,25.272,51.405,13.345
22434.0,24.952,26.272,55.405,15.345
22444.0,25.952,26.272,59.405,14.345
22454.0,21.952,23.272,61.405,14.345
22464.0,16.952,19.272,62.405,15.345
22473.0,7.9524,15.272,61.405,13.345
22483.0,-0.047588,12.272,62.405,12.345
22493.0,-3.0476,10.272,60.405,12.345
22503.0,1.9524,12.272,59.405,11.345
22513.0,3.9524,13.272,54.405,11.345
22523.0,2.9524,13.272,53.405,9.3452
22533.0,-4.0476,11.272,50.405,8.3452
22543.0,-12.048,8.2722,49.405,8.3452
22553.0,-24.048,2.2722,47.405,8.3452
22562.0,-37.048,-4.7278,47.405,8.3452
22572.0,-37.048,-4.7278,47.405,9.3452
22582.0,-59.048,-13.728,45.405,10.345
22592.0,-59.048,-13.728,47.405,11.345
22602.0,-72.048,-19.728,45.405,11.345
22612.0,-72.048,-19.728,41.405,11.345
22622.0,-86.048,-25.728,38.405,10.345
22632.0,-86.048,-25.728,37.405,8.3452
22642.0,-102.05,-33.728,35.405,7.3452
22651.0,-102.05,-33.728,32.405,5.3452
22661.0,-122.05,-41.728,30.405,4.3452
22671.0,-122.05,-41.728,27.405,3.3452
22681.0,-138.05,-49.728,24.405,4.3452
22691.0,-138.05,-49.728,22.405,3.3452
22701.0,-151.05,-55.728,22.405,3.3452
22711.0,-151.05,-55.728,20.405,2.3452
22721.0,-161.05,-59.728,19.405,0.34524
22731.0,-161.05,-59.728,17.405,-1.6548
22740.0,-172.05,-64.728,11.405,-2.6548
22750.0,-172.05,-64.728,8.4054,-2.6548
22760.0,-178.05,-67.728,5.4054,-4.6548
22770.0,-183.05,-68.728,5.4054,-4.6548
22780.0,-188.05,-72.728,2.4054,-5.6548
22790.0,-195.05,-73.728,-1.5946,-5.6548
22800.0,-201.05,-76.728,-1.5946,-5.6548
22810.0,-208.05,-80.728,-3.5946,-6.6548
22819.0,-216.05,-84.728,-3.5946,-6.6548
22829.0,-222.05,-85.728,-7.5946,-9.6548
22839.0,-207.05,-76.728,-7.5946,-9.6548
22849.0,-181.05,-61.728,-13.595,-10.655
22859.0,-175.05,-59.728,-13.595,-10.655
22869.0,-172.05,-58.728,-9.5946,-9.6548
22879.0,-170.05,-59.728,-9.5946,-9.6548
22889.0,-162.05,-55.728,-2.5946,-7.6548
22899.0,-157.05,-55.728,-2.5946,-7.6548
22908.0,-154.05,-55.728,1.4054,-5.6548
22918.0,-148.05,-52.728,1.4054,-5.6548
22928.0,-143.05,-49.728,7.4054,-6.6548
22938.0,-137.05,-47.728,7.4054,-6.6548
22948.0,-132.05,-47.728,11.405,-6.6548
22958.0,-131.05,-45.728,11.405,-6.6548
22968.0,-133.05,-48.728,11.405,-6.6548
22978.0,-139.05,-51.728,11.405,-6.6548
22988.0,-146.05,-54.728,13.405,-4.6548
22997.0,-148.05,-55.728,13.405,-4.6548
23007.0,-143.05,-52.728,12.405,-7.6548
23017.0,-137.05,-48.728,8.4054,-8.6548
23027.0,-131.05,-45.728,9.4054,-8.6548
23037.0,-125.05,-43.728,4.4054,-10.655
23047.0,-124.05,-41.728,3.4054,-9.6548
23057.0,-122.05,-40.728,-0.59465,-11.655
23067.0,-126.05,-41.728,-0.59465,-11.655
23077.0,-128.05,-43.728,-4.5946,-13.655
23086.0,-134.05,-44.728,-5.5946,-13.655
23096.0,-136.05,-45.728,-8.5946,-14.655
23106.0,-136.05,-47.728,-9.5946,-14.655
23116.0,-140.05,-47.728,-10.595,-14.655
23126.0,-142.05,-47.728,-12.595,-13.655
23136.0,-143.05,-49.728,-12.595,-13.655
23146.0,-146.05,-49.728,-13.595,-13.655
23156.0,-149.05,-51.728,-12.595,-13.655
23165.0,-152.05,-51.728,-16.595,-14.655
23175.0,-155.05,-53.728,-18.595,-15.655
23185.0,-158.05,-53.728,-18.595,-16.655
23195.0,-162.05,-54.728,-21.595,-16.655
23205.0,-164.05,-55.728,-22.595,-16.655
23215.0,-168.05,-56.728,-23.595,-17.655
23225.0,-172.05,-57.728,-25.595,-15.655
23235.0,-175.05,-58.728,-29.595,-18.655
23245.0,-176.05,-59.728,-28.595,-18.655
23254.0,-180.05,-61.728,-27.595,-18.655
23264.0,-184.05,-61.728,-30.595,-17.655
23274.0,-187.05,-61.728,-31.595,-17.655
23284.0,-189.05,-62.728,-31.595,-17.655
23294.0,-194.05,-65.728,-32.595,-16.655
23304.0,-199.05,-66.728,-32.595,-17.655
23314.0,-202.05,-67.728,-35.595,-17.655
23324.0,-209.05,-67.728,-38.595,-18.655
23334.0,-195.05,-60.728,-38.595,-19.655
23343.0,-174.05,-49.728,-43.595,-21.655
23353.0,-160.05,-42.728,-46.595,-21.655
23363.0,-155.05,-40.728,-47.595,-20.655
23373.0,-155.05,-41.728,-45.595,-20.655
23383.0,-148.05,-39.728,-40.595,-19.655
23393.0,-141.05,-38.728,-34.595,-17.655
23403.0,-143.05,-41.728,-30.595,-15.655
23413.0,-145.05,-42.728,-26.595,-17.655
23423.0,-145.05,-40.728,-25.595,-15.655
23432.0,-142.05,-40.728,-20.595,-13.655
23442.0,-137.05,-39.728,-17.595,-12.655
23452.0,-137.05,-38.728,-15.595,-13.655
23462.0,-137.05,-38.728,-14.595,-12.655
23472.0,-141.05,-41.728,-14.595,-12.655
23482.0,-141.05,-41.728,-13.595,-12.655
23492.0,-154.05,-46.728,-13.595,-13.655
23502.0,-154.05,-46.728,-14.595,-12.655
23511.0,-154.05,-45.728,-18.595,-14.655
23521.0,-154.05,-45.728,-19.595,-15.655
23531.0,-154.05,-45.728,-21.595,-15.655
23541.0,-154.05,-45.728,-21.595,-16.655
23551.0,-153.05,-44.728,-22.595,-17.655
23561.0,-153.05,-44.728,-26.595,-16.655
23571.0,-155.05,-44.728,-26.595,-17.655
23581.0,-155.05,-44.728,-27.595,-17.655
23591.0,-164.05,-49.728,-28.595,-16.655
23600.0,-164.05,-49.728,-29.595,-16.655
23610.0,-169.05,-49.728,-30.595,-15.655
23620.0,-169.05,-49.728,-29.595,-14.655
23630.0,-172.05,-52.728,-28.595,-13.655
23640.0,-174.05,-53.728,-28.595,-12.655
23650.0,-177.05,-53.728,-29.595,-11.655
23660.0,-180.05,-55.728,-27.595,-12.655
23670.0,-183.05,-56.728,-28.595,-10.655
23680.0,-188.05,-56.728,-31.595,-12.655
23689.0,-190.05,-57.728,-30.595,-10.655
23699.0,-193.05,-57.728,-31.595,-12.655
23709.0,-198.05,-60.728,-31.595,-11.655
23719.0,-198.05,-59.728,-33.595,-10.655
23729.0,-203.05,-62.728,-33.595,-10.655
23739.0,-206.05,-62.728,-33.595,-9.6548
23749.0,-210.05,-64.728,-32.595,-10.655
23759.0,-213.05,-65.728,-35.595,-9.6548
23769.0,-216.05,-65.728,-34.595,-7.6548
23778.0,-218.05,-67.728,-34.595,-7.6548
23788.0,-223.05,-68.728,-33.595,-5.6548
23798.0,-229.05,-70.728,-35.595,-6.6548
23808.0,-236.05,-73.728,-36.595,-5.6548
23818.0,-242.05,-75.728,-36.595,-6.6548
23828.0,-235.05,-68.728,-37.595,-4.6548
23838.0,-214.05,-55.728,-37.595,-5.6548
23848.0,-185.05,-40.728,-41.595,-7.6548
23857.0,-175.05,-38.728,-39.595,-4.6548
23867.0,-169.05,-36.728,-33.595,-1.6548
23877.0,-162.05,-35.728,-28.595,0.34524
23887.0,-155.05,-34.728,-28.595,0.34524
23897.0,-154.05,-36.728,-16.595,3.3452
23907.0,-160.05,-39.728,-16.595,3.3452
23917.0,-163.05,-41.728,-6.5946,7.3452
23927.0,-160.05,-40.728,-6.5946,7.3452
23937.0,-156.05,-37.728,1.4054,12.345
23946.0,-149.05,-34.728,1.4054,12.345
23956.0,-148.05,-33.728,10.405,13.345
23966.0,-149.05,-34.728,10.405,13.345
23976.0,-151.05,-36.728,14.405,16.345
23986.0,-161.05,-41.728,14.405,16.345
23996.0,-163.05,-41.728,13.405,15.345
24006.0,-162.05,-40.728,13.405,15.345
24016.0,-160.05,-39.728,14.405,16.345
24026.0,-158.05,-39.728,14.405,16.345
24035.0,-155.05,-36.728,9.4054,14.345
24045.0,-154.05,-35.728,9.4054,14.345
24055.0,-153.05,-33.728,9.4054,14.345
24065.0,-151.05,-32.728,9.4054,14.345
24075.0,-153.05,-32.728,6.4054,14.345
24085.0,-152.05,-33.728,6.4054,14.345
24095.0,-155.05,-33.728,5.4054,14.345
24105.0,-154.05,-33.728,4.4054,14.345
24114.0,-154.05,-33.728,3.4054,15.345
24124.0,-157.05,-33.728,1.4054,14.345
24134.0,-157.05,-33.728,2.4054,13.345
24144.0,-160.05,-33.728,-1.5946,12.345
24154.0,-162.05,-35.728,-1.5946,13.345
24164.0,-163.05,-35.728,-2.5946,11.345
24174.0,-166.05,-36.728,-4.5946,11.345
24184.0,-173.05,-37.728,-4.5946,10.345
24194.0,-175.05,-40.728,-7.5946,10.345
24203.0,-180.05,-40.728,-8.5946,7.3452
24213.0,-182.05,-42.728,-11.595,8.3452
24223.0,-186.05,-43.728,-14.595,8.3452
24233.0,-190.05,-44.728,-15.595,5.3452
24243.0,-196.05,-47.728,-18.595,6.3452
24253.0,-202.05,-49.728,-18.595,5.3452
24263.0,-205.05,-50.728,-22.595,4.3452
24273.0,-210.05,-52.728,-25.595,3.3452
24283.0,-217.05,-55.728,-28.595,1.3452
24292.0,-226.05,-58.728,-29.595,1.3452
24302.0,-221.05,-54.728,-33.595,1.3452
24312.0,-204.05,-42.728,-34.595,-0.65476
24322.0,-170.05,-27.728,-38.595,-1.6548
24332.0,-170.05,-27.728,-40.595,-2.6548
24342.0,-155.05,-22.728,-39.595,-1.6548
24352.0,-155.05,-22.728,-34.595,-0.65476
24362.0,-141.05,-20.728,-30.595,0.34524
24372.0,-141.05,-20.728,-26.595,1.3452
24381.0,-136.05,-20.728,-23.595,4.3452
24391.0,-136.05,-20.728,-19.595,3.3452
24401.0,-129.05,-19.728,-16.595,4.3452
24411.0,-129.05,-19.728,-11.595,4.3452
24421.0,-114.05,-12.728,-8.5946,6.3452
24431.0,-114.05,-12.728,-6.5946,6.3452
24441.0,-110.05,-11.728,-4.5946,6.3452
24451.0,-110.05,-11.728,-1.5946,5.3452
24460.0,-113.05,-12.728,-3.5946,4.3452
24470.0,-113.05,-12.728,-1.5946,4.3452
24480.0,-121.05,-17.728,-3.5946,3.3452
24490.0,-121.05,-17.728,-3.5946,3.3452
24500.0,-121.05,-18.728,-7.5946,2.3452
24510.0,-122.05,-17.728,-10.595,-0.65476
24520.0,-124.05,-18.728,-12.595,-0.65476
24530.0,-126.05,-18.728,-15.595,-1.6548
24540.0,-127.05,-18.728,-17.595,-2.6548
24549.0,-125.05,-18.728,-18.595,-3.6548
24559.0,-127.05,-19.728,-18.595,-2.6548
24569.0,-128.05,-19.728,-22.595,-4.6548
24579.0,-129.05,-20.728,-21.595,-5.6548
24589.0,-131.05,-21.728,-28.595,-6.6548
24599.0,-133.05,-22.728,-26.595,-5.6548
24609.0,-134.05,-23.728,-26.595,-6.6548
24619.0,-139.05,-25.728,-28.595,-7.6548
24629.0,-143.05,-26.728,-30.595,-7.6548
24638.0,-146.05,-26.728,-30.595,-7.6548
24648.0,-151.05,-29.728,-34.595,-7.6548
24658.0,-155.05,-30.728,-34.595,-8.6548
24668.0,-158.05,-32.728,-35.595,-8.6548
24678.0,-162.05,-33.728,-38.595,-9.6548
24688.0,-165.05,-34.728,-42.595,-12.655
24698.0,-168.05,-35.728,-45.595,-12.655
24708.0,-171.05,-36.728,-48.595,-13.655
24718.0,-177.05,-39.728,-50.595,-15.655
24727.0,-182.05,-42.728,-52.595,-15.655
24737.0,-184.05,-44.728,-53.595,-15.655
24747.0,-190.05,-44.728,-56.595,-16.655
24757.0,-196.05,-46.728,-58.595,-18.655
24767.0,-201.05,-47.728,-61.595,-20.655
24777.0,-208.05,-51.728,-62.595,-19.655
24787.0,-206.05,-48.728,-66.595,-22.655
24797.0,-189.05,-37.728,-67.595,-21.655
24806.0,-156.05,-21.728,-72.595,-22.655
24816.0,-149.05,-18.728,-71.595,-22.655
24826.0,-140.05,-16.728,-67.595,-21.655
24836.0,-136.05,-15.728,-64.595,-21.655
24846.0,-129.05,-14.728,-59.595,-19.655
24856.0,-123.05,-13.728,-54.595,-19.655
24866.0,-118.05,-13.728,-49.595,-18.655
24876.0,-112.05,-11.728,-44.595,-17.655
24886.0,-104.05,-7.7278,-40.595,-16.655
24895.0,-92.048,-3.7278,-35.595,-15.655
24905.0,-82.048,0.27221,-31.595,-13.655
24915.0,-81.048,0.27221,-30.595,-14.655
24925.0,-81.048,-0.72779,-27.595,-13.655
24935.0,-84.048,-0.72779,-27.595,-13.655
24945.0,-86.048,-1.7278,-23.595,-15.655
24955.0,-86.048,-3.7278,-23.595,-15.655
24965.0,-90.048,-6.7278,-23.595,-12.655
24975.0,-87.048,-4.7278,-23.595,-12.655
24984.0,-87.048,-4.7278,-27.595,-15.655
24994.0,-91.048,-6.7278,-27.595,-15.655
25004.0,-90.048,-5.7278,-29.595,-15.655
25014.0,-91.048,-5.7278,-29.595,-15.655
25024.0,-91.048,-6.7278,-34.595,-18.655
25034.0,-93.048,-7.7278,-34.595,-18.655
25044.0,-96.048,-9.7278,-36.595,-19.655
25054.0,-99.048,-10.728,-36.595,-19.655
25064.0,-102.05,-11.728,-37.595,-19.655
25073.0,-103.05,-12.728,-37.595,-19.655
25083.0,-105.05,-13.728,-42.595,-19.655
25093.0,-108.05,-14.728,-42.595,-19.655
25103.0,-112.05,-16.728,-43.595,-20.655
25113.0,-116.05,-18.728,-43.595,-20.655
25123.0,-121.05,-19.728,-45.595,-20.655
25133.0,-125.05,-21.728,-45.595,-20.655
25143.0,-126.05,-21.728,-50.595,-21.655
25152.0,-130.05,-22.728,-50.595,-21.655
25162.0,-134.05,-24.728,-51.595,-22.655
25172.0,-137.05,-26.728,-54.595,-25.655
25182.0,-143.05,-28.728,-53.595,-24.655
25192.0,-148.05,-30.728,-56.595,-25.655
25202.0,-148.05,-30.728,-57.595,-25.655
25212.0,-161.05,-35.728,-59.595,-26.655
25222.0,-161.05,-35.728,-60.595,-25.655
25232.0,-169.05,-39.728,-61.595,-25.655
25241.0,-169.05,-39.728,-62.595,-26.655
25251.0,-181.05,-43.728,-63.595,-27.655
25261.0,-181.05,-43.728,-65.595,-25.655
25271.0,-163.05,-29.728,-66.595,-27.655
25281.0,-163.05,-29.728,-69.595,-29.655
25291.0,-129.05,-13.728,-72.595,-29.655
25301.0,-129.05,-13.728,-68.595,-27.655
25311.0,-121.05,-14.728,-65.595,-25.655
25321.0,-121.05,-14.728,-58.595,-23.655
25330.0,-110.05,-12.728,-55.595,-22.655
25340.0,-110.05,-12.728,-48.595,-20.655
25350.0,-103.05,-11.728,-42.595,-18.655
25360.0,-103.05,-11.728,-35.595,-18.655
25370.0,-98.048,-9.7278,-31.595,-16.655
25380.0,-98.048,-9.7278,-26.595,-16.655
25390.0,-92.048,-7.7278,-22.595,-14.655
25400.0,-87.048,-6.7278,-19.595,-14.655
25410.0,-85.048,-6.7278,-17.595,-12.655
25419.0,-88.048,-8.7278,-11.595,-12.655
25429.0,-91.048,-9.7278,-11.595,-12.655
25439.0,-97.048,-12.728,-10.595,-12.655
25449.0,-104.05,-16.728,-10.595,-12.655
25459.0,-105.05,-18.728,-10.595,-11.655
25469.0,-104.05,-16.728,-12.595,-13.655
25479.0,-102.05,-15.728,-13.595,-13.655
25489.0,-103.05,-15.728,-14.595,-13.655
25498.0,-102.05,-15.728,-16.595,-13.655
25508.0,-104.05,-16.728,-14.595,-12.655
25518.0,-106.05,-17.728,-17.595,-13.655
25528.0,-107.05,-17.728,-17.595,-13.655
25538.0,-112.05,-20.728,-18.595,-12.655
25548.0,-114.05,-22.728,-17.595,-12.655
25558.0,-116.05,-23.728,-19.595,-12.655
25568.0,-119.05,-24.728,-18.595,-12.655
25578.0,-123.05,-25.728,-17.595,-12.655
25587.0,-125.05,-27.728,-20.595,-11.655
25597.0,-129.05,-27.728,-20.595,-10.655
25607.0,-130.05,-28.728,-20.595,-12.655
25617.0,-131.05,-28.728,-21.595,-11.655
25627.0,-132.05,-29.728,-23.595,-12.655
25637.0,-135.05,-29.728,-24.595,-13.655
25647.0,-140.05,-30.728,-24.595,-11.655
25657.0,-141.05,-32.728,-24.595,-12.655
25667.0,-142.05,-32.728,-28.595,-12.655
25676.0,-147.05,-32.728,-28.595,-12.655
25686.0,-147.05,-34.728,-27.595,-14.655
25696.0,-151.05,-35.728,-30.595,-14.655
25706.0,-156.05,-36.728,-31.595,-15.655
25716.0,-157.05,-38.728,-35.595,-15.655
25726.0,-163.05,-40.728,-36.595,-15.655
25736.0,-169.05,-42.728,-38.595,-15.655
25746.0,-176.05,-45.728,-38.595,-17.655
25756.0,-175.05,-41.728,-40.595,-16.655
25765.0,-156.05,-30.728,-43.595,-18.655
25775.0,-126.05,-16.728,-42.595,-16.655
25785.0,-120.05,-14.728,-37.595,-15.655
25795.0,-114.05,-14.728,-32.595,-14.655
25805.0,-113.05,-15.728,-27.595,-12.655
25815.0,-108.05,-15.728,-19.595,-10.655
25825.0,-107.05,-15.728,-16.595,-9.6548
25835.0,-101.05,-15.728,-11.595,-7.6548
25844.0,-99.048,-14.728,-4.5946,-6.6548
25854.0,-97.048,-13.728,0.40535,-5.6548
25864.0,-93.048,-11.728,2.4054,-4.6548
25874.0,-89.048,-10.728,6.4054,-3.6548
25884.0,-87.048,-10.728,8.4054,-3.6548
25894.0,-89.048,-11.728,9.4054,-3.6548
25904.0,-89.048,-14.728,10.405,-3.6548
25914.0,-95.048,-16.728,9.4054,-3.6548
25924.0,-101.05,-20.728,10.405,-4.6548
25933.0,-99.048,-18.728,8.4054,-4.6548
25943.0,-97.048,-17.728,7.4054,-6.6548
25953.0,-97.048,-16.728,6.4054,-6.6548
25963.0,-96.048,-16.728,6.4054,-6.6548
25973.0,-98.048,-18.728,2.4054,-5.6548
25983.0,-98.048,-17.728,2.4054,-5.6548
25993.0,-100.05,-18.728,1.4054,-5.6548
26003.0,-105.05,-20.728,1.4054,-5.6548
26013.0,-105.05,-22.728,0.40535,-3.6548
26022.0,-110.05,-23.728,0.40535,-3.6548
26032.0,-112.05,-25.728,0.40535,-3.6548
26042.0,-117.05,-26.728,0.40535,-3.6548
26052.0,-119.05,-27.728,2.4054,-1.6548
26062.0,-122.05,-29.728,2.4054,-1.6548
26072.0,-122.05,-29.728,-0.59465,-1.6548
26082.0,-132.05,-32.728,-0.59465,-1.6548
26092.0,-132.05,-32.728,-1.5946,-1.6548
26102.0,-140.05,-37.728,-1.5946,-1.6548
26111.0,-140.05,-37.728,-4.5946,-2.6548
26121.0,-148.05,-38.728,-4.5946,-2.6548
26131.0,-148.05,-38.728,-6.5946,-4.6548
26141.0,-153.05,-42.728,-6.5946,-4.6548
26151.0,-153.05,-42.728,-7.5946,-4.6548
26161.0,-162.05,-45.728,-7.5946,-4.6548
26171.0,-162.05,-45.728,-10.595,-4.6548
26181.0,-172.05,-50.728,-11.595,-5.6548
26190.0,-172.05,-50.728,-12.595,-4.6548
26200.0,-184.05,-54.728,-16.595,-5.6548
26210.0,-184.05,-54.728,-15.595,-5.6548
26220.0,-199.05,-60.728,-17.595,-6.6548
26230.0,-199.05,-60.728,-17.595,-5.6548
26240.0,-201.05,-57.728,-21.595,-7.6548
26250.0,-186.05,-47.728,-25.595,-8.6548
26260.0,-157.05,-34.728,-23.595,-6.6548
26270.0,-149.05,-31.728,-18.595,-5.6548
26279.0,-147.05,-31.728,-14.595,-4.6548
26289.0,-145.05,-32.728,-8.5946,-3.6548
26299.0,-141.05,-32.728,-5.5946,-1.6548
26309.0,-140.05,-34.728,2.4054,1.3452
26319.0,-138.05,-34.728,8.4054,2.3452
26329.0,-136.05,-33.728,13.405,4.3452
26339.0,-133.05,-32.728,14.405,5.3452
26349.0,-128.05,-30.728,20.405,5.3452
26359.0,-127.05,-30.728,22.405,5.3452
26368.0,-127.05,-29.728,23.405,5.3452
26378.0,-128.05,-30.728,24.405,6.3452
26388.0,-133.05,-34.728,25.405,5.3452
26398.0,-138.05,-37.728,26.405,7.3452
26408.0,-144.05,-39.728,25.405,4.3452
26418.0,-142.05,-38.728,24.405,5.3452
26428.0,-142.05,-37.728,22.405,3.3452
26438.0,-143.05,-37.728,22.405,3.3452
26448.0,-144.05,-36.728,21.405,3.3452
26457.0,-143.05,-37.728,18.405,2.3452
26467.0,-143.05,-37.728,19.405,3.3452
26477.0,-143.05,-36.728,19.405,3.3452
26487.0,-145.05,-39.728,18.405,5.3452
26497.0,-149.05,-42.728,15.405,5.3452
26507.0,-154.05,-42.728,17.405,6.3452
26517.0,-155.05,-43.728,17.405,7.3452
26527.0,-157.05,-43.728,16.405,8.3452
26536.0,-158.05,-44.728,17.405,6.3452
26546.0,-161.05,-45.728,15.405,5.3452
26556.0,-164.05,-47.728,16.405,6.3452
26566.0,-168.05,-48.728,13.405,8.3452
26576.0,-170.05,-48.728,13.405,6.3452
26586.0,-172.05,-50.728,9.4054,6.3452
26596.0,-175.05,-51.728,8.4054,5.3452
26606.0,-181.05,-52.728,7.4054,3.3452
26616.0,-186.05,-55.728,6.4054,4.3452
26625.0,-188.05,-57.728,6.4054,5.3452
26635.0,-192.05,-57.728,4.4054,3.3452
26645.0,-196.05,-59.728,1.4054,4.3452
26655.0,-200.05,-60.728,1.4054,3.3452
26665.0,-204.05,-62.728,2.4054,4.3452
26675.0,-210.05,-63.728,0.40535,5.3452
26685.0,-212.05,-66.728,-2.5946,3.3452
26695.0,-219.05,-68.728,-2.5946,5.3452
26705.0,-226.05,-70.728,-5.5946,3.3452
26714.0,-218.05,-64.728,-7.5946,2.3452
26724.0,-199.05,-52.728,-9.5946,2.3452
26734.0,-163.05,-34.728,-11.595,2.3452
26744.0,-156.05,-33.728,-6.5946,4.3452
26754.0,-150.05,-32.728,-2.5946,6.3452
26764.0,-147.05,-33.728,4.4054,6.3452
26774.0,-145.05,-32.728,9.4054,9.3452
26784.0,-143.05,-34.728,16.405,10.345
26794.0,-143.05,-34.728,20.405,11.345
26803.0,-140.05,-34.728,26.405,12.345
26813.0,-138.05,-34.728,29.405,13.345
26823.0,-133.05,-31.728,33.405,15.345
26833.0,-133.05,-31.728,38.405,17.345
26843.0,-131.05,-30.728,37.405,16.345
26853.0,-136.05,-33.728,40.405,17.345
26863.0,-142.05,-36.728,43.405,18.345
26873.0,-146.05,-38.728,41.405,17.345
26882.0,-152.05,-41.728,41.405,16.345
26892.0,-152.05,-42.728,39.405,15.345
26902.0,-152.05,-41.728,37.405,15.345
26912.0,-152.05,-41.728,37.405,15.345
26922.0,-153.05,-40.728,37.405,16.345
26932.0,-152.05,-40.728,34.405,16.345
26942.0,-152.05,-40.728,34.405,16.345
26952.0,-153.05,-40.728,34.405,16.345
26962.0,-153.05,-40.728,32.405,17.345
26971.0,-156.05,-42.728,32.405,18.345
26981.0,-156.05,-42.728,34.405,19.345
26991.0,-162.05,-44.728,32.405,19.345
27001.0,-162.05,-44.728,33.405,19.345
27011.0,-168.05,-47.728,33.405,19.345
27021.0,-168.05,-47.728,34.405,20.345
27031.0,-174.05,-50.728,34.405,20.345
27041.0,-174.05,-50.728,34.405,21.345
27051.0,-178.05,-53.728,34.405,21.345
27060.0,-178.05,-53.728,31.405,22.345
27070.0,-188.05,-55.728,31.405,22.345
27080.0,-188.05,-55.728,28.405,21.345
27090.0,-197.05,-59.728,28.405,21.345
27100.0,-197.05,-59.728,25.405,19.345
27110.0,-203.05,-61.728,25.405,19.345
27120.0,-206.05,-63.728,23.405,19.345
27130.0,-213.05,-64.728,23.405,19.345
27140.0,-218.05,-67.728,20.405,21.345
27149.0,-224.05,-70.728,20.405,21.345
27159.0,-229.05,-72.728,18.405,20.345
27169.0,-235.05,-75.728,18.405,20.345
27179.0,-240.05,-78.728,16.405,20.345
27189.0,-238.05,-74.728,16.405,20.345
27199.0,-219.05,-61.728,12.405,20.345
27209.0,-180.05,-43.728,10.405,19.345
27219.0,-172.05,-39.728,15.405,21.345
27228.0,-167.05,-40.728,20.405,22.345
27238.0,-165.05,-41.728,27.405,25.345
27248.0,-165.05,-42.728,30.405,25.345
27258.0,-164.05,-43.728,37.405,29.345
27268.0,-165.05,-45.728,42.405,30.345
27278.0,-163.05,-45.728,49.405,32.345
27288.0,-158.05,-43.728,54.405,34.345
27298.0,-151.05,-40.728,58.405,35.345
27308.0,-148.05,-39.728,63.405,37.345
27317.0,-148.05,-39.728,66.405,38.345
27327.0,-152.05,-42.728,70.405,40.345
27337.0,-157.05,-44.728,67.405,39.345
27347.0,-163.05,-48.728,70.405,38.345
27357.0,-174.05,-53.728,69.405,37.345
27367.0,-180.05,-58.728,69.405,37.345
27377.0,-185.05,-58.728,69.405,38.345
27387.0,-185.05,-58.728,64.405,36.345
27397.0,-186.05,-58.728,65.405,37.345
27406.0,-189.05,-59.728,66.405,39.345
27416.0,-190.05,-60.728,65.405,39.345
27426.0,-193.05,-62.728,66.405,39.345
27436.0,-196.05,-63.728,64.405,38.345
27446.0,-199.05,-65.728,62.405,39.345
27456.0,-202.05,-66.728,62.405,39.345
27466.0,-206.05,-68.728,64.405,41.345
27476.0,-220.05,-77.728,63.405,41.345
27486.0,-264.05,-96.728,62.405,41.345
27495.0,-323.05,-126.73,62.405,41.345
27505.0,-384.05,-153.73,60.405,42.345
27515.0,-435.05,-175.73,61.405,41.345
27525.0,-467.05,-190.73,59.405,41.345
27535.0,-491.05,-201.73,58.405,41.345
27545.0,-507.05,-207.73,56.405,40.345
27555.0,-518.05,-213.73,56.405,42.345
27565.0,-529.05,-216.73,53.405,41.345
27574.0,-536.05,-219.73,51.405,39.345
27584.0,-538.05,-222.73,51.405,40.345
27594.0,-540.05,-222.73,52.405,41.345
27604.0,-544.05,-223.73,53.405,41.345
27614.0,-547.05,-227.73,53.405,41.345
27624.0,-556.05,-231.73,52.405,40.345
27634.0,-554.05,-230.73,47.405,41.345
27644.0,-549.05,-228.73,47.405,42.345
27654.0,-516.05,-208.73,44.405,39.345
27663.0,-450.05,-172.73,42.405,39.345
27673.0,-408.05,-155.73,42.405,41.345
27683.0,-384.05,-146.73,47.405,43.345
27693.0,-364.05,-138.73,53.405,44.345
27703.0,-348.05,-131.73,60.405,47.345
27713.0,-326.05,-125.73,66.405,50.345
27723.0,-306.05,-114.73,73.405,53.345
27733.0,-277.05,-101.73,79.405,55.345
27743.0,-251.05,-87.728,87.405,57.345
27752.0,-221.05,-75.728,93.405,59.345
27762.0,-199.05,-65.728,95.405,58.345
27772.0,-182.05,-57.728,97.405,60.345
27782.0,-169.05,-50.728,98.405,58.345
27792.0,-156.05,-44.728,97.405,57.345
27802.0,-146.05,-41.728,97.405,55.345
27812.0,-146.05,-41.728,93.405,53.345
27822.0,-145.05,-42.728,93.405,51.345
27832.0,-145.05,-42.728,89.405,50.345
27841.0,-141.05,-38.728,86.405,48.345
27851.0,-141.05,-38.728,84.405,47.345
27861.0,-135.05,-33.728,81.405,47.345
27871.0,-135.05,-33.728,81.405,46.345
27881.0,-128.05,-28.728,79.405,46.345
27891.0,-128.05,-28.728,77.405,45.345
27901.0,-121.05,-26.728,74.405,45.345
27911.0,-121.05,-26.728,73.405,44.345
27920.0,-124.05,-27.728,70.405,43.345
27930.0,-124.05,-27.728,71.405,43.345
27940.0,-132.05,-29.728,67.405,43.345
27950.0,-132.05,-29.728,66.405,42.345
27960.0,-136.05,-33.728,65.405,43.345
27970.0,-136.05,-33.728,63.405,42.345
27980.0,-139.05,-32.728,62.405,41.345
27990.0,-141.05,-32.728,59.405,41.345
28000.0,-146.05,-35.728,57.405,40.345
28009.0,-149.05,-36.728,54.405,37.345
28019.0,-154.05,-38.728,54.405,37.345
28029.0,-162.05,-41.728,42.405,32.345
28039.0,-171.05,-44.728,42.405,32.345
28049.0,-177.05,-48.728,38.405,29.345
28059.0,-181.05,-50.728,38.405,29.345
28069.0,-185.05,-50.728,33.405,26.345
28079.0,-189.05,-53.728,33.405,26.345
28089.0,-195.05,-54.728,30.405,27.345
28098.0,-200.05,-56.728,30.405,27.345
28108.0,-193.05,-51.728,27.405,26.345
28118.0,-162.05,-31.728,27.405,26.345
28128.0,-123.05,-14.728,28.405,28.345
28138.0,-113.05,-9.7278,28.405,28.345
28148.0,-107.05,-9.7278,38.405,30.345
28158.0,-107.05,-11.728,38.405,30.345
28168.0,-107.05,-12.728,48.405,33.345
28178.0,-106.05,-12.728,48.405,33.345
28187.0,-102.05,-12.728,56.405,34.345
28197.0,-106.05,-15.728,56.405,34.345
28207.0,-117.05,-21.728,63.405,35.345
28217.0,-135.05,-31.728,63.405,35.345
28227.0,-156.05,-41.728,65.405,34.345
28237.0,-170.05,-50.728,68.405,34.345
28247.0,-185.05,-57.728,66.405,34.345
28257.0,-192.05,-61.728,69.405,32.345
28266.0,-200.05,-66.728,64.405,32.345
28276.0,-200.05,-67.728,62.405,30.345
28286.0,-201.05,-67.728,61.405,30.345
28296.0,-190.05,-61.728,59.405,29.345
28306.0,-171.05,-50.728,56.405,27.345
28316.0,-153.05,-42.728,53.405,26.345
28326.0,-133.05,-31.728,51.405,27.345
28336.0,-117.05,-21.728,50.405,25.345
28346.0,-98.048,-13.728,47.405,24.345
28355.0,-86.048,-6.7278,45.405,23.345
28365.0,-78.048,-3.7278,41.405,23.345
28375.0,-70.048,0.27221,38.405,21.345
28385.0,-66.048,3.2722,34.405,20.345
28395.0,-61.048,5.2722,33.405,19.345
28405.0,-61.048,6.2722,30.405,17.345
28415.0,-59.048,8.2722,28.405,18.345
28425.0,-56.048,8.2722,28.405,16.345
28435.0,-58.048,8.2722,25.405,17.345
28444.0,-59.048,9.2722,24.405,16.345
28454.0,-61.048,9.2722,22.405,17.345
28464.0,-64.048,7.2722,20.405,14.345
28474.0,-72.048,5.2722,19.405,15.345
28484.0,-76.048,3.2722,18.405,12.345
28494.0,-79.048,2.2722,15.405,13.345
28504.0,-85.048,1.2722,10.405,10.345
28514.0,-87.048,-0.72779,9.4054,9.3452
28524.0,-89.048,-1.7278,3.4054,7.3452
28533.0,-91.048,-2.7278,2.4054,8.3452
28543.0,-97.048,-3.7278,1.4054,7.3452
28553.0,-101.05,-5.7278,-0.59465,7.3452
28563.0,-102.05,-4.7278,-2.5946,6.3452
28573.0,-83.048,7.2722,-6.5946,5.3452
28583.0,-46.048,25.272,-6.5946,6.3452
28593.0,-35.048,29.272,-4.5946,5.3452
28603.0,-29.048,31.272,-2.5946,6.3452
28612.0,-28.048,28.272,2.4054,8.3452
28622.0,-26.048,29.272,7.4054,10.345
28632.0,-17.048,31.272,12.405,11.345
28642.0,-12.048,32.272,17.405,13.345
28652.0,-6.0476,35.272,22.405,14.345
28662.0,5.9524,40.272,27.405,14.345
28672.0,13.952,44.272,31.405,15.345
28682.0,13.952,44.272,35.405,16.345
28692.0,23.952,46.272,37.405,16.345
28701.0,23.952,46.272,38.405,16.345
28711.0,21.952,44.272,40.405,15.345
28721.0,21.952,44.272,39.405,16.345
28731.0,17.952,40.272,38.405,14.345
28741.0,17.952,40.272,36.405,14.345
28751.0,6.9524,35.272,36.405,14.345
28761.0,6.9524,35.272,33.405,12.345
28771.0,3.9524,35.272,31.405,12.345
28781.0,3.9524,35.272,32.405,12.345
28790.0,-1.0476,34.272,31.405,12.345
28800.0,-1.0476,34.272,29.405,11.345
28810.0,-6.0476,32.272,25.405,10.345
28820.0,-6.0476,32.272,23.405,10.345
28830.0,-12.048,29.272,23.405,10.345
28840.0,-12.048,29.272,22.405,10.345
28850.0,-16.048,27.272,19.405,9.3452
28860.0,-20.048,25.272,17.405,8.3452
28870.0,-20.048,26.272,17.405,9.3452
28879.0,-24.048,24.272,15.405,8.3452
28889.0,-25.048,23.272,14.405,8.3452
28899.0,-27.048,23.272,14.405,7.3452
28909.0,-29.048,23.272,13.405,6.3452
28919.0,-29.048,23.272,10.405,6.3452
28929.0,-32.048,22.272,8.4054,6.3452
28939.0,-34.048,22.272,5.4054,6.3452
28949.0,-37.048,23.272,4.4054,6.3452
28958.0,-40.048,22.272,4.4054,5.3452
28968.0,-39.048,21.272,2.4054,3.3452
28978.0,-40.048,22.272,0.40535,5.3452
28988.0,-39.048,23.272,0.40535,5.3452
28998.0,-37.048,25.272,-3.5946,4.3452
29008.0,-34.048,28.272,-5.5946,4.3452
29018.0,-34.048,28.272,-6.5946,3.3452
29028.0,-36.048,27.272,-9.5946,2.3452
29038.0,-34.048,30.272,-11.595,0.34524
29047.0,-18.048,40.272,-14.595,0.34524
29057.0,13.952,55.272,-14.595,0.34524
29067.0,23.952,59.272,-14.595,0.34524
29077.0,34.952,65.272,-6.5946,4.3452
29087.0,39.952,64.272,-6.5946,4.3452
29097.0,48.952,66.272,3.4054,5.3452
29107.0,55.952,68.272,3.4054,5.3452
29117.0,62.952,71.272,15.405,9.3452
29127.0,70.952,74.272,15.405,9.3452
29136.0,83.952,79.272,27.405,12.345
29146.0,95.952,85.272,27.405,12.345
29156.0,103.95,88.272,30.405,14.345
29166.0,106.95,89.272,30.405,14.345
29176.0,108.95,90.272,38.405,14.345
29186.0,108.95,89.272,38.405,14.345
29196.0,108.95,88.272,35.405,13.345
29206.0,103.95,87.272,35.405,13.345
29215.0,101.95,85.272,35.405,12.345
29225.0,99.952,84.272,35.405,12.345
29235.0,100.95,84.272,33.405,14.345
29245.0,101.95,85.272,33.405,14.345
29255.0,97.952,85.272,32.405,13.345
29265.0,95.952,84.272,32.405,13.345
29275.0,92.952,83.272,30.405,12.345
29285.0,89.952,83.272,30.405,12.345
29295.0,86.952,80.272,24.405,10.345
29304.0,80.952,77.272,24.405,10.345
29314.0,74.952,74.272,22.405,10.345
29324.0,67.952,71.272,22.405,9.3452
29334.0,62.952,68.272,20.405,9.3452
29344.0,58.952,67.272,21.405,10.345
29354.0,55.952,67.272,21.405,11.345
29364.0,53.952,66.272,20.405,12.345
29374.0,48.952,63.272,19.405,12.345
29384.0,46.952,61.272,19.405,12.345
29393.0,38.952,59.272,17.405,12.345
29403.0,34.952,57.272,15.405,12.345
29413.0,31.952,56.272,14.405,11.345
29423.0,23.952,53.272,12.405,10.345
29433.0,20.952,51.272,12.405,9.3452
29443.0,14.952,49.272,10.405,9.3452
29453.0,8.9524,48.272,7.4054,11.345
29463.0,2.9524,45.272,6.4054,9.3452
29473.0,-4.0476,41.272,5.4054,10.345
29482.0,-8.0476,38.272,2.4054,8.3452
29492.0,-18.048,36.272,1.4054,9.3452
29502.0,-23.048,33.272,0.40535,7.3452
29512.0,-31.048,31.272,-0.59465,6.3452
29522.0,-17.048,41.272,-5.5946,5.3452
29532.0,9.9524,55.272,-7.5946,4.3452
29542.0,21.952,60.272,-7.5946,5.3452
29552.0,21.952,60.272,-1.5946,7.3452
29561.0,33.952,62.272,1.4054,9.3452
29571.0,33.952,62.272,8.4054,12.345
29581.0,42.952,63.272,14.405,14.345
29591.0,42.952,63.272,21.405,16.345
29601.0,44.952,63.272,25.405,16.345
29611.0,44.952,63.272,29.405,18.345
29621.0,60.952,70.272,32.405,18.345
29631.0,60.952,70.272,36.405,20.345
29641.0,75.952,76.272,38.405,19.345
29650.0,75.952,76.272,40.405,20.345
29660.0,79.952,76.272,42.405,20.345
29670.0,79.952,76.272,45.405,20.345
29680.0,73.952,73.272,46.405,22.345
29690.0,73.952,73.272,46.405,23.345
29700.0,65.952,69.272,47.405,24.345
29710.0,65.952,69.272,45.405,24.345
29720.0,63.952,69.272,45.405,24.345
29730.0,63.952,68.272,45.405,23.345
29739.0,63.952,68.272,42.405,22.345
29749.0,61.952,67.272,43.405,22.345
29759.0,58.952,66.272,42.405,22.345
29769.0,58.952,66.272,42.405,25.345
29779.0,56.952,66.272,42.405,24.345
29789.0,54.952,65.272,41.405,25.345
29799.0,52.952,64.272,42.405,26.345
29809.0,51.952,64.272,42.405,28.345
29819.0,48.952,63.272,41.405,28.345
29828.0,45.952,62.272,42.405,28.345
29838.0,41.952,61.272,41.405,29.345
29848.0,41.952,59.272,41.405,29.345
29858.0,34.952,58.272,39.405,28.345
29868.0,31.952,56.272,37.405,27.345
29878.0,26.952,52.272,38.405,29.345
29888.0,19.952,51.272,37.405,30.345
29898.0,15.952,50.272,39.405,30.345
29907.0,8.9524,46.272,38.405,30.345
29917.0,1.9524,44.272,38.405,31.345
29927.0,-2.0476,43.272,38.405,32.345
29937.0,-6.0476,40.272,39.405,32.345
29947.0,-11.048,40.272,39.405,33.345
29957.0,-15.048,37.272,37.405,33.345
29967.0,-24.048,33.272,35.405,33.345
29977.0,-30.048,31.272,34.405,33.345
29987.0,-36.048,29.272,32.405,32.345
29996.0,-44.048,25.272,30.405,31.345
