t,carotid_880nm,carotid_660nm,brachial_880nm,brachial_660nm
3.4,-31.933,-55.294,-18.642,-3.6262
13.3,-31.933,-54.294,-17.642,-3.6262
23.2,-31.933,-57.294,-19.642,-4.6262
33.1,-33.933,-56.294,-21.642,-4.6262
42.9,-33.933,-56.294,-23.642,-4.6262
52.8,-33.933,-55.294,-25.642,-4.6262
62.7,-34.933,-57.294,-26.642,-6.6262
72.6,-38.933,-58.294,-29.642,-6.6262
82.5,-39.933,-56.294,-33.642,-8.6262
92.4,-38.933,-58.294,-33.642,-9.6262
102.3,-37.933,-56.294,-35.642,-9.6262
112.1,-40.933,-58.294,-37.642,-7.6262
122.0,-41.933,-58.294,-37.642,-10.626
131.9,-41.933,-58.294,-39.642,-9.6262
141.8,-39.933,-54.294,-40.642,-10.626
151.7,-32.933,-51.294,-44.642,-11.626
161.6,-33.933,-50.294,-50.642,-13.626
171.5,-32.933,-49.294,-53.642,-15.626
181.3,-22.933,-43.294,-54.642,-15.626
191.2,-19.933,-41.294,-58.642,-16.626
201.1,-17.933,-41.294,-58.642,-17.626
211.0,-9.9335,-39.294,-57.642,-18.626
220.9,-4.9335,-36.294,-54.642,-18.626
230.8,0.066504,-33.294,-48.642,-17.626
240.7,6.0665,-32.294,-40.642,-17.626
250.5,9.0665,-29.294,-35.642,-15.626
260.4,13.067,-29.294,-28.642,-14.626
270.3,18.067,-27.294,-23.642,-12.626
280.2,20.067,-26.294,-19.642,-11.626
290.1,23.067,-23.294,-16.642,-11.626
300.0,26.067,-23.294,-15.642,-12.626
309.9,29.067,-23.294,-13.642,-11.626
319.7,30.067,-20.294,-10.642,-9.6262
329.6,31.067,-21.294,-9.6415,-8.6262
339.5,31.067,-21.294,-6.6415,-8.6262
349.4,30.067,-23.294,-9.6415,-7.6262
359.3,30.067,-23.294,-8.6415,-7.6262
369.2,29.067,-22.294,-9.6415,-6.6262
379.1,29.067,-22.294,-10.642,-7.6262
388.9,37.067,-17.294,-10.642,-8.6262
398.8,37.067,-17.294,-10.642,-6.6262
408.7,40.067,-16.294,-11.642,-8.6262
418.6,40.067,-16.294,-16.642,-8.6262
428.5,41.067,-13.294,-16.642,-8.6262
438.4,41.067,-13.294,-19.642,-9.6262
448.3,42.067,-11.294,-19.642,-9.6262
458.1,42.067,-11.294,-21.642,-9.6262
468.0,44.067,-11.294,-21.642,-9.6262
477.9,44.067,-11.294,-20.642,-9.6262
487.8,45.067,-12.294,-20.642,-9.6262
497.7,45.067,-12.294,-22.642,-9.6262
507.6,45.067,-12.294,-22.642,-9.6262
517.5,41.067,-11.294,-23.642,-11.626
527.3,41.067,-12.294,-23.642,-11.626
537.2,41.067,-12.294,-26.642,-11.626
547.1,41.067,-12.294,-26.642,-11.626
557.0,42.067,-12.294,-29.642,-12.626
566.9,40.067,-13.294,-29.642,-12.626
576.8,37.067,-12.294,-30.642,-12.626
586.7,38.067,-13.294,-30.642,-12.626
596.5,36.067,-14.294,-32.642,-11.626
606.4,33.067,-14.294,-32.642,-11.626
616.3,35.067,-15.294,-37.642,-13.626
626.2,34.067,-15.294,-37.642,-13.626
636.1,31.067,-15.294,-38.642,-14.626
646.0,30.067,-15.294,-40.642,-15.626
655.9,27.067,-15.294,-41.642,-14.626
665.7,23.067,-18.294,-43.642,-15.626
675.6,18.067,-20.294,-44.642,-14.626
685.5,17.067,-21.294,-48.642,-15.626
695.4,17.067,-19.294,-50.642,-17.626
705.3,13.067,-22.294,-53.642,-18.626
715.2,8.0665,-24.294,-54.642,-17.626
725.1,7.0665,-26.294,-54.642,-17.626
734.9,10.067,-22.294,-56.642,-17.626
744.8,14.067,-19.294,-58.642,-18.626
754.7,12.067,-19.294,-61.642,-17.626
764.6,15.067,-16.294,-63.642,-18.626
774.5,21.067,-12.294,-66.642,-18.626
784.4,25.067,-11.294,-69.642,-19.626
794.3,28.067,-9.2942,-70.642,-19.626
804.1,31.067,-7.2942,-67.642,-19.626
814.0,35.067,-6.2942,-64.642,-20.626
823.9,40.067,-5.2942,-60.642,-19.626
833.8,44.067,-3.2942,-55.642,-18.626
843.7,46.067,-4.2942,-50.642,-17.626
853.6,47.067,-2.2942,-42.642,-15.626
863.5,52.067,-2.2942,-38.642,-13.626
873.3,53.067,-2.2942,-35.642,-13.626
883.2,50.067,-2.2942,-32.642,-13.626
893.1,53.067,-3.2942,-30.642,-12.626
903.0,52.067,-2.2942,-29.642,-11.626
912.9,52.067,-2.2942,-25.642,-11.626
922.8,51.067,-4.2942,-23.642,-9.6262
932.7,47.067,-7.2942,-21.642,-8.6262
942.5,48.067,-5.2942,-21.642,-6.6262
952.4,45.067,-6.2942,-21.642,-7.6262
962.3,42.067,-7.2942,-20.642,-5.6262
972.2,44.067,-6.2942,-19.642,-3.6262
982.1,42.067,-9.2942,-21.642,-4.6262
992.0,41.067,-8.2942,-23.642,-4.6262
1001.9,38.067,-10.294,-25.642,-5.6262
1011.7,38.067,-10.294,-26.642,-5.6262
1021.6,35.067,-11.294,-27.642,-3.6262
1031.5,33.067,-11.294,-28.642,-5.6262
1041.4,34.067,-10.294,-29.642,-5.6262
1051.3,34.067,-13.294,-26.642,-5.6262
1061.2,32.067,-13.294,-28.642,-5.6262
1071.1,31.067,-13.294,-30.642,-4.6262
1080.9,26.067,-16.294,-27.642,-4.6262
1090.8,26.067,-16.294,-31.642,-4.6262
1100.7,22.067,-19.294,-29.642,-5.6262
1110.6,17.067,-20.294,-29.642,-4.6262
1120.5,16.067,-21.294,-29.642,-5.6262
1130.4,16.067,-20.294,-29.642,-4.6262
1140.3,13.067,-23.294,-29.642,-4.6262
1150.1,9.0665,-24.294,-29.642,-4.6262
1160.0,6.0665,-25.294,-32.642,-4.6262
1169.9,2.0665,-27.294,-31.642,-3.6262
1179.8,-0.9335,-28.294,-33.642,-3.6262
1189.7,-3.9335,-30.294,-33.642,-2.6262
1199.6,-7.9335,-33.294,-33.642,-3.6262
1209.5,-7.9335,-33.294,-34.642,-3.6262
1219.3,-12.933,-35.294,-36.642,-5.6262
1229.2,-12.933,-35.294,-37.642,-5.6262
1239.1,-22.933,-41.294,-38.642,-5.6262
1249.0,-22.933,-41.294,-39.642,-5.6262
1258.9,-30.933,-44.294,-43.642,-3.6262
1268.8,-30.933,-44.294,-44.642,-5.6262
1278.7,-39.933,-47.294,-47.642,-5.6262
1288.5,-39.933,-47.294,-48.642,-6.6262
1298.4,-49.933,-52.294,-47.642,-5.6262
1308.3,-49.933,-52.294,-49.642,-5.6262
1318.2,-52.933,-53.294,-48.642,-3.6262
1328.1,-52.933,-53.294,-54.642,-5.6262
1338.0,-54.933,-51.294,-54.642,-6.6262
1347.9,-54.933,-51.294,-56.642,-7.6262
1357.7,-49.933,-48.294,-60.642,-8.6262
1367.6,-49.933,-48.294,-61.642,-7.6262
1377.5,-46.933,-46.294,-62.642,-5.6262
1387.4,-42.933,-45.294,-61.642,-6.6262
1397.3,-41.933,-44.294,-60.642,-6.6262
1407.2,-37.933,-42.294,-54.642,-5.6262
1417.1,-35.933,-43.294,-51.642,-5.6262
1426.9,-35.933,-42.294,-44.642,-5.6262
1436.8,-32.933,-42.294,-40.642,-5.6262
1446.7,-33.933,-44.294,-34.642,-3.6262
1456.6,-34.933,-44.294,-34.642,-3.6262
1466.5,-33.933,-46.294,-29.642,-2.6262
1476.4,-34.933,-46.294,-29.642,-2.6262
1486.3,-35.933,-47.294,-22.642,-0.62615
1496.1,-38.933,-49.294,-22.642,-0.62615
1506.0,-39.933,-48.294,-18.642,1.3738
1515.9,-42.933,-50.294,-18.642,1.3738
1525.8,-44.933,-52.294,-15.642,3.3738
1535.7,-43.933,-51.294,-15.642,3.3738
1545.6,-49.933,-55.294,-17.642,4.3738
1555.5,-47.933,-51.294,-17.642,4.3738
1565.3,-48.933,-54.294,-20.642,5.3738
1575.2,-47.933,-52.294,-20.642,5.3738
1585.1,-49.933,-53.294,-26.642,2.3738
1595.0,-49.933,-53.294,-26.642,2.3738
1604.9,-49.933,-53.294,-30.642,3.3738
1614.8,-49.933,-53.294,-30.642,3.3738
1624.7,-50.933,-54.294,-29.642,2.3738
1634.5,-49.933,-52.294,-29.642,2.3738
1644.4,-49.933,-53.294,-32.642,2.3738
1654.3,-49.933,-54.294,-32.642,2.3738
1664.2,-50.933,-53.294,-33.642,1.3738
1674.1,-53.933,-55.294,-33.642,1.3738
1684.0,-55.933,-56.294,-33.642,1.3738
1693.9,-54.933,-56.294,-34.642,1.3738
1703.7,-59.933,-57.294,-34.642,1.3738
1713.6,-61.933,-58.294,-34.642,1.3738
1723.5,-61.933,-59.294,-34.642,0.37385
1733.4,-64.933,-61.294,-33.642,0.37385
1743.3,-65.933,-61.294,-34.642,0.37385
1753.2,-67.933,-64.294,-36.642,-1.6262
1763.1,-69.933,-63.294,-36.642,1.3738
1772.9,-70.933,-64.294,-39.642,-0.62615
1782.8,-70.933,-63.294,-40.642,0.37385
1792.7,-73.933,-63.294,-39.642,0.37385
1802.6,-75.933,-65.294,-43.642,-0.62615
1812.5,-76.933,-66.294,-45.642,-0.62615
1822.4,-79.933,-67.294,-46.642,-2.6262
1832.3,-83.933,-68.294,-47.642,-3.6262
1842.1,-85.933,-70.294,-50.642,-3.6262
1852.0,-87.933,-71.294,-51.642,-3.6262
1861.9,-89.933,-72.294,-51.642,-3.6262
1871.8,-93.933,-74.294,-54.642,-3.6262
1881.7,-97.933,-74.294,-52.642,-2.6262
1891.6,-93.933,-72.294,-56.642,-4.6262
1901.4,-90.933,-69.294,-59.642,-5.6262
1911.3,-90.933,-70.294,-64.642,-6.6262
1921.2,-89.933,-67.294,-68.642,-8.6262
1931.1,-79.933,-63.294,-71.642,-9.6262
1941.0,-75.933,-59.294,-73.642,-10.626
1950.9,-70.933,-57.294,-73.642,-8.6262
1960.8,-62.933,-54.294,-72.642,-9.6262
1970.7,-56.933,-53.294,-73.642,-10.626
1980.5,-51.933,-51.294,-66.642,-12.626
1990.4,-47.933,-49.294,-61.642,-9.6262
2000.3,-43.933,-48.294,-54.642,-8.6262
2010.2,-42.933,-48.294,-49.642,-7.6262
2020.1,-41.933,-48.294,-43.642,-6.6262
2030.0,-36.933,-45.294,-42.642,-7.6262
2039.8,-36.933,-46.294,-39.642,-6.6262
2049.7,-34.933,-46.294,-34.642,-6.6262
2059.6,-35.933,-47.294,-33.642,-5.6262
2069.5,-37.933,-47.294,-31.642,-4.6262
2079.4,-37.933,-47.294,-29.642,-2.6262
2089.3,-38.933,-49.294,-27.642,-3.6262
2099.2,-38.933,-49.294,-28.642,-3.6262
2109.1,-33.933,-47.294,-29.642,-4.6262
2118.9,-33.933,-47.294,-30.642,-5.6262
2128.8,-32.933,-44.294,-32.642,-4.6262
2138.7,-32.933,-44.294,-31.642,-3.6262
2148.6,-31.933,-44.294,-33.642,-2.6262
2158.5,-31.933,-44.294,-37.642,-4.6262
2168.4,-29.933,-42.294,-39.642,-5.6262
2178.2,-29.933,-42.294,-41.642,-6.6262
2188.1,-25.933,-41.294,-45.642,-8.6262
2198.0,-25.933,-41.294,-45.642,-7.6262
2207.9,-22.933,-38.294,-47.642,-9.6262
2217.8,-22.933,-38.294,-48.642,-8.6262
2227.7,-20.933,-39.294,-48.642,-9.6262
2237.6,-20.933,-39.294,-48.642,-7.6262
2247.4,-21.933,-38.294,-48.642,-9.6262
2257.3,-23.933,-39.294,-50.642,-7.6262
2267.2,-21.933,-39.294,-52.642,-9.6262
2277.1,-21.933,-39.294,-53.642,-10.626
2287.0,-23.933,-39.294,-53.642,-10.626
2296.9,-24.933,-38.294,-54.642,-10.626
2306.8,-23.933,-39.294,-55.642,-11.626
2316.6,-23.933,-38.294,-58.642,-10.626
2326.5,-23.933,-38.294,-56.642,-11.626
2336.4,-24.933,-38.294,-60.642,-12.626
2346.3,-24.933,-39.294,-60.642,-13.626
2356.2,-23.933,-39.294,-61.642,-13.626
2366.1,-25.933,-40.294,-63.642,-14.626
2376.0,-26.933,-40.294,-67.642,-14.626
2385.8,-27.933,-39.294,-70.642,-15.626
2395.7,-27.933,-40.294,-70.642,-15.626
2405.6,-31.933,-41.294,-72.642,-17.626
2415.5,-32.933,-44.294,-75.642,-18.626
2425.4,-33.933,-43.294,-77.642,-18.626
2435.3,-37.933,-44.294,-78.642,-19.626
2445.2,-38.933,-45.294,-79.642,-19.626
2455.0,-39.933,-47.294,-82.642,-19.626
2464.9,-37.933,-44.294,-85.642,-18.626
2474.8,-31.933,-39.294,-87.642,-20.626
2484.7,-33.933,-39.294,-88.642,-20.626
2494.6,-31.933,-38.294,-91.642,-22.626
2504.5,-23.933,-32.294,-97.642,-23.626
2514.4,-20.933,-30.294,-99.642,-25.626
2524.2,-15.933,-29.294,-100.64,-24.626
2534.1,-10.933,-26.294,-99.642,-25.626
2544.0,-3.9335,-23.294,-94.642,-27.626
2553.9,4.0665,-21.294,-87.642,-24.626
2563.8,7.0665,-19.294,-78.642,-22.626
2573.7,10.067,-19.294,-70.642,-20.626
2583.6,13.067,-18.294,-70.642,-20.626
2593.4,15.067,-17.294,-61.642,-18.626
2603.3,20.067,-16.294,-61.642,-18.626
2613.2,20.067,-16.294,-55.642,-19.626
2623.1,22.067,-17.294,-55.642,-19.626
2633.0,23.067,-16.294,-51.642,-19.626
2642.9,25.067,-16.294,-51.642,-19.626
2652.8,24.067,-15.294,-49.642,-17.626
2662.6,23.067,-16.294,-49.642,-17.626
2672.5,22.067,-17.294,-46.642,-16.626
2682.4,28.067,-13.294,-46.642,-16.626
2692.3,23.067,-15.294,-45.642,-15.626
2702.2,25.067,-15.294,-45.642,-15.626
2712.1,29.067,-13.294,-47.642,-14.626
2722.0,29.067,-13.294,-47.642,-14.626
2731.8,30.067,-11.294,-52.642,-15.626
2741.7,30.067,-12.294,-52.642,-15.626
2751.6,32.067,-11.294,-57.642,-17.626
2761.5,34.067,-9.2942,-57.642,-17.626
2771.4,36.067,-9.2942,-57.642,-17.626
2781.3,35.067,-10.294,-57.642,-17.626
2791.2,37.067,-9.2942,-57.642,-17.626
2801.0,37.067,-7.2942,-57.642,-17.626
2810.9,38.067,-9.2942,-57.642,-16.626
2820.8,38.067,-7.2942,-57.642,-17.626
2830.7,38.067,-9.2942,-58.642,-16.626
2840.6,36.067,-8.2942,-58.642,-17.626
2850.5,36.067,-9.2942,-59.642,-18.626
2860.4,35.067,-8.2942,-63.642,-20.626
2870.2,37.067,-7.2942,-62.642,-19.626
2880.1,39.067,-8.2942,-61.642,-18.626
2890.0,34.067,-7.2942,-62.642,-18.626
2899.9,36.067,-9.2942,-62.642,-18.626
2909.8,33.067,-8.2942,-64.642,-18.626
2919.7,32.067,-9.2942,-64.642,-20.626
2929.6,31.067,-9.2942,-68.642,-19.626
2939.4,31.067,-8.2942,-69.642,-20.626
2949.3,31.067,-8.2942,-70.642,-19.626
2959.2,29.067,-11.294,-72.642,-20.626
2969.1,29.067,-11.294,-75.642,-22.626
2979.0,23.067,-13.294,-77.642,-23.626
2988.9,23.067,-13.294,-80.642,-23.626
2998.8,21.067,-14.294,-79.642,-23.626
3008.6,21.067,-14.294,-80.642,-21.626
3018.5,16.067,-16.294,-80.642,-22.626
3028.4,16.067,-16.294,-81.642,-21.626
3038.3,17.067,-12.294,-83.642,-23.626
3048.2,17.067,-12.294,-85.642,-23.626
3058.1,22.067,-10.294,-90.642,-25.626
3068.0,22.067,-10.294,-93.642,-24.626
3077.8,31.067,-2.2942,-94.642,-25.626
3087.7,31.067,-2.2942,-99.642,-28.626
3097.6,39.067,0.70584,-97.642,-26.626
3107.5,39.067,0.70584,-99.642,-27.626
3117.4,44.067,1.7058,-97.642,-28.626
3127.3,48.067,3.7058,-90.642,-27.626
3137.2,52.067,6.7058,-83.642,-26.626
3147.0,57.067,7.7058,-75.642,-24.626
3156.9,59.067,6.7058,-68.642,-22.626
3166.8,61.067,7.7058,-64.642,-21.626
3176.7,64.067,8.7058,-60.642,-20.626
3186.6,65.067,10.706,-57.642,-20.626
3196.5,66.067,9.7058,-55.642,-20.626
3206.4,65.067,10.706,-53.642,-20.626
3216.2,71.067,11.706,-53.642,-18.626
3226.1,70.067,11.706,-50.642,-18.626
3236.0,73.067,11.706,-51.642,-18.626
3245.9,69.067,9.7058,-49.642,-17.626
3255.8,73.067,12.706,-48.642,-15.626
3265.7,69.067,10.706,-48.642,-14.626
3275.6,66.067,9.7058,-48.642,-14.626
3285.4,70.067,12.706,-48.642,-15.626
3295.3,70.067,12.706,-51.642,-15.626
3305.2,71.067,12.706,-53.642,-15.626
3315.1,70.067,11.706,-55.642,-15.626
3325.0,70.067,13.706,-57.642,-15.626
3334.9,72.067,13.706,-59.642,-15.626
3344.8,72.067,14.706,-58.642,-14.626
3354.6,70.067,14.706,-60.642,-14.626
3364.5,74.067,14.706,-62.642,-14.626
3374.4,75.067,16.706,-62.642,-15.626
3384.3,73.067,16.706,-62.642,-15.626
3394.2,71.067,15.706,-63.642,-13.626
3404.1,71.067,15.706,-64.642,-14.626
3414.0,71.067,15.706,-66.642,-15.626
3423.8,69.067,14.706,-66.642,-14.626
3433.7,71.067,15.706,-67.642,-15.626
3443.6,68.067,14.706,-67.642,-14.626
3453.5,68.067,13.706,-66.642,-15.626
3463.4,67.067,13.706,-69.642,-14.626
3473.3,67.067,14.706,-68.642,-13.626
3483.2,64.067,14.706,-70.642,-13.626
3493.0,63.067,12.706,-71.642,-14.626
3502.9,62.067,13.706,-71.642,-12.626
3512.8,60.067,13.706,-73.642,-13.626
3522.7,59.067,13.706,-76.642,-14.626
3532.6,59.067,13.706,-78.642,-14.626
3542.5,54.067,13.706,-79.642,-14.626
3552.4,53.067,11.706,-83.642,-15.626
3562.2,51.067,10.706,-85.642,-14.626
3572.1,49.067,12.706,-86.642,-15.626
3582.0,47.067,10.706,-87.642,-15.626
3591.9,43.067,8.7058,-88.642,-14.626
3601.8,40.067,7.7058,-90.642,-14.626
3611.7,43.067,10.706,-92.642,-12.626
3621.6,47.067,13.706,-95.642,-14.626
3631.4,46.067,15.706,-98.642,-15.626
3641.3,47.067,16.706,-101.64,-17.626
3651.2,54.067,21.706,-101.64,-17.626
3661.1,59.067,23.706,-108.64,-17.626
3671.0,60.067,24.706,-108.64,-17.626
3680.9,63.067,24.706,-106.64,-17.626
3690.8,68.067,25.706,-106.64,-17.626
3700.6,70.067,25.706,-95.642,-14.626
3710.5,71.067,25.706,-95.642,-14.626
3720.4,69.067,25.706,-82.642,-13.626
3730.3,72.067,24.706,-82.642,-13.626
3740.2,71.067,25.706,-69.642,-9.6262
3750.1,72.067,23.706,-69.642,-9.6262
3760.0,69.067,22.706,-67.642,-9.6262
3769.8,69.067,21.706,-67.642,-9.6262
3779.7,66.067,19.706,-60.642,-6.6262
3789.6,64.067,19.706,-60.642,-6.6262
3799.5,62.067,18.706,-57.642,-4.6262
3809.4,57.067,15.706,-57.642,-4.6262
3819.3,57.067,15.706,-54.642,-2.6262
3829.2,59.067,15.706,-54.642,-2.6262
3839.0,59.067,15.706,-54.642,-0.62615
3848.9,56.067,13.706,-53.642,-1.6262
3858.8,56.067,13.706,-53.642,0.37385
3868.7,53.067,12.706,-56.642,0.37385
3878.6,53.067,12.706,-59.642,-1.6262
3888.5,48.067,12.706,-63.642,-2.6262
3898.4,48.067,12.706,-65.642,-0.62615
3908.2,49.067,10.706,-65.642,-1.6262
3918.1,49.067,10.706,-64.642,-1.6262
3928.0,44.067,8.7058,-65.642,0.37385
3937.9,44.067,8.7058,-63.642,0.37385
3947.8,41.067,7.7058,-62.642,1.3738
3957.7,41.067,7.7058,-61.642,2.3738
3967.6,34.067,3.7058,-64.642,1.3738
3977.4,34.067,3.7058,-65.642,1.3738
3987.3,33.067,2.7058,-64.642,1.3738
3997.2,32.067,2.7058,-65.642,-0.62615
4007.1,29.067,1.7058,-66.642,0.37385
4017.0,27.067,1.7058,-66.642,1.3738
4026.9,27.067,-1.2942,-67.642,0.37385
4036.8,22.067,-2.2942,-66.642,2.3738
4046.6,20.067,-3.2942,-66.642,2.3738
4056.5,15.067,-4.2942,-65.642,2.3738
4066.4,12.067,-6.2942,-67.642,4.3738
4076.3,9.0665,-8.2942,-70.642,2.3738
4086.2,6.0665,-7.2942,-69.642,3.3738
4096.1,2.0665,-11.294,-70.642,1.3738
4106.0,-2.9335,-12.294,-74.642,1.3738
4115.8,-6.9335,-15.294,-77.642,2.3738
4125.7,-13.933,-17.294,-76.642,1.3738
4135.6,-15.933,-19.294,-79.642,0.37385
4145.5,-20.933,-22.294,-79.642,0.37385
4155.4,-28.933,-27.294,-80.642,2.3738
4165.3,-32.933,-27.294,-82.642,1.3738
4175.2,-34.933,-29.294,-81.642,0.37385
4185.0,-37.933,-30.294,-84.642,0.37385
4194.9,-36.933,-29.294,-87.642,0.37385
4204.8,-36.933,-27.294,-89.642,0.37385
4214.7,-39.933,-28.294,-91.642,-0.62615
4224.6,-36.933,-25.294,-95.642,-2.6262
4234.5,-33.933,-23.294,-95.642,-2.6262
4244.4,-31.933,-24.294,-100.64,-4.6262
4254.2,-29.933,-23.294,-99.642,-3.6262
4264.1,-28.933,-22.294,-98.642,-2.6262
4274.0,-28.933,-22.294,-93.642,-1.6262
4283.9,-26.933,-22.294,-87.642,-0.62615
4293.8,-27.933,-23.294,-82.642,1.3738
4303.7,-28.933,-25.294,-76.642,0.37385
4313.6,-30.933,-25.294,-70.642,2.3738
4323.4,-29.933,-27.294,-69.642,1.3738
4333.3,-30.933,-28.294,-66.642,1.3738
4343.2,-32.933,-28.294,-63.642,1.3738
4353.1,-35.933,-30.294,-61.642,2.3738
4363.0,-38.933,-33.294,-59.642,3.3738
4372.9,-42.933,-34.294,-55.642,7.3738
4382.8,-48.933,-37.294,-51.642,9.3738
4392.6,-43.933,-35.294,-52.642,9.3738
4402.5,-50.933,-39.294,-53.642,9.3738
4412.4,-52.933,-39.294,-54.642,10.374
4422.3,-50.933,-38.294,-56.642,9.3738
4432.2,-53.933,-38.294,-58.642,10.374
4442.1,-54.933,-39.294,-60.642,8.3738
4452.0,-52.933,-40.294,-64.642,7.3738
4461.8,-56.933,-40.294,-66.642,6.3738
4471.7,-55.933,-41.294,-67.642,7.3738
4481.6,-58.933,-41.294,-68.642,9.3738
4491.5,-54.933,-40.294,-66.642,7.3738
4501.4,-57.933,-42.294,-67.642,8.3738
4511.3,-59.933,-42.294,-67.642,8.3738
4521.2,-61.933,-44.294,-69.642,7.3738
4531.0,-62.933,-45.294,-69.642,6.3738
4540.9,-65.933,-45.294,-69.642,6.3738
4550.8,-67.933,-46.294,-68.642,6.3738
4560.7,-70.933,-48.294,-67.642,8.3738
4570.6,-74.933,-50.294,-67.642,8.3738
4580.5,-74.933,-51.294,-69.642,8.3738
4590.3,-75.933,-52.294,-66.642,9.3738
4600.2,-78.933,-53.294,-70.642,8.3738
4610.1,-81.933,-54.294,-69.642,9.3738
4620.0,-83.933,-55.294,-71.642,9.3738
4629.9,-85.933,-57.294,-73.642,9.3738
4639.8,-89.933,-57.294,-75.642,7.3738
4649.7,-90.933,-59.294,-76.642,7.3738
4659.6,-95.933,-60.294,-76.642,8.3738
4669.4,-95.933,-60.294,-80.642,7.3738
4679.3,-101.93,-65.294,-80.642,7.3738
4689.2,-101.93,-65.294,-81.642,6.3738
4699.1,-106.93,-68.294,-81.642,6.3738
4709.0,-106.93,-68.294,-82.642,6.3738
4718.9,-112.93,-70.294,-82.642,6.3738
4728.7,-112.93,-70.294,-86.642,7.3738
4738.6,-115.93,-69.294,-86.642,7.3738
4748.5,-115.93,-69.294,-91.642,7.3738
4758.4,-114.93,-66.294,-91.642,7.3738
4768.3,-114.93,-66.294,-96.642,5.3738
4778.2,-103.93,-59.294,-96.642,5.3738
4788.1,-103.93,-59.294,-101.64,2.3738
4797.9,-94.933,-54.294,-101.64,2.3738
4807.8,-94.933,-54.294,-102.64,0.37385
4817.7,-87.933,-52.294,-102.64,0.37385
4827.6,-87.933,-52.294,-91.642,2.3738
4837.5,-79.933,-48.294,-91.642,2.3738
4847.4,-79.933,-48.294,-78.642,6.3738
4857.3,-76.933,-49.294,-78.642,6.3738
4867.1,-80.933,-51.294,-67.642,7.3738
4877.0,-79.933,-50.294,-67.642,7.3738
4886.9,-76.933,-50.294,-65.642,7.3738
4896.8,-77.933,-51.294,-60.642,8.3738
4906.7,-78.933,-50.294,-57.642,8.3738
4916.6,-77.933,-50.294,-58.642,8.3738
4926.5,-78.933,-49.294,-56.642,10.374
4936.3,-79.933,-51.294,-53.642,10.374
4946.2,-83.933,-52.294,-51.642,9.3738
4956.1,-76.933,-50.294,-53.642,9.3738
4966.0,-81.933,-52.294,-51.642,10.374
4975.9,-81.933,-49.294,-51.642,12.374
4985.8,-77.933,-50.294,-53.642,9.3738
4995.7,-79.933,-50.294,-55.642,9.3738
5005.5,-79.933,-49.294,-56.642,9.3738
5015.4,-77.933,-48.294,-59.642,10.374
5025.3,-77.933,-47.294,-63.642,7.3738
5035.2,-77.933,-46.294,-62.642,8.3738
5045.1,-73.933,-47.294,-63.642,7.3738
5055.0,-75.933,-46.294,-65.642,7.3738
5064.9,-73.933,-45.294,-64.642,7.3738
5074.7,-74.933,-45.294,-65.642,9.3738
5084.6,-74.933,-46.294,-64.642,7.3738
5094.5,-75.933,-46.294,-65.642,8.3738
5104.4,-76.933,-46.294,-65.642,6.3738
5114.3,-77.933,-47.294,-65.642,6.3738
5124.2,-77.933,-48.294,-66.642,5.3738
5134.1,-75.933,-47.294,-66.642,6.3738
5143.9,-77.933,-45.294,-67.642,4.3738
5153.8,-76.933,-46.294,-67.642,5.3738
5163.7,-80.933,-46.294,-69.642,4.3738
5173.6,-78.933,-46.294,-71.642,4.3738
5183.5,-79.933,-47.294,-72.642,4.3738
5193.4,-81.933,-46.294,-74.642,3.3738
5203.3,-81.933,-47.294,-76.642,2.3738
5213.1,-82.933,-47.294,-75.642,2.3738
5223.0,-83.933,-48.294,-80.642,1.3738
5232.9,-87.933,-49.294,-80.642,1.3738
5242.8,-88.933,-49.294,-82.642,-0.62615
5252.7,-88.933,-48.294,-86.642,0.37385
5262.6,-89.933,-50.294,-84.642,-0.62615
5272.5,-95.933,-52.294,-88.642,-1.6262
5282.3,-94.933,-52.294,-88.642,0.37385
5292.2,-91.933,-49.294,-90.642,0.37385
5302.1,-82.933,-42.294,-91.642,-2.6262
5312.0,-82.933,-43.294,-93.642,-2.6262
5321.9,-79.933,-40.294,-96.642,-1.6262
5331.8,-70.933,-34.294,-99.642,-5.6262
5341.7,-66.933,-32.294,-104.64,-6.6262
5351.5,-65.933,-31.294,-107.64,-7.6262
5361.4,-56.933,-29.294,-104.64,-6.6262
5371.3,-52.933,-25.294,-99.642,-9.6262
5381.2,-48.933,-24.294,-94.642,-7.6262
5391.1,-46.933,-24.294,-85.642,-5.6262
5401.0,-41.933,-24.294,-78.642,-3.6262
5410.9,-40.933,-24.294,-71.642,-2.6262
5420.7,-37.933,-23.294,-66.642,-1.6262
5430.6,-36.933,-20.294,-61.642,-0.62615
5440.5,-34.933,-21.294,-57.642,0.37385
5450.4,-33.933,-20.294,-56.642,-0.62615
5460.3,-31.933,-18.294,-54.642,-0.62615
5470.2,-29.933,-18.294,-53.642,-0.62615
5480.1,-27.933,-19.294,-52.642,0.37385
5489.9,-28.933,-19.294,-47.642,1.3738
5499.8,-27.933,-17.294,-47.642,2.3738
5509.7,-25.933,-17.294,-48.642,3.3738
5519.6,-31.933,-21.294,-47.642,2.3738
5529.5,-27.933,-17.294,-49.642,2.3738
5539.4,-27.933,-17.294,-48.642,2.3738
5549.3,-24.933,-16.294,-50.642,3.3738
5559.1,-24.933,-16.294,-51.642,2.3738
5569.0,-21.933,-14.294,-54.642,1.3738
5578.9,-21.933,-14.294,-56.642,0.37385
5588.8,-19.933,-13.294,-56.642,2.3738
5598.7,-19.933,-13.294,-57.642,1.3738
5608.6,-18.933,-12.294,-59.642,1.3738
5618.5,-18.933,-12.294,-58.642,1.3738
5628.3,-18.933,-13.294,-55.642,1.3738
5638.2,-18.933,-13.294,-56.642,2.3738
5648.1,-18.933,-13.294,-56.642,1.3738
5658.0,-18.933,-13.294,-57.642,0.37385
5667.9,-21.933,-14.294,-59.642,-0.62615
5677.8,-21.933,-14.294,-59.642,0.37385
5687.7,-20.933,-14.294,-59.642,0.37385
5697.5,-20.933,-14.294,-59.642,0.37385
5707.4,-22.933,-13.294,-57.642,-0.62615
5717.3,-22.933,-15.294,-59.642,-0.62615
5727.2,-22.933,-15.294,-62.642,-1.6262
5737.1,-25.933,-16.294,-61.642,-1.6262
5747.0,-26.933,-18.294,-61.642,-1.6262
5756.9,-28.933,-17.294,-63.642,-0.62615
5766.7,-29.933,-17.294,-63.642,-0.62615
5776.6,-32.933,-19.294,-67.642,-2.6262
5786.5,-35.933,-20.294,-67.642,-2.6262
5796.4,-36.933,-21.294,-69.642,-2.6262
5806.3,-38.933,-21.294,-69.642,-2.6262
5816.2,-39.933,-23.294,-70.642,-1.6262
5826.1,-44.933,-25.294,-70.642,-1.6262
5835.9,-48.933,-24.294,-70.642,-1.6262
5845.8,-45.933,-23.294,-70.642,-1.6262
5855.7,-44.933,-20.294,-75.642,-1.6262
5865.6,-40.933,-19.294,-75.642,-1.6262
5875.5,-44.933,-20.294,-81.642,-2.6262
5885.4,-37.933,-14.294,-81.642,-2.6262
5895.3,-32.933,-12.294,-85.642,-4.6262
5905.1,-31.933,-12.294,-85.642,-4.6262
5915.0,-28.933,-12.294,-82.642,-4.6262
5924.9,-24.933,-9.2942,-82.642,-4.6262
5934.8,-20.933,-7.2942,-73.642,-3.6262
5944.7,-14.933,-7.2942,-73.642,-3.6262
5954.6,-13.933,-6.2942,-65.642,-1.6262
5964.5,-14.933,-7.2942,-57.642,-0.62615
5974.3,-10.933,-5.2942,-49.642,3.3738
5984.2,-9.9335,-4.2942,-45.642,3.3738
5994.1,-8.9335,-3.2942,-41.642,4.3738
6004.0,-8.9335,-3.2942,-37.642,3.3738
6013.9,-7.9335,-3.2942,-38.642,4.3738
6023.8,-5.9335,-2.2942,-37.642,3.3738
6033.7,-5.9335,-3.2942,-34.642,7.3738
6043.5,-3.9335,-1.2942,-31.642,7.3738
6053.4,-3.9335,-3.2942,-31.642,8.3738
6063.3,1.0665,-1.2942,-31.642,8.3738
6073.2,-3.9335,-2.2942,-28.642,12.374
6083.1,-3.9335,-2.2942,-25.642,12.374
6093.0,-0.9335,0.70584,-26.642,13.374
6102.9,-1.9335,-1.2942,-26.642,11.374
6112.7,-0.9335,-0.29416,-31.642,11.374
6122.6,-1.9335,-1.2942,-34.642,11.374
6132.5,-0.9335,0.70584,-36.642,9.3738
6142.4,2.0665,2.7058,-36.642,9.3738
6152.3,3.0665,1.7058,-36.642,10.374
6162.2,3.0665,1.7058,-38.642,11.374
6172.1,4.0665,3.7058,-36.642,11.374
6181.9,4.0665,2.7058,-34.642,12.374
6191.8,5.0665,2.7058,-36.642,9.3738
6201.7,3.0665,3.7058,-34.642,12.374
6211.6,0.066504,2.7058,-36.642,11.374
6221.5,0.066504,2.7058,-36.642,12.374
6231.4,-0.9335,2.7058,-36.642,11.374
6241.3,-0.9335,3.7058,-36.642,11.374
6251.1,-2.9335,0.70584,-37.642,11.374
6261.0,-3.9335,1.7058,-37.642,11.374
6270.9,-4.9335,0.70584,-38.642,12.374
6280.8,-4.9335,1.7058,-38.642,12.374
6290.7,-5.9335,2.7058,-40.642,11.374
6300.6,-6.9335,0.70584,-40.642,11.374
6310.5,-8.9335,-0.29416,-41.642,10.374
6320.3,-10.933,-1.2942,-43.642,9.3738
6330.2,-11.933,-0.29416,-44.642,10.374
6340.1,-14.933,-2.2942,-45.642,9.3738
6350.0,-16.933,-3.2942,-47.642,9.3738
6359.9,-17.933,-4.2942,-49.642,10.374
6369.8,-20.933,-4.2942,-50.642,10.374
6379.7,-23.933,-5.2942,-51.642,9.3738
6389.5,-20.933,-4.2942,-54.642,8.3738
6399.4,-18.933,-0.29416,-55.642,9.3738
6409.3,-18.933,-0.29416,-56.642,8.3738
6419.2,-13.933,3.7058,-57.642,10.374
6429.1,-13.933,3.7058,-58.642,9.3738
6439.0,-7.9335,7.7058,-61.642,8.3738
6448.9,-7.9335,7.7058,-62.642,8.3738
6458.7,2.0665,14.706,-65.642,6.3738
6468.6,2.0665,14.706,-64.642,6.3738
6478.5,8.0665,16.706,-63.642,7.3738
6488.4,8.0665,16.706,-61.642,7.3738
6498.3,13.067,17.706,-54.642,9.3738
6508.2,13.067,17.706,-45.642,10.374
6518.1,11.067,17.706,-41.642,11.374
6527.9,11.067,17.706,-36.642,11.374
6537.8,12.067,18.706,-30.642,13.374
6547.7,12.067,18.706,-27.642,15.374
6557.6,12.067,18.706,-24.642,15.374
6567.5,12.067,18.706,-22.642,16.374
6577.4,13.067,18.706,-20.642,16.374
6587.3,11.067,17.706,-20.642,17.374
6597.1,10.067,16.706,-17.642,18.374
6607.0,6.0665,13.706,-16.642,18.374
6616.9,6.0665,14.706,-16.642,19.374
6626.8,4.0665,14.706,-15.642,19.374
6636.7,-0.9335,11.706,-15.642,22.374
6646.6,1.0665,12.706,-14.642,23.374
6656.5,0.066504,10.706,-17.642,22.374
6666.3,-2.9335,9.7058,-17.642,22.374
6676.2,-4.9335,8.7058,-22.642,20.374
6686.1,-6.9335,7.7058,-23.642,21.374
6696.0,-10.933,5.7058,-24.642,20.374
6705.9,-15.933,3.7058,-25.642,19.374
6715.8,-17.933,0.70584,-24.642,22.374
6725.7,-22.933,-1.2942,-22.642,22.374
6735.5,-26.933,-4.2942,-22.642,22.374
6745.4,-28.933,-3.2942,-21.642,23.374
6755.3,-31.933,-6.2942,-21.642,23.374
6765.2,-35.933,-7.2942,-22.642,23.374
6775.1,-42.933,-10.294,-22.642,24.374
6785.0,-43.933,-13.294,-20.642,24.374
6794.9,-49.933,-14.294,-20.642,24.374
6804.7,-52.933,-15.294,-22.642,24.374
6814.6,-55.933,-18.294,-22.642,24.374
6824.5,-60.933,-21.294,-20.642,25.374
6834.4,-66.933,-23.294,-20.642,25.374
6844.3,-71.933,-27.294,-19.642,28.374
6854.2,-76.933,-29.294,-19.642,28.374
6864.1,-81.933,-32.294,-20.642,27.374
6873.9,-86.933,-34.294,-20.642,27.374
6883.8,-87.933,-36.294,-20.642,28.374
6893.7,-93.933,-38.294,-20.642,28.374
6903.6,-95.933,-40.294,-23.642,28.374
6913.5,-98.933,-41.294,-23.642,28.374
6923.4,-100.93,-43.294,-28.642,27.374
6933.3,-105.93,-44.294,-28.642,27.374
6943.1,-110.93,-47.294,-29.642,27.374
6953.0,-111.93,-46.294,-29.642,27.374
6962.9,-114.93,-47.294,-32.642,28.374
6972.8,-115.93,-48.294,-32.642,28.374
6982.7,-114.93,-44.294,-36.642,26.374
6992.6,-114.93,-45.294,-36.642,26.374
7002.5,-113.93,-42.294,-39.642,24.374
7012.3,-108.93,-39.294,-40.642,24.374
7022.2,-106.93,-41.294,-42.642,25.374
7032.1,-105.93,-38.294,-41.642,24.374
7042.0,-106.93,-41.294,-42.642,25.374
7051.9,-102.93,-39.294,-37.642,24.374
7061.8,-101.93,-39.294,-33.642,26.374
7071.7,-101.93,-39.294,-28.642,26.374
7081.5,-101.93,-40.294,-22.642,27.374
7091.4,-100.93,-40.294,-20.642,27.374
7101.3,-103.93,-40.294,-14.642,27.374
7111.2,-103.93,-42.294,-11.642,29.374
7121.1,-106.93,-44.294,-8.6415,29.374
7131.0,-109.93,-45.294,-2.6415,30.374
7140.8,-112.93,-45.294,-2.6415,30.374
7150.7,-113.93,-48.294,0.35849,32.374
7160.6,-119.93,-53.294,4.3585,34.374
7170.5,-117.93,-50.294,5.3585,34.374
7180.4,-121.93,-52.294,5.3585,35.374
7190.3,-122.93,-53.294,4.3585,36.374
7200.2,-119.93,-51.294,3.3585,35.374
7210.1,-124.93,-52.294,3.3585,37.374
7219.9,-122.93,-52.294,3.3585,36.374
7229.8,-123.93,-52.294,0.35849,37.374
7239.7,-124.93,-52.294,-1.6415,35.374
7249.6,-125.93,-52.294,-3.6415,35.374
7259.5,-126.93,-52.294,-4.6415,34.374
7269.4,-125.93,-53.294,-6.6415,35.374
7279.2,-125.93,-53.294,-7.6415,33.374
7289.1,-126.93,-53.294,-7.6415,34.374
7299.0,-126.93,-53.294,-7.6415,34.374
7308.9,-131.93,-57.294,-8.6415,34.374
7318.8,-131.93,-57.294,-6.6415,33.374
7328.7,-135.93,-58.294,-10.642,33.374
7338.6,-135.93,-58.294,-9.6415,34.374
7348.5,-141.93,-60.294,-11.642,33.374
7358.3,-141.93,-60.294,-12.642,31.374
7368.2,-145.93,-63.294,-11.642,33.374
7378.1,-145.93,-63.294,-11.642,33.374
7388.0,-149.93,-65.294,-12.642,33.374
7397.9,-149.93,-65.294,-10.642,33.374
7407.8,-155.93,-68.294,-12.642,32.374
7417.6,-155.93,-68.294,-15.642,31.374
7427.5,-160.93,-69.294,-15.642,30.374
7437.4,-160.93,-69.294,-19.642,31.374
7447.3,-162.93,-70.294,-20.642,30.374
7457.2,-166.93,-72.294,-19.642,30.374
7467.1,-170.93,-75.294,-19.642,29.374
7477.0,-173.93,-76.294,-21.642,30.374
7486.8,-177.93,-78.294,-21.642,29.374
7496.7,-182.93,-81.294,-21.642,31.374
7506.6,-184.93,-82.294,-22.642,30.374
7516.5,-184.93,-81.294,-24.642,31.374
7526.4,-186.93,-80.294,-25.642,29.374
7536.3,-184.93,-78.294,-30.642,28.374
7546.2,-183.93,-78.294,-32.642,26.374
7556.0,-182.93,-75.294,-35.642,27.374
7565.9,-177.93,-72.294,-37.642,25.374
7575.8,-175.93,-71.294,-39.642,25.374
7585.7,-172.93,-71.294,-36.642,25.374
7595.6,-170.93,-69.294,-34.642,26.374
7605.5,-170.93,-69.294,-28.642,25.374
7615.4,-165.93,-68.294,-23.642,26.374
7625.2,-164.93,-67.294,-19.642,27.374
7635.1,-161.93,-67.294,-13.642,28.374
7645.0,-162.93,-68.294,-9.6415,28.374
7654.9,-162.93,-70.294,-3.6415,28.374
7664.8,-164.93,-70.294,-2.6415,28.374
7674.7,-165.93,-70.294,2.3585,30.374
7684.6,-164.93,-70.294,5.3585,31.374
7694.4,-166.93,-72.294,8.3585,32.374
7704.3,-165.93,-71.294,10.358,33.374
7714.2,-166.93,-72.294,13.358,33.374
7724.1,-170.93,-72.294,12.358,35.374
7734.0,-167.93,-71.294,10.358,33.374
7743.9,-173.93,-73.294,10.358,32.374
7753.8,-168.93,-70.294,12.358,33.374
7763.6,-167.93,-69.294,10.358,33.374
7773.5,-166.93,-69.294,9.3585,34.374
7783.4,-167.93,-70.294,5.3585,31.374
7793.3,-166.93,-70.294,3.3585,31.374
7803.2,-166.93,-69.294,1.3585,31.374
7813.1,-167.93,-70.294,0.35849,30.374
7823.0,-168.93,-70.294,0.35849,29.374
7832.8,-164.93,-67.294,0.35849,31.374
7842.7,-164.93,-69.294,2.3585,30.374
7852.6,-163.93,-68.294,1.3585,32.374
7862.5,-165.93,-68.294,4.3585,31.374
7872.4,-166.93,-68.294,0.35849,30.374
7882.3,-167.93,-70.294,0.35849,30.374
7892.2,-166.93,-69.294,-0.64151,27.374
7902.0,-168.93,-70.294,-0.64151,27.374
7911.9,-170.93,-70.294,-1.6415,27.374
7921.8,-170.93,-71.294,-1.6415,27.374
7931.7,-172.93,-71.294,-3.6415,26.374
7941.6,-172.93,-72.294,-3.6415,26.374
7951.5,-175.93,-73.294,-6.6415,27.374
7961.4,-175.93,-75.294,-6.6415,27.374
7971.2,-176.93,-74.294,-7.6415,26.374
7981.1,-179.93,-75.294,-7.6415,26.374
7991.0,-181.93,-77.294,-10.642,25.374
8000.9,-184.93,-79.294,-10.642,25.374
8010.8,-187.93,-79.294,-15.642,25.374
8020.7,-189.93,-80.294,-15.642,25.374
8030.6,-189.93,-81.294,-16.642,24.374
8040.4,-193.93,-85.294,-16.642,24.374
8050.3,-195.93,-85.294,-18.642,23.374
8060.2,-194.93,-83.294,-18.642,23.374
8070.1,-192.93,-81.294,-22.642,22.374
8080.0,-187.93,-78.294,-22.642,22.374
8089.9,-189.93,-78.294,-26.642,21.374
8099.8,-183.93,-74.294,-28.642,19.374
8109.6,-177.93,-70.294,-32.642,18.374
8119.5,-171.93,-69.294,-35.642,17.374
8129.4,-167.93,-66.294,-33.642,18.374
8139.3,-162.93,-65.294,-34.642,18.374
8149.2,-162.93,-65.294,-28.642,18.374
8159.1,-152.93,-61.294,-22.642,17.374
8169.0,-152.93,-61.294,-16.642,20.374
8178.8,-144.93,-59.294,-7.6415,18.374
8188.7,-144.93,-59.294,-3.6415,21.374
8198.6,-139.93,-57.294,1.3585,23.374
8208.5,-139.93,-57.294,5.3585,22.374
8218.4,-135.93,-55.294,9.3585,23.374
8228.3,-135.93,-55.294,13.358,24.374
8238.2,-130.93,-52.294,11.358,25.374
8248.0,-130.93,-52.294,15.358,26.374
8257.9,-124.93,-50.294,18.358,25.374
8267.8,-124.93,-50.294,20.358,26.374
8277.7,-121.93,-48.294,20.358,27.374
8287.6,-121.93,-48.294,21.358,27.374
8297.5,-120.93,-48.294,23.358,26.374
8307.4,-120.93,-48.294,20.358,27.374
8317.2,-114.93,-44.294,21.358,27.374
8327.1,-111.93,-44.294,19.358,27.374
8337.0,-110.93,-44.294,18.358,26.374
8346.9,-107.93,-42.294,15.358,24.374
8356.8,-107.93,-42.294,14.358,25.374
8366.7,-103.93,-40.294,11.358,25.374
8376.6,-103.93,-41.294,10.358,24.374
8386.4,-103.93,-40.294,11.358,23.374
8396.3,-97.933,-39.294,12.358,25.374
8406.2,-97.933,-40.294,13.358,26.374
8416.1,-94.933,-38.294,13.358,25.374
8426.0,-96.933,-39.294,13.358,23.374
8435.9,-94.933,-39.294,12.358,23.374
8445.8,-97.933,-37.294,7.3585,22.374
8455.6,-95.933,-37.294,8.3585,21.374
8465.5,-94.933,-36.294,8.3585,23.374
8475.4,-93.933,-36.294,9.3585,22.374
8485.3,-92.933,-35.294,8.3585,24.374
8495.2,-94.933,-37.294,8.3585,22.374
8505.1,-93.933,-37.294,7.3585,22.374
8515.0,-94.933,-37.294,5.3585,22.374
8524.8,-94.933,-38.294,6.3585,22.374
8534.7,-94.933,-37.294,3.3585,20.374
8544.6,-94.933,-39.294,2.3585,19.374
8554.5,-96.933,-38.294,-0.64151,18.374
8564.4,-98.933,-38.294,-4.6415,18.374
8574.3,-98.933,-39.294,-5.6415,16.374
8584.2,-97.933,-39.294,-7.6415,15.374
8594.0,-100.93,-40.294,-8.6415,16.374
8603.9,-103.93,-42.294,-7.6415,16.374
8613.8,-103.93,-41.294,-7.6415,17.374
8623.7,-102.93,-39.294,-9.6415,16.374
8633.6,-96.933,-35.294,-11.642,16.374
8643.5,-96.933,-34.294,-16.642,14.374
8653.4,-94.933,-34.294,-20.642,11.374
8663.2,-88.933,-29.294,-23.642,11.374
8673.1,-79.933,-25.294,-27.642,9.3738
8683.0,-76.933,-23.294,-27.642,9.3738
8692.9,-73.933,-21.294,-25.642,7.3738
8702.8,-65.933,-18.294,-22.642,8.3738
8712.7,-59.933,-17.294,-14.642,12.374
8722.6,-54.933,-15.294,-5.6415,12.374
8732.4,-51.933,-14.294,-1.6415,12.374
8742.3,-49.933,-13.294,7.3585,16.374
8752.2,-42.933,-10.294,11.358,15.374
8762.1,-39.933,-9.2942,15.358,16.374
8772.0,-37.933,-9.2942,18.358,17.374
8781.9,-34.933,-8.2942,20.358,16.374
8791.8,-33.933,-5.2942,22.358,16.374
8801.6,-27.933,-4.2942,25.358,16.374
8811.5,-23.933,-4.2942,25.358,16.374
8821.4,-23.933,-4.2942,27.358,18.374
8831.3,-24.933,-6.2942,28.358,17.374
8841.2,-19.933,-2.2942,29.358,19.374
8851.1,-20.933,-4.2942,31.358,18.374
8861.0,-21.933,-5.2942,29.358,18.374
8870.8,-14.933,-0.29416,30.358,19.374
8880.7,-12.933,1.7058,28.358,18.374
8890.6,-11.933,-0.29416,28.358,18.374
8900.5,-9.9335,-0.29416,23.358,17.374
8910.4,-9.9335,1.7058,23.358,17.374
8920.3,-6.9335,3.7058,22.358,17.374
8930.2,-5.9335,3.7058,22.358,17.374
8940.0,-4.9335,2.7058,21.358,17.374
8949.9,-2.9335,4.7058,21.358,17.374
8959.8,-0.9335,5.7058,24.358,17.374
8969.7,-3.9335,4.7058,24.358,17.374
8979.6,-3.9335,5.7058,21.358,17.374
8989.5,-5.9335,4.7058,21.358,17.374
8999.4,-1.9335,4.7058,22.358,16.374
9009.2,-0.9335,5.7058,22.358,16.374
9019.1,-0.9335,5.7058,18.358,14.374
9029.0,-1.9335,5.7058,18.358,14.374
9038.9,-1.9335,5.7058,18.358,15.374
9048.8,0.066504,4.7058,18.358,15.374
9058.7,0.066504,4.7058,18.358,15.374
9068.6,-0.9335,3.7058,18.358,15.374
9078.4,-0.9335,3.7058,14.358,15.374
9088.3,-3.9335,2.7058,14.358,15.374
9098.2,-3.9335,2.7058,13.358,15.374
9108.1,-7.9335,3.7058,12.358,15.374
9118.0,-7.9335,3.7058,11.358,14.374
9127.9,-8.9335,0.70584,9.3585,13.374
9137.8,-8.9335,0.70584,7.3585,13.374
9147.6,-10.933,0.70584,5.3585,12.374
9157.5,-10.933,0.70584,3.3585,11.374
9167.4,-14.933,-1.2942,0.35849,11.374
9177.3,-14.933,-1.2942,0.35849,11.374
9187.2,-15.933,-0.29416,0.35849,10.374
9197.1,-14.933,-1.2942,-0.64151,10.374
9207.0,-11.933,2.7058,-3.6415,10.374
9216.8,-11.933,2.7058,-6.6415,9.3738
9226.7,-9.9335,2.7058,-9.6415,8.3738
9236.6,-2.9335,9.7058,-12.642,7.3738
9246.5,4.0665,10.706,-15.642,5.3738
9256.4,5.0665,11.706,-16.642,6.3738
9266.3,8.0665,13.706,-15.642,2.3738
9276.2,14.067,14.706,-11.642,4.3738
9286.0,23.067,17.706,-5.6415,6.3738
9295.9,25.067,17.706,1.3585,7.3738
9305.8,29.067,19.706,7.3585,9.3738
9315.7,31.067,21.706,14.358,10.374
9325.6,35.067,22.706,18.358,10.374
9335.5,39.067,23.706,21.358,10.374
9345.4,39.067,23.706,24.358,12.374
9355.2,44.067,26.706,29.358,13.374
9365.1,44.067,25.706,29.358,12.374
9375.0,47.067,25.706,30.358,11.374
9384.9,51.067,27.706,33.358,11.374
9394.8,47.067,24.706,30.358,12.374
9404.7,48.067,25.706,33.358,13.374
9414.6,48.067,25.706,35.358,13.374
9424.4,47.067,25.706,35.358,14.374
9434.3,52.067,28.706,38.358,16.374
9444.2,53.067,28.706,33.358,14.374
9454.1,54.067,28.706,32.358,14.374
9464.0,55.067,27.706,30.358,14.374
9473.9,55.067,28.706,27.358,14.374
9483.8,56.067,29.706,26.358,12.374
9493.6,55.067,28.706,27.358,11.374
9503.5,57.067,28.706,25.358,11.374
9513.4,55.067,29.706,22.358,12.374
9523.3,60.067,29.706,24.358,12.374
9533.2,59.067,29.706,25.358,12.374
9543.1,56.067,28.706,25.358,11.374
9553.0,55.067,28.706,26.358,13.374
9562.8,55.067,27.706,27.358,11.374
9572.7,55.067,27.706,24.358,10.374
9582.6,56.067,28.706,25.358,10.374
9592.5,56.067,29.706,24.358,12.374
9602.4,56.067,28.706,24.358,11.374
9612.3,55.067,28.706,22.358,11.374
9622.2,55.067,28.706,21.358,10.374
9632.0,54.067,28.706,19.358,8.3738
9641.9,54.067,28.706,19.358,9.3738
9651.8,52.067,25.706,17.358,9.3738
9661.7,51.067,27.706,16.358,10.374
9671.6,50.067,27.706,15.358,9.3738
9681.5,48.067,27.706,13.358,7.3738
9691.3,47.067,27.706,10.358,6.3738
9701.2,46.067,25.706,9.3585,6.3738
9711.1,41.067,23.706,8.3585,6.3738
9721.0,43.067,25.706,7.3585,6.3738
9730.9,42.067,24.706,5.3585,6.3738
9740.8,38.067,21.706,3.3585,5.3738
9750.7,36.067,21.706,3.3585,5.3738
9760.6,37.067,24.706,2.3585,5.3738
9770.4,42.067,26.706,0.35849,3.3738
9780.3,42.067,28.706,-2.6415,5.3738
9790.2,43.067,30.706,-5.6415,3.3738
9800.1,46.067,33.706,-6.6415,3.3738
9810.0,52.067,36.706,-8.6415,3.3738
9819.9,57.067,37.706,-10.642,2.3738
9829.7,59.067,37.706,-13.642,1.3738
9839.6,64.067,40.706,-9.6415,-0.62615
9849.5,68.067,42.706,-6.6415,0.37385
9859.4,71.067,43.706,-1.6415,0.37385
9869.3,71.067,43.706,5.3585,3.3738
9879.2,77.067,46.706,11.358,4.3738
9889.1,77.067,46.706,16.358,5.3738
9899.0,84.067,47.706,20.358,4.3738
9908.8,84.067,47.706,21.358,6.3738
9918.7,88.067,49.706,26.358,5.3738
9928.6,88.067,49.706,29.358,7.3738
9938.5,91.067,49.706,29.358,7.3738
9948.4,91.067,49.706,32.358,6.3738
9958.3,91.067,48.706,32.358,6.3738
9968.1,91.067,48.706,37.358,11.374
9978.0,89.067,46.706,37.358,11.374
9987.9,89.067,46.706,37.358,11.374
9997.8,87.067,45.706,37.358,11.374
10008.0,87.067,45.706,38.358,12.374
10018.0,90.067,48.706,38.358,12.374
10028.0,90.067,48.706,35.358,10.374
10037.0,90.067,48.706,35.358,10.374
10047.0,90.067,47.706,32.358,9.3738
10057.0,89.067,47.706,32.358,9.3738
10067.0,90.067,46.706,29.358,8.3738
10077.0,86.067,45.706,29.358,8.3738
10087.0,86.067,45.706,31.358,9.3738
10097.0,87.067,43.706,31.358,9.3738
10107.0,84.067,43.706,30.358,10.374
10116.0,81.067,41.706,30.358,10.374
10126.0,78.067,40.706,32.358,11.374
10136.0,77.067,38.706,32.358,11.374
10146.0,75.067,37.706,31.358,11.374
10156.0,73.067,36.706,31.358,11.374
10166.0,71.067,36.706,31.358,10.374
10176.0,67.067,32.706,31.358,10.374
10186.0,64.067,32.706,30.358,9.3738
10196.0,63.067,31.706,30.358,11.374
10205.0,59.067,29.706,29.358,11.374
10215.0,55.067,27.706,27.358,9.3738
10225.0,53.067,27.706,28.358,10.374
10235.0,50.067,24.706,26.358,10.374
10245.0,47.067,22.706,25.358,10.374
10255.0,43.067,19.706,25.358,10.374
10265.0,41.067,19.706,21.358,8.3738
10275.0,38.067,17.706,21.358,8.3738
10285.0,34.067,15.706,20.358,7.3738
10294.0,32.067,13.706,19.358,7.3738
10304.0,26.067,12.706,17.358,7.3738
10314.0,23.067,11.706,16.358,6.3738
10324.0,17.067,6.7058,16.358,7.3738
10334.0,12.067,2.7058,17.358,9.3738
10344.0,8.0665,3.7058,15.358,8.3738
10354.0,7.0665,2.7058,13.358,8.3738
10364.0,8.0665,2.7058,12.358,6.3738
10374.0,7.0665,2.7058,8.3585,6.3738
10383.0,3.0665,2.7058,3.3585,5.3738
10393.0,6.0665,5.7058,2.3585,4.3738
10403.0,9.0665,6.7058,0.35849,3.3738
10413.0,9.0665,7.7058,0.35849,4.3738
10423.0,14.067,8.7058,-1.6415,3.3738
10433.0,17.067,8.7058,-0.64151,3.3738
10443.0,14.067,9.7058,4.3585,4.3738
10453.0,15.067,8.7058,10.358,5.3738
10462.0,18.067,7.7058,17.358,5.3738
10472.0,17.067,6.7058,23.358,7.3738
10482.0,18.067,7.7058,28.358,7.3738
10492.0,21.067,7.7058,32.358,7.3738
10502.0,20.067,4.7058,34.358,7.3738
10512.0,19.067,7.7058,34.358,8.3738
10522.0,19.067,5.7058,39.358,9.3738
10532.0,15.067,3.7058,42.358,11.374
10542.0,15.067,4.7058,45.358,11.374
10551.0,10.067,-0.29416,50.358,13.374
10561.0,11.067,1.7058,53.358,15.374
10571.0,9.0665,0.70584,52.358,16.374
10581.0,4.0665,-3.2942,51.358,16.374
10591.0,7.0665,0.70584,51.358,18.374
10601.0,8.0665,0.70584,49.358,15.374
10611.0,6.0665,-3.2942,46.358,14.374
10621.0,1.0665,-2.2942,44.358,15.374
10631.0,5.0665,-2.2942,42.358,14.374
10640.0,5.0665,-3.2942,39.358,13.374
10650.0,5.0665,-2.2942,40.358,14.374
10660.0,2.0665,-3.2942,40.358,13.374
10670.0,1.0665,-4.2942,40.358,15.374
10680.0,1.0665,-2.2942,40.358,14.374
10690.0,-2.9335,-5.2942,40.358,11.374
10700.0,-4.9335,-8.2942,40.358,14.374
10710.0,-7.9335,-9.2942,39.358,13.374
10720.0,-9.9335,-14.294,40.358,14.374
10729.0,-12.933,-15.294,39.358,13.374
10739.0,-12.933,-15.294,39.358,13.374
10749.0,-17.933,-17.294,40.358,12.374
10759.0,-17.933,-17.294,40.358,15.374
10769.0,-23.933,-21.294,40.358,16.374
10779.0,-23.933,-21.294,40.358,15.374
10789.0,-30.933,-24.294,38.358,15.374
10799.0,-30.933,-24.294,39.358,15.374
10808.0,-36.933,-28.294,36.358,14.374
10818.0,-36.933,-28.294,35.358,14.374
10828.0,-44.933,-31.294,32.358,13.374
10838.0,-44.933,-31.294,32.358,13.374
10848.0,-48.933,-33.294,31.358,13.374
10858.0,-48.933,-33.294,31.358,13.374
10868.0,-53.933,-36.294,29.358,12.374
10878.0,-53.933,-36.294,28.358,13.374
10888.0,-61.933,-41.294,27.358,11.374
10897.0,-61.933,-41.294,23.358,10.374
10907.0,-65.933,-43.294,20.358,9.3738
10917.0,-73.933,-46.294,20.358,8.3738
10927.0,-73.933,-48.294,18.358,9.3738
10937.0,-71.933,-46.294,17.358,8.3738
10947.0,-71.933,-45.294,13.358,7.3738
10957.0,-70.933,-43.294,10.358,6.3738
10967.0,-70.933,-42.294,10.358,6.3738
10977.0,-66.933,-39.294,7.3585,5.3738
10986.0,-61.933,-36.294,3.3585,5.3738
10996.0,-59.933,-36.294,4.3585,5.3738
11006.0,-56.933,-35.294,3.3585,3.3738
11016.0,-53.933,-32.294,8.3585,4.3738
11026.0,-48.933,-33.294,14.358,4.3738
11036.0,-45.933,-29.294,19.358,5.3738
11046.0,-40.933,-29.294,19.358,5.3738
11056.0,-36.933,-28.294,29.358,6.3738
11066.0,-35.933,-27.294,29.358,6.3738
11075.0,-33.933,-28.294,36.358,7.3738
11085.0,-33.933,-28.294,36.358,7.3738
11095.0,-32.933,-29.294,42.358,8.3738
11105.0,-31.933,-27.294,42.358,8.3738
11115.0,-31.933,-28.294,46.358,9.3738
11125.0,-28.933,-26.294,46.358,9.3738
11135.0,-26.933,-26.294,48.358,10.374
11145.0,-29.933,-27.294,48.358,10.374
11154.0,-25.933,-25.294,50.358,12.374
11164.0,-28.933,-27.294,50.358,12.374
11174.0,-29.933,-27.294,51.358,12.374
11184.0,-24.933,-24.294,51.358,12.374
11194.0,-24.933,-24.294,46.358,11.374
11204.0,-25.933,-24.294,46.358,11.374
11214.0,-24.933,-24.294,43.358,10.374
11224.0,-22.933,-24.294,43.358,10.374
11234.0,-25.933,-23.294,39.358,8.3738
11243.0,-21.933,-23.294,39.358,8.3738
11253.0,-23.933,-23.294,39.358,8.3738
11263.0,-22.933,-22.294,39.358,8.3738
11273.0,-21.933,-22.294,39.358,7.3738
11283.0,-23.933,-23.294,38.358,8.3738
11293.0,-23.933,-23.294,37.358,9.3738
11303.0,-24.933,-24.294,39.358,6.3738
11313.0,-23.933,-24.294,38.358,9.3738
11323.0,-24.933,-24.294,36.358,7.3738
11332.0,-26.933,-24.294,34.358,6.3738
11342.0,-26.933,-25.294,32.358,6.3738
11352.0,-27.933,-26.294,30.358,5.3738
11362.0,-24.933,-24.294,30.358,5.3738
11372.0,-28.933,-25.294,30.358,6.3738
11382.0,-29.933,-27.294,30.358,5.3738
11392.0,-30.933,-25.294,30.358,6.3738
11402.0,-32.933,-27.294,28.358,6.3738
11412.0,-35.933,-29.294,26.358,5.3738
11421.0,-36.933,-31.294,26.358,4.3738
11431.0,-38.933,-31.294,22.358,3.3738
11441.0,-38.933,-31.294,21.358,2.3738
11451.0,-40.933,-34.294,16.358,2.3738
11461.0,-43.933,-35.294,14.358,1.3738
11471.0,-43.933,-34.294,13.358,0.37385
11481.0,-43.933,-34.294,12.358,-0.62615
11491.0,-52.933,-37.294,9.3585,-1.6262
11500.0,-49.933,-34.294,7.3585,-0.62615
11510.0,-47.933,-34.294,7.3585,-0.62615
11520.0,-41.933,-29.294,6.3585,-0.62615
11530.0,-38.933,-27.294,5.3585,-1.6262
11540.0,-39.933,-26.294,1.3585,-2.6262
11550.0,-30.933,-21.294,-3.6415,-4.6262
11560.0,-26.933,-19.294,-6.6415,-6.6262
11570.0,-23.933,-18.294,-9.6415,-7.6262
11580.0,-22.933,-18.294,-11.642,-8.6262
11589.0,-18.933,-17.294,-8.6415,-7.6262
11599.0,-11.933,-15.294,-3.6415,-7.6262
11609.0,-11.933,-15.294,1.3585,-6.6262
11619.0,-7.9335,-13.294,10.358,-4.6262
11629.0,-7.9335,-13.294,16.358,-4.6262
11639.0,-1.9335,-15.294,21.358,-3.6262
11649.0,-1.9335,-15.294,24.358,-2.6262
11659.0,2.0665,-12.294,28.358,-2.6262
11669.0,2.0665,-12.294,29.358,-2.6262
11678.0,6.0665,-10.294,33.358,-2.6262
11688.0,6.0665,-10.294,33.358,-3.6262
11698.0,8.0665,-8.2942,35.358,-2.6262
11708.0,8.0665,-8.2942,38.358,-0.62615
11718.0,4.0665,-11.294,39.358,-0.62615
11728.0,4.0665,-11.294,40.358,0.37385
11738.0,7.0665,-10.294,40.358,-1.6262
11748.0,7.0665,-10.294,40.358,0.37385
11758.0,8.0665,-8.2942,42.358,0.37385
11767.0,8.0665,-8.2942,39.358,0.37385
11777.0,10.067,-7.2942,36.358,-0.62615
11787.0,9.0665,-7.2942,32.358,-1.6262
11797.0,10.067,-6.2942,30.358,-3.6262
11807.0,12.067,-5.2942,30.358,-3.6262
11817.0,12.067,-6.2942,31.358,-3.6262
11827.0,13.067,-6.2942,33.358,-0.62615
11837.0,13.067,-8.2942,32.358,-2.6262
11846.0,14.067,-6.2942,31.358,-3.6262
11856.0,13.067,-6.2942,29.358,-3.6262
11866.0,15.067,-6.2942,30.358,-5.6262
11876.0,15.067,-5.2942,28.358,-4.6262
11886.0,13.067,-6.2942,24.358,-5.6262
11896.0,12.067,-6.2942,24.358,-8.6262
11906.0,10.067,-8.2942,22.358,-7.6262
11916.0,6.0665,-8.2942,21.358,-8.6262
11926.0,7.0665,-9.2942,21.358,-7.6262
11935.0,5.0665,-9.2942,21.358,-7.6262
11945.0,8.0665,-9.2942,20.358,-7.6262
11955.0,4.0665,-10.294,20.358,-6.6262
11965.0,4.0665,-11.294,18.358,-7.6262
11975.0,3.0665,-9.2942,16.358,-8.6262
11985.0,0.066504,-12.294,14.358,-9.6262
11995.0,-1.9335,-12.294,12.358,-10.626
12005.0,-2.9335,-13.294,10.358,-10.626
12015.0,-4.9335,-13.294,9.3585,-11.626
12024.0,-4.9335,-15.294,5.3585,-12.626
12034.0,-9.9335,-17.294,4.3585,-12.626
12044.0,-12.933,-18.294,3.3585,-13.626
12054.0,-13.933,-18.294,-0.64151,-13.626
12064.0,-14.933,-19.294,1.3585,-14.626
12074.0,-19.933,-20.294,-1.6415,-13.626
12084.0,-19.933,-21.294,-4.6415,-15.626
12094.0,-19.933,-20.294,-4.6415,-15.626
12104.0,-17.933,-18.294,-10.642,-16.626
12113.0,-13.933,-15.294,-10.642,-16.626
12123.0,-14.933,-14.294,-14.642,-17.626
12133.0,-9.9335,-11.294,-14.642,-17.626
12143.0,-3.9335,-8.2942,-19.642,-18.626
12153.0,-2.9335,-8.2942,-19.642,-18.626
12163.0,0.066504,-7.2942,-19.642,-21.626
12173.0,4.0665,-4.2942,-19.642,-21.626
12183.0,9.0665,-2.2942,-11.642,-20.626
12192.0,13.067,-2.2942,-11.642,-20.626
12202.0,16.067,-0.29416,6.3585,-17.626
12212.0,17.067,-1.2942,6.3585,-17.626
12222.0,18.067,-0.29416,14.358,-16.626
12232.0,21.067,-0.29416,14.358,-16.626
12242.0,22.067,-0.29416,19.358,-15.626
12252.0,24.067,-2.2942,19.358,-15.626
12262.0,24.067,1.7058,21.358,-16.626
12272.0,27.067,0.70584,21.358,-16.626
12281.0,27.067,3.7058,23.358,-14.626
12291.0,30.067,2.7058,23.358,-14.626
12301.0,27.067,0.70584,29.358,-13.626
12311.0,30.067,2.7058,29.358,-13.626
12321.0,33.067,2.7058,30.358,-12.626
12331.0,28.067,0.70584,30.358,-12.626
12341.0,34.067,4.7058,29.358,-11.626
12351.0,35.067,5.7058,29.358,-11.626
12361.0,34.067,4.7058,28.358,-11.626
12370.0,34.067,4.7058,25.358,-11.626
12380.0,36.067,5.7058,22.358,-12.626
12390.0,37.067,5.7058,22.358,-14.626
12400.0,37.067,6.7058,19.358,-14.626
12410.0,36.067,6.7058,20.358,-14.626
12420.0,36.067,6.7058,22.358,-12.626
12430.0,36.067,5.7058,22.358,-13.626
12440.0,35.067,6.7058,19.358,-14.626
12450.0,35.067,6.7058,15.358,-16.626
12459.0,36.067,4.7058,18.358,-14.626
12469.0,32.067,5.7058,17.358,-15.626
12479.0,32.067,5.7058,16.358,-15.626
12489.0,32.067,4.7058,16.358,-15.626
12499.0,32.067,4.7058,15.358,-15.626
12509.0,28.067,1.7058,14.358,-16.626
12519.0,28.067,1.7058,15.358,-14.626
12529.0,25.067,1.7058,13.358,-17.626
12538.0,25.067,1.7058,12.358,-15.626
12548.0,24.067,0.70584,8.3585,-15.626
12558.0,24.067,0.70584,9.3585,-16.626
12568.0,20.067,-1.2942,7.3585,-17.626
12578.0,20.067,-1.2942,6.3585,-18.626
12588.0,17.067,-1.2942,4.3585,-18.626
12598.0,17.067,-1.2942,2.3585,-17.626
12608.0,15.067,-4.2942,0.35849,-18.626
12618.0,15.067,-4.2942,-0.64151,-21.626
12627.0,7.0665,-6.2942,-2.6415,-17.626
12637.0,7.0665,-6.2942,-4.6415,-19.626
12647.0,7.0665,-6.2942,-6.6415,-21.626
12657.0,4.0665,-9.2942,-9.6415,-21.626
12667.0,-0.9335,-10.294,-7.6415,-21.626
12677.0,-1.9335,-11.294,-8.6415,-19.626
12687.0,-2.9335,-10.294,-12.642,-20.626
12697.0,1.0665,-8.2942,-15.642,-21.626
12707.0,4.0665,-4.2942,-18.642,-22.626
12716.0,2.0665,-4.2942,-22.642,-23.626
12726.0,9.0665,-1.2942,-23.642,-24.626
12736.0,14.067,3.7058,-26.642,-26.626
12746.0,15.067,2.7058,-27.642,-26.626
12756.0,20.067,6.7058,-27.642,-26.626
12766.0,24.067,7.7058,-23.642,-27.626
12776.0,30.067,11.706,-18.642,-25.626
12786.0,32.067,9.7058,-10.642,-24.626
12795.0,32.067,9.7058,-3.6415,-22.626
12805.0,34.067,9.7058,1.3585,-21.626
12815.0,34.067,9.7058,5.3585,-19.626
12825.0,39.067,11.706,10.358,-20.626
12835.0,39.067,11.706,12.358,-20.626
12845.0,40.067,12.706,15.358,-20.626
12855.0,39.067,11.706,15.358,-19.626
12865.0,41.067,13.706,17.358,-19.626
12875.0,43.067,12.706,15.358,-18.626
12884.0,42.067,12.706,17.358,-19.626
12894.0,38.067,10.706,20.358,-15.626
12904.0,42.067,12.706,20.358,-15.626
12914.0,39.067,9.7058,22.358,-14.626
12924.0,38.067,11.706,20.358,-13.626
12934.0,41.067,12.706,20.358,-14.626
12944.0,40.067,12.706,20.358,-15.626
12954.0,39.067,11.706,16.358,-13.626
12964.0,38.067,11.706,13.358,-14.626
12973.0,37.067,11.706,11.358,-15.626
12983.0,41.067,11.706,10.358,-14.626
12993.0,38.067,11.706,11.358,-15.626
13003.0,40.067,11.706,9.3585,-15.626
13013.0,40.067,12.706,9.3585,-16.626
13023.0,38.067,10.706,12.358,-14.626
13033.0,37.067,12.706,8.3585,-15.626
13043.0,38.067,10.706,8.3585,-14.626
13053.0,37.067,10.706,8.3585,-16.626
13062.0,35.067,9.7058,6.3585,-16.626
13072.0,35.067,11.706,6.3585,-16.626
13082.0,35.067,10.706,6.3585,-17.626
13092.0,33.067,11.706,5.3585,-17.626
13102.0,33.067,9.7058,5.3585,-16.626
13112.0,31.067,10.706,3.3585,-16.626
13122.0,32.067,9.7058,2.3585,-16.626
13132.0,30.067,11.706,2.3585,-16.626
13141.0,28.067,9.7058,-1.6415,-18.626
13151.0,25.067,10.706,-2.6415,-18.626
13161.0,25.067,7.7058,-2.6415,-18.626
13171.0,22.067,7.7058,-4.6415,-18.626
13181.0,22.067,7.7058,-4.6415,-18.626
13191.0,19.067,7.7058,-7.6415,-20.626
13201.0,17.067,6.7058,-7.6415,-20.626
13211.0,13.067,4.7058,-14.642,-21.626
13221.0,9.0665,2.7058,-14.642,-21.626
13230.0,8.0665,3.7058,-15.642,-20.626
13240.0,10.067,3.7058,-15.642,-20.626
13250.0,2.0665,-0.29416,-16.642,-20.626
13260.0,-0.9335,-1.2942,-16.642,-20.626
13270.0,-1.9335,0.70584,-22.642,-21.626
13280.0,0.066504,2.7058,-22.642,-21.626
13290.0,2.0665,6.7058,-31.642,-25.626
13300.0,4.0665,6.7058,-31.642,-25.626
13310.0,6.0665,8.7058,-34.642,-26.626
13319.0,14.067,13.706,-34.642,-26.626
13329.0,16.067,14.706,-36.642,-25.626
13339.0,20.067,14.706,-36.642,-25.626
13349.0,20.067,14.706,-36.642,-28.626
13359.0,29.067,18.706,-36.642,-28.626
13369.0,29.067,18.706,-32.642,-28.626
13379.0,34.067,20.706,-27.642,-28.626
13389.0,34.067,20.706,-17.642,-25.626
13399.0,35.067,21.706,-11.642,-24.626
13408.0,35.067,21.706,-6.6415,-23.626
13418.0,38.067,22.706,-5.6415,-24.626
13428.0,38.067,22.706,-2.6415,-22.626
13438.0,39.067,20.706,0.35849,-23.626
13448.0,39.067,20.706,3.3585,-21.626
13458.0,37.067,20.706,5.3585,-22.626
13468.0,37.067,20.706,5.3585,-21.626
13478.0,32.067,16.706,7.3585,-20.626
13487.0,32.067,16.706,9.3585,-18.626
13497.0,31.067,17.706,11.358,-18.626
13507.0,31.067,17.706,9.3585,-17.626
13517.0,34.067,18.706,7.3585,-16.626
13527.0,34.067,18.706,5.3585,-17.626
13537.0,32.067,18.706,5.3585,-18.626
13547.0,31.067,18.706,2.3585,-18.626
13557.0,29.067,17.706,1.3585,-19.626
13567.0,30.067,17.706,-0.64151,-20.626
13576.0,29.067,15.706,-1.6415,-20.626
13586.0,27.067,17.706,-0.64151,-20.626
13596.0,28.067,16.706,-4.6415,-20.626
13606.0,28.067,18.706,-2.6415,-20.626
13616.0,26.067,16.706,-2.6415,-19.626
13626.0,26.067,16.706,-0.64151,-20.626
13636.0,23.067,16.706,-3.6415,-19.626
13646.0,22.067,14.706,-5.6415,-22.626
13656.0,19.067,13.706,-7.6415,-21.626
13665.0,16.067,11.706,-6.6415,-22.626
13675.0,15.067,11.706,-7.6415,-22.626
13685.0,12.067,9.7058,-4.6415,-21.626
13695.0,9.0665,8.7058,-6.6415,-20.626
13705.0,7.0665,6.7058,-2.6415,-19.626
13715.0,5.0665,5.7058,-4.6415,-19.626
13725.0,0.066504,2.7058,-9.6415,-19.626
13735.0,-3.9335,2.7058,-6.6415,-19.626
13745.0,-7.9335,-0.29416,-11.642,-20.626
13754.0,-12.933,-1.2942,-9.6415,-20.626
13764.0,-14.933,-3.2942,-13.642,-20.626
13774.0,-14.933,-3.2942,-14.642,-22.626
13784.0,-21.933,-6.2942,-17.642,-22.626
13794.0,-27.933,-8.2942,-17.642,-22.626
13804.0,-29.933,-11.294,-19.642,-22.626
13814.0,-34.933,-11.294,-20.642,-22.626
13824.0,-37.933,-14.294,-21.642,-23.626
13833.0,-44.933,-16.294,-21.642,-23.626
13843.0,-51.933,-20.294,-22.642,-23.626
13853.0,-54.933,-22.294,-24.642,-24.626
13863.0,-55.933,-23.294,-25.642,-21.626
13873.0,-58.933,-24.294,-23.642,-23.626
13883.0,-60.933,-23.294,-24.642,-22.626
13893.0,-59.933,-21.294,-29.642,-23.626
13903.0,-59.933,-21.294,-32.642,-24.626
13913.0,-56.933,-19.294,-35.642,-23.626
13922.0,-52.933,-16.294,-36.642,-26.626
13932.0,-49.933,-15.294,-38.642,-25.626
13942.0,-46.933,-14.294,-35.642,-25.626
13952.0,-47.933,-14.294,-33.642,-23.626
13962.0,-45.933,-14.294,-27.642,-23.626
13972.0,-43.933,-13.294,-21.642,-21.626
13982.0,-43.933,-15.294,-16.642,-21.626
13992.0,-45.933,-16.294,-10.642,-19.626
14002.0,-48.933,-17.294,-5.6415,-19.626
14011.0,-48.933,-16.294,-1.6415,-19.626
14021.0,-48.933,-18.294,1.3585,-19.626
14031.0,-51.933,-19.294,2.3585,-18.626
14041.0,-51.933,-21.294,5.3585,-19.626
14051.0,-53.933,-20.294,7.3585,-17.626
14061.0,-55.933,-24.294,7.3585,-15.626
14071.0,-60.933,-26.294,12.358,-13.626
14081.0,-56.933,-24.294,12.358,-12.626
14091.0,-64.933,-29.294,11.358,-12.626
14100.0,-62.933,-26.294,12.358,-12.626
14110.0,-62.933,-24.294,7.3585,-13.626
14120.0,-65.933,-27.294,5.3585,-13.626
14130.0,-67.933,-27.294,3.3585,-14.626
14140.0,-67.933,-27.294,2.3585,-15.626
14150.0,-68.933,-27.294,0.35849,-16.626
14160.0,-68.933,-27.294,-2.6415,-16.626
14170.0,-69.933,-28.294,-2.6415,-16.626
14179.0,-70.933,-27.294,-2.6415,-14.626
14189.0,-67.933,-27.294,-2.6415,-14.626
14199.0,-70.933,-28.294,-0.64151,-15.626
14209.0,-70.933,-29.294,-0.64151,-15.626
14219.0,-70.933,-29.294,-1.6415,-13.626
14229.0,-78.933,-32.294,-1.6415,-13.626
14239.0,-78.933,-32.294,-2.6415,-15.626
14249.0,-83.933,-35.294,-2.6415,-15.626
14259.0,-83.933,-35.294,-0.64151,-14.626
14268.0,-88.933,-37.294,-0.64151,-14.626
14278.0,-88.933,-37.294,0.35849,-12.626
14288.0,-91.933,-39.294,0.35849,-12.626
14298.0,-91.933,-39.294,-2.6415,-12.626
14308.0,-95.933,-40.294,-2.6415,-12.626
14318.0,-95.933,-40.294,-1.6415,-13.626
14328.0,-105.93,-44.294,-1.6415,-13.626
14338.0,-105.93,-44.294,-5.6415,-13.626
14348.0,-109.93,-46.294,-5.6415,-13.626
14357.0,-109.93,-46.294,-7.6415,-14.626
14367.0,-117.93,-51.294,-7.6415,-14.626
14377.0,-117.93,-51.294,-7.6415,-13.626
14387.0,-122.93,-51.294,-7.6415,-13.626
14397.0,-127.93,-55.294,-12.642,-14.626
14407.0,-129.93,-55.294,-12.642,-16.626
14417.0,-132.93,-58.294,-13.642,-15.626
14427.0,-139.93,-61.294,-15.642,-15.626
14437.0,-143.93,-62.294,-14.642,-16.626
14446.0,-146.93,-62.294,-14.642,-15.626
14456.0,-145.93,-61.294,-17.642,-14.626
14466.0,-142.93,-59.294,-21.642,-16.626
14476.0,-143.93,-58.294,-23.642,-17.626
14486.0,-141.93,-58.294,-25.642,-18.626
14496.0,-136.93,-52.294,-27.642,-18.626
14506.0,-132.93,-51.294,-27.642,-18.626
14516.0,-129.93,-51.294,-28.642,-18.626
14525.0,-128.93,-49.294,-26.642,-18.626
14535.0,-126.93,-49.294,-23.642,-19.626
14545.0,-121.93,-48.294,-17.642,-16.626
14555.0,-118.93,-47.294,-11.642,-16.626
14565.0,-117.93,-47.294,-7.6415,-16.626
14575.0,-118.93,-48.294,-0.64151,-15.626
14585.0,-116.93,-46.294,3.3585,-13.626
14595.0,-114.93,-50.294,8.3585,-12.626
14605.0,-116.93,-51.294,10.358,-13.626
14614.0,-115.93,-48.294,14.358,-12.626
14624.0,-113.93,-49.294,16.358,-12.626
14634.0,-114.93,-48.294,18.358,-11.626
14644.0,-113.93,-47.294,20.358,-11.626
14654.0,-115.93,-50.294,23.358,-9.6262
14664.0,-113.93,-48.294,23.358,-8.6262
14674.0,-113.93,-49.294,24.358,-8.6262
14684.0,-117.93,-52.294,22.358,-8.6262
14694.0,-110.93,-48.294,20.358,-8.6262
14703.0,-112.93,-48.294,19.358,-9.6262
14713.0,-109.93,-45.294,16.358,-9.6262
14723.0,-110.93,-47.294,13.358,-9.6262
14733.0,-108.93,-44.294,9.3585,-11.626
14743.0,-103.93,-44.294,11.358,-10.626
14753.0,-102.93,-44.294,10.358,-11.626
14763.0,-103.93,-44.294,11.358,-9.6262
14773.0,-102.93,-44.294,6.3585,-10.626
14783.0,-100.93,-45.294,9.3585,-10.626
14792.0,-102.93,-45.294,8.3585,-9.6262
14802.0,-104.93,-43.294,8.3585,-9.6262
14812.0,-104.93,-46.294,8.3585,-9.6262
14822.0,-103.93,-45.294,9.3585,-10.626
14832.0,-102.93,-44.294,6.3585,-10.626
14842.0,-101.93,-44.294,3.3585,-11.626
14852.0,-103.93,-45.294,6.3585,-12.626
14862.0,-103.93,-46.294,6.3585,-11.626
14871.0,-107.93,-47.294,3.3585,-10.626
14881.0,-109.93,-49.294,3.3585,-11.626
14891.0,-110.93,-49.294,0.35849,-11.626
14901.0,-113.93,-51.294,1.3585,-13.626
14911.0,-114.93,-51.294,-2.6415,-12.626
14921.0,-115.93,-51.294,-5.6415,-13.626
14931.0,-115.93,-52.294,-6.6415,-13.626
14941.0,-116.93,-51.294,-11.642,-15.626
14951.0,-120.93,-54.294,-11.642,-16.626
14960.0,-123.93,-56.294,-11.642,-15.626
14970.0,-121.93,-55.294,-15.642,-16.626
14980.0,-122.93,-55.294,-15.642,-16.626
14990.0,-125.93,-56.294,-17.642,-16.626
15000.0,-126.93,-57.294,-19.642,-15.626
15010.0,-125.93,-55.294,-21.642,-15.626
15020.0,-121.93,-53.294,-22.642,-15.626
15030.0,-115.93,-47.294,-25.642,-17.626
15040.0,-115.93,-48.294,-31.642,-19.626
15049.0,-111.93,-44.294,-33.642,-20.626
15059.0,-101.93,-39.294,-37.642,-24.626
15069.0,-94.933,-37.294,-39.642,-23.626
15079.0,-86.933,-33.294,-42.642,-25.626
15089.0,-86.933,-33.294,-41.642,-24.626
15099.0,-68.933,-26.294,-37.642,-24.626
15109.0,-68.933,-26.294,-30.642,-25.626
15119.0,-53.933,-22.294,-22.642,-21.626
15129.0,-53.933,-22.294,-15.642,-19.626
15138.0,-42.933,-17.294,-6.6415,-17.626
15148.0,-42.933,-17.294,-2.6415,-17.626
15158.0,-36.933,-16.294,2.3585,-16.626
15168.0,-36.933,-16.294,4.3585,-14.626
15178.0,-32.933,-14.294,5.3585,-16.626
15188.0,-32.933,-14.294,7.3585,-15.626
15198.0,-22.933,-9.2942,9.3585,-16.626
15208.0,-22.933,-9.2942,12.358,-15.626
15217.0,-16.933,-7.2942,12.358,-14.626
15227.0,-16.933,-7.2942,13.358,-15.626
15237.0,-12.933,-4.2942,15.358,-12.626
15247.0,-12.933,-4.2942,13.358,-12.626
15257.0,-13.933,-7.2942,14.358,-12.626
15267.0,-10.933,-5.2942,12.358,-11.626
15277.0,-4.9335,-3.2942,12.358,-11.626
15287.0,-4.9335,-1.2942,8.3585,-12.626
15297.0,-2.9335,-2.2942,8.3585,-12.626
15306.0,-2.9335,-1.2942,1.3585,-16.626
15316.0,1.0665,-1.2942,1.3585,-16.626
15326.0,2.0665,1.7058,-0.64151,-16.626
15336.0,3.0665,-0.29416,-0.64151,-16.626
15346.0,3.0665,0.70584,3.3585,-15.626
15356.0,5.0665,0.70584,3.3585,-15.626
15366.0,7.0665,1.7058,4.3585,-14.626
15376.0,8.0665,1.7058,4.3585,-14.626
15386.0,7.0665,1.7058,1.3585,-14.626
15395.0,7.0665,2.7058,1.3585,-14.626
15405.0,7.0665,1.7058,-0.64151,-17.626
15415.0,9.0665,2.7058,-0.64151,-17.626
15425.0,9.0665,1.7058,-4.6415,-15.626
15435.0,8.0665,0.70584,-4.6415,-15.626
15445.0,9.0665,2.7058,-4.6415,-15.626
15455.0,10.067,1.7058,-4.6415,-15.626
15465.0,10.067,1.7058,-5.6415,-16.626
15475.0,7.0665,0.70584,-5.6415,-16.626
15484.0,7.0665,1.7058,-6.6415,-16.626
15494.0,6.0665,0.70584,-5.6415,-17.626
15504.0,4.0665,1.7058,-6.6415,-15.626
15514.0,5.0665,1.7058,-9.6415,-18.626
15524.0,5.0665,0.70584,-11.642,-18.626
15534.0,4.0665,-0.29416,-15.642,-21.626
15544.0,6.0665,0.70584,-16.642,-21.626
15554.0,6.0665,0.70584,-16.642,-21.626
15563.0,8.0665,0.70584,-18.642,-21.626
15573.0,6.0665,0.70584,-19.642,-20.626
15583.0,5.0665,0.70584,-16.642,-19.626
15593.0,9.0665,2.7058,-20.642,-20.626
15603.0,16.067,7.7058,-24.642,-20.626
15613.0,18.067,9.7058,-24.642,-21.626
15623.0,21.067,10.706,-26.642,-22.626
15633.0,26.067,14.706,-32.642,-24.626
15643.0,34.067,16.706,-34.642,-24.626
15652.0,39.067,20.706,-37.642,-25.626
15662.0,44.067,21.706,-35.642,-26.626
15672.0,51.067,24.706,-31.642,-25.626
15682.0,59.067,27.706,-26.642,-24.626
15692.0,64.067,27.706,-21.642,-24.626
15702.0,70.067,29.706,-13.642,-21.626
15712.0,73.067,31.706,-7.6415,-20.626
15722.0,77.067,32.706,-1.6415,-19.626
15732.0,80.067,32.706,6.3585,-17.626
15741.0,81.067,32.706,8.3585,-17.626
15751.0,84.067,34.706,12.358,-16.626
15761.0,85.067,33.706,15.358,-15.626
15771.0,87.067,34.706,18.358,-15.626
15781.0,85.067,33.706,21.358,-13.626
15791.0,87.067,32.706,23.358,-13.626
15801.0,83.067,29.706,22.358,-14.626
15811.0,87.067,34.706,24.358,-12.626
15821.0,88.067,33.706,25.358,-12.626
15830.0,85.067,31.706,24.358,-10.626
15840.0,88.067,34.706,27.358,-11.626
15850.0,87.067,32.706,25.358,-9.6262
15860.0,88.067,34.706,22.358,-9.6262
15870.0,90.067,33.706,21.358,-10.626
15880.0,92.067,34.706,22.358,-11.626
15890.0,92.067,34.706,20.358,-10.626
15900.0,93.067,33.706,18.358,-12.626
15909.0,92.067,34.706,16.358,-13.626
15919.0,94.067,35.706,16.358,-12.626
15929.0,97.067,35.706,17.358,-14.626
15939.0,98.067,36.706,20.358,-11.626
15949.0,96.067,36.706,20.358,-10.626
15959.0,96.067,36.706,21.358,-9.6262
15969.0,94.067,33.706,20.358,-10.626
15979.0,94.067,33.706,20.358,-10.626
15989.0,94.067,32.706,18.358,-12.626
15998.0,94.067,32.706,16.358,-13.626
16008.0,92.067,33.706,16.358,-14.626
16018.0,92.067,33.706,13.358,-12.626
16028.0,91.067,33.706,16.358,-11.626
16038.0,91.067,33.706,17.358,-11.626
16048.0,90.067,31.706,17.358,-10.626
16058.0,90.067,31.706,14.358,-11.626
16068.0,86.067,30.706,11.358,-11.626
16078.0,86.067,30.706,11.358,-11.626
16087.0,82.067,28.706,8.3585,-11.626
16097.0,82.067,28.706,8.3585,-12.626
16107.0,78.067,25.706,3.3585,-13.626
16117.0,78.067,25.706,1.3585,-14.626
16127.0,77.067,26.706,0.35849,-14.626
16137.0,75.067,23.706,0.35849,-13.626
16147.0,70.067,22.706,-0.64151,-12.626
16157.0,68.067,20.706,0.35849,-13.626
16167.0,67.067,21.706,-0.64151,-12.626
16176.0,70.067,24.706,-5.6415,-13.626
16186.0,73.067,24.706,-8.6415,-14.626
16196.0,73.067,26.706,-12.642,-16.626
16206.0,75.067,28.706,-14.642,-16.626
16216.0,80.067,31.706,-16.642,-15.626
16226.0,85.067,32.706,-18.642,-17.626
16236.0,90.067,34.706,-15.642,-17.626
16246.0,91.067,34.706,-9.6415,-14.626
16255.0,97.067,36.706,-2.6415,-13.626
16265.0,107.07,40.706,2.3585,-13.626
16275.0,108.07,41.706,10.358,-11.626
16285.0,110.07,40.706,12.358,-10.626
16295.0,112.07,42.706,19.358,-9.6262
16305.0,114.07,43.706,22.358,-6.6262
16315.0,118.07,43.706,26.358,-6.6262
16325.0,121.07,43.706,26.358,-6.6262
16335.0,120.07,43.706,30.358,-5.6262
16344.0,122.07,45.706,30.358,-5.6262
16354.0,123.07,46.706,35.358,-5.6262
16364.0,124.07,45.706,35.358,-5.6262
16374.0,120.07,43.706,37.358,-2.6262
16384.0,126.07,46.706,37.358,-2.6262
16394.0,124.07,47.706,37.358,-2.6262
16404.0,123.07,45.706,37.358,-2.6262
16414.0,126.07,47.706,37.358,-1.6262
16424.0,130.07,47.706,37.358,-1.6262
16433.0,128.07,47.706,34.358,-2.6262
16443.0,128.07,49.706,34.358,-2.6262
16453.0,128.07,49.706,30.358,-2.6262
16463.0,131.07,49.706,30.358,-2.6262
16473.0,129.07,48.706,27.358,-2.6262
16483.0,132.07,48.706,27.358,-2.6262
16493.0,134.07,50.706,26.358,-3.6262
16503.0,136.07,50.706,26.358,-3.6262
16513.0,134.07,49.706,26.358,-3.6262
16522.0,131.07,48.706,26.358,-3.6262
16532.0,128.07,47.706,24.358,-3.6262
16542.0,127.07,46.706,26.358,-3.6262
16552.0,126.07,46.706,25.358,-1.6262
16562.0,125.07,45.706,25.358,-3.6262
16572.0,124.07,46.706,24.358,-2.6262
16582.0,122.07,45.706,25.358,-3.6262
16592.0,122.07,44.706,23.358,-1.6262
16601.0,121.07,45.706,21.358,-1.6262
16611.0,119.07,44.706,19.358,-2.6262
16621.0,118.07,42.706,18.358,-3.6262
16631.0,116.07,41.706,18.358,-3.6262
16641.0,112.07,40.706,18.358,-2.6262
16651.0,112.07,39.706,19.358,-3.6262
16661.0,108.07,38.706,17.358,-2.6262
16671.0,106.07,35.706,13.358,-3.6262
16681.0,101.07,34.706,13.358,-4.6262
16690.0,100.07,34.706,11.358,-5.6262
16700.0,97.067,34.706,10.358,-4.6262
16710.0,95.067,32.706,8.3585,-6.6262
16720.0,88.067,29.706,7.3585,-6.6262
16730.0,88.067,28.706,5.3585,-4.6262
16740.0,86.067,28.706,6.3585,-4.6262
16750.0,87.067,29.706,6.3585,-5.6262
16760.0,89.067,32.706,3.3585,-5.6262
16770.0,87.067,30.706,-0.64151,-6.6262
16779.0,87.067,34.706,-7.6415,-9.6262
16789.0,92.067,35.706,-7.6415,-10.626
16799.0,92.067,35.706,-10.642,-10.626
16809.0,92.067,35.706,-11.642,-11.626
16819.0,101.07,38.706,-9.6415,-9.6262
16829.0,101.07,38.706,-3.6415,-7.6262
16839.0,107.07,39.706,0.35849,-6.6262
16849.0,107.07,39.706,5.3585,-6.6262
16859.0,108.07,37.706,12.358,-5.6262
16868.0,108.07,37.706,19.358,-2.6262
16878.0,114.07,40.706,22.358,-2.6262
16888.0,114.07,40.706,25.358,-3.6262
16898.0,115.07,38.706,29.358,-2.6262
16908.0,115.07,38.706,32.358,-2.6262
16918.0,112.07,36.706,37.358,0.37385
16928.0,112.07,36.706,39.358,0.37385
16938.0,107.07,32.706,41.358,4.3738
16947.0,107.07,32.706,45.358,3.3738
16957.0,106.07,33.706,47.358,4.3738
16967.0,106.07,33.706,47.358,4.3738
16977.0,103.07,31.706,48.358,6.3738
16987.0,103.07,31.706,47.358,5.3738
16997.0,104.07,30.706,43.358,3.3738
17007.0,102.07,31.706,41.358,4.3738
17017.0,103.07,29.706,40.358,1.3738
17027.0,102.07,30.706,40.358,4.3738
17036.0,102.07,29.706,38.358,4.3738
17046.0,101.07,30.706,39.358,5.3738
17056.0,100.07,29.706,41.358,6.3738
17066.0,101.07,30.706,42.358,7.3738
17076.0,99.067,30.706,41.358,5.3738
17086.0,99.067,29.706,42.358,5.3738
17096.0,95.067,28.706,41.358,8.3738
17106.0,93.067,26.706,41.358,6.3738
17116.0,90.067,27.706,42.358,6.3738
17125.0,89.067,24.706,38.358,5.3738
17135.0,86.067,21.706,37.358,5.3738
17145.0,83.067,19.706,40.358,6.3738
17155.0,81.067,21.706,39.358,5.3738
17165.0,82.067,20.706,39.358,6.3738
17175.0,76.067,18.706,39.358,7.3738
17185.0,76.067,18.706,38.358,9.3738
17195.0,75.067,17.706,37.358,7.3738
17205.0,70.067,14.706,37.358,7.3738
17214.0,69.067,15.706,38.358,7.3738
17224.0,67.067,14.706,36.358,6.3738
17234.0,64.067,11.706,33.358,6.3738
17244.0,60.067,10.706,32.358,5.3738
17254.0,58.067,8.7058,30.358,6.3738
17264.0,53.067,7.7058,28.358,3.3738
17274.0,49.067,5.7058,27.358,3.3738
17284.0,45.067,4.7058,23.358,3.3738
17293.0,42.067,3.7058,23.358,4.3738
17303.0,35.067,-1.2942,21.358,3.3738
17313.0,33.067,-2.2942,23.358,4.3738
17323.0,32.067,-1.2942,22.358,3.3738
17333.0,29.067,-3.2942,19.358,4.3738
17343.0,29.067,-1.2942,16.358,2.3738
17353.0,28.067,-2.2942,13.358,0.37385
17363.0,26.067,-1.2942,11.358,1.3738
17373.0,29.067,2.7058,7.3585,1.3738
17382.0,34.067,2.7058,7.3585,0.37385
17392.0,34.067,2.7058,7.3585,1.3738
17402.0,38.067,4.7058,8.3585,1.3738
17412.0,40.067,5.7058,8.3585,1.3738
17422.0,43.067,5.7058,18.358,1.3738
17432.0,42.067,5.7058,18.358,1.3738
17442.0,47.067,5.7058,27.358,2.3738
17452.0,48.067,5.7058,27.358,2.3738
17462.0,46.067,3.7058,40.358,6.3738
17471.0,46.067,4.7058,40.358,6.3738
17481.0,45.067,2.7058,48.358,7.3738
17491.0,42.067,1.7058,48.358,7.3738
17501.0,44.067,0.70584,50.358,7.3738
17511.0,40.067,-1.2942,50.358,7.3738
17521.0,40.067,-2.2942,54.358,10.374
17531.0,35.067,-5.2942,54.358,10.374
17541.0,37.067,-4.2942,59.358,12.374
17551.0,34.067,-4.2942,59.358,12.374
17560.0,32.067,-6.2942,56.358,12.374
17570.0,34.067,-3.2942,56.358,12.374
17580.0,32.067,-6.2942,53.358,11.374
17590.0,29.067,-6.2942,53.358,11.374
17600.0,29.067,-6.2942,49.358,10.374
17610.0,27.067,-8.2942,49.358,10.374
17620.0,28.067,-9.2942,46.358,9.3738
17630.0,27.067,-8.2942,46.358,9.3738
17639.0,26.067,-9.2942,43.358,9.3738
17649.0,26.067,-11.294,45.358,9.3738
17659.0,27.067,-8.2942,46.358,9.3738
17669.0,24.067,-11.294,45.358,9.3738
17679.0,24.067,-11.294,45.358,9.3738
17689.0,22.067,-13.294,44.358,10.374
17699.0,22.067,-13.294,43.358,8.3738
17709.0,19.067,-15.294,40.358,8.3738
17719.0,19.067,-15.294,40.358,6.3738
17728.0,18.067,-14.294,39.358,7.3738
17738.0,18.067,-14.294,40.358,8.3738
17748.0,15.067,-16.294,39.358,8.3738
17758.0,15.067,-16.294,38.358,8.3738
17768.0,12.067,-19.294,37.358,6.3738
17778.0,12.067,-19.294,34.358,6.3738
17788.0,9.0665,-20.294,33.358,7.3738
17798.0,9.0665,-20.294,32.358,8.3738
17808.0,3.0665,-22.294,31.358,7.3738
17817.0,3.0665,-22.294,27.358,4.3738
17827.0,0.066504,-23.294,26.358,4.3738
17837.0,0.066504,-23.294,24.358,4.3738
17847.0,-2.9335,-25.294,21.358,4.3738
17857.0,-3.9335,-27.294,19.358,4.3738
17867.0,-3.9335,-26.294,17.358,2.3738
17877.0,-7.9335,-28.294,17.358,2.3738
17887.0,-13.933,-33.294,17.358,3.3738
17896.0,-13.933,-31.294,16.358,4.3738
17906.0,-12.933,-30.294,13.358,2.3738
17916.0,-11.933,-28.294,12.358,2.3738
17926.0,-10.933,-29.294,7.3585,0.37385
17936.0,-10.933,-26.294,5.3585,0.37385
17946.0,-4.9335,-23.294,2.3585,-0.62615
17956.0,1.0665,-20.294,-3.6415,-3.6262
17966.0,4.0665,-18.294,-3.6415,-3.6262
17976.0,7.0665,-17.294,-3.6415,-3.6262
17985.0,13.067,-14.294,0.35849,-3.6262
17995.0,17.067,-14.294,7.3585,-1.6262
18005.0,23.067,-11.294,14.358,-0.62615
18015.0,25.067,-10.294,21.358,0.37385
18025.0,25.067,-12.294,28.358,1.3738
18035.0,28.067,-10.294,29.358,0.37385
18045.0,33.067,-8.2942,33.358,2.3738
18055.0,33.067,-10.294,36.358,1.3738
18065.0,34.067,-8.2942,40.358,2.3738
18074.0,36.067,-9.2942,42.358,3.3738
18084.0,38.067,-7.2942,44.358,3.3738
18094.0,38.067,-7.2942,45.358,5.3738
18104.0,37.067,-7.2942,45.358,4.3738
18114.0,37.067,-9.2942,46.358,4.3738
18124.0,39.067,-6.2942,48.358,6.3738
18134.0,40.067,-7.2942,49.358,5.3738
18144.0,39.067,-7.2942,49.358,7.3738
18154.0,44.067,-5.2942,47.358,5.3738
18163.0,42.067,-5.2942,45.358,6.3738
18173.0,42.067,-5.2942,40.358,4.3738
18183.0,44.067,-4.2942,38.358,3.3738
18193.0,44.067,-4.2942,34.358,3.3738
18203.0,45.067,-3.2942,34.358,0.37385
18213.0,49.067,-1.2942,31.358,1.3738
18223.0,49.067,-5.2942,30.358,1.3738
18233.0,49.067,-3.2942,28.358,1.3738
18242.0,49.067,-4.2942,32.358,1.3738
18252.0,49.067,-3.2942,30.358,0.37385
18262.0,48.067,-2.2942,28.358,1.3738
18272.0,48.067,-2.2942,27.358,1.3738
18282.0,47.067,-3.2942,30.358,1.3738
18292.0,47.067,-2.2942,31.358,3.3738
18302.0,47.067,-4.2942,29.358,2.3738
18312.0,46.067,-4.2942,27.358,0.37385
18322.0,46.067,-4.2942,22.358,-1.6262
18331.0,46.067,-5.2942,20.358,-2.6262
18341.0,42.067,-6.2942,18.358,-1.6262
18351.0,40.067,-7.2942,19.358,-2.6262
18361.0,38.067,-8.2942,17.358,-1.6262
18371.0,36.067,-9.2942,16.358,-0.62615
18381.0,35.067,-10.294,15.358,-2.6262
18391.0,34.067,-12.294,12.358,-2.6262
18401.0,31.067,-11.294,10.358,-4.6262
18411.0,28.067,-13.294,8.3585,-3.6262
18420.0,26.067,-14.294,8.3585,-3.6262
18430.0,25.067,-15.294,3.3585,-5.6262
18440.0,22.067,-17.294,3.3585,-5.6262
18450.0,20.067,-18.294,-1.6415,-5.6262
18460.0,13.067,-21.294,-1.6415,-5.6262
18470.0,14.067,-22.294,-3.6415,-7.6262
18480.0,15.067,-19.294,-3.6415,-7.6262
18490.0,18.067,-17.294,-11.642,-11.626
18500.0,16.067,-16.294,-11.642,-11.626
18509.0,16.067,-16.294,-16.642,-13.626
18519.0,24.067,-12.294,-16.642,-13.626
18529.0,23.067,-11.294,-17.642,-11.626
18539.0,29.067,-10.294,-17.642,-11.626
18549.0,29.067,-10.294,-18.642,-14.626
18559.0,39.067,-7.2942,-18.642,-14.626
18569.0,39.067,-7.2942,-9.6415,-14.626
18579.0,49.067,-3.2942,-9.6415,-14.626
18588.0,49.067,-3.2942,8.3585,-10.626
18598.0,52.067,-2.2942,8.3585,-10.626
18608.0,52.067,-2.2942,17.358,-8.6262
18618.0,57.067,-1.2942,17.358,-8.6262
18628.0,57.067,-1.2942,21.358,-9.6262
18638.0,61.067,-0.29416,23.358,-9.6262
18648.0,61.067,-0.29416,25.358,-10.626
18658.0,65.067,2.7058,27.358,-9.6262
18668.0,65.067,2.7058,31.358,-6.6262
18677.0,65.067,1.7058,35.358,-6.6262
18687.0,65.067,1.7058,39.358,-3.6262
18697.0,68.067,2.7058,40.358,-2.6262
18707.0,68.067,2.7058,41.358,-4.6262
18717.0,70.067,0.70584,38.358,-3.6262
18727.0,65.067,0.70584,37.358,-4.6262
18737.0,71.067,3.7058,38.358,-3.6262
18747.0,69.067,3.7058,33.358,-2.6262
18757.0,70.067,2.7058,33.358,-5.6262
18766.0,70.067,3.7058,32.358,-5.6262
18776.0,69.067,2.7058,32.358,-5.6262
18786.0,69.067,2.7058,31.358,-5.6262
18796.0,67.067,1.7058,31.358,-4.6262
18806.0,70.067,3.7058,33.358,-3.6262
18816.0,72.067,3.7058,33.358,-3.6262
18826.0,73.067,3.7058,30.358,-5.6262
18836.0,72.067,4.7058,31.358,-4.6262
18846.0,73.067,3.7058,29.358,-4.6262
18855.0,69.067,3.7058,30.358,-5.6262
18865.0,68.067,1.7058,29.358,-5.6262
18875.0,67.067,1.7058,27.358,-6.6262
18885.0,66.067,1.7058,25.358,-7.6262
18895.0,66.067,-0.29416,25.358,-7.6262
18905.0,64.067,0.70584,27.358,-6.6262
18915.0,62.067,-1.2942,25.358,-5.6262
18925.0,62.067,-2.2942,28.358,-4.6262
18934.0,58.067,-1.2942,26.358,-3.6262
18944.0,60.067,-2.2942,24.358,-3.6262
18954.0,57.067,-3.2942,26.358,-4.6262
18964.0,54.067,-4.2942,22.358,-6.6262
18974.0,50.067,-4.2942,21.358,-5.6262
18984.0,49.067,-6.2942,18.358,-5.6262
18994.0,46.067,-8.2942,16.358,-7.6262
19004.0,43.067,-8.2942,17.358,-6.6262
19014.0,40.067,-9.2942,13.358,-7.6262
19023.0,42.067,-9.2942,12.358,-8.6262
19033.0,36.067,-11.294,10.358,-8.6262
19043.0,29.067,-14.294,10.358,-7.6262
19053.0,29.067,-14.294,12.358,-5.6262
19063.0,32.067,-13.294,12.358,-6.6262
19073.0,35.067,-11.294,10.358,-7.6262
19083.0,34.067,-9.2942,5.3585,-7.6262
19093.0,33.067,-8.2942,3.3585,-10.626
19103.0,39.067,-5.2942,-1.6415,-11.626
19112.0,46.067,-2.2942,-2.6415,-14.626
19122.0,49.067,-1.2942,-3.6415,-11.626
19132.0,50.067,-2.2942,-3.6415,-12.626
19142.0,54.067,1.7058,-0.64151,-12.626
19152.0,58.067,1.7058,6.3585,-12.626
19162.0,63.067,4.7058,11.358,-10.626
19172.0,66.067,5.7058,19.358,-10.626
19182.0,69.067,5.7058,23.358,-8.6262
19192.0,70.067,5.7058,32.358,-8.6262
19201.0,73.067,6.7058,35.358,-5.6262
19211.0,73.067,7.7058,36.358,-5.6262
19221.0,74.067,7.7058,43.358,-6.6262
19231.0,75.067,7.7058,46.358,-4.6262
19241.0,78.067,9.7058,45.358,-4.6262
19251.0,80.067,9.7058,50.358,-2.6262
19261.0,82.067,8.7058,50.358,-2.6262
19271.0,78.067,8.7058,51.358,-2.6262
19280.0,80.067,8.7058,51.358,-2.6262
19290.0,80.067,9.7058,52.358,-1.6262
19300.0,76.067,6.7058,51.358,-2.6262
19310.0,78.067,9.7058,52.358,-3.6262
19320.0,79.067,8.7058,52.358,-0.62615
19330.0,78.067,8.7058,49.358,-3.6262
19340.0,79.067,9.7058,46.358,-2.6262
19350.0,80.067,9.7058,48.358,-4.6262
19360.0,80.067,7.7058,47.358,-3.6262
19369.0,77.067,6.7058,45.358,-3.6262
19379.0,79.067,8.7058,41.358,-4.6262
19389.0,82.067,8.7058,43.358,-5.6262
19399.0,84.067,9.7058,43.358,-4.6262
19409.0,83.067,11.706,42.358,-5.6262
19419.0,83.067,11.706,44.358,-4.6262
19429.0,81.067,8.7058,44.358,-3.6262
19439.0,81.067,8.7058,42.358,-3.6262
19449.0,79.067,8.7058,40.358,-4.6262
19458.0,79.067,8.7058,39.358,-6.6262
19468.0,75.067,7.7058,40.358,-4.6262
19478.0,75.067,7.7058,39.358,-4.6262
19488.0,72.067,5.7058,38.358,-4.6262
19498.0,72.067,5.7058,37.358,-4.6262
19508.0,69.067,3.7058,37.358,-4.6262
19518.0,69.067,3.7058,36.358,-4.6262
19528.0,66.067,3.7058,36.358,-4.6262
19538.0,66.067,3.7058,32.358,-6.6262
19547.0,61.067,3.7058,32.358,-6.6262
19557.0,61.067,3.7058,29.358,-7.6262
19567.0,59.067,1.7058,29.358,-7.6262
19577.0,59.067,1.7058,27.358,-6.6262
19587.0,55.067,1.7058,27.358,-6.6262
19597.0,53.067,-0.29416,19.358,-10.626
19607.0,52.067,-0.29416,19.358,-10.626
19617.0,51.067,-1.2942,17.358,-8.6262
19626.0,49.067,-1.2942,17.358,-8.6262
19636.0,42.067,-5.2942,12.358,-8.6262
19646.0,39.067,-5.2942,12.358,-8.6262
19656.0,39.067,-5.2942,12.358,-5.6262
19666.0,42.067,-2.2942,12.358,-5.6262
19676.0,43.067,-1.2942,6.3585,-8.6262
19686.0,43.067,-1.2942,6.3585,-8.6262
19696.0,44.067,1.7058,-0.64151,-11.626
19706.0,50.067,3.7058,-0.64151,-11.626
19715.0,53.067,4.7058,-6.6415,-12.626
19725.0,55.067,6.7058,-6.6415,-12.626
19735.0,56.067,7.7058,-4.6415,-11.626
19745.0,62.067,8.7058,-4.6415,-11.626
19755.0,62.067,10.706,0.35849,-9.6262
19765.0,64.067,9.7058,6.3585,-9.6262
19775.0,66.067,10.706,16.358,-6.6262
19785.0,65.067,8.7058,20.358,-3.6262
19795.0,66.067,5.7058,29.358,-3.6262
19804.0,67.067,7.7058,31.358,-1.6262
19814.0,64.067,6.7058,34.358,-2.6262
19824.0,64.067,6.7058,37.358,-0.62615
19834.0,62.067,7.7058,39.358,-0.62615
19844.0,65.067,7.7058,43.358,1.3738
19854.0,62.067,6.7058,44.358,1.3738
19864.0,58.067,3.7058,46.358,5.3738
19874.0,62.067,4.7058,49.358,6.3738
19884.0,56.067,2.7058,50.358,6.3738
19893.0,53.067,1.7058,48.358,6.3738
19903.0,57.067,4.7058,48.358,6.3738
19913.0,56.067,3.7058,46.358,6.3738
19923.0,53.067,2.7058,46.358,6.3738
19933.0,51.067,1.7058,43.358,7.3738
19943.0,50.067,0.70584,41.358,5.3738
19953.0,48.067,0.70584,39.358,4.3738
19963.0,46.067,-2.2942,38.358,6.3738
19972.0,49.067,-0.29416,39.358,6.3738
19982.0,46.067,-1.2942,41.358,8.3738
19992.0,46.067,-1.2942,39.358,7.3738
20002.0,44.067,-2.2942,37.358,6.3738
20012.0,41.067,-4.2942,39.358,8.3738
20022.0,38.067,-4.2942,38.358,7.3738
20032.0,37.067,-6.2942,35.358,6.3738
20042.0,34.067,-7.2942,38.358,7.3738
20052.0,32.067,-8.2942,37.358,8.3738
20061.0,28.067,-10.294,37.358,9.3738
20071.0,26.067,-10.294,37.358,9.3738
20081.0,25.067,-11.294,37.358,10.374
20091.0,20.067,-12.294,38.358,11.374
20101.0,19.067,-15.294,39.358,13.374
20111.0,14.067,-16.294,36.358,11.374
20121.0,10.067,-18.294,35.358,9.3738
20131.0,8.0665,-20.294,31.358,10.374
20141.0,3.0665,-20.294,31.358,10.374
20150.0,1.0665,-22.294,27.358,10.374
20160.0,-2.9335,-24.294,24.358,9.3738
20170.0,-4.9335,-24.294,25.358,9.3738
20180.0,-8.9335,-27.294,23.358,9.3738
20190.0,-13.933,-26.294,22.358,9.3738
20200.0,-13.933,-29.294,20.358,8.3738
20210.0,-15.933,-30.294,20.358,9.3738
20220.0,-22.933,-32.294,20.358,9.3738
20230.0,-25.933,-33.294,18.358,8.3738
20239.0,-28.933,-34.294,14.358,8.3738
20249.0,-27.933,-35.294,15.358,7.3738
20259.0,-31.933,-33.294,13.358,7.3738
20269.0,-31.933,-33.294,10.358,7.3738
20279.0,-30.933,-32.294,8.3585,8.3738
20289.0,-30.933,-32.294,6.3585,6.3738
20299.0,-26.933,-27.294,2.3585,5.3738
20309.0,-26.933,-27.294,1.3585,4.3738
20318.0,-20.933,-25.294,-0.64151,5.3738
20328.0,-20.933,-25.294,-2.6415,4.3738
20338.0,-16.933,-25.294,-1.6415,6.3738
20348.0,-16.933,-25.294,3.3585,6.3738
20358.0,-13.933,-23.294,9.3585,7.3738
20368.0,-13.933,-23.294,13.358,8.3738
20378.0,-13.933,-25.294,19.358,9.3738
20388.0,-13.933,-25.294,24.358,9.3738
20398.0,-14.933,-25.294,30.358,10.374
20407.0,-14.933,-25.294,34.358,10.374
20417.0,-18.933,-27.294,37.358,11.374
20427.0,-18.933,-27.294,39.358,12.374
20437.0,-22.933,-30.294,43.358,12.374
20447.0,-22.933,-30.294,45.358,16.374
20457.0,-24.933,-31.294,47.358,15.374
20467.0,-28.933,-34.294,48.358,16.374
20477.0,-23.933,-31.294,48.358,18.374
20487.0,-32.933,-34.294,50.358,19.374
20496.0,-29.933,-32.294,48.358,19.374
20506.0,-26.933,-30.294,47.358,19.374
20516.0,-28.933,-31.294,45.358,17.374
20526.0,-29.933,-31.294,43.358,17.374
20536.0,-28.933,-30.294,40.358,18.374
20546.0,-29.933,-32.294,39.358,18.374
20556.0,-30.933,-32.294,39.358,18.374
20566.0,-30.933,-31.294,39.358,19.374
20576.0,-29.933,-31.294,40.358,19.374
20585.0,-29.933,-32.294,40.358,20.374
20595.0,-29.933,-30.294,40.358,20.374
20605.0,-31.933,-32.294,42.358,20.374
20615.0,-35.933,-33.294,42.358,20.374
20625.0,-37.933,-37.294,39.358,18.374
20635.0,-40.933,-38.294,39.358,18.374
20645.0,-41.933,-39.294,38.358,19.374
20655.0,-44.933,-38.294,38.358,19.374
20664.0,-44.933,-39.294,39.358,20.374
20674.0,-46.933,-42.294,39.358,20.374
20684.0,-48.933,-42.294,38.358,21.374
20694.0,-51.933,-42.294,38.358,21.374
20704.0,-55.933,-44.294,37.358,21.374
20714.0,-56.933,-45.294,37.358,21.374
20724.0,-58.933,-47.294,31.358,20.374
20734.0,-61.933,-48.294,31.358,20.374
20744.0,-63.933,-49.294,27.358,20.374
20753.0,-67.933,-49.294,27.358,20.374
20763.0,-65.933,-49.294,26.358,21.374
20773.0,-67.933,-50.294,26.358,21.374
20783.0,-73.933,-53.294,24.358,19.374
20793.0,-77.933,-54.294,22.358,20.374
20803.0,-78.933,-56.294,19.358,19.374
20813.0,-82.933,-55.294,17.358,17.374
20823.0,-84.933,-58.294,15.358,17.374
20833.0,-89.933,-59.294,14.358,17.374
20842.0,-86.933,-58.294,13.358,17.374
20852.0,-86.933,-56.294,12.358,17.374
20862.0,-83.933,-55.294,8.3585,15.374
20872.0,-86.933,-55.294,3.3585,14.374
20882.0,-82.933,-52.294,0.35849,11.374
20892.0,-74.933,-47.294,-1.6415,11.374
20902.0,-70.933,-46.294,-4.6415,10.374
20912.0,-65.933,-43.294,-6.6415,11.374
20922.0,-58.933,-39.294,-6.6415,13.374
20931.0,-49.933,-35.294,-5.6415,12.374
20941.0,-45.933,-34.294,-2.6415,13.374
20951.0,-39.933,-32.294,1.3585,13.374
20961.0,-36.933,-31.294,6.3585,13.374
20971.0,-32.933,-29.294,9.3585,13.374
20981.0,-28.933,-28.294,16.358,13.374
20991.0,-25.933,-27.294,21.358,14.374
21001.0,-22.933,-26.294,26.358,15.374
21010.0,-18.933,-23.294,28.358,14.374
21020.0,-15.933,-22.294,31.358,16.374
21030.0,-13.933,-20.294,32.358,16.374
21040.0,-10.933,-19.294,34.358,16.374
21050.0,-10.933,-20.294,37.358,17.374
21060.0,-9.9335,-19.294,38.358,19.374
21070.0,-5.9335,-18.294,39.358,19.374
21080.0,-11.933,-19.294,40.358,21.374
21090.0,-3.9335,-16.294,38.358,19.374
21099.0,-1.9335,-15.294,38.358,19.374
21109.0,-0.9335,-14.294,36.358,20.374
21119.0,0.066504,-12.294,33.358,19.374
21129.0,2.0665,-12.294,32.358,20.374
21139.0,5.0665,-11.294,32.358,19.374
21149.0,4.0665,-11.294,27.358,19.374
21159.0,4.0665,-11.294,25.358,17.374
21169.0,4.0665,-11.294,24.358,17.374
21179.0,4.0665,-11.294,25.358,17.374
21188.0,6.0665,-9.2942,24.358,17.374
21198.0,6.0665,-9.2942,21.358,15.374
21208.0,5.0665,-11.294,19.358,16.374
21218.0,5.0665,-11.294,16.358,15.374
21228.0,4.0665,-9.2942,14.358,13.374
21238.0,4.0665,-9.2942,11.358,11.374
21248.0,3.0665,-11.294,9.3585,9.3738
21258.0,3.0665,-11.294,9.3585,10.374
21268.0,0.066504,-12.294,7.3585,9.3738
21277.0,0.066504,-12.294,9.3585,7.3738
21287.0,-1.9335,-13.294,9.3585,11.374
21297.0,-1.9335,-13.294,9.3585,12.374
21307.0,-3.9335,-13.294,8.3585,12.374
21317.0,-3.9335,-13.294,7.3585,12.374
21327.0,-4.9335,-13.294,5.3585,11.374
21337.0,-4.9335,-13.294,4.3585,12.374
21347.0,-6.9335,-14.294,0.35849,11.374
21356.0,-8.9335,-14.294,1.3585,11.374
21366.0,-11.933,-18.294,-1.6415,10.374
21376.0,-13.933,-17.294,-2.6415,10.374
21386.0,-14.933,-18.294,-6.6415,9.3738
21396.0,-16.933,-17.294,-6.6415,10.374
21406.0,-17.933,-18.294,-7.6415,9.3738
21416.0,-18.933,-19.294,-9.6415,6.3738
21426.0,-21.933,-22.294,-14.642,7.3738
21436.0,-25.933,-21.294,-13.642,7.3738
21445.0,-25.933,-21.294,-18.642,6.3738
21455.0,-17.933,-14.294,-23.642,4.3738
21465.0,-14.933,-13.294,-27.642,2.3738
21475.0,-16.933,-12.294,-35.642,-1.6262
21485.0,-6.9335,-7.2942,-40.642,-3.6262
21495.0,-2.9335,-5.2942,-43.642,-4.6262
21505.0,0.066504,-3.2942,-44.642,-4.6262
21515.0,3.0665,-2.2942,-45.642,-4.6262
21525.0,7.0665,-1.2942,-41.642,-3.6262
21534.0,13.067,0.70584,-35.642,-2.6262
21544.0,16.067,2.7058,-28.642,-0.62615
21554.0,20.067,3.7058,-21.642,-0.62615
21564.0,23.067,3.7058,-13.642,2.3738
21574.0,25.067,3.7058,-4.6415,3.3738
21584.0,29.067,5.7058,1.3585,7.3738
21594.0,29.067,6.7058,5.3585,5.3738
21604.0,29.067,5.7058,8.3585,6.3738
21614.0,29.067,3.7058,10.358,7.3738
21623.0,33.067,7.7058,12.358,6.3738
21633.0,34.067,7.7058,13.358,7.3738
21643.0,38.067,8.7058,13.358,7.3738
21653.0,32.067,5.7058,16.358,9.3738
21663.0,33.067,7.7058,16.358,9.3738
21673.0,37.067,7.7058,17.358,10.374
21683.0,33.067,6.7058,17.358,10.374
21693.0,37.067,7.7058,16.358,8.3738
21702.0,39.067,8.7058,16.358,8.3738
21712.0,36.067,7.7058,14.358,7.3738
21722.0,38.067,9.7058,14.358,7.3738
21732.0,37.067,10.706,10.358,8.3738
21742.0,40.067,10.706,10.358,8.3738
21752.0,39.067,9.7058,10.358,7.3738
21762.0,40.067,10.706,10.358,7.3738
21772.0,40.067,10.706,9.3585,9.3738
21782.0,40.067,9.7058,9.3585,9.3738
21791.0,40.067,8.7058,5.3585,8.3738
21801.0,38.067,8.7058,5.3585,8.3738
21811.0,37.067,6.7058,7.3585,8.3738
21821.0,33.067,6.7058,7.3585,8.3738
21831.0,33.067,6.7058,5.3585,9.3738
21841.0,34.067,6.7058,5.3585,9.3738
21851.0,34.067,6.7058,5.3585,7.3738
21861.0,33.067,6.7058,3.3585,7.3738
21871.0,32.067,4.7058,4.3585,6.3738
21880.0,30.067,5.7058,3.3585,8.3738
21890.0,30.067,3.7058,4.3585,8.3738
21900.0,27.067,2.7058,1.3585,7.3738
21910.0,23.067,2.7058,1.3585,7.3738
21920.0,21.067,0.70584,-3.6415,5.3738
21930.0,19.067,-0.29416,-5.6415,4.3738
21940.0,20.067,1.7058,-5.6415,5.3738
21950.0,17.067,-0.29416,-9.6415,4.3738
21960.0,13.067,-1.2942,-10.642,4.3738
21969.0,13.067,-3.2942,-10.642,4.3738
21979.0,8.0665,-4.2942,-11.642,3.3738
21989.0,9.0665,-4.2942,-14.642,3.3738
21999.0,9.0665,-4.2942,-15.642,3.3738
22009.0,7.0665,-4.2942,-16.642,3.3738
22019.0,2.0665,-6.2942,-19.642,3.3738
22029.0,2.0665,-6.2942,-17.642,4.3738
22039.0,-1.9335,-6.2942,-19.642,4.3738
22048.0,-1.9335,-6.2942,-24.642,3.3738
22058.0,7.0665,-1.2942,-25.642,2.3738
22068.0,7.0665,-1.2942,-29.642,2.3738
22078.0,9.0665,1.7058,-31.642,2.3738
22088.0,9.0665,1.7058,-33.642,0.37385
22098.0,15.067,6.7058,-36.642,0.37385
22108.0,15.067,6.7058,-37.642,-0.62615
22118.0,20.067,6.7058,-37.642,0.37385
22128.0,20.067,6.7058,-39.642,-0.62615
22137.0,26.067,7.7058,-33.642,-0.62615
22147.0,26.067,7.7058,-26.642,1.3738
22157.0,31.067,9.7058,-20.642,3.3738
22167.0,31.067,9.7058,-13.642,4.3738
22177.0,34.067,9.7058,-6.6415,6.3738
22187.0,34.067,9.7058,-3.6415,6.3738
22197.0,37.067,11.706,0.35849,4.3738
22207.0,39.067,12.706,2.3585,5.3738
22217.0,42.067,13.706,6.3585,6.3738
22226.0,42.067,13.706,10.358,8.3738
22236.0,43.067,12.706,10.358,8.3738
22246.0,43.067,14.706,14.358,10.374
22256.0,41.067,11.706,15.358,10.374
22266.0,41.067,12.706,12.358,9.3738
22276.0,45.067,14.706,11.358,9.3738
22286.0,42.067,11.706,13.358,10.374
22296.0,45.067,15.706,13.358,8.3738
22306.0,48.067,16.706,10.358,9.3738
22315.0,46.067,16.706,9.3585,9.3738
22325.0,48.067,16.706,7.3585,9.3738
22335.0,48.067,17.706,4.3585,9.3738
22345.0,48.067,17.706,1.3585,7.3738
22355.0,49.067,17.706,-0.64151,6.3738
22365.0,49.067,18.706,-0.64151,8.3738
22375.0,49.067,19.706,0.35849,7.3738
22385.0,51.067,20.706,1.3585,7.3738
22394.0,50.067,18.706,1.3585,8.3738
22404.0,49.067,19.706,1.3585,8.3738
22414.0,46.067,18.706,-0.64151,8.3738
22424.0,45.067,18.706,1.3585,8.3738
22434.0,47.067,17.706,-2.6415,8.3738
22444.0,45.067,17.706,-1.6415,6.3738
22454.0,45.067,17.706,-2.6415,6.3738
22464.0,44.067,18.706,-2.6415,8.3738
22474.0,45.067,17.706,-2.6415,7.3738
22483.0,43.067,17.706,-3.6415,7.3738
22493.0,43.067,17.706,-5.6415,6.3738
22503.0,41.067,17.706,-8.6415,6.3738
22513.0,37.067,16.706,-9.6415,5.3738
22523.0,35.067,15.706,-9.6415,6.3738
22533.0,36.067,15.706,-10.642,5.3738
22543.0,34.067,15.706,-14.642,5.3738
22553.0,34.067,17.706,-14.642,2.3738
22563.0,33.067,15.706,-18.642,2.3738
22572.0,31.067,13.706,-18.642,2.3738
22582.0,27.067,13.706,-21.642,0.37385
22592.0,24.067,12.706,-24.642,2.3738
22602.0,24.067,13.706,-24.642,0.37385
22612.0,21.067,11.706,-27.642,1.3738
22622.0,16.067,10.706,-28.642,0.37385
22632.0,16.067,10.706,-31.642,0.37385
22642.0,17.067,10.706,-32.642,-1.6262
22652.0,18.067,13.706,-35.642,-1.6262
22661.0,25.067,17.706,-36.642,-1.6262
22671.0,22.067,17.706,-39.642,-1.6262
22681.0,28.067,20.706,-42.642,-2.6262
22691.0,34.067,25.706,-43.642,-1.6262
22701.0,33.067,26.706,-45.642,-2.6262
22711.0,39.067,27.706,-45.642,-2.6262
22721.0,45.067,30.706,-52.642,-5.6262
22731.0,49.067,33.706,-52.642,-5.6262
22740.0,54.067,33.706,-44.642,-6.6262
22750.0,56.067,35.706,-44.642,-6.6262
22760.0,57.067,34.706,-28.642,-2.6262
22770.0,58.067,34.706,-28.642,-2.6262
22780.0,60.067,35.706,-15.642,1.3738
22790.0,62.067,36.706,-15.642,1.3738
22800.0,65.067,38.706,-9.6415,1.3738
22810.0,64.067,38.706,-9.6415,1.3738
22820.0,66.067,36.706,-4.6415,1.3738
22829.0,68.067,38.706,-4.6415,1.3738
22839.0,68.067,40.706,-0.64151,2.3738
22849.0,66.067,37.706,-0.64151,2.3738
22859.0,71.067,40.706,3.3585,6.3738
22869.0,67.067,38.706,3.3585,6.3738
22879.0,63.067,37.706,5.3585,7.3738
22889.0,69.067,40.706,5.3585,7.3738
22899.0,69.067,40.706,3.3585,7.3738
22909.0,69.067,40.706,2.3585,6.3738
22918.0,69.067,40.706,0.35849,7.3738
22928.0,68.067,39.706,-2.6415,5.3738
22938.0,68.067,39.706,-6.6415,3.3738
22948.0,68.067,41.706,-6.6415,4.3738
22958.0,68.067,41.706,-7.6415,4.3738
22968.0,64.067,39.706,-8.6415,3.3738
22978.0,64.067,39.706,-7.6415,4.3738
22988.0,64.067,38.706,-6.6415,3.3738
22997.0,64.067,38.706,-6.6415,4.3738
23007.0,63.067,37.706,-6.6415,2.3738
23017.0,63.067,37.706,-7.6415,3.3738
23027.0,61.067,38.706,-8.6415,3.3738
23037.0,61.067,38.706,-8.6415,3.3738
23047.0,58.067,37.706,-8.6415,4.3738
23057.0,58.067,37.706,-8.6415,3.3738
23067.0,58.067,36.706,-8.6415,3.3738
23077.0,55.067,36.706,-10.642,3.3738
23086.0,54.067,34.706,-9.6415,2.3738
23096.0,52.067,34.706,-9.6415,2.3738
23106.0,48.067,33.706,-12.642,3.3738
23116.0,47.067,31.706,-11.642,3.3738
23126.0,45.067,31.706,-13.642,4.3738
23136.0,40.067,29.706,-13.642,3.3738
23146.0,35.067,27.706,-15.642,2.3738
23156.0,32.067,25.706,-17.642,2.3738
23166.0,30.067,24.706,-17.642,2.3738
23175.0,25.067,24.706,-21.642,0.37385
23185.0,22.067,20.706,-22.642,1.3738
23195.0,20.067,20.706,-22.642,1.3738
23205.0,21.067,20.706,-25.642,0.37385
23215.0,15.067,18.706,-25.642,0.37385
23225.0,8.0665,14.706,-28.642,-0.62615
23235.0,5.0665,14.706,-29.642,-0.62615
23245.0,4.0665,13.706,-28.642,0.37385
23255.0,0.066504,11.706,-29.642,-0.62615
23264.0,2.0665,14.706,-32.642,-1.6262
23274.0,1.0665,13.706,-34.642,-1.6262
23284.0,0.066504,16.706,-37.642,-2.6262
23294.0,5.0665,19.706,-39.642,-2.6262
23304.0,7.0665,19.706,-41.642,-3.6262
23314.0,8.0665,19.706,-40.642,-4.6262
23324.0,11.067,21.706,-42.642,-3.6262
23334.0,12.067,21.706,-42.642,-4.6262
23343.0,16.067,22.706,-37.642,-2.6262
23353.0,15.067,21.706,-28.642,-3.6262
23363.0,18.067,21.706,-23.642,-0.62615
23373.0,17.067,20.706,-18.642,-0.62615
23383.0,16.067,20.706,-13.642,0.37385
23393.0,15.067,20.706,-10.642,-0.62615
23403.0,13.067,19.706,-6.6415,0.37385
23413.0,13.067,18.706,-6.6415,0.37385
23423.0,9.0665,18.706,-1.6415,2.3738
23432.0,8.0665,15.706,1.3585,2.3738
23442.0,4.0665,13.706,5.3585,6.3738
23452.0,2.0665,13.706,5.3585,4.3738
23462.0,6.0665,14.706,8.3585,6.3738
23472.0,-0.9335,11.706,7.3585,6.3738
23482.0,3.0665,13.706,7.3585,7.3738
23492.0,1.0665,14.706,5.3585,6.3738
23502.0,-2.9335,11.706,3.3585,7.3738
23512.0,-2.9335,12.706,-0.64151,4.3738
23521.0,-3.9335,11.706,-1.6415,4.3738
23531.0,-2.9335,11.706,-2.6415,5.3738
23541.0,-6.9335,11.706,-4.6415,4.3738
23551.0,-8.9335,9.7058,-5.6415,4.3738
23561.0,-11.933,8.7058,-6.6415,4.3738
23571.0,-11.933,6.7058,-6.6415,5.3738
23581.0,-14.933,7.7058,-5.6415,6.3738
23591.0,-14.933,6.7058,-7.6415,5.3738
23601.0,-18.933,4.7058,-7.6415,3.3738
23610.0,-18.933,4.7058,-9.6415,1.3738
23620.0,-19.933,3.7058,-9.6415,2.3738
23630.0,-20.933,1.7058,-10.642,2.3738
23640.0,-24.933,2.7058,-11.642,1.3738
23650.0,-25.933,2.7058,-11.642,2.3738
23660.0,-27.933,-0.29416,-12.642,2.3738
23670.0,-30.933,-0.29416,-11.642,3.3738
23680.0,-34.933,-2.2942,-11.642,2.3738
23689.0,-36.933,-4.2942,-8.6415,3.3738
23699.0,-38.933,-3.2942,-11.642,3.3738
23709.0,-42.933,-5.2942,-12.642,4.3738
23719.0,-46.933,-6.2942,-12.642,4.3738
23729.0,-47.933,-7.2942,-19.642,1.3738
23739.0,-50.933,-8.2942,-19.642,1.3738
23749.0,-53.933,-11.294,-21.642,-0.62615
23759.0,-58.933,-13.294,-21.642,-0.62615
23769.0,-58.933,-13.294,-22.642,-0.62615
23778.0,-63.933,-14.294,-22.642,-0.62615
23788.0,-63.933,-14.294,-26.642,0.37385
23798.0,-72.933,-20.294,-26.642,0.37385
23808.0,-72.933,-20.294,-28.642,-0.62615
23818.0,-77.933,-21.294,-28.642,-0.62615
23828.0,-77.933,-21.294,-31.642,-0.62615
23838.0,-75.933,-18.294,-31.642,-0.62615
23848.0,-75.933,-18.294,-34.642,-0.62615
23858.0,-75.933,-17.294,-34.642,-0.62615
23867.0,-75.933,-17.294,-40.642,-4.6262
23877.0,-67.933,-11.294,-40.642,-4.6262
23887.0,-67.933,-11.294,-46.642,-5.6262
23897.0,-59.933,-7.2942,-46.642,-5.6262
23907.0,-59.933,-7.2942,-46.642,-6.6262
23917.0,-54.933,-6.2942,-46.642,-6.6262
23927.0,-54.933,-6.2942,-43.642,-5.6262
23937.0,-51.933,-4.2942,-38.642,-5.6262
23947.0,-50.933,-5.2942,-28.642,-3.6262
23956.0,-49.933,-7.2942,-23.642,-5.6262
23966.0,-48.933,-6.2942,-19.642,-3.6262
23976.0,-47.933,-6.2942,-15.642,-4.6262
23986.0,-49.933,-7.2942,-11.642,-4.6262
23996.0,-45.933,-6.2942,-9.6415,-3.6262
24006.0,-47.933,-7.2942,-4.6415,-4.6262
24016.0,-47.933,-6.2942,-3.6415,-2.6262
24026.0,-47.933,-6.2942,-1.6415,-2.6262
24035.0,-51.933,-8.2942,1.3585,-0.62615
24045.0,-46.933,-5.2942,3.3585,-0.62615
24055.0,-42.933,-5.2942,4.3585,0.37385
24065.0,-48.933,-8.2942,1.3585,-1.6262
24075.0,-43.933,-4.2942,-0.64151,-0.62615
24085.0,-45.933,-5.2942,4.3585,0.37385
24095.0,-44.933,-3.2942,1.3585,1.3738
24105.0,-41.933,-2.2942,0.35849,0.37385
24115.0,-43.933,-2.2942,-3.6415,0.37385
24124.0,-41.933,-0.29416,-7.6415,-2.6262
24134.0,-39.933,-0.29416,-12.642,-4.6262
24144.0,-36.933,-1.2942,-14.642,-4.6262
24154.0,-37.933,0.70584,-12.642,-5.6262
24164.0,-35.933,1.7058,-13.642,-4.6262
24174.0,-34.933,2.7058,-14.642,-4.6262
24184.0,-35.933,0.70584,-11.642,-3.6262
24194.0,-35.933,1.7058,-10.642,-4.6262
24204.0,-34.933,1.7058,-12.642,-4.6262
24213.0,-35.933,2.7058,-14.642,-5.6262
24223.0,-35.933,1.7058,-13.642,-6.6262
24233.0,-35.933,1.7058,-17.642,-6.6262
24243.0,-36.933,0.70584,-16.642,-6.6262
24253.0,-38.933,0.70584,-18.642,-7.6262
24263.0,-39.933,-0.29416,-19.642,-7.6262
24273.0,-40.933,0.70584,-20.642,-8.6262
24283.0,-41.933,-1.2942,-23.642,-8.6262
24293.0,-43.933,-0.29416,-24.642,-7.6262
24302.0,-44.933,-1.2942,-22.642,-7.6262
24312.0,-43.933,-1.2942,-26.642,-9.6262
24322.0,-45.933,-2.2942,-27.642,-9.6262
24332.0,-49.933,-4.2942,-31.642,-10.626
24342.0,-52.933,-3.2942,-32.642,-12.626
24352.0,-52.933,-5.2942,-33.642,-14.626
24362.0,-51.933,-3.2942,-37.642,-13.626
24372.0,-53.933,-4.2942,-38.642,-12.626
24381.0,-57.933,-7.2942,-38.642,-13.626
24391.0,-59.933,-8.2942,-38.642,-14.626
24401.0,-60.933,-8.2942,-41.642,-14.626
24411.0,-55.933,-3.2942,-42.642,-13.626
24421.0,-49.933,-0.29416,-42.642,-15.626
24431.0,-50.933,0.70584,-47.642,-15.626
24441.0,-45.933,4.7058,-51.642,-18.626
24451.0,-37.933,7.7058,-53.642,-20.626
24461.0,-33.933,9.7058,-58.642,-21.626
24470.0,-31.933,10.706,-58.642,-21.626
24480.0,-26.933,11.706,-59.642,-24.626
24490.0,-23.933,13.706,-58.642,-23.626
24500.0,-19.933,15.706,-52.642,-21.626
24510.0,-14.933,16.706,-45.642,-19.626
24520.0,-11.933,16.706,-37.642,-18.626
24530.0,-9.9335,17.706,-29.642,-18.626
24540.0,-8.9335,18.706,-25.642,-17.626
24550.0,-8.9335,18.706,-21.642,-17.626
24559.0,-3.9335,19.706,-13.642,-16.626
24569.0,-5.9335,19.706,-14.642,-16.626
24579.0,-2.9335,21.706,-12.642,-17.626
24589.0,-1.9335,21.706,-9.6415,-15.626
24599.0,0.066504,21.706,-9.6415,-15.626
24609.0,-0.9335,19.706,-4.6415,-15.626
24619.0,-0.9335,19.706,-2.6415,-13.626
24629.0,1.0665,20.706,-0.64151,-12.626
24639.0,1.0665,20.706,-0.64151,-13.626
24648.0,-1.9335,20.706,0.35849,-15.626
24658.0,-1.9335,20.706,-1.6415,-13.626
24668.0,2.0665,23.706,-3.6415,-13.626
24678.0,2.0665,23.706,-6.6415,-14.626
24688.0,5.0665,22.706,-9.6415,-15.626
24698.0,5.0665,22.706,-8.6415,-15.626
24708.0,5.0665,23.706,-10.642,-14.626
24718.0,5.0665,23.706,-11.642,-14.626
24727.0,7.0665,24.706,-14.642,-14.626
24737.0,7.0665,24.706,-12.642,-13.626
24747.0,10.067,25.706,-11.642,-14.626
24757.0,10.067,25.706,-12.642,-14.626
24767.0,8.0665,25.706,-12.642,-16.626
24777.0,8.0665,25.706,-11.642,-15.626
24787.0,7.0665,24.706,-11.642,-14.626
24797.0,8.0665,24.706,-12.642,-14.626
24807.0,5.0665,23.706,-12.642,-14.626
24816.0,7.0665,24.706,-15.642,-15.626
24826.0,6.0665,23.706,-15.642,-15.626
24836.0,4.0665,24.706,-17.642,-15.626
24846.0,3.0665,23.706,-17.642,-15.626
24856.0,4.0665,22.706,-18.642,-16.626
24866.0,1.0665,22.706,-18.642,-16.626
24876.0,3.0665,22.706,-18.642,-16.626
24886.0,0.066504,22.706,-18.642,-16.626
24896.0,1.0665,23.706,-22.642,-15.626
24905.0,-2.9335,22.706,-22.642,-15.626
24915.0,-0.9335,21.706,-23.642,-15.626
24925.0,-2.9335,20.706,-23.642,-15.626
24935.0,-4.9335,20.706,-25.642,-16.626
24945.0,-6.9335,21.706,-25.642,-16.626
24955.0,-5.9335,21.706,-29.642,-18.626
24965.0,-12.933,16.706,-29.642,-18.626
24975.0,-13.933,16.706,-30.642,-17.626
24985.0,-10.933,17.706,-30.642,-17.626
24994.0,-9.9335,20.706,-32.642,-17.626
25004.0,-7.9335,23.706,-32.642,-17.626
25014.0,-8.9335,23.706,-36.642,-17.626
25024.0,-0.9335,28.706,-39.642,-18.626
25034.0,6.0665,29.706,-42.642,-19.626
25044.0,9.0665,32.706,-44.642,-21.626
25054.0,11.067,33.706,-47.642,-21.626
25064.0,16.067,35.706,-47.642,-22.626
25073.0,22.067,36.706,-47.642,-24.626
25083.0,26.067,38.706,-43.642,-22.626
25093.0,29.067,39.706,-33.642,-21.626
25103.0,33.067,39.706,-27.642,-19.626
25113.0,32.067,41.706,-18.642,-17.626
25123.0,35.067,41.706,-14.642,-15.626
25133.0,37.067,41.706,-7.6415,-14.626
25143.0,38.067,43.706,-4.6415,-15.626
25153.0,40.067,43.706,-2.6415,-14.626
25162.0,41.067,45.706,-0.64151,-13.626
25172.0,44.067,46.706,2.3585,-12.626
25182.0,46.067,45.706,5.3585,-11.626
25192.0,43.067,43.706,7.3585,-10.626
25202.0,42.067,41.706,10.358,-9.6262
25212.0,46.067,46.706,11.358,-8.6262
25222.0,41.067,41.706,12.358,-7.6262
25232.0,41.067,43.706,14.358,-6.6262
25242.0,46.067,45.706,14.358,-6.6262
25251.0,47.067,46.706,12.358,-5.6262
25261.0,49.067,45.706,11.358,-6.6262
25271.0,49.067,48.706,10.358,-6.6262
25281.0,47.067,47.706,8.3585,-8.6262
25291.0,48.067,45.706,9.3585,-6.6262
25301.0,49.067,46.706,6.3585,-7.6262
25311.0,48.067,47.706,5.3585,-7.6262
25321.0,50.067,48.706,4.3585,-8.6262
25331.0,49.067,45.706,6.3585,-7.6262
25340.0,50.067,47.706,8.3585,-6.6262
25350.0,49.067,45.706,6.3585,-7.6262
25360.0,48.067,46.706,5.3585,-6.6262
25370.0,47.067,47.706,6.3585,-8.6262
25380.0,47.067,45.706,6.3585,-7.6262
25390.0,45.067,43.706,6.3585,-6.6262
25400.0,43.067,44.706,6.3585,-7.6262
25410.0,44.067,44.706,6.3585,-7.6262
25419.0,40.067,43.706,4.3585,-6.6262
25429.0,40.067,42.706,4.3585,-7.6262
25439.0,39.067,42.706,3.3585,-6.6262
25449.0,39.067,42.706,3.3585,-6.6262
25459.0,36.067,41.706,0.35849,-6.6262
25469.0,34.067,42.706,0.35849,-7.6262
25479.0,32.067,40.706,-0.64151,-6.6262
25489.0,32.067,40.706,-0.64151,-7.6262
25499.0,26.067,37.706,-1.6415,-6.6262
25508.0,26.067,37.706,-4.6415,-7.6262
25518.0,23.067,36.706,-5.6415,-8.6262
25528.0,23.067,36.706,-8.6415,-9.6262
25538.0,16.067,33.706,-7.6415,-8.6262
25548.0,16.067,33.706,-9.6415,-7.6262
25558.0,16.067,34.706,-12.642,-7.6262
25568.0,16.067,34.706,-11.642,-8.6262
25578.0,18.067,37.706,-15.642,-9.6262
25588.0,18.067,37.706,-16.642,-10.626
25597.0,21.067,40.706,-17.642,-9.6262
25607.0,21.067,40.706,-22.642,-9.6262
25617.0,28.067,46.706,-24.642,-12.626
25627.0,28.067,46.706,-27.642,-12.626
25637.0,34.067,46.706,-28.642,-13.626
25647.0,34.067,46.706,-28.642,-13.626
25657.0,37.067,49.706,-26.642,-14.626
25667.0,44.067,50.706,-20.642,-13.626
25677.0,46.067,52.706,-12.642,-11.626
25686.0,49.067,54.706,-6.6415,-9.6262
25696.0,54.067,55.706,1.3585,-10.626
25706.0,56.067,57.706,5.3585,-8.6262
25716.0,59.067,58.706,9.3585,-7.6262
25726.0,59.067,59.706,11.358,-5.6262
25736.0,61.067,58.706,15.358,-5.6262
25746.0,65.067,62.706,14.358,-7.6262
25756.0,67.067,63.706,15.358,-5.6262
25765.0,69.067,64.706,20.358,-4.6262
25775.0,67.067,62.706,22.358,-2.6262
25785.0,68.067,64.706,22.358,-1.6262
25795.0,72.067,66.706,25.358,-0.62615
25805.0,67.067,62.706,24.358,-0.62615
25815.0,72.067,65.706,25.358,-0.62615
25825.0,74.067,67.706,24.358,-0.62615
25835.0,72.067,67.706,20.358,-0.62615
25845.0,73.067,66.706,21.358,0.37385
25854.0,73.067,67.706,21.358,0.37385
25864.0,71.067,65.706,21.358,1.3738
25874.0,71.067,65.706,21.358,1.3738
25884.0,68.067,64.706,18.358,-0.62615
25894.0,68.067,64.706,18.358,-0.62615
25904.0,68.067,64.706,19.358,-0.62615
25914.0,62.067,62.706,19.358,-0.62615
25924.0,62.067,61.706,20.358,-1.6262
25934.0,59.067,59.706,20.358,-1.6262
25943.0,54.067,58.706,17.358,-2.6262
25953.0,55.067,57.706,17.358,-2.6262
25963.0,55.067,58.706,16.358,-1.6262
25973.0,52.067,57.706,16.358,-1.6262
25983.0,49.067,56.706,16.358,-1.6262
25993.0,44.067,54.706,16.358,-1.6262
26003.0,43.067,54.706,15.358,-1.6262
26013.0,41.067,52.706,15.358,-1.6262
26023.0,38.067,50.706,13.358,-1.6262
26032.0,34.067,50.706,13.358,-1.6262
26042.0,31.067,49.706,12.358,-1.6262
26052.0,30.067,48.706,12.358,-1.6262
26062.0,25.067,44.706,12.358,0.37385
26072.0,21.067,43.706,12.358,0.37385
26082.0,16.067,40.706,14.358,0.37385
26092.0,12.067,39.706,13.358,0.37385
26102.0,8.0665,38.706,12.358,1.3738
26111.0,5.0665,35.706,11.358,1.3738
26121.0,-4.9335,30.706,8.3585,-1.6262
26131.0,-12.933,28.706,5.3585,-0.62615
26141.0,-14.933,27.706,5.3585,-3.6262
26151.0,-17.933,25.706,5.3585,-1.6262
26161.0,-20.933,26.706,4.3585,0.37385
26171.0,-17.933,27.706,3.3585,0.37385
26181.0,-18.933,28.706,1.3585,-2.6262
26191.0,-17.933,30.706,-0.64151,-1.6262
26200.0,-14.933,31.706,-5.6415,-3.6262
26210.0,-12.933,31.706,-7.6415,-4.6262
26220.0,-11.933,31.706,-10.642,-6.6262
26230.0,-7.9335,33.706,-9.6415,-5.6262
26240.0,-4.9335,34.706,-8.6415,-4.6262
26250.0,-7.9335,33.706,-6.6415,-4.6262
26260.0,-5.9335,33.706,-0.64151,-3.6262
26270.0,-7.9335,33.706,5.3585,-2.6262
26280.0,-6.9335,31.706,12.358,-0.62615
26289.0,-5.9335,32.706,21.358,1.3738
26299.0,-4.9335,31.706,24.358,0.37385
26309.0,-6.9335,30.706,25.358,2.3738
26319.0,-9.9335,28.706,28.358,2.3738
26329.0,-10.933,27.706,34.358,4.3738
26339.0,-12.933,27.706,37.358,6.3738
26349.0,-17.933,24.706,41.358,4.3738
26359.0,-17.933,24.706,42.358,9.3738
26369.0,-19.933,22.706,44.358,10.374
26378.0,-19.933,22.706,48.358,11.374
26388.0,-22.933,20.706,48.358,12.374
26398.0,-22.933,20.706,46.358,12.374
26408.0,-23.933,21.706,47.358,11.374
26418.0,-23.933,21.706,44.358,11.374
26428.0,-27.933,20.706,42.358,11.374
26438.0,-27.933,20.706,39.358,9.3738
26448.0,-28.933,18.706,39.358,9.3738
26457.0,-28.933,18.706,37.358,9.3738
26467.0,-31.933,18.706,38.358,10.374
26477.0,-31.933,18.706,36.358,10.374
26487.0,-34.933,15.706,39.358,11.374
26497.0,-34.933,15.706,39.358,11.374
26507.0,-41.933,12.706,41.358,11.374
26517.0,-41.933,12.706,41.358,12.374
26527.0,-44.933,10.706,41.358,11.374
26537.0,-46.933,9.7058,39.358,10.374
26546.0,-47.933,9.7058,38.358,9.3738
26556.0,-48.933,9.7058,40.358,10.374
26566.0,-50.933,5.7058,42.358,13.374
26576.0,-52.933,6.7058,42.358,13.374
26586.0,-57.933,5.7058,43.358,13.374
26596.0,-58.933,2.7058,38.358,12.374
26606.0,-60.933,4.7058,40.358,13.374
26616.0,-64.933,2.7058,39.358,13.374
26626.0,-67.933,0.70584,41.358,13.374
26635.0,-68.933,0.70584,38.358,13.374
26645.0,-72.933,-1.2942,35.358,12.374
26655.0,-74.933,-2.2942,37.358,13.374
26665.0,-79.933,-6.2942,36.358,15.374
26675.0,-82.933,-6.2942,35.358,15.374
26685.0,-86.933,-8.2942,33.358,13.374
26695.0,-89.933,-9.2942,30.358,13.374
26705.0,-97.933,-12.294,30.358,12.374
26715.0,-99.933,-12.294,30.358,12.374
26724.0,-98.933,-11.294,29.358,13.374
26734.0,-101.93,-13.294,26.358,12.374
26744.0,-101.93,-11.294,25.358,11.374
26754.0,-103.93,-11.294,22.358,12.374
26764.0,-101.93,-10.294,19.358,10.374
26774.0,-97.933,-7.2942,17.358,9.3738
26784.0,-92.933,-5.2942,16.358,10.374
26794.0,-93.933,-5.2942,13.358,8.3738
26803.0,-90.933,-4.2942,12.358,7.3738
26813.0,-89.933,-3.2942,15.358,8.3738
26823.0,-87.933,-3.2942,16.358,8.3738
26833.0,-86.933,-3.2942,21.358,9.3738
26843.0,-84.933,-3.2942,27.358,9.3738
26853.0,-84.933,-4.2942,29.358,10.374
26863.0,-86.933,-6.2942,36.358,9.3738
26873.0,-85.933,-4.2942,39.358,10.374
26883.0,-85.933,-5.2942,44.358,10.374
26892.0,-88.933,-5.2942,48.358,12.374
26902.0,-85.933,-6.2942,49.358,13.374
26912.0,-88.933,-6.2942,53.358,13.374
26922.0,-88.933,-7.2942,58.358,17.374
26932.0,-93.933,-10.294,59.358,16.374
26942.0,-94.933,-10.294,59.358,15.374
26952.0,-94.933,-9.2942,59.358,18.374
26962.0,-96.933,-11.294,59.358,18.374
26972.0,-92.933,-7.2942,58.358,14.374
26981.0,-91.933,-8.2942,58.358,14.374
26991.0,-95.933,-7.2942,55.358,15.374
27001.0,-92.933,-8.2942,55.358,15.374
27011.0,-91.933,-8.2942,52.358,14.374
27021.0,-91.933,-7.2942,52.358,14.374
27031.0,-92.933,-8.2942,50.358,13.374
27041.0,-94.933,-7.2942,50.358,13.374
27051.0,-91.933,-8.2942,52.358,17.374
27061.0,-91.933,-8.2942,52.358,17.374
27070.0,-92.933,-9.2942,50.358,14.374
27080.0,-93.933,-9.2942,50.358,14.374
27090.0,-94.933,-9.2942,47.358,13.374
27100.0,-92.933,-8.2942,47.358,13.374
27110.0,-95.933,-11.294,45.358,13.374
27120.0,-95.933,-10.294,45.358,13.374
27130.0,-96.933,-9.2942,45.358,14.374
27140.0,-96.933,-9.2942,45.358,14.374
27149.0,-95.933,-10.294,44.358,13.374
27159.0,-97.933,-10.294,44.358,13.374
27169.0,-99.933,-12.294,44.358,13.374
27179.0,-99.933,-10.294,41.358,12.374
27189.0,-100.93,-12.294,39.358,11.374
27199.0,-101.93,-12.294,39.358,10.374
27209.0,-102.93,-13.294,38.358,12.374
27219.0,-104.93,-13.294,38.358,11.374
27229.0,-104.93,-13.294,36.358,9.3738
27238.0,-109.93,-14.294,33.358,8.3738
27248.0,-109.93,-14.294,31.358,7.3738
27258.0,-113.93,-18.294,28.358,8.3738
27268.0,-113.93,-18.294,27.358,6.3738
27278.0,-118.93,-19.294,27.358,6.3738
27288.0,-118.93,-19.294,26.358,6.3738
27298.0,-116.93,-16.294,25.358,7.3738
27308.0,-116.93,-16.294,23.358,5.3738
27318.0,-114.93,-15.294,19.358,6.3738
27327.0,-114.93,-15.294,17.358,4.3738
27337.0,-102.93,-8.2942,14.358,4.3738
27347.0,-102.93,-8.2942,10.358,3.3738
27357.0,-93.933,-4.2942,8.3585,2.3738
27367.0,-93.933,-4.2942,9.3585,0.37385
27377.0,-84.933,-0.29416,9.3585,1.3738
27387.0,-84.933,-0.29416,9.3585,0.37385
27397.0,-81.933,0.70584,12.358,-0.62615
27407.0,-77.933,2.7058,20.358,2.3738
27416.0,-74.933,2.7058,27.358,1.3738
27426.0,-72.933,5.7058,35.358,4.3738
27436.0,-69.933,4.7058,40.358,4.3738
27446.0,-67.933,7.7058,45.358,4.3738
27456.0,-63.933,9.7058,48.358,4.3738
27466.0,-61.933,10.706,50.358,6.3738
27476.0,-58.933,11.706,51.358,4.3738
27486.0,-57.933,10.706,54.358,7.3738
27495.0,-54.933,12.706,55.358,6.3738
27505.0,-52.933,11.706,58.358,7.3738
27515.0,-53.933,11.706,58.358,8.3738
27525.0,-51.933,15.706,60.358,8.3738
27535.0,-48.933,14.706,60.358,8.3738
27545.0,-46.933,15.706,60.358,8.3738
27555.0,-42.933,18.706,60.358,8.3738
27565.0,-40.933,19.706,58.358,9.3738
27575.0,-40.933,20.706,56.358,8.3738
27584.0,-38.933,20.706,58.358,7.3738
27594.0,-38.933,20.706,57.358,7.3738
27604.0,-36.933,18.706,52.358,6.3738
27614.0,-34.933,21.706,53.358,6.3738
27624.0,-34.933,22.706,53.358,7.3738
27634.0,-32.933,23.706,54.358,6.3738
27644.0,-30.933,24.706,52.358,7.3738
27654.0,-30.933,24.706,53.358,4.3738
27664.0,-30.933,24.706,53.358,3.3738
27673.0,-30.933,23.706,53.358,6.3738
27683.0,-29.933,24.706,52.358,5.3738
27693.0,-31.933,23.706,51.358,4.3738
27703.0,-30.933,23.706,50.358,4.3738
27713.0,-27.933,25.706,50.358,4.3738
27723.0,-33.933,22.706,50.358,5.3738
27733.0,-31.933,23.706,49.358,5.3738
27743.0,-31.933,24.706,51.358,5.3738
27753.0,-32.933,23.706,46.358,3.3738
27762.0,-32.933,23.706,46.358,3.3738
27772.0,-29.933,22.706,44.358,2.3738
27782.0,-31.933,24.706,45.358,1.3738
27792.0,-34.933,22.706,43.358,2.3738
27802.0,-37.933,21.706,42.358,1.3738
27812.0,-39.933,19.706,40.358,1.3738
27822.0,-40.933,20.706,38.358,0.37385
27832.0,-37.933,21.706,36.358,-1.6262
27841.0,-42.933,19.706,35.358,-2.6262
27851.0,-42.933,18.706,34.358,-1.6262
27861.0,-42.933,19.706,34.358,-2.6262
27871.0,-41.933,22.706,29.358,-4.6262
27881.0,-36.933,24.706,28.358,-3.6262
27891.0,-37.933,25.706,27.358,-3.6262
27901.0,-31.933,27.706,23.358,-3.6262
27911.0,-25.933,31.706,21.358,-6.6262
27921.0,-19.933,33.706,20.358,-6.6262
27930.0,-16.933,36.706,17.358,-5.6262
27940.0,-12.933,38.706,18.358,-7.6262
27950.0,-7.9335,39.706,20.358,-8.6262
27960.0,-2.9335,41.706,25.358,-8.6262
27970.0,1.0665,42.706,32.358,-7.6262
27980.0,4.0665,43.706,38.358,-5.6262
27990.0,5.0665,44.706,38.358,-5.6262
28000.0,10.067,48.706,51.358,-2.6262
28010.0,15.067,48.706,51.358,-2.6262
28019.0,18.067,49.706,63.358,-1.6262
28029.0,20.067,51.706,63.358,-1.6262
28039.0,22.067,53.706,69.358,-2.6262
28049.0,31.067,54.706,69.358,-2.6262
28059.0,32.067,55.706,70.358,-2.6262
28069.0,35.067,55.706,70.358,-2.6262
28079.0,33.067,55.706,76.358,2.3738
28089.0,36.067,55.706,76.358,2.3738
28098.0,36.067,55.706,81.358,5.3738
28108.0,37.067,56.706,81.358,5.3738
28118.0,37.067,56.706,80.358,4.3738
28128.0,43.067,58.706,80.358,4.3738
28138.0,43.067,58.706,79.358,6.3738
28148.0,47.067,62.706,79.358,6.3738
28158.0,47.067,62.706,79.358,6.3738
28168.0,48.067,63.706,79.358,6.3738
28178.0,48.067,63.706,75.358,5.3738
28187.0,52.067,65.706,75.358,5.3738
28197.0,52.067,65.706,76.358,4.3738
28207.0,55.067,66.706,77.358,4.3738
28217.0,55.067,66.706,79.358,5.3738
28227.0,59.067,68.706,78.358,7.3738
28237.0,59.067,68.706,79.358,5.3738
28247.0,59.067,67.706,78.358,5.3738
28257.0,59.067,67.706,79.358,6.3738
28267.0,59.067,69.706,78.358,6.3738
28276.0,60.067,70.706,75.358,3.3738
28286.0,61.067,69.706,77.358,4.3738
28296.0,60.067,71.706,74.358,4.3738
28306.0,61.067,69.706,74.358,4.3738
28316.0,59.067,70.706,72.358,3.3738
28326.0,60.067,69.706,71.358,3.3738
28336.0,58.067,68.706,70.358,3.3738
28346.0,59.067,68.706,70.358,3.3738
28356.0,58.067,67.706,71.358,4.3738
28365.0,57.067,69.706,71.358,3.3738
28375.0,57.067,69.706,71.358,3.3738
28385.0,57.067,67.706,70.358,2.3738
28395.0,55.067,66.706,65.358,2.3738
28405.0,55.067,66.706,63.358,0.37385
28415.0,53.067,66.706,60.358,0.37385
28425.0,51.067,65.706,60.358,-0.62615
28435.0,52.067,66.706,60.358,-1.6262
28444.0,53.067,68.706,58.358,0.37385
28454.0,56.067,71.706,57.358,0.37385
28464.0,60.067,74.706,55.358,-2.6262
28474.0,61.067,73.706,54.358,-2.6262
28484.0,64.067,77.706,53.358,-2.6262
28494.0,71.067,82.706,48.358,-3.6262
28504.0,76.067,84.706,47.358,-3.6262
28514.0,79.067,86.706,45.358,-3.6262
28524.0,86.067,88.706,45.358,-4.6262
28533.0,91.067,91.706,48.358,-5.6262
28543.0,95.067,92.706,53.358,-4.6262
28553.0,98.067,93.706,60.358,-3.6262
28563.0,102.07,95.706,66.358,-2.6262
28573.0,109.07,98.706,73.358,0.37385
28583.0,113.07,100.71,77.358,1.3738
28593.0,114.07,100.71,85.358,1.3738
28603.0,118.07,102.71,85.358,2.3738
28613.0,120.07,103.71,88.358,3.3738
28622.0,124.07,105.71,91.358,4.3738
28632.0,125.07,105.71,94.358,4.3738
28642.0,129.07,106.71,95.358,4.3738
28652.0,128.07,106.71,97.358,6.3738
28662.0,128.07,105.71,99.358,6.3738
28672.0,132.07,108.71,97.358,5.3738
28682.0,127.07,107.71,103.36,6.3738
28692.0,132.07,108.71,102.36,5.3738
28702.0,136.07,111.71,102.36,8.3738
28711.0,136.07,110.71,101.36,7.3738
28721.0,136.07,110.71,100.36,8.3738
28731.0,137.07,111.71,99.358,6.3738
28741.0,141.07,112.71,97.358,6.3738
28751.0,138.07,113.71,95.358,6.3738
28761.0,142.07,114.71,96.358,4.3738
28771.0,144.07,115.71,95.358,5.3738
28781.0,145.07,115.71,95.358,5.3738
28790.0,145.07,116.71,96.358,5.3738
28800.0,148.07,116.71,98.358,7.3738
28810.0,149.07,117.71,98.358,7.3738
28820.0,147.07,117.71,98.358,8.3738
28830.0,150.07,118.71,95.358,7.3738
28840.0,150.07,119.71,96.358,5.3738
28850.0,149.07,118.71,94.358,6.3738
28860.0,152.07,120.71,95.358,6.3738
28870.0,152.07,121.71,94.358,5.3738
28879.0,151.07,119.71,93.358,3.3738
28889.0,149.07,119.71,92.358,5.3738
28899.0,149.07,117.71,94.358,5.3738
28909.0,146.07,117.71,94.358,5.3738
28919.0,144.07,116.71,95.358,8.3738
28929.0,141.07,116.71,93.358,8.3738
28939.0,140.07,114.71,91.358,6.3738
28949.0,137.07,112.71,91.358,7.3738
28959.0,134.07,111.71,89.358,5.3738
28968.0,134.07,111.71,84.358,4.3738
28978.0,129.07,110.71,83.358,3.3738
28988.0,129.07,110.71,80.358,2.3738
28998.0,123.07,106.71,79.358,2.3738
29008.0,123.07,106.71,80.358,2.3738
29018.0,119.07,105.71,78.358,2.3738
29028.0,119.07,105.71,77.358,3.3738
29038.0,120.07,105.71,76.358,1.3738
29048.0,120.07,105.71,74.358,2.3738
29057.0,116.07,106.71,74.358,2.3738
29067.0,116.07,106.71,68.358,-0.62615
29077.0,124.07,111.71,68.358,-0.62615
29087.0,124.07,111.71,62.358,-1.6262
29097.0,129.07,112.71,62.358,-1.6262
29107.0,129.07,112.71,66.358,-1.6262
29117.0,131.07,111.71,66.358,-1.6262
29127.0,131.07,111.71,75.358,2.3738
29136.0,135.07,112.71,75.358,2.3738
29146.0,135.07,112.71,86.358,3.3738
29156.0,136.07,112.71,86.358,3.3738
29166.0,138.07,113.71,97.358,4.3738
29176.0,139.07,112.71,97.358,4.3738
29186.0,139.07,112.71,106.36,6.3738
29196.0,137.07,112.71,106.36,6.3738
29206.0,139.07,111.71,110.36,7.3738
29216.0,137.07,108.71,110.36,7.3738
29225.0,137.07,109.71,114.36,9.3738
29235.0,135.07,105.71,114.36,9.3738
29245.0,134.07,107.71,119.36,13.374
29255.0,136.07,107.71,119.36,13.374
29265.0,132.07,105.71,118.36,13.374
29275.0,135.07,106.71,118.36,13.374
29285.0,132.07,105.71,116.36,13.374
29295.0,131.07,105.71,116.36,13.374
29305.0,133.07,106.71,112.36,11.374
29314.0,131.07,106.71,111.36,10.374
29324.0,132.07,104.71,109.36,11.374
29334.0,130.07,103.71,108.36,10.374
29344.0,129.07,102.71,109.36,9.3738
29354.0,127.07,102.71,108.36,11.374
29364.0,126.07,101.71,109.36,10.374
29374.0,126.07,100.71,109.36,12.374
29384.0,122.07,98.706,109.36,11.374
29394.0,121.07,97.706,107.36,9.3738
29403.0,117.07,96.706,106.36,8.3738
29413.0,117.07,96.706,104.36,9.3738
29423.0,115.07,94.706,105.36,9.3738
29433.0,115.07,94.706,105.36,8.3738
29443.0,111.07,92.706,104.36,8.3738
29453.0,107.07,90.706,106.36,9.3738
29463.0,103.07,88.706,103.36,10.374
29473.0,104.07,88.706,106.36,11.374
29482.0,102.07,85.706,103.36,12.374
29492.0,98.067,84.706,103.36,9.3738
29502.0,96.067,84.706,101.36,9.3738
29512.0,91.067,81.706,97.358,8.3738
29522.0,86.067,79.706,98.358,8.3738
29532.0,84.067,75.706,94.358,8.3738
29542.0,80.067,74.706,94.358,8.3738
29552.0,74.067,72.706,90.358,6.3738
29562.0,71.067,70.706,89.358,7.3738
29571.0,69.067,68.706,89.358,4.3738
29581.0,63.067,66.706,89.358,5.3738
29591.0,62.067,66.706,87.358,7.3738
29601.0,62.067,66.706,90.358,7.3738
29611.0,60.067,64.706,86.358,6.3738
29621.0,56.067,64.706,83.358,5.3738
29631.0,58.067,66.706,80.358,3.3738
29641.0,58.067,67.706,79.358,2.3738
29651.0,61.067,69.706,75.358,2.3738
29660.0,64.067,70.706,73.358,2.3738
29670.0,64.067,71.706,71.358,2.3738
29680.0,68.067,72.706,70.358,2.3738
29690.0,71.067,73.706,70.358,2.3738
29700.0,74.067,72.706,74.358,2.3738
29710.0,77.067,73.706,77.358,2.3738
29720.0,78.067,74.706,84.358,4.3738
29730.0,80.067,74.706,85.358,3.3738
29740.0,80.067,73.706,94.358,4.3738
29749.0,81.067,74.706,97.358,5.3738
29759.0,81.067,73.706,100.36,4.3738
29769.0,81.067,72.706,104.36,5.3738
29779.0,79.067,71.706,105.36,4.3738
29789.0,80.067,71.706,110.36,7.3738
29799.0,81.067,69.706,114.36,9.3738
29809.0,75.067,67.706,116.36,11.374
29819.0,77.067,68.706,116.36,10.374
29828.0,75.067,68.706,117.36,12.374
29838.0,72.067,66.706,119.36,11.374
29848.0,76.067,68.706,115.36,9.3738
29858.0,76.067,68.706,113.36,9.3738
29868.0,77.067,68.706,111.36,8.3738
29878.0,77.067,68.706,108.36,7.3738
29888.0,75.067,68.706,106.36,7.3738
29898.0,75.067,68.706,104.36,6.3738
29908.0,78.067,69.706,104.36,6.3738
29917.0,78.067,69.706,103.36,6.3738
29927.0,78.067,68.706,101.36,5.3738
29937.0,78.067,68.706,102.36,6.3738
29947.0,76.067,67.706,103.36,7.3738
29957.0,76.067,67.706,104.36,7.3738
29967.0,71.067,67.706,102.36,5.3738
29977.0,71.067,67.706,101.36,5.3738
29987.0,68.067,63.706,101.36,5.3738
29997.0,68.067,63.706,98.358,4.3738
