t,lead_I,lead_II,v3,v4
1.9,-26800,-132459,67835,38791
3.9,-27780,-132630,69273,40097
5.9,-26342,-131421,70258,41059
7.9,-24207,-129652,71321,42095
9.9,-22962,-128206,72670,43390
11.9,-21488,-126440,73760,44811
13.9,-19417,-124084,74391,46418
15.9,-18618,-122337,74853,48125
17.9,-19528,-121803,74937,49336
19.9,-20347,-121475,74129,49710
21.9,-20685,-120659,72677,49691
23.9,-21566,-119911,71231,49610
25.9,-22494,-119704,69793,49078
27.9,-22694,-119926,68085,47802
29.9,-23052,-120560,66368,46159
31.9,-23847,-121602,64971,44525
33.9,-24087,-122899,63742,42830
35.9,-24129,-124602,62594,41006
37.9,-24980,-126751,61874,39309
39.9,-25957,-128660,61819,38127
41.9,-26339,-129849,62283,37708
43.9,-26698,-130719,63060,37922
45.9,-26897,-131415,63950,38283
47.9,-26116,-131397,64605,38368
49.9,-24913,-130765,64844,38188
51.9,-24370,-130480,64974,38065
53.9,-24534,-130902,65329,38215
55.9,-25192,-131408,65707,38470
57.9,-26183,-131517,65782,38556
59.9,-26892,-131475,65759,38574
61.9,-27058,-131710,65957,38776
63.9,-27024,-132165,66139,38955
65.9,-26692,-132348,65981,38760
67.9,-25887,-132047,65720,38390
69.9,-25085,-131565,65670,38223
71.9,-24578,-131133,65695,38181
73.9,-24353,-130823,65672,38128
75.9,-24807,-130980,65756,38224
77.9,-25797,-131684,65923,38428
79.9,-26254,-132243,65973,38476
81.9,-26179,-132332,65980,38456
83.9,-26656,-132580,66085,38572
85.9,-27367,-133059,66115,38630
87.9,-27129,-132894,65937,38430
89.9,-26341,-132088,65750,38178
91.9,-26009,-131665,65764,38116
93.9,-25747,-131726,65983,38269
95.9,-25061,-131481,66277,38568
97.9,-24737,-131071,66423,38812
99.9,-25409,-131392,66325,38805
101.9,-26467,-132367,66178,38662
103.9,-27046,-132942,66113,38568
105.9,-26887,-132640,66026,38471
107.9,-26183,-132062,65945,38359
109.9,-25298,-131800,66004,38355
111.9,-24575,-131629,66080,38398
113.9,-24253,-131169,66029,38369
115.9,-24483,-130767,66007,38369
117.9,-25146,-130975,66134,38502
119.9,-25772,-131558,66301,38711
121.9,-26013,-131791,66440,38924
123.9,-26035,-131547,66522,39030
125.9,-26173,-131429,66437,38904
127.9,-26381,-131799,66245,38668
129.9,-26247,-132166,66158,38553
131.9,-25602,-131936,66188,38533
133.9,-24942,-131409,66221,38516
135.9,-24914,-131292,66320,38615
137.9,-25492,-131581,66530,38858
139.9,-26093,-131832,66677,39023
141.9,-26386,-132008,66660,39012
143.9,-26441,-132182,66609,38971
145.9,-26303,-132131,66584,38938
147.9,-25973,-131852,66488,38785
149.9,-25635,-131650,66387,38609
151.9,-25473,-131555,66498,38695
153.9,-25398,-131359,66731,38954
155.9,-25241,-131050,66722,38959
157.9,-25163,-130861,66499,38728
159.9,-25569,-131152,66498,38740
161.9,-26399,-131952,66773,39034
163.9,-26904,-132555,66928,39157
165.9,-26585,-132389,66883,39043
167.9,-25851,-131931,66924,39031
169.9,-25237,-131672,67090,39144
171.9,-24769,-131257,67222,39192
173.9,-24578,-130660,67353,39269
175.9,-25033,-130601,67523,39462
177.9,-25871,-131111,67551,39527
179.9,-26307,-131452,67386,39355
181.9,-26148,-131493,67301,39252
183.9,-25812,-131557,67470,39424
185.9,-25512,-131475,67685,39612
187.9,-25209,-131089,67705,39557
189.9,-24943,-130774,67647,39428
191.9,-24744,-130720,67759,39502
193.9,-24615,-130657,68019,39717
195.9,-24635,-130543,68226,39873
197.9,-24838,-130614,68318,39967
199.9,-25232,-130834,68371,40067
201.9,-25842,-130968,68464,40166
203.9,-26333,-131006,68611,40275
205.9,-26069,-130993,68682,40348
207.9,-25067,-130747,68554,40258
209.9,-24177,-130197,68395,40086
211.9,-23904,-129739,68446,40077
213.9,-23982,-129791,68639,40250
215.9,-24228,-130162,68805,40464
217.9,-24731,-130332,68958,40698
219.9,-25251,-130228,69067,40886
221.9,-25438,-130220,69033,40897
223.9,-25417,-130401,68984,40862
225.9,-25394,-130449,69055,40952
227.9,-25193,-130258,69092,40996
229.9,-24734,-130064,68990,40850
231.9,-24300,-129856,68906,40728
233.9,-24044,-129454,68907,40763
235.9,-23979,-129178,68965,40872
237.9,-24320,-129426,69162,41104
239.9,-25035,-129816,69399,41421
241.9,-25552,-129893,69345,41460
243.9,-25551,-129988,69026,41147
245.9,-25320,-130238,68847,40939
247.9,-24936,-129996,68870,41003
249.9,-24166,-129209,68797,40970
251.9,-23367,-128778,68631,40775
253.9,-23316,-129018,68635,40780
255.9,-24019,-129397,68732,40959
257.9,-24687,-129655,68631,40900
259.9,-24914,-129796,68406,40652
261.9,-24986,-129731,68342,40625
263.9,-25056,-129676,68382,40774
265.9,-24966,-129888,68320,40766
267.9,-24902,-130083,68245,40655
269.9,-25291,-130154,68220,40589
271.9,-25921,-130496,68036,40397
273.9,-26053,-130879,67771,40130
275.9,-25436,-130549,67816,40184
277.9,-24590,-129807,68059,40442
279.9,-24230,-129727,68014,40383
281.9,-24694,-130352,67747,40110
283.9,-25550,-130789,67616,40040
285.9,-25911,-130764,67471,39972
287.9,-25599,-130758,67139,39639
289.9,-25333,-130941,66963,39423
291.9,-25358,-130981,67093,39546
293.9,-25184,-130782,67140,39599
295.9,-24921,-130752,66970,39434
297.9,-25204,-131110,66893,39409
299.9,-25762,-131461,66973,39556
301.9,-25840,-131458,66989,39567
303.9,-25647,-131355,66906,39440
305.9,-25744,-131394,66820,39358
307.9,-25845,-131337,66757,39315
309.9,-25592,-131086,66784,39315
311.9,-25370,-130966,66909,39422
313.9,-25430,-131081,66918,39465
315.9,-25472,-131150,66703,39278
317.9,-25428,-131070,66550,39105
319.9,-25514,-130986,66678,39218
321.9,-25692,-130960,66858,39436
323.9,-25896,-131063,66842,39481
325.9,-26174,-131411,66766,39435
327.9,-26268,-131807,66803,39449
329.9,-25942,-131931,66822,39409
331.9,-25597,-131927,66670,39216
333.9,-25636,-132035,66490,39049
335.9,-25706,-131828,66489,39096
337.9,-25381,-130943,66635,39262
339.9,-24942,-130116,66745,39353
341.9,-24973,-130195,66779,39382
343.9,-25711,-130802,66870,39502
345.9,-26816,-131227,67066,39696
347.9,-27398,-131525,67164,39766
349.9,-26819,-131725,67001,39624
351.9,-25668,-131477,66768,39433
353.9,-25063,-131092,66753,39383
355.9,-25097,-131167,66869,39425
357.9,-25134,-131361,66816,39372
359.9,-25109,-131169,66624,39230
361.9,-25284,-130950,66597,39216
363.9,-25464,-130982,66777,39380
365.9,-25518,-130988,66898,39500
367.9,-25668,-131052,66865,39461
369.9,-25789,-131313,66819,39387
371.9,-25599,-131276,66794,39341
373.9,-25413,-130836,66744,39297
375.9,-25568,-130744,66793,39366
377.9,-25812,-131163,67008,39594
379.9,-25986,-131410,67157,39753
381.9,-26160,-131296,67076,39701
383.9,-26052,-131220,66922,39583
385.9,-25595,-131279,66811,39470
387.9,-25431,-131338,66685,39318
389.9,-25734,-131379,66616,39251
391.9,-25776,-131347,66696,39331
393.9,-25345,-131222,66744,39322
395.9,-25078,-131171,66637,39165
397.9,-25226,-131295,66611,39178
399.9,-25486,-131482,66792,39431
401.9,-25767,-131616,66896,39552
403.9,-26039,-131653,66772,39419
405.9,-26025,-131552,66678,39331
407.9,-25703,-131327,66762,39398
409.9,-25493,-131106,66816,39402
411.9,-25616,-131053,66734,39292
413.9,-25775,-131179,66690,39254
415.9,-25637,-131288,66767,39337
417.9,-25411,-131266,66860,39431
419.9,-25682,-131341,66925,39517
421.9,-26445,-131728,66973,39605
423.9,-26740,-132051,66916,39579
425.9,-26003,-131724,66686,39355
427.9,-25161,-130982,66421,39072
429.9,-25207,-130719,66345,38965
431.9,-25604,-131122,66513,39108
433.9,-25550,-131442,66723,39321
435.9,-25486,-131265,66756,39384
437.9,-25812,-130955,66648,39306
439.9,-25848,-130894,66561,39222
441.9,-25435,-131147,66491,39140
443.9,-25486,-131570,66424,39065
445.9,-26094,-131786,66489,39136
447.9,-26324,-131646,66646,39301
449.9,-26084,-131574,66663,39309
451.9,-25998,-131736,66608,39231
453.9,-25945,-131656,66718,39326
455.9,-25631,-131240,66818,39427
457.9,-25524,-130954,66688,39285
459.9,-25859,-130803,66658,39223
461.9,-26015,-130494,66990,39534
463.9,-25655,-130272,67249,39798
465.9,-25244,-130397,67107,39654
467.9,-25253,-130594,66965,39480
469.9,-25704,-130723,67117,39583
471.9,-26223,-130910,67211,39650
473.9,-26290,-130942,67037,39499
475.9,-25891,-130686,66945,39454
477.9,-25590,-130605,67119,39648
479.9,-25598,-130897,67251,39773
481.9,-25582,-131028,67150,39688
483.9,-25468,-130746,67048,39617
485.9,-25458,-130495,67119,39696
487.9,-25467,-130517,67192,39747
489.9,-25364,-130517,67072,39607
491.9,-25316,-130286,66872,39418
493.9,-25433,-130032,66822,39413
495.9,-25623,-130057,66919,39566
497.9,-25783,-130360,67024,39693
499.9,-25798,-130603,67155,39816
501.9,-25701,-130570,67347,40015
503.9,-25753,-130450,67439,40136
505.9,-25920,-130456,67338,40048
507.9,-25801,-130513,67240,39928
509.9,-25388,-130523,67229,39888
511.9,-25076,-130504,67090,39736
513.9,-24995,-130490,66788,39432
515.9,-25153,-130654,66629,39261
517.9,-25615,-131167,66726,39359
519.9,-25971,-131678,66817,39515
521.9,-25716,-131695,66733,39522
523.9,-25365,-131581,66544,39340
525.9,-25692,-132027,66291,39003
527.9,-26119,-132568,66025,38673
529.9,-25640,-132192,65942,38589
531.9,-24819,-131253,66124,38790
533.9,-24930,-130988,66360,39042
535.9,-25768,-131449,66467,39160
537.9,-26191,-131762,66508,39181
539.9,-26078,-131811,66523,39166
541.9,-26078,-131925,66399,39061
543.9,-26225,-131895,66183,38893
545.9,-26205,-131635,66141,38858
547.9,-26156,-131613,66334,39015
549.9,-26273,-131874,66471,39132
551.9,-26364,-131964,66356,39027
553.9,-26237,-131936,66113,38804
555.9,-25966,-132118,65921,38622
557.9,-25770,-132270,65865,38554
559.9,-25873,-132054,66016,38683
561.9,-26204,-131741,66304,38984
563.9,-26417,-131747,66455,39187
565.9,-26399,-132009,66348,39100
567.9,-26261,-132137,66257,38954
569.9,-25958,-131939,66418,39053
571.9,-25557,-131670,66593,39219
573.9,-25344,-131670,66423,39061
575.9,-25275,-131884,66054,38674
577.9,-25196,-132126,65905,38444
579.9,-25448,-132404,66004,38349
581.9,-26035,-132552,66209,38211
583.9,-26111,-132281,66747,38326
585.9,-25494,-131807,67748,38947
587.9,-25197,-131446,68735,39658
589.9,-25488,-130958,69439,40197
591.9,-25360,-130211,70415,41104
593.9,-24467,-129497,72010,42733
595.9,-23494,-128619,73568,44555
597.9,-22642,-127084,74412,46081
599.9,-21663,-125265,74748,47460
601.9,-20907,-123850,74958,48776
603.9,-20744,-122664,74762,49661
605.9,-20769,-121367,73726,49880
607.9,-20616,-120377,72079,49653
609.9,-20652,-120102,70447,49227
611.9,-21312,-120226,69037,48540
613.9,-22515,-120473,67632,47424
615.9,-23856,-121296,66136,45901
617.9,-24917,-123136,64628,44080
619.9,-25574,-125498,63164,42043
621.9,-26057,-127484,62033,40084
623.9,-26451,-128893,61717,38739
625.9,-26518,-129958,62198,38198
627.9,-26244,-130516,62890,38078
629.9,-25968,-130506,63481,38055
631.9,-25847,-130569,64162,38206
633.9,-25840,-131125,64947,38544
635.9,-26018,-131671,65514,38802
637.9,-26271,-131753,65731,38824
639.9,-26201,-131638,65797,38754
641.9,-25843,-131653,65890,38760
643.9,-25776,-131722,65999,38838
645.9,-26054,-131720,66060,38892
647.9,-26027,-131720,66048,38841
649.9,-25632,-131862,65972,38680
651.9,-25603,-132187,65875,38505
653.9,-26065,-132518,65856,38470
655.9,-26328,-132587,65977,38618
657.9,-26250,-132342,66130,38768
659.9,-26303,-132027,66161,38751
661.9,-26438,-131891,66122,38682
663.9,-26352,-131923,66169,38748
665.9,-26368,-131987,66252,38843
667.9,-26684,-132104,66209,38756
669.9,-26710,-132269,66120,38607
671.9,-26248,-132249,66190,38659
673.9,-26021,-132049,66345,38825
675.9,-26282,-132081,66345,38832
677.9,-26390,-132323,66260,38743
679.9,-26168,-132280,66342,38813
681.9,-26126,-132099,66468,38939
683.9,-26259,-132329,66335,38821
685.9,-26085,-132617,66104,38595
687.9,-25699,-132314,66162,38638
689.9,-25599,-131897,66355,38821
691.9,-25766,-132072,66269,38741
693.9,-25790,-132330,66089,38554
695.9,-25587,-131961,66256,38708
697.9,-25461,-131447,66557,39016
699.9,-25622,-131508,66504,38982
701.9,-25883,-131802,66283,38781
703.9,-25909,-131676,66388,38916
705.9,-25760,-131346,66697,39236
707.9,-25829,-131413,66721,39215
709.9,-26118,-131809,66433,38868
711.9,-26247,-132043,66224,38654
713.9,-26263,-132083,66295,38755
715.9,-26528,-132247,66486,38951
717.9,-26815,-132480,66596,39038
719.9,-26646,-132475,66627,39051
721.9,-26270,-132253,66654,39073
723.9,-26170,-132065,66640,39064
725.9,-26157,-131995,66566,38994
727.9,-26019,-132062,66542,38980
729.9,-26067,-132281,66617,39079
731.9,-26265,-132361,66697,39168
733.9,-26138,-131963,66746,39165
735.9,-25875,-131407,66768,39095
737.9,-25999,-131341,66735,39004
739.9,-26196,-131702,66740,39008
741.9,-25985,-131884,66894,39187
743.9,-25773,-131757,67037,39347
745.9,-25901,-131632,67005,39314
747.9,-25878,-131562,66996,39276
749.9,-25584,-131467,67134,39375
751.9,-25649,-131505,67178,39400
753.9,-26029,-131718,67068,39278
755.9,-25969,-131813,67086,39263
757.9,-25642,-131664,67277,39415
759.9,-25905,-131499,67419,39542
761.9,-26453,-131408,67496,39626
763.9,-26233,-131246,67592,39715
765.9,-25471,-131131,67621,39711
767.9,-25293,-131366,67577,39627
769.9,-25749,-131752,67632,39649
771.9,-25940,-131701,67812,39805
773.9,-25578,-131254,67953,39930
775.9,-25119,-131073,67974,39936
777.9,-24968,-131285,67932,39876
779.9,-25273,-131372,67937,39873
781.9,-25844,-131253,68049,39986
783.9,-26130,-131275,68149,40074
785.9,-25905,-131312,68141,40033
787.9,-25669,-131013,68239,40099
789.9,-25799,-130594,68611,40446
791.9,-25876,-130437,68925,40741
793.9,-25424,-130436,68843,40663
795.9,-24748,-130373,68616,40461
797.9,-24472,-130357,68614,40474
799.9,-24662,-130502,68719,40586
801.9,-24920,-130650,68724,40627
803.9,-25041,-130594,68738,40706
805.9,-25085,-130358,68839,40848
807.9,-25055,-130170,68905,40897
809.9,-24921,-130174,68946,40896
811.9,-24807,-130248,69048,40997
813.9,-24836,-130222,69081,41102
815.9,-24910,-130124,68987,41109
817.9,-24846,-130047,69026,41206
819.9,-24658,-130022,69254,41441
821.9,-24577,-130068,69300,41491
823.9,-24743,-130078,69026,41236
825.9,-24958,-129861,68776,41010
827.9,-24925,-129549,68774,41048
829.9,-24653,-129525,68875,41210
831.9,-24444,-129778,68941,41320
833.9,-24560,-129955,68965,41348
835.9,-24965,-130045,68932,41318
837.9,-25341,-130258,68835,41255
839.9,-25412,-130429,68666,41126
841.9,-25192,-130255,68418,40895
843.9,-24790,-129853,68246,40738
845.9,-24290,-129524,68336,40854
847.9,-24019,-129397,68534,41074
849.9,-24312,-129571,68533,41072
851.9,-24868,-130087,68338,40866
853.9,-25138,-130581,68143,40670
855.9,-25173,-130564,67989,40521
857.9,-25277,-130142,67847,40377
859.9,-25343,-129937,67747,40272
861.9,-25308,-130207,67718,40242
863.9,-25415,-130572,67796,40327
865.9,-25622,-130691,67937,40487
867.9,-25756,-130693,67878,40460
869.9,-26106,-130815,67506,40118
871.9,-26764,-131059,67201,39824
873.9,-27057,-131282,67271,39890
875.9,-26601,-131323,67400,40006
877.9,-25922,-131073,67238,39812
879.9,-25511,-130721,66995,39524
881.9,-25410,-130726,66938,39443
883.9,-25627,-131188,66934,39462
885.9,-25883,-131556,66852,39425
887.9,-25650,-131398,66793,39406
889.9,-25138,-131046,66768,39415
891.9,-25103,-130959,66686,39369
893.9,-25540,-131042,66631,39334
895.9,-25859,-131129,66701,39395
897.9,-25935,-131312,66771,39445
899.9,-25898,-131424,66743,39418
901.9,-25768,-131235,66743,39428
903.9,-25826,-131153,66822,39488
905.9,-26244,-131545,66833,39463
907.9,-26516,-131841,66763,39394
909.9,-26354,-131588,66787,39460
911.9,-26283,-131340,66870,39572
913.9,-26541,-131477,66807,39498
915.9,-26669,-131639,66665,39335
917.9,-26539,-131810,66677,39339
919.9,-26373,-132126,66771,39429
921.9,-26038,-131999,66724,39374
923.9,-25606,-131360,66607,39259
925.9,-25641,-131277,66601,39257
927.9,-25960,-131719,66643,39289
929.9,-25643,-131246,66645,39283
931.9,-24865,-130070,66692,39337
933.9,-24823,-130049,66790,39431
935.9,-25612,-131189,66833,39445
937.9,-26132,-131729,66862,39457
939.9,-26018,-131413,66939,39556
941.9,-25869,-131354,66934,39584
943.9,-25963,-131632,66812,39462
945.9,-26095,-131628,66795,39423
947.9,-26153,-131419,66967,39581
949.9,-26030,-131264,67092,39695
951.9,-25703,-131159,67038,39623
953.9,-25606,-131317,66965,39545
955.9,-26049,-131737,66988,39574
957.9,-26521,-131815,67017,39589
959.9,-26458,-131428,66975,39513
961.9,-26100,-131211,66897,39426
963.9,-25824,-131176,66826,39392
965.9,-25618,-130847,66779,39397
967.9,-25686,-130737,66762,39407
969.9,-26297,-131511,66788,39424
971.9,-26816,-132241,66893,39500
973.9,-26423,-131820,67027,39630
975.9,-25651,-131069,67018,39650
977.9,-25575,-131199,66845,39498
979.9,-25973,-131627,66795,39434
981.9,-25973,-131369,67008,39623
983.9,-25787,-130961,67153,39759
985.9,-26162,-131250,66949,39564
987.9,-26802,-131807,66668,39299
989.9,-26828,-131847,66684,39316
991.9,-26276,-131559,66898,39498
993.9,-25894,-131549,66963,39520
995.9,-25883,-131745,66787,39325
997.9,-25851,-131639,66555,39110
999.9,-25710,-131288,66485,39075
1001.9,-25710,-131242,66637,39246
1003.9,-25850,-131521,66855,39454
1005.9,-25982,-131608,66938,39522
1007.9,-26143,-131473,66866,39442
1009.9,-26325,-131540,66748,39294
1011.9,-26359,-131760,66652,39130
1013.9,-26232,-131731,66610,39048
1015.9,-26062,-131486,66654,39134
1017.9,-25932,-131402,66756,39310
1019.9,-26054,-131650,66846,39425
1021.9,-26497,-132031,66870,39427
1023.9,-26739,-132108,66786,39330
1025.9,-26378,-131697,66654,39198
1027.9,-25891,-131233,66667,39200
1029.9,-25783,-131152,66854,39375
1031.9,-25806,-131262,66936,39467
1033.9,-25786,-131284,66796,39338
1035.9,-26006,-131311,66715,39255
1037.9,-26369,-131377,66843,39376
1039.9,-26452,-131422,66910,39435
1041.9,-26320,-131601,66797,39304
1043.9,-26211,-131838,66808,39288
1045.9,-25994,-131654,67078,39536
1047.9,-25719,-131102,67291,39736
1049.9,-25737,-130872,67212,39664
1051.9,-25951,-131055,67044,39525
1053.9,-26024,-131038,67059,39554
1055.9,-26143,-130770,67212,39677
1057.9,-26465,-130766,67285,39711
1059.9,-26479,-130931,67220,39631
1061.9,-26033,-130788,67165,39569
1063.9,-25999,-130618,67223,39625
1065.9,-26762,-130960,67325,39760
1067.9,-27272,-131443,67363,39850
1069.9,-26787,-131436,67314,39814
1071.9,-26118,-131157,67187,39659
1073.9,-26000,-131009,67022,39466
1075.9,-25897,-130785,66947,39377
1077.9,-25490,-130414,67042,39466
1079.9,-25452,-130333,67206,39652
1081.9,-25916,-130576,67340,39829
1083.9,-26098,-130713,67457,39979
1085.9,-25818,-130712,67494,40045
1087.9,-25661,-130796,67324,39925
1089.9,-25726,-130858,67088,39716
1091.9,-25667,-130801,67066,39648
1093.9,-25481,-130816,67180,39687
1095.9,-25376,-130948,67137,39617
1097.9,-25413,-131021,66999,39491
1099.9,-25584,-131034,67050,39543
1101.9,-25785,-131173,67208,39709
1103.9,-25943,-131525,67157,39704
1105.9,-26197,-131906,66905,39491
1107.9,-26506,-131997,66690,39274
1109.9,-26500,-131826,66578,39155
1111.9,-26171,-131790,66527,39101
1113.9,-25975,-131933,66545,39076
1115.9,-26109,-131939,66566,39040
1117.9,-26449,-131927,66510,38983
1119.9,-26842,-132152,66466,38971
1121.9,-26884,-132224,66488,39003
1123.9,-26255,-131823,66435,38959
1125.9,-25552,-131494,66300,38862
1127.9,-25658,-131723,66303,38894
1129.9,-26345,-132128,66475,39053
1131.9,-26646,-132209,66576,39133
1133.9,-26346,-132037,66519,39074
1135.9,-26023,-131962,66445,38988
1137.9,-26018,-132143,66399,38913
1139.9,-26231,-132369,66352,38855
1141.9,-26546,-132342,66396,38912
1143.9,-26807,-132192,66569,39086
1145.9,-26748,-132225,66693,39188
1147.9,-26410,-132284,66640,39132
1149.9,-26204,-132117,66529,39036
1151.9,-26288,-132015,66488,38980
1153.9,-26420,-132278,66505,38943
1155.9,-26478,-132583,66540,38935
1157.9,-26524,-132581,66549,38933
1159.9,-26486,-132539,66488,38852
1161.9,-26359,-132792,66449,38725
1163.9,-26345,-133081,66595,38665
1165.9,-26417,-132939,66973,38686
1167.9,-26339,-132422,67593,38852
1169.9,-26197,-131962,68488,39334
1171.9,-26105,-131672,69483,40075
1173.9,-25705,-131223,70311,40810
1175.9,-24849,-130344,71094,41603
1177.9,-24086,-129126,72180,42823
1179.9,-23635,-127800,73448,44476
1181.9,-22918,-126469,74348,46108
1183.9,-21853,-125207,74645,47373
1185.9,-21288,-124267,74557,48250
1187.9,-21557,-123729,74180,48778
1189.9,-22007,-123129,73305,48967
1191.9,-22302,-122137,71894,48873
1193.9,-22847,-121311,70300,48530
1195.9,-23757,-121335,68864,47880
1197.9,-24626,-122020,67574,46841
1199.9,-25338,-122891,66222,45354
1201.9,-26155,-124069,64719,43427
1203.9,-27045,-125835,63221,41263
1205.9,-27581,-127925,62055,39275
1207.9,-27526,-129679,61526,37869
1209.9,-27212,-130661,61686,37212
1211.9,-27169,-131119,62308,37150
1213.9,-27372,-131629,63089,37370
1215.9,-27156,-132074,63889,37689
1217.9,-26261,-131881,64660,38070
1219.9,-25516,-131418,65247,38345
1221.9,-25750,-131572,65519,38343
1223.9,-26455,-132007,65678,38299
1225.9,-26592,-131836,65991,38545
1227.9,-26270,-131535,66314,38869
1229.9,-26305,-132001,66388,38873
1231.9,-26630,-132679,66370,38709
1233.9,-26590,-132684,66478,38718
1235.9,-26267,-132435,66536,38770
1237.9,-26208,-132549,66436,38683
1239.9,-26407,-132640,66436,38653
1241.8,-26514,-132326,66589,38761
1243.8,-26450,-131949,66636,38796
1245.8,-26338,-131815,66617,38801
1247.8,-26288,-131875,66744,38949
1249.8,-26308,-132108,66822,39015
1251.8,-26346,-132420,66651,38812
1253.8,-26516,-132573,66543,38682
1255.8,-26850,-132535,66702,38821
1257.8,-26818,-132362,66785,38881
1259.8,-26153,-131982,66662,38754
1261.8,-25782,-131610,66706,38809
1263.8,-26401,-131767,66963,39057
1265.8,-26989,-132424,66998,39079
1267.8,-26488,-132914,66746,38847
1269.8,-25708,-132879,66591,38710
1271.8,-25905,-132578,66634,38732
1273.8,-26760,-132329,66637,38719
1275.8,-27170,-132275,66546,38653
1277.8,-26887,-132485,66489,38624
1279.8,-26452,-132757,66497,38631
1281.8,-26284,-132744,66556,38664
1283.8,-26408,-132560,66678,38737
1285.8,-26659,-132631,66786,38808
1287.8,-26794,-132783,66780,38842
1289.8,-26588,-132423,66741,38875
1291.8,-26128,-131765,66812,38933
1293.8,-25855,-131684,66933,38961
1295.8,-26021,-132212,66916,38890
1297.8,-26345,-132518,66753,38751
1299.8,-26494,-132392,66661,38714
1301.8,-26514,-132384,66785,38892
1303.8,-26560,-132572,66985,39123
1305.8,-26656,-132542,67082,39195
1307.8,-26794,-132414,67136,39194
1309.8,-26879,-132625,67246,39268
1311.8,-26707,-132909,67279,39280
1313.8,-26272,-132634,67147,39127
1315.8,-25842,-131952,67045,39022
1317.8,-25636,-131633,67088,39070
1319.8,-25695,-131906,67095,39067
1321.8,-25940,-132279,67000,38956
1323.8,-26146,-132317,66993,38940
1325.8,-26125,-132037,67122,39049
1327.8,-26044,-131747,67220,39127
1329.8,-26141,-131763,67235,39152
1331.8,-26188,-132061,67239,39181
1333.8,-25965,-132277,67271,39205
1335.8,-25983,-132261,67389,39277
1337.8,-26683,-132223,67628,39451
1339.8,-27332,-132250,67815,39575
1341.8,-27046,-132212,67758,39499
1343.8,-26274,-132081,67589,39365
1345.8,-25932,-131902,67589,39389
1347.8,-26005,-131714,67760,39538
1349.8,-26103,-131661,67902,39656
1351.8,-26121,-131733,67985,39723
1353.8,-25817,-131569,68118,39805
1355.8,-25178,-131108,68243,39860
1357.8,-25002,-130945,68199,39788
1359.8,-25616,-131408,68084,39667
1361.8,-26010,-131874,68196,39733
1363.8,-25595,-131675,68529,40028
1365.8,-25250,-131128,68719,40270
1367.8,-25591,-130989,68621,40258
1369.8,-25969,-131237,68502,40164
1371.8,-25834,-131233,68556,40193
1373.8,-25507,-130970,68665,40281
1375.8,-25396,-131117,68757,40365
1377.8,-25544,-131674,68930,40553
1379.8,-25760,-131810,69166,40815
1381.8,-25689,-131285,69305,40940
1383.8,-25244,-130767,69318,40923
1385.8,-24907,-130613,69288,40940
1387.8,-24962,-130591,69255,40999
1389.8,-24989,-130639,69292,41060
1391.8,-24791,-130791,69449,41212
1393.8,-24907,-130785,69550,41370
1395.8,-25488,-130575,69447,41317
1397.8,-25766,-130525,69360,41192
1399.8,-25307,-130656,69464,41258
1401.8,-24724,-130583,69509,41350
1403.8,-24602,-130302,69363,41259
1405.8,-24711,-130146,69307,41205
1407.8,-24692,-130128,69408,41317
1409.8,-24719,-130085,69371,41337
1411.8,-25034,-130120,69224,41230
1413.8,-25326,-130288,69279,41280
1415.8,-25135,-130296,69455,41469
1417.8,-24762,-130001,69426,41499
1419.8,-24980,-129759,69235,41362
1421.8,-25632,-129863,69134,41282
1423.8,-25641,-130039,69125,41301
1425.8,-24839,-129935,69078,41301
1427.8,-24381,-129790,68989,41224
1429.8,-24806,-130029,68919,41112
1431.8,-25263,-130381,68879,41041
1433.8,-25155,-130251,68842,41030
1435.8,-24986,-129876,68796,41017
1437.8,-25111,-129996,68756,40958
1439.8,-25103,-130442,68711,40863
1441.8,-24904,-130535,68561,40691
1443.8,-25300,-130653,68268,40402
1445.8,-26463,-131446,68017,40149
1447.8,-27166,-132022,68022,40152
1449.8,-26596,-131327,68185,40319
1451.8,-25791,-130443,68204,40329
1453.8,-25871,-130823,68024,40105
1455.8,-26224,-131587,67842,39879
1457.8,-26024,-131353,67749,39781
1459.8,-25888,-130874,67688,39747
1461.8,-26372,-131254,67660,39757
1463.8,-26667,-131771,67667,39797
1465.8,-26223,-131613,67641,39766
1467.8,-25797,-131416,67597,39670
1469.8,-25960,-131669,67589,39617
1471.8,-26296,-131860,67516,39557
1473.8,-26454,-131789,67333,39417
1475.8,-26518,-131745,67237,39348
1477.8,-26418,-131589,67294,39426
1479.8,-26096,-131215,67304,39464
1481.8,-25916,-131141,67270,39449
1483.8,-26203,-131528,67400,39591
1485.8,-26764,-131737,67594,39800
1487.8,-27162,-131515,67594,39796
1489.8,-27112,-131413,67526,39684
1491.8,-26668,-131679,67585,39695
1493.8,-26224,-131882,67557,39659
1495.8,-26043,-131805,67290,39411
1497.8,-25912,-131758,67104,39242
1499.8,-25713,-131867,67213,39362
1501.8,-25818,-131870,67351,39494
1503.8,-26302,-131723,67316,39424
1505.8,-26539,-131685,67261,39340
1507.8,-26265,-131741,67286,39375
1509.8,-26063,-131622,67295,39414
1511.8,-26225,-131422,67289,39433
1513.8,-26324,-131499,67330,39496
1515.8,-26260,-131783,67354,39532
1517.8,-26428,-131859,67342,39507
1519.8,-26744,-131676,67402,39551
1521.8,-26732,-131530,67491,39656
1523.8,-26435,-131467,67472,39656
1525.8,-26252,-131341,67468,39630
1527.8,-26261,-131297,67641,39762
1529.8,-26335,-131541,67753,39853
1531.8,-26412,-131849,67533,39617
1533.8,-26375,-131960,67216,39274
1535.8,-26182,-132058,67173,39216
1537.8,-26044,-132251,67329,39379
1539.8,-26118,-132181,67420,39482
1541.8,-26266,-131773,67423,39510
1543.8,-26302,-131559,67445,39568
1545.8,-26264,-131771,67491,39625
1547.8,-26415,-132015,67473,39578
1549.8,-26853,-132041,67320,39391
1551.8,-27098,-131945,67156,39201
1553.8,-26671,-131732,67220,39231
1555.8,-26046,-131471,67421,39419
1557.8,-26050,-131482,67413,39454
1559.8,-26480,-131761,67259,39373
1561.8,-26522,-131844,67344,39513
1563.8,-26173,-131584,67594,39783
1565.8,-26028,-131371,67602,39774
1567.8,-26196,-131426,67418,39549
1569.8,-26401,-131532,67383,39485
1571.8,-26582,-131535,67488,39590
1573.8,-26786,-131557,67538,39644
1575.8,-26958,-131674,67536,39634
1577.8,-27006,-131744,67515,39592
1579.8,-26851,-131691,67452,39488
1581.8,-26575,-131710,67442,39432
1583.8,-26449,-131930,67533,39512
1585.8,-26469,-132058,67518,39529
1587.8,-26249,-131820,67302,39346
1589.8,-25836,-131551,67160,39212
1591.8,-25843,-131685,67278,39329
1593.8,-26328,-131951,67410,39473
1595.8,-26573,-131860,67314,39394
1597.8,-26333,-131587,67137,39228
1599.8,-26133,-131585,67106,39205
1601.8,-26204,-131788,67183,39296
1603.8,-26286,-131820,67248,39373
1605.8,-26360,-131625,67278,39396
1607.8,-26527,-131510,67279,39385
1609.8,-26568,-131669,67287,39388
1611.8,-26395,-131823,67366,39458
1613.8,-26356,-131649,67458,39530
1615.8,-26586,-131439,67488,39546
1617.8,-26762,-131590,67579,39633
1619.8,-26738,-131729,67770,39814
1621.8,-26707,-131417,67786,39819
1623.8,-26674,-131083,67571,39594
1625.8,-26424,-131100,67526,39520
1627.8,-26033,-131001,67752,39707
1629.8,-25871,-130640,67811,39755
1631.8,-26082,-130685,67593,39546
1633.8,-26415,-131232,67524,39468
1635.8,-26594,-131519,67699,39621
1637.8,-26596,-131371,67734,39656
1639.8,-26494,-131300,67564,39510
1641.8,-26272,-131258,67516,39479
1643.8,-26023,-130902,67641,39602
1645.8,-26059,-130649,67689,39649
1647.8,-26437,-130948,67628,39608
1649.8,-26657,-131248,67613,39619
1651.8,-26417,-131016,67634,39650
1653.8,-26178,-130788,67622,39642
1655.8,-26324,-131005,67676,39725
1657.8,-26483,-131099,67853,39939
1659.8,-26372,-130784,67952,40052
1661.8,-26385,-130730,67823,39920
1663.8,-26697,-131127,67655,39757
1665.8,-26824,-131224,67677,39785
1667.8,-26541,-130878,67782,39875
1669.8,-26216,-130878,67733,39790
1671.8,-26057,-131368,67567,39586
1673.8,-25947,-131540,67515,39517
1675.8,-25884,-131098,67619,39642
1677.8,-25887,-130687,67673,39728
1679.8,-25933,-130815,67552,39620
1681.8,-26225,-131331,67402,39481
1683.8,-26715,-131848,67361,39473
1685.8,-26694,-132056,67276,39416
1687.8,-26005,-131922,67028,39154
1689.8,-25705,-131798,66899,38989
1691.8,-26303,-131960,67094,39165
1693.8,-26848,-132168,67226,39303
1695.8,-26756,-132177,66982,39056
1697.8,-26632,-132228,66764,38818
1699.8,-26759,-132468,66929,38968
1701.8,-26767,-132549,67065,39116
1703.8,-26735,-132345,66834,38916
1705.8,-26965,-132268,66662,38760
1707.8,-27242,-132461,66887,38965
1709.8,-27330,-132518,67125,39169
1711.8,-27288,-132329,67035,39068
1713.8,-27035,-132278,66851,38898
1715.8,-26587,-132395,66813,38865
1717.8,-26374,-132255,66816,38845
1719.8,-26475,-131822,66778,38783
1721.8,-26379,-131513,66796,38803
1723.8,-26054,-131507,66886,38920
1725.8,-26079,-131723,66963,39023
1727.8,-26457,-132102,67024,39089
1729.8,-26571,-132413,67095,39150
1731.8,-26393,-132403,67112,39162
1733.8,-26389,-132320,67020,39062
1735.8,-26492,-132485,66904,38896
1737.8,-26417,-132679,66905,38782
1739.8,-26363,-132700,67092,38776
1741.8,-26441,-132710,67471,38838
1743.8,-26458,-132605,68029,38950
1745.8,-26660,-132179,68759,39237
1747.8,-27224,-131799,69685,39877
1749.8,-27295,-131634,70783,40864
1751.8,-26275,-130906,71901,41988
1753.8,-25061,-129210,72910,43144
1755.8,-24443,-127470,73841,44490
1757.8,-23890,-126463,74662,46080
1759.8,-22991,-125598,75141,47576
1761.8,-22182,-124134,75126,48612
1763.8,-21712,-122557,74661,49175
1765.8,-21636,-121813,73728,49405
1767.8,-22291,-121813,72279,49294
1769.8,-23494,-121713,70522,48779
1771.8,-24483,-121421,68822,47886
1773.8,-25180,-121721,67393,46706
1775.8,-26037,-122850,66201,45294
1777.8,-26884,-124200,64987,43569
1779.8,-27339,-125540,63584,41488
1781.8,-27498,-127207,62365,39442
1783.8,-27370,-129020,61938,38073
1785.8,-26851,-130229,62325,37566
1787.8,-26425,-130604,63058,37590
1789.8,-26570,-130716,63869,37851
1791.8,-26870,-131100,64688,38200
1793.8,-26820,-131629,65341,38454
1795.8,-26671,-131912,65774,38570
1797.8,-26710,-131958,66121,38675
1799.8,-26745,-132025,66394,38783
1801.8,-26715,-132093,66544,38838
1803.8,-26770,-132082,66662,38910
1805.8,-26717,-132118,66791,39007
1807.8,-26380,-132091,66844,39001
1809.8,-26193,-131790,66851,38912
1811.8,-26546,-131668,66890,38863
1813.8,-27061,-132263,66888,38825
1815.8,-27246,-133041,66814,38737
1817.8,-27176,-133145,66808,38697
1819.8,-27084,-132764,66932,38782
1821.8,-27049,-132601,67083,38924
1823.8,-27137,-132726,67161,39025
1825.8,-27178,-132786,67118,38995
1827.8,-26846,-132657,66984,38829
1829.8,-26433,-132442,66942,38730
1831.8,-26605,-132299,67125,38884
1833.8,-27131,-132348,67332,39104
1835.8,-27129,-132504,67275,39074
1837.8,-26605,-132545,67050,38857
1839.8,-26451,-132450,67018,38818
1841.8,-26997,-132452,67269,39070
1843.8,-27587,-132581,67479,39297
1845.8,-27469,-132484,67387,39213
1847.8,-26611,-132013,67130,38940
1849.8,-25777,-131671,66965,38749
1851.8,-25739,-131886,66913,38688
1853.8,-26294,-132227,66918,38699
1855.8,-26562,-132142,67043,38823
1857.8,-26318,-131969,67254,39020
1859.8,-26158,-132242,67359,39116
1861.8,-26405,-132648,67330,39105
1863.8,-26818,-132716,67323,39141
1865.8,-27243,-132753,67332,39184
1867.8,-27583,-133018,67246,39105
1869.8,-27460,-132991,67165,39011
1871.8,-26810,-132431,67248,39066
1873.8,-26354,-132021,67386,39169
1875.8,-26600,-132186,67387,39149
1877.8,-27056,-132513,67302,39058
1879.8,-27184,-132722,67276,39024
1881.8,-27223,-132892,67312,39052
1883.8,-27350,-132799,67359,39113
1885.8,-27117,-132311,67445,39224
1887.8,-26449,-131983,67557,39332
1889.8,-26024,-132094,67591,39331
1891.8,-26103,-132091,67536,39242
1893.8,-26260,-131844,67530,39227
1895.8,-26456,-132010,67635,39338
1897.8,-26905,-132492,67734,39438
1899.8,-27112,-132376,67738,39430
1901.8,-26633,-131762,67699,39376
1903.8,-26188,-131663,67679,39356
1905.8,-26518,-132098,67709,39383
1907.8,-27081,-132246,67828,39466
1909.8,-27114,-132070,67976,39560
1911.8,-26766,-132033,67988,39542
1913.8,-26448,-131995,67890,39434
1915.8,-26282,-131776,67910,39443
1917.8,-26393,-131763,68067,39595
1919.8,-26703,-132083,68137,39670
1921.8,-26758,-132307,68115,39636
1923.8,-26447,-132239,68221,39715
1925.8,-26183,-131988,68445,39920
1927.8,-26148,-131579,68547,40007
1929.8,-26157,-131242,68476,39898
1931.8,-26203,-131340,68396,39761
1933.8,-26414,-131680,68379,39709
1935.8,-26674,-131751,68415,39737
1937.8,-26774,-131581,68572,39879
1939.8,-26675,-131543,68836,40116
1941.8,-26485,-131690,68985,40262
1943.8,-26394,-131862,68924,40222
1945.8,-26534,-131950,68900,40202
1947.8,-26758,-131863,69070,40356
1949.8,-26754,-131672,69231,40518
1951.8,-26423,-131558,69260,40566
1953.8,-25969,-131387,69305,40618
1955.8,-25650,-130953,69376,40678
1957.8,-25582,-130623,69376,40672
1959.8,-25664,-130834,69471,40783
1961.8,-25656,-131170,69737,41096
1963.8,-25461,-130986,69840,41257
1965.8,-25296,-130543,69667,41107
1967.8,-25375,-130463,69576,40999
1969.8,-25512,-130628,69660,41080
1971.8,-25386,-130573,69673,41126
1973.8,-25144,-130423,69675,41170
1975.8,-25209,-130564,69835,41361
1977.8,-25505,-130844,69936,41483
1979.8,-25588,-130805,69821,41395
1981.8,-25522,-130411,69726,41366
1983.8,-25701,-130056,69769,41501
1985.8,-25921,-130021,69769,41552
1987.8,-25748,-130215,69676,41454
1989.8,-25495,-130382,69614,41404
1991.8,-25640,-130399,69613,41460
1993.8,-25806,-130319,69610,41502
1995.8,-25491,-130192,69554,41460
1997.8,-25095,-130057,69444,41377
1999.8,-25183,-130091,69382,41359
2001.8,-25520,-130383,69438,41441
2003.8,-25634,-130600,69481,41502
2005.8,-25599,-130454,69360,41411
2007.8,-25667,-130307,69150,41213
2009.8,-25796,-130573,69047,41082
2011.8,-25862,-130916,69096,41101
2013.8,-25893,-130863,69130,41131
2015.8,-25948,-130621,69014,41010
2017.8,-26055,-130518,68837,40821
2019.8,-26227,-130432,68694,40694
2021.8,-26370,-130320,68521,40550
2023.8,-26325,-130450,68362,40391
2025.8,-26081,-130793,68401,40423
2027.8,-25891,-131002,68533,40579
2029.8,-26091,-131041,68462,40519
2031.8,-26689,-131173,68247,40265
2033.8,-27127,-131435,68127,40113
2035.8,-26873,-131596,68040,40038
2037.8,-26326,-131575,67890,39890
2039.8,-26358,-131601,67841,39816
2041.8,-26869,-131815,67939,39914
2043.8,-26976,-131904,67977,39991
2045.8,-26654,-131595,67925,39984
2047.8,-26629,-131311,67927,40018
2049.8,-26798,-131576,67902,40017
2051.8,-26583,-132017,67683,39806
2053.8,-26386,-131966,67425,39537
2055.8,-26762,-131620,67421,39528
2057.8,-27072,-131555,67643,39768
2059.8,-26726,-131694,67792,39948
2061.8,-26402,-131711,67734,39903
2063.8,-26623,-131720,67610,39755
2065.8,-26806,-131870,67545,39657
2067.8,-26696,-131995,67516,39617
2069.8,-26823,-131964,67500,39613
2071.8,-27150,-131843,67552,39688
2073.8,-27106,-131776,67664,39832
2075.8,-26826,-131893,67702,39891
2077.8,-26710,-131988,67595,39773
2079.8,-26479,-131651,67518,39677
2081.8,-25977,-131094,67690,39856
2083.8,-25802,-130982,67953,40141
2085.8,-26217,-131250,67927,40123
2087.8,-26679,-131362,67671,39847
2089.8,-26847,-131483,67645,39773
2091.8,-26853,-131892,67873,39951
2093.8,-26791,-132014,67917,39970
2095.8,-26871,-131579,67771,39830
2097.8,-27340,-131415,67852,39937
2099.8,-27685,-131837,68048,40170
2101.8,-27179,-132027,67873,40009
2103.8,-26346,-131816,67499,39603
2105.8,-26268,-131954,67501,39565
2107.8,-26663,-132298,67782,39857
2109.8,-26526,-132025,67821,39937
2111.8,-26120,-131483,67638,39764
2113.8,-26349,-131592,67614,39716
2115.8,-26881,-132016,67756,39846
2117.8,-26845,-131957,67815,39911
2119.8,-26505,-131689,67744,39841
2121.8,-26518,-131641,67664,39755
2123.8,-26650,-131476,67629,39714
2125.8,-26646,-131244,67611,39688
2127.8,-26958,-131561,67604,39683
2129.8,-27530,-132074,67664,39765
2131.8,-27459,-131841,67809,39932
2133.8,-26590,-131193,67929,40059
2135.8,-25904,-131149,67909,40043
2137.8,-25978,-131554,67753,39899
2139.8,-26373,-131621,67580,39735
2141.8,-26656,-131434,67529,39692
2143.8,-26926,-131523,67616,39787
2145.8,-27205,-131799,67690,39849
2147.8,-27106,-131823,67692,39813
2149.8,-26477,-131590,67754,39853
2151.8,-25893,-131498,67865,39967
2153.8,-25949,-131707,67809,39911
2155.8,-26459,-131926,67588,39692
2157.8,-26916,-131940,67452,39588
2159.8,-27177,-131869,67467,39643
2161.8,-27211,-131796,67504,39687
2163.8,-26924,-131716,67521,39695
2165.8,-26553,-131738,67523,39696
2167.8,-26461,-131784,67477,39645
2169.8,-26621,-131638,67409,39568
2171.8,-26858,-131563,67379,39546
2173.8,-27108,-131882,67388,39573
2175.8,-27163,-132154,67457,39641
2177.8,-26847,-131895,67559,39735
2179.8,-26433,-131420,67526,39710
2181.8,-26238,-131122,67326,39526
2183.8,-26215,-131023,67226,39434
2185.8,-26318,-131273,67385,39582
2187.8,-26574,-131791,67556,39732
2189.8,-26758,-131922,67515,39680
2191.8,-26765,-131585,67408,39593
2193.8,-26909,-131537,67451,39667
2195.8,-27207,-131804,67618,39824
2197.8,-27208,-131626,67786,39938
2199.8,-27011,-131154,67905,40015
2201.8,-27139,-131152,67938,40059
2203.8,-27328,-131358,67911,40067
2205.8,-27025,-131131,67973,40134
2207.8,-26716,-130908,68143,40275
2209.8,-27026,-131262,68154,40270
2211.8,-27351,-131659,67889,40014
2213.8,-27032,-131511,67675,39792
2215.8,-26597,-131142,67744,39846
2217.8,-26547,-130881,67881,40015
2219.8,-26522,-130619,67912,40111
2221.8,-26391,-130503,67960,40185
2223.8,-26459,-130707,68010,40225
2225.8,-26504,-130855,67886,40116
2227.8,-26255,-130791,67686,39947
2229.8,-26235,-130978,67612,39889
2231.8,-26689,-131363,67610,39907
2233.8,-26845,-131276,67619,39950
2235.8,-26392,-130848,67735,40079
2237.8,-26171,-130834,67900,40237
2239.8,-26545,-131138,67947,40303
2241.8,-26806,-131128,67911,40303
2243.8,-26669,-130843,67838,40228
2245.8,-26598,-130660,67659,40001
2247.8,-26597,-130637,67521,39820
2249.8,-26282,-130796,67680,39977
2251.8,-25848,-131041,67945,40273
2253.8,-25720,-130978,67914,40256
2255.8,-25848,-130762,67626,39950
2257.8,-26040,-131108,67369,39695
2259.8,-26295,-131882,67167,39544
2261.8,-26586,-132199,66955,39382
2263.8,-26882,-132067,66855,39278
2265.8,-27126,-132153,66908,39307
2267.8,-27063,-132315,66952,39351
2269.8,-26684,-132079,66898,39299
2271.8,-26534,-131835,66811,39176
2273.8,-26900,-132098,66759,39073
2275.8,-27304,-132486,66798,39099
2277.8,-27274,-132501,66950,39286
2279.8,-26966,-132368,67088,39476
2281.8,-26813,-132383,67081,39507
2283.8,-27002,-132331,67003,39436
2285.8,-27325,-132088,66955,39367
2287.8,-27478,-132025,66884,39283
2289.8,-27493,-132348,66812,39245
2291.8,-27478,-132661,66890,39363
2293.8,-27167,-132562,67023,39479
2295.8,-26528,-132198,66958,39359
2297.8,-26320,-131995,66798,39188
2299.8,-26959,-132146,66835,39259
2301.8,-27553,-132468,66982,39409
2303.8,-27240,-132615,66990,39373
2305.8,-26620,-132483,66952,39304
2307.8,-26683,-132330,66995,39356
2309.8,-27188,-132369,66926,39300
2311.8,-27284,-132557,66676,39031
2313.8,-26934,-132867,66560,38837
2315.8,-26677,-133236,66754,38864
2317.8,-26641,-133308,67091,38923
2319.8,-26647,-132860,67519,38979
2321.8,-26660,-132287,68184,39237
2323.8,-26630,-132040,69057,39758
2325.8,-26428,-131914,69985,40458
2327.8,-26026,-131357,71018,41372
2329.8,-25352,-130111,72299,42601
2331.8,-24377,-128411,73703,44128
2333.8,-23469,-126781,74812,45791
2335.8,-22904,-125514,75312,47319
2337.8,-22354,-124363,75303,48500
2339.8,-21788,-123134,75055,49352
2341.8,-21870,-122109,74508,49958
2343.8,-22552,-121361,73411,50224
2345.8,-22927,-120577,71908,50044
2347.8,-23103,-120044,70413,49460
2349.8,-24058,-120551,69012,48494
2351.8,-25469,-121967,67550,47135
2353.8,-26132,-123319,66049,45460
2355.8,-26241,-124414,64621,43543
2357.8,-26820,-125967,63377,41488
2359.8,-27605,-128101,62634,39696
2361.8,-27672,-129920,62678,38650
2363.8,-27216,-130702,63328,38390
2365.8,-26997,-130746,64180,38570
2367.8,-27002,-130795,65048,38906
2369.8,-26871,-131085,65812,39210
2371.8,-26723,-131359,66233,39283
2373.8,-26765,-131540,66293,39126
2375.8,-26822,-131799,66342,39036
2377.8,-26748,-132060,66629,39216
2379.8,-26682,-132066,66962,39481
2381.8,-26717,-131942,67028,39511
2383.8,-26834,-132156,66860,39292
2385.8,-27095,-132827,66749,39106
2387.8,-27441,-133433,66791,39094
2389.8,-27576,-133386,66773,39072
2391.8,-27408,-132779,66609,38903
2393.8,-27228,-132262,66579,38829
2395.8,-27250,-132166,66873,39069
2397.8,-27331,-132172,67156,39331
2399.8,-27228,-132031,67061,39246
2401.8,-26904,-132027,66842,39025
2403.8,-26680,-132365,66922,39069
2405.8,-26911,-132672,67130,39243
2407.8,-27363,-132621,67109,39221
2409.8,-27400,-132461,67000,39126
2411.8,-26992,-132473,67052,39180
2413.8,-26760,-132529,67100,39219
2415.8,-26883,-132546,67006,39103
2417.8,-26918,-132632,66973,39053
2419.8,-26801,-132663,67099,39207
2421.8,-27013,-132531,67234,39386
2423.8,-27563,-132540,67333,39468
2425.8,-27733,-132718,67415,39482
2427.8,-27229,-132569,67332,39371
2429.8,-26756,-132159,67096,39160
2431.8,-26882,-132118,67047,39124
2433.8,-27111,-132302,67280,39345
2435.8,-26892,-132116,67416,39470
2437.8,-26622,-131852,67261,39312
2439.8,-26791,-132019,67136,39193
2441.8,-27121,-132284,67267,39341
2443.8,-27303,-132363,67447,39525
2445.8,-27480,-132490,67469,39532
2447.8,-27567,-132491,67387,39452
2449.8,-27288,-132130,67271,39360
2451.8,-26924,-132016,67135,39235
2453.8,-26851,-132465,67100,39182
2455.8,-26771,-132623,67273,39332
2457.8,-26426,-132082,67511,39557
2459.8,-26301,-131745,67561,39610
2461.8,-26745,-132124,67410,39470
2463.8,-27247,-132488,67274,39315
2465.8,-27288,-132313,67283,39275
2467.8,-27076,-132059,67388,39359
2469.8,-26991,-132182,67533,39520
2471.8,-27045,-132480,67652,39621
2473.8,-27188,-132613,67646,39542
2475.8,-27440,-132553,67571,39416
2477.8,-27572,-132392,67632,39493
2479.8,-27252,-132134,67858,39751
2481.8,-26602,-131739,68075,39980
2483.8,-26139,-131299,68178,40086
2485.8,-26176,-131186,68122,40016
2487.8,-26568,-131678,67896,39728
2489.8,-26961,-132318,67723,39477
2491.8,-27087,-132323,67858,39580
2493.8,-26976,-131792,68133,39853
2495.8,-26892,-131580,68208,39901
2497.8,-26952,-131899,68129,39769
2499.8,-26997,-132134,68136,39750
2501.8,-26938,-131980,68228,39846
2503.8,-26875,-131751,68320,39930
2505.8,-26818,-131670,68463,40041
2507.8,-26632,-131621,68685,40225
2509.8,-26320,-131510,68868,40377
2511.8,-26083,-131461,68896,40378
2513.8,-26162,-131580,68825,40275
2515.8,-26690,-131711,68865,40292
2517.8,-27436,-131632,69135,40563
2519.8,-27788,-131372,69430,40865
2521.8,-27406,-131076,69477,40878
2523.8,-26709,-130843,69339,40676
2525.8,-26284,-130881,69301,40613
2527.8,-26122,-131254,69433,40776
2529.8,-25953,-131530,69558,40930
2531.8,-25877,-131360,69573,40955
2533.8,-26090,-131034,69570,40964
2535.8,-26343,-130862,69656,41049
2537.8,-26268,-130707,69823,41198
2539.8,-25924,-130538,69988,41369
2541.8,-25670,-130582,70064,41484
2543.8,-25706,-130804,70019,41463
2545.8,-25929,-130966,69923,41370
2547.8,-26108,-130998,69877,41346
2549.8,-26228,-130885,69920,41432
2551.8,-26531,-130630,70056,41612
2553.8,-26939,-130406,70241,41843
2555.8,-26897,-130318,70310,41948
2557.8,-26322,-130236,70166,41802
2559.8,-25943,-130149,69981,41603
2561.8,-26067,-130202,69915,41562
2563.8,-26034,-130273,69849,41562
2565.8,-25566,-130128,69703,41478
2567.8,-25345,-129940,69646,41458
2569.8,-25627,-129979,69758,41605
2571.8,-25741,-130013,69910,41803
2573.8,-25492,-129758,70003,41936
2575.8,-25539,-129580,69988,41945
2577.8,-26023,-129973,69805,41774
2579.8,-26353,-130658,69528,41497
2581.8,-26375,-130972,69319,41298
2583.8,-26343,-130782,69220,41247
2585.8,-26099,-130368,69189,41261
2587.8,-25553,-129928,69200,41248
2589.8,-25292,-129720,69187,41186
2591.8,-25703,-130067,69088,41089
2593.8,-26317,-130815,68926,40957
2595.8,-26621,-131373,68735,40774
2597.8,-26658,-131414,68543,40593
2599.8,-26616,-131105,68419,40502
2601.8,-26565,-130846,68386,40480
2603.8,-26580,-130993,68381,40455
2605.8,-26691,-131423,68400,40473
2607.8,-26836,-131554,68468,40580
2609.8,-26961,-131215,68488,40640
2611.8,-27007,-130935,68361,40514
2613.8,-26925,-131063,68176,40303
2615.8,-26805,-131378,68076,40193
2617.8,-26789,-131617,68072,40207
2619.8,-26890,-131666,68094,40251
2621.8,-26986,-131492,68101,40267
2623.8,-26942,-131328,68068,40245
2625.8,-26771,-131446,68009,40203
2627.8,-26721,-131701,67972,40177
2629.8,-26948,-131891,67917,40137
2631.8,-27210,-132147,67774,40020
2633.8,-27190,-132390,67671,39917
2635.8,-26919,-132174,67786,39995
2637.8,-26619,-131575,67944,40140
2639.8,-26461,-131317,67830,40073
2641.8,-26564,-131615,67580,39854
2643.8,-26818,-131862,67592,39817
2645.8,-26904,-131731,67816,39977
2647.8,-26831,-131636,67871,40037
2649.8,-26969,-131829,67743,39945
2651.8,-27239,-131934,67733,39939
2653.8,-27124,-131693,67867,40079
2655.8,-26690,-131435,67927,40178
2657.8,-26546,-131479,67893,40160
2659.8,-26722,-131636,67875,40114
2661.8,-26787,-131595,67833,40056
2663.8,-26886,-131462,67729,39956
2665.8,-27280,-131534,67714,39922
2667.8,-27382,-131703,67836,40020
2669.8,-26772,-131594,67891,40091
2671.8,-26334,-131338,67815,40030
2673.8,-26806,-131420,67829,40027
2675.8,-27407,-131742,67981,40188
2677.8,-27345,-131855,68000,40265
2679.8,-27093,-131865,67825,40103
2681.8,-27047,-132026,67760,39977
2683.8,-26827,-132097,67917,40088
2685.8,-26518,-132007,68009,40192
2687.8,-26622,-132007,67892,40088
2689.8,-26818,-131817,67785,39973
2691.8,-26595,-131192,67782,39982
2693.8,-26454,-130949,67728,39942
2695.8,-26934,-131634,67654,39844
2697.8,-27533,-132286,67767,39922
2699.8,-27695,-132161,67978,40130
2701.8,-27659,-131946,68016,40177
2703.8,-27726,-132086,67916,40079
2705.8,-27734,-132028,67891,40064
2707.8,-27509,-131762,67909,40084
2709.8,-27149,-131913,67835,39986
2711.8,-26813,-132245,67759,39896
2713.8,-26593,-132067,67811,39973
2715.8,-26518,-131641,67865,40056
2717.8,-26599,-131552,67781,39979
2719.8,-26786,-131574,67708,39912
2721.8,-26877,-131406,67808,40024
2723.8,-26756,-131414,67912,40121
2725.8,-26676,-131778,67838,40024
2727.8,-26843,-131990,67758,39933
2729.8,-26981,-131813,67823,40004
2731.8,-26942,-131744,67822,40010
2733.8,-27117,-132083,67642,39836
2735.8,-27529,-132371,67549,39748
2737.8,-27496,-132211,67701,39885
2739.8,-26895,-131935,67890,40043
2741.8,-26519,-131898,67923,40078
2743.8,-26692,-131844,67817,40018
2745.8,-26893,-131575,67664,39883
2747.8,-26977,-131498,67586,39761
2749.8,-27245,-131836,67664,39808
2751.8,-27454,-132104,67810,39993
2753.8,-27236,-131986,67883,40118
2755.8,-27055,-131905,67848,40086
2757.8,-27353,-132177,67726,39934
2759.8,-27561,-132422,67610,39794
2761.8,-27197,-132265,67660,39843
2763.8,-26802,-131850,67817,40015
2765.8,-26812,-131434,67839,40031
2767.8,-26888,-131169,67756,39907
2769.8,-26899,-131212,67850,39970
2771.8,-27081,-131457,68097,40238
2773.8,-27258,-131515,68223,40392
2775.8,-27254,-131340,68226,40376
2777.8,-27385,-131227,68293,40396
2779.8,-27571,-131169,68359,40425
2781.8,-27230,-131052,68253,40305
2783.8,-26549,-131080,68103,40158
2785.8,-26373,-131301,68124,40196
2787.8,-26821,-131426,68232,40322
2789.8,-27298,-131419,68214,40306
2791.8,-27405,-131363,68108,40195
2793.8,-27072,-131106,68101,40195
2795.8,-26543,-130792,68199,40308
2797.8,-26344,-130820,68256,40359
2799.8,-26590,-131003,68217,40309
2801.8,-26821,-130984,68155,40292
2803.8,-26921,-131059,68121,40353
2805.8,-27228,-131347,68078,40364
2807.8,-27672,-131313,67989,40245
2809.8,-27825,-131001,67945,40142
2811.8,-27603,-131071,68076,40250
2813.8,-27168,-131348,68312,40493
2815.8,-26677,-131192,68394,40582
2817.8,-26408,-130909,68233,40425
2819.8,-26491,-131081,68022,40226
2821.8,-26616,-131385,67932,40140
2823.8,-26548,-131372,67949,40133
2825.8,-26448,-131307,68039,40192
2827.8,-26407,-131468,68184,40327
2829.8,-26345,-131667,68251,40417
2831.8,-26395,-131738,68072,40289
2833.8,-26659,-131744,67682,39944
2835.8,-26893,-131800,67354,39610
2837.8,-27034,-132081,67302,39529
2839.8,-27443,-132626,67399,39648
2841.8,-28098,-133057,67340,39643
2843.8,-28341,-132992,67120,39431
2845.8,-27897,-132576,67033,39310
2847.8,-27340,-132201,67146,39394
2849.8,-27227,-132053,67205,39420
2851.8,-27494,-132184,67136,39323
2853.8,-27756,-132488,67130,39363
2855.8,-27589,-132559,67213,39548
2857.8,-26854,-132183,67234,39597
2859.8,-26177,-131820,67232,39505
2861.8,-26413,-131959,67348,39526
2863.8,-27337,-132350,67495,39674
2865.8,-27881,-132522,67487,39719
2867.8,-27707,-132539,67351,39595
2869.8,-27422,-132671,67250,39466
2871.8,-27376,-132832,67248,39477
2873.8,-27368,-132806,67314,39596
2875.8,-27283,-132628,67381,39661
2877.8,-27184,-132442,67377,39571
2879.8,-27076,-132283,67307,39439
2881.8,-27036,-132217,67278,39425
2883.8,-27229,-132465,67314,39480
2885.8,-27564,-133016,67293,39422
2887.8,-27624,-133312,67212,39249
2889.8,-27250,-132939,67302,39152
2891.8,-27043,-132460,67714,39224
2893.8,-27594,-132615,68313,39381
2895.8,-28213,-132981,68944,39616
2897.8,-27715,-132668,69671,40107
2899.8,-26491,-131826,70625,40978
2901.8,-25895,-131051,71850,42173
2903.8,-25679,-130094,73258,43610
2905.8,-24490,-128544,74533,45213
2907.8,-22587,-126762,75277,46771
2909.8,-21439,-125087,75457,48039
2911.8,-21311,-123416,75353,48967
2913.8,-21503,-122063,74949,49603
2915.8,-21791,-121430,73986,49928
2917.8,-22056,-120974,72614,49927
2919.8,-22131,-120270,71243,49594
2921.8,-22638,-120202,69910,48830
2923.8,-24128,-121352,68473,47609
2925.8,-25818,-122831,67018,46073
2927.8,-26877,-124172,65561,44261
2929.8,-27597,-126090,64065,42175
2931.8,-28081,-128367,62990,40254
2933.8,-27852,-129703,62917,39118
2935.8,-27341,-130058,63606,38790
2937.8,-27434,-130546,64359,38792
2939.8,-27740,-131326,65021,38894
2941.8,-27484,-131813,65758,39131
2943.8,-27119,-132050,66377,39354
2945.8,-27262,-132312,66669,39388
2947.8,-27540,-132494,66872,39371
2949.8,-27624,-132562,67168,39484
2951.8,-27686,-132517,67317,39591
2953.8,-27593,-132188,67186,39500
2955.8,-27378,-131923,67064,39339
2957.8,-27713,-132371,67159,39340
2959.8,-28358,-133007,67309,39462
2961.8,-27961,-132631,67359,39509
2963.8,-26720,-131688,67360,39447
2965.8,-26583,-131818,67355,39378
2967.8,-27738,-132910,67338,39369
2969.8,-28173,-133213,67358,39417
2971.8,-27319,-132461,67406,39463
2973.8,-26757,-132156,67378,39420
2975.8,-27141,-132718,67266,39289
2977.8,-27503,-133051,67192,39187
2979.8,-27393,-132791,67213,39193
2981.8,-27240,-132603,67290,39268
2983.8,-27142,-132609,67350,39316
2985.8,-26996,-132457,67324,39268
2987.8,-27109,-132336,67286,39203
2989.8,-27587,-132499,67419,39294
2991.8,-27870,-132610,67642,39505
2993.8,-27538,-132406,67656,39582
2995.8,-26992,-132166,67484,39479
2997.8,-26845,-132128,67460,39436
2999.8,-27043,-132226,67624,39548
3001.8,-27169,-132413,67711,39648
3003.8,-27257,-132644,67651,39621
3005.8,-27561,-132723,67591,39522
3007.8,-27793,-132576,67599,39468
3009.8,-27558,-132424,67650,39514
3011.8,-27188,-132451,67658,39542
3013.8,-27214,-132582,67528,39413
3015.8,-27518,-132714,67380,39277
3017.8,-27747,-132868,67446,39365
3019.8,-27821,-132967,67651,39554
3021.8,-27661,-132816,67724,39592
3023.8,-27256,-132505,67656,39523
3025.8,-26961,-132310,67612,39494
3027.8,-27001,-132179,67625,39496
3029.8,-27187,-132062,67671,39516
3031.8,-27468,-132400,67748,39568
3033.8,-27786,-133169,67806,39610
3035.8,-27638,-133247,67870,39677
3037.8,-27002,-132192,68030,39843
3039.8,-26847,-131343,68179,39978
3041.8,-27492,-131641,68093,39878
3043.8,-27881,-132141,67830,39622
3045.8,-27479,-132027,67693,39474
3047.8,-27098,-131963,67802,39547
3049.8,-27219,-132386,67972,39727
3051.8,-27371,-132638,68043,39848
3053.8,-27332,-132423,68073,39871
3055.8,-27307,-132242,68152,39877
3057.8,-27193,-132252,68204,39879
3059.8,-26910,-132200,68154,39807
3061.8,-26850,-132161,68117,39723
3063.8,-27140,-132250,68206,39769
3065.8,-27274,-132189,68341,39900
3067.8,-26996,-131886,68454,39994
3069.8,-26674,-131689,68627,40105
3071.8,-26550,-131654,68832,40267
3073.8,-26510,-131473,68877,40310
3075.8,-26675,-131294,68789,40214
3077.8,-27257,-131592,68837,40235
3079.8,-27900,-132191,69037,40417
3081.8,-28006,-132462,69125,40486
3083.8,-27558,-132286,69074,40421
3085.8,-27001,-131893,69114,40480
3087.8,-26631,-131354,69232,40623
3089.8,-26481,-130975,69240,40595
3091.8,-26478,-131185,69204,40488
3093.8,-26589,-131694,69297,40552
3095.8,-26823,-131921,69457,40724
3097.8,-26951,-131937,69549,40823
3099.8,-26670,-131902,69573,40834
3101.8,-26319,-131574,69550,40800
3103.8,-26577,-131177,69592,40842
3105.8,-27181,-131281,69893,41151
3107.8,-27169,-131528,70316,41577
3109.8,-26527,-131212,70427,41695
3111.8,-26172,-130702,70227,41522
3113.8,-26325,-130643,70179,41500
3115.8,-26371,-130667,70363,41688
3117.8,-26158,-130336,70404,41749
3119.8,-26098,-130122,70257,41664
3121.8,-26205,-130376,70216,41680
3123.8,-26130,-130569,70271,41755
3125.8,-25896,-130358,70204,41713
3127.8,-25809,-130247,70085,41642
3129.8,-25939,-130549,70111,41697
3131.8,-26125,-130720,70218,41814
3133.8,-26192,-130388,70222,41842
3135.8,-26034,-130110,70103,41766
3137.8,-25775,-130347,70003,41705
3139.8,-25659,-130560,70031,41769
3141.8,-25666,-130224,70116,41889
3143.8,-25651,-129867,70121,41916
3145.8,-25781,-130124,70079,41885
3147.8,-26223,-130570,70060,41882
3149.8,-26673,-130495,69951,41784
3151.8,-26738,-130090,69763,41586
3153.8,-26442,-129940,69784,41602
3155.8,-26088,-130004,70016,41856
3157.8,-25991,-130006,70006,41868
3159.8,-26308,-130161,69635,41491
3161.8,-26752,-130620,69352,41203
3163.8,-26793,-130908,69381,41247
3165.8,-26480,-130838,69418,41285
3167.8,-26468,-131085,69247,41084
3169.8,-26911,-131834,69007,40836
3171.8,-27170,-132127,68854,40728
3173.8,-26956,-131596,68797,40731
3175.8,-26812,-131245,68775,40728
3177.8,-27030,-131532,68690,40616
3179.8,-27173,-131658,68531,40439
3181.8,-27045,-131415,68454,40382
3183.8,-27036,-131462,68501,40448
3185.8,-27230,-131632,68489,40420
3187.8,-27338,-131359,68395,40317
3189.8,-27454,-131219,68435,40387
3191.8,-27753,-131762,68572,40555
3193.8,-27841,-132137,68511,40499
3195.8,-27449,-131795,68273,40261
3197.8,-27012,-131604,68156,40149
3199.8,-26819,-131946,68191,40188
3201.8,-26635,-132032,68171,40178
3203.8,-26510,-131773,68052,40069
3205.8,-26709,-131880,67935,39949
3207.8,-26956,-132184,67894,39898
3209.8,-26936,-132095,67972,39970
3211.8,-26984,-131932,68118,40118
3213.8,-27289,-132038,68204,40219
3215.8,-27369,-131907,68209,40247
3217.8,-27105,-131461,68210,40241
3219.8,-27065,-131485,68176,40168
3221.8,-27348,-132054,68066,40039
3223.8,-27443,-132341,68028,40023
3225.8,-27339,-132135,68178,40196
3227.8,-27424,-131887,68338,40357
3229.8,-27518,-131711,68287,40294
3231.8,-27266,-131657,68114,40096
3233.8,-26898,-131922,68049,40000
3235.8,-26684,-132103,68114,40061
3237.8,-26523,-131716,68215,40193
3239.8,-26547,-131346,68344,40339
3241.8,-26987,-131606,68399,40376
3243.8,-27442,-131961,68229,40183
3245.8,-27446,-131989,68017,39969
3247.8,-27272,-132082,68090,40050
3249.8,-27252,-132197,68311,40279
3251.8,-27213,-132026,68349,40316
3253.8,-27152,-132035,68295,40255
3255.8,-27291,-132360,68341,40299
3257.8,-27410,-132173,68333,40296
3259.8,-27265,-131516,68220,40176
3261.8,-27196,-131415,68255,40191
3263.8,-27420,-131839,68402,40331
3265.8,-27638,-132113,68350,40280
3267.8,-27750,-132459,68157,40079
3269.8,-27814,-132798,68108,40030
3271.8,-27531,-132143,68166,40105
3273.8,-26974,-130860,68197,40140
3275.8,-26935,-130713,68317,40229
3277.8,-27503,-131799,68486,40369
3279.8,-27674,-132422,68393,40276
3281.8,-27086,-132072,68074,39966
3283.8,-26588,-131727,67975,39867
3285.8,-26661,-131725,68173,40078
3287.8,-26839,-131652,68275,40200
3289.8,-26826,-131564,68177,40092
3291.8,-26827,-131707,68177,40057
3293.8,-26839,-131831,68311,40173
3295.8,-26692,-131732,68327,40190
3297.8,-26619,-131643,68248,40111
3299.8,-26973,-131727,68297,40158
3301.8,-27605,-131940,68405,40276
3303.8,-28101,-132281,68379,40251
3305.8,-28241,-132536,68277,40126
3307.8,-27934,-132331,68240,40066
3309.8,-27330,-131887,68240,40068
3311.8,-27023,-131816,68179,40030
3313.8,-27342,-132078,68037,39906
3315.8,-27736,-132210,67904,39768
3317.8,-27672,-132255,67923,39770
3319.8,-27441,-132373,68029,39881
3321.8,-27390,-132273,67980,39860
3323.8,-27334,-131883,67832,39728
3325.8,-27164,-131618,67903,39791
3327.8,-27054,-131648,68145,40023
3329.8,-27059,-131814,68217,40092
3331.8,-27193,-132019,68133,39997
3333.8,-27474,-132040,68139,39989
3335.8,-27626,-131709,68227,40069
3337.8,-27456,-131458,68312,40140
3339.8,-27325,-131633,68467,40270
3341.8,-27440,-131752,68656,40446
3343.8,-27370,-131466,68715,40525
3345.8,-26954,-131277,68661,40494
3347.8,-26693,-131416,68627,40447
3349.8,-26801,-131350,68630,40414
3351.8,-26959,-131014,68627,40403
3353.8,-27186,-131113,68619,40422
3355.8,-27799,-131735,68603,40425
3357.8,-28469,-132047,68561,40368
3359.8,-28468,-131716,68484,40263
3361.8,-27845,-131377,68407,40186
3363.8,-27339,-131389,68422,40223
3365.8,-27222,-131344,68514,40335
3367.8,-27156,-131117,68542,40363
3369.8,-27012,-131123,68516,40330
3371.8,-26939,-131323,68574,40402
3373.8,-26936,-131289,68614,40479
3375.8,-27013,-131184,68423,40317
3377.8,-27231,-131352,68193,40087
3379.8,-27306,-131399,68322,40207
3381.8,-26924,-130949,68729,40631
3383.8,-26409,-130498,68925,40860
3385.8,-26298,-130509,68742,40671
3387.8,-26586,-130766,68493,40376
3389.8,-26907,-131088,68456,40317
3391.8,-26966,-131435,68558,40445
3393.8,-26679,-131438,68619,40523
3395.8,-26371,-131073,68579,40464
3397.8,-26577,-131128,68429,40302
3399.8,-27297,-131925,68214,40105
3401.8,-27924,-132632,68081,40004
3403.8,-28003,-132611,68068,40040
3405.8,-27648,-132274,68014,40034
3407.8,-27324,-132162,67861,39867
3409.8,-27372,-132249,67748,39684
3411.8,-27620,-132367,67710,39606
3413.8,-27675,-132531,67667,39575
3415.8,-27555,-132703,67655,39567
3417.8,-27530,-132698,67709,39597
3419.8,-27602,-132525,67739,39602
3421.8,-27643,-132499,67732,39592
3423.8,-27615,-132707,67757,39657
3425.8,-27451,-132740,67761,39739
3427.8,-27255,-132422,67667,39687
3429.8,-27317,-132226,67541,39527
3431.8,-27556,-132417,67508,39445
3433.8,-27653,-132593,67634,39570
3435.8,-27733,-132527,67850,39805
3437.8,-27919,-132469,67934,39876
3439.8,-27774,-132434,67818,39716
3441.8,-27237,-132254,67733,39608
3443.8,-27067,-132192,67786,39691
3445.8,-27549,-132537,67786,39739
3447.8,-28073,-132920,67721,39669
3449.8,-28280,-132841,67763,39667
3451.8,-28267,-132493,67780,39672
3453.8,-27930,-132495,67566,39473
3455.8,-27329,-133020,67367,39249
3457.8,-27009,-133535,67464,39256
3459.8,-27158,-133483,67652,39286
3461.8,-27367,-133054,67777,39137
3463.8,-27489,-132916,68174,39149
3465.8,-27673,-133143,69032,39609
3467.8,-27649,-133005,69967,40236
3469.8,-27022,-132139,70694,40788
3471.8,-26060,-131141,71521,41546
3473.8,-25332,-130399,72770,42787
3475.8,-24811,-129305,74177,44349
3477.8,-24058,-127551,75212,45948
3479.8,-23160,-126020,75696,47433
3481.8,-22692,-125217,75779,48618
3483.8,-22707,-124258,75486,49322
3485.8,-22667,-122670,74720,49667
3487.8,-22478,-121514,73573,49898
3489.8,-22697,-121521,72248,49878
3491.8,-23609,-121941,70792,49261
3493.8,-24874,-122156,69265,48096
3495.8,-26038,-122680,67825,46707
3497.8,-26813,-123920,66449,45122
3499.8,-27126,-125460,65045,43242
3501.8,-27229,-126963,63860,41305
3503.8,-27470,-128551,63268,39714
3505.8,-27823,-130087,63351,38740
3507.8,-27895,-131024,63998,38524
3509.8,-27529,-131230,65000,38904
3511.8,-27158,-131286,65956,39342
3513.8,-27173,-131631,66550,39494
3515.8,-27239,-132009,66855,39497
3517.8,-27012,-132124,67068,39495
3519.8,-26995,-132121,67238,39466
3521.8,-27550,-132120,67401,39506
3523.8,-27949,-132082,67576,39675
3525.8,-27699,-132187,67666,39777
3527.8,-27506,-132498,67628,39692
3529.8,-27847,-132687,67549,39541
3531.8,-28180,-132792,67441,39376
3533.8,-28204,-133258,67292,39195
3535.8,-28264,-133778,67260,39153
3537.8,-28361,-133620,67434,39311
3539.8,-28164,-133079,67614,39447
3541.8,-27783,-132863,67619,39427
3543.8,-27556,-132691,67574,39401
3545.8,-27513,-132224,67677,39508
3547.8,-27562,-132134,67890,39679
3549.8,-27665,-132707,67986,39741
3551.8,-27646,-133046,67845,39593
3553.8,-27384,-132757,67621,39361
3555.8,-27192,-132586,67573,39305
3557.8,-27397,-132813,67718,39445
3559.8,-27651,-132864,67834,39542
3561.8,-27486,-132657,67853,39541
3563.8,-27275,-132641,67927,39618
3565.8,-27597,-132798,68036,39734
3567.8,-28074,-132865,67965,39659
3569.8,-28080,-132959,67773,39472
3571.8,-27898,-133110,67751,39460
3573.8,-27987,-133045,67866,39565
3575.8,-28063,-132857,67841,39529
3577.8,-27859,-132870,67745,39435
3579.8,-27691,-132846,67824,39515
3581.8,-27731,-132498,67960,39658
3583.8,-27737,-132334,67948,39678
3585.8,-27553,-132680,67909,39678
3587.8,-27148,-132740,67945,39715
3589.8,-26631,-132029,67930,39656
3591.8,-26485,-131562,67900,39569
3593.8,-26935,-132144,67979,39628
3595.8,-27415,-132948,68010,39685
3597.8,-27576,-133127,67891,39589
3599.8,-27870,-133099,67856,39552
3601.8,-28321,-133217,67996,39704
3603.8,-28239,-133072,68105,39847
3605.8,-27710,-132743,68121,39864
3607.8,-27538,-132799,68117,39820
3609.8,-27717,-133035,68078,39754
3611.8,-27750,-132936,68077,39755
3613.8,-27846,-132763,68184,39876
3615.8,-28189,-132744,68209,39906
3617.8,-28171,-132485,68110,39771
3619.8,-27592,-132106,68202,39797
3621.8,-27154,-132223,68498,40073
3623.8,-27124,-132532,68622,40243
3625.8,-27075,-132332,68549,40196
3627.8,-27025,-131992,68543,40138
3629.8,-27254,-132121,68551,40072
3631.8,-27400,-132316,68470,39955
3633.8,-27094,-132188,68476,39956
3635.8,-26820,-132160,68586,40054
3637.8,-27011,-132352,68615,40050
3639.8,-27231,-132322,68661,40058
3641.8,-27220,-132214,68860,40243
3643.8,-27532,-132535,68947,40352
3645.8,-28215,-132977,68757,40192
3647.8,-28290,-132921,68659,40090
3649.8,-27552,-132563,68959,40349
3651.8,-27179,-132342,69420,40770
3653.8,-27550,-132081,69667,40993
3655.8,-27511,-131640,69646,40939
3657.8,-26676,-131458,69538,40796
3659.8,-26206,-131733,69507,40746
3661.8,-26598,-132012,69571,40791
3663.8,-26945,-131990,69645,40842
3665.8,-26777,-131876,69689,40892
3667.8,-26627,-131870,69741,40975
3669.8,-26722,-131865,69819,41060
3671.8,-26722,-131650,69893,41114
3673.8,-26588,-131244,69959,41171
3675.8,-26557,-131055,70074,41289
3677.8,-26571,-131317,70244,41463
3679.8,-26456,-131516,70344,41584
3681.8,-26291,-131189,70311,41579
3683.8,-26152,-130762,70295,41566
3685.8,-25952,-130684,70381,41647
3687.8,-25844,-130700,70414,41696
3689.8,-26128,-130701,70366,41669
3691.8,-26572,-130910,70438,41745
3693.8,-26655,-131055,70596,41906
3695.8,-26500,-130825,70560,41891
3697.8,-26584,-130668,70359,41726
3699.8,-26765,-130870,70298,41707
3701.8,-26662,-130961,70435,41876
3703.8,-26471,-130804,70588,42058
3705.8,-26487,-130779,70684,42197
3707.8,-26504,-130748,70680,42234
3709.8,-26306,-130433,70478,42048
3711.8,-26045,-130329,70189,41765
3713.8,-25916,-130777,70120,41715
3715.8,-25988,-131122,70304,41914
3717.8,-26188,-130884,70417,42025
3719.8,-26271,-130549,70284,41898
3721.8,-26181,-130572,70076,41705
3723.8,-26251,-130780,69913,41554
3725.8,-26597,-130960,69744,41412
3727.8,-26883,-131094,69661,41383
3729.8,-26964,-131123,69795,41560
3731.8,-26995,-131074,69909,41681
3733.8,-26921,-131116,69724,41490
3735.8,-26679,-131210,69474,41240
3737.8,-26569,-131112,69474,41245
3739.8,-26732,-130850,69535,41300
3741.8,-26893,-130778,69425,41159
3743.8,-27039,-131045,69335,41035
3745.8,-27469,-131389,69399,41096
3747.8,-27982,-131637,69390,41105
3749.8,-28030,-131962,69189,40908
3751.8,-27651,-132361,68955,40668
3753.8,-27332,-132439,68800,40516
3755.8,-27181,-132110,68729,40447
3757.8,-27055,-131888,68713,40431
3759.8,-27066,-132097,68647,40387
3761.8,-27291,-132406,68500,40282
3763.8,-27464,-132428,68430,40237
3765.8,-27406,-132217,68484,40283
3767.8,-27291,-131992,68505,40285
3769.8,-27234,-131826,68464,40246
3771.8,-27136,-131712,68471,40276
3773.8,-27013,-131703,68494,40314
3775.8,-27003,-131845,68458,40267
3777.8,-27057,-132019,68436,40218
3779.8,-27045,-132054,68472,40229
3781.8,-27065,-132008,68489,40238
3783.8,-27309,-132004,68462,40239
3785.8,-27739,-131945,68450,40273
3787.8,-28114,-131842,68499,40332
3789.8,-28210,-132034,68587,40394
3791.8,-27941,-132531,68602,40407
3793.8,-27426,-132739,68465,40302
3795.8,-26998,-132421,68317,40165
3797.8,-27049,-132141,68340,40164
3799.8,-27588,-132241,68457,40259
3801.8,-27994,-132300,68487,40289
3803.8,-27711,-132096,68435,40249
3805.8,-27128,-132080,68387,40210
3807.8,-27025,-132377,68349,40184
3809.8,-27364,-132419,68329,40193
3811.8,-27583,-132100,68364,40263
3813.8,-27657,-132074,68429,40327
3815.8,-27876,-132491,68415,40270
3817.8,-28121,-132763,68231,40042
3819.8,-28106,-132688,68010,39799
3821.8,-27767,-132502,68063,39842
3823.8,-27232,-132138,68422,40206
3825.8,-26902,-131673,68714,40499
3827.8,-27163,-131616,68719,40470
3829.8,-27660,-131887,68608,40331
3831.8,-27740,-131810,68540,40290
3833.8,-27595,-131499,68495,40281
3835.8,-27778,-131640,68489,40278
3837.8,-27953,-132098,68559,40361
3839.8,-27576,-132311,68606,40451
3841.8,-27139,-132400,68502,40355
3843.8,-27300,-132610,68300,40105
3845.8,-27586,-132632,68246,40013
3847.8,-27314,-132299,68457,40242
3849.8,-26862,-131986,68661,40475
3851.8,-26917,-131970,68582,40377
3853.8,-27317,-132143,68418,40150
3855.8,-27490,-132271,68456,40146
3857.8,-27383,-132165,68563,40271
3859.8,-27388,-131884,68558,40315
3861.8,-27696,-131798,68570,40356
3863.8,-27984,-132075,68642,40427
3865.8,-27842,-132390,68586,40372
3867.8,-27485,-132456,68416,40218
3869.8,-27520,-132387,68341,40163
3871.8,-27851,-132303,68375,40205
3873.8,-27739,-132148,68368,40195
3875.8,-27152,-132042,68301,40113
3877.8,-26873,-132239,68290,40063
3879.8,-27143,-132620,68391,40124
3881.8,-27481,-132763,68507,40244
3883.8,-27743,-132553,68475,40244
3885.8,-28060,-132239,68319,40089
3887.8,-28152,-132022,68261,40007
3889.8,-27842,-131961,68368,40119
3891.8,-27556,-132029,68437,40217
3893.8,-27534,-132077,68371,40172
3895.8,-27547,-132085,68314,40131
3897.8,-27643,-132270,68336,40146
3899.8,-27955,-132538,68345,40113
3901.8,-28015,-132420,68353,40083
3903.8,-27584,-131974,68439,40170
3905.8,-27385,-131844,68530,40263
3907.8,-27791,-132096,68544,40262
3909.8,-27998,-132112,68592,40299
3911.8,-27612,-131786,68750,40432
3913.8,-27465,-131618,68852,40483
3915.8,-27913,-131718,68771,40370
3917.8,-28099,-131838,68685,40292
3919.8,-27695,-132027,68773,40392
3921.8,-27490,-132273,68848,40465
3923.8,-27694,-132140,68679,40298
3925.8,-27566,-131566,68509,40130
3927.8,-26985,-131197,68660,40282
3929.8,-26645,-131296,68899,40529
3931.8,-26788,-131335,68887,40521
3933.8,-27148,-131121,68873,40505
3935.8,-27617,-131120,69140,40795
3937.8,-27930,-131386,69322,41014
3939.8,-27634,-131441,69051,40754
3941.8,-27031,-131291,68667,40371
3943.8,-27032,-131367,68638,40358
3945.8,-27708,-131641,68842,40560
3947.8,-28134,-131736,68919,40606
3949.8,-27850,-131609,68856,40534
3951.8,-27428,-131544,68832,40525
3953.8,-27396,-131727,68831,40512
3955.8,-27506,-131933,68811,40452
3957.8,-27398,-131708,68889,40524
3959.8,-27237,-131149,69009,40682
3961.8,-27219,-131028,68876,40575
3963.8,-27118,-131573,68555,40247
3965.8,-26812,-132082,68439,40139
3967.8,-26632,-132223,68461,40207
3969.8,-26803,-132406,68250,40037
3971.8,-27132,-132691,67963,39746
3973.8,-27432,-132739,67955,39708
3975.8,-27765,-132670,68033,39748
3977.8,-28188,-132758,67949,39624
3979.8,-28530,-132833,67938,39593
3981.8,-28484,-132754,68117,39772
3983.8,-28028,-132725,68174,39825
3985.8,-27630,-132775,68022,39676
3987.8,-27657,-132724,67963,39661
3989.8,-27838,-132674,68086,39838
3991.8,-27817,-132827,68123,39887
3993.8,-27730,-132987,67941,39696
3995.8,-27738,-132847,67778,39534
3997.8,-27691,-132597,67851,39595
3999.8,-27649,-132647,67975,39703
4001.8,-27886,-132871,67929,39677
4003.8,-28174,-132818,67925,39690
4005.8,-28096,-132600,68126,39853
4007.8,-27920,-132668,68212,39898
4009.8,-28072,-132849,68071,39773
4011.8,-28240,-132694,68113,39831
4013.8,-28074,-132427,68381,40043
4015.8,-27877,-132416,68420,40010
4017.8,-27825,-132433,68232,39821
4019.8,-27689,-132414,68172,39803
4021.8,-27588,-132796,68159,39791
4023.8,-27684,-133414,68025,39578
4025.8,-27577,-133571,67997,39379
4027.8,-27235,-133406,68243,39326
4029.8,-27364,-133548,68737,39399
4031.8,-27894,-133680,69562,39819
4033.8,-27817,-133141,70596,40621
4035.8,-27072,-132213,71467,41427
4037.8,-26603,-131355,72266,42235
4039.8,-26493,-130238,73382,43462
4041.8,-25987,-128714,74590,45030
4043.8,-25039,-127391,75346,46476
4045.8,-24184,-126471,75665,47717
4047.8,-23583,-125458,75757,48758
4049.8,-23319,-124385,75380,49274
4051.8,-23650,-123782,74332,49233
4053.8,-24299,-123474,72944,49115
4055.8,-24665,-122888,71539,49001
4057.8,-24882,-122240,70055,48397
4059.8,-25572,-122310,68552,47181
4061.8,-26818,-123457,67318,45756
4063.8,-28159,-125318,66262,44200
4065.8,-29031,-127081,65003,42251
4067.8,-29003,-128242,63707,40160
4069.8,-28371,-129212,63034,38655
4071.8,-28078,-130431,63235,38089
4073.8,-28304,-131381,63983,38213
4075.8,-28235,-131670,64877,38584
4077.8,-27705,-131926,65648,38862
4079.8,-27468,-132430,66195,38975
4081.8,-27700,-132556,66653,39112
4083.8,-27881,-132346,67132,39361
4085.8,-27923,-132594,67517,39577
4087.8,-28047,-133129,67743,39704
4089.8,-28145,-133092,67859,39777
4091.8,-28111,-132619,67836,39692
4093.8,-28065,-132515,67747,39472
4095.8,-28022,-132887,67817,39414
4097.8,-27967,-133232,67972,39544
4099.8,-27990,-133254,67913,39519
4101.8,-28034,-133086,67760,39328
4103.8,-27995,-133025,67843,39309
4105.8,-28033,-133085,68016,39450
4107.8,-28230,-133024,68009,39506
4109.8,-28301,-132952,68005,39560
4111.8,-28060,-133109,68157,39728
4113.8,-27741,-133110,68222,39781
4115.8,-27673,-132701,68144,39653
4117.8,-27909,-132687,68209,39643
4119.8,-28224,-133493,68372,39763
4121.8,-28314,-133991,68256,39659
4123.8,-28066,-133461,67927,39354
4125.8,-27682,-132936,67864,39291
4127.8,-27533,-133168,68135,39557
4129.8,-27778,-133358,68291,39737
4131.8,-28084,-132994,68148,39623
4133.8,-27998,-132712,68056,39502
4135.8,-27644,-132826,68230,39613
4137.8,-27571,-132959,68398,39779
4139.8,-27841,-133051,68344,39769
4141.8,-27923,-133192,68246,39667
4143.8,-27642,-133140,68255,39636
4145.8,-27516,-132937,68266,39660
4147.8,-27903,-132986,68263,39701
4149.8,-28432,-133212,68365,39789
4151.8,-28583,-133271,68510,39881
4153.8,-28366,-133253,68530,39871
4155.8,-28104,-133273,68409,39736
4157.8,-27933,-133169,68249,39547
4159.8,-27836,-133064,68174,39451
4161.7,-27833,-133135,68288,39585
4163.7,-27912,-133049,68511,39836
4165.7,-28031,-132705,68638,39943
4167.7,-28173,-132606,68660,39910
4169.7,-28154,-132702,68689,39928
4171.7,-27725,-132392,68678,39969
4173.7,-27170,-132010,68584,39907
4175.7,-27128,-132375,68520,39809
4177.7,-27545,-133025,68522,39765
4179.7,-27708,-132992,68542,39778
4181.7,-27480,-132641,68615,39853
4183.7,-27435,-132787,68668,39884
4185.7,-27755,-133037,68558,39746
4187.7,-27989,-132793,68469,39651
4189.7,-27879,-132576,68651,39832
4191.7,-27634,-132888,68876,40038
4193.7,-27534,-133163,68881,40017
4195.7,-27624,-132934,68869,39995
4197.7,-27723,-132652,68983,40095
4199.7,-27721,-132692,69044,40121
4201.7,-27793,-132814,69089,40150
4203.7,-27973,-132807,69318,40391
4205.7,-27875,-132658,69513,40573
4207.7,-27387,-132314,69394,40421
4209.7,-27074,-132029,69215,40245
4211.7,-27326,-132246,69324,40368
4213.7,-27734,-132711,69584,40601
4215.7,-27715,-132645,69705,40697
4217.7,-27247,-132059,69727,40726
4219.7,-26811,-131809,69826,40780
4221.7,-26819,-132173,69930,40789
4223.7,-27097,-132507,69863,40702
4225.7,-27157,-132459,69739,40638
4227.7,-27015,-132390,69827,40754
4229.7,-27079,-132471,70064,40977
4231.7,-27293,-132422,70155,41070
4233.7,-27337,-132253,70116,41019
4235.7,-27361,-132282,70202,41056
4237.7,-27550,-132370,70414,41234
4239.7,-27523,-132089,70534,41366
4241.7,-27083,-131625,70535,41393
4243.7,-26776,-131565,70563,41453
4245.7,-26940,-131836,70659,41597
4247.7,-27055,-131793,70751,41737
4249.7,-26702,-131360,70800,41832
4251.7,-26290,-131082,70829,41915
4253.7,-26260,-131058,70846,41976
4255.7,-26336,-130924,70812,41956
4257.7,-26168,-130820,70723,41870
4259.7,-26035,-131137,70645,41815
4261.7,-26257,-131512,70641,41844
4263.7,-26498,-131351,70698,41928
4265.7,-26332,-130966,70744,42001
4267.7,-26024,-130961,70704,42005
4269.7,-26106,-131163,70616,41967
4271.7,-26552,-131185,70630,42001
4273.7,-26879,-131159,70754,42107
4275.7,-26780,-131199,70774,42115
4277.7,-26391,-131116,70574,41945
4279.7,-26077,-130943,70328,41750
4281.7,-26069,-130816,70257,41718
4283.7,-26327,-130620,70404,41893
4285.7,-26673,-130480,70635,42158
4287.7,-26905,-130747,70707,42263
4289.7,-26901,-131147,70501,42055
4291.7,-26831,-131187,70231,41742
4293.7,-26969,-131207,70158,41629
4295.7,-27187,-131558,70231,41679
4297.7,-27154,-131591,70244,41650
4299.7,-26954,-130989,70160,41501
4301.7,-26880,-130708,70056,41361
4303.7,-26900,-131228,69980,41298
4305.7,-26903,-131662,69926,41272
4307.7,-27021,-131536,69822,41181
4309.7,-27289,-131502,69652,40995
4311.7,-27464,-131800,69541,40846
4313.7,-27394,-131925,69502,40785
4315.7,-27244,-131892,69376,40651
4317.7,-27281,-132131,69188,40431
4319.7,-27563,-132383,69147,40354
4321.7,-27910,-132189,69243,40463
4323.7,-28261,-131977,69357,40617
4325.7,-28621,-132272,69517,40794
4327.7,-28591,-132507,69627,40912
4329.7,-27819,-132049,69442,40747
4331.7,-26958,-131568,69067,40395
4333.7,-26944,-131904,68841,40181
4335.7,-27568,-132585,68815,40135
4337.7,-27993,-132787,68925,40190
4339.7,-28020,-132593,69159,40403
4341.7,-27825,-132407,69248,40547
4343.7,-27517,-132345,68960,40301
4345.7,-27502,-132538,68649,39953
4347.7,-28018,-132892,68692,39959
4349.7,-28437,-132862,68840,40130
4351.7,-28182,-132400,68821,40126
4353.7,-27660,-132229,68820,40087
4355.7,-27451,-132523,68935,40173
4357.7,-27559,-132623,68980,40234
4359.7,-27795,-132404,68923,40203
4361.7,-27963,-132437,68876,40164
4363.7,-27856,-132694,68841,40125
4365.7,-27620,-132631,68839,40120
4367.7,-27618,-132418,68936,40221
4369.7,-27819,-132606,69035,40325
4371.7,-27936,-132863,69031,40312
4373.7,-27907,-132550,69020,40277
4375.7,-27848,-132089,69068,40308
4377.7,-27855,-132280,69051,40292
4379.7,-27912,-132802,68931,40185
4381.7,-27824,-132795,68865,40136
4383.7,-27525,-132322,68917,40205
4385.7,-27354,-132023,68969,40261
4387.7,-27569,-132049,68983,40259
4389.7,-27898,-132206,69056,40308
4391.7,-27961,-132363,69147,40397
4393.7,-27750,-132320,69108,40365
4395.7,-27513,-132074,68984,40218
4397.7,-27500,-132034,68927,40128
4399.7,-27739,-132292,68930,40144
4401.7,-27934,-132393,68970,40214
4403.7,-27850,-132269,69092,40317
4405.7,-27693,-132275,69186,40361
4407.7,-27740,-132288,69143,40307
4409.7,-27866,-132098,69132,40328
4411.7,-27857,-132176,69224,40429
4413.7,-27885,-132757,69183,40357
4415.7,-28124,-133103,69034,40174
4417.7,-28169,-132748,69057,40203
4419.7,-27607,-132274,69136,40308
4421.7,-26970,-132163,69013,40192
4423.7,-27045,-132222,68904,40088
4425.7,-27515,-132349,69012,40232
4427.7,-27587,-132589,69080,40338
4429.7,-27459,-132607,68995,40255
4431.7,-27750,-132246,69000,40256
4433.7,-28230,-132108,69113,40374
4435.7,-28411,-132558,69140,40382
4437.7,-28375,-132958,69089,40291
4439.7,-28260,-132796,69038,40222
4441.7,-28027,-132585,69006,40197
4443.7,-27918,-132740,69058,40258
4445.7,-28140,-132776,69100,40293
4447.7,-28424,-132454,68913,40059
4449.7,-28499,-132346,68673,39768
4451.7,-28317,-132536,68772,39889
4453.7,-27781,-132348,69078,40267
4455.7,-27087,-131862,69153,40359
4457.7,-26928,-131981,69008,40184
4459.7,-27562,-132705,68956,40130
4461.7,-28245,-133048,69016,40207
4463.7,-28215,-132694,69024,40204
4465.7,-27704,-132256,69007,40164
4467.7,-27461,-132069,69107,40249
4469.7,-27662,-131934,69316,40440
4471.7,-27877,-131798,69494,40596
4473.7,-27960,-131839,69567,40651
4475.7,-28136,-132046,69541,40610
4477.7,-28235,-132170,69415,40476
4479.7,-27852,-132038,69265,40328
4481.7,-27279,-131758,69265,40333
4483.7,-27202,-131600,69374,40451
4485.7,-27609,-131694,69346,40442
4487.7,-27924,-131883,69207,40314
4489.7,-27930,-131917,69219,40330
4491.7,-27855,-131711,69363,40485
4493.7,-27918,-131407,69426,40546
4495.7,-28047,-131204,69417,40496
4497.7,-27948,-131210,69406,40435
4499.7,-27663,-131434,69306,40327
4501.7,-27756,-131736,69146,40196
4503.7,-28227,-131765,69116,40210
4505.7,-28084,-131287,69257,40406
4507.7,-27078,-130640,69448,40667
4509.7,-26516,-130433,69596,40889
4511.7,-27066,-130790,69607,40941
4513.7,-27585,-131256,69433,40748
4515.7,-27353,-131433,69216,40488
4517.7,-27303,-131445,69157,40423
4519.7,-27902,-131737,69265,40547
4521.7,-28173,-132379,69377,40635
4523.7,-27760,-132818,69363,40567
4525.7,-27600,-132704,69235,40417
4527.7,-27951,-132487,69089,40291
4529.7,-28000,-132611,68956,40168
4531.7,-27685,-132799,68785,39968
4533.7,-27825,-132779,68586,39735
4535.7,-28434,-132821,68449,39605
4537.7,-28641,-133029,68413,39607
4539.7,-28159,-133040,68440,39644
4541.7,-27578,-132770,68466,39639
4543.7,-27424,-132647,68462,39620
4545.7,-27715,-132902,68470,39645
4547.7,-28144,-133188,68523,39702
4549.7,-28365,-133114,68551,39719
4551.7,-28322,-132870,68538,39720
4553.7,-28258,-132935,68582,39791
4555.7,-28279,-133225,68652,39838
4557.7,-28261,-133222,68586,39706
4559.7,-28155,-132950,68433,39518
4561.7,-27976,-132881,68379,39485
4563.7,-27707,-132955,68430,39557
4565.7,-27546,-132806,68524,39640
4567.7,-27735,-132613,68660,39774
4569.7,-28054,-132681,68750,39898
4571.7,-28161,-132800,68728,39900
4573.7,-28186,-132813,68707,39857
4575.7,-28262,-132952,68692,39811
4577.7,-28165,-133185,68571,39681
4579.7,-27972,-133198,68478,39579
4581.7,-28080,-133111,68539,39615
4583.7,-28336,-133316,68550,39573
4585.7,-28326,-133785,68500,39406
4587.7,-28222,-134144,68802,39472
4589.7,-28258,-134113,69527,39825
4591.7,-28109,-133634,70244,40102
4593.7,-27676,-132897,70793,40289
4595.7,-27441,-132230,71417,40729
4597.7,-27507,-131662,72278,41538
4599.7,-27341,-130880,73387,42694
4601.7,-26651,-129690,74645,44221
4603.7,-25666,-128175,75705,45894
4605.7,-24708,-126572,76265,47342
4607.7,-24088,-125339,76404,48477
4609.7,-23991,-124743,76236,49313
4611.7,-24142,-124195,75587,49714
4613.7,-24138,-123097,74360,49688
4615.7,-24171,-122141,72790,49418
4617.7,-24783,-122159,71130,48834
4619.7,-25975,-122504,69513,47749
4621.7,-27222,-122557,68124,46329
4623.7,-28172,-123281,67048,44839
4625.7,-28733,-125237,66018,43163
4627.7,-28789,-127261,64805,41173
4629.7,-28411,-128713,63767,39304
4631.7,-28098,-130276,63475,38192
4633.7,-28260,-131769,63955,37943
4635.7,-28574,-132137,64811,38197
4637.7,-28393,-131655,65819,38685
4639.7,-27849,-131570,66825,39241
4641.7,-27859,-132183,67464,39539
4643.7,-28675,-132940,67616,39441
4645.7,-29316,-133411,67735,39337
4647.7,-29036,-133388,68147,39579
4649.7,-28357,-133013,68551,39906
4651.7,-28058,-132826,68625,39935
4653.7,-28126,-133065,68545,39784
4655.7,-28168,-133320,68565,39730
4657.7,-28071,-133196,68627,39732
4659.7,-27972,-132854,68620,39670
4661.7,-27961,-132726,68609,39627
4663.7,-27920,-132848,68669,39676
4665.7,-27698,-132810,68725,39705
4667.7,-27505,-132577,68644,39596
4669.7,-27753,-132736,68446,39414
4671.7,-28335,-133354,68333,39327
4673.7,-28602,-133591,68431,39386
4675.7,-28305,-133174,68596,39478
4677.7,-27975,-132937,68657,39506
4679.7,-28050,-133241,68644,39493
4681.7,-28286,-133426,68642,39481
4683.7,-28434,-133277,68675,39506
4685.7,-28667,-133350,68768,39619
4687.7,-28918,-133620,68888,39767
4689.7,-28699,-133493,68893,39791
4691.7,-28035,-133072,68745,39666
4693.7,-27631,-132952,68628,39568
4695.7,-27839,-133158,68676,39606
4697.7,-28267,-133352,68783,39698
4699.7,-28420,-133406,68792,39726
4701.7,-28209,-133206,68716,39663
4703.7,-27961,-132834,68667,39580
4705.7,-28030,-132807,68698,39576
4707.7,-28264,-133155,68770,39662
4709.7,-28281,-133164,68818,39736
4711.7,-28220,-132821,68836,39749
4713.7,-28356,-132888,68919,39804
4715.7,-28362,-133176,69130,39967
4717.7,-28006,-132908,69296,40077
4719.7,-27833,-132558,69185,39944
4721.7,-28098,-132897,68919,39699
4723.7,-28143,-133207,68843,39654
4725.7,-27716,-132762,68991,39830
4727.7,-27542,-132418,69112,39971
4729.7,-27905,-132780,69097,39952
4731.7,-28151,-132998,68970,39814
4733.7,-28021,-132692,68785,39641
4735.7,-28026,-132669,68748,39606
4737.7,-28269,-133102,68988,39805
4739.7,-28274,-133252,69240,40014
4741.7,-28042,-133045,69269,40032
4743.7,-28025,-133047,69261,40015
4745.7,-28206,-133240,69358,40087
4747.7,-28303,-133169,69396,40112
4749.7,-28412,-132836,69352,40065
4751.7,-28505,-132580,69393,40099
4753.7,-28170,-132511,69498,40192
4755.7,-27590,-132547,69561,40225
4757.7,-27526,-132677,69616,40219
4759.7,-27877,-132842,69652,40199
4761.7,-27838,-132837,69616,40147
4763.7,-27507,-132683,69622,40161
4765.7,-27619,-132711,69753,40288
4767.7,-28024,-132903,69869,40387
4769.7,-28083,-132764,69924,40437
4771.7,-27906,-132313,70061,40571
4773.7,-27881,-132227,70222,40708
4775.7,-27844,-132520,70219,40658
4777.7,-27630,-132385,70173,40575
4779.7,-27572,-131829,70322,40709
4781.7,-27907,-131855,70544,40928
4783.7,-28292,-132531,70603,40995
4785.7,-28219,-132762,70570,40974
4787.7,-27727,-132366,70579,40970
4789.7,-27418,-132361,70585,40935
4791.7,-27505,-132820,70606,40934
4793.7,-27429,-132614,70755,41082
4795.7,-26966,-131642,70934,41244
4797.7,-26758,-131187,70972,41249
4799.7,-27049,-131692,70956,41221
4801.7,-27208,-132120,71064,41331
4803.7,-26974,-131807,71217,41482
4805.7,-26765,-131364,71238,41508
4807.7,-26772,-131449,71191,41481
4809.7,-26982,-131823,71278,41588
4811.7,-27469,-131919,71456,41792
4813.7,-27858,-131671,71494,41882
4815.7,-27608,-131477,71420,41881
4817.7,-27027,-131535,71466,42000
4819.7,-26787,-131553,71539,42129
4821.7,-26819,-131284,71380,42004
4823.7,-26737,-130970,71164,41810
4825.7,-26588,-130924,71224,41885
4827.7,-26513,-131046,71407,42085
4829.7,-26448,-131110,71408,42123
4831.7,-26352,-131059,71317,42092
4833.7,-26255,-130843,71307,42124
4835.7,-26217,-130487,71291,42124
4837.7,-26329,-130328,71235,42090
4839.7,-26509,-130593,71237,42132
4841.7,-26556,-130931,71263,42185
4843.7,-26547,-130981,71209,42142
4845.7,-26680,-130961,71120,42063
4847.7,-26781,-131036,71079,42030
4849.7,-26676,-130909,71061,42022
4851.7,-26826,-130694,70979,41954
4853.7,-27604,-131025,70772,41734
4855.7,-28276,-131683,70508,41435
4857.7,-28039,-131638,70421,41345
4859.7,-27543,-130985,70627,41585
4861.7,-27720,-130956,70867,41837
4863.7,-27978,-131667,70793,41743
4865.7,-27487,-131928,70456,41406
4867.7,-26935,-131443,70229,41201
4869.7,-27094,-131204,70240,41223
4871.7,-27415,-131631,70230,41214
4873.7,-27409,-132003,70029,41011
4875.7,-27438,-131853,69806,40787
4877.7,-27556,-131677,69733,40720
4879.7,-27495,-132000,69730,40726
4881.7,-27491,-132474,69690,40677
4883.7,-27712,-132424,69669,40633
4885.7,-27864,-131937,69740,40700
4887.7,-27931,-131714,69794,40775
4889.7,-28104,-131989,69666,40671
4891.7,-28216,-132352,69444,40457
4893.7,-28198,-132472,69424,40427
4895.7,-28232,-132339,69628,40612
4897.7,-28186,-132083,69739,40707
4899.7,-28009,-131987,69651,40614
4901.7,-28095,-132203,69568,40543
4903.7,-28356,-132393,69510,40508
4905.7,-28175,-132265,69322,40346
4907.7,-27681,-132148,69111,40162
4909.7,-27520,-132308,69112,40184
4911.7,-27612,-132350,69308,40376
4913.7,-27610,-132081,69521,40569
4915.7,-27738,-132053,69583,40626
4917.7,-28080,-132503,69412,40448
4919.7,-28131,-132798,69198,40202
4921.7,-27783,-132545,69235,40215
4923.7,-27630,-132247,69433,40435
4925.7,-27963,-132346,69501,40542
4927.7,-28352,-132543,69477,40550
4929.7,-28363,-132467,69510,40618
4931.7,-28103,-132270,69525,40639
4933.7,-27919,-132250,69499,40571
4935.7,-27893,-132364,69538,40574
4937.7,-27855,-132401,69550,40595
4939.7,-27758,-132343,69440,40496
4941.7,-27748,-132294,69409,40451
4943.7,-27844,-132173,69543,40570
4945.7,-27906,-131886,69573,40593
4947.7,-27879,-131698,69444,40450
4949.7,-27756,-131832,69482,40477
4951.7,-27487,-131916,69742,40740
4953.7,-27254,-131686,69832,40842
4955.7,-27447,-131768,69577,40607
4957.7,-28052,-132584,69297,40341
4959.7,-28494,-133232,69262,40297
4961.7,-28442,-132906,69350,40370
4963.7,-28291,-132362,69407,40434
4965.7,-28466,-132497,69484,40530
4967.7,-28743,-132810,69556,40615
4969.7,-28672,-132633,69480,40547
4971.7,-28274,-132377,69352,40420
4973.7,-27915,-132443,69420,40468
4975.7,-27813,-132495,69594,40618
4977.7,-27929,-132419,69583,40608
4979.7,-28076,-132488,69432,40472
4981.7,-28034,-132569,69382,40429
4983.7,-27844,-132435,69400,40449
4985.7,-27808,-132316,69350,40413
4987.7,-27936,-132259,69353,40433
4989.7,-27889,-131982,69489,40569
4991.7,-27734,-131776,69511,40588
4993.7,-27948,-132177,69273,40364
4995.7,-28462,-132805,69067,40171
4997.7,-28618,-132880,69161,40245
4999.7,-28210,-132491,69357,40415
5001.7,-27763,-132188,69372,40438
5003.7,-27750,-132051,69322,40415
5005.7,-28094,-131950,69445,40551
5007.7,-28395,-131959,69621,40722
5009.7,-28388,-132058,69604,40686
5011.7,-28182,-132083,69501,40558
5013.7,-27969,-132053,69536,40586
5015.7,-27727,-132077,69586,40657
5017.7,-27507,-132066,69463,40552
5019.7,-27581,-131917,69338,40423
5021.7,-27900,-131744,69434,40508
5023.7,-28010,-131653,69653,40702
5025.7,-27811,-131564,69803,40816
5027.7,-27695,-131427,69870,40876
5029.7,-27825,-131390,69949,40988
5031.7,-27964,-131570,70101,41164
5033.7,-27933,-131783,70213,41263
5035.7,-27709,-131667,70077,41105
5037.7,-27368,-131204,69764,40783
5039.7,-27273,-130984,69618,40626
5041.7,-27751,-131506,69680,40671
5043.7,-28420,-132318,69661,40652
5045.7,-28571,-132511,69534,40561
5047.7,-28247,-132005,69555,40634
5049.7,-28154,-131565,69723,40836
5051.7,-28486,-131639,69789,40908
5053.7,-28714,-131939,69699,40807
5055.7,-28593,-132046,69630,40728
5057.7,-28432,-131850,69702,40807
5059.7,-28243,-131445,69848,40985
5061.7,-27682,-131011,69948,41117
5063.7,-27076,-130831,69970,41153
5065.7,-27245,-131139,69938,41132
5067.7,-28044,-131726,69844,41050
5069.7,-28421,-131952,69710,40894
5071.7,-28053,-131604,69623,40761
5073.7,-27616,-131385,69615,40748
5075.7,-27484,-131868,69633,40800
5077.7,-27414,-132483,69609,40783
5079.7,-27319,-132382,69481,40632
5081.7,-27343,-131722,69278,40438
5083.7,-27388,-131264,69138,40352
5085.7,-27336,-131374,69089,40359
5087.7,-27428,-132010,69004,40302
5089.7,-27827,-132859,68886,40172
5091.7,-28179,-133286,68871,40110
5093.7,-28166,-132994,68928,40117
5095.7,-28021,-132537,68924,40093
5097.7,-27983,-132415,68876,40061
5099.7,-27951,-132437,68849,40051
5101.7,-28048,-132571,68827,40009
5103.7,-28520,-133127,68839,39995
5105.7,-28904,-133657,68946,40135
5107.7,-28554,-133310,69070,40328
5109.7,-27918,-132462,69094,40365
5111.7,-27940,-132270,69053,40287
5113.7,-28505,-132745,69046,40273
5115.7,-28770,-132950,69036,40290
5117.7,-28570,-132713,68919,40190
5119.7,-28348,-132593,68768,40032
5121.7,-28224,-132701,68770,40013
5123.7,-28054,-132801,68900,40113
5125.7,-27995,-132927,68925,40135
5127.7,-28259,-133056,68805,40034
5129.7,-28592,-132958,68726,39946
5131.7,-28562,-132755,68739,39929
5133.7,-28218,-132818,68733,39927
5135.7,-28022,-133113,68700,39914
5137.7,-28130,-133402,68666,39862
5139.7,-28157,-133667,68564,39713
5141.7,-27883,-133815,68451,39512
5143.7,-27745,-133697,68574,39420
5145.7,-28127,-133554,69026,39504
5147.7,-28576,-133618,69664,39724
5149.7,-28473,-133564,70416,40120
5151.7,-27966,-133014,71296,40761
5153.7,-27485,-132007,72239,41582
5155.7,-26982,-130706,73290,42581
5157.7,-26335,-129371,74644,43985
5159.7,-25714,-128339,76133,45855
5161.7,-25124,-127405,77125,47715
5163.7,-24389,-125996,77306,49031
5165.7,-23706,-124280,77016,49830
5167.7,-23413,-122960,76540,50454
5169.7,-23379,-122085,75661,50886
5171.7,-23355,-121360,74204,50802
5173.7,-23632,-121069,72539,50186
5175.7,-24665,-121467,71144,49352
5177.7,-26164,-122080,69956,48326
5179.7,-27257,-122653,68566,46811
5181.7,-27653,-123818,66948,44833
5183.7,-27863,-125945,65545,42810
5185.7,-28157,-128277,64730,41044
5187.7,-28301,-129910,64566,39719
5189.7,-28376,-130820,64962,39085
5191.7,-28665,-131416,65709,39115
5193.7,-28866,-131773,66549,39411
5195.7,-28568,-131846,67343,39720
5197.7,-28099,-131897,67977,39997
5199.7,-27970,-132187,68321,40113
5201.7,-28068,-132508,68480,40077
5203.7,-27968,-132451,68653,40110
5205.7,-27546,-132080,68718,40158
5207.7,-27218,-131977,68541,40001
5209.7,-27614,-132477,68439,39831
5211.7,-28547,-133106,68672,39952
5213.7,-28892,-133216,68920,40148
5215.7,-28300,-132945,68840,40069
5217.7,-27871,-132910,68637,39851
5219.7,-28272,-133211,68634,39785
5221.7,-28775,-133473,68752,39839
5223.7,-28801,-133533,68795,39869
5225.7,-28649,-133429,68820,39916
5227.7,-28508,-133198,68937,40035
5229.7,-28304,-133048,69024,40093
5231.7,-28240,-133152,68938,39972
5233.7,-28338,-133286,68799,39808
5235.7,-28254,-133231,68791,39796
5237.7,-28098,-133142,68866,39894
5239.7,-28216,-133116,68905,39941
5241.7,-28241,-133075,68936,39938
5243.7,-27858,-133119,69001,39976
5245.7,-27821,-133280,69056,40053
5247.7,-28584,-133256,69080,40105
5249.7,-29189,-133004,69091,40099
5251.7,-29014,-132936,69118,40076
5253.7,-28852,-133152,69236,40150
5255.7,-29057,-133270,69404,40312
5257.7,-28817,-133115,69373,40316
5259.7,-28079,-132887,69060,40032
5261.7,-27883,-132789,68796,39755
5263.7,-28374,-132886,68833,39772
5265.7,-28615,-133055,68983,39935
5267.7,-28330,-133036,69013,39983
5269.7,-28100,-132847,68994,39958
5271.7,-28159,-132831,69040,39994
5273.7,-28286,-133031,69109,40059
5275.7,-28381,-133118,69176,40115
5277.7,-28427,-133055,69295,40228
5279.7,-28409,-133080,69440,40377
5281.7,-28435,-133070,69476,40398
5283.7,-28492,-132748,69344,40219
5285.7,-28331,-132371,69178,40025
5287.7,-27917,-132385,69173,40048
5289.7,-27563,-132610,69318,40243
5291.7,-27495,-132577,69403,40331
5293.7,-27722,-132404,69338,40218
5295.7,-28199,-132552,69272,40124
5297.7,-28709,-132972,69304,40184
5299.7,-28849,-133174,69345,40255
5301.7,-28480,-132907,69379,40268
5303.7,-27980,-132377,69529,40372
5305.7,-27775,-131999,69745,40561
5307.7,-27794,-132053,69804,40604
5309.7,-27730,-132402,69683,40462
5311.7,-27731,-132686,69613,40355
5313.7,-28148,-132786,69696,40389
5315.7,-28631,-132786,69823,40464
5317.7,-28528,-132702,69905,40511
5319.7,-28151,-132664,69933,40521
5321.7,-28291,-132880,69926,40497
5323.7,-28687,-133088,69994,40547
5325.7,-28498,-132744,70210,40751
5327.7,-27936,-131986,70400,40935
5329.7,-27865,-131581,70419,40945
5331.7,-28244,-131792,70462,40956
5333.7,-28364,-132162,70660,41095
5335.7,-28124,-132380,70753,41125
5337.7,-27946,-132512,70631,40967
5339.7,-27839,-132463,70621,40953
5341.7,-27532,-132110,70830,41159
5343.7,-27250,-131812,70944,41254
5345.7,-27479,-131930,70914,41206
5347.7,-28061,-132121,71018,41310
5349.7,-28327,-131936,71222,41510
5351.7,-28101,-131654,71272,41537
5353.7,-27792,-131677,71210,41455
5355.7,-27558,-131732,71237,41487
5357.7,-27263,-131560,71397,41663
5359.7,-27081,-131506,71634,41914
5361.7,-27225,-131669,71813,42110
5363.7,-27362,-131533,71780,42099
5365.7,-27210,-131072,71652,41993
5367.7,-27147,-130960,71686,42043
5369.7,-27367,-131247,71820,42193
5371.7,-27326,-131193,71839,42247
5373.7,-26911,-130750,71800,42261
5375.7,-26959,-130788,71796,42295
5377.7,-27699,-131468,71718,42223
5379.7,-28052,-131754,71579,42102
5381.7,-27356,-131100,71602,42177
5383.7,-26490,-130386,71768,42394
5385.7,-26471,-130444,71782,42441
5387.7,-27032,-130827,71590,42294
5389.7,-27283,-130863,71488,42247
5391.7,-27029,-130731,71596,42394
5393.7,-26821,-130734,71642,42470
5395.7,-27011,-130676,71467,42334
5397.7,-27320,-130493,71360,42256
5399.7,-27445,-130436,71557,42463
5401.7,-27507,-130470,71802,42724
5403.7,-27586,-130476,71765,42719
5405.7,-27513,-130751,71487,42477
5407.7,-27367,-131388,71170,42179
5409.7,-27388,-131700,70924,41925
5411.7,-27365,-131239,70802,41802
5413.7,-27030,-130680,70746,41793
5415.7,-26768,-130720,70620,41720
5417.7,-27020,-131029,70467,41560
5419.7,-27522,-131195,70412,41466
5421.7,-27834,-131458,70361,41415
5423.7,-27909,-131736,70249,41327
5425.7,-27770,-131484,70275,41366
5427.7,-27414,-130994,70475,41586
5429.7,-27159,-131031,70487,41633
5431.7,-27307,-131353,70153,41316
5433.7,-27594,-131392,69826,40990
5435.7,-27619,-131486,69800,40973
5437.7,-27516,-131880,69892,41074
5439.7,-27599,-131985,69836,41004
5441.7,-27776,-131692,69700,40855
5443.7,-27872,-131671,69676,40843
5445.7,-28025,-132033,69734,40933
5447.7,-28296,-132291,69748,40977
5449.7,-28458,-132381,69744,40996
5451.7,-28475,-132546,69793,41060
5453.7,-28552,-132745,69817,41086
5455.7,-28650,-132807,69698,40958
5457.7,-28527,-132622,69473,40728
5459.7,-28209,-132221,69326,40600
5461.7,-27998,-131959,69405,40702
5463.7,-28100,-132144,69612,40904
5465.7,-28314,-132472,69680,40949
5467.7,-28196,-132469,69537,40806
5469.7,-27805,-132313,69361,40651
5471.7,-27801,-132495,69263,40558
5473.7,-28227,-132880,69226,40521
5475.7,-28176,-132822,69297,40609
5477.7,-27420,-132193,69468,40797
5479.7,-27044,-131723,69584,40904
5481.7,-27679,-131989,69591,40893
5483.7,-28464,-132504,69584,40884
5485.7,-28484,-132435,69563,40865
5487.7,-28058,-132000,69473,40781
5489.7,-27931,-132092,69396,40728
5491.7,-28103,-132601,69413,40765
5493.7,-28143,-132531,69481,40815
5495.7,-28043,-131883,69558,40861
5497.7,-28030,-131729,69584,40891
5499.7,-27956,-132219,69484,40817
5501.7,-27699,-132372,69428,40764
5503.7,-27668,-131969,69650,40976
5505.7,-28074,-131773,69927,41269
5507.7,-28396,-131927,69865,41239
5509.7,-28280,-131929,69618,40994
5511.7,-28115,-131872,69555,40908
5513.7,-28178,-132115,69601,40946
5515.7,-28208,-132356,69579,40935
5517.7,-28112,-132261,69608,40965
5519.7,-28134,-132140,69700,41047
5521.7,-28290,-132222,69669,41023
5523.7,-28326,-132242,69603,40969
5525.7,-28152,-132119,69668,41016
5527.7,-27915,-132098,69678,40984
5529.7,-27829,-132224,69512,40802
5531.7,-28003,-132303,69441,40750
5533.7,-28250,-132216,69559,40881
5535.7,-28253,-132022,69574,40883
5537.7,-28027,-131913,69434,40737
5539.7,-27864,-131954,69409,40730
5541.7,-27862,-131977,69506,40848
5543.7,-27908,-131960,69504,40851
5545.7,-27961,-132016,69462,40805
5547.7,-27994,-132003,69563,40893
5549.7,-27949,-131904,69656,40970
5551.7,-27938,-132097,69529,40829
5553.7,-28073,-132439,69346,40637
5555.7,-28136,-132283,69349,40648
5557.7,-27949,-131928,69486,40817
5559.7,-27832,-132214,69613,40965
5561.7,-28009,-132737,69674,41001
5563.7,-28090,-132604,69575,40867
5565.7,-27945,-132242,69360,40647
5567.7,-28186,-132340,69342,40638
5569.7,-28840,-132367,69603,40897
5571.7,-28932,-131900,69768,41057
5573.7,-28331,-131629,69676,40949
5575.7,-28109,-131815,69649,40894
5577.7,-28426,-131750,69818,41061
5579.7,-28373,-131398,69889,41160
5581.7,-28011,-131492,69746,41025
5583.7,-28062,-131848,69656,40903
5585.7,-28221,-131667,69755,40968
5587.7,-27976,-131234,69872,41062
5589.7,-27743,-131284,69918,41087
5591.7,-27687,-131412,70033,41193
5593.7,-27414,-131088,70220,41386
5595.7,-27341,-130991,70208,41386
5597.7,-28047,-131539,69924,41125
5599.7,-28737,-131786,69730,40961
5601.7,-28575,-131303,69855,41107
5603.7,-28247,-131095,70035,41303
5605.7,-28423,-131584,70027,41321
5607.7,-28537,-131798,69964,41281
5609.7,-28251,-131226,69981,41299
5611.7,-28070,-130606,69983,41309
5613.7,-28043,-130562,69928,41274
5615.7,-27767,-130896,69870,41217
5617.7,-27481,-131223,69796,41127
5619.7,-27547,-131364,69718,41053
5621.7,-27643,-131299,69707,41063
5623.7,-27576,-131283,69730,41086
5625.7,-27733,-131630,69726,41054
5627.7,-28032,-132055,69741,41051
5629.7,-27902,-131944,69760,41084
5631.7,-27527,-131503,69671,41023
5633.7,-27540,-131535,69547,40902
5635.7,-27703,-131934,69558,40888
5637.7,-27487,-131928,69607,40939
5639.7,-27338,-131711,69495,40871
5641.7,-27856,-132017,69293,40704
5643.7,-28559,-132496,69200,40597
5645.7,-28747,-132448,69200,40570
5647.7,-28557,-132272,69151,40517
5649.7,-28407,-132518,69020,40398
5651.7,-28395,-132775,68916,40308
5653.7,-28532,-132697,68938,40336
5655.7,-28738,-132632,69037,40416
5657.7,-28755,-132708,69075,40430
5659.7,-28550,-132674,69018,40385
5661.7,-28342,-132599,68921,40315
5663.7,-28194,-132651,68826,40197
5665.7,-28096,-132709,68803,40114
5667.7,-28106,-132773,68866,40174
5669.7,-28121,-132934,68842,40230
5671.7,-28027,-132944,68716,40160
5673.7,-28001,-132626,68808,40213
5675.7,-28165,-132269,69164,40506
5677.7,-28368,-132050,69346,40699
5679.7,-28562,-131882,69250,40653
5681.7,-28763,-132015,69243,40656
5683.7,-28737,-132634,69338,40728
5685.7,-28410,-133101,69222,40605
5687.7,-28155,-132853,69000,40390
5689.7,-28178,-132466,68940,40308
5691.7,-28229,-132681,68875,40185
5693.7,-28199,-133251,68674,39894
5695.7,-28288,-133689,68635,39687
5697.7,-28478,-134033,68916,39682
5699.7,-28452,-134163,69365,39766
5701.7,-28107,-133561,70020,40066
5703.7,-27704,-132287,70949,40711
5705.7,-27437,-131178,71872,41455
5707.7,-27186,-130721,72728,42227
5709.7,-26796,-130444,73939,43420
5711.7,-26210,-129608,75450,45114
5713.7,-25361,-128095,76525,46833
5715.7,-24501,-126404,76965,48336
5717.7,-24295,-124959,77276,49737
5719.7,-24728,-123738,77363,50804
5721.7,-24683,-122606,76527,51119
5723.7,-23687,-121639,74871,50839
5725.7,-22929,-121021,73253,50429
5727.7,-23498,-120938,71955,49906
5729.7,-24947,-121517,70618,48971
5731.7,-26316,-122572,69140,47557
5733.7,-27210,-123705,67679,45809
5735.7,-27606,-124878,66283,43881
5737.7,-27664,-126387,65148,42011
5739.7,-27695,-128111,64679,40546
5741.7,-27777,-129486,64962,39732
5743.7,-27812,-130297,65664,39541
5745.7,-27882,-130788,66494,39724
5747.7,-27995,-131070,67350,40026
5749.7,-27912,-131185,68067,40287
5751.7,-27730,-131481,68421,40370
5753.7,-27945,-132156,68456,40251
5755.7,-28623,-132822,68491,40145
5757.7,-29179,-133086,68673,40215
5759.7,-29164,-133007,68817,40312
5761.7,-28766,-132789,68805,40271
5763.7,-28489,-132647,68762,40168
5765.7,-28573,-132788,68761,40093
5767.7,-28800,-133055,68764,40049
5769.7,-28832,-133120,68800,40094
5771.7,-28617,-133077,68867,40204
5773.7,-28330,-133034,68872,40218
5775.7,-28084,-132707,68882,40171
5777.7,-27998,-132276,69027,40257
5779.7,-28208,-132400,69158,40385
5781.7,-28524,-132798,69120,40349
5783.7,-28570,-132653,69088,40273
5785.7,-28468,-132426,69131,40283
5787.7,-28643,-132971,68987,40161
5789.7,-28958,-133606,68725,39914
5791.7,-28982,-133410,68831,39978
5793.7,-28761,-132972,69270,40360
5795.7,-28445,-132910,69422,40492
5797.7,-27981,-132747,69167,40243
5799.7,-27739,-132467,69005,40098
5801.7,-28115,-132708,69096,40216
5803.7,-28533,-133101,69152,40298
5805.7,-28410,-132858,69151,40301
5807.7,-28297,-132451,69282,40411
5809.7,-28595,-132615,69455,40563
5811.7,-28735,-132982,69482,40584
5813.7,-28644,-133121,69422,40515
5815.7,-28862,-133264,69419,40476
5817.7,-29006,-133326,69478,40498
5819.7,-28476,-132972,69496,40517
5821.7,-28033,-132674,69381,40418
5823.7,-28403,-133016,69200,40238
5825.7,-28723,-133429,69148,40199
5827.7,-28236,-133089,69256,40329
5829.7,-27712,-132334,69369,40427
5831.7,-27812,-131940,69454,40471
5833.7,-27992,-131936,69559,40570
5835.7,-27875,-132072,69607,40638
5837.7,-27871,-132367,69575,40615
5839.7,-28080,-132600,69585,40625
5841.7,-28210,-132482,69596,40621
5843.7,-28378,-132403,69483,40453
5845.7,-28683,-132733,69390,40308
5847.7,-28693,-132968,69499,40430
5849.7,-28397,-132778,69647,40606
5851.7,-28437,-132679,69633,40564
5853.7,-28756,-132790,69570,40452
5855.7,-28597,-132562,69600,40476
5857.7,-28044,-132119,69640,40535
5859.7,-27870,-132100,69631,40519
5861.7,-28076,-132354,69687,40552
5863.7,-28123,-132345,69879,40723
5865.7,-28029,-132219,70093,40912
5867.7,-28057,-132336,70187,40976
5869.7,-28117,-132512,70156,40928
5871.7,-28168,-132464,70133,40895
5873.7,-28336,-132328,70218,40941
5875.7,-28415,-132284,70331,40995
5877.7,-28149,-132210,70348,40985
5879.7,-27921,-132071,70334,40981
5881.7,-28266,-132181,70461,41102
5883.7,-28893,-132571,70680,41287
5885.7,-29022,-132692,70746,41328
5887.7,-28470,-132333,70616,41175
5889.7,-27722,-132004,70539,41060
5891.7,-27184,-131871,70697,41195
5893.7,-27025,-131577,70966,41471
5895.7,-27325,-131367,71134,41620
5897.7,-27811,-131729,71160,41597
5899.7,-27948,-132139,71158,41583
5901.7,-27697,-131935,71232,41676
5903.7,-27553,-131619,71371,41795
5905.7,-27666,-131725,71473,41853
5907.7,-27708,-131725,71475,41855
5909.7,-27585,-131260,71453,41872
5911.7,-27485,-130910,71514,41957
5913.7,-27445,-131028,71631,42086
5915.7,-27423,-131221,71705,42185
5917.7,-27410,-131168,71737,42241
5919.7,-27319,-130971,71796,42321
5921.7,-27225,-130878,71919,42473
5923.7,-27336,-130977,72083,42659
5925.7,-27377,-130942,72201,42779
5927.7,-26920,-130466,72192,42786
5929.7,-26423,-130046,72101,42749
5931.7,-26631,-130332,72011,42696
5933.7,-27270,-130912,71893,42565
5935.7,-27654,-131035,71762,42437
5937.7,-27731,-130897,71744,42481
5939.7,-27547,-130916,71785,42581
5941.7,-27054,-130837,71726,42531
5943.7,-26804,-130607,71679,42496
5945.7,-27220,-130738,71812,42678
5947.7,-27614,-131125,71929,42831
5949.7,-27410,-131014,71819,42731
5951.7,-27194,-130420,71648,42583
5953.7,-27400,-130143,71561,42525
5955.7,-27495,-130358,71459,42424
5957.7,-27183,-130471,71393,42354
5959.7,-26899,-130266,71499,42483
5961.7,-26897,-130134,71579,42587
5963.7,-27026,-130328,71369,42378
5965.7,-27282,-130749,71032,42036
5967.7,-27739,-131241,70844,41843
5969.7,-28165,-131605,70755,41754
5971.7,-28220,-131665,70663,41683
5973.7,-27934,-131479,70659,41710
5975.7,-27782,-131248,70761,41819
5977.7,-28203,-131231,70786,41845
5979.7,-28973,-131716,70626,41714
5981.7,-29262,-132348,70368,41489
5983.7,-28654,-132120,70161,41290
5985.7,-27888,-131107,70134,41261
5987.7,-27882,-130798,70291,41415
5989.7,-28305,-131539,70427,41533
5991.7,-28191,-131864,70353,41447
5993.7,-27625,-131335,70175,41290
5995.7,-27441,-131220,70101,41235
5997.7,-27665,-131810,70125,41247
5999.7,-27780,-132011,70119,41248
6001.7,-27848,-131639,70045,41235
6003.7,-28065,-131530,69918,41156
6005.7,-28070,-131785,69777,40994
6007.7,-27753,-131863,69718,40892
6009.7,-27687,-131792,69765,40926
6011.7,-28054,-131969,69808,40970
6013.7,-28275,-132310,69806,40965
6015.7,-28098,-132419,69828,40996
6017.7,-27980,-132259,69875,41050
6019.7,-28198,-132155,69900,41068
6021.7,-28483,-132282,69906,41088
6023.7,-28593,-132458,69878,41113
6025.7,-28608,-132422,69814,41084
6027.7,-28615,-132135,69801,41058
6029.7,-28518,-131838,69842,41091
6031.7,-28251,-131842,69844,41102
6033.7,-28002,-132128,69827,41070
6035.7,-28045,-132297,69827,41046
6037.7,-28339,-132183,69763,40983
6039.7,-28530,-132145,69698,40923
6041.7,-28454,-132370,69794,41015
6043.7,-28344,-132461,69901,41131
6045.7,-28427,-132174,69801,41052
6047.7,-28581,-131929,69717,40973
6049.7,-28584,-132098,69862,41101
6051.7,-28462,-132339,69952,41170
6053.7,-28335,-132180,69830,41045
6055.7,-28166,-131809,69812,41060
6057.7,-27976,-131734,69979,41264
6059.7,-27986,-131966,70044,41310
6061.7,-28169,-132050,70010,41231
6063.7,-28204,-131841,70057,41288
6065.7,-28154,-131760,70016,41300
6067.7,-28357,-132109,69785,41086
6069.7,-28661,-132534,69705,40988
6071.7,-28734,-132539,69926,41202
6073.7,-28714,-132261,70080,41364
6075.7,-28642,-132134,69959,41244
6077.7,-28177,-132052,69809,41083
6079.7,-27591,-131691,69795,41061
6081.7,-27668,-131366,69792,41066
6083.7,-28278,-131587,69726,41019
6085.7,-28570,-132093,69714,41003
6087.7,-28405,-132255,69806,41066
6089.7,-28253,-132036,69856,41107
6091.7,-28232,-131768,69765,41034
6093.7,-28250,-131565,69700,40976
6095.7,-28340,-131541,69844,41103
6097.7,-28427,-131858,70038,41292
6099.7,-28434,-132217,70053,41331
6101.7,-28432,-132123,70008,41306
6103.7,-28290,-131748,70073,41358
6105.7,-27960,-131718,70092,41342
6107.7,-27960,-132073,69927,41154
6109.7,-28432,-132247,69773,41002
6111.7,-28537,-132056,69788,41015
6113.7,-28035,-131964,69818,41022
6115.7,-27881,-132182,69751,40946
6117.7,-28237,-132224,69741,40961
6119.7,-28158,-131852,69877,41106
6121.7,-27797,-131692,69951,41138
6123.7,-28177,-132151,69817,40963
6125.7,-28918,-132554,69711,40868
6127.7,-28933,-132277,69900,41083
6129.7,-28489,-131704,70223,41393
6131.7,-28279,-131296,70345,41483
6133.7,-28107,-130984,70279,41412
6135.7,-28004,-130884,70277,41427
6137.7,-28421,-131177,70382,41545
6139.7,-28778,-131357,70440,41595
6141.7,-28283,-131076,70366,41488
6143.7,-27716,-131008,70195,41290
6145.7,-27967,-131488,70036,41142
6147.7,-28252,-131632,70005,41130
6149.7,-27923,-131130,70105,41220
6151.7,-27869,-131042,70212,41330
6153.7,-28415,-131658,70245,41413
6155.7,-28511,-131770,70228,41442
6157.7,-28087,-131066,70196,41407
6159.7,-28269,-130796,70151,41355
6161.7,-28869,-131298,70117,41330
6163.7,-28706,-131446,70114,41318
6165.7,-28051,-131002,70099,41285
6167.7,-27975,-130946,70056,41266
6169.7,-28218,-131364,70097,41354
6171.7,-28042,-131417,70267,41557
6173.7,-27750,-131109,70372,41694
6175.7,-27779,-131058,70281,41622
6177.7,-27890,-131163,70152,41453
6179.7,-27961,-131103,70114,41353
6181.7,-28105,-131232,70092,41334
6183.7,-28101,-131754,70083,41378
6185.7,-27806,-132030,70124,41449
6187.7,-27532,-131600,70086,41393
6189.7,-27522,-131099,69918,41192
6191.7,-27788,-131393,69795,41058
6193.7,-28254,-132247,69739,41036
6195.7,-28566,-132640,69626,40967
6197.7,-28475,-132296,69559,40892
6199.7,-28426,-131993,69623,40915
6201.7,-28743,-132139,69595,40884
6203.7,-28860,-132233,69419,40730
6205.7,-28463,-132061,69354,40646
6207.7,-28210,-132119,69384,40625
6209.7,-28455,-132534,69280,40500
6211.7,-28670,-132799,69180,40437
6213.7,-28587,-132679,69282,40603
6215.7,-28551,-132451,69357,40705
6217.7,-28688,-132405,69259,40563
6219.7,-28817,-132629,69244,40493
6221.7,-28916,-132955,69373,40627
6223.7,-28991,-132999,69385,40678
6225.7,-28929,-132667,69287,40591
6227.7,-28774,-132396,69319,40606
6229.7,-28667,-132509,69450,40709
6231.7,-28568,-132701,69502,40740
6233.7,-28404,-132604,69474,40729
6235.7,-28289,-132455,69419,40715
6237.7,-28285,-132610,69347,40643
6239.7,-28289,-132763,69329,40575
6241.7,-28329,-132529,69369,40586
6243.7,-28479,-132320,69343,40576
6245.7,-28483,-132562,69264,40498
6247.7,-28172,-132801,69273,40440
6249.7,-28019,-132749,69324,40338
6251.7,-28394,-132954,69360,40115
6253.7,-28818,-133400,69661,40054
6255.7,-28837,-133213,70427,40420
6257.7,-28766,-132484,71292,40956
6259.7,-28723,-132141,71926,41418
6261.7,-28130,-131883,72753,42196
6263.7,-26885,-130723,74233,43662
6265.7,-25763,-129107,75870,45406
6267.7,-25165,-127953,76840,46877
6269.7,-24608,-126689,77178,48166
6271.7,-23755,-124679,77401,49473
6273.7,-23025,-122959,77390,50458
6275.7,-22910,-122402,76641,50813
6277.7,-23232,-122082,75244,50788
6279.7,-23490,-121222,73754,50639
6281.7,-23817,-120671,72409,50195
6283.7,-24877,-121154,71110,49303
6285.7,-26631,-122140,69812,48066
6287.7,-28093,-123220,68478,46529
6289.7,-28675,-124700,67041,44642
6291.7,-28791,-126545,65705,42610
6293.7,-28888,-128248,64969,40923
6295.7,-28852,-129564,65112,40002
6297.7,-28544,-130443,65870,39859
6299.7,-28202,-130883,66729,40066
6301.7,-28175,-131198,67385,40178
6303.7,-28458,-131587,67841,40142
6305.7,-28618,-131758,68198,40149
6307.7,-28437,-131748,68551,40285
6309.7,-28380,-132117,68957,40508
6311.7,-28837,-132732,69302,40709
6313.7,-29339,-132806,69381,40725
6315.7,-29304,-132380,69238,40554
6317.7,-28970,-132233,69145,40414
6319.7,-28823,-132467,69201,40411
6321.7,-28784,-132593,69275,40439
6323.7,-28663,-132579,69280,40421
6325.7,-28704,-132723,69206,40347
6327.7,-29028,-132945,69110,40248
6329.7,-29209,-132918,69152,40267
6331.7,-29032,-132642,69322,40433
6333.7,-28907,-132479,69361,40502
6335.7,-28975,-132603,69251,40409
6337.7,-28799,-132723,69250,40380
6339.7,-28388,-132655,69303,40393
6341.7,-28328,-132682,69206,40273
6343.7,-28612,-132877,69186,40253
6345.7,-28707,-132848,69453,40531
6347.7,-28658,-132608,69646,40711
6349.7,-28781,-132633,69504,40523
6351.7,-28812,-132813,69383,40379
6353.7,-28520,-132643,69524,40550
6355.7,-28360,-132386,69615,40661
6357.7,-28637,-132602,69456,40465
6359.7,-28916,-132938,69310,40280
6361.7,-28804,-132790,69385,40362
6363.7,-28527,-132499,69525,40530
6365.7,-28467,-132601,69574,40579
6367.7,-28663,-132777,69592,40562
6369.7,-28887,-132641,69610,40550
6371.7,-28935,-132501,69581,40533
6373.7,-28790,-132530,69591,40587
6375.7,-28638,-132429,69711,40736
6377.7,-28732,-132330,69740,40749
6379.7,-29015,-132621,69561,40528
6381.7,-29008,-132877,69451,40377
6383.7,-28514,-132530,69581,40490
6385.7,-28152,-132171,69712,40639
6387.7,-28459,-132540,69688,40654
6389.7,-28848,-133001,69671,40663
6391.7,-28501,-132610,69751,40745
6393.7,-27838,-131770,69861,40853
6395.7,-27920,-131508,69944,40938
6397.7,-28723,-131943,69920,40908
6399.7,-29237,-132439,69791,40762
6401.7,-29098,-132657,69739,40698
6403.7,-28921,-132793,69812,40766
6405.7,-29017,-132996,69838,40770
6407.7,-29004,-133015,69839,40720
6409.7,-28791,-132625,69981,40811
6411.7,-28728,-132146,70142,40956
6413.7,-28726,-132026,70095,40920
6415.7,-28422,-132166,69933,40764
6417.7,-28081,-132237,69887,40701
6419.7,-28167,-132256,70006,40792
6421.7,-28393,-132337,70197,40954
6423.7,-28272,-132345,70311,41035
6425.7,-28003,-132164,70262,40948
6427.7,-27995,-131922,70182,40849
6429.7,-28207,-131843,70248,40924
6431.7,-28464,-132013,70411,41094
6433.7,-28687,-132227,70570,41238
6435.7,-28705,-132202,70763,41419
6437.7,-28468,-132024,70957,41602
6439.7,-28285,-131984,70986,41590
6441.7,-28385,-132062,70853,41400
6443.7,-28530,-132071,70790,41308
6445.7,-28364,-132005,70928,41444
6447.7,-27939,-131838,71115,41629
6449.7,-27758,-131569,71142,41645
6451.7,-28153,-131536,71035,41524
6453.7,-28634,-131902,71034,41518
6455.7,-28454,-132053,71286,41782
6457.7,-27857,-131491,71688,42199
6459.7,-27739,-130849,72004,42505
6461.7,-28076,-130947,72021,42506
6463.7,-27993,-131383,71767,42256
6465.7,-27355,-131244,71576,42079
6467.7,-26977,-130721,71670,42174
6469.7,-27284,-130737,71829,42337
6471.7,-27808,-131296,71854,42377
6473.7,-27976,-131550,71900,42442
6475.7,-27718,-131292,72005,42563
6477.7,-27345,-131054,71924,42500
6479.7,-27139,-131023,71697,42296
6481.7,-27142,-130969,71657,42282
6483.7,-27256,-130840,71816,42465
6485.7,-27367,-130665,71896,42563
6487.7,-27355,-130438,71846,42539
6489.7,-27257,-130376,71852,42582
6491.7,-27324,-130617,72008,42756
6493.7,-27599,-130799,72171,42926
6495.7,-27721,-130625,72131,42910
6497.7,-27575,-130397,71932,42741
6499.7,-27570,-130419,71865,42668
6501.7,-27801,-130509,71952,42735
6503.7,-27749,-130531,71891,42694
6505.7,-27317,-130707,71642,42508
6507.7,-27128,-131016,71483,42401
6509.7,-27392,-131012,71486,42417
6511.7,-27596,-130621,71526,42456
6513.7,-27540,-130371,71576,42529
6515.7,-27560,-130526,71592,42577
6517.7,-27742,-130770,71495,42486
6519.7,-27876,-130899,71377,42360
6521.7,-27909,-130967,71318,42310
6523.7,-27864,-130881,71194,42184
6525.7,-27759,-130746,70985,41944
6527.7,-27813,-131024,70861,41812
6529.7,-28094,-131549,70802,41788
6531.7,-28183,-131451,70650,41651
6533.7,-27909,-130783,70485,41463
6535.7,-27832,-130716,70476,41446
6537.7,-28212,-131487,70563,41552
6539.7,-28413,-131938,70602,41593
6541.7,-28183,-131552,70561,41546
6543.7,-28269,-131147,70462,41470
6545.7,-28868,-131307,70376,41407
6547.7,-28985,-131671,70399,41415
6549.7,-28217,-131812,70480,41470
6551.7,-27641,-131727,70426,41430
6553.7,-28106,-131699,70189,41244
6555.7,-28993,-132045,69946,41044
6557.7,-29262,-132519,69845,40953
6559.7,-28776,-132383,69843,40942
6561.7,-28248,-131753,69813,40903
6563.7,-28360,-131689,69736,40821
6565.7,-28975,-132292,69756,40832
6567.7,-29314,-132463,70005,41062
6569.7,-29019,-132009,70342,41381
6571.7,-28528,-131859,70405,41462
6573.7,-28252,-132103,70095,41200
6575.7,-28150,-132039,69780,40898
6577.7,-28195,-131809,69767,40848
6579.7,-28408,-131966,69874,40937
6581.7,-28505,-132170,69837,40920
6583.7,-28319,-131963,69730,40816
6585.7,-28265,-131759,69697,40766
6587.7,-28609,-131912,69741,40819
6589.7,-28832,-132073,69871,40979
6591.7,-28561,-132080,70016,41131
6593.7,-28370,-132153,69991,41082
6595.7,-28683,-132107,69915,40972
6597.7,-28899,-131682,70104,41141
6599.7,-28611,-131368,70367,41405
6601.7,-28454,-131664,70262,41303
6603.7,-28756,-132070,69968,40994
6605.7,-28842,-131935,69932,40955
6607.7,-28471,-131636,70011,41063
6609.7,-28285,-131846,69887,40965
6611.7,-28413,-132275,69750,40828
6613.7,-28313,-132157,69868,40929
6615.7,-28056,-131615,70074,41114
6617.7,-28194,-131480,70132,41157
6619.7,-28654,-131909,70084,41114
6621.7,-28964,-132269,70065,41114
6623.7,-29008,-132294,70105,41165
6625.7,-28882,-132238,70123,41176
6627.7,-28693,-132087,70045,41074
6629.7,-28698,-131742,69966,40966
6631.7,-28962,-131551,70030,41033
6633.7,-29073,-131707,70153,41196
6635.7,-28758,-131839,70146,41215
6637.7,-28361,-131803,70044,41085
6639.7,-28280,-131882,70006,40994
6641.7,-28407,-131996,70043,41007
6643.7,-28430,-131840,70058,41045
6645.7,-28297,-131642,70055,41076
6647.7,-28158,-131698,70118,41152
6649.7,-28111,-131721,70223,41270
6651.7,-28177,-131581,70194,41267
6653.7,-28405,-131754,69956,41032
6655.7,-28738,-132216,69730,40766
6657.7,-28881,-132176,69738,40744
6659.7,-28636,-131620,69882,40900
6661.7,-28309,-131552,69958,40984
6663.7,-28362,-132196,69956,40963
6665.7,-28730,-132644,69948,40937
6667.7,-28950,-132509,69923,40916
6669.7,-28930,-132272,69904,40903
6671.7,-28987,-132183,69968,40974
6673.7,-29151,-132153,70115,41125
6675.7,-29073,-132195,70229,41232
6677.7,-28754,-132175,70193,41179
6679.7,-28647,-131966,70040,41000
6681.7,-28816,-131866,69972,40898
6683.7,-28798,-131955,70075,40981
6685.7,-28490,-131750,70152,41070
6687.7,-28291,-131189,70092,41024
6689.7,-28288,-130817,70125,41054
6691.7,-28301,-130816,70368,41304
6693.7,-28517,-131025,70566,41515
6695.7,-28987,-131488,70553,41486
6697.7,-29096,-131985,70486,41378
6699.7,-28616,-131988,70457,41314
6701.7,-28320,-131632,70411,41247
6703.7,-28591,-131521,70391,41228
6705.7,-28775,-131604,70409,41276
6707.7,-28572,-131468,70343,41232
6709.7,-28492,-131227,70254,41131
6711.7,-28600,-131116,70369,41241
6713.7,-28468,-130955,70623,41525
6715.7,-28247,-130725,70709,41626
6717.7,-28338,-130825,70567,41463
6719.7,-28492,-131266,70403,41289
6721.7,-28412,-131406,70348,41248
6723.7,-28409,-130973,70419,41323
6725.7,-28630,-130620,70581,41483
6727.7,-28647,-130842,70657,41582
6729.7,-28312,-131128,70495,41460
6731.7,-28101,-130954,70267,41255
6733.7,-28300,-130770,70242,41229
6735.7,-28606,-131065,70349,41309
6737.7,-28638,-131421,70348,41256
6739.7,-28382,-131366,70268,41137
6741.7,-28130,-131228,70287,41174
6743.7,-28179,-131460,70390,41329
6745.7,-28502,-131883,70423,41379
6747.7,-28748,-132085,70290,41233
6749.7,-28716,-132070,70029,40982
6751.7,-28616,-132136,69812,40786
6753.7,-28631,-132262,69738,40698
6755.7,-28585,-132135,69660,40592
6757.7,-28362,-131893,69521,40440
6759.7,-28174,-132059,69525,40434
6761.7,-28157,-132520,69645,40542
6763.7,-28199,-132602,69525,40429
6765.7,-28310,-132327,69227,40127
6767.7,-28618,-132364,69257,40110
6769.7,-29018,-132778,69621,40430
6771.7,-29214,-132988,69781,40607
6773.7,-29060,-132809,69625,40499
6775.7,-28743,-132566,69541,40452
6777.7,-28740,-132448,69643,40579
6779.7,-29277,-132368,69737,40676
6781.7,-29744,-132230,69789,40704
6783.7,-29418,-132084,69842,40750
6785.7,-28727,-132136,69831,40770
6787.7,-28659,-132490,69774,40726
6789.7,-29101,-132805,69759,40684
6791.7,-29126,-132611,69745,40652
6793.7,-28702,-132142,69676,40593
6795.7,-28658,-132196,69616,40522
6797.7,-29120,-132807,69590,40445
6799.7,-29321,-133025,69569,40387
6801.7,-28935,-132535,69581,40405
6803.7,-28481,-132227,69589,40413
6805.7,-28417,-132569,69482,40249
6807.7,-28634,-132933,69382,40022
6809.7,-28853,-133001,69563,39992
6811.7,-28992,-133124,70064,40165
6813.7,-29133,-133189,70734,40434
6815.7,-29286,-132808,71504,40841
6817.7,-29173,-132242,72345,41443
6819.7,-28497,-131732,73222,42223
6821.7,-27450,-130823,74211,43242
6823.7,-26465,-129350,75360,44560
6825.7,-25565,-127879,76480,46091
6827.7,-24625,-126690,77307,47676
6829.7,-23967,-125591,77736,49086
6831.7,-23896,-124583,77749,50055
6833.7,-24058,-123673,77278,50523
6835.7,-24002,-122630,76255,50648
6837.7,-23964,-121638,74815,50506
6839.7,-24510,-121255,73322,50065
6841.7,-25704,-121499,72044,49333
6843.7,-27051,-121985,70857,48241
6845.7,-28087,-122765,69486,46643
6847.7,-28774,-124146,67897,44598
6849.7,-29299,-126142,66345,42412
6851.7,-29655,-128498,65195,40477
6853.7,-29696,-130583,64770,39204
6855.7,-29496,-131549,65130,38814
6857.7,-29260,-131402,65962,39045
6859.7,-29024,-131228,66842,39381
6861.7,-28836,-131679,67572,39604
6863.7,-28850,-132233,68192,39830
6865.7,-28854,-132279,68744,40112
6867.7,-28501,-131899,69148,40316
6869.7,-28213,-131526,69313,40349
6871.7,-28616,-131586,69291,40274
6873.7,-29153,-132145,69255,40209
6875.7,-28956,-132673,69363,40244
6877.7,-28566,-132712,69665,40435
6879.7,-28863,-132519,70015,40692
6881.7,-29340,-132487,70121,40755
6883.7,-29289,-132566,69897,40514
6885.7,-29178,-132644,69643,40226
6887.7,-29332,-132707,69635,40158
6889.7,-29157,-132584,69754,40228
6891.7,-28606,-132286,69773,40244
6893.7,-28474,-132207,69739,40228
6895.7,-28829,-132433,69795,40276
6897.7,-28929,-132576,69886,40339
6899.7,-28643,-132532,69872,40315
6901.7,-28515,-132523,69772,40210
6903.7,-28728,-132514,69702,40125
6905.7,-28981,-132440,69693,40122
6907.7,-29092,-132530,69717,40175
6909.7,-29113,-132743,69799,40240
6911.7,-29073,-132654,69929,40309
6913.7,-28905,-132310,69979,40341
6915.7,-28680,-132194,69914,40300
6917.7,-28747,-132385,69857,40238
6919.7,-29233,-132667,69838,40208
6921.7,-29509,-133021,69802,40210
6923.7,-28998,-133251,69860,40302
6925.7,-28327,-132979,70070,40488
6927.7,-28431,-132432,70196,40587
6929.7,-28915,-132165,70119,40520
6931.7,-28894,-132144,70061,40468
6933.7,-28686,-132141,70097,40486
6935.7,-28884,-132324,70070,40441
6937.7,-28957,-132616,70058,40417
6939.7,-28529,-132596,70185,40531
6941.7,-28400,-132414,70188,40534
6943.7,-28873,-132525,69914,40276
6945.7,-29012,-132684,69752,40134
6947.7,-28540,-132457,69970,40360
6949.7,-28359,-132119,70240,40625
6951.7,-28750,-132104,70248,40626
6953.7,-29037,-132331,70163,40539
6955.7,-29004,-132510,70246,40605
6957.7,-28973,-132475,70424,40740
6959.7,-28915,-132221,70455,40723
6961.7,-28743,-132008,70308,40546
6963.7,-28774,-132098,70240,40459
6965.7,-29077,-132367,70421,40617
6967.7,-29232,-132564,70641,40800
6969.7,-29069,-132599,70627,40735
6971.7,-28782,-132389,70451,40545
6973.7,-28452,-131991,70379,40526
6975.7,-28226,-131818,70492,40708
6977.7,-28353,-132078,70657,40887
6979.7,-28493,-132328,70700,40897
6981.7,-28094,-132195,70620,40778
6983.7,-27636,-131943,70667,40793
6985.7,-27979,-131863,70974,41067
6987.7,-28641,-131833,71217,41278
6989.7,-28530,-131796,71122,41163
6991.7,-27941,-131867,71008,41035
6993.7,-27958,-131885,71208,41201
6995.7,-28515,-131684,71434,41367
6997.7,-28748,-131549,71359,41247
6999.7,-28546,-131674,71219,41104
7001.7,-28412,-131773,71320,41220
7003.7,-28467,-131763,71547,41454
7005.7,-28494,-131936,71683,41588
7007.7,-28396,-132125,71714,41610
7009.7,-28213,-131849,71755,41635
7011.7,-28077,-131315,71905,41777
7013.7,-28095,-131139,72095,41971
7015.7,-28074,-131279,72102,41980
7017.7,-27850,-131290,71940,41808
7019.7,-27844,-131201,71949,41805
7021.7,-28311,-131238,72233,42086
7023.7,-28458,-131188,72405,42273
7025.7,-27667,-130851,72246,42132
7027.7,-26878,-130670,72122,42009
7029.7,-27114,-131031,72356,42254
7031.7,-27653,-131391,72668,42617
7033.7,-27397,-131071,72683,42689
7035.7,-26804,-130451,72543,42558
7037.7,-26819,-130264,72542,42532
7039.7,-27254,-130335,72613,42597
7041.7,-27536,-130213,72609,42617
7043.7,-27710,-130196,72619,42660
7045.7,-27847,-130557,72693,42754
7047.7,-27678,-130793,72684,42755
7049.7,-27280,-130595,72548,42638
7051.7,-27093,-130429,72427,42552
7053.7,-27212,-130519,72411,42572
7055.7,-27378,-130446,72430,42616
7057.7,-27442,-130100,72392,42597
7059.7,-27356,-129913,72344,42577
7061.7,-27134,-130025,72401,42685
7063.7,-27031,-130136,72468,42823
7065.7,-27280,-130158,72362,42760
7067.7,-27683,-130251,72216,42601
7069.7,-27896,-130384,72267,42620
7071.7,-27920,-130480,72353,42684
7073.7,-27935,-130686,72227,42530
7075.7,-27956,-131004,72041,42326
7077.7,-27956,-131119,71999,42318
7079.7,-27996,-130961,72006,42372
7081.7,-28063,-130795,71948,42302
7083.7,-28097,-130677,71812,42124
7085.7,-28207,-130569,71595,41900
7087.7,-28483,-130751,71421,41757
7089.7,-28684,-131238,71419,41786
