t,lead_I,lead_II,v3,v4
1.0,-9240,-56981,91374,60276
3.0,-9889,-56872,90981,59772
5.0,-10077,-56956,90940,59502
7.0,-10504,-57271,91180,59478
9.0,-11141,-57474,91353,59530
11.0,-11544,-57704,91490,59678
13.0,-11887,-58169,91806,60058
15.0,-12078,-58295,91959,60390
17.0,-11477,-57718,91615,60344
19.0,-10336,-57143,91201,60137
21.0,-9675,-57040,91053,59965
23.0,-9688,-57031,90900,59644
25.0,-9956,-57093,90781,59292
27.0,-10507,-57527,91010,59273
29.0,-11306,-57931,91319,59453
31.0,-11791,-57921,91410,59578
33.0,-11785,-57953,91575,59848
35.0,-11685,-58154,91823,60275
37.0,-11497,-57858,91714,60432
39.0,-10870,-57065,91347,60240
41.0,-10012,-56601,91146,60018
43.0,-9586,-56620,91045,59809
45.0,-9846,-56702,90926,59546
47.0,-10459,-57045,91024,59428
49.0,-11006,-57878,91331,59554
51.0,-11355,-58475,91561,59718
53.0,-11577,-58267,91732,59812
55.0,-11617,-57899,92051,59961
57.0,-11299,-57978,92552,60255
59.0,-10662,-58001,93206,60658
61.0,-9890,-57383,93898,61044
63.0,-9000,-56374,94490,61374
65.0,-8154,-55421,95239,61930
67.0,-7860,-54563,96530,63070
69.0,-8094,-53666,98017,64660
71.0,-7916,-52640,98926,66213
73.0,-6827,-51430,99151,67550
75.0,-5579,-50081,99085,68754
77.0,-4912,-48769,98655,69635
79.0,-4593,-47699,97506,69872
81.0,-4287,-46938,95814,69515
83.0,-4295,-46414,94106,68843
85.0,-5047,-46324,92615,67943
87.0,-6536,-47122,91305,66813
89.0,-8348,-48686,90155,65556
91.0,-9935,-50252,89108,64210
93.0,-10994,-51562,88091,62707
95.0,-11526,-52966,87236,61152
97.0,-11452,-54303,86832,59890
99.0,-10736,-55090,87005,59185
101.0,-9919,-55519,87615,58983
103.0,-9722,-55965,88407,59030
105.0,-10144,-56288,89159,59113
107.0,-10631,-56518,89772,59187
109.0,-10910,-57024,90292,59317
111.0,-11085,-57593,90804,59558
113.0,-11265,-57736,91233,59860
115.0,-11400,-57680,91386,60072
117.0,-11300,-57754,91248,60082
119.0,-10900,-57623,91041,59936
121.0,-10521,-57158,90908,59744
123.0,-10478,-56905,90830,59573
125.0,-10605,-57050,90850,59479
127.0,-10668,-57197,91021,59493
129.0,-10851,-57291,91214,59550
131.0,-11294,-57593,91316,59629
133.0,-11661,-57936,91419,59830
135.0,-11620,-57957,91538,60123
137.0,-11296,-57675,91518,60276
139.0,-10957,-57306,91353,60209
141.0,-10667,-57046,91191,60059
143.0,-10431,-57151,91049,59873
145.0,-10402,-57559,90907,59628
147.0,-10702,-57739,90880,59442
149.0,-11156,-57557,91017,59444
151.0,-11475,-57608,91235,59615
153.0,-11584,-58034,91493,59899
155.0,-11523,-58137,91711,60196
157.0,-11231,-57707,91695,60292
159.0,-10781,-57400,91448,60115
161.0,-10499,-57384,91236,59861
163.0,-10515,-57136,91167,59664
165.0,-10594,-56735,91122,59482
167.0,-10624,-56844,91114,59381
169.0,-10779,-57439,91262,59500
171.0,-11041,-57845,91476,59724
173.0,-11073,-57790,91552,59820
175.0,-10782,-57492,91487,59820
177.0,-10534,-57108,91439,59902
179.0,-10567,-56784,91459,60031
181.0,-10642,-56796,91469,60047
183.0,-10542,-57107,91415,59952
185.0,-10435,-57255,91320,59837
187.0,-10498,-57048,91250,59714
189.0,-10689,-56921,91286,59642
191.0,-11014,-57248,91460,59757
193.0,-11384,-57721,91664,60044
195.0,-11359,-57783,91745,60302
197.0,-10827,-57363,91692,60413
199.0,-10443,-56850,91610,60418
201.0,-10591,-56578,91571,60385
203.0,-10749,-56631,91596,60350
205.0,-10573,-56966,91633,60302
207.0,-10479,-57402,91595,60200
209.0,-10665,-57631,91555,60135
211.0,-10759,-57515,91714,60286
213.0,-10651,-57233,92013,60565
215.0,-10633,-56997,92159,60692
217.0,-10729,-56867,92115,60650
219.0,-10664,-56874,92056,60599
221.0,-10373,-56948,91955,60481
223.0,-10137,-56870,91796,60249
225.0,-10216,-56657,91842,60161
227.0,-10489,-56633,92166,60354
229.0,-10624,-56846,92418,60552
231.0,-10643,-56945,92441,60579
233.0,-10816,-56804,92478,60620
235.0,-10999,-56636,92604,60759
237.0,-10784,-56492,92629,60824
239.0,-10244,-56281,92555,60762
241.0,-9814,-56145,92573,60723
243.0,-9680,-56243,92702,60766
245.0,-9802,-56383,92818,60813
247.0,-10095,-56327,92858,60813
249.0,-10275,-56137,92851,60806
251.0,-10106,-55954,92876,60867
253.0,-9840,-55836,93007,61038
255.0,-9856,-55887,93218,61291
257.0,-10019,-56103,93434,61571
259.0,-9971,-56174,93614,61812
261.0,-9795,-55906,93694,61894
263.0,-9819,-55579,93621,61740
265.0,-9969,-55463,93509,61508
267.0,-9887,-55383,93528,61444
269.0,-9615,-55226,93674,61573
271.0,-9598,-55285,93845,61774
273.0,-9924,-55591,93993,61988
275.0,-10123,-55615,94056,62153
277.0,-9910,-55235,94006,62206
279.0,-9564,-55063,94011,62263
281.0,-9361,-55269,94158,62400
283.0,-9214,-55244,94210,62401
285.0,-9060,-54883,94040,62161
287.0,-9038,-54776,93948,61996
289.0,-9212,-54923,94103,62099
291.0,-9476,-54817,94240,62226
293.0,-9618,-54653,94205,62242
295.0,-9400,-54828,94161,62296
297.0,-8917,-54846,94112,62332
299.0,-8668,-54265,93905,62164
301.0,-8882,-53831,93661,61958
303.0,-9180,-54228,93639,61978
305.0,-9248,-54821,93799,62126
307.0,-9224,-54866,93932,62198
309.0,-9237,-54792,93999,62250
311.0,-9257,-55102,94062,62354
313.0,-9367,-55285,94066,62379
315.0,-9601,-54980,93953,62276
317.0,-9698,-54848,93823,62208
319.0,-9460,-55130,93725,62191
321.0,-9099,-54977,93494,61972
323.0,-8978,-54289,93142,61567
325.0,-9267,-54278,93038,61398
327.0,-9854,-55205,93250,61566
329.0,-10343,-55798,93319,61626
331.0,-10348,-55657,93099,61441
333.0,-9989,-55724,92973,61364
335.0,-9775,-56097,92991,61411
337.0,-9865,-55972,92822,61256
339.0,-9940,-55569,92558,61008
341.0,-9858,-55700,92521,60974
343.0,-9848,-56078,92548,60972
345.0,-10008,-56040,92378,60746
347.0,-10146,-55902,92198,60509
349.0,-10157,-56158,92210,60490
351.0,-10173,-56539,92275,60561
353.0,-10317,-56688,92268,60588
355.0,-10539,-56706,92235,60609
357.0,-10730,-56707,92207,60628
359.0,-10822,-56586,92173,60594
361.0,-10773,-56304,92115,60489
363.0,-10632,-56039,92026,60363
365.0,-10564,-56048,91991,60318
367.0,-10571,-56342,92048,60351
369.0,-10443,-56603,92044,60306
371.0,-10257,-56629,91931,60188
373.0,-10414,-56577,91941,60247
375.0,-10803,-56555,92131,60500
377.0,-10816,-56474,92203,60622
379.0,-10495,-56430,92046,60511
381.0,-10501,-56587,91939,60439
383.0,-10765,-56753,92021,60522
385.0,-10657,-56720,92100,60556
387.0,-10389,-56659,92082,60467
389.0,-10582,-56607,92064,60415
391.0,-10883,-56263,92008,60398
393.0,-10661,-55829,91844,60291
395.0,-10294,-55962,91743,60202
397.0,-10324,-56494,91838,60296
399.0,-10420,-56584,91933,60434
401.0,-10267,-56230,91884,60422
403.0,-10221,-56108,91838,60346
405.0,-10442,-56200,91855,60316
407.0,-10603,-56162,91830,60278
409.0,-10619,-56300,91812,60233
411.0,-10649,-56761,91903,60262
413.0,-10616,-56909,91993,60333
415.0,-10461,-56514,91973,60370
417.0,-10396,-56160,91900,60351
419.0,-10498,-56112,91823,60277
421.0,-10541,-56186,91788,60240
423.0,-10414,-56426,91878,60342
425.0,-10287,-56699,91980,60432
427.0,-10380,-56525,91897,60310
429.0,-10708,-56100,91769,60159
431.0,-10965,-56175,91851,60244
433.0,-10800,-56663,92000,60400
435.0,-10393,-56875,91965,60378
437.0,-10285,-56839,91867,60324
439.0,-10497,-56886,91887,60396
441.0,-10550,-56743,91893,60417
443.0,-10378,-56284,91771,60291
445.0,-10330,-56130,91703,60242
447.0,-10431,-56523,91814,60372
449.0,-10533,-56807,91936,60457
451.0,-10764,-56621,91909,60377
453.0,-11082,-56378,91834,60315
455.0,-11058,-56335,91824,60374
457.0,-10630,-56323,91783,60386
459.0,-10310,-56364,91637,60249
461.0,-10354,-56561,91519,60128
463.0,-10461,-56697,91526,60129
465.0,-10372,-56653,91532,60117
467.0,-10223,-56675,91463,60040
469.0,-10243,-56799,91441,60055
471.0,-10456,-56741,91496,60174
473.0,-10685,-56520,91500,60191
475.0,-10754,-56420,91473,60106
477.0,-10671,-56477,91548,60131
479.0,-10591,-56603,91644,60235
481.0,-10626,-56789,91604,60212
483.0,-10723,-56847,91513,60123
485.0,-10768,-56612,91491,60127
487.0,-10741,-56408,91470,60132
489.0,-10699,-56616,91461,60090
491.0,-10704,-57027,91615,60194
493.0,-10805,-57195,91804,60401
495.0,-10954,-56993,91705,60361
497.0,-10965,-56535,91374,60061
499.0,-10747,-56063,91185,59883
501.0,-10485,-55919,91229,59941
503.0,-10405,-56204,91307,60014
505.0,-10530,-56614,91345,60023
507.0,-10748,-56814,91370,60015
509.0,-10916,-56740,91335,59936
511.0,-10908,-56566,91277,59841
513.0,-10733,-56566,91325,59908
515.0,-10550,-56814,91420,60063
517.0,-10476,-57040,91388,60071
519.0,-10509,-57073,91322,60016
521.0,-10585,-57100,91429,60114
523.0,-10614,-57174,91573,60204
525.0,-10601,-57031,91483,60050
527.0,-10691,-56693,91303,59881
529.0,-10901,-56493,91357,59978
531.0,-10966,-56415,91532,60117
533.0,-10745,-56251,91511,60030
535.0,-10478,-56187,91400,59942
537.0,-10413,-56329,91492,60090
539.0,-10500,-56191,91675,60255
541.0,-10617,-55628,91702,60256
543.0,-10744,-55404,91715,60308
545.0,-10817,-55897,91919,60526
547.0,-10740,-56360,92126,60655
549.0,-10589,-56237,92083,60547
551.0,-10548,-55959,91903,60384
553.0,-10623,-55886,91824,60338
555.0,-10676,-55834,91887,60400
557.0,-10703,-55830,92003,60518
559.0,-10775,-56079,92064,60618
561.0,-10741,-56261,91980,60584
563.0,-10445,-55984,91781,60411
565.0,-10164,-55565,91645,60262
567.0,-10274,-55541,91685,60284
569.0,-10619,-55877,91802,60430
571.0,-10762,-56171,91847,60526
573.0,-10680,-56183,91824,60515
575.0,-10637,-55944,91846,60520
577.0,-10654,-55646,91948,60625
579.0,-10549,-55461,92052,60746
581.0,-10310,-55413,92057,60765
583.0,-10097,-55504,91941,60673
585.0,-9985,-55740,91813,60554
587.0,-9910,-55966,91804,60504
589.0,-9859,-56048,91846,60509
591.0,-9924,-56127,91756,60457
593.0,-10092,-56298,91572,60324
595.0,-10187,-56386,91503,60240
597.0,-10133,-56346,91548,60258
599.0,-10066,-56337,91507,60267
601.0,-10147,-56350,91360,60180
603.0,-10387,-56356,91245,60032
605.0,-10617,-56514,91174,59880
607.0,-10656,-56720,91064,59750
609.0,-10580,-56647,90957,59671
611.0,-10679,-56519,90974,59686
613.0,-10996,-56810,91138,59810
615.0,-11229,-57216,91317,59964
617.0,-11154,-57116,91326,59978
619.0,-10878,-56722,91170,59847
621.0,-10679,-56639,91086,59800
623.0,-10688,-56849,91180,59915
625.0,-10734,-57029,91227,59940
627.0,-10621,-57134,91071,59742
629.0,-10487,-57170,90893,59554
631.0,-10564,-57111,90870,59557
633.0,-10741,-57079,90963,59669
635.0,-10812,-57030,91125,59815
637.0,-10832,-56765,91331,59998
639.0,-10876,-56534,91439,60121
641.0,-10871,-56705,91335,60075
643.0,-10839,-56958,91137,59924
645.0,-10856,-56913,91045,59799
647.0,-10838,-56874,91096,59760
649.0,-10760,-56949,91166,59779
651.0,-10788,-56727,91137,59784
653.0,-10893,-56525,91083,59756
655.0,-10801,-57077,91187,59776
657.0,-10541,-57792,91462,59856
659.0,-10490,-57591,91777,59891
661.0,-10688,-56957,92190,59924
663.0,-10723,-56846,92891,60210
665.0,-10416,-56819,93801,60842
667.0,-9996,-56213,94682,61625
669.0,-9496,-55413,95589,62472
671.0,-8678,-54594,96705,63545
673.0,-7561,-53280,97784,64838
675.0,-6411,-51664,98353,66076
677.0,-5340,-50421,98419,67131
679.0,-4467,-49499,98301,68065
681.0,-4116,-48557,97940,68776
683.0,-4351,-47671,97069,69103
685.0,-4787,-46902,95809,69121
687.0,-5208,-46385,94427,68860
689.0,-5786,-46593,92910,68110
691.0,-6603,-47434,91280,66843
693.0,-7562,-48181,89789,65354
695.0,-8712,-48957,88527,63808
697.0,-10038,-50522,87460,62203
699.0,-11056,-52551,86787,60719
701.0,-11270,-54083,86711,59637
703.0,-10937,-55071,87090,59045
705.0,-10757,-55798,87694,58876
707.0,-10864,-56033,88405,58981
709.0,-10836,-55958,89068,59140
711.0,-10623,-56231,89548,59236
713.0,-10616,-56662,89912,59320
715.0,-10835,-56648,90248,59424
717.0,-10916,-56567,90520,59521
719.0,-10810,-56900,90706,59634
721.0,-10764,-57085,90835,59754
723.0,-10813,-56765,90871,59770
725.0,-10845,-56579,90783,59630
727.0,-10868,-56767,90660,59460
729.0,-10882,-56822,90633,59418
731.0,-10827,-56763,90715,59504
733.0,-10783,-56977,90814,59593
735.0,-10897,-57284,90877,59631
737.0,-11110,-57465,90962,59712
739.0,-11204,-57665,91075,59856
741.0,-11095,-57665,91086,59894
743.0,-10923,-57186,90958,59758
745.0,-10888,-56779,90877,59653
747.0,-11039,-56963,90947,59712
749.0,-11236,-57247,91004,59757
751.0,-11303,-57170,90934,59655
753.0,-11217,-57083,90885,59557
755.0,-11089,-57193,90941,59569
757.0,-11003,-57146,90947,59545
759.0,-10975,-56915,90849,59431
761.0,-11008,-56909,90834,59408
763.0,-11044,-57137,90956,59521
765.0,-10995,-57195,91026,59566
767.0,-10942,-57046,90984,59481
769.0,-11076,-57065,90975,59417
771.0,-11329,-57277,91024,59430
773.0,-11393,-57249,91041,59465
775.0,-11209,-56900,91070,59552
777.0,-11012,-56705,91153,59666
779.0,-10872,-56831,91175,59657
781.0,-10669,-56888,91101,59542
783.0,-10516,-56775,91062,59504
785.0,-10662,-56853,91066,59534
787.0,-10945,-57069,91007,59484
789.0,-10914,-56934,90930,59399
791.0,-10591,-56579,90930,59406
793.0,-10505,-56714,90977,59491
795.0,-10827,-57310,91047,59621
797.0,-11148,-57467,91158,59794
799.0,-11218,-56956,91231,59930
801.0,-11185,-56610,91220,59976
803.0,-11103,-56821,91232,60011
805.0,-10904,-56964,91274,60037
807.0,-10725,-56672,91222,59961
809.0,-10721,-56384,91132,59851
811.0,-10828,-56436,91186,59884
813.0,-10975,-56676,91381,60061
815.0,-11109,-56918,91582,60242
817.0,-11032,-57008,91706,60326
819.0,-10716,-56857,91704,60281
821.0,-10503,-56728,91624,60177
823.0,-10516,-56826,91607,60129
825.0,-10475,-56754,91630,60077
827.0,-10397,-56278,91561,59923
829.0,-10629,-56038,91550,59866
831.0,-11018,-56439,91813,60104
833.0,-11022,-56770,92112,60366
835.0,-10706,-56469,92124,60331
837.0,-10601,-56131,92037,60206
839.0,-10713,-56252,92108,60253
841.0,-10601,-56301,92157,60276
843.0,-10252,-55908,92076,60160
845.0,-10085,-55652,92162,60205
847.0,-10254,-55870,92460,60475
849.0,-10486,-56046,92596,60611
851.0,-10476,-55914,92543,60578
853.0,-10252,-55862,92651,60705
855.0,-10133,-55917,92875,60937
857.0,-10241,-55657,92891,60958
859.0,-10252,-55245,92818,60897
861.0,-9978,-55280,92952,61050
863.0,-9777,-55663,93145,61263
865.0,-9884,-55751,93159,61270
867.0,-9977,-55432,93127,61194
869.0,-9829,-55145,93193,61214
871.0,-9674,-55130,93256,61275
873.0,-9691,-55258,93287,61334
875.0,-9792,-55299,93370,61436
877.0,-9886,-55157,93472,61538
879.0,-9906,-55020,93557,61621
881.0,-9838,-55000,93678,61737
883.0,-9836,-54807,93755,61805
885.0,-9947,-54402,93679,61729
887.0,-9897,-54425,93618,61667
889.0,-9553,-55045,93732,61780
891.0,-9179,-55350,93836,61904
893.0,-8985,-54856,93753,61861
895.0,-8914,-54344,93637,61771
897.0,-8942,-54432,93640,61772
899.0,-9081,-54680,93679,61816
901.0,-9180,-54587,93658,61816
903.0,-9121,-54316,93591,61775
905.0,-9043,-54279,93555,61770
907.0,-9100,-54589,93635,61884
909.0,-9248,-54827,93748,62021
911.0,-9400,-54489,93682,61964
913.0,-9503,-53907,93486,61769
915.0,-9479,-53958,93453,61730
917.0,-9345,-54609,93564,61851
919.0,-9282,-54922,93515,61863
921.0,-9405,-54674,93309,61745
923.0,-9610,-54634,93215,61683
925.0,-9731,-55069,93215,61633
927.0,-9696,-55319,93097,61447
929.0,-9565,-55093,92914,61226
931.0,-9540,-54962,92841,61143
933.0,-9752,-55215,92798,61119
935.0,-10018,-55313,92643,61006
937.0,-10044,-54974,92459,60847
939.0,-9862,-54805,92356,60741
941.0,-9806,-55252,92281,60663
943.0,-10096,-55827,92204,60593
945.0,-10553,-55993,92191,60572
947.0,-10778,-55953,92208,60564
949.0,-10676,-56047,92147,60484
951.0,-10599,-56127,92021,60352
953.0,-10704,-55971,91902,60242
955.0,-10615,-55766,91792,60154
957.0,-10244,-55814,91700,60073
959.0,-10197,-56092,91673,60035
961.0,-10642,-56343,91669,60028
963.0,-10819,-56443,91606,59997
965.0,-10413,-56442,91530,59951
967.0,-10149,-56376,91507,59926
969.0,-10371,-56278,91487,59895
971.0,-10526,-56261,91436,59846
973.0,-10447,-56329,91424,59832
975.0,-10576,-56317,91450,59853
977.0,-10869,-56199,91435,59851
979.0,-10913,-56144,91415,59847
981.0,-10783,-56198,91452,59881
983.0,-10665,-56243,91450,59875
985.0,-10417,-56227,91347,59786
987.0,-10228,-56221,91308,59758
989.0,-10546,-56343,91449,59893
991.0,-11064,-56609,91595,60025
993.0,-11071,-56757,91554,59969
995.0,-10668,-56578,91410,59826
997.0,-10434,-56376,91369,59815
999.0,-10414,-56467,91473,59937
1001.0,-10403,-56514,91576,60006
1003.0,-10487,-56178,91552,59930
1005.0,-10669,-55849,91436,59802
1007.0,-10736,-55962,91368,59753
1009.0,-10701,-56334,91427,59829
1011.0,-10682,-56630,91538,59965
1013.0,-10577,-56697,91550,59995
1015.0,-10371,-56434,91412,59836
1017.0,-10330,-56038,91265,59659
1019.0,-10529,-55961,91280,59688
1021.0,-10721,-56213,91425,59870
1023.0,-10795,-56382,91534,59976
1025.0,-10813,-56383,91534,59925
1027.0,-10744,-56480,91492,59824
1029.0,-10614,-56742,91476,59776
1031.0,-10592,-56936,91472,59772
1033.0,-10627,-56842,91417,59739
1035.0,-10512,-56598,91347,59690
1037.0,-10375,-56600,91388,59731
1039.0,-10494,-56794,91492,59824
1041.0,-10721,-56670,91461,59793
1043.0,-10757,-56324,91353,59697
1045.0,-10680,-56364,91389,59736
1047.0,-10648,-56570,91440,59770
1049.0,-10576,-56298,91257,59572
1051.0,-10484,-55998,91058,59377
1053.0,-10541,-56378,91130,59463
1055.0,-10648,-56816,91227,59575
1057.0,-10602,-56535,91085,59455
1059.0,-10525,-56173,90960,59355
1061.0,-10585,-56448,91062,59471
1063.0,-10673,-56822,91170,59580
1065.0,-10697,-56772,91161,59567
1067.0,-10675,-56692,91152,59557
1069.0,-10521,-56755,91093,59500
1071.0,-10360,-56592,90944,59348
1073.0,-10609,-56368,90938,59337
1075.0,-11129,-56561,91123,59520
1077.0,-11121,-56875,91187,59589
1079.0,-10471,-56762,91075,59481
1081.0,-10082,-56467,91032,59433
1083.0,-10370,-56473,91027,59424
1085.0,-10693,-56722,90935,59340
1087.0,-10668,-56951,90962,59365
1089.0,-10691,-56957,91145,59516
1091.0,-10874,-56610,91101,59440
1093.0,-10822,-56341,90838,59188
1095.0,-10661,-56772,90882,59270
1097.0,-10952,-57442,91243,59647
1099.0,-11438,-57371,91352,59753
1101.0,-11310,-56865,91147,59547
1103.0,-10730,-56851,91061,59445
1105.0,-10589,-57063,91088,59430
1107.0,-10850,-56843,90952,59268
1109.0,-10734,-56559,90798,59141
1111.0,-10276,-56615,90847,59237
1113.0,-10149,-56669,90905,59319
1115.0,-10353,-56705,90842,59250
1117.0,-10452,-57050,90887,59271
1119.0,-10489,-57310,91074,59438
1121.0,-10663,-57039,91129,59488
1123.0,-10805,-56746,91036,59384
1125.0,-10799,-56892,91041,59361
1127.0,-10822,-57097,91136,59431
1129.0,-10919,-57114,91112,59405
1131.0,-10949,-57152,90984,59294
1133.0,-10920,-57131,90906,59246
1135.0,-10926,-56911,90889,59254
1137.0,-10911,-56832,90902,59261
1139.0,-10792,-57033,90975,59324
1141.0,-10640,-57101,91030,59404
1143.0,-10558,-56960,90933,59329
1145.0,-10540,-57002,90778,59150
1147.0,-10558,-57138,90778,59117
1149.0,-10634,-56937,90896,59235
1151.0,-10758,-56625,90949,59289
1153.0,-10828,-56719,90957,59273
1155.0,-10785,-56958,91053,59333
1157.0,-10717,-56798,91198,59441
1159.0,-10729,-56463,91298,59512
1161.0,-10770,-56408,91376,59589
1163.0,-10720,-56421,91427,59655
1165.0,-10671,-56240,91394,59624
1167.0,-10840,-56236,91380,59607
1169.0,-11105,-56610,91513,59743
1171.0,-11068,-56838,91637,59852
1173.0,-10706,-56597,91565,59751
1175.0,-10400,-56261,91452,59629
1177.0,-10271,-56129,91466,59658
1179.0,-10178,-56074,91446,59659
1181.0,-10186,-56015,91294,59536
1183.0,-10358,-55981,91227,59502
1185.0,-10476,-55910,91335,59622
1187.0,-10497,-55889,91420,59704
1189.0,-10604,-56158,91414,59706
1191.0,-10629,-56585,91444,59754
1193.0,-10330,-56706,91490,59812
1195.0,-10067,-56448,91462,59799
1197.0,-10228,-56174,91440,59800
1199.0,-10449,-55990,91483,59857
1201.0,-10309,-55744,91490,59866
1203.0,-10096,-55651,91444,59815
1205.0,-10157,-55992,91431,59775
1207.0,-10328,-56374,91404,59689
1209.0,-10449,-56292,91274,59526
1211.0,-10565,-56102,91167,59442
1213.0,-10507,-56302,91203,59503
1215.0,-10126,-56471,91244,59526
1217.0,-9765,-56162,91119,59400
1219.0,-9783,-55998,90898,59243
1221.0,-10050,-56602,90735,59145
1223.0,-10318,-57367,90668,59073
1225.0,-10522,-57471,90694,59054
1227.0,-10588,-57162,90810,59135
1229.0,-10543,-57087,90921,59215
1231.0,-10624,-57203,90911,59174
1233.0,-10837,-57139,90810,59075
1235.0,-10863,-56964,90706,59010
1237.0,-10634,-57004,90609,58944
1239.0,-10457,-57252,90549,58880
1241.0,-10491,-57386,90613,58927
1243.0,-10619,-57293,90734,59040
1245.0,-10697,-57284,90732,59039
1247.0,-10667,-57581,90648,58955
1249.0,-10571,-57844,90660,58956
1251.0,-10545,-57694,90724,58991
1253.0,-10641,-57412,90711,58928
1255.0,-10754,-57403,90711,58872
1257.0,-10807,-57419,90804,58945
1259.0,-10823,-57155,90836,59027
1261.0,-10810,-56969,90755,59030
1263.0,-10759,-57154,90730,59037
1265.0,-10726,-57321,90782,59048
1267.0,-10766,-57199,90781,58993
1269.0,-10837,-57123,90743,58940
1271.0,-10823,-57324,90739,58933
1273.0,-10657,-57578,90720,58869
1275.0,-10448,-57739,90732,58769
1277.0,-10418,-57898,90942,58779
1279.0,-10620,-57988,91372,58881
1281.0,-10847,-57744,91957,59037
1283.0,-10904,-57127,92749,59427
1285.0,-10761,-56506,93704,60127
1287.0,-10348,-56202,94616,60951
1289.0,-9587,-55917,95500,61862
1291.0,-8653,-55023,96536,63031
1293.03,-7764,-53490,97546,64368
1295.05,-6807,-52005,98113,65582
1297.08,-5708,-50949,98189,66606
1299.1,-4832,-49964,97984,67454
1301.0,-4468,-48845,97428,67957
1303.03,-4428,-48020,96349,68056
1305.05,-4584,-47699,94935,67934
1307.08,-5065,-47503,93486,67594
1309.1,-5788,-47424,92045,66810
1311.1,-6684,-48021,90604,65594
1313.1,-8091,-49281,89274,64173
1315.1,-9897,-50541,88058,62583
1317.1,-11070,-51715,86911,60781
1319.1,-11134,-53285,86057,59050
1321.1,-10938,-55109,85833,57864
1323.1,-11086,-56419,86236,57407
1325.1,-11086,-56878,86925,57431
1327.1,-10675,-56799,87624,57607
1329.1,-10347,-56632,88331,57866
1331.1,-10297,-56695,89108,58252
1333.1,-10270,-57074,89791,58586
1335.1,-10319,-57491,90113,58627
1337.1,-10618,-57580,90126,58493
1339.1,-10931,-57387,90188,58507
1341.1,-10972,-57278,90423,58682
1343.1,-10820,-57313,90592,58776
1345.1,-10674,-57226,90589,58740
1347.1,-10622,-57088,90616,58747
1349.1,-10681,-57233,90759,58842
1351.1,-10815,-57500,90833,58887
1353.1,-10926,-57517,90776,58847
1355.1,-10936,-57520,90762,58839
1357.1,-10890,-57794,90839,58902
1359.1,-10918,-57928,90868,58956
1361.1,-10976,-57661,90831,58975
1363.1,-10856,-57495,90806,58981
1365.1,-10656,-57654,90759,58928
1367.1,-10761,-57688,90691,58838
1369.1,-11089,-57541,90744,58868
1371.1,-11057,-57662,90899,59004
1373.1,-10591,-57960,90935,59029
1375.1,-10328,-57924,90859,58930
1377.1,-10538,-57609,90881,58916
1379.1,-10773,-57467,90949,58954
1381.1,-10771,-57539,90880,58856
1383.1,-10780,-57595,90822,58751
1385.1,-10838,-57643,90961,58839
1387.1,-10684,-57704,91066,58894
1389.1,-10463,-57624,90908,58663
1391.1,-10563,-57448,90736,58423
1393.1,-10788,-57395,90799,58491
1395.1,-10710,-57423,90898,58658
1397.1,-10550,-57436,90862,58661
1399.1,-10689,-57609,90875,58669
1401.1,-10821,-57875,91024,58822
1403.1,-10582,-57797,91113,58914
1405.1,-10299,-57448,91088,58871
1407.1,-10297,-57411,91101,58888
1409.1,-10318,-57664,91112,58951
1411.1,-10228,-57680,90992,58874
1413.1,-10363,-57547,90926,58805
1415.1,-10769,-57669,91164,59025
1417.1,-10940,-57712,91473,59339
1419.1,-10633,-57213,91441,59346
1421.1,-10302,-56738,91189,59167
1423.1,-10402,-57012,91167,59204
1425.1,-10668,-57553,91352,59392
1427.1,-10585,-57575,91380,59394
1429.1,-10301,-57395,91300,59312
1431.1,-10329,-57522,91406,59440
1433.1,-10531,-57497,91561,59610
1435.1,-10379,-57040,91484,59519
1437.1,-10019,-56866,91358,59355
1439.1,-10022,-57244,91466,59427
1441.1,-10359,-57443,91673,59610
1443.1,-10552,-57253,91763,59665
1445.1,-10500,-57179,91774,59615
1447.1,-10427,-57155,91747,59528
1449.1,-10356,-56860,91679,59427
1451.1,-10170,-56703,91683,59420
1453.1,-9957,-56972,91770,59517
1455.1,-9936,-57149,91779,59536
1457.1,-10138,-57071,91769,59491
1459.1,-10336,-57248,91970,59630
1461.1,-10282,-57544,92245,59893
1463.1,-9967,-57290,92278,59955
1465.1,-9643,-56709,92201,59845
1467.1,-9585,-56562,92321,59871
1469.1,-9773,-56747,92498,60005
1471.1,-9875,-56691,92468,60018
1473.1,-9666,-56454,92383,59989
1475.1,-9355,-56339,92448,60080
1477.1,-9294,-56272,92565,60203
1479.1,-9461,-56178,92679,60311
1481.1,-9499,-56132,92865,60494
1483.1,-9321,-56031,92997,60657
1485.1,-9270,-55919,92976,60675
1487.1,-9462,-56108,93012,60708
1489.1,-9484,-56413,93149,60814
1491.1,-9174,-56197,93134,60773
1493.1,-9026,-55595,93044,60665
1495.1,-9308,-55442,93216,60838
1497.1,-9510,-55810,93504,61171
1499.1,-9208,-55919,93537,61263
1501.1,-8725,-55521,93451,61184
1503.1,-8530,-55192,93517,61212
1505.1,-8620,-55302,93588,61250
1507.1,-8713,-55550,93537,61190
1509.1,-8654,-55502,93542,61195
1511.1,-8551,-55145,93594,61256
1513.1,-8613,-54894,93512,61186
1515.1,-8780,-55029,93458,61133
1517.1,-8761,-55288,93659,61344
1519.1,-8571,-55349,93883,61610
1521.1,-8532,-55337,93836,61606
1523.1,-8638,-55337,93659,61441
1525.1,-8560,-55090,93591,61378
1527.1,-8348,-54713,93607,61421
1529.1,-8430,-54777,93656,61489
1531.1,-8841,-55233,93780,61591
1533.1,-9071,-55424,93896,61679
1535.1,-8822,-55316,93870,61654
1537.1,-8448,-55422,93730,61537
1539.1,-8409,-55584,93542,61373
1541.1,-8624,-55226,93282,61131
1543.1,-8745,-54635,93034,60900
1545.1,-8777,-54658,93009,60885
1547.1,-8901,-55323,93166,61024
1549.1,-8997,-55892,93201,61010
1551.1,-8910,-56046,93045,60824
1553.1,-8840,-56041,92941,60738
1555.1,-8972,-56000,92944,60761
1557.1,-9139,-55906,92853,60650
1559.1,-9228,-55942,92665,60446
1561.1,-9343,-56216,92604,60404
1563.1,-9437,-56514,92675,60471
1565.1,-9400,-56645,92639,60380
1567.1,-9449,-56589,92426,60124
1569.1,-9724,-56364,92220,59919
1571.1,-9875,-56223,92172,59860
1573.1,-9741,-56580,92242,59877
1575.1,-9732,-57218,92275,59858
1577.1,-9966,-57317,92157,59724
1579.1,-10015,-56763,91974,59545
1581.1,-9854,-56409,91913,59506
1583.1,-9852,-56586,91976,59607
1585.1,-9862,-56672,91984,59650
1587.1,-9625,-56527,91908,59590
1589.1,-9549,-56786,91895,59584
1591.1,-9908,-57379,91956,59638
1593.1,-10197,-57447,91953,59604
1595.1,-10104,-56982,91877,59493
1597.1,-9950,-56835,91841,59456
1599.1,-9883,-57091,91876,59510
1601.1,-9832,-57101,91945,59580
1603.1,-9965,-56921,92035,59661
1605.1,-10252,-57100,92088,59715
1607.1,-10293,-57429,91998,59631
1609.1,-10048,-57356,91798,59443
1611.1,-9839,-57120,91680,59348
1613.1,-9697,-57184,91711,59391
1615.1,-9545,-57215,91745,59412
1617.1,-9531,-56834,91710,59368
1619.1,-9661,-56594,91736,59395
1621.1,-9787,-57015,91862,59498
1623.1,-9943,-57513,91923,59527
1625.1,-10077,-57401,91871,59489
1627.1,-9970,-57052,91857,59512
1629.1,-9799,-57055,91896,59551
1631.1,-9914,-57218,91846,59485
1633.1,-10102,-57273,91756,59427
1635.1,-10033,-57459,91825,59553
1637.1,-9972,-57723,91996,59746
1639.1,-10154,-57528,92008,59751
1641.1,-10187,-56951,91851,59591
1643.1,-9822,-56760,91767,59507
1645.1,-9510,-57102,91801,59545
1647.1,-9619,-57311,91776,59529
1649.1,-9864,-57139,91677,59411
1651.1,-9902,-57026,91651,59343
1653.1,-9884,-57131,91704,59390
1655.1,-10030,-57138,91731,59467
1657.1,-10121,-56984,91733,59515
1659.1,-9897,-56957,91729,59528
1661.1,-9661,-57172,91670,59504
1663.1,-9852,-57419,91598,59486
1665.1,-10196,-57465,91605,59522
1667.1,-10092,-57316,91659,59572
1669.1,-9698,-57256,91699,59597
1671.1,-9644,-57462,91730,59609
1673.1,-9837,-57632,91692,59555
1675.1,-9769,-57447,91530,59393
1677.1,-9662,-57241,91419,59278
1679.1,-9956,-57460,91541,59375
1681.1,-10240,-57763,91712,59534
1683.1,-10076,-57589,91649,59496
1685.1,-9916,-57186,91445,59312
1687.1,-10004,-57091,91370,59214
1689.1,-9834,-57171,91418,59223
1691.1,-9495,-57097,91431,59198
1693.1,-9695,-57062,91413,59133
1695.1,-10204,-57319,91419,59119
1697.1,-10208,-57653,91404,59144
1699.1,-9876,-57789,91362,59149
1701.1,-9796,-57733,91372,59154
1703.1,-9804,-57617,91437,59196
1705.1,-9655,-57586,91474,59235
1707.1,-9624,-57675,91429,59202
1709.1,-9749,-57668,91318,59108
1711.1,-9734,-57438,91234,59074
1713.1,-9645,-57301,91267,59156
1715.1,-9729,-57500,91357,59242
1717.1,-9904,-57709,91389,59245
1719.1,-10062,-57610,91419,59286
1721.1,-10239,-57528,91539,59440
1723.1,-10311,-57862,91622,59522
1725.1,-10144,-58345,91523,59391
1727.1,-9946,-58448,91357,59208
1729.1,-9966,-58125,91284,59142
1731.1,-10098,-57744,91262,59135
1733.1,-10113,-57594,91236,59121
1735.1,-9992,-57718,91257,59149
1737.1,-9858,-57894,91300,59186
1739.1,-9810,-57814,91292,59157
1741.1,-9863,-57576,91273,59121
1743.1,-9905,-57614,91266,59123
1745.1,-9848,-57863,91202,59075
1747.1,-9847,-57772,91141,59009
1749.1,-10049,-57452,91242,59090
1751.1,-10248,-57588,91399,59246
1753.1,-10176,-58014,91368,59244
1755.1,-9970,-57878,91231,59123
1757.1,-9917,-57307,91262,59118
1759.1,-9983,-57235,91452,59250
1761.1,-9959,-57634,91591,59365
1763.1,-9856,-57631,91640,59423
1765.1,-9865,-57135,91698,59476
1767.1,-10043,-56826,91776,59525
1769.1,-10178,-56936,91809,59538
1771.1,-10037,-57222,91786,59512
1773.1,-9725,-57552,91754,59476
1775.1,-9595,-57743,91758,59490
1777.1,-9754,-57566,91781,59560
1779.1,-9944,-57241,91769,59590
1781.1,-9927,-57163,91748,59557
1783.1,-9746,-57170,91817,59576
1785.1,-9586,-56875,91938,59662
1787.1,-9578,-56418,91924,59635
1789.1,-9714,-56252,91762,59460
1791.1,-9834,-56518,91678,59377
1793.1,-9787,-56925,91765,59508
1795.1,-9614,-57026,91840,59636
1797.1,-9439,-56688,91770,59587
1799.1,-9324,-56392,91679,59502
1801.1,-9344,-56629,91714,59575
1803.1,-9534,-57072,91828,59744
1805.1,-9696,-57105,91854,59794
1807.1,-9673,-56935,91755,59672
1809.1,-9659,-57149,91697,59584
1811.1,-9750,-57489,91770,59661
1813.1,-9640,-57271,91781,59700
1815.1,-9279,-56769,91585,59518
1817.1,-9135,-56879,91421,59341
1819.1,-9389,-57604,91490,59401
1821.1,-9645,-58095,91522,59455
1823.1,-9625,-58054,91272,59244
1825.1,-9453,-57965,91007,58995
1827.1,-9317,-58082,91016,58980
1829.1,-9328,-58102,91123,59046
1831.1,-9485,-57854,91092,58987
1833.1,-9669,-57678,91034,58916
1835.1,-9863,-57984,91080,58965
1837.1,-10150,-58586,91131,59029
1839.1,-10354,-58786,91092,58987
1841.1,-10214,-58389,91014,58889
1843.1,-9955,-58079,90974,58843
1845.1,-10029,-58286,91005,58887
1847.1,-10336,-58515,91069,58953
1849.1,-10370,-58405,91085,58955
1851.1,-10106,-58373,91057,58922
1853.1,-9997,-58594,91044,58916
1855.1,-10107,-58584,90981,58854
1857.1,-10028,-58221,90811,58687
1859.1,-9697,-57983,90698,58590
1861.1,-9561,-58040,90769,58676
1863.1,-9844,-58169,90901,58806
1865.1,-10234,-58350,90990,58890
1867.1,-10355,-58560,91082,58989
1869.1,-10196,-58553,91150,59053
1871.1,-10030,-58459,91128,58993
1873.1,-9988,-58720,91074,58901
1875.1,-9877,-59057,91016,58830
1877.1,-9608,-58778,90927,58671
1879.1,-9451,-58221,90969,58491
1881.1,-9543,-58304,91373,58555
1883.1,-9709,-58757,92091,58897
1885.1,-9893,-58593,92886,59321
1887.1,-10032,-57952,93669,59793
1889.1,-9735,-57607,94489,60445
1891.1,-8929,-57290,95392,61313
1893.1,-8215,-56281,96402,62370
1895.1,-7776,-54827,97460,63657
1897.1,-6987,-53586,98327,65125
1899.1,-5747,-52529,98747,66511
1901.1,-4899,-51345,98673,67531
1903.1,-4803,-50139,98188,68117
1905.1,-4829,-49227,97290,68366
1907.1,-4634,-48720,95987,68356
1909.1,-4694,-48474,94459,68081
1911.1,-5356,-48390,92920,67469
1913.1,-6356,-48704,91478,66486
1915.1,-7411,-49690,90195,65199
1917.1,-8541,-51153,89029,63651
1919.1,-9682,-52716,87793,61774
1921.1,-10484,-54288,86525,59680
1923.1,-10697,-55816,85709,57901
1925.1,-10487,-57086,85763,57008
1927.1,-10206,-57996,86502,56998
1929.1,-10017,-58461,87394,57335
1931.1,-9946,-58324,88140,57591
1933.1,-10037,-57881,88804,57793
1935.1,-10197,-57843,89477,58082
1937.1,-10183,-58328,90030,58348
1939.1,-9944,-58742,90301,58439
1941.1,-9709,-58747,90372,58438
1943.1,-9632,-58527,90418,58467
1945.1,-9655,-58291,90469,58478
1947.1,-9742,-58192,90521,58462
1949.1,-9919,-58342,90654,58533
1951.1,-10101,-58600,90841,58673
1953.1,-10172,-58785,90919,58705
1955.1,-10171,-58935,90858,58604
1957.1,-10163,-58999,90808,58528
1959.1,-10113,-58842,90869,58574
1961.1,-10054,-58689,90990,58691
1963.1,-10082,-58809,91070,58783
1965.1,-10086,-58934,91043,58768
1967.1,-9904,-58840,90930,58638
1969.1,-9699,-58853,90837,58508
1971.1,-9676,-59087,90852,58492
1973.1,-9740,-59123,90933,58554
1975.1,-9828,-58867,90971,58573
1977.1,-10067,-58674,90943,58527
1979.1,-10346,-58599,90928,58495
1981.1,-10345,-58502,90978,58530
1983.1,-10061,-58535,91045,58597
1985.1,-9807,-58791,91069,58645
1987.1,-9833,-59027,91072,58648
1989.1,-10115,-59076,91062,58585
1991.1,-10331,-58956,90965,58431
1993.1,-10223,-58729,90810,58266
1995.1,-10025,-58651,90795,58262
1997.1,-10072,-58932,90973,58422
1999.1,-10168,-59221,91102,58528
2001.1,-10033,-59106,91045,58495
2003.1,-9861,-58871,90982,58486
2005.1,-9788,-58887,91020,58547
2007.1,-9569,-58916,91012,58529
2009.1,-9283,-58774,90936,58455
2011.1,-9365,-58735,90949,58496
2013.1,-9693,-58779,91033,58606
2015.1,-9734,-58592,91044,58639
2017.1,-9576,-58419,91044,58679
2019.1,-9660,-58655,91182,58866
2021.1,-9847,-58930,91401,59114
2023.1,-9830,-58789,91526,59253
2025.1,-9846,-58576,91471,59216
2027.1,-10061,-58657,91284,59035
2029.1,-10125,-58775,91151,58863
2031.1,-9941,-58764,91206,58862
2033.1,-9825,-58766,91306,58944
2035.1,-9768,-58701,91260,58927
2037.1,-9594,-58543,91214,58891
2039.1,-9486,-58648,91365,59001
2041.1,-9487,-58993,91524,59113
2043.1,-9316,-59022,91476,59064
2045.1,-9185,-58695,91439,59039
2047.1,-9570,-58520,91618,59197
2049.1,-10095,-58459,91761,59295
2051.1,-10066,-58146,91653,59157
2053.1,-9761,-57938,91553,59037
2055.1,-9752,-58323,91684,59138
2057.1,-9734,-58790,91846,59275
2059.1,-9354,-58616,91879,59308
2061.1,-9099,-58145,91924,59364
2063.1,-9264,-58025,92009,59451
2065.1,-9358,-58011,91970,59405
2067.1,-9188,-57732,91890,59310
2069.1,-9182,-57672,92036,59427
2071.1,-9405,-58175,92354,59716
2073.1,-9487,-58511,92550,59903
2075.1,-9367,-58157,92571,59923
2077.1,-9185,-57834,92562,59904
2079.1,-8986,-58049,92531,59869
2081.1,-8952,-58010,92439,59810
2083.1,-9172,-57333,92447,59877
2085.1,-9268,-57075,92734,60196
2087.1,-9002,-57696,93146,60584
2089.1,-8722,-57984,93319,60716
2091.1,-8627,-57298,93176,60565
2093.1,-8488,-56751,93045,60447
2095.1,-8326,-57041,93166,60578
2097.1,-8391,-57298,93369,60797
2099.1,-8546,-56960,93405,60865
2101.1,-8555,-56745,93345,60814
2103.1,-8546,-57077,93374,60804
2105.1,-8555,-57297,93466,60848
2107.1,-8368,-56994,93482,60851
2109.1,-8143,-56680,93420,60815
2111.1,-8256,-56747,93393,60832
2113.1,-8557,-56891,93461,60943
2115.1,-8674,-56884,93573,61083
2117.1,-8650,-56880,93662,61194
2119.1,-8563,-56826,93749,61304
2121.1,-8245,-56571,93860,61424
2123.1,-7896,-56466,93895,61456
2125.1,-7993,-56762,93763,61324
2127.1,-8346,-56877,93556,61131
2129.1,-8324,-56448,93428,61027
2131.1,-7976,-56217,93423,61049
2133.1,-7865,-56637,93517,61160
2135.1,-8045,-56911,93623,61265
2137.1,-8172,-56549,93577,61206
2139.1,-8186,-56259,93358,60975
2141.1,-8155,-56404,93196,60809
2143.1,-8055,-56407,93230,60843
2145.1,-8088,-56193,93321,60923
2147.1,-8487,-56432,93342,60924
2149.1,-8951,-57154,93326,60891
2151.1,-9024,-57617,93222,60774
2153.1,-8833,-57497,92934,60466
2155.1,-8766,-57209,92634,60150
2157.1,-8877,-57253,92616,60125
2159.1,-9059,-57671,92812,60316
2161.1,-9241,-58002,92859,60360
2163.1,-9265,-57858,92641,60157
2165.1,-9110,-57537,92403,59948
2167.1,-9087,-57598,92326,59883
2169.1,-9325,-57976,92334,59869
2171.1,-9496,-58202,92332,59819
2173.1,-9403,-58189,92304,59746
2175.1,-9282,-58099,92180,59614
2177.1,-9333,-57958,91934,59390
2179.1,-9489,-57947,91767,59232
2181.1,-9660,-58285,91851,59302
2183.1,-9767,-58613,92002,59447
2185.1,-9697,-58472,91960,59409
2187.1,-9551,-58239,91814,59259
2189.1,-9606,-58429,91798,59239
2191.1,-9822,-58644,91851,59298
2193.1,-9859,-58436,91781,59226
2195.1,-9705,-58298,91674,59106
2197.1,-9681,-58641,91722,59166
2199.1,-9791,-58919,91818,59298
2201.1,-9749,-58737,91758,59257
2203.1,-9576,-58577,91661,59153
2205.1,-9497,-58709,91727,59219
2207.1,-9463,-58694,91828,59330
2209.1,-9390,-58457,91783,59293
2211.1,-9431,-58529,91717,59244
2213.1,-9558,-58924,91742,59306
2215.1,-9521,-59036,91734,59321
2217.1,-9503,-58744,91677,59258
2219.1,-9868,-58480,91700,59287
2221.1,-10220,-58370,91725,59340
2223.1,-9944,-58270,91609,59229
2225.1,-9461,-58275,91493,59083
2227.1,-9566,-58424,91523,59091
2229.1,-9988,-58496,91597,59165
2231.1,-10056,-58536,91663,59242
2233.1,-9968,-58776,91785,59382
2235.1,-10027,-58992,91847,59459
2237.1,-9746,-58856,91737,59343
2239.1,-8977,-58573,91632,59230
2241.1,-8626,-58345,91650,59267
2243.1,-9195,-58045,91640,59287
2245.1,-9912,-57926,91602,59257
2247.1,-10041,-58382,91704,59354
2249.1,-9831,-58886,91841,59494
2251.1,-9755,-58740,91814,59482
2253.1,-9844,-58456,91755,59456
2255.1,-10000,-58716,91790,59537
2257.1,-10165,-58927,91733,59505
2259.1,-10182,-58497,91561,59325
2261.1,-10036,-58185,91543,59294
2263.1,-9972,-58636,91647,59401
2265.1,-9975,-59098,91572,59333
2267.1,-9709,-58858,91383,59148
2269.1,-9275,-58422,91369,59145
2271.1,-9253,-58381,91457,59252
2273.1,-9693,-58563,91439,59251
2275.1,-9966,-58706,91408,59228
2277.1,-9814,-58726,91457,59275
2279.1,-9662,-58488,91432,59239
2281.1,-9839,-58228,91337,59128
2283.1,-10172,-58495,91415,59192
2285.1,-10317,-59114,91635,59413
2287.1,-10098,-59290,91674,59466
2289.1,-9657,-58897,91445,59243
2291.1,-9376,-58514,91194,58974
2293.1,-9449,-58421,91141,58898
2295.1,-9658,-58545,91302,59053
2297.1,-9755,-58839,91504,59267
2299.1,-9828,-59104,91517,59305
2301.1,-9981,-59088,91349,59170
2303.1,-10023,-58886,91249,59091
2305.1,-9875,-58718,91290,59129
2307.1,-9838,-58615,91308,59143
2309.1,-9958,-58622,91275,59124
2311.1,-9794,-58769,91271,59141
2313.1,-9366,-58837,91213,59092
2315.1,-9354,-58695,91057,58935
2317.1,-9879,-58600,90998,58866
2319.1,-10233,-58729,91107,58943
2321.1,-10121,-58851,91148,58951
2323.1,-9940,-58789,91024,58826
2325.1,-9893,-58786,90977,58805
2327.1,-9920,-59070,91157,59013
2329.1,-10063,-59325,91349,59232
2331.1,-10138,-59051,91293,59206
2333.1,-9857,-58467,91072,59007
2335.1,-9564,-58381,90989,58935
2337.1,-9749,-58915,91117,59074
2339.1,-10006,-59259,91229,59195
2341.1,-9732,-59063,91217,59186
2343.1,-9378,-58923,91263,59224
2345.1,-9690,-59081,91465,59387
2347.1,-10322,-58967,91638,59497
2349.1,-10430,-58394,91651,59466
2351.1,-10051,-57926,91599,59404
2353.1,-9805,-57890,91573,59365
2355.1,-9786,-58028,91547,59310
2357.1,-9722,-58061,91516,59277
2359.1,-9723,-57961,91516,59312
2361.1,-10002,-57915,91553,59370
2363.1,-10272,-58101,91622,59421
2365.1,-10179,-58290,91696,59470
2367.1,-9935,-58160,91676,59452
2369.1,-9918,-58017,91558,59368
2371.1,-10057,-58239,91550,59409
2373.1,-10061,-58383,91761,59648
2375.1,-9933,-58070,91947,59819
2377.1,-9861,-57886,91901,59740
2379.1,-9850,-58192,91775,59606
2381.1,-9771,-58334,91731,59585
2383.1,-9652,-57986,91682,59581
2385.1,-9609,-57690,91608,59566
2387.1,-9583,-57571,91626,59633
2389.1,-9489,-57302,91654,59672
2391.1,-9478,-57262,91563,59563
2393.1,-9676,-57926,91524,59499
2395.1,-9860,-58614,91645,59593
2397.1,-9781,-58557,91633,59562
2399.1,-9516,-58257,91382,59325
2401.1,-9263,-58379,91285,59273
2403.1,-9102,-58569,91453,59475
2405.1,-9082,-58462,91432,59463
2407.1,-9255,-58439,91120,59165
2409.1,-9608,-58714,90987,59062
2411.1,-9995,-58963,91104,59207
2413.1,-10152,-59004,91042,59157
2415.1,-10023,-58934,90821,58947
2417.1,-9989,-58896,90862,58998
2419.1,-10292,-59115,91077,59198
2421.1,-10575,-59550,91061,59157
2423.1,-10508,-59676,90901,58993
2425.1,-10260,-59293,90885,58975
2427.1,-10014,-58942,90894,58960
2429.1,-9794,-59022,90797,58854
2431.1,-9755,-59295,90786,58884
2433.1,-9896,-59446,90868,59010
2435.1,-9917,-59413,90785,58919
2437.1,-9876,-59242,90598,58700
2439.1,-10138,-59090,90592,58680
2441.1,-10498,-59104,90703,58789
2443.1,-10435,-59198,90714,58801
2445.1,-10117,-59292,90708,58807
2447.1,-10082,-59491,90805,58920
2449.1,-10315,-59721,90886,59015
2451.1,-10473,-59677,90902,59052
2453.1,-10519,-59398,90964,59137
2455.1,-10476,-59254,91019,59193
2457.1,-10225,-59273,90920,59084
2459.1,-9921,-59173,90761,58929
2461.1,-9890,-59026,90713,58884
2463.1,-10014,-59186,90754,58875
2465.1,-9993,-59655,90866,58853
2467.1,-9975,-60080,91157,58923
2469.1,-10121,-60171,91587,59041
2471.1,-10151,-59897,92027,59087
2473.1,-9967,-59506,92609,59265
2475.1,-9829,-59248,93480,59829
2477.1,-9602,-58921,94413,60631
2479.1,-8965,-58107,95258,61497
2481.1,-8187,-56836,96270,62634
2483.1,-7577,-55484,97418,64096
2485.1,-6794,-54201,98132,65497
2487.1,-5662,-52950,98248,66658
2489.1,-4718,-51733,98191,67753
2491.1,-4363,-50553,97965,68666
2493.1,-4400,-49518,97098,69041
2495.1,-4571,-48824,95644,68916
2497.1,-4827,-48504,94162,68557
2499.1,-5339,-48607,92856,67941
2501.1,-6457,-49326,91543,66891
2503.1,-8118,-50436,90121,65398
2505.1,-9541,-51450,88641,63586
2507.1,-10170,-52695,87313,61685
2509.1,-10298,-54815,86497,60004
2511.1,-10298,-57093,86324,58726
2513.1,-10134,-58121,86560,57899
2515.1,-9884,-58041,87042,57611
2517.1,-9790,-58173,87797,57824
2519.1,-9822,-58797,88684,58211
2521.1,-9846,-59164,89428,58509
2523.1,-9923,-59166,89958,58753
2525.1,-10070,-59283,90324,58935
2527.1,-10173,-59460,90473,58902
2529.1,-10233,-59383,90431,58737
2531.1,-10305,-59260,90421,58742
2533.1,-10366,-59368,90520,58901
2535.1,-10407,-59476,90538,58897
2537.1,-10381,-59395,90442,58726
2539.1,-10209,-59399,90458,58711
2541.1,-10054,-59638,90622,58892
2543.1,-10161,-59794,90705,58978
2545.1,-10353,-59613,90652,58889
2547.1,-10337,-59316,90610,58812
2549.1,-10294,-59291,90603,58815
2551.1,-10455,-59593,90572,58836
2553.1,-10581,-59886,90580,58885
2555.1,-10515,-59919,90670,58976
2557.1,-10527,-59879,90769,59051
2559.1,-10637,-60003,90838,59094
2561.1,-10501,-60152,90881,59112
2563.1,-10194,-60141,90856,59067
2565.1,-10160,-60060,90780,58972
2567.1,-10404,-59960,90778,58935
2569.1,-10619,-59769,90878,59000
2571.1,-10712,-59632,90949,59064
2573.1,-10648,-59708,90911,59028
2575.1,-10412,-59784,90848,58942
2577.1,-10329,-59695,90857,58932
2579.1,-10578,-59660,90878,58980
2581.1,-10738,-59751,90802,58937
2583.1,-10555,-59758,90702,58809
2585.1,-10383,-59718,90751,58788
2587.1,-10374,-59744,90909,58908
2589.1,-10311,-59594,90969,58976
2591.1,-10271,-59291,90902,58930
2593.1,-10370,-59393,90869,58922
2595.1,-10347,-59859,90911,58994
2597.1,-10218,-59887,90908,58993
2599.1,-10329,-59432,90816,58862
2601.1,-10441,-59328,90741,58768
2603.1,-10154,-59696,90803,58884
2605.1,-9969,-59874,90988,59147
2607.1,-10401,-59754,91133,59321
2609.1,-10807,-59689,91128,59316
2611.1,-10559,-59605,91087,59298
2613.1,-10201,-59401,91143,59384
2615.1,-10263,-59413,91231,59458
2617.1,-10323,-59705,91262,59448
2619.1,-10083,-59802,91266,59437
2621.1,-9932,-59486,91217,59419
2623.1,-10039,-59007,91075,59318
2625.1,-10140,-58626,90989,59241
2627.1,-10222,-58582,91115,59338
2629.1,-10420,-59030,91353,59536
2631.1,-10577,-59581,91553,59710
2633.1,-10521,-59619,91680,59818
2635.1,-10329,-59285,91684,59794
2637.1,-10082,-59221,91584,59644
2639.1,-9866,-59435,91590,59582
2641.1,-9899,-59389,91759,59704
2643.1,-10190,-59006,91849,59792
2645.1,-10403,-58680,91786,59753
2647.1,-10340,-58582,91847,59812
2649.1,-10140,-58618,92109,60031
2651.1,-9948,-58686,92238,60109
2653.1,-9748,-58683,92065,59900
2655.1,-9528,-58613,91903,59708
2657.1,-9385,-58638,92045,59808
2659.1,-9470,-58746,92304,60036
2661.1,-9771,-58711,92388,60114
2663.1,-9984,-58574,92394,60117
2665.1,-9904,-58611,92558,60266
2667.1,-9760,-58740,92774,60487
2669.1,-9799,-58604,92825,60557
2671.1,-9865,-58271,92824,60543
2673.1,-9776,-58159,92975,60662
2675.1,-9658,-58238,93146,60839
2677.1,-9637,-58095,93108,60836
2679.1,-9644,-57817,92991,60726
2681.1,-9594,-57909,93071,60792
2683.1,-9434,-58240,93275,61000
2685.1,-9164,-58161,93338,61070
2687.1,-8968,-57707,93308,61032
2689.1,-9044,-57527,93430,61166
2691.1,-9341,-57668,93665,61448
2693.1,-9644,-57653,93783,61607
2695.1,-9730,-57505,93781,61607
2697.1,-9466,-57512,93758,61583
2699.1,-9024,-57451,93667,61520
2701.1,-8768,-57092,93512,61391
2703.1,-8741,-56825,93474,61326
2705.1,-8698,-57018,93599,61383
2707.1,-8550,-57359,93686,61427
2709.1,-8310,-57361,93605,61364
2711.1,-8047,-57045,93469,61273
2713.1,-8168,-56821,93450,61287
2715.1,-8875,-56884,93574,61429
2717.1,-9459,-57003,93691,61566
2719.1,-9320,-57044,93679,61575
2721.1,-9077,-57256,93602,61512
2723.1,-9352,-57620,93547,61463
2725.1,-9545,-57583,93456,61391
2727.1,-9135,-57079,93319,61293
2729.1,-8758,-56891,93265,61292
2731.1,-8923,-57362,93291,61369
2733.1,-9193,-57870,93234,61342
2735.1,-9318,-58004,93087,61210
2737.1,-9577,-57976,92974,61110
2739.1,-9775,-57747,92845,60994
2741.1,-9481,-57214,92609,60774
2743.1,-9071,-57012,92409,60603
2745.1,-9140,-57650,92384,60618
2747.1,-9438,-58392,92413,60670
2749.1,-9525,-58391,92365,60618
2751.1,-9638,-58043,92272,60529
2753.1,-9975,-58022,92142,60411
2755.1,-10175,-58165,91957,60208
2757.1,-10103,-58250,91838,60043
2759.1,-10118,-58519,91876,60065
2761.1,-10302,-58877,91918,60138
2763.1,-10371,-58893,91817,60074
2765.1,-10273,-58697,91660,59933
2767.1,-10196,-58753,91565,59841
2769.1,-10183,-58988,91517,59780
2771.1,-10164,-59007,91488,59734
2773.1,-10142,-58782,91486,59732
2775.1,-10209,-58624,91483,59738
2777.1,-10391,-58764,91462,59704
2779.1,-10444,-59092,91439,59658
2781.1,-10105,-59252,91397,59604
2783.1,-9659,-59119,91327,59543
2785.1,-9706,-58940,91314,59559
2787.1,-10232,-58892,91394,59676
2789.1,-10592,-58935,91453,59748
2791.1,-10473,-59063,91409,59681
2793.1,-10177,-59187,91351,59591
2795.1,-10069,-59070,91380,59611
2797.1,-10228,-58802,91468,59710
2799.1,-10495,-58762,91512,59765
2801.1,-10609,-58951,91457,59721
2803.1,-10460,-59060,91371,59658
2805.1,-10226,-59079,91369,59681
2807.1,-10112,-59137,91452,59771
2809.1,-10158,-59131,91520,59833
2811.1,-10310,-59039,91554,59872
2813.1,-10444,-59053,91621,59944
2815.1,-10417,-59085,91676,59972
2817.1,-10315,-58863,91607,59868
2819.1,-10407,-58559,91484,59751
2821.1,-10691,-58588,91476,59772
2823.1,-10848,-58895,91550,59845
2825.1,-10715,-59089,91555,59815
2827.1,-10465,-59023,91475,59722
2829.1,-10290,-58829,91384,59665
2831.1,-10274,-58681,91318,59643
2833.1,-10429,-58730,91344,59683
2835.1,-10607,-58958,91491,59825
2837.1,-10603,-59104,91611,59952
2839.1,-10497,-58997,91583,59941
2841.1,-10548,-58861,91528,59884
2843.1,-10694,-59008,91541,59870
2845.1,-10632,-59331,91481,59810
2847.1,-10385,-59419,91294,59665
2849.1,-10312,-59199,91183,59581
2851.1,-10527,-59023,91273,59636
2853.1,-10717,-59014,91391,59722
2855.1,-10640,-58987,91383,59748
2857.1,-10466,-59010,91338,59758
2859.1,-10419,-59238,91335,59764
2861.1,-10367,-59377,91262,59679
2863.1,-10184,-59222,91114,59542
2865.1,-10207,-59165,91134,59585
2867.1,-10652,-59352,91348,59816
2869.1,-10949,-59275,91384,59865
2871.1,-10555,-58868,91110,59602
2873.1,-10005,-58764,90931,59433
2875.1,-10117,-59044,91081,59593
2877.1,-10650,-59129,91246,59761
2879.1,-10859,-59035,91193,59702
2881.1,-10769,-59233,91114,59637
2883.1,-10802,-59487,91144,59704
2885.1,-10904,-59329,91179,59762
2887.1,-10934,-59149,91213,59788
2889.1,-11067,-59390,91285,59850
2891.1,-11187,-59586,91247,59818
2893.1,-10917,-59385,91067,59632
2895.1,-10472,-59346,91008,59551
2897.1,-10391,-59772,91144,59682
2899.1,-10587,-60085,91210,59770
2901.1,-10683,-59930,91152,59735
2903.1,-10763,-59664,91200,59806
2905.1,-10922,-59521,91300,59927
2907.1,-10889,-59343,91171,59786
2909.1,-10643,-59132,90925,59496
2911.1,-10529,-59131,90927,59482
2913.1,-10593,-59373,91107,59694
2915.1,-10629,-59500,91079,59697
2917.1,-10654,-59250,90852,59468
2919.1,-10700,-58968,90798,59394
2921.1,-10640,-59126,90979,59558
2923.1,-10543,-59449,91071,59655
2925.1,-10570,-59371,90971,59587
2927.1,-10606,-59075,90954,59596
2929.1,-10587,-59037,91180,59807
2931.1,-10708,-59023,91425,60027
2933.1,-10896,-58673,91451,60056
2935.1,-10832,-58405,91348,59963
2937.1,-10615,-58679,91381,59984
2939.1,-10548,-59079,91568,60157
2941.1,-10548,-59039,91635,60227
2943.1,-10561,-58751,91467,60064
2945.1,-10819,-58617,91344,59932
2947.1,-11162,-58530,91467,60035
2949.1,-11091,-58383,91604,60167
2951.1,-10706,-58472,91559,60152
2953.1,-10495,-58793,91512,60146
2955.1,-10429,-58838,91554,60205
2957.1,-10291,-58505,91475,60123
2959.1,-10292,-58242,91253,59915
2961.1,-10525,-58217,91182,59870
2963.1,-10624,-58280,91343,60054
2965.1,-10478,-58436,91485,60222
2967.1,-10397,-58587,91471,60250
2969.1,-10459,-58499,91442,60262
2971.1,-10484,-58344,91518,60360
2973.1,-10494,-58431,91602,60442
2975.1,-10567,-58567,91540,60360
2977.1,-10655,-58605,91380,60167
2979.1,-10785,-58854,91331,60090
2981.1,-10933,-59244,91455,60201
2983.1,-10860,-59189,91556,60297
2985.1,-10576,-58814,91499,60234
2987.1,-10429,-58863,91399,60138
2989.1,-10439,-59166,91319,60088
2991.1,-10282,-58889,91133,59949
2993.1,-10031,-58374,90852,59719
2995.1,-10014,-58750,90701,59618
2997.1,-10170,-59750,90711,59656
2999.1,-10336,-60102,90707,59637
3001.1,-10655,-59808,90712,59604
3003.1,-11097,-59781,90812,59679
3005.1,-11266,-59899,90803,59664
3007.1,-11110,-59699,90613,59464
3009.1,-11033,-59751,90597,59431
3011.1,-11146,-60290,90814,59649
3013.1,-11197,-60338,90805,59669
3015.1,-11178,-59685,90545,59440
3017.1,-11232,-59436,90521,59428
3019.1,-11211,-59791,90696,59608
3021.1,-10980,-59811,90635,59555
3023.1,-10781,-59457,90477,59395
3025.1,-10791,-59489,90579,59487
3027.1,-10854,-59818,90739,59647
3029.1,-10943,-59852,90709,59623
3031.1,-11211,-59663,90701,59613
3033.1,-11470,-59633,90803,59720
3035.1,-11410,-59744,90792,59732
3037.1,-11255,-59797,90698,59655
3039.1,-11359,-59752,90733,59688
3041.1,-11441,-59694,90793,59743
3043.1,-11128,-59695,90694,59633
3045.1,-10799,-59724,90575,59457
3047.1,-10925,-59773,90614,59391
3049.1,-11137,-59952,90759,59393
3051.1,-11005,-60203,91011,59425
3053.1,-10970,-60244,91535,59610
3055.1,-11360,-59990,92345,59995
3057.1,-11429,-59605,93229,60483
3059.1,-10609,-59113,94089,61103
3061.1,-9605,-58398,95056,62015
3063.1,-9049,-57444,96190,63204
3065.1,-8360,-56254,97319,64507
3067.1,-7052,-54839,98224,65907
3069.1,-5776,-53379,98791,67386
3071.1,-5178,-52075,98948,68653
3073.1,-5026,-50928,98594,69410
3075.1,-4965,-49930,97694,69725
3077.1,-4994,-49264,96399,69807
3079.1,-5144,-49029,94956,69621
3081.1,-5569,-49063,93479,69005
3083.1,-6574,-49352,91968,67971
3085.1,-7990,-50214,90483,66650
3087.1,-9187,-51637,89070,65061
3089.1,-9926,-53051,87721,63197
3091.1,-10437,-54302,86659,61333
3093.1,-10801,-55865,86325,59964
3095.1,-10958,-57498,86754,59291
3097.1,-11016,-58156,87417,59045
3099.1,-11067,-57894,87950,58937
3101.1,-11097,-58040,88490,58973
3103.13,-11113,-58969,89142,59188
3105.15,-11037,-59642,89697,59419
3107.18,-10808,-59623,90009,59516
3109.2,-10715,-59567,90186,59536
3111.2,-10994,-59692,90336,59598
3113.2,-11284,-59584,90441,59698
3115.2,-11233,-59358,90488,59767
3117.2,-11147,-59474,90533,59795
3119.2,-11304,-59749,90600,59801
3121.2,-11392,-59769,90634,59772
3123.2,-11198,-59688,90581,59695
3125.2,-11016,-59709,90471,59593
3127.2,-11067,-59613,90409,59524
3129.2,-11274,-59478,90486,59568
3131.2,-11542,-59752,90660,59733
3133.2,-11677,-60247,90753,59867
3135.2,-11448,-60297,90693,59846
3137.2,-11119,-59893,90616,59772
3139.2,-11171,-59486,90585,59743
3141.2,-11450,-59230,90509,59678
3143.2,-11487,-59297,90456,59608
3145.2,-11384,-59901,90608,59714
3147.2,-11414,-60532,90842,59918
3149.2,-11385,-60521,90887,59963
3151.2,-11208,-60185,90814,59897
3153.2,-11230,-60100,90843,59937
3155.2,-11508,-60074,90921,60021
3157.2,-11654,-59890,90905,59970
3159.2,-11510,-59843,90830,59824
3161.2,-11236,-59964,90768,59706
3163.2,-11027,-59966,90747,59671
3165.2,-11118,-59957,90807,59748
3167.2,-11482,-60092,90896,59865
3169.2,-11608,-60107,90877,59877
3171.2,-11258,-59924,90793,59809
3173.2,-10920,-59840,90800,59810
3175.2,-10944,-59835,90887,59886
3177.2,-11112,-59696,90945,59936
3179.2,-11301,-59668,91006,59978
3181.2,-11561,-59956,91108,60061
3183.2,-11658,-60100,91137,60114
3185.2,-11492,-59814,91035,60079
3187.2,-11443,-59664,90984,60067
3189.2,-11576,-60020,91118,60192
3191.2,-11468,-60227,91264,60340
3193.2,-11198,-59747,91195,60330
3195.2,-11267,-59208,91015,60210
3197.2,-11485,-59334,90971,60174
3199.2,-11293,-59737,91053,60238
3201.2,-10906,-59740,91098,60287
3203.2,-10868,-59538,91100,60312
3205.2,-11071,-59596,91158,60377
3207.2,-11198,-59736,91269,60463
3209.2,-11317,-59654,91362,60528
3211.2,-11443,-59546,91429,60598
3213.2,-11404,-59592,91504,60689
3215.2,-11289,-59575,91590,60759
3217.2,-11297,-59453,91648,60771
3219.2,-11358,-59475,91669,60750
3221.2,-11375,-59594,91696,60734
3223.2,-11363,-59572,91757,60732
3225.2,-11247,-59479,91830,60751
3227.2,-11035,-59379,91890,60797
3229.2,-10984,-59115,91929,60833
3231.2,-11134,-58900,91953,60837
3233.2,-11133,-59095,92000,60865
3235.2,-10849,-59296,92097,60948
3237.2,-10629,-59018,92210,61036
3239.2,-10731,-58834,92329,61112
3241.2,-10987,-59210,92470,61212
3243.2,-11127,-59336,92579,61308
3245.2,-11122,-58751,92611,61354
3247.2,-11096,-58411,92646,61402
3249.2,-11111,-58799,92776,61522
3251.2,-11146,-59047,92985,61733
3253.2,-11166,-58752,93197,61984
3255.2,-11111,-58481,93289,62107
3257.2,-10901,-58375,93206,62003
3259.2,-10614,-58197,93155,61913
3261.2,-10467,-58153,93320,62069
3263.2,-10443,-58255,93467,62238
3265.2,-10286,-58133,93398,62194
3267.2,-10071,-58029,93426,62231
3269.2,-10181,-58314,93723,62511
3271.2,-10500,-58374,93862,62622
3273.2,-10466,-57785,93659,62414
3275.2,-10111,-57363,93599,62382
3277.2,-10042,-57550,93870,62697
3279.2,-10309,-57615,94020,62886
3281.2,-10366,-57373,93886,62769
3283.2,-10101,-57491,93822,62699
3285.2,-9922,-57850,93930,62802
3287.2,-9989,-57732,93971,62867
3289.2,-10118,-57310,93920,62855
3291.2,-10193,-57224,93924,62889
3293.2,-10220,-57389,93962,62956
3295.2,-10181,-57426,93942,62979
3297.2,-10023,-57422,93872,62942
3299.2,-9777,-57545,93785,62854
3301.2,-9703,-57655,93740,62782
3303.2,-10059,-57644,93810,62825
3305.2,-10576,-57621,93879,62905
3307.2,-10661,-57639,93733,62829
3309.2,-10302,-57578,93425,62623
3311.2,-10073,-57424,93228,62496
3313.2,-10176,-57401,93207,62494
3315.2,-10293,-57664,93202,62495
3317.2,-10326,-58024,93139,62456
3319.2,-10448,-58212,93045,62402
3321.2,-10556,-58229,92906,62310
3323.2,-10478,-58210,92727,62174
3325.2,-10415,-58198,92578,62050
3327.2,-10554,-58275,92485,61954
3329.2,-10697,-58531,92405,61856
3331.2,-10725,-58804,92321,61763
3333.2,-10820,-58866,92256,61725
3335.2,-10977,-58870,92208,61729
3337.2,-10998,-59049,92140,61686
3339.2,-10983,-59185,92050,61584
3341.2,-11146,-59036,91993,61525
3343.2,-11350,-58899,91961,61520
3345.2,-11397,-59044,91844,61426
3347.2,-11406,-59201,91656,61249
3349.2,-11520,-59214,91600,61206
3351.2,-11644,-59370,91698,61314
3353.2,-11648,-59639,91695,61300
3355.2,-11570,-59595,91507,61098
3357.2,-11518,-59296,91391,60973
3359.2,-11505,-59232,91470,61035
3361.2,-11476,-59472,91515,61066
3363.2,-11482,-59660,91372,60939
3365.2,-11562,-59601,91215,60816
3367.2,-11523,-59374,91241,60863
3369.2,-11261,-59205,91406,61034
3371.2,-11119,-59282,91548,61189
3373.2,-11370,-59498,91596,61254
3375.2,-11719,-59590,91606,61250
3377.2,-11838,-59551,91625,61234
3379.2,-11828,-59509,91594,61195
3381.2,-11774,-59432,91477,61117
3383.2,-11568,-59359,91415,61094
3385.2,-11389,-59460,91511,61180
3387.2,-11546,-59581,91562,61193
3389.2,-11799,-59368,91382,60994
3391.2,-11689,-58980,91210,60830
3393.2,-11435,-58957,91340,60976
3395.2,-11538,-59289,91596,61263
3397.2,-11773,-59451,91657,61371
3399.2,-11662,-59385,91582,61323
3401.2,-11441,-59484,91554,61289
3403.2,-11460,-59637,91504,61235
3405.2,-11408,-59415,91366,61106
3407.2,-11124,-59097,91286,61027
3409.2,-11116,-59283,91336,61085
3411.2,-11513,-59702,91422,61211
3413.2,-11796,-59706,91524,61354
3415.2,-11849,-59514,91652,61493
3417.2,-11987,-59667,91684,61515
3419.2,-12116,-59872,91566,61374
3421.2,-12032,-59666,91472,61252
3423.2,-11988,-59427,91527,61305
3425.2,-12121,-59599,91604,61406
3427.2,-12087,-59765,91547,61368
3429.2,-11752,-59488,91393,61236
3431.2,-11464,-59174,91301,61185
3433.2,-11424,-59277,91347,61243
3435.2,-11452,-59524,91421,61273
3437.2,-11437,-59561,91383,61201
3439.2,-11534,-59523,91306,61147
3441.2,-11790,-59600,91352,61237
3443.2,-11926,-59736,91455,61355
3445.2,-11711,-59846,91412,61311
3447.2,-11394,-59825,91258,61152
3449.2,-11422,-59622,91193,61065
3451.2,-11763,-59523,91243,61083
3453.2,-11942,-59813,91309,61144
3455.2,-11766,-60203,91383,61242
3457.2,-11550,-60266,91460,61354
3459.2,-11556,-60119,91428,61366
3461.2,-11676,-60035,91269,61244
3463.2,-11773,-59918,91155,61116
3465.2,-11862,-59681,91194,61102
3467.2,-11898,-59583,91288,61181
3469.2,-11818,-59801,91333,61272
3471.2,-11769,-60099,91336,61316
3473.2,-11894,-60110,91277,61267
3475.2,-12013,-59774,91125,61122
3477.2,-11923,-59449,90992,60987
3479.2,-11790,-59498,91019,60968
3481.2,-11850,-59761,91114,61020
3483.2,-11964,-59830,91078,61014
3485.2,-11854,-59757,90943,60953
3487.2,-11582,-59828,90904,60957
3489.2,-11419,-59885,90996,61040
3491.2,-11422,-59758,91070,61096
3493.2,-11437,-59856,91066,61085
3495.2,-11458,-60347,91074,61094
3497.2,-11657,-60513,91146,61175
3499.2,-11992,-59938,91189,61222
3501.2,-12121,-59398,91121,61147
3503.2,-11906,-59632,91038,61060
3505.2,-11712,-60184,91111,61137
3507.2,-11895,-60234,91332,61342
3509.2,-12251,-59798,91511,61511
3511.2,-12303,-59462,91532,61588
3513.2,-12012,-59419,91439,61578
3515.2,-11819,-59370,91323,61457
3517.2,-11917,-59212,91269,61311
3519.2,-11929,-59181,91306,61293
3521.2,-11646,-59282,91370,61378
3523.2,-11563,-59251,91414,61449
3525.2,-12000,-59150,91492,61521
3527.2,-12344,-59247,91578,61592
3529.2,-12018,-59434,91526,61545
3531.2,-11476,-59414,91370,61424
3533.2,-11364,-59230,91337,61432
3535.2,-11547,-59102,91464,61573
3537.2,-11665,-59100,91555,61676
3539.2,-11713,-59171,91524,61695
3541.2,-11660,-59146,91443,61664
3543.2,-11423,-58929,91381,61600
3545.2,-11279,-58859,91428,61630
3547.2,-11484,-59301,91627,61850
3549.2,-11745,-59785,91781,62033
3551.2,-11734,-59450,91635,61883
3553.2,-11611,-58508,91272,61497
3555.2,-11601,-58161,90995,61220
3557.2,-11618,-58826,90947,61203
3559.2,-11566,-59602,91079,61362
3561.2,-11498,-59794,91289,61561
3563.2,-11459,-59754,91421,61676
3565.2,-11491,-59850,91373,61659
3567.2,-11607,-59854,91240,61577
3569.2,-11655,-59693,91155,61489
3571.2,-11564,-59728,91083,61383
3573.2,-11557,-60052,90938,61259
3575.2,-11739,-60354,90757,61125
3577.2,-11872,-60434,90614,60962
3579.2,-11851,-60330,90547,60837
3581.2,-11899,-60187,90572,60865
3583.2,-12124,-60218,90645,60994
3585.2,-12341,-60434,90678,61056
3587.2,-12335,-60537,90646,61004
3589.2,-12080,-60412,90584,60911
3591.2,-11862,-60309,90526,60846
3593.2,-12019,-60366,90526,60871
3595.2,-12410,-60485,90626,61007
3597.2,-12595,-60636,90744,61144
3599.2,-12530,-60778,90760,61156
3601.2,-12399,-60789,90698,61084
3603.2,-12116,-60729,90657,61033
3605.2,-11763,-60693,90640,60994
3607.2,-11842,-60524,90604,60930
3609.2,-12382,-60272,90588,60919
3611.2,-12674,-60360,90634,61008
3613.2,-12390,-60736,90671,61082
3615.2,-12048,-60759,90625,61042
3617.2,-12084,-60389,90572,60989
3619.2,-12312,-60298,90599,61027
3621.2,-12389,-60589,90617,61042
3623.2,-12261,-60722,90512,60907
3625.2,-12099,-60714,90430,60777
3627.2,-12100,-61035,90626,60868
3629.2,-12314,-61452,91068,61073
3631.2,-12580,-61339,91529,61161
3633.2,-12644,-60847,92034,61251
3635.2,-12368,-60497,92770,61627
3637.2,-11842,-60143,93650,62261
3639.2,-11265,-59492,94519,63027
3641.2,-10720,-58798,95562,64093
3643.2,-10037,-58026,96816,65487
3645.2,-8947,-56515,97738,66805
3647.2,-7527,-54358,98031,67900
3649.2,-6385,-52689,98169,69113
3651.2,-6049,-51940,98323,70351
3653.2,-6281,-51339,97843,70982
3655.2,-6475,-50478,96517,70956
3657.2,-6525,-49894,95013,70780
3659.2,-6801,-49973,93639,70398
3661.2,-7534,-50491,92078,69384
3663.2,-8598,-51179,90429,67937
3665.2,-9733,-52009,89080,66466
3667.2,-10806,-53153,87916,64850
3669.2,-11813,-54795,86849,63058
3671.2,-12553,-56612,86351,61608
3673.2,-12738,-57891,86591,60778
3675.2,-12582,-58554,87090,60329
3677.2,-12498,-59184,87598,60153
3679.2,-12343,-59819,88259,60297
3681.2,-11983,-59994,88957,60553
3683.2,-11930,-59960,89482,60739
3685.2,-12312,-60345,89910,60929
3687.2,-12410,-60815,90226,61056
3689.2,-12097,-60681,90263,60979
3691.2,-12088,-60325,90221,60917
3693.2,-12414,-60478,90409,61094
3695.2,-12486,-60841,90610,61239
3697.2,-12435,-60788,90519,61087
3699.2,-12679,-60545,90358,60879
3701.2,-12893,-60611,90405,60878
3703.2,-12745,-60901,90521,60974
3705.2,-12592,-61105,90545,61015
3707.2,-12643,-61128,90552,61019
3709.2,-12613,-60996,90559,60998
3711.2,-12513,-60896,90519,60982
3713.2,-12624,-61043,90530,61059
3715.2,-12773,-61233,90635,61175
3717.2,-12654,-61113,90688,61181
3719.2,-12516,-60908,90664,61136
3721.2,-12663,-61046,90708,61197
3723.2,-12843,-61313,90793,61281
3725.2,-12815,-61291,90781,61250
3727.2,-12775,-61141,90755,61202
3729.2,-12727,-61090,90801,61213
3731.2,-12420,-60910,90758,61129
3733.2,-12122,-60593,90589,60946
3735.2,-12358,-60553,90556,60917
3737.2,-12886,-60746,90706,61035
3739.2,-13046,-60727,90749,61015
3741.2,-12827,-60583,90629,60856
3743.2,-12665,-60676,90585,60815
3745.2,-12686,-60867,90652,60887
3747.2,-12755,-60978,90691,60912
3749.2,-12795,-61231,90734,60943
3751.2,-12777,-61590,90847,61067
3753.2,-12724,-61633,90939,61182
3755.2,-12665,-61367,90974,61225
3757.2,-12524,-61158,91022,61260
3759.2,-12319,-61025,91034,61258
3761.2,-12276,-60803,90931,61160
3763.2,-12437,-60604,90827,61065
3765.2,-12515,-60559,90861,61090
3767.2,-12374,-60626,90954,61193
3769.2,-12245,-60767,90964,61285
3771.2,-12347,-60885,90914,61356
3773.2,-12569,-60771,90915,61409
3775.2,-12651,-60506,90971,61415
3777.2,-12570,-60486,90997,61384
3779.2,-12544,-60799,90977,61373
3781.2,-12574,-61039,90967,61393
3783.2,-12373,-60892,90963,61379
3785.2,-11996,-60532,90948,61332
3787.2,-11897,-60307,91028,61397
3789.2,-12145,-60310,91267,61634
3791.2,-12339,-60373,91487,61851
3793.2,-12347,-60385,91507,61860
3795.2,-12306,-60447,91403,61715
3797.2,-12146,-60610,91323,61563
3799.2,-11904,-60645,91317,61485
3801.2,-11967,-60373,91417,61541
3803.2,-12377,-60111,91612,61715
3805.2,-12679,-60308,91788,61877
3807.2,-12747,-60762,91897,61961
3809.2,-12790,-60784,91987,62007
3811.2,-12667,-60305,92013,61990
3813.2,-12243,-60006,91931,61891
3815.2,-11975,-60153,91911,61865
3817.2,-12137,-60277,92103,62032
3819.2,-12246,-60202,92345,62233
3821.2,-11977,-60267,92388,62251
3823.2,-11684,-60424,92263,62133
3825.2,-11574,-60265,92208,62104
3827.2,-11446,-59871,92337,62241
3829.2,-11362,-59646,92537,62410
3831.2,-11544,-59597,92687,62522
3833.2,-11735,-59535,92817,62645
3835.2,-11578,-59525,92961,62801
3837.2,-11305,-59630,93054,62881
3839.2,-11305,-59680,93084,62878
3841.2,-11456,-59576,93165,62942
3843.2,-11456,-59410,93339,63122
3845.2,-11388,-59231,93490,63270
3847.2,-11497,-59051,93517,63270
3849.2,-11683,-59026,93488,63221
3851.2,-11599,-59246,93547,63291
3853.2,-11185,-59401,93691,63461
3855.2,-10815,-59105,93753,63528
3857.2,-10803,-58560,93667,63431
3859.2,-11024,-58414,93584,63338
3861.2,-11160,-58815,93599,63345
3863.2,-11098,-59125,93620,63356
3865.2,-10945,-58858,93604,63344
3867.2,-10829,-58417,93630,63396
3869.2,-10804,-58380,93701,63488
3871.2,-10871,-58613,93734,63517
3873.2,-11014,-58715,93729,63498
3875.2,-11170,-58756,93745,63522
3877.2,-11204,-58834,93752,63563
3879.2,-11035,-58697,93659,63513
3881.2,-10804,-58419,93490,63383
3883.2,-10753,-58466,93397,63324
3885.2,-10913,-58700,93417,63375
3887.2,-11062,-58562,93370,63361
3889.2,-11056,-58302,93172,63193
3891.2,-11020,-58639,93015,63063
3893.2,-11117,-59402,93022,63093
3895.2,-11333,-59756,93019,63107
3897.2,-11576,-59500,92862,62963
3899.2,-11754,-59180,92674,62803
3901.2,-11758,-59202,92599,62763
3903.2,-11649,-59441,92590,62761
3905.2,-11703,-59623,92532,62672
3907.2,-11949,-59743,92395,62508
3909.2,-11989,-59936,92254,62370
3911.2,-11657,-60080,92170,62308
3913.2,-11417,-59977,92091,62255
3915.2,-11627,-59867,91978,62154
3917.2,-11924,-60108,91920,62076
3919.2,-11841,-60406,91917,62047
3921.2,-11579,-60265,91783,61914
3923.2,-11645,-60028,91506,61646
3925.2,-12018,-60322,91355,61480
3927.2,-12232,-60771,91402,61514
3929.2,-12182,-60623,91403,61530
3931.2,-12232,-60218,91290,61426
3933.2,-12474,-60315,91250,61374
3935.2,-12562,-60618,91291,61422
3937.2,-12419,-60490,91269,61430
3939.2,-12374,-60273,91239,61405
3941.2,-12480,-60539,91302,61447
3943.2,-12486,-60985,91339,61498
3945.2,-12421,-61147,91267,61481
3947.2,-12458,-61174,91240,61488
3949.2,-12423,-61263,91302,61549
3951.2,-12170,-61219,91273,61517
3953.2,-12034,-60936,91134,61377
3955.2,-12292,-60642,91105,61338
3957.2,-12645,-60608,91252,61482
3959.2,-12676,-60858,91391,61630
3961.2,-12434,-61091,91373,61608
3963.2,-12204,-60945,91214,61429
3965.2,-12056,-60509,91026,61234
3967.2,-11950,-60250,90981,61184
3969.2,-12045,-60395,91156,61346
3971.2,-12464,-60728,91379,61586
3973.2,-12864,-60972,91414,61679
3975.2,-12790,-61028,91268,61568
3977.2,-12389,-60956,91135,61402
3979.2,-12207,-60844,91115,61330
3981.2,-12358,-60658,91164,61353
3983.2,-12480,-60384,91219,61395
3985.2,-12364,-60276,91245,61408
3987.2,-12170,-60491,91236,61402
3989.2,-12111,-60668,91213,61396
3991.2,-12218,-60520,91212,61404
3993.2,-12327,-60450,91261,61454
3995.2,-12245,-60846,91345,61552
3997.2,-12011,-61254,91365,61599
3999.2,-11913,-61077,91240,61484
4001.2,-12112,-60627,91090,61323
4003.2,-12387,-60639,91126,61351
4005.2,-12441,-61067,91293,61527
4007.2,-12350,-61216,91324,61551
4009.2,-12393,-60931,91175,61376
4011.2,-12521,-60776,91092,61283
4013.2,-12455,-60953,91165,61374
4015.2,-12233,-60981,91188,61415
4017.2,-12113,-60659,91062,61294
4019.2,-12058,-60465,90962,61205
4021.2,-11936,-60687,91011,61273
4023.2,-11971,-60941,91092,61361
4025.2,-12290,-60893,91108,61368
4027.2,-12488,-60772,91127,61378
4029.2,-12276,-60799,91167,61425
4031.2,-12007,-60729,91123,61400
4033.2,-12011,-60449,91004,61305
4035.2,-12138,-60402,90942,61267
4037.2,-12264,-60798,90940,61279
4039.2,-12490,-61119,90911,61250
4041.2,-12701,-61029,90921,61251
4043.2,-12663,-60903,91018,61346
4045.2,-12481,-60995,91055,61379
4047.2,-12382,-61125,90981,61280
4049.2,-12341,-61274,90949,61222
4051.2,-12310,-61455,90949,61234
4053.2,-12390,-61397,90835,61170
4055.2,-12532,-61179,90749,61117
4057.2,-12510,-61215,90874,61220
4059.2,-12349,-61252,90970,61259
4061.2,-12290,-60798,90795,61044
4063.2,-12290,-60397,90627,60884
4065.2,-12128,-60785,90743,61032
4067.2,-11970,-61395,90899,61203
4069.2,-12124,-61363,90857,61159
4071.2,-12360,-61034,90814,61129
4073.2,-12313,-61077,90912,61249
4075.2,-12229,-61301,90952,61287
4077.2,-12378,-61393,90870,61190
4079.2,-12416,-61576,90882,61205
4081.2,-12231,-61750,90988,61319
4083.2,-12320,-61313,90949,61270
4085.2,-12687,-60433,90798,61105
4087.2,-12700,-60151,90824,61135
4089.2,-12357,-60670,91063,61384
4091.2,-12225,-60956,91258,61579
4093.2,-12262,-60500,91257,61569
4095.2,-12082,-60067,91148,61444
4097.2,-11924,-60279,91098,61371
4099.2,-12173,-60738,91185,61446
4101.2,-12537,-60913,91310,61581
4103.2,-12533,-60882,91311,61597
4105.2,-12275,-60891,91227,61514
4107.2,-12202,-60828,91236,61508
4109.2,-12365,-60498,91315,61571
4111.2,-12433,-60115,91288,61544
4113.2,-12245,-60082,91186,61459
4115.2,-12001,-60320,91185,61468
4117.2,-11915,-60372,91278,61559
4119.2,-11939,-60192,91316,61610
4121.2,-11918,-60189,91252,61579
4123.2,-11843,-60473,91164,61514
4125.2,-11878,-60702,91145,61498
4127.2,-12059,-60657,91214,61578
4129.2,-12187,-60455,91284,61675
4131.2,-12182,-60287,91303,61713
4133.2,-12201,-60193,91333,61735
4135.2,-12190,-60097,91351,61721
4137.2,-11976,-60052,91246,61574
4139.2,-11823,-60280,91115,61420
4141.2,-11991,-60710,91163,61487
4143.2,-12058,-60918,91294,61657
4145.2,-11729,-60815,91258,61634
4147.2,-11524,-60790,91069,61438
4149.2,-11726,-60965,90884,61262
4151.2,-11834,-61079,90715,61116
4153.2,-11688,-61103,90564,60973
4155.2,-11728,-61229,90528,60919
4157.2,-12010,-61449,90589,60958
4159.2,-12257,-61657,90609,60958
4161.2,-12507,-61805,90554,60891
4163.2,-12784,-61808,90509,60851
4165.2,-12873,-61711,90529,60875
4167.2,-12825,-61757,90606,60941
4169.2,-12863,-61907,90700,61021
4171.2,-12895,-61834,90739,61067
4173.2,-12822,-61604,90718,61058
4175.2,-12823,-61659,90741,61084
4177.2,-12928,-61970,90835,61196
4179.2,-12912,-62015,90846,61236
4181.2,-12725,-61642,90671,61059
4183.2,-12515,-61279,90456,60813
4185.2,-12385,-61298,90398,60737
4187.2,-12382,-61643,90485,60831
4189.2,-12450,-61937,90562,60919
4191.2,-12357,-61802,90524,60905
4193.2,-12036,-61381,90405,60823
4195.2,-11834,-61361,90347,60769
4197.2,-12033,-61896,90442,60820
4199.2,-12399,-62179,90593,60933
4201.2,-12586,-61801,90661,60992
4203.2,-12576,-61466,90653,60964
4205.2,-12473,-61587,90646,60891
4207.2,-12335,-61694,90692,60819
4209.2,-12350,-61755,90910,60817
4211.2,-12594,-62183,91392,60943
4213.2,-12780,-62451,92033,61165
4215.2,-12726,-61801,92702,61477
4217.2,-12522,-60883,93454,62010
4219.2,-11992,-60613,94380,62864
4221.2,-10916,-60406,95458,63983
4223.2,-9766,-59358,96601,65276
4225.2,-9034,-57809,97610,66665
4227.2,-8323,-56344,98196,68010
4229.2,-7302,-54864,98321,69183
4231.2,-6606,-53457,98190,70122
4233.2,-6658,-52571,97760,70738
4235.2,-6877,-52046,96766,70940
4237.2,-6919,-51442,95305,70764
4239.2,-7312,-51040,93780,70257
4241.2,-8354,-51304,92327,69350
4243.2,-9619,-52023,90848,68046
4245.2,-10732,-52974,89399,66519
4247.2,-11690,-54435,88077,64853
4249.2,-12487,-56374,86912,63044
4251.2,-12995,-58203,86136,61363
4253.2,-13120,-59629,86097,60297
4255.2,-12927,-60693,86684,59966
4257.2,-12679,-61209,87378,59992
4259.2,-12591,-61216,87969,60087
4261.2,-12593,-61346,88651,60321
4263.2,-12599,-61855,89409,60681
4265.2,-12691,-62165,89914,60891
4267.2,-12779,-61936,90068,60845
4269.2,-12645,-61620,90122,60775
4271.2,-12474,-61623,90235,60853
4273.2,-12592,-61805,90353,60984
4275.2,-12734,-61899,90442,61043
4277.2,-12524,-61877,90501,61007
4279.2,-12340,-61880,90507,60933
4281.2,-12581,-62003,90502,60921
4283.2,-12802,-62157,90522,60972
4285.2,-12672,-62227,90500,60956
4287.2,-12708,-62262,90459,60899
4289.2,-13017,-62258,90551,60982
4291.2,-12833,-62070,90728,61169
4293.2,-12148,-61759,90767,61228
4295.2,-11978,-61599,90662,61120
4297.2,-12494,-61654,90590,61006
4299.2,-12790,-61803,90604,60978
4301.2,-12653,-62020,90664,61058
4303.2,-12718,-62229,90753,61200
4305.2,-13022,-62243,90795,61244
4307.2,-13027,-62095,90773,61153
4309.2,-12771,-62009,90832,61147
4311.2,-12745,-62041,90975,61284
4313.2,-12966,-62159,90992,61331
4315.2,-13061,-62386,90891,61246
4317.2,-12930,-62508,90896,61227
4319.2,-12763,-62221,90960,61230
4321.2,-12654,-61803,90888,61083
4323.2,-12574,-61887,90825,60973
4325.2,-12506,-62329,90935,61081
4327.2,-12441,-62285,90962,61118
4329.2,-12384,-61664,90737,60885
4331.2,-12415,-61391,90612,60746
4333.2,-12594,-61870,90802,60941
4335.2,-12809,-62344,90974,61118
4337.2,-12856,-62218,90902,61026
4339.2,-12698,-61917,90817,60921
4341.2,-12556,-61935,90867,60996
4343.2,-12617,-62082,90932,61111
4345.2,-12757,-62073,90993,61192
4347.2,-12765,-62017,91129,61315
4349.2,-12698,-62010,91254,61448
4351.2,-12711,-61950,91256,61499
4353.2,-12723,-61863,91189,61483
4355.2,-12590,-61874,91144,61462
4357.2,-12430,-61946,91176,61497
4359.2,-12445,-62004,91308,61617
4361.2,-12559,-62091,91421,61701
4363.2,-12525,-62163,91373,61630
4365.2,-12373,-62062,91295,61560
4367.2,-12434,-61798,91381,61653
4369.2,-12724,-61552,91476,61719
4371.2,-12776,-61435,91395,61603
4373.2,-12460,-61499,91358,61566
4375.2,-12278,-61760,91529,61753
4377.2,-12399,-61975,91639,61848
4379.2,-12371,-61847,91561,61736
4381.2,-12153,-61537,91622,61766
4383.2,-12204,-61406,91903,62011
4385.2,-12402,-61364,92034,62105
4387.2,-12268,-61241,91950,62015
4389.2,-12018,-61328,91990,62060
4391.2,-12064,-61631,92151,62188
4393.2,-12120,-61484,92133,62115
4395.2,-11938,-60878,92048,61997
4397.2,-11922,-60788,92225,62140
4399.2,-12171,-61339,92516,62362
4401.2,-12168,-61456,92560,62352
4403.2,-11851,-60950,92455,62253
4405.2,-11689,-60789,92518,62343
4407.2,-11725,-61096,92720,62544
4409.2,-11734,-61114,92867,62696
4411.2,-11859,-60856,92985,62858
4413.2,-12125,-60789,93143,63058
4415.2,-12134,-60720,93253,63167
4417.2,-11860,-60490,93271,63168
4419.2,-11671,-60502,93270,63164
4421.2,-11515,-60714,93277,63161
4423.2,-11230,-60590,93293,63163
4425.2,-11193,-60176,93382,63272
4427.2,-11553,-59929,93541,63477
4429.2,-11711,-59919,93690,63651
4431.2,-11367,-60030,93822,63784
4433.2,-10982,-60181,93931,63906
4435.2,-10840,-60135,93919,63915
4437.2,-10796,-59884,93828,63826
4439.2,-10864,-59845,93861,63856
4441.2,-11045,-60071,93990,64011
4443.2,-11066,-60059,93963,64024
4445.2,-10900,-59693,93803,63862
4447.2,-10866,-59444,93788,63804
4449.2,-10993,-59492,93924,63928
4451.2,-11034,-59579,93971,64024
4453.2,-10988,-59663,93912,64012
4455.2,-10997,-59883,93895,63996
4457.2,-11035,-59974,93884,63968
4459.2,-11077,-59637,93784,63868
4461.2,-11202,-59290,93726,63815
4463.2,-11389,-59518,93851,63937
4465.2,-11467,-60044,94008,64097
4467.2,-11300,-60183,93970,64071
4469.2,-10958,-59926,93757,63881
4471.2,-10771,-59743,93574,63734
4473.2,-10996,-59812,93540,63728
4475.2,-11404,-59974,93581,63759
4477.2,-11574,-60054,93549,63693
4479.2,-11519,-60078,93432,63546
4481.2,-11527,-60235,93354,63448
4483.2,-11555,-60461,93312,63401
4485.2,-11399,-60421,93158,63268
4487.2,-11273,-60238,92918,63065
4489.2,-11561,-60398,92807,62967
4491.2,-12090,-60758,92841,62983
4493.2,-12270,-60799,92826,62934
4495.2,-11966,-60692,92707,62785
4497.2,-11668,-60866,92576,62644
4499.2,-11731,-61089,92436,62533
4501.2,-11979,-61069,92271,62404
4503.2,-12169,-61073,92169,62300
4505.2,-12286,-61282,92201,62299
4507.2,-12316,-61459,92295,62381
4509.2,-12234,-61502,92320,62416
4511.2,-12203,-61545,92234,62331
4513.2,-12347,-61598,92140,62221
4515.2,-12507,-61621,92131,62201
4517.2,-12509,-61660,92142,62208
4519.2,-12382,-61655,92077,62144
4521.2,-12179,-61481,91986,62067
4523.2,-11964,-61257,91963,62067
4525.2,-11958,-61284,91997,62122
4527.2,-12247,-61567,92045,62183
4529.2,-12514,-61760,92094,62242
4531.2,-12475,-61693,92130,62279
4533.2,-12335,-61538,92134,62269
4535.2,-12424,-61418,92121,62252
4537.2,-12663,-61357,92156,62303
4539.2,-12725,-61496,92259,62409
4541.2,-12552,-61806,92305,62442
4543.2,-12426,-61958,92201,62356
4545.2,-12511,-61856,92114,62321
4547.2,-12591,-61720,92204,62447
4549.2,-12420,-61603,92312,62556
4551.2,-12148,-61536,92259,62488
4553.2,-12094,-61728,92164,62372
4555.2,-12273,-62000,92173,62358
4557.2,-12478,-61893,92209,62395
4559.2,-12583,-61587,92197,62407
4561.2,-12522,-61593,92185,62406
4563.2,-12352,-61721,92207,62409
4565.2,-12364,-61565,92233,62417
4567.2,-12619,-61454,92230,62419
4569.2,-12649,-61757,92189,62394
4571.2,-12245,-61990,92144,62354
4573.2,-11940,-61654,92122,62323
4575.2,-12086,-61176,92109,62300
4577.2,-12313,-61176,92133,62322
4579.2,-12356,-61486,92222,62421
4581.2,-12405,-61584,92281,62501
4583.2,-12452,-61462,92229,62466
4585.2,-12316,-61448,92179,62414
4587.2,-12176,-61585,92264,62490
4589.2,-12239,-61658,92412,62630
4591.2,-12361,-61577,92450,62647
4593.2,-12506,-61482,92324,62487
4595.2,-12737,-61601,92158,62301
4597.2,-12716,-61934,92108,62258
4599.2,-12264,-62135,92155,62329
4601.2,-12003,-62034,92164,62377
4603.2,-12293,-61931,92125,62383
4605.2,-12478,-61933,92131,62410
4607.2,-12219,-61720,92174,62428
4609.2,-12167,-61424,92185,62396
4611.2,-12520,-61612,92165,62360
4613.2,-12583,-62079,92143,62357
4615.2,-12242,-62044,92133,62355
4617.2,-12168,-61592,92156,62342
4619.2,-12472,-61476,92163,62313
4621.2,-12632,-61743,92095,62247
4623.2,-12502,-61906,92030,62188
4625.2,-12339,-61923,92052,62184
4627.2,-12267,-61950,92071,62174
4629.2,-12269,-61876,92015,62118
4631.2,-12328,-61760,92008,62115
4633.2,-12412,-61867,92132,62225
4635.2,-12548,-62093,92270,62351
4637.2,-12740,-62098,92320,62403
4639.2,-12806,-61898,92308,62402
4641.2,-12645,-61720,92256,62363
4643.2,-12487,-61649,92146,62263
4645.2,-12533,-61707,92035,62146
4647.2,-12630,-61869,92031,62123
4649.2,-12577,-61972,92158,62232
4651.2,-12443,-61926,92302,62367
4653.2,-12323,-61838,92350,62406
4655.2,-12156,-61778,92305,62354
4657.2,-11991,-61728,92217,62277
4659.2,-12032,-61763,92127,62205
4661.2,-12229,-61885,92117,62181
4663.2,-12287,-61886,92253,62278
4665.2,-12220,-61742,92480,62488
4667.2,-12310,-61736,92685,62707
4669.2,-12523,-61850,92811,62833
4671.2,-12608,-61688,92839,62832
4673.2,-12624,-61333,92814,62779
4675.2,-12679,-61356,92827,62782
4677.2,-12531,-61689,92845,62802
4679.2,-12095,-61663,92769,62739
4681.2,-11875,-61297,92699,62662
4683.2,-12217,-61242,92785,62695
4685.2,-12666,-61480,92893,62760
4687.2,-12640,-61429,92844,62741
4689.2,-12249,-61071,92747,62724
4691.2,-11985,-60844,92750,62792
4693.2,-12042,-60842,92780,62859
4695.2,-12256,-60918,92770,62861
4697.2,-12387,-61021,92789,62854
4699.2,-12316,-61077,92855,62891
4701.2,-12199,-61044,92914,62974
4703.2,-12244,-61071,92979,63088
4705.2,-12277,-61196,93064,63178
4707.2,-12025,-61239,93069,63151
4709.2,-11751,-61189,92900,62971
4711.2,-11813,-61224,92674,62749
4713.2,-11961,-61307,92626,62671
4715.2,-11918,-61302,92771,62765
4717.2,-11924,-61327,92857,62842
4719.2,-12048,-61487,92746,62771
4721.2,-12009,-61601,92600,62661
4723.2,-11913,-61586,92561,62625
4725.2,-11967,-61704,92516,62582
4727.2,-11897,-62041,92356,62442
4729.2,-11720,-62279,92203,62307
4731.2,-12006,-62261,92201,62311
4733.2,-12622,-62260,92285,62392
4735.2,-12789,-62437,92296,62379
4737.2,-12533,-62613,92207,62248
4739.2,-12458,-62687,92116,62142
4741.2,-12520,-62699,92089,62145
4743.23,-12445,-62521,92105,62177
4745.25,-12466,-62165,92116,62176
4747.28,-12659,-62105,92129,62219
4749.3,-12666,-62542,92198,62361
4751.3,-12492,-62857,92299,62469
4753.3,-12453,-62597,92282,62377
4755.3,-12434,-62246,92094,62145
4757.3,-12212,-62293,91929,62000
4759.3,-12102,-62527,91965,62047
4761.3,-12426,-62705,92109,62180
4763.3,-12838,-62821,92191,62264
4765.3,-12853,-62685,92210,62293
4767.3,-12579,-62313,92242,62326
4769.3,-12412,-62240,92281,62380
4771.3,-12425,-62573,92295,62401
4773.3,-12470,-62720,92300,62385
4775.3,-12542,-62596,92351,62436
4777.3,-12689,-62731,92440,62561
4779.3,-12753,-62965,92412,62540
4781.3,-12517,-62730,92201,62276
4783.3,-12129,-62485,92104,62095
4785.3,-12061,-62999,92441,62244
4787.3,-12411,-63671,93050,62457
4789.3,-12660,-63509,93654,62551
4791.3,-12487,-62955,94397,62880
4793.3,-12204,-62752,95404,63635
4795.3,-11983,-62256,96359,64450
4797.3,-11533,-60815,97144,65218
4799.3,-10816,-59279,98124,66364
4801.3,-10056,-58422,99296,67943
4803.3,-9083,-57580,100088,69475
4805.3,-7857,-56143,100310,70756
4807.3,-7108,-54646,100258,71863
4809.3,-7241,-53597,99843,72569
4811.3,-7561,-52811,98713,72653
4813.3,-7547,-52170,97106,72388
4815.3,-7669,-51839,95572,72010
4817.3,-8352,-51874,94191,71291
4819.3,-9483,-52408,92810,70078
4821.3,-10956,-53747,91502,68588
4823.3,-12467,-55728,90255,66894
4825.3,-13245,-57604,88921,64874
4827.3,-13045,-58994,87787,62835
4829.3,-12582,-60211,87440,61469
4831.3,-12415,-61341,87929,61034
4833.3,-12412,-61852,88707,61107
4835.3,-12493,-61632,89411,61250
4837.3,-12764,-61498,90134,61463
4839.3,-12931,-61983,90923,61813
4841.3,-12588,-62553,91506,62052
4843.3,-11980,-62706,91696,61978
4845.3,-11769,-62767,91738,61855
4847.3,-12153,-62931,91929,62009
4849.3,-12696,-62776,92184,62295
4851.3,-12908,-62337,92314,62415
4853.3,-12723,-62312,92405,62419
4855.3,-12445,-62792,92544,62471
4857.3,-12377,-63114,92571,62475
4859.3,-12543,-63052,92438,62336
4861.3,-12732,-62921,92369,62215
4863.3,-12790,-62821,92444,62223
4865.3,-12725,-62764,92477,62232
4867.3,-12615,-62919,92422,62188
4869.3,-12569,-63127,92445,62224
4871.3,-12681,-63038,92572,62349
4873.3,-12858,-62837,92650,62395
4875.3,-12869,-62902,92634,62326
4877.3,-12689,-63106,92613,62278
4879.3,-12528,-63227,92632,62308
4881.3,-12482,-63339,92656,62328
4883.3,-12463,-63388,92639,62262
4885.3,-12477,-63255,92598,62170
4887.3,-12630,-63154,92645,62190
4889.3,-12849,-63162,92793,62316
4891.3,-12889,-62985,92862,62366
4893.3,-12710,-62748,92789,62294
4895.3,-12595,-62917,92771,62274
4897.3,-12697,-63246,92833,62305
4899.3,-12730,-63127,92749,62206
4901.3,-12446,-62784,92566,62049
4903.3,-12150,-62782,92582,62075
4905.3,-12239,-62931,92763,62215
4907.3,-12517,-62824,92836,62263
4909.3,-12552,-62711,92821,62273
4911.3,-12414,-62910,92874,62334
4913.3,-12431,-63132,92930,62358
4915.3,-12550,-63004,92916,62335
4917.3,-12519,-62719,92934,62378
4919.3,-12398,-62709,93012,62456
4921.3,-12383,-62965,93055,62473
4923.3,-12427,-63080,93062,62477
4925.3,-12414,-62925,93105,62538
4927.3,-12393,-62822,93186,62618
4929.3,-12446,-62962,93263,62682
4931.3,-12523,-63162,93312,62733
4933.3,-12522,-63282,93308,62723
4935.3,-12381,-63308,93241,62621
4937.3,-12179,-63144,93175,62520
4939.3,-12143,-62813,93202,62535
4941.3,-12322,-62559,93326,62637
4943.3,-12393,-62461,93447,62689
4945.3,-12188,-62434,93490,62658
4947.3,-12069,-62582,93498,62654
4949.3,-12265,-62880,93542,62734
4951.3,-12401,-62853,93596,62803
4953.3,-12270,-62378,93599,62790
4955.3,-12247,-62161,93596,62766
4957.3,-12437,-62583,93688,62810
4959.3,-12384,-62947,93837,62880
4961.3,-12016,-62723,93913,62915
4963.3,-11830,-62376,93937,62966
4965.3,-11997,-62281,94047,63089
4967.3,-12180,-62129,94203,63197
4969.3,-12209,-61890,94254,63195
4971.3,-12207,-61956,94234,63142
4973.3,-12235,-62192,94270,63130
4975.3,-12245,-62175,94342,63150
4977.3,-12210,-62104,94419,63221
4979.3,-12147,-62297,94576,63402
4981.3,-12095,-62446,94793,63614
4983.3,-12073,-62261,94945,63734
4985.3,-12037,-62011,95027,63802
4987.3,-11900,-61892,95099,63879
4989.3,-11609,-61752,95110,63876
4991.3,-11261,-61571,95040,63773
4993.3,-11122,-61468,95037,63753
4995.3,-11306,-61386,95198,63908
4997.3,-11523,-61309,95388,64080
4999.3,-11435,-61386,95443,64124
5001.3,-11152,-61553,95412,64116
5003.3,-11025,-61516,95462,64192
5005.3,-11104,-61214,95617,64349
5007.3,-11145,-60913,95772,64520
5009.3,-11065,-60880,95892,64689
5011.3,-10973,-61180,95992,64815
5013.3,-10831,-61561,96010,64808
5015.3,-10566,-61568,95922,64690
5017.3,-10427,-61073,95825,64595
5019.3,-10663,-60505,95766,64553
5021.3,-11025,-60298,95750,64543
5023.3,-11135,-60404,95849,64638
5025.3,-11048,-60532,96007,64801
5027.3,-10981,-60512,96005,64813
5029.3,-10974,-60412,95876,64689
5031.3,-11078,-60454,95888,64694
5033.3,-11289,-60699,95972,64779
5035.3,-11325,-60883,95815,64633
5037.3,-11079,-60864,95518,64345
5039.3,-10953,-60869,95469,64309
5041.3,-11200,-60979,95668,64536
5043.3,-11452,-60982,95813,64704
5045.3,-11410,-60936,95818,64706
5047.3,-11335,-61071,95763,64643
5049.3,-11477,-61211,95636,64523
5051.3,-11639,-61151,95453,64343
5053.3,-11602,-61200,95333,64208
5055.3,-11469,-61498,95285,64142
5057.3,-11407,-61579,95189,64038
5059.3,-11462,-61344,95040,63885
5061.3,-11641,-61343,94920,63767
5063.3,-11846,-61651,94826,63686
5065.3,-11905,-61793,94750,63611
5067.3,-11899,-61803,94711,63552
5069.3,-12041,-61962,94609,63430
5071.3,-12204,-61979,94373,63179
5073.3,-12161,-61724,94221,63004
5075.3,-12093,-61780,94342,63105
5077.3,-12188,-62252,94497,63271
5079.3,-12232,-62496,94394,63203
5081.3,-12160,-62463,94156,62977
5083.3,-12261,-62619,94033,62832
5085.3,-12473,-62762,94021,62802
5087.3,-12400,-62564,94003,62793
5089.3,-12131,-62432,93938,62743
5091.3,-12144,-62567,93842,62648
5093.3,-12500,-62595,93790,62586
5095.3,-12783,-62636,93814,62606
5097.3,-12659,-62968,93822,62617
5099.3,-12196,-62992,93791,62580
5101.3,-11846,-62375,93812,62580
5103.3,-11945,-62059,93825,62567
5105.3,-12172,-62576,93707,62422
5107.3,-12060,-63064,93602,62295
5109.3,-11885,-62976,93677,62370
5111.3,-12153,-62795,93762,62473
5113.3,-12616,-62764,93730,62452
5115.3,-12788,-62702,93804,62528
5117.3,-12847,-62764,94038,62789
5119.3,-13032,-63015,94124,62914
5121.3,-13015,-63047,93983,62772
5123.3,-12680,-62752,93885,62637
5125.3,-12503,-62557,93899,62626
5127.3,-12620,-62673,93882,62603
5129.3,-12620,-62913,93867,62579
5131.3,-12394,-63040,93909,62612
5133.3,-12188,-62895,93849,62565
5135.3,-12061,-62585,93674,62409
5137.3,-12084,-62470,93648,62380
5139.3,-12404,-62579,93827,62540
5141.3,-12742,-62526,93955,62662
5143.3,-12694,-62262,93935,62650
5145.3,-12473,-62178,93930,62647
5147.3,-12449,-62397,94012,62714
5149.3,-12490,-62669,94085,62770
5151.3,-12451,-62822,94075,62754
5153.3,-12518,-62821,93997,62670
5155.3,-12685,-62738,93947,62601
5157.3,-12733,-62757,93994,62636
5159.3,-12681,-62847,94045,62697
5161.3,-12611,-62793,94009,62662
5163.3,-12480,-62762,94010,62641
5165.3,-12396,-62986,94117,62727
5167.3,-12438,-63000,94074,62687
5169.3,-12365,-62437,93766,62388
5171.3,-12126,-62024,93571,62189
5173.3,-12111,-62398,93748,62356
5175.3,-12410,-62863,93992,62591
5177.3,-12647,-62726,93998,62594
5179.3,-12723,-62575,93909,62512
5181.3,-12801,-62989,93892,62500
5183.3,-12762,-63337,93833,62439
5185.3,-12545,-62915,93657,62274
5187.3,-12463,-62187,93523,62167
5189.3,-12569,-62051,93590,62242
5191.3,-12533,-62601,93819,62445
5193.3,-12419,-63216,94011,62608
5195.3,-12555,-63434,93998,62590
5197.3,-12712,-63229,93840,62433
5199.3,-12484,-62725,93722,62307
5201.3,-12159,-62235,93696,62269
5203.3,-12226,-62281,93705,62265
5205.3,-12536,-62913,93755,62303
5207.3,-12749,-63412,93837,62379
5209.3,-12927,-63320,93837,62390
5211.3,-13122,-63051,93727,62298
5213.3,-13076,-62961,93625,62212
5215.3,-12730,-62850,93586,62179
5217.3,-12454,-62757,93556,62144
5219.3,-12523,-62981,93536,62120
5221.3,-12759,-63213,93581,62167
5223.3,-12798,-62976,93665,62248
5225.3,-12561,-62647,93715,62287
5227.3,-12385,-62766,93724,62291
5229.3,-12556,-62998,93751,62325
5231.3,-12853,-62855,93831,62396
5233.3,-12925,-62494,93916,62447
5235.3,-12832,-62186,93951,62457
5237.3,-12784,-62023,93999,62507
5239.3,-12736,-62185,94152,62657
5241.3,-12685,-62521,94313,62792
5243.3,-12799,-62432,94281,62736
5245.3,-12997,-61981,94071,62528
5247.3,-12995,-61957,93915,62383
5249.3,-12833,-62370,93921,62392
5251.3,-12763,-62418,94000,62459
5253.3,-12798,-62079,94082,62531
5255.3,-12832,-62041,94166,62642
5257.3,-12852,-62270,94220,62766
5259.3,-12778,-62214,94206,62801
5261.3,-12563,-61968,94139,62717
5263.3,-12416,-61913,94037,62588
5265.3,-12460,-61888,93918,62495
5267.3,-12467,-61700,93840,62468
5269.3,-12361,-61672,93865,62516
5271.3,-12390,-61976,93980,62635
5273.3,-12531,-62210,94098,62763
5275.3,-12476,-62101,94145,62807
5277.3,-12292,-61942,94125,62773
5279.3,-12312,-61996,94066,62719
5281.3,-12471,-62074,93943,62609
5283.3,-12512,-62015,93800,62445
5285.3,-12504,-62071,93800,62405
5287.3,-12549,-62385,93940,62544
5289.3,-12476,-62584,93977,62625
5291.3,-12317,-62456,93859,62546
5293.3,-12410,-62460,93819,62514
5295.3,-12685,-62812,93828,62518
5297.3,-12656,-62959,93585,62273
5299.3,-12361,-62769,93179,61865
5301.3,-12359,-62961,93041,61728
5303.3,-12700,-63568,93184,61873
5305.3,-12952,-63726,93255,61931
5307.3,-13120,-63421,93239,61908
5309.3,-13448,-63426,93345,62037
5311.3,-13627,-63558,93424,62130
5313.3,-13290,-63148,93226,61904
5315.3,-12857,-62679,92961,61618
5317.3,-12887,-62945,92975,61662
5319.3,-13145,-63476,93160,61883
5321.3,-13127,-63412,93177,61908
5323.3,-12930,-62978,93015,61748
5325.3,-12965,-62890,92945,61683
5327.3,-13241,-63187,93082,61815
5329.3,-13390,-63425,93241,61968
5331.3,-13137,-63430,93228,61955
5333.3,-12675,-63375,93139,61845
5335.3,-12553,-63406,93201,61893
5337.3,-12959,-63428,93369,62100
5339.3,-13333,-63244,93379,62159
5341.3,-13217,-62963,93248,62015
5343.3,-13034,-63058,93273,61992
5345.3,-13255,-63568,93425,62132
5347.3,-13435,-63710,93328,62047
5349.3,-13028,-63146,92997,61697
5351.3,-12506,-62836,92950,61585
5353.3,-12640,-63455,93370,61866
5355.3,-13226,-64076,93843,62062
5357.3,-13453,-63811,94161,61968
5359.3,-13183,-63310,94685,62050
5361.3,-12949,-63244,95628,62629
5363.3,-12893,-62971,96637,63411
5365.3,-12575,-61940,97471,64159
5367.3,-11842,-60717,98418,65140
5369.3,-11026,-59736,99604,66542
5371.3,-10204,-58586,100552,68068
5373.3,-9161,-57111,100947,69471
5375.3,-8162,-55808,101119,70845
5377.3,-7772,-54804,101173,72054
5379.3,-7872,-53655,100552,72617
5381.3,-7885,-52393,99075,72468
5383.3,-7862,-51731,97419,72079
5385.3,-8313,-52005,96069,71612
5387.3,-9256,-52754,94793,70744
5389.3,-10404,-53571,93377,69366
5391.3,-11686,-54603,91909,67680
5393.3,-12831,-56055,90414,65751
5395.3,-13332,-57797,89046,63663
5397.3,-13342,-59565,88343,61914
5399.3,-13488,-61098,88587,61017
5401.3,-13701,-62085,89370,60899
5403.3,-13503,-62412,90188,61095
5405.3,-13101,-62395,90946,61320
5407.3,-12954,-62459,91631,61513
5409.3,-12965,-62648,92076,61602
5411.3,-12999,-62768,92287,61594
5413.3,-13188,-62854,92522,61664
5415.3,-13334,-63027,92832,61859
5417.3,-13159,-63103,92973,61954
5419.3,-13002,-62966,92926,61889
5421.3,-13204,-62998,92979,61891
5423.3,-13397,-63379,93132,61963
5425.3,-13288,-63577,93058,61832
5427.3,-13223,-63334,92802,61565
5429.3,-13391,-63285,92784,61550
5431.3,-13486,-63748,93034,61776
5433.3,-13408,-64037,93159,61863
5435.3,-13363,-63686,93055,61755
5437.3,-13351,-63184,92959,61696
5439.3,-13316,-63040,92964,61731
5441.3,-13388,-63194,93003,61768
5443.3,-13509,-63449,93078,61825
5445.3,-13482,-63636,93162,61890
5447.3,-13443,-63554,93188,61899
5449.3,-13553,-63298,93218,61920
5451.3,-13592,-63219,93307,61994
5453.3,-13535,-63343,93352,61987
5455.3,-13693,-63352,93308,61881
5457.3,-13924,-63187,93267,61821
5459.3,-13839,-63110,93229,61784
5461.3,-13683,-63194,93147,61685
5463.3,-13789,-63234,93144,61667
5465.3,-13803,-63214,93283,61827
5467.3,-13506,-63359,93385,61949
5469.3,-13364,-63607,93338,61896
5471.3,-13557,-63566,93270,61824
5473.3,-13701,-63213,93278,61827
5475.3,-13701,-63050,93338,61863
5477.3,-13697,-63261,93448,61950
5479.3,-13511,-63402,93540,62046
5481.3,-13123,-63249,93473,61976
5483.3,-12993,-63165,93304,61776
5485.3,-13222,-63298,93249,61699
5487.3,-13326,-63292,93315,61788
5489.3,-13210,-63104,93366,61877
5491.3,-13296,-63116,93425,61950
5493.3,-13539,-63249,93544,62066
5495.3,-13481,-63114,93623,62179
5497.3,-13196,-62979,93635,62280
5499.3,-13155,-63257,93684,62404
5501.3,-13387,-63444,93745,62462
5503.3,-13593,-63049,93747,62414
5505.3,-13667,-62691,93758,62402
5507.3,-13585,-62878,93767,62410
5509.3,-13323,-63003,93657,62270
5511.3,-13055,-62699,93546,62104
5513.3,-12950,-62527,93623,62151
5515.3,-12979,-62685,93747,62281
5517.3,-13149,-62733,93769,62314
5519.3,-13410,-62665,93853,62392
5521.3,-13424,-62749,94029,62530
5523.3,-13068,-62848,94063,62505
5525.3,-12818,-62842,94017,62419
5527.3,-13061,-62894,94142,62534
5529.3,-13538,-62892,94276,62657
5531.3,-13794,-62626,94195,62549
5533.3,-13708,-62396,94161,62490
5535.3,-13488,-62526,94395,62708
5537.3,-13383,-62702,94600,62895
5539.3,-13358,-62558,94588,62854
5541.3,-13225,-62400,94635,62859
5543.3,-13117,-62601,94874,63053
5545.3,-13285,-62776,95022,63177
5547.3,-13435,-62364,94934,63084
5549.3,-13092,-61679,94820,62958
5551.3,-12495,-61474,94873,62998
5553.3,-12297,-61747,95069,63202
5555.3,-12559,-61919,95292,63442
5557.3,-12804,-61809,95430,63580
5559.3,-12778,-61647,95436,63577
5561.3,-12616,-61533,95374,63508
5563.3,-12467,-61428,95346,63460
5565.3,-12377,-61323,95384,63468
5567.3,-12365,-61238,95463,63546
5569.3,-12391,-61212,95562,63670
5571.3,-12403,-61172,95654,63772
5573.3,-12408,-60947,95727,63837
5575.3,-12360,-60710,95835,63955
5577.3,-12168,-60880,96013,64163
5579.3,-12004,-61283,96156,64325
5581.3,-12173,-61288,96135,64317
5583.3,-12520,-60900,96032,64238
5585.3,-12538,-60650,96010,64252
5587.3,-12191,-60572,96016,64297
5589.3,-11942,-60433,95927,64243
5591.3,-11976,-60494,95873,64189
5593.3,-12070,-60902,95986,64259
5595.3,-12114,-61036,96067,64309
5597.3,-12164,-60543,95940,64209
5599.3,-12186,-60126,95806,64137
5601.3,-12120,-60322,95847,64223
5603.3,-11995,-60555,95891,64281
5605.3,-11879,-60347,95803,64200
5607.3,-11882,-60249,95745,64163
5609.3,-12088,-60630,95797,64244
5611.3,-12349,-60905,95794,64260
5613.3,-12398,-60749,95675,64154
5615.3,-12236,-60641,95555,64049
5617.3,-12196,-60737,95458,63959
5619.3,-12541,-60758,95374,63866
5621.3,-13055,-60880,95382,63867
5623.3,-13225,-61208,95400,63900
5625.3,-12960,-61195,95225,63749
5627.3,-12768,-60815,94974,63511
5629.3,-12904,-60916,94939,63477
5631.3,-12968,-61586,95006,63533
5633.3,-12790,-61922,94874,63373
5635.3,-12803,-61701,94647,63110
5637.3,-13112,-61549,94563,63011
5639.3,-13254,-61659,94515,62981
5641.3,-13133,-61738,94353,62847
5643.3,-13097,-61733,94194,62708
5645.3,-13111,-61782,94128,62668
5647.3,-12966,-61920,94090,62666
5649.3,-12973,-62076,94062,62654
5651.3,-13366,-62080,94040,62614
5653.3,-13637,-61952,93966,62521
5655.3,-13411,-62088,93885,62450
5657.3,-13173,-62518,93883,62457
5659.3,-13303,-62539,93880,62424
5661.3,-13450,-61990,93817,62317
5663.3,-13454,-61861,93828,62314
5665.3,-13628,-62519,93919,62407
5667.3,-13815,-62783,93856,62333
5669.3,-13615,-62069,93648,62131
5671.3,-13379,-61605,93629,62156
5673.3,-13499,-62136,93836,62385
5675.3,-13480,-62622,93900,62411
5677.3,-13107,-62417,93743,62212
5679.3,-13162,-62304,93725,62205
5681.3,-13846,-62514,93953,62463
5683.3,-14237,-62303,94093,62607
5685.3,-14023,-61814,93987,62497
5687.3,-13854,-61936,93896,62419
5689.3,-13841,-62501,93980,62519
5691.3,-13617,-62620,94030,62581
5693.3,-13479,-62241,93905,62454
5695.3,-13770,-61918,93794,62332
5697.3,-13940,-61830,93860,62401
5699.3,-13573,-61870,93940,62509
5701.3,-13233,-61941,93847,62436
5703.3,-13324,-61914,93717,62298
5705.3,-13405,-61853,93786,62359
5707.3,-13298,-62018,94004,62575
5709.3,-13395,-62251,94124,62671
5711.3,-13618,-62078,94075,62590
5713.3,-13539,-61668,94018,62537
5715.3,-13377,-61670,94072,62614
5717.3,-13489,-61973,94144,62683
5719.3,-13538,-61902,94088,62610
5721.3,-13338,-61617,93944,62481
5723.3,-13409,-61831,93897,62470
5725.3,-13817,-62296,93965,62558
5727.3,-13865,-62184,93949,62554
5729.3,-13418,-61678,93803,62431
5731.3,-13165,-61589,93753,62407
5733.3,-13427,-61841,93889,62560
5735.3,-13829,-61803,94013,62693
5737.3,-14005,-61573,94017,62703
5739.3,-13890,-61656,94025,62719
5741.3,-13603,-61923,94054,62756
5743.3,-13418,-61933,93962,62660
5745.3,-13505,-61795,93797,62473
5747.3,-13682,-61888,93780,62428
5749.3,-13724,-62160,93918,62560
5751.3,-13685,-62286,94003,62670
5753.3,-13668,-62186,93964,62665
5755.3,-13617,-62022,93921,62643
5757.3,-13534,-61961,93929,62666
5759.3,-13505,-62038,93914,62665
5761.3,-13495,-62081,93831,62571
5763.3,-13460,-61913,93749,62441
5765.3,-13542,-61712,93759,62408
5767.3,-13787,-61764,93843,62484
5769.3,-13957,-61939,93866,62514
5771.3,-13875,-61954,93773,62405
5773.3,-13630,-61851,93667,62282
5775.3,-13395,-61790,93623,62266
5777.3,-13334,-61873,93625,62317
5779.3,-13522,-62231,93698,62402
5781.3,-13767,-62652,93835,62516
5783.3,-13859,-62573,93862,62539
5785.3,-13895,-62034,93695,62385
5787.3,-13969,-61768,93550,62240
5789.3,-13940,-62014,93606,62301
5791.3,-13847,-62339,93745,62467
5793.3,-13877,-62505,93811,62546
5795.3,-13919,-62441,93813,62518
5797.3,-13854,-61974,93775,62440
5799.3,-13890,-61387,93686,62329
5801.3,-13992,-61310,93614,62234
5803.3,-13882,-61742,93635,62239
5805.3,-13813,-62133,93710,62342
5807.3,-14102,-62258,93758,62446
5809.3,-14227,-62197,93749,62456
5811.3,-13778,-62014,93702,62375
5813.3,-13398,-61905,93667,62294
5815.3,-13528,-61999,93670,62275
5817.3,-13632,-62076,93667,62277
5819.3,-13499,-62022,93644,62281
5821.3,-13638,-62022,93712,62368
5823.3,-13979,-61956,93918,62556
5825.3,-13940,-61567,94097,62710
5827.3,-13647,-61215,94095,62730
5829.3,-13618,-61301,93991,62663
5831.3,-13774,-61381,93958,62608
5833.3,-13868,-61089,94034,62622
5835.3,-13986,-61032,94142,62694
5837.3,-14023,-61553,94191,62734
5839.3,-13794,-61872,94150,62685
5841.3,-13685,-61505,94106,62650
5843.3,-13961,-61071,94157,62739
5845.3,-14050,-61015,94251,62873
5847.3,-13673,-61037,94284,62929
5849.3,-13499,-61007,94279,62939
5851.3,-13773,-61053,94294,62973
5853.3,-13870,-61007,94264,62969
5855.3,-13699,-60828,94111,62847
5857.3,-13792,-60834,93930,62690
5859.3,-14032,-60972,93897,62678
5861.3,-13931,-60927,94043,62854
5863.3,-13657,-60916,94198,63031
5865.3,-13552,-61216,94204,63040
5867.3,-13520,-61437,94143,62972
5869.3,-13532,-61245,94181,62993
5871.3,-13702,-60976,94252,63020
5873.3,-13806,-60936,94178,62906
5875.3,-13639,-61026,94043,62781
5877.3,-13417,-61169,94049,62826
5879.3,-13302,-61349,94125,62917
5881.3,-13221,-61465,94052,62851
5883.3,-13277,-61533,93842,62668
5885.3,-13541,-61619,93653,62509
5887.3,-13738,-61682,93546,62415
5889.3,-13737,-61826,93513,62387
5891.3,-13781,-62195,93521,62388
5893.3,-13942,-62539,93465,62294
5895.3,-14046,-62520,93312,62101
5897.3,-14138,-62274,93205,61996
5899.3,-14337,-62133,93260,62073
5901.3,-14469,-62221,93407,62217
5903.3,-14363,-62495,93532,62321
5905.3,-14182,-62682,93568,62356
5907.3,-14158,-62456,93498,62293
5909.3,-14279,-62063,93408,62191
5911.3,-14401,-62057,93395,62170
5913.3,-14442,-62302,93398,62191
5915.3,-14407,-62221,93328,62132
5917.3,-14306,-61886,93269,62060
5919.3,-14164,-61814,93305,62090
5921.3,-14077,-62034,93358,62146
5923.3,-14135,-62220,93398,62161
5925.3,-14290,-62286,93513,62239
5927.3,-14403,-62306,93666,62395
5929.3,-14395,-62287,93722,62488
5931.3,-14298,-62273,93695,62470
5933.3,-14204,-62292,93653,62409
5935.3,-14175,-62226,93567,62312
5937.3,-14203,-62039,93455,62190
5939.3,-14276,-61999,93414,62114
5941.3,-14343,-62314,93447,62066
5943.3,-14264,-62732,93540,61989
5945.3,-14069,-62893,93814,61956
5947.3,-14065,-62803,94366,62097
5949.3,-14294,-62540,95130,62440
5951.3,-14259,-61915,95990,62951
5953.3,-13681,-60968,96879,63625
5955.3,-12934,-60178,97863,64535
5957.3,-12293,-59675,99120,65795
5959.3,-11468,-58882,100528,67331
5961.3,-10322,-57385,101509,68821
5963.3,-9307,-55572,101790,70089
5965.3,-8809,-54113,101777,71251
5967.3,-8617,-53159,101656,72265
5969.3,-8400,-52291,100954,72802
5971.3,-8236,-51323,99520,72761
5973.3,-8390,-50739,97918,72399
5975.3,-8976,-50913,96489,71822
5977.3,-10015,-51505,95006,70868
5979.3,-11376,-52237,93391,69476
5981.3,-12596,-53392,91863,67776
5983.3,-13302,-55023,90536,65916
5985.3,-13673,-56727,89533,64110
5987.3,-13967,-58320,89149,62679
5989.3,-14061,-59722,89420,61829
5991.3,-13937,-60562,90006,61504
5993.3,-13943,-60772,90673,61521
5995.3,-14179,-60877,91394,61690
5997.3,-14331,-61182,92031,61850
5999.3,-14306,-61506,92450,61944
6001.3,-14344,-61752,92783,62044
6003.3,-14491,-61925,93149,62193
6005.3,-14533,-61891,93382,62285
6007.3,-14417,-61706,93333,62210
6009.3,-14303,-61670,93149,62018
6011.3,-14265,-61809,93070,61875
6013.3,-14249,-61935,93175,61909
6015.3,-14349,-62152,93400,62102
6017.3,-14712,-62607,93595,62287
6019.3,-15055,-62939,93635,62326
6021.3,-14914,-62733,93574,62263
6023.3,-14514,-62320,93556,62225
6025.3,-14496,-62336,93615,62251
6027.3,-14739,-62689,93672,62292
6029.3,-14658,-62748,93656,62281
6031.3,-14459,-62410,93564,62194
6033.3,-14659,-62211,93507,62124
6035.3,-14893,-62364,93564,62155
6037.3,-14673,-62401,93580,62158
6039.3,-14454,-61996,93433,62017
6041.3,-14639,-61633,93384,61957
6043.3,-14709,-61921,93644,62171
6045.3,-14395,-62556,93886,62381
6047.3,-14301,-62750,93795,62289
6049.3,-14662,-62468,93612,62093
6051.3,-14936,-62300,93599,62050
6053.3,-14987,-62380,93636,62079
6055.3,-15195,-62423,93678,62123
6057.3,-15384,-62414,93839,62254
6059.3,-15089,-62424,93944,62319
6061.3,-14630,-62354,93789,62153
6063.3,-14567,-62271,93625,61988
6065.3,-14665,-62290,93703,62053
6067.3,-14576,-62232,93827,62172
6069.3,-14648,-62131,93836,62197
6071.3,-15037,-62332,93871,62251
6073.3,-15139,-62586,93931,62319
6075.3,-14734,-62322,93857,62252
6077.3,-14453,-61946,93775,62185
6079.3,-14605,-62173,93878,62302
6081.3,-14759,-62505,94012,62424
6083.3,-14715,-62245,94019,62407
6085.3,-14753,-61956,94055,62454
6087.3,-14932,-62147,94162,62609
6089.3,-15064,-62202,94145,62612
6091.3,-15157,-61904,94064,62497
6093.3,-15203,-61894,94141,62535
6095.3,-15002,-62070,94227,62624
6097.3,-14619,-61866,94130,62568
6099.3,-14453,-61735,94085,62577
6101.3,-14578,-62102,94226,62738
6103.3,-14650,-62211,94256,62722
6105.3,-14536,-61773,94145,62544
6107.3,-14449,-61693,94246,62623
6109.3,-14476,-62110,94497,62874
6111.3,-14493,-62138,94521,62866
6113.3,-14506,-61755,94419,62721
6115.3,-14642,-61683,94516,62797
6117.3,-14816,-61881,94692,62934
6119.3,-14777,-61871,94719,62879
6121.3,-14553,-61704,94714,62801
6123.3,-14471,-61579,94808,62860
6125.3,-14574,-61448,94940,62959
6127.3,-14495,-61326,95092,63070
6129.3,-14192,-61277,95263,63211
6131.3,-14129,-61274,95358,63285
6133.3,-14380,-61343,95401,63308
6135.3,-14435,-61440,95510,63401
6137.3,-14211,-61345,95605,63473
6139.3,-14196,-61123,95603,63430
6141.3,-14420,-61167,95703,63481
6143.3,-14478,-61433,95999,63744
6145.3,-14439,-61353,96169,63897
6147.3,-14560,-60766,96011,63740
6149.3,-14586,-60245,95873,63612
6151.3,-14341,-60293,96083,63811
6153.3,-14205,-60723,96415,64101
6155.3,-14294,-60991,96508,64152
6157.3,-14160,-60850,96429,64058
6159.3,-13764,-60582,96469,64106
6161.3,-13664,-60511,96661,64317
6163.3,-13977,-60459,96784,64461
6165.3,-14148,-60115,96743,64439
6167.3,-13902,-59745,96711,64433
6169.3,-13644,-59802,96840,64605
6171.3,-13711,-60033,97020,64814
6173.3,-13859,-59913,97070,64839
6175.3,-13753,-59629,97002,64713
6177.3,-13502,-59678,96954,64628
6179.3,-13378,-59933,96989,64665
6181.3,-13371,-59969,97080,64780
6183.3,-13349,-59795,97152,64876
6185.3,-13378,-59664,97121,64864
6187.3,-13513,-59628,96996,64762
6189.3,-13582,-59597,96880,64680
6191.3,-13465,-59584,96849,64670
6193.3,-13337,-59706,96895,64710
6195.3,-13371,-59920,96947,64759
6197.3,-13453,-59913,96907,64753
6199.3,-13450,-59603,96772,64668
6201.3,-13483,-59486,96685,64617
6203.3,-13700,-59852,96717,64679
6205.3,-14007,-60174,96715,64709
6207.3,-14183,-60033,96537,64554
6209.3,-14116,-59893,96316,64347
6211.3,-13933,-60170,96261,64313
6213.3,-13901,-60460,96309,64393
6215.3,-14020,-60389,96215,64340
6217.3,-14004,-60238,95958,64110
6219.3,-13899,-60267,95750,63898
6221.3,-14068,-60324,95646,63790
6223.3,-14315,-60342,95495,63667
6225.3,-14129,-60438,95287,63504
6227.3,-13833,-60557,95189,63432
6229.3,-14085,-60556,95207,63469
6231.3,-14556,-60519,95191,63492
6233.3,-14595,-60631,95123,63473
6235.3,-14499,-60946,95093,63472
6237.3,-14746,-61400,95065,63456
6239.3,-14990,-61802,94964,63378
6241.3,-14823,-61848,94835,63277
6243.3,-14488,-61508,94716,63178
6245.3,-14342,-61268,94604,63087
6247.3,-14443,-61487,94585,63085
6249.3,-14663,-61738,94675,63163
6251.3,-14795,-61510,94664,63120
6253.3,-14789,-61195,94489,62932
6255.3,-14852,-61348,94428,62887
6257.3,-14998,-61574,94571,63058
6259.3,-14987,-61376,94611,63132
6261.3,-14834,-61246,94444,62995
6263.3,-14743,-61554,94342,62896
6265.3,-14643,-61626,94381,62911
6267.3,-14457,-61180,94377,62898
6269.3,-14462,-61062,94369,62906
6271.3,-14789,-61559,94477,63024
6273.3,-15081,-61853,94531,63072
6275.3,-15054,-61663,94418,62956
6277.3,-14883,-61479,94341,62885
6279.3,-14780,-61311,94376,62913
6281.3,-14708,-61003,94366,62885
6283.3,-14692,-61024,94361,62875
6285.3,-14876,-61482,94499,63025
6287.3,-15138,-61658,94617,63152
6289.3,-15158,-61400,94564,63099
6291.3,-15005,-61389,94529,63069
6293.3,-15086,-61747,94643,63195
6295.3,-15405,-61995,94760,63327
6297.3,-15489,-62102,94812,63391
6299.3,-15185,-62173,94845,63419
6301.3,-14910,-61864,94764,63320
6303.3,-14922,-61190,94541,63097
6305.3,-14970,-60886,94432,62999
6307.3,-14864,-61257,94566,63115
6309.3,-14775,-61705,94695,63210
6311.3,-14718,-61759,94626,63150
6313.3,-14465,-61595,94503,63063
6315.3,-14225,-61377,94465,63027
6317.3,-14535,-61042,94485,63030
6319.3,-15233,-60820,94606,63167
6321.3,-15551,-61062,94858,63457
6323.3,-15334,-61487,95004,63629
6325.3,-15119,-61505,94864,63504
6327.3,-15064,-61230,94656,63297
6329.3,-14899,-61230,94592,63196
6331.3,-14723,-61441,94530,63090
6333.3,-14887,-61362,94415,62973
6335.3,-15261,-61081,94451,63035
6337.3,-15364,-61046,94580,63182
6339.3,-15112,-61189,94493,63109
6341.3,-14895,-61195,94255,62887
6343.3,-14920,-61190,94230,62857
6345.3,-14958,-61385,94432,63053
6347.3,-14909,-61603,94585,63233
6349.3,-15029,-61681,94607,63288
6351.3,-15284,-61707,94546,63222
6353.3,-15217,-61613,94375,63034
6355.3,-14845,-61323,94194,62861
6357.3,-14784,-61217,94243,62928
6359.3,-15112,-61542,94490,63195
6361.3,-15178,-61774,94611,63347
6363.3,-14860,-61528,94475,63220
6365.3,-14801,-61290,94286,62990
6367.3,-15194,-61443,94232,62896
6369.3,-15498,-61612,94291,62967
6371.3,-15465,-61550,94358,63057
6373.3,-15384,-61534,94380,63068
6375.3,-15375,-61689,94395,63058
6377.3,-15303,-61839,94435,63100
6379.3,-15192,-61843,94415,63099
6381.3,-15103,-61620,94271,62968
6383.3,-14987,-61277,94160,62863
6385.3,-14927,-61206,94231,62936
6387.3,-15022,-61483,94321,63024
6389.3,-15051,-61640,94231,62934
6391.3,-14849,-61472,94068,62773
6393.3,-14753,-61385,94020,62727
6395.3,-15067,-61643,94108,62824
6397.3,-15475,-61944,94278,63007
6399.3,-15533,-61921,94407,63145
6401.3,-15343,-61665,94324,63062
6403.3,-15286,-61603,94123,62862
6405.3,-15387,-61838,94111,62855
6407.3,-15386,-61896,94251,62998
6409.3,-15259,-61504,94224,62969
6411.3,-15217,-61193,94094,62827
6413.3,-15280,-61458,94182,62895
6415.3,-15298,-61871,94354,63053
6417.3,-15312,-61831,94272,62975
6419.3,-15457,-61577,94112,62832
6421.3,-15619,-61651,94245,62984
6423.3,-15600,-61886,94498,63254
6425.3,-15454,-61737,94467,63236
6427.3,-15342,-61276,94234,62998
6429.3,-15260,-61112,94144,62896
6431.3,-15137,-61406,94249,63005
6433.3,-15004,-61613,94368,63146
6435.3,-14923,-61346,94412,63192
6437.3,-14898,-60939,94401,63157
6439.3,-14957,-60892,94436,63171
6441.3,-15171,-61142,94621,63349
6443.3,-15469,-61251,94840,63550
6445.3,-15613,-61067,94835,63516
6447.3,-15536,-60883,94653,63332
6449.3,-15440,-60895,94604,63311
6451.3,-15389,-60890,94704,63438
6453.3,-15219,-60713,94713,63450
6455.3,-15016,-60669,94680,63393
6457.3,-15079,-60954,94777,63460
6459.3,-15310,-61102,94797,63477
6461.3,-15362,-60671,94579,63284
6463.3,-15310,-60078,94505,63241
6465.3,-15399,-60008,94824,63580
6467.3,-15448,-60408,95064,63834
6469.3,-15310,-60679,94878,63663
6471.3,-15284,-60547,94669,63463
6473.3,-15403,-60298,94742,63532
6475.3,-15207,-60302,94777,63562
6477.3,-14731,-60535,94602,63400
6479.3,-14611,-60698,94511,63338
6481.3,-14932,-60752,94586,63422
6483.3,-15096,-60919,94604,63420
6485.3,-14894,-61129,94584,63383
6487.3,-14667,-61108,94651,63455
6489.3,-14590,-60966,94653,63466
6491.3,-14610,-61047,94506,63326
6493.33,-14751,-61321,94440,63272
6495.35,-14899,-61499,94506,63345
6497.38,-14792,-61482,94422,63258
6499.4,-14549,-61328,94144,62983
6501.4,-14613,-61162,93972,62809
6503.4,-15037,-61243,94024,62841
6505.4,-15430,-61664,94147,62942
6507.4,-15629,-62055,94246,63033
6509.4,-15751,-62070,94301,63081
6511.4,-15745,-61918,94253,63015
6513.4,-15570,-61905,94122,62855
6515.4,-15490,-61934,94033,62732
6517.4,-15624,-61910,94036,62729
6519.4,-15659,-61996,94079,62819
6521.4,-15433,-62102,94088,62896
6523.4,-15223,-61964,94011,62837
6525.4,-15259,-61743,93882,62659
6527.4,-15461,-61701,93831,62552
6529.4,-15672,-61673,93938,62654
6531.4,-15754,-61606,94108,62868
6533.4,-15669,-61750,94208,63000
6535.4,-15635,-61935,94227,62997
6537.4,-15824,-61818,94229,62961
6539.4,-15961,-61728,94217,62958
6541.4,-15774,-61999,94177,62948
6543.4,-15579,-62217,94167,62922
6545.4,-15687,-62132,94210,62929
6547.4,-15673,-62069,94202,62925
6549.4,-15171,-62040,94099,62832
6551.4,-14769,-61881,94019,62713
6553.4,-15041,-61909,94019,62650
6555.4,-15477,-62132,94054,62586
6557.4,-15457,-61974,94237,62520
6559.4,-15321,-61547,94786,62641
6561.4,-15473,-61512,95656,63053
6563.4,-15530,-61600,96565,63616
6565.4,-15129,-61149,97371,64198
6567.4,-14512,-60496,98214,64917
6569.4,-13904,-60070,99301,65977
6571.4,-13149,-59233,100557,67342
6573.4,-12104,-57497,101513,68705
6575.4,-10877,-55595,101862,69900
6577.4,-9789,-54286,101911,71085
6579.4,-9203,-53294,101903,72249
6581.4,-9150,-52209,101390,72958
6583.4,-9246,-51343,100046,72989
6585.4,-9264,-51018,98407,72674
6587.4,-9510,-50995,97007,72237
6589.4,-10396,-51224,95659,71436
6591.4,-11873,-52133,94169,70158
6593.4,-13428,-53590,92763,68631
6595.4,-14546,-54852,91511,66946
6597.4,-15150,-55930,90361,65095
6599.4,-15486,-57424,89693,63454
6601.4,-15592,-58966,89871,62497
6603.4,-15336,-59698,90551,62168
6605.4,-15029,-59956,91212,62100
6607.4,-15211,-60555,91845,62163
6609.4,-15689,-61166,92541,62343
6611.4,-15786,-61225,93066,62472
6613.4,-15562,-61279,93323,62490
6615.4,-15628,-61764,93573,62580
6617.4,-15898,-61916,93880,62761
6619.4,-15855,-61380,94016,62818
6621.4,-15657,-61170,93996,62756
6623.4,-15710,-61723,94051,62774
6625.4,-15805,-62031,94131,62817
6627.4,-15718,-61769,94098,62748
6629.4,-15721,-61904,94090,62719
6631.4,-15886,-62481,94184,62805
6633.4,-15925,-62463,94182,62774
6635.4,-15869,-61989,94080,62610
6637.4,-15916,-62061,94096,62601
6639.4,-15940,-62428,94190,62747
6641.4,-15856,-62262,94184,62791
6643.4,-15840,-61856,94145,62738
6645.4,-15853,-61743,94144,62717
6647.4,-15727,-61622,94076,62666
6649.4,-15635,-61379,93987,62593
6651.4,-15743,-61529,94074,62669
6653.4,-15823,-62063,94297,62866
6655.4,-15773,-62295,94437,62964
6657.4,-15842,-62012,94445,62925
6659.4,-16020,-61705,94426,62898
6661.4,-15973,-61683,94415,62905
6663.4,-15734,-61737,94365,62824
6665.4,-15709,-61694,94286,62670
6667.4,-15920,-61690,94266,62607
6669.4,-15957,-61749,94279,62618
6671.4,-15698,-61684,94193,62528
6673.4,-15472,-61597,94094,62430
6675.4,-15468,-61787,94234,62586
6677.4,-15512,-62109,94537,62880
6679.4,-15501,-62128,94645,62947
6681.4,-15623,-61819,94497,62772
6683.4,-15944,-61559,94361,62627
6685.4,-16143,-61582,94384,62631
6687.4,-15991,-61774,94494,62734
6689.4,-15762,-61876,94579,62847
6691.4,-15711,-61802,94583,62877
6693.4,-15583,-61702,94552,62849
6695.4,-15220,-61640,94569,62891
6697.4,-15105,-61519,94619,63006
6699.4,-15544,-61419,94655,63101
6701.4,-15983,-61517,94679,63157
6703.4,-15913,-61690,94669,63167
6705.4,-15677,-61689,94626,63124
6707.4,-15681,-61556,94650,63118
6709.4,-15718,-61531,94745,63181
6711.4,-15659,-61670,94788,63205
6713.4,-15773,-61703,94805,63196
6715.4,-15951,-61376,94904,63270
6717.4,-15731,-61007,94985,63352
6719.4,-15283,-61201,94951,63316
6721.4,-15209,-61764,94958,63278
6723.4,-15436,-61839,95080,63345
6725.4,-15483,-61389,95138,63379
6727.4,-15461,-61258,95105,63325
6729.4,-15657,-61534,95177,63343
6731.4,-15734,-61426,95337,63445
6733.4,-15412,-60897,95385,63461
6735.4,-15163,-60774,95373,63415
6737.4,-15388,-61188,95502,63494
6739.4,-15758,-61394,95715,63684
6741.4,-15841,-61126,95812,63795
6743.4,-15625,-60838,95780,63760
6745.4,-15295,-60737,95732,63670
6747.4,-15096,-60656,95749,63652
6749.4,-15192,-60644,95897,63805
6751.4,-15362,-60805,96171,64085
6753.4,-15312,-60908,96421,64306
6755.4,-15213,-60778,96544,64373
6757.4,-15250,-60535,96573,64368
6759.4,-15122,-60187,96525,64346
6761.4,-14674,-59766,96434,64326
6763.4,-14363,-59719,96492,64430
6765.4,-14521,-60246,96770,64684
6767.4,-14878,-60703,97002,64860
6769.4,-15086,-60543,97005,64843
6771.4,-15070,-60097,96990,64843
6773.4,-14891,-59846,97122,64985
6775.4,-14717,-59753,97223,65087
6777.4,-14664,-59632,97175,65048
6779.4,-14534,-59472,97152,65043
6781.4,-14219,-59380,97256,65155
6783.4,-14051,-59426,97346,65233
6785.4,-14125,-59439,97316,65177
6787.4,-14012,-59218,97258,65101
6789.4,-13727,-58989,97283,65131
6791.4,-13842,-58999,97359,65229
6793.4,-14271,-58986,97373,65255
6795.4,-14309,-58830,97322,65207
6797.4,-13973,-58973,97337,65226
6799.4,-13881,-59448,97455,65336
6801.4,-14098,-59641,97538,65408
6803.4,-14302,-59444,97525,65421
6805.4,-14419,-59308,97482,65446
6807.4,-14335,-59198,97381,65399
6809.4,-13922,-58838,97170,65201
6811.4,-13598,-58589,97012,65061
6813.4,-13840,-58915,97082,65173
6815.4,-14325,-59491,97240,65360
6817.4,-14481,-59703,97223,65354
6819.4,-14400,-59496,97022,65182
6821.4,-14477,-59227,96823,65024
6823.4,-14690,-59144,96732,64946
6825.4,-14747,-59322,96702,64917
6827.4,-14616,-59707,96659,64898
6829.4,-14602,-60016,96588,64872
6831.4,-14827,-59996,96497,64826
6833.4,-14856,-59870,96341,64709
6835.4,-14346,-59987,96076,64469
6837.4,-13860,-60133,95799,64195
6839.4,-14192,-60000,95693,64092
6841.4,-15071,-59969,95812,64216
6843.4,-15568,-60384,95983,64372
6845.4,-15476,-60710,95983,64347
6847.4,-15324,-60507,95788,64148
6849.4,-15390,-60314,95592,63958
6851.4,-15454,-60571,95520,63883
6853.4,-15269,-60858,95449,63822
6855.4,-14908,-60847,95274,63687
6857.4,-14756,-60806,95139,63590
6859.4,-15021,-60849,95151,63608
6861.4,-15359,-60788,95142,63587
6863.4,-15530,-60639,95037,63468
6865.4,-15821,-60570,95019,63437
6867.4,-16029,-60670,95058,63465
6869.4,-15310,-60985,94859,63265
6871.4,-14104,-61349,94550,62969
6873.4,-14193,-61396,94636,63075
6875.4,-15659,-61116,95057,63518
6877.4,-16362,-60915,95200,63677
6879.4,-15468,-60955,94946,63430
6881.4,-14631,-61020,94776,63252
6883.4,-14917,-61010,94853,63304
6885.4,-15482,-61018,94927,63354
6887.4,-15679,-61086,94982,63412
6889.4,-15896,-61156,95148,63603
6891.4,-16180,-61131,95247,63720
6893.4,-16052,-60962,95094,63572
6895.4,-15554,-60813,94893,63383
6897.4,-15234,-60908,94871,63393
6899.4,-15326,-61125,94944,63495
6901.4,-15642,-61141,94981,63531
6903.4,-15917,-60953,95018,63540
6905.4,-15959,-60791,95073,63562
6907.4,-15751,-60683,95096,63559
6909.4,-15558,-60561,95104,63537
6911.4,-15610,-60533,95132,63531
6913.4,-15651,-60645,95125,63499
6915.4,-15315,-60704,95050,63416
6917.4,-14934,-60644,95012,63373
6919.4,-15116,-60667,95101,63460
6921.4,-15602,-60883,95216,63583
6923.4,-15619,-61142,95189,63572
6925.4,-15188,-61266,95042,63433
6927.4,-14963,-61209,94965,63364
6929.4,-15137,-61042,95029,63447
6931.4,-15453,-60872,95088,63532
6933.4,-15753,-60718,95053,63512
6935.4,-15910,-60589,95043,63497
6937.4,-15796,-60577,95112,63546
6939.4,-15532,-60627,95084,63503
6941.4,-15274,-60550,94899,63324
6943.4,-15008,-60522,94813,63253
6945.4,-14912,-60848,94970,63410
6947.4,-15256,-61173,95132,63568
6949.4,-15680,-60989,95102,63546
6951.4,-15522,-60700,94996,63450
6953.4,-15030,-60874,94923,63381
6955.4,-15083,-61171,94860,63321
6957.4,-15637,-61193,94864,63315
6959.4,-15840,-61166,94960,63387
6961.4,-15609,-61054,94974,63402
6963.4,-15512,-60653,94832,63301
6965.4,-15464,-60535,94759,63244
6967.4,-15156,-61077,94873,63319
6969.4,-15077,-61470,94991,63407
6971.4,-15544,-61213,94992,63426
6973.4,-15874,-60944,94964,63407
6975.4,-15726,-60924,94938,63348
6977.4,-15755,-60770,94850,63247
6979.4,-16085,-60743,94738,63181
6981.4,-15986,-61200,94691,63185
6983.38,-15477,-61450,94689,63196
6985.35,-15379,-60965,94700,63208
6987.33,-15666,-60536,94772,63288
6989.3,-15534,-60827,94870,63385
6991.3,-14997,-61240,94844,63350
6993.3,-14901,-61164,94698,63202
6995.3,-15444,-60933,94620,63130
6997.3,-15878,-60930,94650,63165
6999.3,-15747,-61003,94626,63153
7001.3,-15453,-61052,94531,63069
7003.3,-15345,-61119,94502,63030
7005.3,-15226,-61035,94540,63040
7007.3,-15130,-60826,94553,63040
7009.3,-15482,-60883,94561,63072
7011.3,-16066,-61173,94580,63129
7013.3,-16109,-61225,94536,63102
7015.3,-15643,-61038,94464,63016
7017.3,-15396,-60917,94493,63024
7019.3,-15455,-60794,94574,63098
7021.3,-15431,-60642,94563,63080
7023.3,-15441,-60750,94489,62984
7025.3,-15664,-61039,94460,62935
7027.3,-15687,-61088,94439,62921
7029.3,-15255,-60923,94356,62859
7031.3,-14851,-60892,94293,62808
7033.3,-14966,-61055,94371,62886
7035.3,-15485,-61271,94556,63073
7037.3,-16022,-61464,94728,63243
7039.3,-16321,-61589,94850,63339
7041.3,-16321,-61620,94922,63378
7043.3,-16098,-61489,94861,63311
7045.3,-15779,-61168,94630,63096
7047.3,-15508,-60926,94397,62861
7049.3,-15465,-61008,94341,62784
7051.3,-15674,-61142,94417,62858
7053.3,-15826,-60999,94498,62961
7055.3,-15671,-60796,94548,63026
7057.3,-15451,-60793,94556,63026
7059.3,-15473,-60821,94502,62955
7061.3,-15534,-60784,94439,62876
7063.3,-15391,-60882,94440,62853
7065.3,-15320,-61053,94527,62904
7067.3,-15509,-60937,94707,63042
7069.3,-15563,-60577,94897,63211
7071.3,-15355,-60442,94937,63261
7073.3,-15446,-60600,94889,63238
7075.3,-15949,-60607,95026,63398
7077.3,-16137,-60361,95296,63677
7079.3,-15737,-60266,95289,63650
7081.3,-15355,-60463,94984,63308
7083.3,-15404,-60703,94888,63197
7085.3,-15683,-60846,95140,63463
7087.3,-15907,-60757,95224,63563
7089.3,-15874,-60284,94932,63283
7091.3,-15536,-59816,94757,63131
7093.3,-15221,-59935,94954,63348
7095.3,-15205,-60384,95102,63493
7097.3,-15274,-60528,94999,63382
7099.3,-15239,-60440,95003,63398
7101.3,-15272,-60414,95212,63630
7103.3,-15404,-60234,95262,63691
7105.3,-15446,-59851,95101,63527
7107.3,-15417,-59727,95028,63461
7109.3,-15364,-59957,95041,63498
7111.3,-15172,-60145,94945,63433
7113.3,-14963,-60202,94846,63349
7115.3,-14988,-60309,94875,63356
7117.3,-15042,-60411,94846,63285
7119.3,-14829,-60455,94685,63102
7121.3,-14588,-60549,94624,63057
7123.3,-14622,-60596,94690,63148
7125.3,-14795,-60506,94664,63127
7127.3,-14986,-60584,94577,63054
7129.3,-15231,-60885,94590,63109
7131.3,-15335,-60940,94545,63097
7133.3,-15196,-60777,94319,62851
7135.3,-15183,-60986,94204,62684
7137.3,-15515,-61427,94358,62808
7139.3,-15822,-61440,94456,62914
7141.3,-15802,-61232,94340,62814
7143.3,-15613,-61363,94299,62767
7145.3,-15476,-61533,94413,62851
7147.3,-15453,-61352,94390,62804
7149.3,-15545,-61212,94222,62637
7151.3,-15683,-61345,94222,62652
7153.3,-15814,-61358,94370,62805
7155.3,-15971,-61203,94352,62782
7157.3,-16067,-61258,94191,62618
7159.3,-15919,-61459,94172,62608
7161.3,-15624,-61480,94270,62732
7163.3,-15503,-61399,94289,62773
7165.3,-15632,-61381,94289,62746
7167.3,-15806,-61309,94351,62760
7169.3,-15882,-61200,94322,62742
7171.3,-15819,-61271,94171,62649
7173.3,-15615,-61411,94120,62596
7175.3,-15429,-61365,94214,62629
7177.3,-15481,-61299,94283,62692
7179.3,-15729,-61385,94297,62749
7181.3,-15897,-61359,94316,62740
7183.3,-15833,-61249,94316,62622
7185.3,-15586,-61543,94353,62514
7187.3,-15366,-62039,94587,62523
7189.3,-15509,-62002,95088,62630
7191.3,-16013,-61625,95874,62938
7193.3,-16172,-61478,96867,63542
7195.3,-15431,-61035,97732,64176
7197.3,-14316,-59793,98334,64677
7199.3,-13613,-58621,99142,65494
7201.3,-13120,-58134,100443,66936
7203.3,-12233,-57500,101624,68508
7205.3,-11059,-56156,102063,69733
7207.3,-10101,-54674,102044,70801
7209.3,-9580,-53394,101981,71856
7211.3,-9492,-52149,101566,72548
7213.3,-9596,-51164,100413,72650
7215.3,-9524,-50705,98792,72319
7217.3,-9485,-50540,97172,71690
7219.3,-10179,-50617,95687,70795
7221.3,-11669,-51319,94302,69705
7223.3,-13242,-52666,92977,68376
7225.3,-14396,-54209,91655,66689
7227.3,-15116,-55703,90466,64809
7229.3,-15512,-57161,89799,63175
7231.3,-15760,-58496,89845,62084
7233.3,-15932,-59568,90340,61554
7235.3,-15831,-60318,90966,61474
7237.3,-15506,-60698,91647,61655
7239.3,-15397,-60789,92331,61869
7241.3,-15528,-60837,92863,61981
7243.3,-15444,-60879,93189,62010
7245.3,-15244,-60789,93465,62076
7247.3,-15499,-60784,93840,62313
7249.3,-16081,-61160,94237,62666
7251.3,-16299,-61612,94426,62858
7253.3,-16130,-61701,94343,62739
7255.3,-16111,-61578,94208,62525
7257.3,-16272,-61503,94205,62452
7259.3,-16192,-61403,94252,62467
7261.3,-15823,-61346,94226,62436
7263.3,-15499,-61476,94179,62381
7265.3,-15433,-61534,94193,62364
7267.3,-15571,-61367,94236,62381
7269.3,-15643,-61284,94243,62410
7271.3,-15488,-61295,94213,62431
7273.3,-15471,-61129,94240,62471
7275.3,-15883,-61133,94388,62587
7277.3,-16091,-61700,94516,62684
7279.3,-15553,-62208,94445,62602
7281.3,-15116,-62002,94337,62481
7283.3,-15602,-61613,94478,62598
7285.3,-16116,-61679,94713,62808
7287.3,-15666,-61792,94657,62724
7289.3,-15020,-61471,94369,62403
7291.3,-15144,-61112,94218,62240
7293.3,-15584,-61195,94286,62314
7295.3,-15723,-61462,94394,62410
7297.3,-15777,-61434,94459,62445
7299.3,-15861,-61162,94479,62454
7301.3,-15809,-61092,94442,62430
7303.3,-15815,-61324,94431,62403
7305.3,-15927,-61442,94493,62413
7307.3,-15714,-61227,94492,62376
7309.3,-15292,-61034,94380,62263
7311.3,-15339,-61091,94371,62246
7313.3,-15756,-61163,94558,62406
7315.3,-15858,-61243,94732,62564
7317.3,-15681,-61573,94745,62567
7319.3,-15654,-61845,94684,62477
7321.3,-15620,-61605,94635,62398
7323.3,-15385,-61241,94589,62361
7325.3,-15312,-61276,94556,62374
7327.3,-15557,-61330,94550,62431
7329.3,-15709,-61010,94590,62546
7331.3,-15572,-60757,94704,62714
7333.3,-15359,-60824,94800,62806
7335.3,-15168,-60776,94737,62715
7337.3,-15048,-60570,94619,62599
7339.3,-15216,-60680,94681,62678
7341.3,-15578,-61019,94878,62865
