t,lead_I,lead_II,v3,v4
1.6,-121303,-94733,-102197,-93584
3.6,-121136,-94477,-102382,-93718
5.6,-120889,-94396,-102355,-93727
7.6,-120636,-94424,-102328,-93732
9.6,-120400,-94575,-102352,-93684
11.6,-120047,-94767,-102266,-93513
13.6,-119851,-94904,-102224,-93484
15.6,-120114,-95038,-102431,-93732
17.6,-120641,-95245,-102709,-93980
19.6,-121172,-95464,-102874,-94074
21.6,-121577,-95524,-102995,-94140
23.6,-121615,-95323,-103051,-94167
25.6,-121249,-94951,-102931,-94045
27.6,-120748,-94582,-102706,-93831
29.6,-120250,-94375,-102511,-93635
31.6,-119874,-94483,-102394,-93522
33.6,-119877,-94828,-102426,-93572
35.6,-120090,-94999,-102613,-93747
37.6,-120131,-94814,-102783,-93893
39.6,-120291,-94681,-102841,-93980
41.6,-120964,-94940,-102913,-94091
43.6,-121568,-95311,-103036,-94212
45.6,-121338,-95368,-103076,-94284
47.6,-120551,-95129,-102976,-94273
49.6,-119967,-94928,-102814,-94129
51.6,-119832,-94983,-102680,-93898
53.6,-119984,-95214,-102675,-93805
55.6,-120290,-95456,-102843,-93950
57.6,-120736,-95690,-103044,-94124
59.6,-121304,-95885,-103125,-94148
61.6,-121764,-95899,-103129,-94114
63.6,-121783,-95753,-103159,-94143
65.6,-121392,-95662,-103208,-94216
67.6,-120915,-95686,-103255,-94318
69.6,-120483,-95777,-103321,-94499
71.6,-120150,-95984,-103357,-94754
73.6,-120164,-96234,-103296,-95018
75.6,-120579,-96331,-103203,-95225
77.6,-121015,-96309,-103133,-95264
79.6,-121167,-96228,-102932,-95000
81.6,-121096,-95860,-102432,-94435
83.6,-120873,-95127,-101721,-93691
85.6,-120372,-94297,-100971,-92801
87.6,-119520,-93406,-100156,-91672
89.6,-118459,-92276,-99201,-90265
91.6,-117483,-91099,-98202,-88686
93.6,-116898,-90074,-97265,-87047
95.6,-116787,-88855,-96400,-85384
97.6,-116800,-87212,-95751,-83780
99.6,-116500,-85636,-95571,-82416
101.6,-116051,-84706,-95820,-81396
103.6,-115979,-84440,-96254,-80726
105.6,-116155,-84481,-96815,-80411
107.6,-115984,-84526,-97447,-80324
109.6,-115672,-84633,-97858,-80232
111.6,-115956,-85186,-98052,-80303
113.63,-116675,-86328,-98512,-81062
115.65,-117146,-87762,-99394,-82558
117.68,-117625,-89312,-100343,-84381
119.7,-118777,-91056,-101355,-86614
121.7,-120257,-92796,-102749,-89527
123.7,-121211,-94151,-104196,-92377
125.7,-121467,-95061,-104939,-93976
127.7,-121307,-95592,-104915,-94316
129.7,-120881,-95701,-104711,-94355
131.7,-120426,-95636,-104664,-94579
133.7,-120318,-95858,-104713,-94804
135.7,-120609,-96288,-104734,-94853
137.7,-121024,-96438,-104625,-94726
139.7,-121344,-96290,-104379,-94493
141.7,-121446,-96185,-104135,-94246
143.7,-121202,-96088,-103938,-93980
145.7,-120727,-95805,-103689,-93665
147.7,-120421,-95546,-103416,-93471
149.7,-120414,-95539,-103254,-93539
151.7,-120303,-95531,-103161,-93688
153.7,-119868,-95300,-103028,-93729
155.7,-119599,-95140,-102908,-93757
157.7,-119953,-95327,-102887,-93896
159.7,-120517,-95532,-102909,-94068
161.7,-120573,-95275,-102889,-94155
163.7,-120134,-94712,-102789,-94099
165.7,-119800,-94467,-102627,-93907
167.7,-119819,-94707,-102514,-93708
169.7,-119864,-94890,-102529,-93603
171.7,-119673,-94644,-102546,-93446
173.7,-119483,-94365,-102433,-93107
175.7,-119645,-94531,-102330,-92788
177.7,-120084,-94945,-102403,-92679
179.7,-120450,-95145,-102514,-92593
181.7,-120601,-95061,-102458,-92338
183.7,-120595,-94854,-102282,-92061
185.7,-120431,-94603,-102119,-91927
187.7,-120116,-94390,-101970,-91875
189.7,-119779,-94253,-101821,-91866
191.7,-119555,-94100,-101688,-91930
193.7,-119534,-93982,-101528,-91986
195.7,-119719,-94095,-101339,-92004
197.7,-119914,-94312,-101240,-92131
199.7,-119926,-94314,-101253,-92371
201.7,-119844,-94155,-101223,-92494
203.7,-119731,-94002,-101060,-92422
205.7,-119403,-93678,-100821,-92275
207.7,-118962,-93199,-100565,-92079
209.7,-118866,-93068,-100364,-91829
211.7,-119091,-93351,-100285,-91622
213.7,-119142,-93424,-100239,-91429
215.7,-119070,-93171,-100087,-91093
217.7,-119339,-93220,-99910,-90684
219.7,-119805,-93683,-99846,-90417
221.7,-119952,-93918,-99808,-90268
223.7,-119788,-93654,-99655,-90070
225.7,-119556,-93254,-99429,-89831
227.7,-119172,-92970,-99203,-89607
229.7,-118674,-92807,-98974,-89371
231.7,-118468,-92781,-98816,-89184
233.7,-118669,-92799,-98791,-89159
235.7,-118914,-92691,-98747,-89194
237.7,-119002,-92520,-98556,-89121
239.7,-119068,-92418,-98388,-89029
241.7,-119110,-92263,-98377,-89036
243.7,-118968,-91952,-98340,-89001
245.7,-118712,-91654,-98178,-88852
247.7,-118541,-91480,-98084,-88778
249.7,-118453,-91345,-98107,-88839
251.7,-118410,-91316,-98078,-88865
253.7,-118535,-91550,-98059,-88879
255.7,-118842,-91877,-98245,-89033
257.7,-119089,-91958,-98478,-89183
259.7,-119126,-91786,-98493,-89104
261.7,-119040,-91597,-98404,-88929
263.7,-118935,-91485,-98429,-88882
265.7,-118847,-91432,-98499,-88914
267.7,-118798,-91431,-98516,-88931
269.7,-118763,-91408,-98580,-89010
271.7,-118751,-91318,-98727,-89150
273.7,-118829,-91327,-98828,-89216
275.7,-118938,-91536,-98866,-89241
277.7,-118923,-91743,-98992,-89420
279.7,-118865,-91801,-99241,-89746
281.7,-119031,-91884,-99437,-89956
283.7,-119417,-92086,-99463,-89934
285.7,-119717,-92224,-99473,-89929
287.7,-119751,-92238,-99670,-90186
289.7,-119595,-92260,-99940,-90529
291.7,-119385,-92279,-100004,-90624
293.7,-119245,-92258,-99908,-90543
295.7,-119295,-92389,-99965,-90641
297.7,-119526,-92738,-100216,-90938
299.7,-119739,-92990,-100392,-91120
301.7,-119777,-92965,-100402,-91108
303.7,-119701,-92872,-100413,-91108
305.7,-119612,-92799,-100511,-91192
307.7,-119462,-92611,-100644,-91268
309.7,-119237,-92482,-100760,-91304
311.7,-119090,-92731,-100793,-91268
313.7,-119120,-93095,-100695,-91087
315.7,-119247,-93092,-100584,-90858
317.7,-119430,-92928,-100639,-90804
319.7,-119687,-93094,-100845,-90962
321.7,-119904,-93432,-101048,-91145
323.7,-119988,-93533,-101154,-91196
325.7,-120041,-93512,-101144,-91098
327.7,-120083,-93587,-101053,-90957
329.7,-119987,-93601,-101025,-90976
331.7,-119836,-93511,-101164,-91252
333.7,-119879,-93592,-101332,-91558
335.7,-120127,-93890,-101337,-91611
337.7,-120411,-94107,-101244,-91486
339.7,-120621,-94049,-101236,-91466
341.7,-120629,-93789,-101318,-91618
343.7,-120355,-93556,-101379,-91825
345.7,-119986,-93564,-101395,-92016
347.7,-119749,-93733,-101402,-92153
349.7,-119640,-93754,-101424,-92198
351.7,-119654,-93635,-101487,-92199
353.7,-119886,-93739,-101587,-92231
355.7,-120194,-94103,-101666,-92269
357.7,-120293,-94307,-101694,-92259
359.7,-120220,-94138,-101690,-92213
361.7,-120210,-93817,-101664,-92161
363.7,-120234,-93541,-101616,-92094
365.7,-120150,-93327,-101543,-91986
367.7,-120068,-93234,-101442,-91831
369.7,-120158,-93319,-101353,-91674
371.7,-120325,-93453,-101344,-91598
373.7,-120363,-93460,-101408,-91635
375.7,-120239,-93333,-101466,-91724
377.7,-120087,-93190,-101456,-91750
379.7,-120008,-93103,-101346,-91629
381.7,-119922,-92998,-101188,-91442
383.7,-119730,-92809,-101136,-91389
385.7,-119555,-92683,-101239,-91500
387.7,-119574,-92805,-101336,-91580
389.7,-119688,-93044,-101328,-91561
391.7,-119695,-93111,-101319,-91583
393.7,-119656,-93007,-101356,-91657
395.7,-119720,-92917,-101355,-91649
397.7,-119812,-92842,-101312,-91582
399.7,-119810,-92713,-101304,-91580
401.7,-119806,-92682,-101332,-91635
403.7,-119888,-92837,-101386,-91695
405.7,-119881,-92902,-101446,-91745
407.7,-119638,-92689,-101413,-91705
409.7,-119379,-92511,-101300,-91567
411.7,-119414,-92684,-101324,-91524
413.7,-119639,-92974,-101548,-91661
415.7,-119676,-93001,-101721,-91764
417.7,-119487,-92825,-101683,-91684
419.7,-119423,-92770,-101585,-91559
421.7,-119634,-92953,-101598,-91536
423.7,-119836,-93208,-101700,-91589
425.7,-119838,-93356,-101794,-91641
427.7,-119849,-93442,-101832,-91667
429.7,-120012,-93644,-101848,-91706
431.7,-120084,-93909,-101913,-91800
433.7,-119910,-93985,-102017,-91896
435.7,-119792,-93924,-102099,-91925
437.7,-120011,-94089,-102192,-91972
439.7,-120324,-94492,-102330,-92124
441.7,-120351,-94695,-102419,-92256
443.7,-120176,-94581,-102434,-92279
445.7,-120149,-94526,-102524,-92344
447.7,-120235,-94634,-102704,-92504
449.7,-120123,-94614,-102771,-92554
451.7,-119874,-94503,-102697,-92455
453.7,-119799,-94588,-102692,-92433
455.7,-119809,-94672,-102774,-92501
457.7,-119643,-94438,-102764,-92454
459.7,-119528,-94258,-102686,-92320
461.7,-119833,-94591,-102712,-92288
463.7,-120359,-95099,-102808,-92321
465.7,-120652,-95251,-102840,-92298
467.7,-120626,-95121,-102826,-92263
469.7,-120440,-94976,-102812,-92251
471.7,-120224,-94856,-102761,-92189
473.7,-120142,-94838,-102703,-92102
475.7,-120328,-94969,-102736,-92096
477.7,-120620,-94995,-102810,-92129
479.7,-120646,-94777,-102798,-92077
481.7,-120331,-94645,-102736,-91986
483.73,-120053,-94831,-102764,-91986
485.75,-120075,-94985,-102843,-92034
487.78,-120131,-94778,-102812,-91981
489.8,-119984,-94498,-102701,-91856
491.8,-119880,-94518,-102673,-91811
493.8,-120006,-94690,-102715,-91841
495.8,-120136,-94759,-102727,-91849
497.8,-120209,-94881,-102781,-91908
499.8,-120430,-95268,-102987,-92165
501.8,-120664,-95762,-103262,-92592
503.8,-120626,-96095,-103467,-93060
505.8,-120529,-96227,-103585,-93483
507.8,-120719,-96286,-103637,-93790
509.8,-120992,-96348,-103626,-93928
511.8,-121021,-96313,-103530,-93879
513.8,-120941,-96034,-103232,-93579
515.8,-120912,-95567,-102635,-92958
517.8,-120658,-95071,-101895,-92142
519.8,-120012,-94503,-101244,-91328
521.8,-119306,-93709,-100604,-90427
523.8,-118786,-92698,-99745,-89197
525.8,-118249,-91534,-98764,-87674
527.8,-117582,-90138,-97897,-86051
529.8,-116978,-88395,-97070,-84277
531.8,-116444,-86384,-96188,-82311
533.8,-115811,-84536,-95603,-80553
535.8,-115271,-83488,-95662,-79430
537.8,-115225,-83444,-96156,-78863
539.8,-115642,-83848,-96720,-78585
541.8,-116143,-84116,-97243,-78501
543.8,-116534,-84390,-97644,-78493
545.8,-116897,-85086,-97931,-78592
547.8,-117314,-86167,-98441,-79255
549.8,-117745,-87386,-99300,-80671
551.8,-118145,-88761,-100127,-82372
553.8,-118655,-90359,-100887,-84269
555.8,-119457,-92053,-102094,-86903
557.8,-120355,-93670,-103665,-89964
559.8,-120897,-94968,-104728,-92095
561.8,-121010,-95617,-104910,-92752
563.8,-120968,-95667,-104722,-92779
565.8,-120865,-95660,-104619,-92928
567.8,-120669,-95840,-104580,-93122
569.8,-120526,-95848,-104481,-93140
571.8,-120533,-95552,-104265,-92980
573.8,-120566,-95393,-103929,-92661
575.8,-120550,-95542,-103559,-92240
577.8,-120524,-95574,-103251,-91844
579.8,-120448,-95282,-103045,-91579
581.8,-120312,-94996,-102986,-91503
583.8,-120242,-94946,-103026,-91558
585.8,-120309,-95032,-102990,-91572
587.8,-120442,-95189,-102850,-91523
589.8,-120574,-95387,-102789,-91585
591.8,-120668,-95437,-102834,-91769
593.8,-120643,-95245,-102786,-91854
595.8,-120457,-94969,-102577,-91760
597.8,-120256,-94778,-102365,-91656
599.8,-120272,-94736,-102272,-91667
601.8,-120440,-94784,-102266,-91751
603.8,-120380,-94709,-102262,-91805
605.8,-120017,-94457,-102222,-91754
607.8,-119800,-94337,-102152,-91587
609.8,-119956,-94495,-102090,-91371
611.8,-120128,-94612,-102076,-91196
613.8,-120085,-94501,-102101,-91059
615.8,-120039,-94371,-102065,-90849
617.8,-120075,-94294,-101879,-90521
619.8,-120069,-94157,-101645,-90237
621.8,-120124,-94102,-101555,-90178
623.8,-120326,-94257,-101569,-90256
625.8,-120407,-94339,-101468,-90226
627.8,-120204,-94141,-101229,-90067
629.8,-119934,-93921,-101061,-89993
631.8,-119722,-93879,-101039,-90077
633.8,-119511,-93829,-100988,-90130
635.8,-119429,-93682,-100810,-90029
637.8,-119572,-93643,-100623,-89896
639.8,-119709,-93786,-100509,-89829
641.8,-119727,-93909,-100390,-89745
643.8,-119838,-93873,-100250,-89622
645.8,-119967,-93724,-100149,-89542
647.8,-119749,-93524,-100005,-89409
649.8,-119377,-93348,-99724,-89073
651.8,-119451,-93329,-99481,-88704
653.8,-119854,-93466,-99447,-88543
655.8,-119858,-93481,-99409,-88411
657.8,-119384,-93151,-99109,-88032
659.8,-119062,-92673,-98727,-87598
661.8,-119115,-92436,-98587,-87479
663.8,-119193,-92496,-98658,-87624
665.8,-119140,-92536,-98688,-87717
667.8,-119103,-92344,-98579,-87648
669.8,-119104,-92071,-98391,-87509
671.8,-119052,-91977,-98203,-87381
673.8,-118948,-92054,-98100,-87327
675.8,-118861,-92048,-98099,-87354
677.8,-118879,-91842,-98058,-87325
679.8,-119020,-91617,-97881,-87158
681.8,-119086,-91558,-97736,-87028
683.8,-118918,-91585,-97805,-87105
685.8,-118716,-91539,-97971,-87254
687.8,-118718,-91452,-98053,-87302
689.8,-118798,-91459,-98103,-87315
691.8,-118780,-91550,-98184,-87357
693.8,-118761,-91580,-98204,-87322
695.8,-118836,-91464,-98176,-87247
697.8,-118890,-91290,-98251,-87320
699.8,-118860,-91193,-98390,-87500
701.8,-118842,-91168,-98421,-87568
703.8,-118867,-91106,-98395,-87543
705.8,-118880,-91028,-98479,-87615
707.8,-118895,-91107,-98644,-87792
709.8,-118925,-91351,-98770,-87956
711.8,-118873,-91505,-98859,-88085
713.8,-118742,-91458,-98957,-88218
715.8,-118772,-91469,-99070,-88364
717.8,-119082,-91707,-99194,-88518
719.8,-119410,-91967,-99308,-88659
721.8,-119487,-92094,-99400,-88783
723.8,-119406,-92228,-99525,-88942
725.8,-119356,-92400,-99721,-89160
727.8,-119335,-92449,-99927,-89378
729.8,-119348,-92417,-100085,-89555
731.8,-119461,-92492,-100167,-89663
733.8,-119577,-92614,-100142,-89637
735.8,-119569,-92640,-100109,-89556
737.8,-119568,-92666,-100260,-89653
739.8,-119681,-92763,-100509,-89883
741.8,-119721,-92789,-100562,-89928
743.8,-119616,-92732,-100472,-89812
745.8,-119585,-92789,-100551,-89876
747.8,-119631,-92959,-100741,-90074
749.8,-119510,-93041,-100785,-90104
751.8,-119317,-93037,-100802,-90073
753.8,-119358,-93085,-100958,-90179
755.8,-119557,-93152,-101009,-90189
757.8,-119668,-93165,-100849,-89986
759.8,-119741,-93201,-100826,-89943
761.8,-119854,-93294,-101046,-90180
763.8,-119901,-93353,-101168,-90322
765.8,-119923,-93393,-101110,-90266
767.8,-120065,-93514,-101137,-90302
769.8,-120188,-93681,-101270,-90463
771.8,-120096,-93762,-101309,-90534
773.8,-119961,-93743,-101266,-90516
775.8,-119997,-93704,-101274,-90547
777.8,-120031,-93640,-101319,-90605
779.8,-119867,-93477,-101331,-90612
781.8,-119697,-93292,-101338,-90605
783.8,-119738,-93313,-101386,-90646
785.8,-119837,-93550,-101457,-90713
787.8,-119814,-93696,-101492,-90734
789.8,-119773,-93592,-101501,-90719
791.8,-119789,-93483,-101568,-90766
793.8,-119766,-93598,-101689,-90870
795.8,-119772,-93846,-101723,-90872
797.8,-119945,-94031,-101624,-90725
799.8,-120096,-94044,-101537,-90602
801.8,-120039,-93863,-101542,-90607
803.8,-120028,-93608,-101547,-90635
805.8,-120215,-93428,-101502,-90606
807.8,-120242,-93282,-101458,-90556
809.8,-119966,-93123,-101412,-90499
811.8,-119809,-93101,-101355,-90440
813.8,-119923,-93247,-101353,-90438
815.8,-119944,-93309,-101407,-90491
817.8,-119790,-93214,-101405,-90499
819.8,-119803,-93200,-101337,-90444
821.8,-120003,-93334,-101324,-90427
823.8,-120053,-93401,-101387,-90482
825.8,-119877,-93274,-101432,-90530
827.8,-119692,-93023,-101412,-90516
829.8,-119632,-92807,-101343,-90448
831.8,-119673,-92779,-101250,-90359
833.8,-119708,-92868,-101202,-90309
835.8,-119610,-92779,-101235,-90313
837.8,-119405,-92468,-101245,-90285
839.8,-119296,-92284,-101182,-90206
841.8,-119399,-92398,-101206,-90233
843.8,-119592,-92538,-101389,-90414
845.8,-119658,-92477,-101507,-90519
847.8,-119528,-92399,-101427,-90431
849.8,-119380,-92585,-101364,-90374
851.8,-119461,-93000,-101478,-90504
853.8,-119722,-93326,-101607,-90651
855.8,-119823,-93350,-101631,-90685
857.8,-119637,-93213,-101667,-90720
859.8,-119487,-93195,-101754,-90801
861.8,-119624,-93312,-101750,-90801
863.83,-119836,-93376,-101647,-90713
865.85,-119856,-93412,-101630,-90712
867.88,-119771,-93617,-101772,-90869
869.9,-119731,-93901,-101945,-91044
871.9,-119720,-93996,-102041,-91110
873.9,-119793,-94012,-102084,-91114
875.9,-120010,-94264,-102154,-91175
877.9,-120121,-94633,-102293,-91325
879.9,-119927,-94747,-102456,-91493
881.9,-119724,-94647,-102561,-91607
883.9,-119825,-94667,-102600,-91671
885.9,-120040,-94865,-102668,-91749
887.9,-120094,-95036,-102814,-91882
889.9,-120066,-95062,-102946,-92018
891.9,-120083,-94970,-102951,-92035
893.9,-120071,-94843,-102838,-91896
895.9,-119984,-94779,-102727,-91733
897.9,-119902,-94792,-102726,-91709
899.9,-119889,-94767,-102817,-91806
901.9,-119928,-94666,-102865,-91852
903.9,-119969,-94648,-102799,-91777
905.9,-120026,-94831,-102737,-91714
907.9,-120171,-95053,-102799,-91782
909.9,-120308,-95095,-102906,-91900
911.9,-120210,-95007,-102935,-91938
913.9,-119968,-94992,-102919,-91908
915.9,-119968,-95053,-102907,-91869
917.9,-120247,-95051,-102865,-91825
919.9,-120428,-94989,-102832,-91814
921.9,-120314,-94932,-102879,-91874
923.9,-120029,-94819,-102897,-91893
925.9,-119780,-94662,-102791,-91787
927.9,-119779,-94656,-102749,-91740
929.9,-120020,-94791,-102901,-91889
931.9,-120142,-94780,-103003,-92007
933.9,-119981,-94608,-102893,-91913
935.9,-119841,-94607,-102812,-91840
937.9,-119830,-94843,-102945,-92016
939.9,-119692,-95091,-103148,-92332
941.9,-119515,-95372,-103315,-92668
943.9,-119685,-95808,-103475,-93056
945.9,-120140,-96194,-103539,-93399
947.9,-120491,-96315,-103457,-93550
949.9,-120639,-96279,-103373,-93568
951.9,-120637,-96124,-103261,-93479
953.9,-120377,-95700,-102833,-93063
955.9,-119875,-95093,-102068,-92226
957.9,-119374,-94489,-101279,-91218
959.9,-118970,-93733,-100603,-90249
961.9,-118547,-92621,-99894,-89228
963.9,-118046,-91275,-99066,-87950
965.9,-117480,-89793,-98127,-86298
967.9,-116861,-88027,-97119,-84356
969.9,-116271,-86059,-96298,-82489
971.9,-115815,-84348,-96003,-81090
973.9,-115503,-83267,-96208,-80175
975.9,-115374,-82857,-96600,-79539
977.9,-115538,-83017,-97067,-79196
979.9,-115952,-83550,-97616,-79204
981.9,-116418,-84203,-98081,-79334
983.9,-116837,-84962,-98438,-79531
985.9,-117229,-86083,-99029,-80252
987.9,-117605,-87632,-99963,-81695
989.9,-118093,-89350,-100883,-83416
991.9,-118890,-91088,-101728,-85288
993.9,-119833,-92824,-102857,-87736
995.9,-120425,-94238,-104139,-90458
997.9,-120498,-95009,-104889,-92295
999.9,-120440,-95442,-104969,-92901
1001.9,-120578,-95978,-104943,-93128
1003.9,-120770,-96337,-105049,-93492
1005.9,-120758,-96110,-104974,-93636
1007.9,-120558,-95686,-104615,-93389
1009.9,-120316,-95597,-104236,-93089
1011.9,-120083,-95621,-103953,-92877
1013.9,-119903,-95432,-103696,-92622
1015.9,-119909,-95324,-103488,-92369
1017.9,-120092,-95519,-103359,-92226
1019.9,-120190,-95624,-103221,-92120
1021.9,-120037,-95381,-103066,-92004
1023.9,-119824,-95075,-103002,-91979
1025.9,-119804,-94935,-103009,-92045
1027.9,-119956,-94908,-102970,-92090
1029.9,-120119,-95020,-102900,-92119
1031.9,-120212,-95237,-102869,-92185
1033.9,-120219,-95269,-102835,-92236
1035.9,-120171,-95033,-102748,-92222
1037.9,-120166,-94856,-102623,-92171
1039.9,-120234,-94890,-102462,-92069
1041.9,-120288,-94951,-102317,-91941
1043.9,-120276,-94964,-102321,-91928
1045.9,-120184,-94962,-102457,-92031
1047.9,-119955,-94828,-102495,-92022
1049.9,-119689,-94597,-102360,-91818
1051.9,-119669,-94566,-102237,-91619
1053.9,-119830,-94702,-102222,-91527
1055.9,-119746,-94615,-102186,-91424
1057.9,-119444,-94346,-102047,-91258
1059.9,-119409,-94292,-101880,-91107
1061.9,-119580,-94338,-101744,-90990
1063.9,-119462,-94116,-101644,-90891
1065.9,-119237,-93895,-101589,-90853
1067.9,-119393,-94089,-101555,-90865
1069.9,-119594,-94308,-101458,-90820
1071.9,-119321,-94066,-101278,-90684
1073.9,-119031,-93763,-101109,-90558
1075.9,-119298,-93902,-101013,-90508
1077.9,-119685,-94125,-100938,-90478
1079.9,-119598,-93970,-100802,-90389
1081.9,-119304,-93719,-100603,-90233
1083.9,-119230,-93718,-100413,-90059
1085.9,-119244,-93713,-100300,-89934
1087.9,-119199,-93472,-100230,-89850
1089.9,-119283,-93273,-100078,-89706
1091.9,-119473,-93327,-99820,-89455
1093.9,-119444,-93400,-99600,-89219
1095.9,-119191,-93305,-99496,-89089
1097.9,-119060,-93158,-99371,-88952
1099.9,-119098,-93034,-99131,-88715
1101.9,-118981,-92828,-98909,-88496
1103.9,-118641,-92544,-98814,-88415
1105.9,-118430,-92365,-98779,-88408
1107.9,-118539,-92375,-98748,-88406
1109.9,-118665,-92408,-98722,-88402
1111.9,-118480,-92254,-98618,-88303
1113.9,-118197,-91988,-98384,-88050
1115.9,-118272,-91881,-98180,-87813
1117.9,-118632,-91906,-98142,-87749
1119.9,-118721,-91748,-98160,-87754
1121.9,-118409,-91464,-98129,-87709
1123.9,-118196,-91467,-98133,-87697
1125.9,-118348,-91717,-98223,-87783
1127.9,-118525,-91751,-98319,-87877
1129.9,-118484,-91585,-98385,-87926
1131.9,-118452,-91646,-98445,-87951
1133.9,-118565,-91853,-98469,-87932
1135.9,-118590,-91756,-98453,-87870
1137.9,-118437,-91425,-98477,-87854
1139.9,-118339,-91290,-98561,-87914
1141.9,-118389,-91373,-98627,-87970
1143.9,-118453,-91417,-98655,-87985
1145.9,-118529,-91426,-98711,-88015
1147.9,-118706,-91530,-98835,-88120
1149.9,-118852,-91677,-99035,-88314
1151.9,-118823,-91782,-99264,-88534
1153.9,-118727,-91848,-99406,-88654
1155.9,-118667,-91881,-99443,-88672
1157.9,-118607,-91930,-99528,-88747
1159.9,-118640,-92074,-99710,-88924
1161.9,-118887,-92241,-99816,-89046
1163.9,-119154,-92323,-99785,-89059
1165.9,-119179,-92389,-99806,-89115
1167.9,-119072,-92503,-99980,-89289
1169.9,-119085,-92561,-100181,-89482
1171.9,-119178,-92545,-100308,-89620
1173.9,-119150,-92578,-100372,-89689
1175.9,-119032,-92648,-100398,-89702
1177.9,-119040,-92670,-100454,-89762
1179.9,-119184,-92736,-100611,-89955
1181.9,-119235,-92879,-100772,-90151
1183.9,-119132,-92904,-100793,-90192
1185.9,-119090,-92815,-100756,-90164
1187.9,-119235,-92933,-100815,-90217
1189.9,-119458,-93288,-100942,-90319
1191.9,-119616,-93460,-101034,-90389
1193.9,-119608,-93323,-101068,-90412
1195.9,-119451,-93285,-101036,-90370
1197.9,-119371,-93543,-100984,-90314
1199.9,-119526,-93769,-101056,-90401
1201.9,-119749,-93763,-101258,-90628
1203.9,-119854,-93745,-101395,-90785
1205.9,-119828,-93808,-101375,-90795
1207.9,-119635,-93708,-101319,-90784
1209.9,-119300,-93380,-101305,-90790
1211.9,-119112,-93132,-101319,-90775
1213.9,-119249,-93201,-101380,-90803
1215.9,-119438,-93417,-101464,-90896
1217.9,-119372,-93441,-101459,-90913
1219.9,-119175,-93222,-101395,-90839
1221.9,-119144,-93104,-101447,-90864
1223.9,-119267,-93330,-101617,-91028
1225.9,-119288,-93619,-101718,-91136
1227.9,-119192,-93663,-101711,-91117
1229.9,-119289,-93715,-101719,-91107
1231.9,-119671,-94062,-101777,-91159
1233.93,-119973,-94368,-101837,-91206
1235.95,-119920,-94267,-101903,-91235
1237.98,-119703,-94054,-101948,-91245
1240.0,-119618,-94084,-101899,-91183
1242.0,-119684,-94123,-101818,-91095
1244.0,-119749,-93940,-101836,-91095
1246.0,-119724,-93798,-101874,-91110
1248.0,-119642,-93835,-101778,-90993
1250.0,-119583,-93758,-101644,-90848
1252.0,-119573,-93497,-101634,-90841
1254.0,-119584,-93356,-101659,-90869
1256.0,-119607,-93415,-101592,-90786
1258.0,-119647,-93503,-101509,-90686
1260.0,-119658,-93589,-101459,-90642
1262.0,-119589,-93600,-101363,-90562
1264.0,-119494,-93365,-101282,-90478
1266.0,-119511,-93115,-101375,-90563
1268.0,-119635,-93235,-101567,-90758
1270.0,-119644,-93463,-101639,-90830
1272.0,-119489,-93353,-101554,-90740
1274.0,-119466,-93180,-101431,-90622
1276.0,-119691,-93309,-101319,-90513
1278.0,-119789,-93349,-101224,-90388
1280.0,-119519,-92956,-101197,-90311
1282.0,-119197,-92577,-101261,-90341
1284.0,-119151,-92623,-101337,-90397
1286.0,-119285,-92830,-101325,-90371
1288.0,-119412,-92891,-101235,-90277
1290.0,-119467,-92868,-101179,-90214
1292.0,-119385,-92845,-101242,-90253
1294.0,-119208,-92829,-101392,-90367
1296.0,-119124,-92886,-101511,-90454
1298.0,-119150,-93010,-101537,-90446
1300.0,-119154,-93129,-101536,-90412
1302.0,-119199,-93308,-101580,-90446
1304.0,-119376,-93555,-101636,-90515
1306.0,-119493,-93651,-101657,-90548
1308.0,-119424,-93548,-101687,-90585
1310.0,-119414,-93564,-101754,-90663
1312.0,-119593,-93840,-101787,-90709
1314.0,-119714,-94099,-101766,-90695
1316.0,-119687,-94188,-101794,-90727
1318.0,-119758,-94287,-101933,-90871
1320.0,-119932,-94457,-102110,-91049
1322.0,-119907,-94557,-102236,-91168
1324.0,-119712,-94628,-102303,-91224
1326.0,-119710,-94848,-102377,-91290
1328.0,-119955,-95177,-102536,-91454
1330.0,-120168,-95417,-102749,-91679
1332.0,-120256,-95489,-102867,-91806
1334.0,-120223,-95430,-102841,-91790
1336.0,-119944,-95289,-102798,-91766
1338.0,-119543,-95161,-102823,-91793
1340.0,-119470,-95141,-102836,-91783
1342.0,-119773,-95187,-102768,-91709
1344.0,-120015,-95193,-102679,-91650
1346.0,-120045,-95180,-102660,-91647
1348.0,-120072,-95201,-102709,-91669
1350.0,-120055,-95147,-102737,-91674
1352.0,-119858,-94929,-102692,-91649
1354.0,-119716,-94773,-102648,-91630
1356.0,-119835,-94951,-102673,-91644
1358.0,-120017,-95312,-102705,-91651
1360.0,-120106,-95474,-102689,-91628
1362.0,-120171,-95349,-102685,-91621
1364.0,-120091,-95114,-102708,-91639
1366.0,-119724,-94897,-102676,-91610
1368.0,-119383,-94782,-102589,-91533
1370.0,-119384,-94824,-102578,-91518
1372.0,-119459,-94879,-102701,-91628
1374.0,-119399,-94821,-102821,-91756
1376.0,-119612,-94911,-102807,-91764
1378.0,-120250,-95362,-102750,-91713
1380.0,-120628,-95805,-102832,-91804
1382.0,-120336,-95896,-103058,-92093
1384.0,-119973,-95961,-103299,-92447
1386.0,-120062,-96302,-103492,-92783
1388.0,-120299,-96612,-103605,-93097
1390.0,-120397,-96722,-103584,-93339
1392.0,-120568,-96902,-103465,-93452
1394.0,-120792,-96990,-103299,-93407
1396.0,-120660,-96441,-102932,-93081
1398.0,-120089,-95439,-102255,-92397
1400.0,-119414,-94718,-101540,-91582
1402.0,-118847,-94341,-101074,-90903
1404.0,-118378,-93768,-100657,-90227
1406.0,-117962,-92782,-99932,-89217
1408.0,-117497,-91489,-98951,-87822
1410.0,-116862,-89900,-97995,-86234
1412.0,-116133,-88033,-97145,-84545
1414.0,-115485,-86028,-96398,-82836
1416.0,-114956,-84140,-95959,-81389
1418.0,-114555,-82898,-96039,-80472
1420.0,-114493,-82774,-96540,-80045
1422.0,-114943,-83455,-97173,-79925
1424.0,-115659,-84187,-97750,-80015
1426.0,-116208,-84819,-98241,-80240
1428.0,-116509,-85705,-98730,-80599
1430.0,-116805,-86907,-99376,-81331
1432.0,-117262,-88335,-100250,-82630
1434.0,-117890,-90084,-101240,-84321
1436.0,-118630,-91928,-102212,-86181
1438.0,-119284,-93286,-103121,-88228
1440.0,-119713,-94153,-103895,-90294
1442.0,-120122,-95093,-104423,-91842
1444.0,-120668,-96103,-104701,-92621
1446.0,-121005,-96565,-104816,-92967
1448.0,-120833,-96384,-104791,-93184
1450.0,-120520,-96128,-104585,-93198
1452.0,-120477,-96055,-104219,-92957
1454.0,-120466,-95902,-103796,-92635
1456.0,-120182,-95578,-103429,-92368
1458.0,-119903,-95355,-103189,-92153
1460.0,-119967,-95379,-103054,-91989
1462.0,-120180,-95438,-102930,-91868
1464.0,-120176,-95297,-102778,-91753
1466.0,-119959,-95055,-102679,-91690
1468.0,-119800,-95007,-102697,-91764
1470.0,-119822,-95160,-102756,-91906
1472.0,-119862,-95202,-102742,-91961
1474.0,-119780,-95045,-102662,-91926
1476.0,-119748,-94999,-102591,-91908
1478.0,-119971,-95216,-102554,-91928
1480.0,-120248,-95410,-102532,-91937
1482.0,-120255,-95351,-102494,-91916
1484.0,-120084,-95181,-102411,-91859
1486.0,-120006,-95093,-102310,-91784
1488.0,-119970,-95070,-102253,-91740
1490.0,-119863,-95055,-102214,-91685
1492.0,-119870,-95073,-102113,-91542
1494.0,-120102,-95136,-102007,-91401
1496.0,-120284,-95200,-102016,-91405
1498.0,-120181,-95175,-102074,-91448
1500.0,-119894,-94971,-101988,-91315
1502.0,-119596,-94666,-101748,-91051
1504.0,-119414,-94524,-101546,-90876
1506.0,-119486,-94656,-101519,-90867
1508.0,-119711,-94798,-101605,-90933
1510.0,-119723,-94681,-101611,-90939
1512.0,-119464,-94446,-101429,-90797
1514.0,-119307,-94374,-101191,-90591
1516.0,-119406,-94406,-101083,-90485
1518.0,-119505,-94315,-101020,-90423
1520.0,-119474,-94159,-100807,-90221
1522.0,-119462,-94146,-100539,-89957
1524.0,-119516,-94222,-100435,-89855
1526.0,-119484,-94167,-100421,-89858
1528.0,-119253,-93948,-100292,-89746
1530.0,-118946,-93706,-100063,-89514
1532.0,-118870,-93600,-99851,-89302
1534.0,-119095,-93720,-99685,-89165
1536.0,-119271,-93918,-99599,-89116
1538.0,-119194,-93869,-99602,-89134
1540.0,-119104,-93565,-99544,-89088
1542.0,-119072,-93356,-99334,-88905
1544.0,-118837,-93312,-99109,-88693
1546.0,-118493,-93138,-98945,-88522
1548.0,-118386,-92838,-98739,-88340
1550.0,-118426,-92742,-98548,-88210
1552.0,-118341,-92831,-98541,-88240
1554.0,-118248,-92772,-98577,-88266
1556.0,-118285,-92542,-98407,-88078
1558.0,-118323,-92387,-98190,-87857
1560.0,-118361,-92342,-98200,-87865
1562.0,-118502,-92274,-98271,-87944
1564.0,-118572,-92186,-98134,-87827
1566.0,-118444,-92170,-97937,-87636
1568.0,-118331,-92202,-97938,-87616
1570.0,-118328,-92178,-98061,-87722
1572.0,-118263,-92066,-98127,-87791
1574.0,-118169,-91948,-98129,-87794
1576.0,-118237,-91909,-98109,-87761
1578.0,-118368,-91919,-98081,-87712
1580.0,-118391,-91868,-98103,-87701
1582.0,-118383,-91700,-98185,-87747
1584.0,-118398,-91509,-98242,-87790
1586.0,-118353,-91496,-98260,-87804
1588.0,-118319,-91722,-98324,-87848
1590.0,-118402,-91941,-98452,-87963
1592.0,-118473,-91923,-98579,-88106
1594.0,-118484,-91834,-98669,-88208
1596.0,-118592,-91951,-98738,-88248
1598.0,-118727,-92179,-98809,-88288
1600.0,-118688,-92296,-98915,-88404
1602.0,-118634,-92356,-99088,-88608
1604.0,-118729,-92432,-99289,-88826
1606.0,-118720,-92385,-99420,-88965
1608.0,-118516,-92270,-99458,-89006
1610.0,-118502,-92390,-99517,-89064
1612.0,-118786,-92713,-99686,-89238
1614.03,-118987,-92845,-99896,-89464
1616.05,-118966,-92696,-100032,-89610
1618.08,-118973,-92606,-100075,-89647
1620.1,-119139,-92814,-100063,-89636
1622.1,-119390,-93221,-100076,-89667
1624.1,-119565,-93540,-100201,-89810
1626.1,-119467,-93518,-100360,-89974
1628.1,-119245,-93244,-100358,-89974
1630.1,-119370,-93129,-100250,-89862
1632.1,-119770,-93295,-100299,-89897
1634.1,-119786,-93442,-100501,-90103
1636.1,-119342,-93485,-100599,-90243
1638.1,-119036,-93569,-100560,-90230
1640.1,-118959,-93496,-100558,-90185
1642.1,-118739,-93109,-100621,-90185
1644.1,-118590,-92929,-100697,-90266
1646.1,-118952,-93330,-100829,-90459
1648.1,-119450,-93759,-100976,-90651
1650.1,-119497,-93753,-100988,-90672
1652.1,-119354,-93729,-100902,-90596
1654.1,-119516,-94007,-100914,-90631
1656.1,-119783,-94238,-101050,-90777
1658.1,-119822,-94256,-101174,-90884
1660.1,-119829,-94325,-101227,-90919
1662.1,-119980,-94435,-101242,-90943
1664.1,-120038,-94365,-101240,-90969
1666.1,-119927,-94246,-101229,-90974
1668.1,-119918,-94302,-101223,-90961
1670.1,-120038,-94417,-101234,-90956
1672.1,-119990,-94428,-101299,-91014
1674.1,-119765,-94439,-101441,-91158
1676.1,-119695,-94541,-101557,-91277
1678.1,-119843,-94601,-101529,-91255
1680.1,-119908,-94526,-101426,-91166
1682.1,-119785,-94456,-101410,-91159
1684.1,-119689,-94507,-101487,-91233
1686.1,-119703,-94553,-101562,-91313
1688.1,-119685,-94463,-101598,-91374
1690.1,-119619,-94347,-101585,-91378
1692.1,-119578,-94327,-101514,-91295
1694.1,-119508,-94339,-101453,-91221
1696.1,-119436,-94353,-101465,-91248
1698.1,-119542,-94435,-101479,-91300
1700.1,-119771,-94501,-101412,-91258
1702.1,-119839,-94404,-101298,-91148
1704.1,-119767,-94227,-101218,-91063
1706.1,-119810,-94115,-101198,-91052
1708.1,-119953,-94057,-101204,-91086
1710.1,-120006,-94050,-101185,-91093
1712.1,-119959,-94097,-101151,-91064
1714.1,-119879,-94024,-101166,-91080
1716.1,-119833,-93797,-101230,-91157
1718.1,-119919,-93735,-101259,-91195
1720.1,-120031,-93917,-101206,-91134
1722.1,-119902,-93941,-101078,-91010
1724.1,-119672,-93740,-100913,-90879
1726.1,-119721,-93702,-100819,-90797
1728.1,-119849,-93717,-100846,-90782
1730.1,-119553,-93333,-100864,-90763
1732.1,-119038,-92890,-100780,-90693
1734.1,-118922,-93053,-100704,-90640
1736.1,-119167,-93483,-100718,-90637
1738.1,-119260,-93432,-100731,-90635
1740.1,-119098,-93082,-100711,-90643
1742.1,-118957,-92985,-100727,-90691
1744.1,-118924,-93077,-100769,-90721
1746.1,-118928,-93214,-100854,-90775
1748.1,-119066,-93608,-101105,-91019
1750.1,-119500,-94139,-101400,-91327
1752.1,-120049,-94292,-101371,-91309
1754.1,-120187,-93986,-101056,-91003
1756.1,-119685,-93642,-100919,-90883
1758.1,-119088,-93585,-101063,-91050
1760.1,-119090,-93854,-101176,-91173
1762.1,-119567,-94248,-101211,-91202
1764.1,-119821,-94451,-101321,-91317
1766.1,-119665,-94433,-101400,-91424
1768.1,-119551,-94488,-101383,-91425
1770.1,-119695,-94672,-101481,-91515
1772.1,-119812,-94785,-101700,-91726
1774.1,-119770,-94904,-101785,-91822
1776.1,-119794,-95201,-101781,-91833
1778.1,-119944,-95455,-101903,-91959
1780.1,-120005,-95441,-102049,-92093
1782.1,-119963,-95359,-102074,-92089
1784.1,-120024,-95399,-102125,-92115
1786.1,-120170,-95435,-102256,-92245
1788.1,-120194,-95404,-102266,-92252
1790.1,-120080,-95432,-102146,-92104
1792.1,-119990,-95553,-102153,-92091
1794.1,-119997,-95679,-102333,-92286
1796.1,-120002,-95702,-102433,-92406
1798.1,-119869,-95568,-102332,-92310
1800.1,-119642,-95395,-102204,-92178
1802.1,-119561,-95348,-102193,-92153
1804.1,-119737,-95366,-102224,-92173
1806.1,-119966,-95371,-102240,-92203
1808.1,-120061,-95497,-102319,-92299
1810.1,-120060,-95693,-102432,-92406
1812.1,-120035,-95639,-102431,-92400
1814.1,-120013,-95386,-102351,-92347
1816.1,-120035,-95334,-102360,-92383
1818.1,-120040,-95469,-102397,-92419
1820.1,-119899,-95446,-102285,-92297
1822.1,-119716,-95291,-102133,-92147
1824.1,-119769,-95242,-102160,-92188
1826.1,-120039,-95241,-102265,-92314
1828.1,-120193,-95236,-102224,-92290
1830.1,-120098,-95430,-102154,-92232
1832.1,-119929,-95791,-102301,-92415
1834.1,-119767,-95954,-102583,-92775
1836.1,-119566,-95869,-102749,-93044
1838.1,-119478,-95897,-102778,-93210
1840.1,-119731,-96209,-102791,-93428
1842.1,-120212,-96611,-102803,-93660
1844.1,-120585,-96840,-102764,-93746
1846.1,-120685,-96703,-102637,-93643
1848.1,-120470,-96202,-102354,-93365
1850.1,-119865,-95593,-101893,-92872
1852.1,-119000,-95053,-101329,-92152
1854.1,-118281,-94501,-100713,-91282
1856.1,-117915,-93872,-100046,-90357
1858.1,-117625,-93068,-99351,-89369
1860.1,-117096,-91741,-98585,-88154
1862.1,-116398,-89771,-97640,-86575
1864.1,-115693,-87655,-96631,-84824
1866.1,-114923,-85930,-95953,-83349
1868.1,-114179,-84773,-95871,-82436
1870.1,-113905,-84340,-96285,-82032
1872.1,-114294,-84655,-96946,-81967
1874.1,-114918,-85215,-97603,-82076
1876.1,-115375,-85594,-98049,-82169
1878.1,-115743,-86086,-98353,-82282
1880.1,-116076,-87090,-98896,-82827
1882.1,-116209,-88474,-99826,-84041
1884.1,-116359,-90016,-100801,-85563
1886.1,-117123,-91713,-101595,-87079
1888.1,-118534,-93410,-102443,-88848
1890.1,-119832,-94765,-103400,-90881
1892.1,-120406,-95615,-103990,-92396
1894.1,-120387,-95992,-103972,-92894
1896.1,-120213,-96024,-103817,-92959
1898.1,-120151,-95991,-103925,-93241
1900.1,-120252,-96107,-104048,-93533
1902.1,-120371,-96276,-103890,-93490
1904.1,-120276,-96334,-103618,-93305
1906.1,-119973,-96293,-103438,-93191
1908.1,-119749,-96180,-103246,-93012
1910.1,-119745,-95969,-102969,-92724
1912.1,-119793,-95751,-102752,-92523
1914.1,-119775,-95671,-102664,-92465
1916.1,-119813,-95748,-102627,-92446
1918.1,-119957,-95846,-102613,-92455
1920.1,-120002,-95770,-102610,-92488
1922.1,-119821,-95496,-102545,-92453
1924.1,-119611,-95315,-102427,-92367
1926.1,-119579,-95406,-102339,-92331
1928.1,-119606,-95444,-102247,-92282
1930.1,-119508,-95181,-102110,-92159
1932.1,-119430,-94988,-102042,-92115
1934.1,-119608,-95208,-102080,-92205
1936.1,-119917,-95495,-102061,-92216
1938.1,-119997,-95427,-101957,-92093
1940.1,-119723,-95168,-101942,-92054
1942.1,-119364,-95044,-102022,-92123
1944.1,-119307,-95061,-101999,-92074
1946.1,-119585,-95098,-101821,-91865
1948.1,-119795,-95070,-101634,-91667
1950.1,-119696,-94919,-101537,-91565
1952.1,-119568,-94776,-101532,-91545
1954.1,-119627,-94860,-101575,-91580
1956.1,-119630,-95066,-101577,-91586
1958.1,-119479,-95094,-101508,-91516
1960.1,-119455,-94962,-101462,-91469
1962.1,-119523,-94875,-101466,-91482
1964.1,-119317,-94793,-101385,-91409
1966.1,-118939,-94602,-101154,-91173
1968.1,-118802,-94392,-100919,-90929
1970.1,-118862,-94241,-100819,-90818
1972.1,-118850,-94106,-100787,-90772
1974.1,-118775,-93982,-100671,-90642
1976.1,-118619,-93877,-100467,-90428
1978.1,-118312,-93792,-100308,-90268
1980.1,-118222,-93858,-100243,-90209
1982.1,-118675,-94112,-100162,-90124
1984.1,-119158,-94242,-99976,-89921
1986.1,-119099,-94051,-99755,-89693
1988.1,-118797,-93820,-99603,-89551
1990.1,-118661,-93754,-99518,-89469
1992.2,-118528,-93652,-99422,-89381
1994.2,-118379,-93419,-99261,-89262
1996.2,-118471,-93260,-99064,-89120
1998.2,-118600,-93233,-98912,-88996
2000.2,-118465,-93158,-98803,-88893
2002.2,-118353,-92931,-98649,-88745
2004.2,-118409,-92594,-98470,-88572
2006.2,-118191,-92275,-98395,-88502
2008.2,-117681,-92140,-98394,-88501
2010.2,-117487,-92162,-98316,-88405
2012.2,-117663,-92095,-98200,-88258
2014.2,-117652,-91870,-98175,-88225
2016.2,-117392,-91707,-98146,-88219
2018.2,-117342,-91766,-98000,-88088
2020.2,-117620,-92001,-97908,-87986
2022.2,-117905,-92247,-98035,-88110
2024.2,-117961,-92278,-98214,-88298
2026.2,-117864,-92060,-98226,-88310
2028.2,-117828,-91908,-98131,-88200
2030.2,-117884,-92004,-98080,-88137
2032.2,-117870,-92047,-98089,-88139
2034.2,-117823,-91840,-98127,-88169
2036.2,-117947,-91649,-98201,-88241
2038.2,-118112,-91640,-98313,-88351
2040.2,-118021,-91671,-98438,-88470
2042.2,-117834,-91734,-98552,-88589
2044.2,-117840,-91862,-98648,-88700
2046.2,-117855,-91848,-98747,-88796
2048.2,-117712,-91684,-98851,-88876
2050.2,-117742,-91749,-98917,-88937
2052.2,-118080,-92120,-98977,-89014
2054.2,-118289,-92408,-99165,-89209
2056.2,-118145,-92450,-99478,-89532
2058.2,-117964,-92427,-99698,-89789
2060.2,-117968,-92423,-99704,-89822
2062.2,-118087,-92478,-99678,-89783
2064.2,-118293,-92699,-99811,-89912
2066.2,-118533,-92949,-100017,-90153
2068.2,-118584,-92952,-100110,-90274
2070.2,-118419,-92847,-100112,-90271
2072.2,-118373,-93008,-100176,-90338
2074.2,-118631,-93348,-100328,-90514
2076.2,-118926,-93462,-100469,-90667
2078.2,-118950,-93310,-100553,-90747
2080.2,-118784,-93201,-100599,-90790
2082.2,-118710,-93265,-100617,-90813
2084.2,-118815,-93409,-100662,-90871
2086.2,-118938,-93567,-100818,-91038
2088.2,-118935,-93677,-100996,-91191
2090.2,-118858,-93656,-100993,-91129
2092.2,-118825,-93586,-100857,-90968
2094.2,-118864,-93660,-100889,-91042
2096.2,-118982,-93883,-101146,-91354
2098.2,-119189,-94063,-101332,-91572
2100.2,-119311,-94068,-101290,-91562
2102.2,-119145,-93949,-101201,-91509
2104.2,-118900,-93889,-101238,-91558
2106.2,-118958,-94026,-101350,-91678
2108.2,-119217,-94257,-101439,-91798
2110.2,-119281,-94318,-101473,-91852
2112.2,-119169,-94162,-101468,-91819
2114.2,-119193,-94079,-101473,-91789
2116.2,-119391,-94284,-101523,-91832
2118.2,-119559,-94590,-101573,-91869
2120.2,-119544,-94658,-101572,-91820
2122.2,-119329,-94493,-101540,-91743
2124.2,-119148,-94419,-101522,-91710
2126.2,-119284,-94543,-101552,-91736
2128.2,-119547,-94613,-101637,-91811
2130.2,-119506,-94526,-101719,-91884
2132.2,-119253,-94484,-101730,-91885
2134.2,-119175,-94513,-101716,-91860
2136.2,-119227,-94448,-101769,-91905
2138.2,-119208,-94405,-101871,-91992
2140.2,-119282,-94558,-101940,-92025
2142.2,-119528,-94650,-101942,-91991
2144.2,-119623,-94479,-101878,-91905
2146.2,-119447,-94408,-101804,-91804
2148.2,-119349,-94663,-101828,-91798
2150.2,-119509,-94817,-101921,-91884
2152.2,-119640,-94590,-101887,-91856
2154.2,-119529,-94361,-101697,-91650
2156.2,-119392,-94396,-101552,-91478
2158.2,-119463,-94380,-101537,-91452
2160.2,-119582,-94140,-101545,-91452
2162.2,-119493,-94004,-101535,-91417
2164.2,-119299,-94160,-101538,-91398
2166.2,-119268,-94319,-101531,-91386
2168.2,-119377,-94250,-101529,-91381
2170.2,-119390,-94075,-101579,-91415
2172.2,-119252,-93945,-101599,-91420
2174.2,-119106,-93871,-101521,-91346
2176.2,-119033,-93838,-101448,-91297
2178.2,-118970,-93755,-101426,-91301
2180.2,-118856,-93522,-101353,-91239
2182.2,-118739,-93306,-101269,-91155
2184.2,-118746,-93366,-101304,-91193
2186.2,-118906,-93574,-101383,-91277
2188.2,-119090,-93623,-101391,-91286
2190.2,-119173,-93575,-101423,-91326
2192.2,-119184,-93640,-101525,-91441
2194.2,-119185,-93694,-101554,-91469
2196.2,-119151,-93604,-101512,-91411
2198.2,-119061,-93620,-101572,-91462
2200.2,-118996,-93911,-101735,-91622
2202.2,-119019,-94165,-101849,-91732
2204.2,-119026,-94085,-101860,-91754
2206.2,-118917,-93873,-101790,-91716
2208.2,-118852,-93894,-101694,-91641
2210.2,-119066,-94180,-101694,-91632
2212.2,-119435,-94442,-101819,-91751
2214.2,-119579,-94445,-101914,-91874
2216.2,-119429,-94336,-101906,-91904
2218.2,-119307,-94470,-101916,-91922
2220.2,-119372,-94861,-102032,-92027
2222.2,-119424,-95111,-102215,-92215
2224.2,-119366,-95041,-102378,-92413
2226.2,-119370,-94949,-102443,-92519
2228.2,-119462,-95058,-102418,-92533
2230.2,-119443,-95211,-102438,-92588
2232.2,-119336,-95256,-102557,-92734
2234.2,-119383,-95289,-102668,-92856
2236.2,-119528,-95423,-102756,-92947
2238.2,-119523,-95634,-102925,-93121
2240.2,-119488,-95803,-103092,-93290
2242.2,-119622,-95808,-103062,-93265
2244.2,-119618,-95667,-102929,-93156
2246.2,-119229,-95551,-102928,-93196
2248.2,-118927,-95510,-102984,-93281
2250.2,-119109,-95447,-102891,-93197
2252.2,-119384,-95419,-102781,-93084
2254.2,-119425,-95561,-102885,-93196
2256.2,-119533,-95728,-103068,-93402
2258.2,-119741,-95693,-103069,-93418
2260.2,-119602,-95546,-102961,-93291
2262.2,-119201,-95470,-102964,-93277
2264.2,-119115,-95410,-103063,-93400
2266.2,-119299,-95326,-103089,-93472
2268.2,-119298,-95370,-103030,-93442
2270.2,-119223,-95549,-103018,-93463
2272.2,-119380,-95667,-103088,-93585
2274.2,-119512,-95671,-103131,-93659
2276.2,-119380,-95654,-103106,-93626
2278.2,-119294,-95599,-103096,-93614
2280.2,-119414,-95478,-103112,-93649
2282.2,-119430,-95451,-103094,-93653
2284.2,-119305,-95700,-103142,-93750
2286.2,-119389,-96192,-103389,-94109
2288.2,-119701,-96695,-103690,-94572
2290.2,-119902,-96951,-103787,-94864
2292.2,-119899,-96915,-103683,-94988
2294.2,-119891,-96814,-103554,-95060
2296.2,-119985,-96783,-103440,-95043
2298.2,-120045,-96606,-103242,-94862
2300.2,-119793,-96068,-102879,-94504
2302.2,-119150,-95393,-102386,-93978
2304.2,-118484,-94950,-101888,-93356
2306.2,-118095,-94625,-101411,-92697
2308.2,-117667,-93907,-100819,-91894
2310.2,-116889,-92639,-100052,-90814
2312.2,-116147,-91200,-99188,-89467
2314.2,-115782,-89774,-98235,-87868
2316.2,-115333,-88111,-97242,-86103
2318.2,-114434,-86327,-96585,-84610
2320.2,-113649,-85168,-96618,-83829
2322.2,-113540,-84998,-97144,-83603
2324.2,-113786,-85266,-97725,-83488
2326.2,-113976,-85402,-98219,-83383
2328.2,-114347,-85569,-98672,-83405
2330.2,-115071,-86195,-99118,-83650
2332.2,-115722,-87325,-99704,-84331
2334.2,-116054,-88725,-100524,-85554
2336.2,-116540,-90263,-101371,-87034
2338.2,-117596,-91916,-102102,-88626
2340.2,-118917,-93575,-102908,-90576
2342.2,-119913,-95000,-103808,-92675
2344.2,-120341,-95960,-104422,-94080
2346.2,-120352,-96419,-104581,-94526
2348.2,-120262,-96613,-104603,-94698
2350.2,-120279,-96810,-104736,-95072
2352.2,-120311,-96993,-104856,-95401
2354.2,-120186,-97002,-104806,-95466
2356.2,-120004,-96910,-104614,-95406
2358.2,-119943,-96859,-104374,-95301
2360.2,-119881,-96706,-104148,-95101
2362.2,-119663,-96330,-103952,-94885
2364.2,-119513,-96038,-103769,-94779
2366.2,-119654,-96082,-103594,-94752
2368.2,-119819,-96186,-103454,-94737
2370.2,-119705,-96063,-103347,-94741
2372.2,-119507,-95876,-103242,-94765
2374.2,-119474,-95797,-103139,-94772
2376.2,-119460,-95729,-103070,-94779
2378.2,-119379,-95670,-103045,-94832
2380.2,-119446,-95734,-103029,-94912
2382.2,-119659,-95819,-102992,-94973
2384.2,-119726,-95766,-102947,-95033
2386.2,-119621,-95682,-102924,-95117
2388.2,-119549,-95695,-102899,-95165
2390.2,-119479,-95677,-102839,-95129
2392.2,-119324,-95528,-102782,-95076
2394.23,-119261,-95424,-102769,-95076
2396.25,-119411,-95520,-102744,-95082
2398.28,-119594,-95668,-102661,-95026
2400.3,-119638,-95660,-102569,-94933
2402.3,-119523,-95497,-102508,-94860
2404.3,-119280,-95270,-102435,-94807
2406.3,-119064,-95043,-102315,-94730
2408.3,-119066,-94950,-102162,-94598
2410.3,-119193,-95078,-102014,-94456
2412.3,-119229,-95239,-101940,-94395
2414.3,-119204,-95139,-101940,-94417
2416.3,-119117,-94763,-101881,-94385
2418.3,-118780,-94422,-101703,-94239
2420.3,-118443,-94457,-101570,-94112
2422.3,-118699,-94845,-101601,-94097
2424.3,-119333,-95111,-101658,-94113
2426.3,-119447,-94933,-101576,-94055
2428.3,-118969,-94608,-101367,-93893
2430.3,-118697,-94501,-101129,-93663
2432.3,-118842,-94476,-100949,-93482
2434.3,-118890,-94366,-100872,-93441
2436.3,-118677,-94314,-100817,-93431
2438.3,-118452,-94328,-100669,-93285
2440.3,-118278,-94236,-100450,-93032
2442.3,-118144,-94110,-100265,-92808
2444.3,-118110,-94017,-100135,-92640
2446.3,-118024,-93713,-100012,-92484
2448.3,-117717,-93180,-99855,-92297
2450.3,-117418,-92845,-99630,-92023
2452.3,-117441,-92895,-99401,-91720
2454.3,-117695,-93051,-99313,-91570
2456.3,-117861,-93075,-99334,-91567
2458.3,-117802,-92929,-99236,-91458
2460.3,-117616,-92636,-98970,-91175
2462.3,-117512,-92394,-98762,-90963
2464.3,-117575,-92400,-98726,-90959
2466.3,-117634,-92483,-98742,-91025
2468.3,-117544,-92397,-98726,-91048
2470.3,-117461,-92286,-98692,-91044
2472.3,-117527,-92306,-98627,-90994
2474.3,-117574,-92262,-98572,-90925
2476.3,-117488,-92089,-98629,-90960
2478.3,-117440,-92048,-98750,-91092
2480.3,-117473,-92131,-98775,-91144
2482.3,-117421,-92029,-98720,-91080
2484.3,-117335,-91802,-98725,-91054
2486.3,-117377,-91770,-98785,-91120
2488.3,-117397,-91837,-98817,-91181
2490.3,-117238,-91748,-98832,-91192
2492.3,-117162,-91688,-98866,-91195
2494.3,-117392,-91925,-98921,-91248
2496.3,-117685,-92262,-99032,-91393
2498.3,-117763,-92400,-99209,-91593
2500.3,-117680,-92349,-99356,-91733
2502.3,-117569,-92241,-99415,-91775
2504.3,-117541,-92205,-99467,-91819
2506.3,-117769,-92405,-99597,-91948
2508.3,-118184,-92766,-99788,-92147
2510.3,-118348,-92900,-99943,-92327
2512.3,-118069,-92711,-99981,-92390
2514.3,-117788,-92669,-99978,-92392
2516.3,-117935,-93094,-100152,-92555
2518.3,-118313,-93603,-100515,-92918
2520.3,-118497,-93704,-100778,-93200
2522.3,-118440,-93551,-100775,-93226
2524.3,-118366,-93590,-100700,-93158
2526.3,-118400,-93804,-100755,-93171
2528.3,-118545,-93867,-100893,-93246
2530.3,-118708,-93754,-101010,-93343
2532.3,-118679,-93675,-101075,-93438
2534.3,-118425,-93676,-101093,-93464
2536.3,-118271,-93735,-101131,-93450
2538.3,-118474,-93950,-101267,-93512
2540.3,-118874,-94286,-101431,-93624
2542.3,-119201,-94504,-101479,-93641
2544.3,-119390,-94559,-101437,-93568
2546.3,-119422,-94636,-101457,-93557
2548.3,-119241,-94703,-101561,-93652
2550.3,-118955,-94563,-101647,-93749
2552.3,-118784,-94335,-101675,-93766
2554.3,-118781,-94297,-101678,-93730
2556.3,-118831,-94353,-101696,-93736
2558.3,-118881,-94282,-101782,-93863
2560.3,-118972,-94257,-101950,-94064
2562.3,-119085,-94488,-102075,-94167
2564.3,-119144,-94740,-102041,-94091
2566.3,-119150,-94770,-101954,-93979
2568.3,-119155,-94762,-101989,-93991
2570.3,-119152,-94888,-102115,-94083
2572.3,-119123,-94985,-102184,-94126
2574.3,-119117,-94933,-102175,-94108
2576.3,-119142,-94854,-102164,-94083
2578.3,-119088,-94814,-102178,-94080
2580.3,-118937,-94747,-102234,-94129
2582.3,-118847,-94678,-102332,-94230
2584.3,-118887,-94695,-102388,-94277
2586.3,-118919,-94796,-102327,-94197
2588.3,-118905,-94916,-102243,-94090
2590.3,-119005,-94994,-102257,-94075
2592.3,-119220,-94946,-102314,-94119
2594.3,-119288,-94742,-102289,-94141
2596.3,-119149,-94542,-102180,-94121
2598.3,-119104,-94551,-102072,-94064
2600.3,-119266,-94724,-102067,-94027
2602.3,-119343,-94809,-102197,-94078
2604.3,-119214,-94714,-102307,-94111
2606.3,-119174,-94605,-102216,-93971
2608.3,-119331,-94567,-102033,-93803
2610.3,-119397,-94492,-102019,-93868
2612.3,-119228,-94381,-102164,-94110
2614.3,-118984,-94371,-102258,-94280
2616.3,-118784,-94430,-102250,-94313
2618.3,-118736,-94443,-102229,-94280
2620.3,-118959,-94466,-102216,-94225
2622.3,-119206,-94491,-102176,-94180
2624.3,-119076,-94297,-102084,-94121
2626.3,-118735,-93942,-101952,-93992
2628.3,-118695,-93846,-101888,-93894
2630.3,-118971,-94057,-101982,-93973
2632.3,-119115,-94115,-102096,-94105
2634.3,-118883,-93827,-102036,-94064
2636.3,-118485,-93556,-101868,-93896
2638.3,-118336,-93607,-101790,-93807
2640.3,-118572,-93846,-101844,-93865
2642.3,-118789,-93991,-101964,-94027
2644.3,-118574,-93957,-102112,-94205
2646.3,-118150,-93863,-102222,-94265
2648.3,-118012,-93869,-102217,-94187
2650.3,-118208,-94048,-102169,-94142
2652.3,-118461,-94350,-102234,-94257
2654.3,-118681,-94634,-102407,-94450
2656.3,-118907,-94791,-102512,-94573
2658.3,-119023,-94836,-102454,-94563
2660.3,-118894,-94861,-102354,-94467
2662.3,-118680,-94936,-102390,-94449
2664.3,-118684,-95088,-102579,-94638
2666.3,-118885,-95283,-102779,-94921
2668.3,-118946,-95426,-102863,-95065
2670.3,-118800,-95471,-102857,-95050
2672.3,-118788,-95524,-102895,-95075
2674.3,-119032,-95681,-103045,-95225
2676.3,-119145,-95821,-103214,-95356
2678.3,-118854,-95783,-103275,-95356
2680.3,-118508,-95695,-103249,-95317
2682.3,-118579,-95774,-103236,-95347
2684.3,-118921,-95857,-103222,-95355
2686.3,-119044,-95645,-103118,-95228
2688.3,-118921,-95378,-102996,-95097
2690.3,-118902,-95543,-103057,-95203
2692.3,-118984,-95964,-103303,-95498
2694.3,-118908,-96067,-103502,-95675
2696.3,-118800,-95917,-103551,-95637
2698.3,-118945,-95999,-103584,-95590
2700.3,-119186,-96269,-103647,-95620
2702.3,-119210,-96357,-103618,-95608
2704.3,-119065,-96267,-103502,-95571
2706.3,-118927,-96150,-103451,-95634
2708.3,-118810,-96003,-103472,-95704
2710.3,-118739,-95925,-103456,-95627
2712.3,-118780,-96002,-103396,-95498
2714.3,-118879,-96024,-103340,-95453
2716.3,-118971,-95893,-103307,-95473
2718.3,-119064,-95864,-103334,-95556
2720.3,-119044,-95938,-103395,-95699
2722.3,-118822,-95802,-103382,-95755
2724.3,-118652,-95581,-103356,-95701
2726.3,-118843,-95741,-103508,-95762
2728.3,-119220,-96232,-103756,-95984
2730.3,-119319,-96610,-103850,-96164
2732.3,-119072,-96841,-103842,-96302
2734.3,-118903,-97166,-103940,-96578
2736.3,-119114,-97493,-104072,-96944
2738.3,-119495,-97580,-104063,-97204
2740.3,-119654,-97482,-103952,-97288
2742.3,-119530,-97334,-103799,-97188
2744.3,-119354,-97075,-103526,-96891
2746.3,-119196,-96626,-103097,-96432
2748.3,-118848,-96029,-102561,-95817
2750.3,-118267,-95353,-101922,-95014
2752.3,-117745,-94690,-101177,-94073
2754.3,-117386,-94037,-100395,-93058
2756.3,-116843,-93098,-99617,-91875
2758.3,-115943,-91604,-98775,-90411
2760.3,-115081,-89812,-97862,-88746
2762.3,-114493,-88203,-97065,-87099
2764.3,-113851,-86886,-96605,-85659
2766.3,-113089,-85860,-96504,-84558
2768.3,-112791,-85387,-96684,-83893
2770.3,-113210,-85473,-97110,-83638
2772.3,-113808,-85604,-97677,-83594
2774.3,-114213,-85625,-98202,-83644
2776.3,-114695,-86126,-98715,-84030
2778.3,-115401,-87445,-99426,-85019
2780.3,-116048,-89082,-100305,-86414
2782.3,-116581,-90519,-101100,-87882
2784.3,-117350,-91875,-101787,-89552
2786.3,-118461,-93413,-102584,-91659
2788.3,-119495,-94933,-103523,-93816
2790.3,-120032,-95989,-104352,-95327
2792.3,-120113,-96467,-104838,-96023
2794.33,-120004,-96688,-104990,-96277
2796.35,-119786,-96942,-105000,-96458
2798.38,-119476,-97183,-105057,-96719
2800.4,-119280,-97278,-105166,-97036
2802.4,-119284,-97234,-105156,-97206
2804.4,-119220,-97094,-104937,-97087
2806.4,-118986,-96879,-104676,-96859
2808.4,-118887,-96648,-104540,-96752
2810.4,-118992,-96456,-104408,-96687
2812.4,-119007,-96330,-104141,-96548
2814.4,-118922,-96313,-103903,-96492
2816.4,-118940,-96350,-103851,-96589
2818.4,-118936,-96306,-103834,-96619
2820.4,-118822,-96249,-103713,-96517
2822.4,-118884,-96377,-103600,-96505
2824.4,-119115,-96558,-103563,-96628
2826.4,-119100,-96444,-103496,-96679
2828.4,-118892,-96092,-103354,-96581
2830.4,-118872,-95899,-103213,-96428
2832.4,-118929,-95976,-103148,-96297
2834.4,-118838,-96088,-103197,-96224
2836.4,-118785,-96064,-103288,-96168
2838.4,-118708,-95813,-103219,-95970
2840.4,-118255,-95312,-102952,-95613
2842.4,-117781,-94917,-102760,-95382
2844.4,-117927,-95060,-102852,-95479
2846.4,-118326,-95473,-103043,-95686
2848.4,-118238,-95514,-103019,-95668
2850.4,-117899,-95207,-102773,-95441
2852.4,-117929,-95069,-102560,-95292
2854.4,-118201,-95157,-102514,-95354
2856.4,-118320,-95204,-102534,-95492
2858.4,-118343,-95262,-102498,-95557
2860.4,-118461,-95442,-102400,-95533
2862.4,-118664,-95554,-102285,-95461
2864.4,-118845,-95487,-102184,-95365
2866.4,-118830,-95385,-102136,-95283
2868.4,-118561,-95304,-102114,-95216
2870.4,-118334,-95197,-101993,-95082
2872.4,-118360,-95129,-101748,-94860
2874.4,-118352,-95101,-101556,-94695
2876.4,-118092,-94944,-101506,-94673
2878.4,-117822,-94628,-101417,-94619
2880.4,-117626,-94309,-101163,-94349
2882.4,-117346,-94095,-100897,-93966
2884.4,-117243,-94054,-100769,-93649
2886.4,-117623,-94250,-100691,-93396
2888.4,-118015,-94494,-100573,-93194
2890.4,-117863,-94448,-100460,-93143
2892.4,-117490,-94119,-100347,-93232
2894.4,-117382,-93872,-100165,-93284
2896.4,-117415,-93866,-99971,-93205
2898.4,-117428,-93860,-99853,-93061
2900.4,-117525,-93647,-99714,-92893
2902.4,-117555,-93368,-99466,-92692
2904.4,-117264,-93217,-99257,-92538
2906.4,-116867,-93100,-99226,-92550
2908.4,-116683,-92865,-99230,-92673
2910.4,-116606,-92649,-99113,-92705
2912.4,-116431,-92630,-98980,-92581
2914.4,-116255,-92647,-98960,-92452
2916.4,-116295,-92501,-98992,-92427
2918.4,-116566,-92323,-99016,-92480
2920.4,-116783,-92249,-99041,-92585
2922.4,-116666,-92169,-98997,-92702
2924.4,-116447,-92090,-98841,-92729
2926.4,-116573,-92212,-98761,-92696
2928.4,-116843,-92453,-98911,-92745
2930.4,-116664,-92482,-99118,-92830
2932.4,-116181,-92296,-99180,-92790
2934.4,-116085,-92176,-99182,-92703
2936.4,-116424,-92145,-99255,-92744
2938.4,-116674,-92030,-99347,-92853
2940.4,-116713,-91936,-99420,-92925
2942.4,-116834,-92167,-99556,-93043
2944.4,-117099,-92700,-99750,-93216
2946.4,-117354,-93132,-99893,-93286
2948.4,-117549,-93222,-99981,-93271
2950.4,-117698,-93172,-100087,-93356
2952.4,-117767,-93239,-100177,-93519
2954.4,-117721,-93340,-100190,-93580
2956.4,-117606,-93360,-100217,-93577
2958.4,-117570,-93459,-100394,-93691
2960.4,-117731,-93704,-100675,-93876
2962.4,-117994,-93814,-100877,-93929
2964.4,-118139,-93688,-100896,-93853
2966.4,-118088,-93649,-100813,-93852
2968.4,-117932,-93835,-100809,-94036
2970.4,-117811,-93959,-100972,-94306
2972.4,-117850,-93926,-101195,-94493
2974.4,-118003,-93993,-101324,-94521
2976.4,-118038,-94219,-101359,-94461
2978.4,-117907,-94380,-101395,-94436
2980.4,-117884,-94435,-101489,-94488
2982.4,-118079,-94517,-101642,-94556
2984.4,-118229,-94583,-101784,-94557
2986.4,-118205,-94545,-101802,-94473
2988.4,-118237,-94494,-101715,-94397
2990.4,-118374,-94459,-101688,-94432
2992.4,-118289,-94303,-101768,-94550
2994.4,-117930,-94090,-101845,-94655
2996.4,-117741,-94089,-101872,-94722
2998.4,-117925,-94322,-101914,-94770
3000.4,-118131,-94563,-102027,-94845
3002.4,-118183,-94731,-102211,-95035
3004.4,-118380,-94899,-102383,-95301
3006.4,-118770,-95050,-102427,-95409
3008.4,-118930,-95107,-102366,-95266
3010.4,-118771,-95095,-102327,-95082
3012.4,-118688,-95099,-102337,-95042
3014.4,-118726,-95083,-102345,-95087
3016.4,-118498,-94920,-102353,-95127
3018.4,-118113,-94731,-102379,-95179
3020.4,-118147,-94877,-102429,-95272
3022.4,-118546,-95301,-102557,-95382
3024.4,-118611,-95428,-102744,-95426
3026.4,-118218,-95103,-102819,-95323
3028.4,-117956,-94823,-102709,-95131
3030.4,-118033,-94814,-102575,-95042
3032.4,-118139,-94847,-102581,-95140
3034.4,-118253,-94917,-102689,-95293
3036.4,-118496,-95092,-102730,-95286
3038.4,-118583,-95079,-102596,-95044
3040.4,-118358,-94771,-102398,-94775
3042.4,-118265,-94553,-102355,-94764
3044.4,-118522,-94577,-102469,-94960
3046.4,-118672,-94586,-102531,-95030
3048.4,-118493,-94591,-102489,-94906
3050.4,-118394,-94812,-102489,-94835
3052.4,-118562,-95037,-102537,-94882
3054.4,-118663,-94900,-102521,-94878
3056.4,-118581,-94577,-102472,-94809
3058.4,-118578,-94522,-102477,-94781
3060.4,-118671,-94699,-102475,-94748
3062.4,-118603,-94668,-102414,-94657
3064.4,-118378,-94352,-102367,-94608
3066.4,-118208,-94119,-102341,-94629
3068.4,-118094,-94124,-102263,-94605
3070.4,-117965,-94136,-102185,-94523
3072.4,-117952,-94066,-102222,-94460
3074.4,-118115,-94049,-102320,-94395
3076.4,-118241,-94008,-102336,-94283
3078.4,-118198,-93745,-102261,-94176
3080.4,-118107,-93425,-102186,-94129
3082.4,-118028,-93394,-102200,-94201
3084.4,-117889,-93638,-102378,-94488
3086.4,-117767,-93877,-102657,-94873
3088.4,-117805,-93979,-102788,-94993
3090.4,-117907,-93991,-102653,-94775
3092.4,-117929,-94047,-102507,-94622
3094.4,-117999,-94333,-102622,-94825
3096.4,-118237,-94771,-102892,-95174
3098.4,-118438,-94933,-102997,-95286
3100.4,-118416,-94691,-102843,-95047
3102.4,-118327,-94555,-102658,-94726
3104.4,-118358,-94864,-102699,-94719
3106.4,-118440,-95220,-102955,-95055
3108.4,-118471,-95274,-103206,-95354
3110.4,-118483,-95278,-103306,-95381
3112.4,-118462,-95367,-103235,-95264
3114.4,-118312,-95226,-103054,-95178
3116.4,-118105,-94911,-102979,-95253
3118.4,-118102,-94994,-103212,-95595
3120.4,-118359,-95582,-103591,-96019
3122.4,-118608,-96111,-103786,-96185
3124.4,-118719,-96237,-103787,-96107
3126.4,-118882,-96143,-103772,-96023
3128.4,-119098,-96059,-103752,-95948
3130.4,-119036,-96040,-103731,-95866
3132.4,-118694,-96066,-103804,-95934
3134.4,-118561,-96074,-103889,-96116
3136.4,-118811,-96030,-103835,-96181
3138.4,-119027,-95991,-103756,-96169
3140.4,-119005,-96038,-103810,-96263
3142.4,-119035,-96198,-103897,-96373
3144.4,-119173,-96378,-103926,-96341
3146.4,-119099,-96370,-103958,-96231
3148.4,-118869,-96146,-103952,-96123
3150.4,-118905,-95989,-103823,-96035
3152.4,-119146,-96028,-103696,-96042
3154.4,-119121,-96062,-103732,-96142
3156.4,-118825,-96041,-103900,-96233
3158.4,-118682,-96106,-104090,-96320
3160.4,-118812,-96132,-104162,-96396
3162.4,-119023,-95976,-103986,-96314
3164.4,-119154,-95909,-103721,-96136
3166.4,-119076,-96087,-103702,-96144
3168.4,-118793,-96164,-103895,-96265
3170.4,-118599,-96026,-103984,-96198
3172.4,-118663,-96077,-103945,-96094
3174.4,-118730,-96457,-103983,-96311
3176.4,-118684,-96897,-104157,-96786
3178.4,-118820,-97307,-104419,-97276
3180.4,-119165,-97613,-104654,-97679
3182.4,-119283,-97458,-104606,-97814
3184.43,-119099,-96878,-104253,-97615
3186.45,-119059,-96483,-103911,-97397
3188.48,-119194,-96344,-103604,-97229
3190.5,-118998,-95858,-103017,-96664
3192.5,-118448,-95073,-102239,-95616
3194.5,-118126,-94678,-101607,-94531
3196.5,-118096,-94518,-100977,-93488
3198.5,-117735,-93727,-100101,-92246
3200.5,-116870,-92305,-99238,-90944
3202.5,-116042,-90936,-98547,-89665
3204.5,-115486,-89621,-97732,-88018
3206.5,-114896,-88037,-96874,-86037
3208.5,-114255,-86625,-96559,-84475
3210.5,-113970,-86001,-96871,-83640
3212.5,-114171,-86003,-97353,-83104
3214.5,-114592,-86181,-97863,-82704
3216.5,-115024,-86398,-98481,-82586
3218.5,-115471,-86633,-99007,-82625
3220.5,-115973,-86996,-99398,-82861
3222.5,-116437,-87829,-100010,-83775
3224.5,-116683,-89226,-100892,-85439
3226.5,-116867,-90878,-101729,-87417
3228.5,-117520,-92568,-102593,-89707
3230.5,-118715,-94162,-103768,-92433
3232.5,-119724,-95311,-104951,-94849
3234.5,-120012,-95861,-105570,-96064
3236.5,-119868,-96199,-105618,-96328
3238.5,-119678,-96653,-105537,-96498
3240.5,-119425,-97047,-105611,-96882
3242.5,-119144,-97168,-105813,-97279
3244.5,-119047,-97085,-105893,-97476
3246.5,-119107,-96889,-105610,-97358
3248.5,-119151,-96691,-105123,-97031
3250.5,-119204,-96719,-104842,-96796
3252.5,-119278,-96898,-104791,-96706
3254.5,-119185,-96753,-104600,-96512
3256.5,-118958,-96243,-104186,-96191
3258.5,-118943,-96008,-103882,-96052
3260.5,-119146,-96269,-103875,-96227
3262.5,-119136,-96426,-103982,-96454
3264.5,-118816,-96131,-103980,-96430
3266.5,-118564,-95811,-103847,-96110
3268.5,-118567,-95831,-103670,-95702
3270.5,-118706,-96020,-103532,-95496
3272.5,-118925,-96123,-103487,-95637
3274.5,-119145,-96112,-103516,-95928
3276.5,-119152,-96044,-103513,-95994
3278.5,-118929,-95942,-103416,-95732
3280.5,-118708,-95800,-103308,-95401
3282.5,-118651,-95702,-103276,-95186
3284.5,-118817,-95843,-103291,-95021
3286.5,-119159,-96163,-103320,-94886
3288.5,-119334,-96188,-103331,-94803
3290.5,-119045,-95697,-103177,-94619
3292.5,-118622,-95189,-102853,-94317
3294.5,-118600,-95173,-102665,-94253
3296.5,-118858,-95439,-102754,-94552
3298.5,-118892,-95537,-102800,-94785
3300.5,-118656,-95413,-102577,-94691
3302.5,-118421,-95172,-102305,-94582
3304.5,-118205,-94831,-102189,-94731
3306.5,-117989,-94599,-102143,-95018
3308.5,-118035,-94743,-102081,-95243
3310.5,-118393,-95028,-101997,-95307
3312.5,-118607,-94984,-101833,-95147
3314.5,-118409,-94698,-101599,-94864
3316.5,-118164,-94623,-101443,-94687
3318.5,-118220,-94762,-101408,-94631
3320.5,-118399,-94795,-101366,-94466
3322.5,-118459,-94744,-101259,-94105
3324.5,-118495,-94789,-101128,-93695
3326.5,-118559,-94786,-100954,-93324
3328.5,-118449,-94555,-100726,-92976
3330.5,-118126,-94259,-100544,-92731
3332.5,-117886,-94071,-100417,-92647
3334.5,-117876,-93879,-100219,-92575
3336.5,-117874,-93577,-99952,-92386
3338.5,-117725,-93243,-99751,-92144
3340.5,-117565,-93007,-99603,-91894
3342.5,-117501,-92990,-99427,-91640
3344.5,-117447,-93191,-99289,-91513
3346.5,-117360,-93327,-99236,-91569
3348.5,-117310,-93152,-99188,-91610
3350.5,-117300,-92873,-99139,-91495
3352.5,-117274,-92777,-99120,-91319
3354.5,-117270,-92764,-99025,-91172
3356.5,-117349,-92692,-98848,-91094
3358.5,-117423,-92690,-98809,-91172
3360.5,-117401,-92771,-98973,-91359
3362.5,-117406,-92759,-99115,-91429
3364.5,-117562,-92716,-99110,-91288
3366.5,-117704,-92797,-99066,-91103
3368.5,-117656,-92821,-99077,-91074
3370.5,-117560,-92624,-99134,-91238
3372.5,-117593,-92452,-99202,-91430
3374.5,-117658,-92484,-99237,-91426
3376.5,-117664,-92485,-99215,-91201
3378.5,-117681,-92343,-99207,-90975
3380.5,-117687,-92290,-99303,-90971
3382.5,-117648,-92377,-99462,-91192
3384.5,-117769,-92422,-99553,-91426
3386.5,-118131,-92522,-99572,-91519
3388.5,-118362,-92864,-99698,-91616
3390.5,-118180,-93193,-99995,-91879
3392.5,-117873,-93181,-100257,-92130
3394.5,-117816,-93001,-100325,-92156
3396.5,-117913,-92969,-100324,-92123
3398.5,-117902,-93038,-100392,-92244
3400.5,-117844,-93097,-100488,-92435
3402.5,-117955,-93233,-100601,-92630
3404.5,-118146,-93407,-100805,-92925
3406.5,-118144,-93447,-101008,-93239
3408.5,-118043,-93494,-101046,-93348
3410.5,-118193,-93793,-100990,-93263
3412.5,-118458,-94053,-101014,-93140
3414.5,-118330,-93793,-101092,-93010
3416.5,-117944,-93321,-101150,-92900
3418.5,-118053,-93459,-101270,-92941
3420.5,-118711,-94200,-101496,-93127
3422.5,-119040,-94628,-101694,-93239
3424.5,-118654,-94339,-101774,-93148
3426.5,-118230,-93977,-101821,-93011
3428.5,-118336,-94106,-101904,-93057
3430.5,-118695,-94477,-101969,-93265
3432.5,-118887,-94670,-101970,-93410
3434.5,-118881,-94674,-101960,-93414
3436.5,-118697,-94572,-102004,-93415
3438.5,-118336,-94308,-102067,-93448
3440.5,-118081,-94009,-102073,-93374
3442.5,-118225,-94006,-102043,-93205
3444.5,-118564,-94335,-102077,-93173
3446.5,-118669,-94621,-102191,-93372
3448.5,-118537,-94656,-102278,-93627
3450.5,-118574,-94700,-102288,-93787
3452.5,-118945,-94962,-102301,-93897
3454.5,-119263,-95172,-102361,-94018
3456.5,-119170,-95057,-102393,-94106
3458.5,-118918,-94865,-102372,-94124
3460.5,-118902,-94930,-102407,-94103
3462.5,-118983,-95089,-102546,-94058
3464.5,-118889,-95085,-102690,-93998
3466.5,-118828,-95074,-102768,-93957
3468.5,-118989,-95197,-102786,-93898
3470.5,-119068,-95201,-102729,-93763
3472.5,-118902,-94995,-102620,-93662
3474.5,-118844,-94896,-102592,-93745
3476.5,-119030,-94971,-102694,-93928
3478.5,-119078,-94882,-102765,-94023
3480.5,-118778,-94551,-102666,-93984
3482.5,-118401,-94232,-102484,-93854
3484.5,-118292,-94042,-102412,-93709
3486.5,-118534,-93996,-102492,-93648
3488.5,-118863,-94126,-102538,-93620
3490.5,-118859,-94238,-102393,-93506
3492.5,-118566,-94151,-102211,-93451
3494.5,-118532,-94126,-102257,-93657
3496.5,-118867,-94350,-102480,-93928
3498.5,-119006,-94448,-102605,-93985
3500.5,-118783,-94225,-102562,-93954
3502.5,-118706,-94124,-102519,-94032
3504.5,-118910,-94330,-102569,-94104
3506.5,-118928,-94383,-102627,-94022
3508.5,-118638,-94063,-102576,-93804
3510.5,-118462,-93731,-102389,-93470
3512.5,-118586,-93629,-102177,-93100
3514.5,-118754,-93638,-102107,-92961
3516.5,-118767,-93681,-102220,-93162
3518.5,-118682,-93748,-102377,-93405
3520.5,-118608,-93751,-102423,-93419
3522.5,-118595,-93688,-102372,-93347
3524.5,-118617,-93690,-102393,-93430
3526.5,-118556,-93754,-102568,-93594
3528.5,-118390,-93759,-102766,-93628
3530.5,-118287,-93765,-102855,-93568
3532.5,-118324,-93932,-102877,-93576
3534.5,-118422,-94227,-102886,-93594
3536.5,-118640,-94443,-102831,-93483
3538.5,-118956,-94412,-102729,-93339
3540.5,-118989,-94166,-102687,-93334
3542.5,-118673,-94054,-102729,-93414
3544.5,-118599,-94414,-102806,-93493
3546.5,-118930,-94945,-102923,-93625
3548.5,-119054,-95058,-103056,-93782
3550.5,-118859,-94922,-103145,-93831
3552.5,-118878,-95150,-103227,-93827
3554.5,-119043,-95588,-103356,-93906
3556.5,-118898,-95672,-103463,-94006
3558.5,-118708,-95581,-103518,-94060
3560.5,-118850,-95709,-103611,-94167
3562.5,-118953,-95764,-103727,-94300
3564.5,-118775,-95539,-103736,-94273
3566.5,-118789,-95559,-103699,-94142
3568.5,-119161,-96031,-103799,-94156
3570.5,-119351,-96308,-103973,-94267
3572.5,-119135,-96017,-103967,-94193
3574.5,-118938,-95672,-103761,-93946
3576.5,-119083,-95776,-103636,-93856
3578.5,-119436,-96172,-103762,-94054
3580.5,-119699,-96422,-103971,-94268
3582.5,-119649,-96327,-104008,-94221
3584.53,-119372,-96026,-103865,-94012
3586.55,-119281,-95839,-103741,-93905
3588.58,-119529,-95917,-103741,-93924
3590.6,-119677,-96066,-103793,-93895
3592.6,-119418,-96077,-103825,-93788
3594.6,-119103,-96004,-103838,-93732
3596.6,-119057,-95946,-103820,-93750
3598.6,-119102,-95878,-103773,-93770
3600.6,-119128,-95848,-103801,-93820
3602.6,-119266,-95949,-103938,-93941
3604.6,-119355,-96054,-104015,-93988
3606.6,-119132,-95982,-103899,-93825
3608.6,-118857,-95810,-103742,-93586
3610.6,-118871,-95678,-103741,-93470
3612.6,-118953,-95597,-103855,-93478
3614.6,-118854,-95668,-103965,-93567
3616.6,-118809,-96060,-104085,-93791
3618.6,-119053,-96658,-104240,-94136
3620.6,-119483,-97183,-104380,-94494
3622.6,-119936,-97545,-104473,-94829
3624.6,-120235,-97692,-104505,-95122
3626.6,-120192,-97486,-104423,-95248
3628.6,-119916,-97014,-104146,-95052
3630.6,-119688,-96565,-103617,-94466
3632.6,-119466,-96168,-102875,-93556
3634.6,-119050,-95604,-102068,-92512
3636.6,-118534,-94843,-101283,-91456
3638.6,-118101,-94017,-100455,-90283
3640.6,-117679,-93088,-99572,-88892
3642.6,-117139,-91852,-98719,-87338
3644.6,-116459,-90200,-97876,-85602
3646.6,-115646,-88271,-97038,-83659
3648.6,-114857,-86453,-96502,-81854
3650.6,-114445,-85200,-96562,-80642
3652.6,-114527,-84709,-97044,-80011
3654.6,-114781,-84805,-97593,-79645
3656.6,-114974,-85173,-98092,-79418
3658.6,-115260,-85649,-98524,-79321
3660.6,-115765,-86320,-98898,-79410
3662.6,-116339,-87345,-99447,-80017
3664.6,-116831,-88651,-100326,-81370
3666.6,-117253,-89992,-101235,-83119
3668.6,-117690,-91351,-101977,-85003
3670.6,-118272,-92907,-102947,-87395
3672.6,-119029,-94480,-104336,-90274
3674.6,-119657,-95581,-105463,-92552
3676.6,-119810,-96125,-105751,-93452
3678.6,-119594,-96464,-105593,-93572
3680.6,-119384,-96709,-105566,-93760
3682.6,-119353,-96707,-105575,-94003
3684.6,-119508,-96641,-105388,-94031
3686.6,-119819,-96824,-105162,-93941
3688.6,-119997,-97021,-104985,-93766
3690.6,-119748,-96805,-104653,-93324
3692.6,-119372,-96401,-104216,-92745
3694.6,-119382,-96345,-104041,-92459
3696.6,-119612,-96541,-104174,-92565
3698.6,-119557,-96502,-104217,-92711
3700.6,-119316,-96228,-103960,-92643
3702.6,-119268,-96066,-103661,-92510
3704.6,-119326,-96052,-103595,-92560
3706.6,-119294,-96014,-103672,-92759
3708.6,-119275,-95952,-103651,-92867
3710.6,-119266,-95881,-103468,-92776
3712.6,-119144,-95746,-103243,-92602
3714.6,-119049,-95603,-103089,-92483
3716.6,-119049,-95488,-103024,-92434
3718.6,-118948,-95330,-103024,-92423
3720.6,-118901,-95290,-103074,-92445
3722.6,-119189,-95559,-103126,-92426
3724.6,-119370,-95744,-103087,-92214
3726.6,-119014,-95399,-102940,-91828
3728.6,-118726,-94972,-102806,-91513
3730.6,-119011,-95108,-102762,-91370
3732.6,-119282,-95491,-102699,-91211
3734.6,-119187,-95498,-102511,-90930
3736.6,-119244,-95275,-102286,-90680
3738.6,-119460,-95198,-102175,-90611
3740.6,-119233,-95150,-102193,-90703
3742.6,-118781,-95009,-102213,-90860
3744.6,-118801,-94987,-102126,-90974
3746.6,-119082,-95103,-101983,-91029
3748.6,-118997,-95073,-101903,-91124
3750.6,-118669,-94868,-101838,-91245
3752.6,-118525,-94760,-101647,-91226
3754.6,-118517,-94794,-101391,-91078
3756.6,-118458,-94726,-101217,-90974
3758.6,-118387,-94428,-101047,-90869
3760.6,-118291,-94053,-100768,-90595
3762.6,-118131,-93859,-100511,-90254
3764.6,-118146,-94021,-100395,-90050
3766.6,-118494,-94390,-100300,-89928
3768.6,-118777,-94496,-100147,-89740
3770.6,-118601,-94112,-100003,-89487
3772.6,-118262,-93655,-99835,-89194
3774.6,-118192,-93596,-99588,-88880
3776.6,-118249,-93813,-99429,-88690
3778.6,-118208,-93925,-99456,-88693
3780.6,-118209,-93832,-99425,-88656
3782.6,-118263,-93626,-99162,-88403
3784.6,-118163,-93404,-98916,-88145
3786.6,-118000,-93258,-98892,-88090
3788.6,-117979,-93166,-98883,-88074
3790.6,-117956,-93011,-98716,-87938
3792.6,-117794,-92820,-98573,-87847
3794.6,-117661,-92686,-98591,-87914
3796.6,-117640,-92559,-98611,-87958
3798.6,-117600,-92371,-98533,-87865
3800.6,-117546,-92212,-98490,-87789
3802.6,-117596,-92190,-98579,-87871
3804.6,-117687,-92267,-98731,-88058
3806.6,-117679,-92333,-98842,-88203
3808.6,-117659,-92382,-98873,-88216
3810.6,-117830,-92513,-98889,-88162
3812.6,-118060,-92629,-98959,-88153
3814.6,-117956,-92448,-99000,-88120
3816.6,-117605,-92055,-98918,-87960
3818.6,-117580,-91947,-98861,-87820
3820.6,-117924,-92179,-99003,-87884
3822.6,-118055,-92269,-99228,-88024
3824.6,-117899,-92150,-99342,-88046
3826.6,-117924,-92262,-99390,-88018
3828.6,-118083,-92608,-99498,-88077
3830.6,-117971,-92753,-99664,-88209
3832.6,-117755,-92671,-99851,-88375
3834.6,-117835,-92676,-100041,-88555
3836.6,-118051,-92763,-100173,-88689
3838.6,-118082,-92791,-100226,-88772
3840.6,-118072,-92919,-100295,-88905
3842.6,-118219,-93221,-100430,-89111
3844.6,-118297,-93380,-100558,-89286
3846.6,-118162,-93309,-100638,-89413
3848.6,-118158,-93410,-100722,-89564
3850.6,-118436,-93700,-100780,-89682
3852.6,-118555,-93643,-100715,-89648
3854.6,-118371,-93292,-100633,-89580
3856.6,-118397,-93408,-100794,-89750
3858.6,-118682,-94036,-101172,-90109
3860.6,-118674,-94395,-101390,-90280
3862.6,-118515,-94321,-101298,-90138
3864.6,-118827,-94313,-101199,-89992
3866.6,-119240,-94338,-101297,-90043
3868.6,-118957,-94075,-101390,-90101
3870.6,-118310,-93839,-101344,-90008
3872.6,-118127,-94011,-101335,-89924
3874.6,-118391,-94290,-101458,-89982
3876.6,-118651,-94325,-101566,-90078
3878.6,-118750,-94278,-101596,-90129
3880.6,-118661,-94319,-101631,-90179
3882.6,-118443,-94339,-101683,-90250
3884.6,-118333,-94308,-101737,-90356
3886.6,-118383,-94348,-101836,-90532
3888.6,-118436,-94476,-101927,-90694
3890.6,-118527,-94574,-101888,-90696
3892.6,-118743,-94590,-101774,-90600
3894.6,-118909,-94585,-101742,-90600
3896.6,-118815,-94539,-101788,-90724
3898.6,-118535,-94359,-101819,-90857
3900.6,-118352,-94191,-101847,-90967
3902.6,-118440,-94313,-101900,-91072
3904.6,-118589,-94555,-101919,-91127
3906.6,-118518,-94496,-101907,-91126
3908.6,-118457,-94315,-101962,-91158
3910.6,-118762,-94537,-102087,-91239
3912.6,-119115,-94996,-102153,-91277
3914.6,-119037,-95094,-102114,-91233
3916.6,-118808,-94856,-102069,-91181
3918.6,-118892,-94705,-102055,-91158
3920.6,-119042,-94609,-101988,-91095
3922.6,-118879,-94360,-101850,-90962
3924.6,-118673,-94189,-101780,-90864
3926.6,-118815,-94342,-101859,-90897
3928.6,-119087,-94531,-101952,-90978
3930.6,-119039,-94384,-101914,-90960
3932.6,-118727,-94049,-101821,-90877
3934.6,-118620,-93922,-101815,-90860
3936.6,-118873,-94061,-101858,-90896
3938.6,-119093,-94188,-101853,-90893
3940.6,-118933,-94105,-101846,-90874
3942.6,-118593,-93897,-101872,-90872
3944.6,-118475,-93767,-101832,-90811
3946.6,-118615,-93803,-101721,-90699
3948.6,-118732,-93886,-101685,-90670
3950.6,-118674,-93811,-101712,-90694
3952.6,-118524,-93531,-101634,-90598
3954.63,-118387,-93261,-101489,-90426
3956.65,-118327,-93244,-101480,-90389
3958.68,-118414,-93431,-101601,-90507
3960.7,-118606,-93548,-101693,-90649
3962.7,-118751,-93496,-101740,-90764
3964.7,-118782,-93458,-101785,-90838
3966.7,-118722,-93525,-101806,-90846
3968.7,-118562,-93547,-101838,-90862
3970.7,-118406,-93517,-101971,-90973
3972.7,-118459,-93667,-102132,-91099
3974.7,-118661,-94009,-102157,-91109
3976.7,-118733,-94252,-102071,-91035
3978.7,-118661,-94249,-102029,-91002
3980.7,-118623,-94104,-102051,-91021
3982.7,-118591,-93922,-102038,-91017
3984.7,-118531,-93859,-102023,-91021
3986.7,-118627,-94127,-102142,-91156
3988.7,-118886,-94626,-102351,-91385
3990.7,-119079,-94988,-102459,-91514
3992.7,-119189,-95121,-102469,-91515
3994.7,-119294,-95221,-102539,-91554
3996.7,-119254,-95332,-102642,-91646
3998.7,-119121,-95401,-102668,-91678
4000.7,-119239,-95518,-102732,-91740
4002.7,-119492,-95677,-102954,-91967
4004.7,-119358,-95693,-103137,-92184
4006.7,-118925,-95581,-103112,-92192
4008.7,-118769,-95564,-103080,-92167
4010.7,-118916,-95652,-103230,-92313
4012.7,-118959,-95668,-103367,-92446
4014.7,-118892,-95628,-103268,-92325
4016.7,-118974,-95670,-103048,-92086
4018.7,-119144,-95735,-102946,-91995
4020.7,-119170,-95652,-103002,-92069
4022.7,-119035,-95479,-103113,-92174
4024.7,-118903,-95461,-103199,-92239
4026.7,-118929,-95644,-103215,-92238
4028.7,-119155,-95799,-103159,-92162
4030.7,-119420,-95790,-103091,-92082
4032.7,-119464,-95727,-103069,-92067
4034.7,-119245,-95703,-103081,-92092
4036.7,-119039,-95674,-103105,-92120
4038.7,-119061,-95600,-103142,-92158
4040.7,-119169,-95522,-103157,-92175
4042.7,-119167,-95532,-103130,-92154
4044.7,-119108,-95637,-103140,-92173
4046.7,-119030,-95623,-103213,-92265
4048.7,-118850,-95415,-103241,-92313
4050.7,-118746,-95424,-103195,-92273
4052.7,-118905,-95764,-103155,-92211
4054.7,-118938,-95699,-103078,-92114
4056.7,-118555,-95050,-102939,-92017
4058.7,-118426,-95060,-103018,-92213
4060.7,-119113,-96335,-103486,-92850
4062.7,-119870,-97485,-103965,-93544
4064.7,-119855,-97383,-104049,-93887
4066.7,-119536,-96875,-103901,-93960
4068.7,-119652,-96889,-103790,-93948
4070.7,-119916,-96937,-103553,-93707
4072.7,-119773,-96484,-103002,-93102
4074.7,-119348,-95857,-102328,-92306
4076.7,-118956,-95267,-101716,-91475
4078.7,-118559,-94499,-101041,-90519
4080.7,-118084,-93571,-100215,-89350
4082.7,-117592,-92545,-99354,-88000
4084.7,-117054,-91084,-98497,-86424
4086.7,-116383,-89008,-97572,-84557
4088.7,-115635,-86761,-96714,-82606
4090.7,-114993,-84968,-96219,-80954
4092.7,-114692,-83958,-96211,-79808
4094.7,-114856,-83732,-96614,-79177
4096.7,-115263,-83982,-97279,-79015
4098.7,-115564,-84324,-97916,-79096
4100.7,-115798,-84727,-98250,-79102
4102.7,-116238,-85461,-98467,-79168
4104.7,-116812,-86659,-99049,-79865
4106.7,-117212,-88204,-100032,-81339
4108.7,-117447,-89881,-100996,-83107
4110.7,-117840,-91501,-101853,-85000
4112.7,-118562,-93049,-102951,-87414
4114.7,-119357,-94555,-104266,-90190
4116.7,-119778,-95711,-105166,-92247
4118.7,-119739,-96165,-105304,-92976
4120.7,-119624,-96197,-105132,-93066
4122.7,-119683,-96360,-105145,-93322
4124.7,-119761,-96591,-105171,-93576
4126.7,-119759,-96512,-104880,-93411
4128.7,-119735,-96228,-104436,-93026
4130.7,-119607,-96074,-104119,-92743
4132.7,-119408,-96088,-103855,-92454
4134.7,-119477,-96199,-103573,-92095
4136.7,-119744,-96329,-103435,-91910
4138.7,-119616,-96235,-103437,-91930
4140.7,-119097,-95871,-103348,-91874
4142.7,-118943,-95638,-103146,-91676
4144.7,-119327,-95751,-103008,-91552
4146.7,-119600,-95883,-102985,-91599
4148.7,-119515,-95815,-103028,-91755
4150.7,-119445,-95757,-103089,-91939
4152.7,-119474,-95823,-103049,-92021
4154.7,-119419,-95855,-102857,-91945
4156.7,-119428,-95785,-102695,-91874
4158.7,-119589,-95679,-102677,-91920
4160.7,-119538,-95554,-102650,-91948
4162.7,-119187,-95458,-102532,-91865
4164.7,-119050,-95472,-102460,-91782
4166.7,-119337,-95530,-102462,-91741
4168.7,-119567,-95465,-102412,-91646
4170.7,-119420,-95255,-102316,-91497
4172.7,-119147,-95052,-102243,-91346
4174.7,-118996,-95002,-102126,-91145
4176.7,-118971,-95083,-101945,-90899
4178.7,-119081,-95133,-101831,-90735
4180.7,-119276,-95079,-101804,-90672
4182.7,-119359,-95043,-101741,-90599
4184.7,-119281,-95096,-101634,-90501
4186.7,-119200,-95119,-101550,-90431
4188.7,-119167,-95053,-101448,-90356
4190.7,-119153,-94988,-101286,-90242
4192.7,-119216,-94907,-101118,-90121
4194.7,-119299,-94701,-100947,-89980
4196.7,-119231,-94484,-100734,-89791
4198.7,-119079,-94479,-100549,-89639
4200.7,-119053,-94578,-100462,-89593
4202.7,-119103,-94479,-100387,-89550
4204.7,-119050,-94228,-100242,-89411
4206.7,-118892,-94156,-100073,-89228
4208.7,-118718,-94270,-99915,-89061
4210.7,-118620,-94237,-99708,-88855
4212.7,-118667,-93975,-99434,-88569
4214.7,-118722,-93765,-99179,-88283
4216.7,-118572,-93743,-99048,-88121
4218.7,-118349,-93723,-99045,-88092
4220.7,-118337,-93567,-99038,-88069
4222.7,-118450,-93377,-98917,-87952
4224.7,-118416,-93245,-98748,-87796
4226.7,-118265,-93110,-98646,-87692
4228.7,-118200,-92950,-98581,-87620
4230.7,-118237,-92879,-98488,-87529
4232.7,-118254,-92919,-98405,-87431
4234.7,-118202,-92893,-98360,-87342
4236.7,-118158,-92735,-98322,-87274
4238.7,-118190,-92620,-98301,-87266
4240.7,-118184,-92605,-98319,-87298
4242.7,-117958,-92472,-98304,-87263
4244.7,-117635,-92154,-98216,-87141
4246.7,-117575,-91948,-98162,-87065
4248.7,-117843,-92081,-98253,-87142
4250.7,-118128,-92374,-98442,-87312
4252.7,-118254,-92536,-98600,-87438
4254.7,-118308,-92502,-98669,-87454
4256.7,-118242,-92334,-98660,-87387
4258.7,-117950,-92088,-98597,-87285
4260.7,-117694,-91898,-98535,-87207
4262.7,-117800,-91907,-98584,-87247
4264.7,-118091,-92074,-98797,-87454
4266.7,-118255,-92277,-99057,-87708
4268.7,-118360,-92490,-99199,-87836
4270.7,-118429,-92627,-99228,-87848
4272.7,-118249,-92539,-99287,-87912
4274.7,-118000,-92400,-99445,-88104
4276.7,-118133,-92549,-99623,-88329
4278.7,-118454,-92854,-99739,-88489
4280.7,-118456,-92936,-99828,-88613
4282.7,-118318,-92910,-99958,-88774
4284.7,-118463,-93093,-100117,-88968
4286.7,-118695,-93329,-100260,-89146
4288.7,-118716,-93410,-100370,-89288
4290.7,-118713,-93532,-100457,-89399
4292.7,-118833,-93752,-100550,-89510
4294.7,-118860,-93758,-100669,-89639
4296.7,-118724,-93560,-100753,-89719
4298.7,-118672,-93594,-100749,-89707
4300.7,-118867,-93938,-100758,-89716
4302.7,-119173,-94187,-100855,-89823
4304.7,-119312,-94119,-100910,-89881
4306.7,-119196,-93948,-100856,-89820
4308.7,-119069,-93933,-100865,-89820
4310.7,-119116,-94075,-101020,-89963
4312.7,-119139,-94201,-101151,-90069
4314.7,-118996,-94193,-101158,-90056
4316.7,-118948,-94116,-101134,-90041
4318.7,-119129,-94082,-101143,-90072
4320.7,-119193,-94061,-101162,-90097
4322.7,-118908,-93985,-101205,-90154
4324.7,-118590,-94004,-101318,-90306
4326.7,-118614,-94266,-101464,-90488
4328.7,-118898,-94519,-101541,-90577
4330.7,-119155,-94430,-101527,-90581
4332.7,-119296,-94207,-101535,-90619
4334.73,-119330,-94247,-101617,-90714
4336.75,-119226,-94417,-101666,-90761
4338.78,-119068,-94380,-101650,-90753
4340.8,-119003,-94263,-101679,-90791
4342.8,-118985,-94343,-101748,-90851
4344.8,-118981,-94561,-101736,-90823
4346.8,-119129,-94743,-101698,-90774
4348.8,-119309,-94820,-101783,-90845
4350.8,-119184,-94731,-101932,-90981
4352.8,-118921,-94568,-101974,-91017
4354.8,-119023,-94609,-101904,-90936
4356.8,-119390,-94860,-101848,-90856
4358.8,-119499,-94979,-101866,-90852
4360.8,-119334,-94829,-101912,-90894
4362.8,-119276,-94656,-101939,-90927
4364.8,-119372,-94609,-101927,-90928
4366.8,-119421,-94546,-101863,-90882
4368.8,-119395,-94388,-101775,-90805
4370.8,-119363,-94268,-101749,-90775
4372.8,-119321,-94237,-101775,-90803
4374.8,-119272,-94176,-101712,-90751
4376.8,-119257,-94078,-101534,-90564
4378.8,-119289,-94083,-101415,-90420
4380.8,-119372,-94162,-101445,-90452
4382.8,-119468,-94148,-101522,-90561
4384.8,-119450,-94058,-101584,-90640
4386.8,-119285,-94029,-101644,-90696
4388.8,-119181,-94009,-101647,-90705
4390.8,-119304,-93910,-101575,-90644
4392.8,-119442,-93838,-101507,-90568
4394.8,-119259,-93862,-101450,-90492
4396.8,-118843,-93835,-101353,-90383
4398.8,-118641,-93718,-101312,-90328
4400.8,-118815,-93673,-101413,-90419
4402.8,-119037,-93681,-101507,-90526
4404.8,-119038,-93567,-101448,-90493
4406.8,-118973,-93431,-101340,-90394
4408.8,-119014,-93495,-101316,-90362
4410.8,-118992,-93631,-101374,-90415
4412.8,-118774,-93625,-101526,-90564
4414.8,-118593,-93623,-101765,-90787
4416.8,-118683,-93801,-101914,-90911
4418.8,-118936,-94003,-101846,-90827
4420.8,-119149,-94087,-101708,-90685
4422.8,-119284,-94154,-101688,-90663
4424.8,-119334,-94244,-101753,-90737
4426.8,-119284,-94325,-101804,-90817
4428.8,-119220,-94490,-101832,-90877
4430.8,-119218,-94724,-101846,-90902
4432.8,-119223,-94801,-101863,-90919
4434.8,-119221,-94714,-101947,-91021
4436.8,-119254,-94714,-102086,-91186
4438.8,-119257,-94851,-102179,-91278
4440.8,-119263,-95067,-102245,-91324
4442.8,-119479,-95442,-102392,-91464
4444.8,-119727,-95764,-102529,-91616
4446.8,-119475,-95577,-102501,-91603
4448.8,-118893,-95150,-102427,-91526
4450.8,-118859,-95278,-102511,-91601
4452.8,-119501,-95882,-102692,-91788
4454.8,-119991,-96143,-102802,-91920
4456.8,-119974,-95975,-102822,-91952
4458.8,-119884,-95932,-102768,-91887
4460.8,-119938,-96029,-102653,-91757
4462.8,-119970,-95957,-102609,-91716
4464.8,-119934,-95844,-102723,-91846
4466.8,-119877,-95859,-102861,-91990
4468.8,-119836,-95862,-102890,-92009
4470.8,-119901,-95861,-102870,-91989
4472.8,-119961,-96002,-102885,-92030
4474.8,-119774,-96127,-102925,-92098
4476.8,-119553,-96072,-102956,-92130
4478.8,-119657,-95989,-102932,-92096
4480.8,-119761,-95880,-102813,-91987
4482.8,-119433,-95569,-102680,-91877
4484.8,-119119,-95314,-102679,-91884
4486.8,-119407,-95530,-102790,-91998
4488.8,-119928,-95956,-102846,-92068
4490.8,-120031,-96063,-102794,-92020
4492.8,-119822,-95946,-102776,-91988
4494.8,-119705,-95932,-102874,-92085
4496.8,-119676,-95908,-102952,-92189
4498.8,-119629,-95788,-102902,-92174
4500.8,-119677,-95905,-102881,-92202
4502.8,-119819,-96389,-103068,-92473
4504.8,-119887,-96878,-103349,-92885
4506.8,-119887,-97116,-103504,-93236
4508.8,-119918,-97169,-103529,-93532
4510.8,-119915,-97103,-103517,-93786
4512.8,-119861,-96956,-103409,-93824
4514.8,-119891,-96771,-103109,-93553
4516.8,-119912,-96421,-102653,-93090
4518.8,-119609,-95797,-102102,-92482
4520.8,-118982,-95099,-101429,-91640
4522.8,-118386,-94504,-100655,-90617
4524.8,-118037,-93805,-99918,-89600
4526.8,-117794,-92719,-99284,-88577
4528.8,-117353,-91172,-98563,-87252
4530.8,-116556,-89179,-97537,-85407
4532.8,-115659,-86940,-96391,-83292
4534.8,-115111,-85018,-95680,-81525
4536.8,-114926,-83897,-95720,-80491
4538.8,-114755,-83528,-96277,-80047
4540.8,-114621,-83625,-96967,-79903
4542.8,-114895,-84068,-97574,-79917
4544.8,-115511,-84775,-97991,-79980
4546.8,-116082,-85659,-98334,-80145
4548.8,-116639,-86851,-98968,-80802
4550.8,-117329,-88426,-99935,-82101
4552.8,-117810,-90046,-100770,-83580
4554.8,-117945,-91411,-101372,-85069
4556.8,-118408,-92746,-102296,-87145
4558.8,-119491,-94213,-103621,-89832
4560.8,-120306,-95382,-104537,-91938
4562.8,-120223,-95935,-104626,-92683
4564.8,-119906,-96273,-104487,-92786
4566.8,-120047,-96783,-104596,-93083
4568.8,-120365,-97169,-104623,-93337
4570.8,-120466,-97085,-104284,-93152
4572.8,-120463,-96823,-103881,-92825
4574.8,-120443,-96818,-103660,-92665
4576.8,-120324,-96939,-103448,-92484
4578.8,-120180,-96778,-103150,-92173
4580.8,-120096,-96339,-102978,-91993
4582.8,-119979,-96000,-103000,-92032
4584.8,-119845,-95980,-102968,-92027
4586.8,-119804,-96123,-102784,-91883
4588.8,-119782,-96165,-102688,-91842
4590.8,-119709,-96067,-102784,-92004
4592.8,-119729,-96025,-102808,-92121
4594.8,-119848,-96128,-102589,-92021
4596.8,-119841,-96171,-102347,-91861
4598.8,-119705,-96001,-102303,-91838
4600.8,-119667,-95783,-102349,-91914
4602.8,-119710,-95676,-102299,-91937
4604.8,-119638,-95583,-102156,-91845
4606.8,-119490,-95436,-102018,-91704
4608.8,-119424,-95369,-101960,-91629
4610.8,-119461,-95457,-102004,-91663
4612.8,-119556,-95582,-102085,-91723
4614.8,-119619,-95622,-102082,-91680
4616.8,-119534,-95583,-101956,-91491
4618.8,-119409,-95548,-101787,-91240
4620.8,-119494,-95568,-101668,-91076
4622.8,-119662,-95568,-101613,-91047
4624.8,-119533,-95397,-101544,-91015
4626.8,-119199,-95098,-101387,-90864
4628.8,-119131,-94975,-101224,-90719
4630.8,-119369,-95176,-101195,-90748
4632.8,-119475,-95410,-101242,-90854
4634.8,-119312,-95376,-101176,-90823
4636.8,-119190,-95195,-100974,-90656
4638.8,-119227,-95053,-100755,-90474
4640.8,-119202,-94877,-100552,-90292
4642.8,-119083,-94661,-100362,-90119
4644.8,-119057,-94554,-100255,-90042
4646.8,-119013,-94464,-100202,-90020
4648.8,-118717,-94251,-100062,-89893
4650.8,-118440,-94158,-99863,-89699
4652.8,-118595,-94357,-99773,-89619
4654.8,-118934,-94513,-99740,-89597
4656.8,-118935,-94360,-99535,-89403
4658.8,-118708,-94112,-99166,-89054
4660.8,-118673,-93975,-98899,-88805
4662.8,-118723,-93884,-98854,-88778
4664.8,-118522,-93738,-98854,-88807
4666.8,-118223,-93480,-98664,-88653
4668.8,-118158,-93160,-98310,-88317
4670.8,-118218,-92997,-98096,-88105
4672.8,-118178,-92998,-98187,-88201
4674.8,-118165,-92863,-98330,-88349
4676.8,-118283,-92653,-98250,-88262
4678.8,-118320,-92798,-98075,-88065
4680.8,-118234,-93149,-97996,-87962
4682.8,-118309,-93080,-97927,-87880
4684.8,-118572,-92672,-97821,-87779
4686.8,-118665,-92575,-97818,-87776
4688.8,-118427,-92752,-97880,-87808
4690.8,-118075,-92646,-97834,-87720
4692.8,-117863,-92347,-97791,-87659
4694.8,-117883,-92347,-97941,-87815
4696.8,-118031,-92497,-98116,-88003
4698.8,-118067,-92378,-98096,-87975
4700.8,-117959,-92213,-98011,-87837
4702.8,-117987,-92382,-98051,-87794
4704.8,-118233,-92585,-98143,-87834
4706.8,-118352,-92420,-98189,-87885
4708.8,-118162,-92157,-98255,-87980
4710.8,-117985,-92196,-98394,-88136
4712.8,-118102,-92389,-98545,-88285
4714.83,-118346,-92470,-98676,-88397
4716.85,-118447,-92543,-98820,-88514
4718.88,-118383,-92720,-98958,-88643
4720.9,-118278,-92830,-99033,-88742
4722.9,-118254,-92758,-99097,-88837
4724.9,-118375,-92691,-99261,-89007
4726.9,-118576,-92834,-99476,-89210
4728.9,-118712,-93103,-99578,-89311
4730.9,-118733,-93264,-99564,-89315
4732.9,-118652,-93265,-99595,-89367
4734.9,-118480,-93261,-99724,-89507
4736.9,-118351,-93303,-99849,-89633
4738.9,-118435,-93271,-99920,-89704
4740.9,-118587,-93183,-99978,-89774
4742.9,-118556,-93264,-100049,-89864
4744.9,-118541,-93574,-100136,-89962
4746.9,-118843,-93859,-100270,-90097
4748.9,-119171,-93931,-100442,-90276
4750.9,-119144,-93951,-100566,-90410
4752.9,-119127,-94099,-100558,-90397
4754.9,-119534,-94237,-100462,-90286
4756.9,-119902,-94216,-100455,-90282
4758.9,-119686,-94212,-100651,-90490
4760.9,-119245,-94323,-100873,-90712
4762.9,-119100,-94271,-100853,-90693
4764.9,-119087,-93979,-100678,-90531
4766.9,-118950,-93822,-100670,-90537
4768.9,-118842,-93880,-100828,-90702
4770.9,-118875,-93839,-100884,-90770
4772.9,-118961,-93834,-100850,-90753
4774.9,-119104,-94232,-100951,-90859
4776.9,-119336,-94702,-101140,-91033
4778.9,-119596,-94742,-101223,-91108
4780.9,-119802,-94636,-101244,-91139
4782.9,-119804,-94770,-101300,-91203
4784.9,-119560,-94876,-101311,-91205
4786.9,-119446,-94787,-101254,-91150
4788.9,-119745,-94799,-101258,-91181
4790.9,-120020,-94885,-101347,-91280
4792.9,-119821,-94741,-101410,-91304
4794.9,-119516,-94582,-101397,-91246
4796.9,-119550,-94740,-101351,-91184
4798.9,-119656,-94926,-101342,-91160
4800.9,-119535,-94804,-101406,-91190
4802.9,-119442,-94662,-101458,-91224
4804.9,-119540,-94775,-101392,-91171
4806.9,-119586,-94881,-101302,-91088
4808.9,-119529,-94777,-101338,-91100
4810.9,-119600,-94672,-101409,-91137
4812.9,-119736,-94627,-101360,-91079
4814.9,-119685,-94444,-101261,-90998
4816.9,-119552,-94233,-101226,-90993
4818.9,-119589,-94282,-101186,-90983
4820.9,-119702,-94410,-101072,-90884
4822.9,-119727,-94276,-100961,-90770
4824.9,-119760,-94062,-100921,-90720
4826.9,-119787,-94084,-100928,-90731
4828.9,-119588,-94164,-100956,-90776
4830.9,-119288,-94069,-100982,-90816
4832.9,-119301,-94001,-100963,-90801
4834.9,-119560,-94111,-100935,-90766
4836.9,-119619,-94177,-100979,-90796
4838.9,-119496,-94095,-101029,-90843
4840.9,-119546,-94084,-100961,-90793
4842.9,-119671,-94176,-100857,-90702
4844.9,-119511,-94080,-100854,-90686
4846.9,-119172,-93741,-100846,-90659
4848.9,-119021,-93480,-100703,-90522
4850.9,-119034,-93420,-100594,-90443
4852.9,-118979,-93335,-100688,-90569
4854.9,-118921,-93215,-100843,-90743
4856.9,-119000,-93340,-100899,-90784
4858.9,-119093,-93685,-100918,-90750
4860.9,-119108,-93940,-100978,-90761
4862.9,-119184,-94050,-101056,-90832
4864.9,-119304,-94139,-101128,-90915
4866.9,-119263,-94183,-101169,-90940
4868.9,-119176,-94198,-101126,-90867
4870.9,-119369,-94312,-101024,-90755
4872.9,-119711,-94461,-100973,-90707
4874.9,-119782,-94531,-101039,-90770
4876.9,-119595,-94649,-101174,-90913
4878.9,-119467,-94847,-101272,-91035
4880.9,-119424,-94886,-101289,-91058
4882.9,-119368,-94804,-101314,-91064
4884.9,-119410,-94957,-101455,-91205
4886.9,-119575,-95297,-101666,-91453
4888.9,-119689,-95447,-101812,-91623
4890.9,-119742,-95484,-101873,-91672
4892.9,-119846,-95721,-101946,-91726
4894.9,-119900,-95941,-102061,-91832
4896.9,-119810,-95814,-102150,-91913
4898.9,-119780,-95648,-102197,-91958
4900.9,-119964,-95847,-102238,-92014
4902.9,-120193,-96166,-102225,-92008
4904.9,-120312,-96229,-102098,-91873
4906.9,-120393,-96122,-101995,-91775
4908.9,-120465,-96042,-102103,-91900
4910.9,-120361,-95987,-102304,-92102
4912.9,-120052,-95971,-102296,-92087
4914.9,-119872,-96032,-102064,-91876
4916.9,-120079,-96066,-101924,-91767
4918.9,-120310,-95998,-102047,-91903
4920.9,-120049,-95880,-102226,-92100
4922.9,-119539,-95770,-102224,-92121
4924.9,-119479,-95747,-102105,-91988
4926.9,-119877,-95852,-102057,-91903
4928.9,-120055,-95867,-102060,-91909
4930.9,-119775,-95584,-101981,-91869
4932.9,-119521,-95291,-101881,-91781
4934.9,-119606,-95359,-101916,-91794
4936.9,-119755,-95577,-102053,-91924
4938.9,-119719,-95631,-102175,-92060
4940.9,-119642,-95708,-102283,-92171
4942.9,-119620,-95941,-102368,-92238
4944.9,-119551,-96046,-102351,-92206
4946.9,-119570,-96064,-102311,-92191
4948.9,-119932,-96429,-102449,-92415
4950.9,-120419,-97032,-102722,-92830
4952.9,-120578,-97322,-102873,-93160
4954.9,-120480,-97314,-102824,-93316
4956.9,-120490,-97398,-102725,-93417
4958.9,-120562,-97461,-102650,-93466
4960.9,-120439,-97147,-102481,-93317
4962.9,-120156,-96572,-102094,-92902
4964.9,-119846,-96041,-101521,-92278
4966.9,-119429,-95513,-100921,-91537
4968.9,-118854,-94808,-100373,-90744
4970.9,-118243,-93919,-99766,-89863
4972.9,-117631,-92822,-98970,-88755
4974.9,-116923,-91351,-98021,-87312
4976.9,-116189,-89459,-97040,-85599
4978.9,-115630,-87436,-96145,-83852
4980.9,-115231,-85744,-95569,-82403
4982.9,-114827,-84698,-95567,-81500
4984.9,-114503,-84311,-96064,-81107
4986.9,-114530,-84401,-96683,-80988
4988.9,-114950,-84805,-97186,-80990
4990.9,-115584,-85439,-97601,-81095
4992.9,-116240,-86230,-98022,-81365
4994.9,-116737,-87211,-98588,-82016
4996.9,-117062,-88595,-99410,-83218
4998.9,-117530,-90439,-100370,-84784
5000.9,-118362,-92369,-101307,-86497
5002.9,-119314,-93959,-102285,-88488
5004.9,-120057,-95162,-103256,-90627
5006.9,-120537,-96073,-103828,-92154
5008.9,-120754,-96631,-103862,-92681
5010.9,-120709,-96844,-103781,-92814
5012.9,-120606,-96954,-103866,-93109
5014.9,-120624,-97102,-103876,-93318
5016.9,-120594,-97109,-103607,-93143
5018.9,-120325,-96780,-103214,-92803
5020.9,-120047,-96322,-102879,-92549
5022.9,-120095,-96152,-102655,-92379
5024.9,-120329,-96262,-102555,-92284
5026.9,-120340,-96226,-102471,-92222
5028.9,-120110,-95980,-102274,-92074
5030.9,-119971,-95926,-102076,-91913
5032.9,-120008,-96103,-102071,-91944
5034.9,-120038,-96154,-102165,-92104
5036.9,-120040,-96111,-102157,-92161
5038.9,-120085,-96232,-102070,-92126
5040.9,-120060,-96297,-102000,-92121
5042.9,-119886,-96047,-101915,-92103
5044.9,-119700,-95764,-101814,-92016
5046.9,-119589,-95669,-101755,-91938
5048.9,-119494,-95533,-101707,-91905
5050.9,-119469,-95390,-101645,-91876
5052.9,-119616,-95587,-101649,-91876
5054.9,-119774,-95900,-101693,-91881
5056.9,-119695,-95769,-101613,-91779
5058.9,-119502,-95394,-101437,-91598
5060.9,-119525,-95409,-101365,-91504
5062.9,-119748,-95691,-101394,-91489
5064.9,-119865,-95669,-101348,-91402
5066.9,-119836,-95456,-101210,-91255
5068.9,-119865,-95532,-101105,-91174
5070.9,-119924,-95719,-101069,-91160
5072.9,-119820,-95535,-101057,-91149
5074.9,-119606,-95135,-101030,-91136
5076.9,-119499,-94994,-100933,-91086
5078.9,-119524,-95091,-100746,-90946
5080.9,-119542,-95099,-100552,-90772
5082.9,-119488,-94994,-100434,-90668
5084.9,-119410,-94957,-100350,-90604
5086.9,-119361,-94998,-100222,-90477
5088.9,-119324,-94995,-100059,-90302
5090.9,-119239,-94876,-99901,-90152
5092.9,-119124,-94678,-99744,-90017
5094.93,-119071,-94514,-99587,-89864
5096.95,-119047,-94414,-99453,-89709
5098.98,-118880,-94224,-99290,-89528
5101.0,-118553,-93857,-99030,-89270
5103.0,-118311,-93548,-98794,-89037
5105.0,-118348,-93558,-98773,-89009
5107.0,-118554,-93797,-98866,-89108
5109.0,-118686,-93977,-98769,-89047
5111.0,-118688,-93964,-98456,-88771
5113.0,-118667,-93806,-98206,-88531
5115.0,-118659,-93617,-98147,-88477
5117.0,-118626,-93526,-98146,-88501
5119.0,-118621,-93547,-98087,-88461
5121.0,-118666,-93531,-97942,-88300
5123.0,-118581,-93388,-97741,-88069
5125.0,-118283,-93189,-97613,-87928
5127.0,-118004,-92938,-97617,-87938
5129.0,-117874,-92556,-97578,-87904
5131.0,-117742,-92186,-97392,-87710
5133.0,-117644,-92142,-97273,-87559
5135.0,-117776,-92366,-97349,-87598
5137.0,-117952,-92434,-97432,-87665
5139.0,-117869,-92233,-97431,-87663
5141.0,-117740,-92115,-97463,-87669
5143.0,-117867,-92192,-97484,-87646
5145.0,-118003,-92128,-97400,-87545
5147.0,-117843,-91830,-97395,-87551
5149.0,-117602,-91697,-97602,-87751
5151.0,-117607,-91946,-97783,-87914
5153.0,-117820,-92265,-97759,-87898
5155.0,-118024,-92355,-97700,-87848
5157.0,-118083,-92322,-97763,-87882
5159.0,-118010,-92349,-97917,-88002
5161.0,-117976,-92416,-98117,-88194
5163.0,-118085,-92495,-98281,-88352
5165.0,-118172,-92671,-98330,-88377
5167.0,-118124,-92890,-98395,-88422
5169.0,-118160,-92958,-98624,-88632
5171.0,-118391,-92900,-98854,-88827
5173.0,-118518,-92960,-98908,-88855
5175.0,-118438,-93161,-98934,-88896
5177.0,-118575,-93322,-99075,-89066
5179.0,-119074,-93455,-99223,-89220
5181.0,-119361,-93643,-99326,-89321
5183.0,-119087,-93737,-99455,-89448
5185.0,-118721,-93655,-99542,-89524
5187.0,-118699,-93642,-99538,-89495
5189.0,-118811,-93789,-99608,-89545
5191.0,-118786,-93810,-99799,-89732
5193.0,-118712,-93647,-99887,-89835
5195.0,-118716,-93658,-99816,-89773
5197.0,-118774,-93917,-99807,-89737
5199.0,-118820,-94054,-99948,-89838
5201.0,-118812,-94005,-100121,-89992
5203.0,-118817,-94099,-100255,-90093
5205.0,-118939,-94324,-100319,-90084
5207.0,-119099,-94355,-100301,-90023
5209.0,-119179,-94276,-100306,-90079
5211.0,-119263,-94396,-100413,-90260
5213.0,-119389,-94560,-100493,-90356
5215.0,-119402,-94482,-100455,-90305
5217.0,-119307,-94381,-100436,-90290
5219.0,-119332,-94561,-100526,-90391
5221.0,-119495,-94828,-100636,-90517
5223.0,-119597,-94884,-100700,-90634
5225.0,-119614,-94842,-100729,-90728
5227.0,-119682,-94940,-100708,-90737
5229.0,-119753,-95063,-100670,-90710
5231.0,-119654,-94914,-100677,-90741
5233.0,-119466,-94585,-100688,-90778
5235.0,-119453,-94503,-100655,-90758
5237.0,-119543,-94681,-100644,-90765
5239.0,-119424,-94694,-100708,-90846
5241.0,-119200,-94529,-100793,-90924
5243.0,-119251,-94578,-100838,-90956
5245.0,-119489,-94799,-100804,-90933
5247.0,-119563,-94868,-100713,-90858
5249.0,-119574,-94883,-100698,-90837
5251.0,-119780,-95019,-100813,-90942
5253.0,-119996,-95064,-100910,-91049
5255.0,-119956,-94917,-100885,-91043
5257.0,-119788,-94795,-100813,-90979
5259.0,-119712,-94753,-100737,-90898
5261.0,-119750,-94691,-100604,-90768
5263.0,-119827,-94659,-100448,-90636
5265.0,-119776,-94606,-100363,-90580
5267.0,-119491,-94360,-100368,-90593
5269.0,-119255,-94124,-100415,-90640
5271.0,-119434,-94249,-100438,-90685
5273.0,-119813,-94508,-100401,-90677
5275.0,-119888,-94418,-100343,-90646
5277.0,-119704,-94119,-100331,-90671
5279.0,-119685,-94131,-100357,-90740
5281.0,-119848,-94464,-100401,-90791
5283.0,-119917,-94689,-100477,-90849
5285.0,-119949,-94645,-100541,-90922
5287.0,-120093,-94471,-100497,-90913
5289.0,-120093,-94257,-100366,-90787
5291.0,-119715,-94082,-100283,-90673
5293.0,-119281,-94041,-100308,-90689
5295.0,-119173,-94016,-100387,-90805
5297.0,-119262,-93864,-100472,-90931
5299.0,-119312,-93751,-100511,-90986
5301.0,-119405,-93831,-100468,-90938
5303.0,-119598,-93919,-100447,-90909
5305.0,-119654,-93907,-100581,-91035
5307.0,-119422,-94000,-100748,-91183
5309.0,-119134,-94235,-100746,-91151
5311.0,-119103,-94368,-100682,-91071
5313.0,-119269,-94300,-100740,-91154
5315.0,-119297,-94178,-100824,-91280
5317.0,-119154,-94200,-100846,-91330
5319.0,-119211,-94456,-100934,-91433
5321.0,-119549,-94723,-101036,-91542
5323.0,-119764,-94709,-100946,-91444
5325.0,-119739,-94646,-100805,-91288
5327.0,-119766,-94926,-100871,-91352
5329.0,-119785,-95238,-100995,-91478
5331.0,-119549,-95153,-100995,-91471
5333.0,-119410,-95085,-101089,-91560
5335.0,-119768,-95494,-101400,-91863
5337.0,-120173,-95922,-101634,-92072
5339.0,-120109,-95888,-101650,-92069
5341.0,-119901,-95725,-101697,-92118
5343.0,-119922,-95781,-101868,-92284
5345.0,-119917,-95878,-101952,-92342
5347.0,-119807,-95940,-101908,-92281
5349.0,-119982,-96106,-101936,-92317
5351.0,-120367,-96196,-102040,-92439
5353.0,-120367,-96005,-102013,-92427
5355.0,-119993,-95861,-101890,-92314
5357.0,-119859,-96027,-101906,-92326
5359.0,-120009,-96050,-102000,-92415
5361.0,-119933,-95606,-101940,-92360
5363.0,-119705,-95329,-101836,-92260
5365.0,-119860,-95772,-101953,-92368
5367.0,-120288,-96348,-102167,-92571
5369.0,-120404,-96307,-102201,-92606
5371.0,-120198,-95943,-102128,-92537
5373.0,-120077,-95872,-102128,-92551
5375.0,-120067,-95978,-102138,-92589
5377.0,-119987,-95916,-102075,-92544
5379.0,-119925,-95815,-102026,-92484
5381.0,-119945,-95881,-102073,-92504
5383.0,-119912,-95955,-102186,-92605
5385.0,-119888,-95924,-102295,-92719
5387.0,-120074,-95981,-102315,-92741
5389.0,-120285,-96201,-102242,-92660
5391.0,-120171,-96349,-102228,-92643
5393.0,-119884,-96350,-102376,-92819
5395.0,-119853,-96454,-102565,-93087
5397.0,-120118,-96767,-102662,-93318
5399.0,-120439,-97106,-102724,-93568
5401.0,-120768,-97346,-102822,-93881
5403.0,-121072,-97460,-102883,-94118
5405.0,-121095,-97308,-102814,-94129
5407.0,-120736,-96856,-102585,-93913
5409.0,-120282,-96372,-102194,-93514
5411.0,-119927,-96011,-101707,-92958
5413.0,-119499,-95556,-101225,-92301
5415.0,-118887,-94852,-100706,-91555
5417.0,-118279,-94038,-100043,-90669
5419.0,-117760,-93118,-99287,-89618
5421.0,-117130,-91779,-98488,-88333
5423.0,-116305,-89880,-97509,-86674
5425.0,-115502,-87793,-96435,-84819
5427.0,-114887,-86141,-95797,-83370
5429.0,-114440,-85321,-95909,-82661
5431.0,-114201,-85234,-96442,-82387
5433.0,-114272,-85413,-97013,-82234
5435.0,-114594,-85540,-97567,-82239
5437.0,-115009,-85759,-98038,-82372
5439.0,-115473,-86425,-98398,-82594
5441.0,-116026,-87696,-98972,-83259
5443.0,-116617,-89369,-99944,-84592
5445.0,-117146,-90957,-100880,-86113
5447.0,-117710,-92167,-101474,-87477
5449.0,-118611,-93345,-102141,-89132
5451.0,-119852,-94895,-103162,-91229
5453.0,-120879,-96367,-104009,-92891
5455.0,-121202,-96984,-104218,-93481
5457.0,-121021,-96910,-104114,-93536
5459.0,-120836,-96956,-104137,-93740
5461.0,-120760,-97245,-104196,-93999
5463.0,-120648,-97281,-104110,-94056
5465.0,-120572,-97057,-103962,-94013
5467.0,-120670,-97005,-103792,-93919
5469.0,-120753,-97059,-103490,-93635
5471.0,-120559,-96819,-103109,-93237
5473.0,-120280,-96417,-102850,-92989
5475.03,-120237,-96286,-102784,-92965
5477.05,-120252,-96323,-102823,-93038
5479.08,-120060,-96178,-102817,-93067
5481.1,-120015,-95984,-102651,-92964
5483.1,-120410,-95988,-102417,-92815
5485.1,-120639,-95976,-102368,-92834
5487.1,-120187,-95775,-102504,-93011
5489.1,-119698,-95682,-102537,-93058
5491.1,-119840,-95815,-102389,-92899
5493.1,-120115,-95822,-102282,-92783
5495.1,-119954,-95641,-102302,-92832
5497.1,-119736,-95619,-102302,-92893
5499.1,-119779,-95700,-102232,-92847
5501.1,-119697,-95535,-102160,-92743
5503.1,-119428,-95324,-102096,-92657
5505.1,-119472,-95454,-102037,-92627
5507.1,-119808,-95672,-102039,-92644
5509.1,-119905,-95599,-102072,-92635
5511.1,-119725,-95443,-102005,-92535
5513.1,-119651,-95468,-101834,-92405
5515.1,-119778,-95546,-101738,-92375
5517.1,-119926,-95609,-101798,-92471
5519.1,-119963,-95706,-101855,-92563
5521.1,-119887,-95701,-101757,-92535
5523.1,-119880,-95592,-101586,-92445
5525.1,-120055,-95620,-101497,-92418
5527.1,-120124,-95671,-101484,-92457
5529.1,-119825,-95399,-101426,-92444
5531.1,-119460,-95003,-101258,-92304
5533.1,-119418,-94920,-101004,-92074
5535.1,-119566,-95012,-100764,-91878
5537.1,-119620,-94926,-100678,-91850
5539.1,-119555,-94736,-100743,-91967
5541.1,-119376,-94609,-100745,-92001
5543.1,-119099,-94502,-100547,-91824
5545.1,-118985,-94469,-100314,-91621
5547.1,-119172,-94571,-100211,-91550
5549.1,-119311,-94545,-100117,-91462
5551.1,-119114,-94230,-99917,-91243
5553.1,-118833,-93944,-99715,-91037
5555.1,-118736,-93887,-99568,-90912
5557.1,-118727,-93798,-99404,-90766
5559.1,-118712,-93563,-99285,-90655
5561.1,-118689,-93405,-99279,-90649
5563.1,-118506,-93315,-99200,-90546
5565.1,-118167,-93081,-98947,-90252
5567.1,-118036,-92810,-98749,-90031
5569.1,-118210,-92706,-98706,-89999
5571.1,-118276,-92624,-98618,-89940
5573.1,-118034,-92394,-98434,-89799
5575.1,-117775,-92139,-98294,-89714
5577.1,-117696,-91984,-98183,-89653
5579.1,-117682,-91909,-98067,-89578
5581.1,-117682,-91932,-98082,-89629
5583.1,-117755,-92026,-98214,-89787
5585.1,-117852,-92058,-98252,-89841
5587.1,-117880,-92046,-98206,-89816
5589.1,-117928,-92142,-98244,-89887
5591.1,-118171,-92274,-98311,-89982
5593.1,-118539,-92249,-98275,-89976
5595.1,-118705,-92132,-98229,-89967
5597.1,-118581,-92114,-98274,-90042
5599.1,-118539,-92195,-98345,-90139
5601.1,-118783,-92294,-98451,-90277
5603.1,-118895,-92411,-98672,-90521
5605.1,-118527,-92485,-98890,-90726
5607.1,-118110,-92449,-98945,-90745
5609.1,-118172,-92413,-98959,-90734
5611.1,-118459,-92458,-99117,-90882
5613.1,-118453,-92428,-99318,-91084
5615.1,-118259,-92296,-99384,-91175
5617.1,-118296,-92402,-99378,-91221
5619.1,-118590,-92880,-99461,-91350
5621.1,-118899,-93326,-99654,-91569
5623.1,-119124,-93437,-99867,-91813
5625.1,-119270,-93468,-100009,-91990
5627.1,-119355,-93699,-100082,-92064
5629.1,-119426,-93944,-100181,-92135
5631.1,-119449,-93921,-100316,-92277
5633.1,-119316,-93714,-100352,-92372
5635.1,-119125,-93599,-100287,-92342
5637.1,-119106,-93665,-100315,-92345
5639.1,-119211,-93781,-100495,-92489
5641.1,-119206,-93819,-100652,-92642
5643.1,-119134,-93831,-100719,-92704
5645.1,-119212,-93971,-100821,-92766
5647.1,-119369,-94173,-100958,-92859
5649.1,-119363,-94170,-100954,-92834
5651.1,-119275,-94009,-100814,-92672
5653.1,-119406,-94136,-100804,-92629
5655.1,-119739,-94616,-101037,-92852
5657.1,-119893,-94841,-101250,-93083
5659.1,-119670,-94494,-101212,-93053
5661.1,-119388,-94140,-101105,-92942
5663.1,-119519,-94354,-101219,-93075
5665.1,-120048,-94871,-101483,-93381
5667.1,-120397,-95056,-101591,-93517
5669.1,-120168,-94775,-101457,-93384
5671.1,-119722,-94465,-101303,-93218
5673.1,-119633,-94523,-101369,-93268
5675.1,-119863,-94843,-101619,-93502
5677.1,-120033,-95054,-101765,-93639
5679.1,-120124,-95095,-101654,-93514
5681.1,-120230,-95174,-101519,-93341
5683.1,-120132,-95225,-101602,-93375
5685.1,-119824,-95016,-101747,-93494
5687.1,-119784,-94740,-101721,-93479
5689.1,-120132,-94820,-101661,-93460
5691.1,-120340,-95150,-101785,-93641
5693.1,-120149,-95184,-101947,-93856
5695.1,-119873,-94772,-101895,-93840
5697.1,-119713,-94399,-101706,-93665
5699.1,-119654,-94518,-101615,-93561
5701.1,-119794,-94947,-101643,-93560
5703.1,-120050,-95126,-101663,-93556
5705.1,-120066,-94873,-101628,-93509
5707.1,-119887,-94629,-101580,-93455
5709.1,-119951,-94794,-101564,-93448
5711.1,-120237,-95144,-101581,-93505
5713.1,-120313,-95213,-101590,-93561
5715.1,-120149,-94956,-101566,-93563
5717.1,-120027,-94683,-101546,-93558
5719.1,-119956,-94566,-101537,-93560
5721.1,-119868,-94532,-101497,-93488
5723.1,-119912,-94484,-101439,-93365
5725.1,-120071,-94373,-101410,-93313
5727.1,-120047,-94167,-101359,-93295
5729.1,-119800,-93929,-101250,-93209
5731.1,-119653,-93850,-101192,-93148
5733.1,-119720,-93992,-101246,-93231
5735.1,-119757,-94111,-101284,-93338
5737.1,-119655,-93980,-101231,-93327
5739.1,-119601,-93767,-101181,-93261
5741.1,-119706,-93771,-101193,-93245
5743.1,-119798,-93962,-101217,-93275
5745.1,-119731,-94143,-101267,-93357
5747.1,-119619,-94300,-101426,-93522
5749.1,-119602,-94453,-101647,-93694
5751.1,-119621,-94470,-101724,-93689
5753.1,-119606,-94357,-101554,-93456
5755.1,-119685,-94380,-101353,-93248
5757.1,-119943,-94635,-101417,-93364
5759.1,-120161,-94822,-101661,-93682
5761.1,-120062,-94698,-101726,-93797
5763.1,-119760,-94499,-101578,-93665
5765.1,-119656,-94593,-101544,-93628
5767.1,-119861,-94894,-101711,-93763
5769.1,-120056,-95053,-101838,-93822
5771.1,-120034,-95099,-101852,-93784
5773.1,-119980,-95329,-101925,-93870
5775.1,-120031,-95661,-102095,-94084
5777.1,-120019,-95745,-102240,-94241
5779.1,-119870,-95597,-102321,-94304
5781.1,-119828,-95523,-102366,-94330
5783.1,-120092,-95618,-102386,-94335
5785.1,-120502,-95827,-102431,-94378
5787.1,-120724,-96150,-102556,-94513
5789.1,-120624,-96417,-102689,-94632
5791.1,-120377,-96323,-102716,-94614
5793.1,-120245,-95961,-102650,-94517
5795.1,-120290,-95793,-102590,-94450
5797.1,-120378,-95904,-102556,-94411
5799.1,-120391,-95910,-102521,-94374
5801.1,-120369,-95761,-102520,-94379
5803.1,-120419,-95870,-102617,-94469
5805.1,-120504,-96263,-102749,-94588
5807.1,-120447,-96418,-102768,-94619
5809.1,-120247,-96169,-102689,-94547
5811.1,-120141,-95935,-102673,-94502
5813.1,-120156,-95938,-102715,-94507
5815.1,-120096,-95978,-102633,-94411
5817.1,-120101,-96003,-102459,-94240
5819.1,-120469,-96115,-102441,-94247
5821.1,-120841,-96149,-102590,-94438
5823.1,-120584,-95921,-102664,-94531
5825.1,-119955,-95663,-102638,-94501
5827.1,-119718,-95661,-102672,-94550
5829.1,-119844,-95803,-102713,-94600
5831.1,-119812,-95910,-102667,-94528
5833.1,-119768,-96120,-102748,-94623
5835.1,-120117,-96568,-103079,-95090
5837.1,-120558,-97060,-103365,-95568
5839.1,-120664,-97370,-103395,-95781
5841.1,-120695,-97554,-103359,-95965
5843.1,-120958,-97737,-103376,-96219
5845.1,-121192,-97825,-103282,-96245
5847.1,-121162,-97613,-103008,-95954
5849.1,-120943,-97079,-102619,-95525
5851.1,-120448,-96408,-102103,-94950
5853.1,-119596,-95749,-101458,-94164
5855.1,-118749,-95051,-100777,-93309
5857.1,-118187,-94233,-100098,-92445
5859.1,-117681,-93359,-99401,-91426
5861.1,-117136,-92441,-98681,-90182
5863.1,-116785,-91216,-97875,-88726
5865.13,-116496,-89503,-97000,-87090
5867.15,-115896,-87708,-96347,-85546
5869.18,-115171,-86495,-96171,-84471
5871.2,-114824,-86035,-96351,-83883
5873.2,-114910,-86004,-96703,-83566
5875.2,-115217,-86116,-97221,-83462
5877.2,-115697,-86310,-97778,-83520
5879.2,-116280,-86709,-98183,-83649
5881.2,-116808,-87559,-98619,-84087
5883.2,-117269,-88826,-99346,-85125
5885.2,-117744,-90097,-100157,-86543
5887.2,-118317,-91295,-100798,-88072
5889.2,-119179,-92804,-101472,-89922
5891.2,-120315,-94461,-102335,-92041
5893.2,-121194,-95530,-103109,-93704
5895.2,-121380,-95979,-103633,-94548
5897.2,-121162,-96479,-104050,-95036
5899.2,-120986,-97077,-104315,-95493
5901.2,-120819,-97246,-104285,-95742
5903.2,-120564,-97085,-104171,-95808
5905.2,-120455,-97143,-104221,-95939
5907.2,-120647,-97401,-104268,-96045
5909.2,-120909,-97441,-104095,-95887
5911.2,-120958,-97204,-103807,-95551
5913.2,-120773,-96945,-103544,-95274
5915.2,-120563,-96819,-103293,-95128
5917.2,-120505,-96811,-103118,-95126
5919.2,-120514,-96781,-103111,-95245
5921.2,-120426,-96574,-103118,-95303
5923.2,-120317,-96275,-102927,-95158
5925.2,-120306,-96119,-102641,-94967
5927.2,-120240,-96084,-102528,-94964
5929.2,-120051,-95956,-102596,-95098
5931.2,-119999,-95806,-102593,-95128
5933.2,-120152,-95872,-102415,-94988
5935.2,-120190,-96078,-102256,-94848
5937.2,-120043,-96161,-102296,-94845
5939.2,-119994,-96081,-102424,-94888
5941.2,-120018,-95904,-102419,-94786
5943.2,-119887,-95673,-102276,-94522
5945.2,-119826,-95615,-102186,-94275
5947.2,-120150,-95906,-102217,-94152
5949.2,-120506,-96187,-102236,-94026
5951.2,-120396,-96026,-102134,-93788
5953.2,-120102,-95691,-101984,-93572
5955.2,-120167,-95696,-101895,-93528
5957.2,-120387,-95867,-101840,-93544
5959.2,-120236,-95727,-101749,-93473
5961.2,-119870,-95451,-101681,-93428
5963.2,-119774,-95467,-101685,-93507
5965.2,-119812,-95519,-101601,-93504
5967.2,-119564,-95137,-101311,-93267
5969.2,-119202,-94593,-101032,-93049
5971.2,-119185,-94454,-100988,-93100
5973.2,-119458,-94676,-101010,-93254
5975.2,-119667,-94897,-100880,-93302
5977.2,-119730,-95032,-100730,-93321
5979.2,-119705,-95050,-100711,-93364
5981.2,-119583,-94865,-100673,-93269
5983.2,-119473,-94678,-100503,-92993
5985.2,-119519,-94751,-100336,-92695
5987.2,-119608,-94914,-100235,-92423
5989.2,-119588,-94900,-100095,-92091
5991.2,-119515,-94777,-99902,-91688
5993.2,-119394,-94592,-99714,-91242
5995.2,-119133,-94210,-99485,-90776
5997.2,-118915,-93796,-99235,-90428
5999.2,-118961,-93658,-99102,-90318
6001.2,-118962,-93577,-99048,-90294
6003.2,-118539,-93189,-98871,-90158
6005.2,-118054,-92803,-98608,-89999
6007.2,-118061,-92886,-98476,-89966
6009.2,-118368,-93171,-98454,-89984
6011.2,-118501,-93143,-98379,-89989
6013.2,-118515,-92845,-98292,-90079
6015.2,-118595,-92567,-98287,-90233
6017.2,-118585,-92380,-98262,-90284
6019.2,-118423,-92331,-98127,-90225
6021.2,-118368,-92449,-98001,-90180
6023.2,-118517,-92542,-97977,-90164
6025.2,-118666,-92444,-97968,-90134
6027.2,-118695,-92269,-97898,-90106
6029.2,-118681,-92168,-97828,-90095
6031.2,-118683,-92142,-97849,-90123
6033.2,-118635,-92134,-97950,-90230
6035.2,-118495,-92077,-98034,-90343
6037.2,-118416,-91979,-98077,-90373
6039.2,-118571,-92010,-98195,-90431
6041.2,-118871,-92274,-98445,-90639
6043.2,-119101,-92592,-98685,-90869
6045.2,-119147,-92707,-98794,-90968
6047.2,-118931,-92556,-98816,-90977
6049.2,-118594,-92346,-98812,-90960
6051.2,-118647,-92433,-98817,-90958
6053.2,-119212,-92889,-98945,-91111
6055.2,-119579,-93293,-99234,-91463
6057.2,-119418,-93367,-99497,-91793
6059.2,-119478,-93456,-99598,-91936
6061.2,-120102,-93835,-99665,-92015
6063.2,-120442,-94104,-99803,-92154
6065.2,-120050,-93876,-99890,-92266
6067.2,-119618,-93498,-99865,-92306
6069.2,-119574,-93510,-99899,-92418
6071.2,-119637,-93878,-100079,-92647
6073.2,-119852,-94190,-100232,-92800
6075.2,-120359,-94240,-100234,-92740
6077.2,-120547,-94121,-100187,-92601
6079.2,-120017,-93959,-100170,-92557
6081.2,-119537,-93824,-100164,-92621
6083.2,-119728,-93809,-100249,-92768
6085.2,-120031,-94013,-100509,-92982
6087.2,-119981,-94423,-100772,-93132
6089.2,-120048,-94851,-100819,-93099
6091.2,-120457,-95034,-100731,-92992
6093.2,-120666,-94847,-100696,-92977
6095.2,-120486,-94473,-100713,-93040
6097.2,-120380,-94281,-100736,-93137
6099.2,-120497,-94449,-100841,-93332
6101.2,-120577,-94786,-101037,-93603
6103.2,-120629,-95032,-101198,-93794
6105.2,-120775,-95173,-101259,-93850
6107.2,-120806,-95259,-101263,-93869
6109.2,-120597,-95196,-101247,-93897
6111.2,-120447,-94985,-101223,-93887
6113.2,-120572,-94912,-101210,-93831
6115.2,-120812,-95143,-101237,-93829
6117.2,-121023,-95419,-101332,-93956
6119.2,-121230,-95448,-101442,-94071
6121.2,-121356,-95341,-101452,-93987
6123.2,-121303,-95366,-101415,-93852
6125.2,-121159,-95499,-101527,-93976
6127.2,-121018,-95467,-101738,-94259
6129.2,-120841,-95204,-101781,-94311
6131.2,-120663,-94979,-101650,-94123
6133.2,-120608,-94943,-101581,-94006
6135.2,-120619,-94875,-101584,-93994
6137.2,-120563,-94636,-101489,-93883
6139.2,-120475,-94472,-101330,-93698
6141.2,-120384,-94496,-101224,-93608
6143.2,-120235,-94462,-101128,-93595
6145.2,-120256,-94397,-101039,-93602
6147.2,-120753,-94655,-101120,-93733
6149.2,-121351,-95069,-101340,-93977
6151.2,-121371,-95066,-101395,-94056
6153.2,-121031,-94789,-101224,-93890
6155.2,-121119,-94866,-101160,-93814
6157.2,-121543,-95156,-101348,-94002
6159.2,-121554,-95058,-101477,-94154
6161.2,-121165,-94717,-101345,-94065
6163.2,-121018,-94619,-101159,-93948
6165.2,-121220,-94610,-101097,-93918
6167.2,-121376,-94435,-101067,-93809
6169.2,-121298,-94356,-101002,-93603
6171.2,-121021,-94480,-100964,-93468
6173.2,-120667,-94453,-100939,-93436
6175.2,-120493,-94191,-100891,-93468
6177.2,-120579,-93977,-100880,-93594
6179.2,-120643,-93844,-100915,-93736
6181.2,-120491,-93659,-100908,-93745
6183.2,-120259,-93529,-100876,-93689
6185.2,-120111,-93636,-100960,-93759
6187.2,-120199,-93962,-101184,-93954
6189.2,-120648,-94347,-101399,-94110
6191.2,-121170,-94596,-101501,-94157
6193.2,-121258,-94629,-101526,-94159
6195.2,-121051,-94653,-101523,-94157
6197.2,-121141,-94882,-101473,-94129
6199.2,-121513,-95180,-101415,-94096
6201.2,-121648,-95323,-101450,-94117
6203.2,-121486,-95355,-101556,-94177
6205.2,-121331,-95413,-101620,-94234
6207.2,-121226,-95540,-101687,-94365
6209.2,-121147,-95752,-101869,-94610
6211.2,-121229,-95969,-102055,-94782
6213.2,-121399,-96021,-102084,-94731
6215.2,-121399,-95948,-102041,-94605
6217.2,-121210,-95899,-102062,-94574
6219.2,-120985,-95798,-102090,-94595
6221.2,-120873,-95672,-102119,-94661
6223.2,-121099,-95919,-102285,-94886
6225.2,-121636,-96557,-102521,-95170
6227.2,-121966,-96913,-102573,-95216
6229.2,-121837,-96709,-102456,-95025
6231.2,-121714,-96488,-102423,-94892
6233.2,-121886,-96544,-102484,-94881
6235.2,-121962,-96529,-102433,-94778
6237.2,-121746,-96321,-102289,-94583
6239.2,-121624,-96202,-102264,-94548
6241.2,-121722,-96189,-102352,-94688
6243.2,-121673,-96045,-102354,-94736
6245.2,-121438,-95818,-102249,-94600
6247.2,-121383,-95740,-102199,-94466
6249.2,-121513,-95797,-102227,-94456
6251.2,-121503,-95829,-102215,-94530
6253.2,-121375,-95853,-102170,-94656
6255.2,-121359,-95989,-102211,-94814
6257.2,-121375,-96187,-102319,-94909
6259.2,-121330,-96320,-102378,-94870
6261.2,-121460,-96452,-102427,-94810
6263.2,-121849,-96705,-102575,-94889
6265.23,-122149,-96918,-102718,-95034
6267.25,-122123,-96836,-102650,-94981
6269.28,-121948,-96593,-102443,-94710
6271.3,-121875,-96584,-102400,-94585
6273.3,-121946,-96891,-102622,-94867
6275.3,-122028,-97249,-102902,-95360
6277.3,-122027,-97540,-103068,-95778
6279.3,-122082,-97843,-103143,-96099
6281.3,-122362,-98057,-103166,-96356
6283.3,-122638,-97973,-103101,-96444
6285.3,-122568,-97678,-102895,-96279
6287.3,-122259,-97390,-102490,-95852
6289.3,-121960,-97028,-101871,-95162
6291.3,-121525,-96420,-101165,-94321
6293.3,-120865,-95692,-100513,-93492
6295.3,-120367,-95004,-99836,-92591
6297.3,-120156,-94206,-99010,-91396
6299.3,-119684,-93076,-98120,-89950
6301.3,-118714,-91602,-97272,-88413
6303.3,-117833,-89901,-96406,-86695
6305.3,-117395,-88163,-95581,-84781
6307.3,-116990,-86704,-95096,-83098
6309.3,-116493,-85853,-95105,-82080
6311.3,-116427,-85704,-95466,-81694
6313.3,-116880,-86002,-96060,-81682
6315.3,-117368,-86419,-96822,-81853
6317.3,-117897,-86971,-97541,-82066
6319.3,-118754,-87885,-98066,-82386
6321.3,-119513,-89084,-98556,-83123
6323.3,-119708,-90272,-99239,-84431
6325.3,-119898,-91466,-100116,-86216
6327.3,-120701,-92845,-101098,-88478
6329.3,-121691,-94240,-102159,-91095
6331.3,-122298,-95322,-103163,-93345
6333.3,-122673,-96038,-103800,-94461
6335.3,-122945,-96529,-103941,-94641
6337.3,-122878,-96930,-103894,-94785
6339.3,-122608,-97346,-104030,-95312
6341.3,-122541,-97740,-104256,-95840
6343.3,-122548,-97931,-104225,-95959
6345.3,-122291,-97852,-103954,-95771
6347.3,-121931,-97571,-103725,-95550
6349.3,-121763,-97157,-103537,-95295
6351.3,-121754,-96819,-103227,-94920
6353.3,-121852,-96836,-102915,-94579
6355.3,-122059,-97079,-102789,-94465
6357.3,-122126,-97095,-102750,-94534
6359.3,-121920,-96828,-102670,-94659
6361.3,-121816,-96681,-102631,-94820
6363.3,-122079,-96803,-102661,-94992
6365.3,-122365,-96922,-102628,-95077
6367.3,-122386,-96869,-102473,-95014
6369.3,-122369,-96720,-102258,-94802
6371.3,-122387,-96483,-102025,-94479
6373.3,-122057,-96115,-101828,-94177
6375.3,-121369,-95788,-101757,-94042
6377.3,-120959,-95715,-101813,-94039
6379.3,-121104,-95795,-101894,-93994
6381.3,-121305,-95796,-101942,-93812
6383.3,-121231,-95735,-101934,-93516
6385.3,-121215,-95778,-101836,-93141
6387.3,-121484,-95922,-101686,-92750
6389.3,-121762,-96027,-101601,-92485
6391.3,-121835,-96019,-101589,-92462
6393.3,-121835,-95937,-101539,-92643
6395.3,-121835,-95885,-101420,-92839
6397.3,-121758,-95894,-101312,-92859
6399.3,-121698,-95887,-101257,-92720
6401.3,-121832,-95834,-101214,-92669
6403.3,-122023,-95793,-101128,-92876
6405.3,-121961,-95743,-100988,-93195
6407.3,-121698,-95623,-100833,-93386
6409.3,-121494,-95500,-100710,-93403
6411.3,-121277,-95433,-100614,-93350
6413.3,-120932,-95338,-100510,-93299
6415.3,-120773,-95173,-100370,-93221
6417.3,-120971,-95003,-100170,-93042
6419.3,-121137,-94855,-99940,-92785
6421.3,-121135,-94761,-99771,-92550
6423.3,-121296,-94747,-99653,-92329
6425.3,-121464,-94691,-99482,-92059
6427.3,-121178,-94557,-99283,-91837
6429.3,-120770,-94592,-99181,-91778
6431.3,-120824,-94855,-99163,-91736
6433.3,-121028,-94981,-99127,-91511
6435.3,-120876,-94776,-99048,-91141
6437.3,-120621,-94456,-98879,-90722
6439.3,-120577,-94164,-98584,-90290
6441.3,-120580,-93890,-98340,-90025
6443.3,-120553,-93731,-98320,-90078
6445.3,-120591,-93646,-98334,-90214
6447.3,-120558,-93431,-98121,-90111
6449.3,-120401,-93240,-97811,-89862
6451.3,-120341,-93375,-97668,-89755
6453.3,-120369,-93520,-97669,-89822
6455.3,-120287,-93208,-97675,-89916
6457.3,-120211,-92805,-97666,-89946
6459.3,-120327,-92911,-97630,-89875
6461.3,-120477,-93249,-97556,-89758
6463.3,-120456,-93225,-97557,-89767
6465.3,-120263,-92945,-97695,-89924
6467.3,-119983,-92787,-97808,-89997
6469.3,-119851,-92712,-97769,-89861
6471.3,-120098,-92609,-97718,-89697
6473.3,-120439,-92559,-97801,-89689
6475.3,-120410,-92518,-97928,-89791
6477.3,-120233,-92422,-97957,-89903
6479.3,-120393,-92488,-97940,-90040
6481.3,-120664,-92787,-98043,-90236
6483.3,-120650,-93025,-98283,-90422
6485.3,-120659,-93141,-98510,-90481
6487.3,-120928,-93327,-98638,-90433
6489.3,-120960,-93393,-98740,-90434
6491.3,-120656,-93144,-98833,-90522
6493.3,-120734,-93105,-98844,-90574
6495.3,-121278,-93686,-98851,-90617
6497.3,-121485,-94276,-99005,-90817
6499.3,-121238,-94264,-99226,-91103
6501.3,-121193,-94042,-99343,-91238
6503.3,-121427,-94084,-99386,-91220
6505.3,-121583,-94178,-99441,-91197
6507.3,-121743,-94160,-99503,-91223
6509.3,-121890,-94214,-99622,-91381
6511.3,-121537,-94225,-99801,-91722
6513.3,-120788,-94002,-99868,-92036
6515.3,-120498,-93927,-99843,-92146
6517.3,-120874,-94277,-99996,-92212
6519.3,-121207,-94570,-100267,-92289
6521.3,-121227,-94519,-100287,-92150
6523.3,-121403,-94638,-100120,-91884
6525.3,-121785,-95096,-100173,-91911
6527.3,-121845,-95244,-100446,-92214
6529.3,-121529,-94893,-100591,-92348
6531.3,-121347,-94713,-100544,-92187
6533.3,-121454,-94978,-100501,-92006
6535.3,-121615,-95208,-100557,-91983
6537.3,-121840,-95184,-100688,-92111
6539.3,-122158,-95177,-100812,-92324
6541.3,-122209,-95231,-100816,-92478
6543.3,-121766,-95137,-100740,-92491
6545.3,-121236,-94945,-100756,-92462
6547.3,-121134,-94873,-100830,-92442
6549.3,-121434,-94916,-100773,-92365
6551.3,-121723,-94929,-100663,-92341
6553.3,-121797,-94923,-100726,-92567
6555.3,-121837,-95018,-100910,-92924
