t,carotid_880nm,carotid_660nm,brachial_880nm,brachial_660nm
3.9,12.416,10.919,8.6257,12.653
13.8,11.416,10.919,10.626,13.653
23.6,9.4158,11.919,11.626,14.653
33.5,10.416,10.919,10.626,14.653
43.4,8.4158,10.919,10.626,14.653
53.3,6.4158,10.919,11.626,14.653
63.2,4.4158,9.9193,9.6257,14.653
73.1,0.41577,5.9193,12.626,16.653
82.9,-3.5842,4.9193,12.626,16.653
92.8,-4.5842,1.9193,12.626,17.653
102.7,-6.5842,1.9193,15.626,18.653
112.6,-9.5842,0.91926,13.626,19.653
122.5,-10.584,-0.080741,15.626,18.653
132.4,-11.584,-0.080741,15.626,20.653
142.3,-13.584,-1.0807,17.626,19.653
152.1,-14.584,-3.0807,17.626,19.653
162.0,-15.584,-4.0807,16.626,20.653
171.9,-20.584,-5.0807,17.626,20.653
181.8,-22.584,-7.0807,20.626,21.653
191.7,-24.584,-7.0807,20.626,21.653
201.6,-24.584,-6.0807,20.626,20.653
211.5,-27.584,-7.0807,20.626,20.653
221.3,-32.584,-8.0807,19.626,21.653
231.2,-35.584,-11.081,19.626,21.653
241.1,-41.584,-13.081,21.626,23.653
251.0,-37.584,-9.0807,21.626,23.653
260.9,-9.5842,9.9193,21.626,24.653
270.8,-14.584,6.9193,21.626,24.653
280.7,10.416,27.919,21.626,25.653
290.5,31.416,40.919,21.626,25.653
300.4,43.416,46.919,22.626,27.653
310.3,54.416,51.919,22.626,27.653
320.2,62.416,51.919,22.626,28.653
330.1,62.416,51.919,22.626,28.653
340.0,63.416,46.919,22.626,25.653
349.9,63.416,46.919,22.626,25.653
359.7,53.416,36.919,26.626,26.653
369.6,53.416,36.919,26.626,26.653
379.5,48.416,32.919,30.626,26.653
389.4,48.416,32.919,30.626,26.653
399.3,45.416,30.919,30.626,25.653
409.2,45.416,30.919,28.626,25.653
419.1,39.416,26.919,29.626,24.653
428.9,39.416,26.919,28.626,25.653
438.8,41.416,29.919,28.626,26.653
448.7,41.416,29.919,27.626,26.653
458.6,45.416,32.919,25.626,25.653
468.5,45.416,32.919,27.626,26.653
478.4,45.416,34.919,26.626,27.653
488.3,45.416,34.919,23.626,26.653
498.1,45.416,34.919,21.626,27.653
508.0,45.416,33.919,20.626,25.653
517.9,41.416,34.919,19.626,26.653
527.8,43.416,32.919,19.626,26.653
537.7,40.416,31.919,16.626,26.653
547.6,38.416,30.919,15.626,24.653
557.5,36.416,29.919,13.626,25.653
567.3,33.416,26.919,14.626,26.653
577.2,31.416,27.919,12.626,25.653
587.1,31.416,27.919,10.626,24.653
597.0,30.416,27.919,10.626,24.653
606.9,29.416,27.919,9.6257,23.653
616.8,27.416,25.919,8.6257,23.653
626.7,26.416,25.919,6.6257,23.653
636.5,24.416,26.919,6.6257,23.653
646.4,22.416,24.919,6.6257,22.653
656.3,22.416,23.919,3.6257,20.653
666.2,19.416,23.919,2.6257,20.653
676.1,15.416,22.919,1.6257,21.653
686.0,12.416,21.919,1.6257,21.653
695.9,10.416,19.919,0.62569,21.653
705.7,4.4158,17.919,-0.37431,21.653
715.6,-0.58423,15.919,-1.3743,21.653
725.5,5.4158,19.919,-2.3743,21.653
735.4,33.416,38.919,-4.3743,19.653
745.3,28.416,37.919,-6.3743,19.653
755.2,55.416,57.919,-6.3743,17.653
765.1,73.416,70.919,-7.3743,17.653
774.9,87.416,77.919,-11.374,18.653
784.8,98.416,81.919,-11.374,17.653
794.7,109.42,83.919,-12.374,16.653
804.6,112.42,83.919,-11.374,13.653
814.5,114.42,79.919,-12.374,10.653
824.4,112.42,76.919,-13.374,9.6526
834.3,108.42,72.919,-10.374,8.6526
844.1,104.42,68.919,-10.374,4.6526
854.0,102.42,66.919,-11.374,3.6526
863.9,99.416,63.919,-13.374,1.6526
873.8,96.416,60.919,-14.374,0.65258
883.7,92.416,59.919,-14.374,-0.34742
893.6,91.416,59.919,-16.374,0.65258
903.5,94.416,60.919,-15.374,-0.34742
913.3,94.416,59.919,-15.374,-0.34742
923.2,93.416,61.919,-16.374,0.65258
933.1,94.416,62.919,-17.374,0.65258
943.0,95.416,62.919,-17.374,-0.34742
952.9,95.416,62.919,-18.374,-0.34742
962.8,94.416,63.919,-19.374,-1.3474
972.7,93.416,63.919,-20.374,-1.3474
982.5,92.416,62.919,-24.374,-6.3474
992.4,89.416,61.919,-28.374,-7.3474
1002.3,89.416,60.919,-29.374,-6.3474
1012.2,88.416,58.919,-30.374,-8.3474
1022.1,83.416,57.919,-32.374,-9.3474
1032.0,83.416,56.919,-32.374,-11.347
1041.9,80.416,56.919,-33.374,-10.347
1051.7,78.416,54.919,-34.374,-11.347
1061.6,77.416,52.919,-33.374,-13.347
1071.5,75.416,50.919,-37.374,-14.347
1081.4,72.416,50.919,-39.374,-15.347
1091.3,70.416,49.919,-39.374,-16.347
1101.2,66.416,48.919,-41.374,-18.347
1111.1,65.416,47.919,-44.374,-19.347
1120.9,61.416,45.919,-44.374,-21.347
1130.8,59.416,44.919,-45.374,-21.347
1140.7,57.416,43.919,-49.374,-23.347
1150.6,54.416,41.919,-49.374,-24.347
1160.5,49.416,40.919,-49.374,-23.347
1170.4,47.416,37.919,-54.374,-25.347
1180.3,42.416,36.919,-56.374,-26.347
1190.1,40.416,36.919,-56.374,-27.347
1200.0,40.416,36.919,-58.374,-28.347
1209.9,73.416,58.919,-61.374,-30.347
1219.8,73.416,58.919,-61.374,-30.347
1229.7,105.42,85.919,-62.374,-32.347
1239.6,105.42,85.919,-62.374,-32.347
1249.5,136.42,102.92,-64.374,-30.347
1259.3,136.42,102.92,-64.374,-30.347
1269.2,154.42,106.92,-65.374,-33.347
1279.1,154.42,106.92,-65.374,-33.347
1289.0,153.42,100.92,-67.374,-38.347
1298.9,153.42,100.92,-67.374,-38.347
1308.8,146.42,91.919,-64.374,-39.347
1318.7,146.42,91.919,-64.374,-39.347
1328.5,139.42,85.919,-64.374,-40.347
1338.4,139.42,85.919,-64.374,-40.347
1348.3,130.42,81.919,-61.374,-41.347
1358.2,130.42,81.919,-61.374,-41.347
1368.1,128.42,80.919,-62.374,-41.347
1378.0,132.42,82.919,-62.374,-41.347
1387.9,128.42,79.919,-62.374,-40.347
1397.7,128.42,80.919,-62.374,-40.347
1407.6,129.42,82.919,-64.374,-40.347
1417.5,128.42,83.919,-64.374,-40.347
1427.4,129.42,84.919,-65.374,-40.347
1437.3,130.42,83.919,-65.374,-40.347
1447.2,129.42,84.919,-68.374,-41.347
1457.1,126.42,81.919,-65.374,-42.347
1466.9,123.42,79.919,-69.374,-44.347
1476.8,119.42,76.919,-70.374,-43.347
1486.7,114.42,74.919,-69.374,-45.347
1496.6,110.42,71.919,-71.374,-44.347
1506.5,104.42,68.919,-73.374,-45.347
1516.4,99.416,63.919,-74.374,-47.347
1526.3,95.416,61.919,-74.374,-46.347
1536.1,91.416,57.919,-74.374,-46.347
1546.0,85.416,54.919,-77.374,-48.347
1555.9,80.416,51.919,-77.374,-48.347
1565.8,75.416,47.919,-78.374,-49.347
1575.7,69.416,46.919,-79.374,-49.347
1585.6,64.416,43.919,-80.374,-51.347
1595.5,59.416,39.919,-81.374,-51.347
1605.3,56.416,37.919,-80.374,-51.347
1615.2,50.416,34.919,-83.374,-50.347
1625.1,46.416,33.919,-82.374,-51.347
1635.0,41.416,30.919,-85.374,-51.347
1644.9,37.416,27.919,-85.374,-51.347
1654.8,33.416,25.919,-89.374,-52.347
1664.7,25.416,20.919,-88.374,-52.347
1674.5,28.416,24.919,-90.374,-52.347
1684.4,54.416,46.919,-90.374,-53.347
1694.3,54.416,43.919,-92.374,-53.347
1704.2,66.416,56.919,-92.374,-54.347
1714.1,90.416,72.919,-94.374,-53.347
1724.0,102.42,81.919,-96.374,-53.347
1733.9,112.42,85.919,-92.374,-50.347
1743.7,120.42,87.919,-92.374,-51.347
1753.6,123.42,85.919,-93.374,-52.347
1763.5,122.42,82.919,-93.374,-55.347
1773.4,117.42,75.919,-94.374,-54.347
1783.3,110.42,69.919,-92.374,-56.347
1793.2,100.42,63.919,-88.374,-57.347
1803.1,95.416,57.919,-87.374,-57.347
1812.9,91.416,54.919,-89.374,-58.347
1822.8,86.416,50.919,-88.374,-58.347
1832.7,81.416,47.919,-86.374,-57.347
1842.6,78.416,46.919,-83.374,-56.347
1852.5,79.416,48.919,-83.374,-54.347
1862.4,75.416,46.919,-83.374,-55.347
1872.3,76.416,47.919,-82.374,-54.347
1882.1,77.416,48.919,-84.374,-53.347
1892.0,76.416,48.919,-84.374,-53.347
1901.9,76.416,50.919,-85.374,-53.347
1911.8,74.416,49.919,-82.374,-51.347
1921.7,72.416,50.919,-84.374,-52.347
1931.6,71.416,48.919,-85.374,-54.347
1941.5,70.416,46.919,-83.374,-53.347
1951.3,66.416,45.919,-85.374,-52.347
1961.2,63.416,44.919,-86.374,-53.347
1971.1,62.416,41.919,-86.374,-52.347
1981.0,58.416,41.919,-85.374,-52.347
1990.9,55.416,38.919,-86.374,-52.347
2000.8,53.416,37.919,-86.374,-52.347
2010.7,50.416,34.919,-85.374,-52.347
2020.5,45.416,33.919,-86.374,-51.347
2030.4,43.416,31.919,-86.374,-51.347
2040.3,39.416,29.919,-86.374,-51.347
2050.2,37.416,27.919,-85.374,-51.347
2060.1,33.416,25.919,-85.374,-50.347
2070.0,33.416,25.919,-84.374,-50.347
2079.9,28.416,21.919,-84.374,-50.347
2089.7,28.416,21.919,-85.374,-50.347
2099.6,24.416,20.919,-82.374,-48.347
2109.5,24.416,20.919,-82.374,-47.347
2119.4,15.416,15.919,-82.374,-46.347
2129.3,15.416,15.919,-81.374,-45.347
2139.2,3.4158,7.9193,-81.374,-43.347
2149.1,3.4158,7.9193,-79.374,-43.347
2158.9,26.416,27.919,-78.374,-44.347
2168.8,26.416,27.919,-79.374,-41.347
2178.7,35.416,36.919,-81.374,-42.347
2188.6,35.416,36.919,-78.374,-40.347
2198.5,71.416,61.919,-79.374,-39.347
2208.4,71.416,61.919,-76.374,-37.347
2218.3,86.416,66.919,-74.374,-35.347
2228.1,86.416,66.919,-73.374,-34.347
2238.0,87.416,65.919,-72.374,-36.347
2247.9,86.416,60.919,-70.374,-36.347
2257.8,79.416,54.919,-69.374,-37.347
2267.7,71.416,45.919,-67.374,-37.347
2277.6,65.416,40.919,-62.374,-36.347
2287.5,56.416,33.919,-63.374,-37.347
2297.3,50.416,29.919,-60.374,-35.347
2307.2,44.416,24.919,-60.374,-34.347
2317.1,38.416,20.919,-59.374,-32.347
2327.0,33.416,18.919,-57.374,-30.347
2336.9,36.416,20.919,-56.374,-30.347
2346.8,29.416,16.919,-54.374,-27.347
2356.6,30.416,19.919,-54.374,-26.347
2366.5,31.416,20.919,-54.374,-26.347
2376.4,31.416,20.919,-51.374,-26.347
2386.3,32.416,21.919,-51.374,-26.347
2396.2,30.416,21.919,-53.374,-24.347
2406.1,27.416,22.919,-53.374,-24.347
2416.0,27.416,21.919,-53.374,-24.347
2425.9,25.416,19.919,-53.374,-24.347
2435.7,21.416,16.919,-55.374,-24.347
2445.6,19.416,15.919,-55.374,-24.347
2455.5,13.416,10.919,-53.374,-23.347
2465.4,10.416,8.9193,-53.374,-23.347
2475.3,6.4158,6.9193,-54.374,-24.347
2485.2,2.4158,3.9193,-54.374,-24.347
2495.0,-0.58423,0.91926,-53.374,-23.347
2504.9,-4.5842,0.91926,-53.374,-23.347
2514.8,-7.5842,-2.0807,-53.374,-23.347
2524.7,-7.5842,-2.0807,-53.374,-23.347
2534.6,-13.584,-5.0807,-56.374,-24.347
2544.5,-15.584,-6.0807,-56.374,-24.347
2554.4,-20.584,-9.0807,-55.374,-23.347
2564.3,-24.584,-11.081,-55.374,-23.347
2574.1,-29.584,-12.081,-54.374,-23.347
2584.0,-33.584,-16.081,-54.374,-23.347
2593.9,-36.584,-18.081,-55.374,-23.347
2603.8,-41.584,-21.081,-56.374,-22.347
2613.7,-44.584,-24.081,-55.374,-22.347
2623.6,-49.584,-26.081,-55.374,-22.347
2633.5,-42.584,-18.081,-55.374,-20.347
2643.3,-23.584,-4.0807,-55.374,-20.347
2653.2,-24.584,-6.0807,-54.374,-20.347
2663.1,2.4158,17.919,-55.374,-21.347
2673.0,17.416,27.919,-55.374,-19.347
2682.9,21.416,32.919,-55.374,-19.347
2692.8,32.416,36.919,-54.374,-18.347
2702.6,38.416,35.919,-52.374,-17.347
2712.5,38.416,32.919,-52.374,-17.347
2722.4,33.416,26.919,-48.374,-17.347
2732.3,27.416,19.919,-49.374,-19.347
2742.2,20.416,12.919,-48.374,-19.347
2752.1,11.416,5.9193,-44.374,-18.347
2762.0,5.4158,0.91926,-40.374,-18.347
2771.8,0.41577,-7.0807,-38.374,-16.347
2781.7,-4.5842,-8.0807,-37.374,-16.347
2791.6,-10.584,-11.081,-35.374,-14.347
2801.5,-11.584,-12.081,-31.374,-12.347
2811.4,-13.584,-12.081,-29.374,-12.347
2821.3,-14.584,-12.081,-30.374,-11.347
2831.2,-13.584,-11.081,-30.374,-10.347
2841.0,-12.584,-8.0807,-30.374,-8.3474
2850.9,-8.5842,-8.0807,-29.374,-8.3474
2860.8,-10.584,-5.0807,-27.374,-7.3474
2870.7,-10.584,-6.0807,-27.374,-7.3474
2880.6,-11.584,-5.0807,-25.374,-6.3474
2890.5,-14.584,-6.0807,-27.374,-7.3474
2900.4,-13.584,-8.0807,-28.374,-8.3474
2910.2,-19.584,-10.081,-27.374,-8.3474
2920.1,-19.584,-10.081,-27.374,-6.3474
2930.0,-24.584,-15.081,-24.374,-5.3474
2939.9,-24.584,-15.081,-23.374,-6.3474
2949.8,-31.584,-21.081,-23.374,-4.3474
2959.7,-31.584,-21.081,-23.374,-4.3474
2969.6,-37.584,-23.081,-22.374,-4.3474
2979.4,-37.584,-23.081,-21.374,-4.3474
2989.3,-38.584,-26.081,-22.374,-3.3474
2999.2,-38.584,-26.081,-21.374,-3.3474
3009.1,-43.584,-27.081,-20.374,-2.3474
3019.0,-43.584,-27.081,-21.374,-4.3474
3028.9,-48.584,-30.081,-21.374,-3.3474
3038.8,-48.584,-30.081,-20.374,-3.3474
3048.6,-55.584,-34.081,-20.374,-3.3474
3058.5,-55.584,-34.081,-18.374,-2.3474
3068.4,-60.584,-37.081,-17.374,-0.34742
3078.3,-60.584,-37.081,-16.374,-0.34742
3088.2,-64.584,-40.081,-16.374,-0.34742
3098.1,-68.584,-43.081,-17.374,1.6526
3108.0,-69.584,-41.081,-18.374,-0.34742
3117.8,-48.584,-25.081,-19.374,-0.34742
3127.7,-43.584,-21.081,-18.374,0.65258
3137.6,-29.584,-8.0807,-19.374,-0.34742
3147.5,-1.5842,12.919,-20.374,-0.34742
3157.4,5.4158,16.919,-18.374,1.6526
3167.3,15.416,22.919,-18.374,3.6526
3177.2,29.416,27.919,-18.374,2.6526
3187.0,30.416,25.919,-16.374,1.6526
3196.9,29.416,21.919,-14.374,1.6526
3206.8,26.416,16.919,-13.374,2.6526
3216.7,20.416,10.919,-9.3743,1.6526
3226.6,16.416,5.9193,-7.3743,2.6526
3236.5,11.416,2.9193,-2.3743,4.6526
3246.4,7.4158,-3.0807,-0.37431,4.6526
3256.2,2.4158,-7.0807,3.6257,7.6526
3266.1,-0.58423,-7.0807,5.6257,7.6526
3276.0,-5.5842,-11.081,7.6257,9.6526
3285.9,-3.5842,-11.081,8.6257,9.6526
3295.8,-5.5842,-12.081,9.6257,11.653
3305.7,-4.5842,-11.081,10.626,10.653
3315.6,-3.5842,-7.0807,11.626,12.653
3325.4,-1.5842,-7.0807,12.626,14.653
3335.3,-1.5842,-5.0807,13.626,13.653
3345.2,-3.5842,-6.0807,14.626,14.653
3355.1,-1.5842,-5.0807,14.626,15.653
3365.0,-3.5842,-6.0807,13.626,14.653
3374.9,-5.5842,-8.0807,14.626,13.653
3384.8,-7.5842,-9.0807,14.626,15.653
3394.6,-12.584,-11.081,15.626,16.653
3404.5,-12.584,-11.081,16.626,16.653
3414.4,-13.584,-13.081,15.626,17.653
3424.3,-15.584,-14.081,16.626,18.653
3434.2,-15.584,-14.081,17.626,19.653
3444.1,-18.584,-15.081,18.626,17.653
3454.0,-19.584,-17.081,18.626,17.653
3463.8,-20.584,-16.081,19.626,20.653
3473.7,-24.584,-19.081,19.626,20.653
3483.6,-27.584,-20.081,20.626,20.653
3493.5,-31.584,-22.081,20.626,20.653
3503.4,-32.584,-23.081,22.626,21.653
3513.3,-36.584,-25.081,22.626,21.653
3523.2,-38.584,-26.081,22.626,21.653
3533.0,-40.584,-28.081,22.626,21.653
3542.9,-43.584,-29.081,23.626,23.653
3552.8,-44.584,-31.081,23.626,23.653
3562.7,-49.584,-33.081,26.626,25.653
3572.6,-53.584,-34.081,26.626,25.653
3582.5,-49.584,-29.081,26.626,26.653
3592.4,-26.584,-14.081,26.626,26.653
3602.2,-27.584,-14.081,25.626,26.653
3612.1,1.4158,8.9193,25.626,26.653
3622.0,19.416,18.919,25.626,28.653
3631.9,27.416,23.919,25.626,28.653
3641.8,32.416,22.919,28.626,32.653
3651.7,36.416,23.919,28.626,32.653
3661.6,39.416,21.919,31.626,31.653
3671.4,36.416,15.919,31.626,31.653
3681.3,31.416,10.919,34.626,31.653
3691.2,26.416,5.9193,37.626,32.653
3701.1,25.416,2.9193,41.626,32.653
3711.0,25.416,1.9193,47.626,34.653
3720.9,26.416,2.9193,49.626,34.653
3730.8,25.416,1.9193,52.626,35.653
3740.6,22.416,-0.080741,54.626,38.653
3750.5,21.416,-1.0807,57.626,38.653
3760.4,22.416,-0.080741,58.626,39.653
3770.3,22.416,-0.080741,61.626,42.653
3780.2,21.416,-0.080741,65.626,42.653
3790.1,21.416,-0.080741,62.626,43.653
3800.0,21.416,-0.080741,65.626,45.653
3809.8,21.416,-0.080741,66.626,45.653
3819.7,22.416,0.91926,65.626,46.653
3829.6,22.416,0.91926,67.626,47.653
3839.5,19.416,-0.080741,66.626,47.653
3849.4,19.416,-0.080741,67.626,45.653
3859.3,13.416,-5.0807,68.626,47.653
3869.2,13.416,-5.0807,66.626,46.653
3879.0,8.4158,-8.0807,67.626,47.653
3888.9,8.4158,-8.0807,68.626,48.653
3898.8,1.4158,-12.081,68.626,48.653
3908.7,1.4158,-12.081,70.626,48.653
3918.6,-0.58423,-13.081,70.626,48.653
3928.5,-0.58423,-13.081,72.626,51.653
3938.4,-1.5842,-12.081,73.626,51.653
3948.2,-1.5842,-12.081,73.626,51.653
3958.1,-2.5842,-12.081,73.626,51.653
3968.0,-1.5842,-13.081,72.626,52.653
3977.9,-3.5842,-12.081,74.626,53.653
3987.8,-4.5842,-13.081,74.626,52.653
3997.7,-4.5842,-12.081,76.626,53.653
4007.6,-5.5842,-13.081,76.626,54.653
4017.4,-8.5842,-14.081,75.626,54.653
4027.3,-11.584,-15.081,77.626,55.653
4037.2,-14.584,-15.081,77.626,55.653
4047.1,-16.584,-17.081,79.626,57.653
4057.0,-22.584,-20.081,79.626,57.653
4066.9,-24.584,-19.081,79.626,58.653
4076.8,-9.5842,-6.0807,81.626,60.653
4086.6,5.4158,0.91926,80.626,58.653
4096.5,11.416,7.9193,80.626,59.653
4106.4,40.416,26.919,79.626,59.653
4116.3,53.416,36.919,80.626,61.653
4126.2,62.416,40.919,80.626,61.653
4136.1,68.416,42.919,82.626,62.653
4146.0,71.416,41.919,84.626,62.653
4155.8,74.416,39.919,86.626,62.653
4165.7,71.416,35.919,88.626,63.653
4175.6,70.416,32.919,93.626,64.653
4185.5,66.416,29.919,95.626,65.653
4195.4,66.416,28.919,98.626,64.653
4205.3,67.416,27.919,99.626,65.653
4215.2,64.416,25.919,102.63,66.653
4225.0,62.416,24.919,103.63,65.653
4234.9,60.416,23.919,102.63,65.653
4244.8,59.416,23.919,100.63,65.653
4254.7,62.416,24.919,100.63,66.653
4264.6,61.416,23.919,97.626,64.653
4274.5,61.416,26.919,96.626,65.653
4284.4,62.416,26.919,92.626,65.653
4294.2,61.416,26.919,92.626,64.653
4304.1,59.416,27.919,90.626,64.653
4314.0,60.416,26.919,89.626,63.653
4323.9,57.416,25.919,86.626,62.653
4333.8,56.416,26.919,84.626,61.653
4343.7,54.416,24.919,82.626,63.653
4353.6,52.416,23.919,82.626,61.653
4363.4,49.416,19.919,81.626,61.653
4373.3,46.416,16.919,80.626,61.653
4383.2,42.416,15.919,78.626,60.653
4393.1,41.416,13.919,78.626,60.653
4403.0,38.416,11.919,78.626,60.653
4412.9,32.416,9.9193,76.626,58.653
4422.8,33.416,9.9193,75.626,57.653
4432.6,30.416,7.9193,73.626,55.653
4442.5,29.416,7.9193,72.626,55.653
4452.4,26.416,6.9193,71.626,53.653
4462.3,26.416,5.9193,70.626,53.653
4472.2,26.416,4.9193,65.626,52.653
4482.1,22.416,4.9193,64.626,50.653
4492.0,19.416,2.9193,62.626,49.653
4501.8,16.416,0.91926,60.626,48.653
4511.7,13.416,-1.0807,60.626,46.653
4521.6,11.416,-2.0807,56.626,44.653
4531.5,6.4158,-3.0807,55.626,43.653
4541.4,3.4158,-6.0807,55.626,43.653
4551.3,-2.5842,-9.0807,49.626,40.653
4561.2,-1.5842,-8.0807,49.626,40.653
4571.0,24.416,12.919,46.626,39.653
4580.9,23.416,10.919,46.626,39.653
4590.8,40.416,25.919,40.626,35.653
4600.7,59.416,39.919,40.626,35.653
4610.6,73.416,47.919,37.626,34.653
4620.5,84.416,52.919,37.626,34.653
4630.4,93.416,54.919,34.626,31.653
4640.2,93.416,54.919,34.626,31.653
4650.1,100.42,53.919,29.626,25.653
4660.0,100.42,53.919,29.626,25.653
4669.9,95.416,45.919,31.626,20.653
4679.8,95.416,45.919,31.626,20.653
4689.7,91.416,41.919,29.626,15.653
4699.6,91.416,41.919,29.626,15.653
4709.4,85.416,35.919,28.626,14.653
4719.3,85.416,35.919,28.626,14.653
4729.2,77.416,28.919,26.626,12.653
4739.1,77.416,28.919,26.626,12.653
4749.0,72.416,25.919,26.626,11.653
4758.9,72.416,25.919,24.626,12.653
4768.8,65.416,21.919,23.626,12.653
4778.6,65.416,21.919,23.626,9.6526
4788.5,62.416,18.919,19.626,9.6526
4798.4,62.416,18.919,19.626,8.6526
4808.3,60.416,16.919,17.626,8.6526
4818.2,60.416,16.919,16.626,6.6526
4828.1,58.416,14.919,14.626,6.6526
4838.0,56.416,12.919,12.626,3.6526
4847.8,56.416,12.919,9.6257,3.6526
4857.7,56.416,10.919,8.6257,2.6526
4867.6,51.416,9.9193,7.6257,-0.34742
4877.5,50.416,8.9193,6.6257,0.65258
4887.4,50.416,6.9193,5.6257,-0.34742
4897.3,45.416,5.9193,2.6257,-1.3474
4907.2,43.416,4.9193,3.6257,-1.3474
4917.0,44.416,3.9193,1.6257,-2.3474
4926.9,44.416,5.9193,-0.37431,-4.3474
4936.8,43.416,4.9193,-1.3743,-4.3474
4946.7,42.416,4.9193,-2.3743,-6.3474
4956.6,41.416,3.9193,-4.3743,-6.3474
4966.5,38.416,1.9193,-6.3743,-7.3474
4976.4,34.416,0.91926,-7.3743,-9.3474
4986.2,33.416,0.91926,-8.3743,-10.347
4996.1,34.416,2.9193,-11.374,-10.347
5006.0,34.416,4.9193,-13.374,-11.347
5015.9,34.416,3.9193,-13.374,-11.347
5025.8,32.416,2.9193,-16.374,-15.347
5035.7,30.416,2.9193,-18.374,-15.347
5045.5,26.416,1.9193,-18.374,-16.347
5055.4,24.416,0.91926,-21.374,-16.347
5065.3,20.416,-2.0807,-22.374,-17.347
5075.2,20.416,0.91926,-22.374,-16.347
5085.1,48.416,24.919,-25.374,-17.347
5095.0,54.416,24.919,-26.374,-18.347
5104.9,69.416,38.919,-28.374,-19.347
5114.8,96.416,59.919,-30.374,-20.347
5124.6,109.42,67.919,-32.374,-19.347
5134.5,121.42,72.919,-30.374,-19.347
5144.4,132.42,76.919,-31.374,-20.347
5154.3,136.42,76.919,-33.374,-23.347
5164.2,137.42,73.919,-33.374,-24.347
5174.1,135.42,68.919,-32.374,-26.347
5183.9,129.42,62.919,-31.374,-25.347
5193.8,121.42,57.919,-28.374,-27.347
5203.7,117.42,53.919,-27.374,-26.347
5213.6,112.42,50.919,-27.374,-29.347
5223.5,109.42,48.919,-27.374,-29.347
5233.4,101.42,43.919,-28.374,-28.347
5243.3,99.416,42.919,-25.374,-28.347
5253.1,100.42,44.919,-25.374,-27.347
5263.0,101.42,43.919,-25.374,-27.347
5272.9,101.42,44.919,-24.374,-26.347
5282.8,102.42,46.919,-25.374,-26.347
5292.7,102.42,46.919,-25.374,-26.347
5302.6,101.42,47.919,-25.374,-26.347
5312.5,99.416,47.919,-27.374,-25.347
5322.3,96.416,45.919,-29.374,-26.347
5332.2,91.416,42.919,-29.374,-27.347
5342.1,88.416,40.919,-31.374,-28.347
5352.0,82.416,35.919,-34.374,-28.347
5361.9,76.416,31.919,-32.374,-28.347
5371.8,67.416,27.919,-34.374,-29.347
5381.7,59.416,22.919,-34.374,-29.347
5391.5,55.416,18.919,-36.374,-30.347
5401.4,47.416,13.919,-35.374,-30.347
5411.3,44.416,12.919,-37.374,-31.347
5421.2,41.416,11.919,-39.374,-31.347
5431.1,37.416,8.9193,-40.374,-32.347
5441.0,34.416,7.9193,-42.374,-33.347
5450.9,31.416,5.9193,-42.374,-33.347
5460.7,26.416,3.9193,-42.374,-33.347
5470.6,25.416,3.9193,-41.374,-34.347
5480.5,21.416,1.9193,-42.374,-32.347
5490.4,19.416,-0.080741,-42.374,-32.347
5500.3,16.416,-1.0807,-43.374,-32.347
5510.2,16.416,-1.0807,-45.374,-33.347
5520.1,10.416,-3.0807,-44.374,-32.347
5529.9,10.416,-3.0807,-43.374,-31.347
5539.8,5.4158,-5.0807,-45.374,-32.347
5549.7,5.4158,-5.0807,-47.374,-31.347
5559.6,-0.58423,-9.0807,-46.374,-32.347
5569.5,-0.58423,-9.0807,-46.374,-32.347
5579.4,-8.5842,-12.081,-46.374,-31.347
5589.3,-8.5842,-12.081,-46.374,-31.347
5599.1,22.416,9.9193,-48.374,-31.347
5609.0,22.416,9.9193,-48.374,-31.347
5618.9,50.416,33.919,-48.374,-30.347
5628.8,50.416,33.919,-48.374,-30.347
5638.7,71.416,46.919,-49.374,-28.347
5648.6,71.416,46.919,-49.374,-28.347
5658.5,84.416,49.919,-47.374,-27.347
5668.3,84.416,49.919,-47.374,-27.347
5678.2,84.416,44.919,-45.374,-30.347
5688.1,79.416,39.919,-45.374,-30.347
5698.0,72.416,31.919,-40.374,-31.347
5707.9,63.416,24.919,-40.374,-31.347
5717.8,58.416,19.919,-39.374,-31.347
5727.7,51.416,15.919,-39.374,-31.347
5737.5,46.416,12.919,-36.374,-30.347
5747.4,39.416,6.9193,-36.374,-30.347
5757.3,33.416,2.9193,-34.374,-27.347
5767.2,32.416,2.9193,-34.374,-27.347
5777.1,27.416,-0.080741,-31.374,-25.347
5787.0,24.416,-1.0807,-29.374,-24.347
5796.9,24.416,-0.080741,-31.374,-24.347
5806.7,23.416,-0.080741,-28.374,-24.347
5816.6,21.416,-2.0807,-28.374,-20.347
5826.5,19.416,-3.0807,-27.374,-21.347
5836.4,18.416,-4.0807,-28.374,-20.347
5846.3,17.416,-3.0807,-30.374,-21.347
5856.2,14.416,-6.0807,-28.374,-19.347
5866.1,13.416,-7.0807,-28.374,-21.347
5875.9,9.4158,-8.0807,-28.374,-17.347
5885.8,7.4158,-10.081,-28.374,-19.347
5895.7,1.4158,-13.081,-26.374,-17.347
5905.6,-2.5842,-17.081,-27.374,-17.347
5915.5,-6.5842,-19.081,-25.374,-16.347
5925.4,-9.5842,-21.081,-24.374,-16.347
5935.3,-14.584,-24.081,-25.374,-15.347
5945.1,-15.584,-25.081,-22.374,-14.347
5955.0,-16.584,-25.081,-23.374,-14.347
5964.9,-19.584,-26.081,-24.374,-15.347
5974.8,-22.584,-27.081,-24.374,-13.347
5984.7,-23.584,-28.081,-22.374,-14.347
5994.6,-24.584,-29.081,-21.374,-14.347
6004.5,-28.584,-32.081,-22.374,-12.347
6014.3,-33.584,-34.081,-22.374,-13.347
6024.2,-36.584,-36.081,-21.374,-12.347
6034.1,-39.584,-36.081,-22.374,-12.347
6044.0,-44.584,-38.081,-23.374,-10.347
6053.9,-47.584,-40.081,-22.374,-9.3474
6063.8,-49.584,-44.081,-22.374,-10.347
6073.7,-54.584,-46.081,-21.374,-10.347
6083.5,-60.584,-49.081,-22.374,-9.3474
6093.4,-60.584,-46.081,-25.374,-9.3474
6103.3,-34.584,-26.081,-23.374,-10.347
6113.2,-33.584,-28.081,-25.374,-8.3474
6123.1,-25.584,-20.081,-25.374,-7.3474
6133.0,0.41577,-0.080741,-26.374,-8.3474
6142.9,5.4158,4.9193,-27.374,-8.3474
6152.7,15.416,8.9193,-26.374,-8.3474
6162.6,23.416,11.919,-25.374,-8.3474
6172.5,26.416,11.919,-26.374,-7.3474
6182.4,25.416,6.9193,-25.374,-8.3474
6192.3,18.416,-0.080741,-24.374,-8.3474
6202.2,11.416,-8.0807,-23.374,-8.3474
6212.1,2.4158,-16.081,-21.374,-9.3474
6221.9,-5.5842,-22.081,-20.374,-12.347
6231.8,-12.584,-28.081,-20.374,-12.347
6241.7,-17.584,-32.081,-19.374,-13.347
6251.6,-24.584,-36.081,-17.374,-11.347
6261.5,-29.584,-38.081,-15.374,-10.347
6271.4,-28.584,-36.081,-12.374,-7.3474
6281.3,-32.584,-39.081,-12.374,-6.3474
6291.1,-30.584,-38.081,-11.374,-6.3474
6301.0,-31.584,-36.081,-12.374,-4.3474
6310.9,-28.584,-34.081,-10.374,-2.3474
6320.8,-29.584,-33.081,-11.374,-3.3474
6330.7,-29.584,-33.081,-10.374,-3.3474
6340.6,-31.584,-33.081,-11.374,-3.3474
6350.5,-34.584,-34.081,-11.374,-2.3474
6360.3,-35.584,-34.081,-11.374,-3.3474
6370.2,-37.584,-37.081,-10.374,-4.3474
6380.1,-37.584,-37.081,-12.374,-4.3474
6390.0,-43.584,-41.081,-14.374,-4.3474
6399.9,-43.584,-41.081,-13.374,-3.3474
6409.8,-50.584,-45.081,-13.374,-2.3474
6419.7,-50.584,-45.081,-14.374,-4.3474
6429.5,-55.584,-49.081,-13.374,-3.3474
6439.4,-55.584,-49.081,-14.374,-3.3474
6449.3,-60.584,-53.081,-13.374,-4.3474
6459.2,-60.584,-53.081,-13.374,-4.3474
6469.1,-66.584,-55.081,-15.374,-6.3474
6479.0,-66.584,-55.081,-16.374,-5.3474
6488.9,-71.584,-58.081,-14.374,-4.3474
6498.7,-71.584,-58.081,-15.374,-6.3474
6508.6,-76.584,-62.081,-15.374,-6.3474
6518.5,-76.584,-62.081,-15.374,-4.3474
6528.4,-83.584,-65.081,-15.374,-3.3474
6538.3,-83.584,-65.081,-13.374,-3.3474
6548.2,-86.584,-66.081,-14.374,-2.3474
6558.1,-89.584,-69.081,-13.374,-3.3474
6567.9,-92.584,-71.081,-12.374,-3.3474
6577.8,-97.584,-74.081,-14.374,-4.3474
6587.7,-102.58,-76.081,-14.374,-2.3474
6597.6,-97.584,-71.081,-15.374,-2.3474
6607.5,-72.584,-52.081,-16.374,-2.3474
6617.4,-74.584,-51.081,-16.374,-1.3474
6627.3,-48.584,-31.081,-18.374,-2.3474
6637.1,-28.584,-17.081,-18.374,-3.3474
6647.0,-22.584,-14.081,-20.374,-1.3474
6656.9,-10.584,-6.0807,-20.374,-1.3474
6666.8,0.41577,-4.0807,-17.374,-1.3474
6676.7,0.41577,-5.0807,-17.374,-1.3474
6686.6,-0.58423,-10.081,-17.374,-4.3474
6696.5,-4.5842,-17.081,-17.374,-4.3474
6706.3,-11.584,-23.081,-16.374,-7.3474
6716.2,-17.584,-29.081,-16.374,-7.3474
6726.1,-25.584,-36.081,-10.374,-6.3474
6736.0,-30.584,-40.081,-10.374,-6.3474
6745.9,-33.584,-44.081,-6.3743,-5.3474
6755.8,-39.584,-46.081,-6.3743,-5.3474
6765.7,-42.584,-49.081,-3.3743,-1.3474
6775.5,-40.584,-46.081,-3.3743,-1.3474
6785.4,-44.584,-50.081,-1.3743,0.65258
6795.3,-42.584,-45.081,-1.3743,0.65258
6805.2,-40.584,-43.081,1.6257,4.6526
6815.1,-38.584,-41.081,1.6257,4.6526
6825.0,-39.584,-40.081,1.6257,4.6526
6834.9,-37.584,-40.081,1.6257,4.6526
6844.7,-40.584,-40.081,2.6257,6.6526
6854.6,-40.584,-39.081,2.6257,6.6526
6864.5,-43.584,-41.081,1.6257,5.6526
6874.4,-45.584,-41.081,2.6257,4.6526
6884.3,-48.584,-43.081,3.6257,5.6526
6894.2,-51.584,-47.081,3.6257,5.6526
6904.1,-53.584,-48.081,3.6257,7.6526
6913.9,-55.584,-50.081,3.6257,6.6526
6923.8,-57.584,-52.081,3.6257,7.6526
6933.7,-60.584,-52.081,6.6257,6.6526
6943.6,-62.584,-54.081,5.6257,8.6526
6953.5,-63.584,-54.081,4.6257,7.6526
6963.4,-67.584,-57.081,4.6257,7.6526
6973.3,-68.584,-57.081,2.6257,6.6526
6983.1,-71.584,-59.081,4.6257,6.6526
6993.0,-73.584,-60.081,3.6257,6.6526
7002.9,-75.584,-62.081,3.6257,8.6526
7012.8,-78.584,-62.081,5.6257,6.6526
7022.7,-81.584,-64.081,4.6257,8.6526
7032.6,-87.584,-66.081,4.6257,9.6526
7042.5,-89.584,-67.081,4.6257,8.6526
7052.3,-92.584,-70.081,4.6257,7.6526
7062.2,-95.584,-69.081,4.6257,9.6526
7072.1,-100.58,-72.081,5.6257,10.653
7082.0,-100.58,-73.081,5.6257,10.653
7091.9,-83.584,-58.081,6.6257,9.6526
7101.8,-70.584,-50.081,5.6257,9.6526
7111.7,-63.584,-42.081,3.6257,10.653
7121.5,-30.584,-18.081,4.6257,10.653
7131.4,-22.584,-12.081,2.6257,9.6526
7141.3,-12.584,-6.0807,3.6257,9.6526
7151.2,0.41577,-2.0807,2.6257,12.653
7161.1,6.4158,-1.0807,3.6257,10.653
7171.0,5.4158,-5.0807,5.6257,11.653
7180.9,3.4158,-11.081,5.6257,11.653
7190.7,-2.5842,-17.081,7.6257,10.653
7200.6,-9.5842,-24.081,11.626,11.653
7210.5,-15.584,-30.081,11.626,11.653
7220.4,-19.584,-34.081,15.626,11.653
7230.3,-19.584,-34.081,17.626,12.653
7240.2,-27.584,-39.081,20.626,12.653
7250.1,-27.584,-39.081,22.626,15.653
7259.9,-32.584,-40.081,23.626,15.653
7269.8,-32.584,-40.081,25.626,15.653
7279.7,-29.584,-38.081,26.626,17.653
7289.6,-29.584,-38.081,27.626,18.653
7299.5,-26.584,-33.081,27.626,19.653
7309.4,-26.584,-33.081,28.626,18.653
7319.3,-23.584,-31.081,28.626,19.653
7329.1,-23.584,-31.081,29.626,21.653
7339.0,-25.584,-31.081,29.626,21.653
7348.9,-25.584,-31.081,31.626,21.653
7358.8,-26.584,-31.081,29.626,21.653
7368.7,-26.584,-31.081,31.626,20.653
7378.6,-29.584,-32.081,29.626,21.653
7388.5,-29.584,-32.081,30.626,21.653
7398.3,-29.584,-32.081,29.626,23.653
7408.2,-29.584,-32.081,29.626,23.653
7418.1,-28.584,-31.081,29.626,23.653
7428.0,-29.584,-31.081,30.626,24.653
7437.9,-26.584,-28.081,30.626,23.653
7447.8,-27.584,-28.081,32.626,24.653
7457.7,-26.584,-28.081,31.626,24.653
7467.5,-29.584,-29.081,33.626,24.653
7477.4,-34.584,-32.081,32.626,25.653
7487.3,-38.584,-35.081,32.626,25.653
7497.2,-43.584,-39.081,34.626,25.653
7507.1,-48.584,-40.081,33.626,27.653
7517.0,-51.584,-43.081,35.626,27.653
7526.9,-53.584,-45.081,33.626,27.653
7536.7,-59.584,-47.081,37.626,28.653
7546.6,-62.584,-49.081,37.626,29.653
7556.5,-63.584,-51.081,36.626,29.653
7566.4,-68.584,-54.081,37.626,29.653
7576.3,-76.584,-56.081,37.626,29.653
7586.2,-74.584,-54.081,39.626,31.653
7596.0,-48.584,-37.081,39.626,30.653
7605.9,-48.584,-37.081,37.626,31.653
7615.8,-27.584,-18.081,37.626,32.653
7625.7,-0.58423,-1.0807,37.626,33.653
7635.6,8.4158,3.9193,39.626,36.653
7645.5,17.416,6.9193,40.626,36.653
7655.4,24.416,8.9193,42.626,37.653
7665.3,23.416,5.9193,43.626,37.653
7675.1,25.416,1.9193,46.626,37.653
7685.0,19.416,-3.0807,46.626,36.653
7694.9,13.416,-11.081,48.626,38.653
7704.8,5.4158,-16.081,56.626,39.653
7714.7,1.4158,-21.081,59.626,41.653
7724.6,-2.5842,-23.081,61.626,42.653
7734.4,-4.5842,-25.081,64.626,42.653
7744.3,-9.5842,-28.081,64.626,42.653
7754.2,-11.584,-30.081,67.626,44.653
7764.1,-12.584,-31.081,67.626,44.653
7774.0,-11.584,-31.081,69.626,46.653
7783.9,-14.584,-31.081,69.626,46.653
7793.8,-11.584,-29.081,72.626,49.653
7803.7,-10.584,-28.081,72.626,49.653
7813.5,-11.584,-28.081,72.626,49.653
7823.4,-11.584,-27.081,72.626,49.653
7833.3,-12.584,-27.081,71.626,50.653
7843.2,-11.584,-27.081,71.626,50.653
7853.1,-13.584,-28.081,73.626,51.653
7863.0,-12.584,-28.081,73.626,51.653
7872.8,-14.584,-28.081,72.626,52.653
7882.7,-16.584,-30.081,72.626,52.653
7892.6,-20.584,-32.081,74.626,53.653
7902.5,-20.584,-31.081,74.626,53.653
7912.4,-23.584,-32.081,77.626,54.653
7922.3,-22.584,-34.081,77.626,54.653
7932.2,-24.584,-34.081,77.626,54.653
7942.0,-26.584,-35.081,77.626,54.653
7951.9,-28.584,-35.081,76.626,54.653
7961.8,-28.584,-35.081,76.626,54.653
7971.7,-30.584,-37.081,74.626,53.653
7981.6,-31.584,-36.081,75.626,54.653
7991.5,-33.584,-37.081,73.626,53.653
8001.4,-36.584,-38.081,71.626,51.653
8011.2,-38.584,-40.081,71.626,52.653
8021.1,-41.584,-41.081,70.626,51.653
8031.0,-43.584,-40.081,68.626,51.653
8040.9,-46.584,-43.081,65.626,50.653
8050.8,-48.584,-42.081,62.626,49.653
8060.7,-54.584,-45.081,61.626,49.653
8070.6,-59.584,-49.081,58.626,49.653
8080.4,-58.584,-47.081,57.626,49.653
8090.3,-29.584,-25.081,54.626,47.653
8100.2,-29.584,-25.081,52.626,47.653
8110.1,-13.584,-10.081,49.626,47.653
8120.0,-13.584,-10.081,48.626,46.653
8129.9,21.416,12.919,45.626,44.653
8139.8,21.416,12.919,43.626,45.653
8149.6,42.416,20.919,42.626,46.653
8159.5,42.416,20.919,43.626,45.653
8169.4,51.416,18.919,40.626,42.653
8179.3,51.416,18.919,40.626,41.653
8189.2,46.416,9.9193,41.626,40.653
8199.1,46.416,9.9193,42.626,39.653
8209.0,37.416,1.9193,43.626,37.653
8218.8,37.416,1.9193,42.626,36.653
8228.7,33.416,-1.0807,43.626,32.653
8238.6,33.416,-1.0807,40.626,32.653
8248.5,24.416,-7.0807,40.626,32.653
8258.4,24.416,-7.0807,40.626,31.653
8268.3,24.416,-6.0807,38.626,28.653
8278.2,24.416,-7.0807,38.626,30.653
8288.0,21.416,-7.0807,35.626,29.653
8297.9,20.416,-7.0807,33.626,29.653
8307.8,21.416,-7.0807,31.626,27.653
8317.7,21.416,-5.0807,30.626,26.653
8327.6,21.416,-6.0807,28.626,25.653
8337.5,19.416,-6.0807,27.626,24.653
8347.4,19.416,-5.0807,24.626,22.653
8357.2,16.416,-6.0807,20.626,21.653
8367.1,17.416,-6.0807,18.626,19.653
8377.0,13.416,-8.0807,15.626,18.653
8386.9,11.416,-9.0807,13.626,16.653
8396.8,9.4158,-10.081,10.626,15.653
8406.7,7.4158,-13.081,6.6257,13.653
8416.6,4.4158,-14.081,5.6257,10.653
8426.4,0.41577,-15.081,3.6257,9.6526
8436.3,-1.5842,-17.081,-0.37431,6.6526
8446.2,-5.5842,-19.081,0.62569,5.6526
8456.1,-7.5842,-19.081,-3.3743,4.6526
8466.0,-9.5842,-21.081,-7.3743,2.6526
8475.9,-11.584,-22.081,-7.3743,1.6526
8485.8,-12.584,-23.081,-9.3743,0.65258
8495.6,-16.584,-24.081,-9.3743,-1.3474
8505.5,-17.584,-26.081,-13.374,-1.3474
8515.4,-18.584,-26.081,-16.374,-4.3474
8525.3,-23.584,-26.081,-15.374,-4.3474
8535.2,-26.584,-28.081,-18.374,-5.3474
8545.1,-30.584,-32.081,-20.374,-5.3474
8555.0,-34.584,-33.081,-21.374,-7.3474
8564.8,-39.584,-36.081,-23.374,-7.3474
8574.7,-46.584,-41.081,-27.374,-9.3474
8584.6,-48.584,-40.081,-26.374,-10.347
8594.5,-25.584,-19.081,-29.374,-11.347
8604.4,-14.584,-16.081,-32.374,-13.347
8614.3,-12.584,-10.081,-34.374,-13.347
8624.2,19.416,10.919,-36.374,-14.347
8634.0,33.416,20.919,-37.374,-15.347
8643.9,47.416,28.919,-36.374,-13.347
8653.8,59.416,33.919,-38.374,-14.347
8663.7,69.416,34.919,-41.374,-18.347
8673.6,72.416,33.919,-41.374,-20.347
8683.5,72.416,29.919,-43.374,-23.347
8693.4,66.416,24.919,-42.374,-24.347
8703.2,60.416,18.919,-41.374,-26.347
8713.1,57.416,16.919,-40.374,-26.347
8723.0,55.416,12.919,-43.374,-28.347
8732.9,52.416,10.919,-40.374,-29.347
8742.8,46.416,8.9193,-41.374,-30.347
8752.7,42.416,6.9193,-42.374,-29.347
8762.6,43.416,7.9193,-43.374,-31.347
8772.4,46.416,10.919,-44.374,-30.347
8782.3,46.416,10.919,-43.374,-31.347
8792.2,49.416,14.919,-44.374,-30.347
8802.1,48.416,16.919,-45.374,-31.347
8812.0,50.416,16.919,-47.374,-30.347
8821.9,51.416,20.919,-48.374,-31.347
8831.8,50.416,19.919,-47.374,-31.347
8841.6,49.416,19.919,-52.374,-32.347
8851.5,47.416,17.919,-52.374,-32.347
8861.4,45.416,16.919,-56.374,-35.347
8871.3,42.416,13.919,-56.374,-35.347
8881.2,38.416,10.919,-56.374,-36.347
8891.1,36.416,9.9193,-56.374,-36.347
8901.0,33.416,8.9193,-59.374,-38.347
8910.8,30.416,6.9193,-59.374,-38.347
8920.7,26.416,3.9193,-60.374,-39.347
8930.6,26.416,4.9193,-60.374,-39.347
8940.5,23.416,3.9193,-63.374,-40.347
8950.4,21.416,2.9193,-63.374,-40.347
8960.3,18.416,1.9193,-64.374,-42.347
8970.2,18.416,1.9193,-64.374,-42.347
8980.0,14.416,0.91926,-65.374,-43.347
8989.9,14.416,0.91926,-65.374,-43.347
8999.8,9.4158,-1.0807,-67.374,-44.347
9009.7,9.4158,-1.0807,-67.374,-44.347
9019.6,3.4158,-4.0807,-69.374,-46.347
9029.5,3.4158,-4.0807,-69.374,-46.347
9039.4,-3.5842,-8.0807,-72.374,-46.347
9049.2,-3.5842,-8.0807,-72.374,-46.347
9059.1,-8.5842,-11.081,-74.374,-46.347
9069.0,-8.5842,-11.081,-74.374,-47.347
9078.9,-20.584,-17.081,-78.374,-48.347
9088.8,-20.584,-17.081,-78.374,-48.347
9098.7,15.416,10.919,-80.374,-48.347
9108.6,15.416,10.919,-80.374,-48.347
9118.4,37.416,28.919,-79.374,-49.347
9128.3,37.416,28.919,-81.374,-48.347
9138.2,55.416,41.919,-80.374,-50.347
9148.1,66.416,46.919,-83.374,-48.347
9158.0,82.416,52.919,-82.374,-46.347
9167.9,91.416,55.919,-81.374,-48.347
9177.8,94.416,53.919,-82.374,-51.347
9187.6,90.416,47.919,-82.374,-53.347
9197.5,85.416,42.919,-82.374,-53.347
9207.4,78.416,34.919,-80.374,-53.347
9217.3,70.416,29.919,-77.374,-55.347
9227.2,65.416,24.919,-76.374,-56.347
9237.1,58.416,21.919,-77.374,-55.347
9247.0,53.416,17.919,-76.374,-57.347
9256.8,48.416,14.919,-76.374,-54.347
9266.7,47.416,13.919,-76.374,-55.347
9276.6,46.416,16.919,-77.374,-54.347
9286.5,44.416,13.919,-77.374,-55.347
9296.4,46.416,16.919,-76.374,-53.347
9306.3,47.416,18.919,-76.374,-54.347
9316.2,47.416,19.919,-78.374,-53.347
9326.0,45.416,19.919,-77.374,-53.347
9335.9,45.416,19.919,-77.374,-52.347
9345.8,43.416,17.919,-79.374,-53.347
9355.7,40.416,16.919,-80.374,-55.347
9365.6,36.416,15.919,-84.374,-55.347
9375.5,32.416,12.919,-81.374,-54.347
9385.4,27.416,8.9193,-81.374,-54.347
9395.2,22.416,4.9193,-80.374,-54.347
9405.1,16.416,2.9193,-82.374,-54.347
9415.0,13.416,-2.0807,-81.374,-53.347
9424.9,7.4158,-5.0807,-83.374,-54.347
9434.8,2.4158,-7.0807,-82.374,-54.347
9444.7,-0.58423,-8.0807,-82.374,-55.347
9454.6,-5.5842,-10.081,-81.374,-54.347
9464.4,-10.584,-14.081,-83.374,-55.347
9474.3,-12.584,-15.081,-82.374,-55.347
9484.2,-14.584,-16.081,-81.374,-55.347
9494.1,-16.584,-17.081,-83.374,-54.347
9504.0,-19.584,-19.081,-83.374,-54.347
9513.9,-23.584,-20.081,-84.374,-54.347
9523.8,-27.584,-22.081,-84.374,-55.347
9533.6,-28.584,-23.081,-84.374,-54.347
9543.5,-33.584,-25.081,-83.374,-54.347
9553.4,-37.584,-26.081,-85.374,-53.347
9563.3,-42.584,-30.081,-84.374,-54.347
9573.2,-44.584,-31.081,-84.374,-53.347
9583.1,-50.584,-36.081,-84.374,-53.347
9593.0,-53.584,-34.081,-87.374,-52.347
9602.8,-30.584,-15.081,-85.374,-51.347
9612.7,-19.584,-10.081,-85.374,-50.347
9622.6,-20.584,-8.0807,-85.374,-51.347
9632.5,9.4158,13.919,-85.374,-50.347
9642.4,22.416,22.919,-83.374,-49.347
9652.3,31.416,27.919,-83.374,-47.347
9662.2,42.416,31.919,-82.374,-45.347
9672.0,47.416,31.919,-83.374,-46.347
9681.9,47.416,28.919,-85.374,-48.347
9691.8,41.416,21.919,-82.374,-48.347
9701.7,33.416,13.919,-79.374,-50.347
9711.6,25.416,5.9193,-77.374,-50.347
9721.5,16.416,-0.080741,-73.374,-48.347
9731.4,9.4158,-4.0807,-72.374,-47.347
9741.2,2.4158,-9.0807,-71.374,-50.347
9751.1,-2.5842,-12.081,-67.374,-47.347
9761.0,-8.5842,-17.081,-67.374,-47.347
9770.9,-7.5842,-15.081,-64.374,-46.347
9780.8,-10.584,-17.081,-66.374,-44.347
9790.7,-12.584,-17.081,-61.374,-43.347
9800.6,-11.584,-15.081,-62.374,-41.347
9810.4,-12.584,-14.081,-61.374,-38.347
9820.3,-12.584,-14.081,-61.374,-38.347
9830.2,-12.584,-13.081,-60.374,-37.347
9840.1,-12.584,-13.081,-59.374,-36.347
9850.0,-14.584,-12.081,-59.374,-37.347
9859.9,-14.584,-12.081,-59.374,-37.347
9869.8,-19.584,-15.081,-57.374,-35.347
9879.6,-19.584,-15.081,-59.374,-36.347
9889.5,-24.584,-18.081,-58.374,-34.347
9899.4,-24.584,-18.081,-58.374,-35.347
9909.3,-31.584,-23.081,-56.374,-34.347
9919.2,-31.584,-23.081,-55.374,-34.347
9929.1,-35.584,-27.081,-55.374,-32.347
9939.0,-35.584,-27.081,-52.374,-32.347
9948.8,-42.584,-30.081,-53.374,-31.347
9958.7,-42.584,-30.081,-51.374,-31.347
9968.6,-45.584,-32.081,-52.374,-31.347
9978.5,-45.584,-32.081,-52.374,-31.347
9988.4,-54.584,-36.081,-50.374,-28.347
9998.3,-54.584,-36.081,-50.374,-28.347
10008.0,-58.584,-37.081,-46.374,-26.347
10018.0,-59.584,-39.081,-46.374,-26.347
10028.0,-62.584,-40.081,-48.374,-26.347
10038.0,-64.584,-43.081,-48.374,-26.347
10048.0,-69.584,-42.081,-46.374,-24.347
10058.0,-72.584,-44.081,-46.374,-24.347
10068.0,-76.584,-47.081,-46.374,-21.347
10077.0,-80.584,-52.081,-46.374,-21.347
10087.0,-87.584,-54.081,-44.374,-20.347
10097.0,-89.584,-54.081,-44.374,-20.347
10107.0,-74.584,-39.081,-44.374,-19.347
10117.0,-60.584,-33.081,-44.374,-19.347
10127.0,-63.584,-33.081,-46.374,-19.347
10137.0,-33.584,-9.0807,-46.374,-19.347
10147.0,-20.584,-1.0807,-44.374,-18.347
10156.0,-12.584,2.9193,-44.374,-18.347
10166.0,-1.5842,7.9193,-45.374,-16.347
10176.0,4.4158,8.9193,-44.374,-15.347
10186.0,2.4158,4.9193,-42.374,-17.347
10196.0,-1.5842,-1.0807,-42.374,-18.347
10206.0,-9.5842,-10.081,-42.374,-20.347
10216.0,-16.584,-17.081,-38.374,-20.347
10226.0,-27.584,-26.081,-38.374,-21.347
10236.0,-36.584,-32.081,-36.374,-21.347
10245.0,-42.584,-37.081,-36.374,-20.347
10255.0,-46.584,-40.081,-33.374,-20.347
10265.0,-54.584,-45.081,-32.374,-17.347
10275.0,-55.584,-44.081,-32.374,-16.347
10285.0,-55.584,-45.081,-29.374,-16.347
10295.0,-58.584,-44.081,-30.374,-15.347
10305.0,-57.584,-41.081,-29.374,-13.347
10315.0,-54.584,-39.081,-29.374,-12.347
10325.0,-53.584,-36.081,-28.374,-13.347
10334.0,-51.584,-35.081,-27.374,-12.347
10344.0,-51.584,-35.081,-27.374,-11.347
10354.0,-51.584,-34.081,-27.374,-11.347
10364.0,-51.584,-35.081,-27.374,-10.347
10374.0,-54.584,-37.081,-27.374,-10.347
10384.0,-55.584,-38.081,-27.374,-11.347
10394.0,-58.584,-39.081,-27.374,-9.3474
10404.0,-62.584,-42.081,-26.374,-9.3474
10414.0,-66.584,-45.081,-26.374,-9.3474
10423.0,-68.584,-47.081,-25.374,-9.3474
10433.0,-70.584,-49.081,-26.374,-8.3474
10443.0,-73.584,-50.081,-27.374,-8.3474
10453.0,-74.584,-50.081,-27.374,-8.3474
10463.0,-76.584,-52.081,-26.374,-9.3474
10473.0,-78.584,-52.081,-24.374,-8.3474
10483.0,-79.584,-51.081,-24.374,-9.3474
10493.0,-82.584,-53.081,-25.374,-10.347
10502.0,-84.584,-54.081,-24.374,-8.3474
10512.0,-86.584,-57.081,-25.374,-8.3474
10522.0,-87.584,-56.081,-23.374,-7.3474
10532.0,-89.584,-56.081,-25.374,-6.3474
10542.0,-89.584,-56.081,-24.374,-7.3474
10552.0,-93.584,-58.081,-24.374,-7.3474
10562.0,-98.584,-61.081,-25.374,-5.3474
10572.0,-103.58,-64.081,-25.374,-6.3474
10582.0,-106.58,-65.081,-25.374,-5.3474
10591.0,-95.584,-56.081,-27.374,-6.3474
10601.0,-79.584,-44.081,-28.374,-5.3474
10611.0,-81.584,-44.081,-29.374,-5.3474
10621.0,-49.584,-19.081,-28.374,-5.3474
10631.0,-35.584,-7.0807,-29.374,-4.3474
10641.0,-26.584,-3.0807,-30.374,-6.3474
10651.0,-16.584,0.91926,-29.374,-4.3474
10661.0,-10.584,1.9193,-27.374,-2.3474
10671.0,-6.5842,-1.0807,-27.374,-3.3474
10680.0,-11.584,-7.0807,-26.374,-5.3474
10690.0,-11.584,-7.0807,-25.374,-6.3474
10700.0,-28.584,-22.081,-25.374,-7.3474
10710.0,-28.584,-22.081,-23.374,-7.3474
10720.0,-45.584,-37.081,-21.374,-8.3474
10730.0,-45.584,-37.081,-19.374,-6.3474
10740.0,-61.584,-48.081,-17.374,-6.3474
10750.0,-61.584,-48.081,-14.374,-5.3474
10760.0,-70.584,-54.081,-13.374,-4.3474
10769.0,-70.584,-54.081,-13.374,-4.3474
10779.0,-72.584,-54.081,-11.374,-1.3474
10789.0,-72.584,-54.081,-8.3743,-0.34742
10799.0,-69.584,-50.081,-11.374,0.65258
10809.0,-69.584,-50.081,-9.3743,1.6526
10819.0,-66.584,-45.081,-9.3743,1.6526
10829.0,-66.584,-45.081,-7.3743,1.6526
10839.0,-70.584,-47.081,-7.3743,2.6526
10848.0,-70.584,-47.081,-7.3743,2.6526
10858.0,-70.584,-46.081,-8.3743,1.6526
10868.0,-71.584,-49.081,-7.3743,0.65258
10878.0,-72.584,-49.081,-6.3743,0.65258
10888.0,-76.584,-53.081,-8.3743,1.6526
10898.0,-79.584,-54.081,-7.3743,2.6526
10908.0,-82.584,-56.081,-7.3743,2.6526
10918.0,-86.584,-58.081,-7.3743,4.6526
10928.0,-89.584,-60.081,-7.3743,4.6526
10937.0,-91.584,-62.081,-6.3743,4.6526
10947.0,-92.584,-61.081,-3.3743,4.6526
10957.0,-95.584,-63.081,-4.3743,4.6526
10967.0,-94.584,-64.081,-3.3743,5.6526
10977.0,-98.584,-66.081,-3.3743,5.6526
10987.0,-99.584,-66.081,-5.3743,4.6526
10997.0,-103.58,-68.081,-4.3743,5.6526
11007.0,-107.58,-69.081,-2.3743,5.6526
11017.0,-107.58,-70.081,-4.3743,5.6526
11026.0,-107.58,-69.081,-1.3743,7.6526
11036.0,-110.58,-71.081,-1.3743,7.6526
11046.0,-114.58,-71.081,-1.3743,7.6526
11056.0,-114.58,-73.081,-2.3743,7.6526
11066.0,-118.58,-76.081,-2.3743,7.6526
11076.0,-120.58,-76.081,-1.3743,9.6526
11086.0,-106.58,-62.081,-1.3743,9.6526
11096.0,-91.584,-54.081,-2.3743,10.653
11106.0,-88.584,-48.081,-2.3743,10.653
11115.0,-54.584,-21.081,-4.3743,9.6526
11125.0,-44.584,-14.081,-4.3743,9.6526
11135.0,-35.584,-9.0807,-4.3743,11.653
11145.0,-21.584,-2.0807,-4.3743,11.653
11155.0,-16.584,-2.0807,0.62569,11.653
11165.0,-15.584,-5.0807,0.62569,11.653
11175.0,-17.584,-10.081,1.6257,9.6526
11185.0,-22.584,-17.081,1.6257,9.6526
11194.0,-29.584,-25.081,2.6257,8.6526
11204.0,-38.584,-31.081,2.6257,8.6526
11214.0,-45.584,-37.081,5.6257,9.6526
11224.0,-51.584,-42.081,5.6257,9.6526
11234.0,-57.584,-46.081,12.626,11.653
11244.0,-59.584,-49.081,12.626,11.653
11254.0,-63.584,-48.081,11.626,11.653
11264.0,-59.584,-46.081,14.626,13.653
11274.0,-62.584,-48.081,18.626,15.653
11283.0,-60.584,-44.081,16.626,14.653
11293.0,-55.584,-41.081,17.626,17.653
11303.0,-54.584,-40.081,18.626,15.653
11313.0,-55.584,-40.081,19.626,16.653
11323.0,-55.584,-38.081,19.626,17.653
11333.0,-54.584,-37.081,20.626,17.653
11343.0,-56.584,-38.081,20.626,19.653
11353.0,-58.584,-39.081,23.626,19.653
11363.0,-61.584,-41.081,22.626,17.653
11372.0,-63.584,-44.081,22.626,19.653
11382.0,-68.584,-44.081,22.626,19.653
11392.0,-69.584,-47.081,23.626,20.653
11402.0,-72.584,-49.081,25.626,23.653
11412.0,-74.584,-50.081,23.626,21.653
11422.0,-77.584,-51.081,23.626,22.653
11432.0,-75.584,-51.081,24.626,23.653
11442.0,-76.584,-50.081,25.626,24.653
11452.0,-77.584,-51.081,29.626,24.653
11461.0,-76.584,-49.081,26.626,24.653
11471.0,-78.584,-50.081,28.626,24.653
11481.0,-78.584,-50.081,28.626,25.653
11491.0,-79.584,-50.081,30.626,26.653
11501.0,-81.584,-50.081,29.626,26.653
11511.0,-85.584,-51.081,31.626,25.653
11521.0,-86.584,-53.081,30.626,27.653
11531.0,-88.584,-54.081,31.626,28.653
11540.0,-91.584,-55.081,30.626,28.653
11550.0,-92.584,-58.081,31.626,29.653
11560.0,-92.584,-58.081,34.626,30.653
11570.0,-72.584,-40.081,31.626,30.653
11580.0,-72.584,-40.081,34.626,32.653
11590.0,-57.584,-26.081,34.626,32.653
11600.0,-57.584,-26.081,33.626,33.653
11610.0,-19.584,-2.0807,34.626,34.653
11620.0,-19.584,-2.0807,33.626,36.653
11629.0,-6.5842,1.9193,34.626,35.653
11639.0,-6.5842,1.9193,36.626,37.653
11649.0,-7.5842,-6.0807,39.626,38.653
11659.0,-7.5842,-6.0807,41.626,37.653
11669.0,-18.584,-19.081,43.626,38.653
11679.0,-18.584,-19.081,46.626,38.653
11689.0,-28.584,-27.081,49.626,39.653
11699.0,-28.584,-27.081,53.626,39.653
11709.0,-35.584,-32.081,56.626,42.653
11718.0,-35.584,-32.081,58.626,42.653
11728.0,-40.584,-36.081,65.626,44.653
11738.0,-40.584,-36.081,65.626,44.653
11748.0,-43.584,-38.081,68.626,47.653
11758.0,-42.584,-39.081,69.626,48.653
11768.0,-43.584,-40.081,69.626,50.653
11778.0,-41.584,-38.081,71.626,50.653
11788.0,-42.584,-37.081,74.626,52.653
11798.0,-43.584,-37.081,73.626,52.653
11807.0,-43.584,-37.081,72.626,53.653
11817.0,-46.584,-39.081,75.626,54.653
11827.0,-48.584,-40.081,74.626,54.653
11837.0,-49.584,-40.081,75.626,53.653
11847.0,-52.584,-42.081,73.626,53.653
11857.0,-54.584,-44.081,74.626,53.653
11867.0,-58.584,-46.081,76.626,54.653
11877.0,-59.584,-46.081,76.626,54.653
11886.0,-61.584,-47.081,76.626,54.653
11896.0,-62.584,-48.081,78.626,56.653
11906.0,-66.584,-49.081,79.626,57.653
11916.0,-69.584,-51.081,80.626,58.653
11926.0,-70.584,-51.081,80.626,58.653
11936.0,-70.584,-51.081,80.626,58.653
11946.0,-71.584,-52.081,80.626,57.653
11956.0,-76.584,-53.081,80.626,57.653
11966.0,-75.584,-54.081,81.626,56.653
11975.0,-77.584,-55.081,83.626,60.653
11985.0,-79.584,-54.081,83.626,59.653
11995.0,-80.584,-55.081,83.626,60.653
12005.0,-82.584,-55.081,83.626,61.653
12015.0,-84.584,-56.081,84.626,61.653
12025.0,-90.584,-59.081,84.626,61.653
12035.0,-93.584,-61.081,84.626,62.653
12045.0,-99.584,-65.081,84.626,62.653
12055.0,-97.584,-63.081,84.626,63.653
12064.0,-78.584,-45.081,80.626,61.653
12074.0,-70.584,-42.081,82.626,62.653
12084.0,-60.584,-31.081,79.626,62.653
12094.0,-33.584,-12.081,78.626,61.653
12104.0,-16.584,-2.0807,79.626,63.653
12114.0,-7.5842,1.9193,77.626,63.653
12124.0,1.4158,4.9193,79.626,63.653
12134.0,6.4158,5.9193,80.626,62.653
12144.0,7.4158,3.9193,79.626,60.653
12153.0,6.4158,0.91926,79.626,60.653
12163.0,4.4158,-3.0807,83.626,61.653
12173.0,0.41577,-7.0807,83.626,61.653
12183.0,-0.58423,-10.081,91.626,62.653
12193.0,-3.5842,-10.081,91.626,62.653
12203.0,-4.5842,-11.081,89.626,61.653
12213.0,-6.5842,-13.081,89.626,61.653
12223.0,-10.584,-15.081,91.626,62.653
12232.0,-12.584,-14.081,91.626,62.653
12242.0,-8.5842,-12.081,90.626,63.653
12252.0,-10.584,-12.081,90.626,63.653
12262.0,-8.5842,-10.081,89.626,63.653
12272.0,-7.5842,-8.0807,89.626,63.653
12282.0,-5.5842,-8.0807,85.626,64.653
12292.0,-6.5842,-6.0807,85.626,64.653
12302.0,-4.5842,-8.0807,85.626,64.653
12312.0,-6.5842,-8.0807,85.626,64.653
12321.0,-9.5842,-8.0807,81.626,62.653
12331.0,-10.584,-9.0807,79.626,61.653
12341.0,-13.584,-11.081,79.626,58.653
12351.0,-13.584,-12.081,77.626,58.653
12361.0,-15.584,-12.081,73.626,55.653
12371.0,-17.584,-14.081,72.626,54.653
12381.0,-20.584,-15.081,70.626,53.653
12391.0,-23.584,-16.081,68.626,51.653
12401.0,-26.584,-17.081,66.626,50.653
12410.0,-27.584,-19.081,63.626,47.653
12420.0,-30.584,-18.081,61.626,46.653
12430.0,-30.584,-19.081,58.626,45.653
12440.0,-31.584,-20.081,57.626,43.653
12450.0,-31.584,-20.081,55.626,40.653
12460.0,-35.584,-22.081,52.626,39.653
12470.0,-35.584,-22.081,49.626,38.653
12480.0,-39.584,-23.081,47.626,36.653
12490.0,-39.584,-23.081,44.626,35.653
12499.0,-40.584,-23.081,43.626,34.653
12509.0,-40.584,-23.081,39.626,33.653
12519.0,-45.584,-27.081,40.626,32.653
12529.0,-45.584,-27.081,38.626,31.653
12539.0,-51.584,-30.081,33.626,30.653
12549.0,-51.584,-30.081,33.626,30.653
12559.0,-19.584,-6.0807,29.626,28.653
12569.0,-19.584,-6.0807,28.626,28.653
12578.0,5.4158,14.919,25.626,27.653
12588.0,5.4158,14.919,24.626,26.653
12598.0,33.416,31.919,20.626,25.653
12608.0,33.416,31.919,20.626,25.653
12618.0,46.416,37.919,20.626,25.653
12628.0,55.416,39.919,18.626,21.653
12638.0,59.416,39.919,18.626,19.653
12648.0,61.416,37.919,15.626,16.653
12658.0,59.416,35.919,16.626,14.653
12667.0,57.416,32.919,16.626,12.653
12677.0,56.416,29.919,19.626,12.653
12687.0,54.416,27.919,18.626,10.653
12697.0,52.416,25.919,17.626,9.6526
12707.0,50.416,24.919,17.626,9.6526
12717.0,45.416,20.919,17.626,7.6526
12727.0,44.416,18.919,15.626,7.6526
12737.0,45.416,21.919,15.626,7.6526
12747.0,46.416,20.919,15.626,6.6526
12756.0,42.416,20.919,16.626,8.6526
12766.0,43.416,20.919,11.626,6.6526
12776.0,45.416,22.919,12.626,6.6526
12786.0,44.416,22.919,11.626,5.6526
12796.0,44.416,23.919,7.6257,3.6526
12806.0,42.416,23.919,5.6257,1.6526
12816.0,42.416,23.919,3.6257,-0.34742
12826.0,41.416,22.919,-0.37431,-1.3474
12835.0,41.416,21.919,-1.3743,-2.3474
12845.0,38.416,19.919,-2.3743,-3.3474
12855.0,37.416,18.919,-4.3743,-3.3474
12865.0,36.416,17.919,-4.3743,-5.3474
12875.0,30.416,13.919,-7.3743,-6.3474
12885.0,28.416,13.919,-7.3743,-8.3474
12895.0,25.416,10.919,-10.374,-9.3474
12905.0,23.416,9.9193,-10.374,-11.347
12915.0,21.416,10.919,-14.374,-14.347
12924.0,19.416,8.9193,-16.374,-14.347
12934.0,16.416,7.9193,-18.374,-15.347
12944.0,17.416,6.9193,-18.374,-15.347
12954.0,12.416,5.9193,-20.374,-16.347
12964.0,11.416,5.9193,-21.374,-16.347
12974.0,9.4158,4.9193,-23.374,-18.347
12984.0,7.4158,1.9193,-25.374,-19.347
12994.0,6.4158,2.9193,-26.374,-20.347
13004.0,2.4158,0.91926,-29.374,-21.347
13013.0,-1.5842,-2.0807,-29.374,-23.347
13023.0,-3.5842,-3.0807,-32.374,-23.347
13033.0,-8.5842,-6.0807,-34.374,-24.347
13043.0,-12.584,-8.0807,-36.374,-24.347
13053.0,-8.5842,-4.0807,-37.374,-25.347
13063.0,14.416,12.919,-39.374,-25.347
13073.0,14.416,11.919,-41.374,-27.347
13083.0,34.416,28.919,-42.374,-27.347
13093.0,53.416,40.919,-43.374,-28.347
13102.0,62.416,47.919,-45.374,-29.347
13112.0,75.416,51.919,-41.374,-27.347
13122.0,83.416,53.919,-43.374,-28.347
13132.0,86.416,53.919,-44.374,-31.347
13142.0,86.416,49.919,-44.374,-33.347
13152.0,84.416,46.919,-43.374,-34.347
13162.0,80.416,41.919,-42.374,-36.347
13172.0,77.416,36.919,-41.374,-36.347
13181.0,74.416,35.919,-38.374,-38.347
13191.0,72.416,33.919,-40.374,-38.347
13201.0,69.416,29.919,-40.374,-38.347
13211.0,65.416,27.919,-40.374,-39.347
13221.0,63.416,26.919,-40.374,-39.347
13231.0,62.416,27.919,-39.374,-39.347
13241.0,61.416,25.919,-39.374,-39.347
13251.0,59.416,24.919,-41.374,-40.347
13261.0,59.416,26.919,-41.374,-40.347
13270.0,58.416,26.919,-42.374,-40.347
13280.0,57.416,24.919,-42.374,-40.347
13290.0,54.416,23.919,-46.374,-41.347
13300.0,54.416,22.919,-46.374,-41.347
13310.0,54.416,21.919,-51.374,-45.347
13320.0,54.416,21.919,-51.374,-45.347
13330.0,47.416,20.919,-50.374,-45.347
13340.0,47.416,20.919,-50.374,-45.347
13350.0,43.416,14.919,-54.374,-45.347
13359.0,43.416,14.919,-54.374,-45.347
13369.0,38.416,10.919,-55.374,-47.347
13379.0,38.416,10.919,-55.374,-47.347
13389.0,33.416,9.9193,-58.374,-49.347
13399.0,33.416,9.9193,-58.374,-49.347
13409.0,30.416,9.9193,-58.374,-50.347
13419.0,30.416,9.9193,-59.374,-51.347
13429.0,26.416,8.9193,-62.374,-52.347
13439.0,26.416,8.9193,-62.374,-53.347
13448.0,24.416,7.9193,-62.374,-53.347
13458.0,24.416,7.9193,-63.374,-54.347
13468.0,20.416,5.9193,-65.374,-52.347
13478.0,20.416,5.9193,-66.374,-54.347
13488.0,18.416,4.9193,-66.374,-54.347
13498.0,14.416,3.9193,-66.374,-53.347
13508.0,13.416,4.9193,-68.374,-55.347
13518.0,12.416,1.9193,-69.374,-55.347
13527.0,8.4158,-0.080741,-71.374,-55.347
13537.0,3.4158,-2.0807,-71.374,-55.347
13547.0,-2.5842,-5.0807,-74.374,-56.347
13557.0,-7.5842,-8.0807,-73.374,-57.347
13567.0,-4.5842,-4.0807,-75.374,-55.347
13577.0,20.416,12.919,-75.374,-56.347
13587.0,18.416,10.919,-77.374,-55.347
13597.0,38.416,28.919,-78.374,-56.347
13607.0,56.416,40.919,-79.374,-58.347
13616.0,64.416,45.919,-81.374,-57.347
13626.0,73.416,49.919,-80.374,-56.347
13636.0,78.416,50.919,-79.374,-56.347
13646.0,78.416,46.919,-79.374,-58.347
13656.0,76.416,41.919,-79.374,-60.347
13666.0,69.416,33.919,-80.374,-61.347
13676.0,61.416,26.919,-78.374,-61.347
13686.0,54.416,21.919,-75.374,-63.347
13696.0,49.416,17.919,-74.374,-63.347
13705.0,45.416,15.919,-72.374,-62.347
13715.0,40.416,10.919,-72.374,-63.347
13725.0,34.416,7.9193,-71.374,-61.347
13735.0,31.416,5.9193,-69.374,-62.347
13745.0,29.416,6.9193,-71.374,-61.347
13755.0,29.416,4.9193,-69.374,-59.347
13765.0,26.416,4.9193,-68.374,-58.347
13775.0,27.416,5.9193,-70.374,-58.347
13785.0,26.416,5.9193,-70.374,-58.347
13794.0,25.416,5.9193,-69.374,-57.347
13804.0,24.416,5.9193,-69.374,-57.347
13814.0,23.416,5.9193,-71.374,-58.347
13824.0,22.416,4.9193,-73.374,-57.347
13834.0,19.416,4.9193,-73.374,-57.347
13844.0,18.416,3.9193,-74.374,-58.347
13854.0,16.416,0.91926,-75.374,-56.347
13864.0,15.416,-0.080741,-75.374,-57.347
13873.0,13.416,-3.0807,-75.374,-57.347
13883.0,11.416,-2.0807,-73.374,-55.347
13893.0,6.4158,-4.0807,-72.374,-55.347
13903.0,5.4158,-6.0807,-72.374,-53.347
13913.0,2.4158,-8.0807,-72.374,-54.347
13923.0,-0.58423,-8.0807,-70.374,-52.347
13933.0,-3.5842,-10.081,-70.374,-52.347
13943.0,-6.5842,-12.081,-69.374,-51.347
13953.0,-9.5842,-13.081,-69.374,-51.347
13962.0,-12.584,-14.081,-70.374,-50.347
13972.0,-14.584,-16.081,-69.374,-50.347
13982.0,-16.584,-18.081,-68.374,-49.347
13992.0,-20.584,-18.081,-68.374,-47.347
14002.0,-23.584,-21.081,-68.374,-48.347
14012.0,-28.584,-23.081,-67.374,-46.347
14022.0,-31.584,-24.081,-68.374,-46.347
14032.0,-35.584,-26.081,-67.374,-45.347
14042.0,-40.584,-30.081,-66.374,-43.347
14051.0,-43.584,-31.081,-66.374,-44.347
14061.0,-47.584,-36.081,-65.374,-42.347
14071.0,-48.584,-33.081,-67.374,-43.347
14081.0,-26.584,-16.081,-67.374,-43.347
14091.0,-22.584,-14.081,-66.374,-41.347
14101.0,-15.584,-6.0807,-65.374,-42.347
14111.0,9.4158,11.919,-65.374,-40.347
14121.0,16.416,17.919,-66.374,-40.347
14131.0,27.416,21.919,-65.374,-37.347
14140.0,35.416,22.919,-62.374,-37.347
14150.0,38.416,21.919,-60.374,-36.347
14160.0,35.416,17.919,-59.374,-37.347
14170.0,29.416,12.919,-57.374,-37.347
14180.0,22.416,5.9193,-56.374,-38.347
14190.0,22.416,5.9193,-54.374,-38.347
14200.0,11.416,-5.0807,-50.374,-38.347
14210.0,11.416,-5.0807,-49.374,-37.347
14219.0,1.4158,-13.081,-47.374,-36.347
14229.0,1.4158,-13.081,-46.374,-36.347
14239.0,-6.5842,-19.081,-42.374,-34.347
14249.0,-6.5842,-19.081,-41.374,-32.347
14259.0,-10.584,-19.081,-40.374,-31.347
14269.0,-10.584,-19.081,-38.374,-30.347
14279.0,-8.5842,-16.081,-37.374,-28.347
14289.0,-8.5842,-16.081,-37.374,-28.347
14299.0,-9.5842,-15.081,-36.374,-27.347
14308.0,-9.5842,-15.081,-36.374,-27.347
14318.0,-11.584,-16.081,-35.374,-25.347
14328.0,-11.584,-16.081,-35.374,-25.347
14338.0,-17.584,-19.081,-35.374,-25.347
14348.0,-17.584,-19.081,-35.374,-25.347
14358.0,-19.584,-20.081,-36.374,-24.347
14368.0,-24.584,-24.081,-36.374,-24.347
14378.0,-27.584,-25.081,-35.374,-23.347
14388.0,-29.584,-27.081,-35.374,-23.347
14397.0,-32.584,-30.081,-34.374,-22.347
14407.0,-34.584,-31.081,-34.374,-22.347
14417.0,-39.584,-33.081,-37.374,-23.347
14427.0,-38.584,-35.081,-37.374,-23.347
14437.0,-43.584,-36.081,-36.374,-24.347
14447.0,-44.584,-38.081,-36.374,-24.347
14457.0,-47.584,-37.081,-36.374,-23.347
14467.0,-50.584,-39.081,-36.374,-23.347
14477.0,-52.584,-41.081,-34.374,-23.347
14486.0,-54.584,-42.081,-34.374,-23.347
14496.0,-58.584,-44.081,-37.374,-24.347
14506.0,-61.584,-45.081,-37.374,-24.347
14516.0,-63.584,-47.081,-38.374,-22.347
14526.0,-66.584,-49.081,-37.374,-23.347
14536.0,-69.584,-49.081,-40.374,-22.347
14546.0,-73.584,-52.081,-38.374,-22.347
14556.0,-77.584,-54.081,-38.374,-21.347
14565.0,-82.584,-57.081,-41.374,-22.347
14575.0,-87.584,-60.081,-40.374,-22.347
14585.0,-82.584,-56.081,-40.374,-22.347
14595.0,-60.584,-39.081,-39.374,-20.347
14605.0,-57.584,-39.081,-40.374,-20.347
14615.0,-44.584,-25.081,-41.374,-21.347
14625.0,-21.584,-9.0807,-41.374,-21.347
14635.0,-12.584,-2.0807,-44.374,-21.347
14645.0,-5.5842,0.91926,-43.374,-20.347
14654.0,3.4158,2.9193,-41.374,-20.347
14664.0,3.4158,1.9193,-40.374,-19.347
14674.0,-0.58423,-5.0807,-39.374,-20.347
14684.0,-5.5842,-11.081,-39.374,-21.347
14694.0,-12.584,-19.081,-37.374,-23.347
14704.0,-20.584,-24.081,-38.374,-24.347
14714.0,-25.584,-29.081,-33.374,-26.347
14724.0,-29.584,-34.081,-32.374,-25.347
14734.0,-34.584,-36.081,-32.374,-26.347
14743.0,-37.584,-38.081,-29.374,-24.347
14753.0,-43.584,-42.081,-26.374,-24.347
14763.0,-41.584,-41.081,-25.374,-20.347
14773.0,-42.584,-43.081,-24.374,-21.347
14783.0,-45.584,-41.081,-26.374,-20.347
14793.0,-42.584,-38.081,-23.374,-20.347
14803.0,-41.584,-37.081,-25.374,-19.347
14813.0,-40.584,-36.081,-22.374,-18.347
14823.0,-40.584,-35.081,-24.374,-17.347
14832.0,-42.584,-35.081,-23.374,-15.347
14842.0,-46.584,-37.081,-22.374,-16.347
14852.0,-48.584,-39.081,-22.374,-18.347
14862.0,-50.584,-41.081,-23.374,-16.347
14872.0,-52.584,-43.081,-23.374,-17.347
14882.0,-55.584,-45.081,-23.374,-16.347
14892.0,-59.584,-48.081,-23.374,-17.347
14902.0,-62.584,-49.081,-22.374,-17.347
14911.0,-66.584,-52.081,-21.374,-17.347
14921.0,-71.584,-55.081,-21.374,-17.347
14931.0,-75.584,-57.081,-22.374,-17.347
14941.0,-76.584,-59.081,-22.374,-18.347
14951.0,-80.584,-60.081,-22.374,-18.347
14961.0,-82.584,-61.081,-21.374,-17.347
14971.0,-85.584,-63.081,-21.374,-18.347
14981.0,-85.584,-63.081,-21.374,-18.347
14991.0,-90.584,-65.081,-21.374,-16.347
15000.0,-91.584,-66.081,-22.374,-18.347
15010.0,-94.584,-68.081,-22.374,-18.347
15020.0,-98.584,-69.081,-22.374,-16.347
15030.0,-98.584,-69.081,-21.374,-16.347
15040.0,-101.58,-72.081,-21.374,-16.347
15050.0,-104.58,-73.081,-23.374,-16.347
15060.0,-104.58,-73.081,-21.374,-15.347
15070.0,-113.58,-79.081,-22.374,-15.347
15080.0,-113.58,-79.081,-22.374,-15.347
15089.0,-90.584,-59.081,-22.374,-13.347
15099.0,-90.584,-59.081,-23.374,-13.347
15109.0,-72.584,-44.081,-23.374,-13.347
15119.0,-72.584,-44.081,-23.374,-13.347
15129.0,-35.584,-17.081,-24.374,-12.347
15139.0,-35.584,-17.081,-23.374,-12.347
15149.0,-17.584,-11.081,-24.374,-11.347
15159.0,-17.584,-11.081,-21.374,-11.347
15169.0,-18.584,-19.081,-20.374,-13.347
15178.0,-18.584,-19.081,-19.374,-13.347
15188.0,-29.584,-29.081,-19.374,-16.347
15198.0,-29.584,-29.081,-19.374,-15.347
15208.0,-38.584,-39.081,-17.374,-17.347
15218.0,-38.584,-39.081,-15.374,-17.347
15228.0,-42.584,-43.081,-13.374,-16.347
15238.0,-45.584,-46.081,-11.374,-16.347
15248.0,-49.584,-47.081,-10.374,-15.347
15257.0,-52.584,-50.081,-8.3743,-12.347
15267.0,-56.584,-53.081,-6.3743,-13.347
15277.0,-56.584,-53.081,-6.3743,-11.347
15287.0,-59.584,-54.081,-3.3743,-10.347
15297.0,-57.584,-52.081,-2.3743,-9.3474
15307.0,-57.584,-50.081,-3.3743,-9.3474
15317.0,-57.584,-50.081,-1.3743,-7.3474
15327.0,-57.584,-48.081,-2.3743,-6.3474
15337.0,-56.584,-48.081,-1.3743,-6.3474
15346.0,-59.584,-48.081,-1.3743,-6.3474
15356.0,-60.584,-49.081,-1.3743,-6.3474
15366.0,-63.584,-52.081,-3.3743,-6.3474
15376.0,-66.584,-53.081,-3.3743,-6.3474
15386.0,-68.584,-57.081,-1.3743,-7.3474
15396.0,-72.584,-58.081,-1.3743,-7.3474
15406.0,-75.584,-60.081,-0.37431,-6.3474
15416.0,-76.584,-61.081,-0.37431,-6.3474
15426.0,-80.584,-64.081,-0.37431,-7.3474
15435.0,-82.584,-65.081,-0.37431,-7.3474
15445.0,-83.584,-65.081,-2.3743,-7.3474
15455.0,-85.584,-65.081,-2.3743,-7.3474
15465.0,-86.584,-65.081,0.62569,-6.3474
15475.0,-87.584,-66.081,0.62569,-6.3474
15485.0,-91.584,-68.081,-1.3743,-7.3474
15495.0,-93.584,-70.081,-1.3743,-7.3474
15505.0,-94.584,-70.081,-0.37431,-6.3474
15515.0,-96.584,-71.081,-0.37431,-6.3474
15524.0,-100.58,-74.081,2.6257,-4.3474
15534.0,-104.58,-74.081,2.6257,-4.3474
15544.0,-105.58,-76.081,1.6257,-4.3474
15554.0,-108.58,-75.081,1.6257,-4.3474
15564.0,-108.58,-76.081,0.62569,-3.3474
15574.0,-112.58,-78.081,1.6257,-2.3474
15584.0,-111.58,-76.081,2.6257,-2.3474
15594.0,-91.584,-60.081,1.6257,-1.3474
15603.0,-86.584,-57.081,-0.37431,-1.3474
15613.0,-68.584,-41.081,0.62569,-0.34742
15623.0,-41.584,-21.081,1.6257,0.65258
15633.0,-33.584,-16.081,-0.37431,0.65258
15643.0,-22.584,-10.081,1.6257,1.6526
15653.0,-15.584,-10.081,3.6257,2.6526
15663.0,-13.584,-12.081,5.6257,4.6526
15673.0,-15.584,-18.081,4.6257,4.6526
15683.0,-18.584,-22.081,6.6257,3.6526
15692.0,-20.584,-27.081,6.6257,3.6526
15702.0,-26.584,-31.081,11.626,3.6526
15712.0,-29.584,-33.081,11.626,2.6526
15722.0,-28.584,-35.081,14.626,6.6526
15732.0,-27.584,-35.081,18.626,5.6526
15742.0,-30.584,-36.081,21.626,8.6526
15752.0,-31.584,-37.081,25.626,8.6526
15762.0,-32.584,-40.081,26.626,11.653
15772.0,-31.584,-38.081,29.626,12.653
15781.0,-32.584,-38.081,30.626,13.653
15791.0,-34.584,-39.081,30.626,15.653
15801.0,-34.584,-37.081,32.626,15.653
15811.0,-33.584,-36.081,33.626,16.653
15821.0,-34.584,-36.081,31.626,15.653
15831.0,-35.584,-36.081,31.626,17.653
15841.0,-34.584,-37.081,32.626,17.653
15851.0,-33.584,-38.081,34.626,18.653
15861.0,-34.584,-37.081,32.626,17.653
15870.0,-35.584,-38.081,33.626,18.653
15880.0,-39.584,-39.081,35.626,18.653
15890.0,-40.584,-40.081,36.626,20.653
15900.0,-44.584,-41.081,35.626,20.653
15910.0,-45.584,-42.081,34.626,21.653
15920.0,-48.584,-42.081,36.626,21.653
15930.0,-48.584,-42.081,38.626,21.653
15940.0,-51.584,-45.081,37.626,21.653
15949.0,-51.584,-45.081,37.626,22.653
15959.0,-53.584,-46.081,38.626,22.653
15969.0,-53.584,-46.081,40.626,23.653
15979.0,-55.584,-47.081,40.626,23.653
15989.0,-55.584,-47.081,40.626,24.653
15999.0,-62.584,-49.081,41.626,24.653
16009.0,-62.584,-49.081,42.626,25.653
16019.0,-65.584,-52.081,43.626,26.653
16029.0,-65.584,-52.081,44.626,26.653
16038.0,-71.584,-54.081,43.626,28.653
16048.0,-71.584,-54.081,44.626,26.653
16058.0,-75.584,-57.081,47.626,28.653
16068.0,-75.584,-57.081,43.626,27.653
16078.0,-82.584,-58.081,44.626,29.653
16088.0,-82.584,-58.081,44.626,28.653
16098.0,-65.584,-44.081,45.626,30.653
16108.0,-56.584,-41.081,42.626,29.653
16118.0,-46.584,-30.081,42.626,30.653
16127.0,-19.584,-12.081,44.626,30.653
16137.0,-6.5842,-2.0807,43.626,31.653
16147.0,3.4158,1.9193,45.626,33.653
16157.0,12.416,3.9193,47.626,34.653
16167.0,15.416,2.9193,49.626,34.653
16177.0,16.416,0.91926,51.626,35.653
16187.0,14.416,-3.0807,53.626,33.653
16197.0,13.416,-5.0807,57.626,34.653
16207.0,11.416,-8.0807,61.626,36.653
16216.0,11.416,-8.0807,65.626,37.653
16226.0,10.416,-9.0807,68.626,38.653
16236.0,11.416,-10.081,69.626,38.653
16246.0,9.4158,-11.081,70.626,40.653
16256.0,7.4158,-14.081,75.626,42.653
16266.0,2.4158,-14.081,76.626,43.653
16276.0,4.4158,-12.081,78.626,43.653
16286.0,7.4158,-11.081,79.626,46.653
16295.0,9.4158,-11.081,79.626,45.653
16305.0,13.416,-6.0807,81.626,46.653
16315.0,16.416,-1.0807,82.626,46.653
16325.0,21.416,-0.080741,82.626,47.653
16335.0,22.416,1.9193,83.626,47.653
16345.0,23.416,2.9193,83.626,48.653
16355.0,26.416,4.9193,83.626,48.653
16365.0,25.416,4.9193,83.626,48.653
16375.0,22.416,3.9193,81.626,48.653
16384.0,20.416,3.9193,84.626,49.653
16394.0,19.416,1.9193,82.626,48.653
16404.0,16.416,0.91926,86.626,50.653
16414.0,14.416,-1.0807,86.626,49.653
16424.0,9.4158,-3.0807,86.626,50.653
16434.0,6.4158,-5.0807,86.626,50.653
16444.0,4.4158,-6.0807,86.626,51.653
16454.0,0.41577,-9.0807,86.626,50.653
16464.0,-0.58423,-8.0807,87.626,52.653
16473.0,-3.5842,-10.081,88.626,52.653
16483.0,-5.5842,-11.081,87.626,53.653
16493.0,-7.5842,-12.081,86.626,52.653
16503.0,-11.584,-15.081,87.626,51.653
16513.0,-14.584,-16.081,86.626,52.653
16523.0,-17.584,-15.081,86.626,52.653
16533.0,-20.584,-19.081,83.626,51.653
16543.0,-26.584,-21.081,83.626,51.653
16553.0,-29.584,-23.081,80.626,51.653
16562.0,-32.584,-24.081,80.626,51.653
16572.0,-37.584,-26.081,76.626,50.653
16582.0,-43.584,-30.081,76.626,50.653
16592.0,-42.584,-28.081,74.626,48.653
16602.0,-22.584,-11.081,74.626,48.653
16612.0,-18.584,-11.081,68.626,47.653
16622.0,-3.5842,3.9193,68.626,47.653
16632.0,18.416,17.919,64.626,45.653
16641.0,30.416,26.919,64.626,45.653
16651.0,40.416,30.919,62.626,47.653
16661.0,48.416,31.919,62.626,47.653
16671.0,51.416,31.919,59.626,45.653
16681.0,52.416,28.919,59.626,45.653
16691.0,52.416,24.919,62.626,43.653
16701.0,51.416,23.919,62.626,43.653
16711.0,49.416,21.919,69.626,44.653
16721.0,49.416,19.919,69.626,44.653
16730.0,48.416,19.919,69.626,44.653
16740.0,45.416,18.919,69.626,43.653
16750.0,45.416,16.919,68.626,42.653
16760.0,41.416,12.919,67.626,41.653
16770.0,38.416,10.919,67.626,43.653
16780.0,40.416,13.919,66.626,42.653
16790.0,38.416,11.919,67.626,42.653
16800.0,38.416,11.919,67.626,42.653
16810.0,37.416,11.919,67.626,42.653
16819.0,37.416,11.919,65.626,42.653
16829.0,36.416,14.919,64.626,41.653
16839.0,36.416,14.919,63.626,40.653
16849.0,33.416,11.919,61.626,40.653
16859.0,33.416,11.919,61.626,38.653
16869.0,33.416,12.919,56.626,36.653
16879.0,33.416,12.919,55.626,35.653
16889.0,30.416,12.919,52.626,33.653
16899.0,30.416,12.919,49.626,33.653
16908.0,29.416,8.9193,48.626,32.653
16918.0,29.416,8.9193,46.626,31.653
16928.0,24.416,6.9193,44.626,29.653
16938.0,24.416,6.9193,42.626,27.653
16948.0,22.416,7.9193,40.626,26.653
16958.0,22.416,7.9193,37.626,24.653
16968.0,18.416,4.9193,36.626,23.653
16978.0,18.416,4.9193,36.626,21.653
16987.0,18.416,2.9193,34.626,19.653
16997.0,15.416,1.9193,32.626,19.653
17007.0,13.416,2.9193,30.626,19.653
17017.0,9.4158,-0.080741,27.626,18.653
17027.0,8.4158,0.91926,25.626,15.653
17037.0,5.4158,-1.0807,23.626,15.653
17047.0,2.4158,-1.0807,21.626,13.653
17057.0,-0.58423,-4.0807,18.626,11.653
17067.0,-2.5842,-5.0807,18.626,11.653
17076.0,-4.5842,-7.0807,14.626,8.6526
17086.0,-8.5842,-10.081,13.626,8.6526
17096.0,-14.584,-13.081,11.626,7.6526
17106.0,-17.584,-14.081,9.6257,6.6526
17116.0,-14.584,-10.081,6.6257,4.6526
17126.0,11.416,7.9193,3.6257,4.6526
17136.0,8.4158,7.9193,2.6257,2.6526
17146.0,29.416,25.919,0.62569,0.65258
17156.0,48.416,37.919,-1.3743,-0.34742
17165.0,62.416,45.919,-4.3743,-0.34742
17175.0,72.416,49.919,-2.3743,-1.3474
17185.0,81.416,51.919,-6.3743,-3.3474
17195.0,86.416,50.919,-8.3743,-5.3474
17205.0,87.416,49.919,-7.3743,-10.347
17215.0,84.416,45.919,-9.3743,-12.347
17225.0,80.416,40.919,-7.3743,-13.347
17235.0,77.416,39.919,-7.3743,-14.347
17245.0,76.416,36.919,-8.3743,-15.347
17254.0,74.416,36.919,-8.3743,-17.347
17264.0,73.416,33.919,-9.3743,-18.347
17274.0,68.416,31.919,-10.374,-18.347
17284.0,64.416,28.919,-10.374,-19.347
17294.0,61.416,29.919,-12.374,-19.347
17304.0,62.416,27.919,-11.374,-19.347
17314.0,60.416,26.919,-13.374,-20.347
17324.0,61.416,25.919,-13.374,-21.347
17333.0,60.416,27.919,-16.374,-21.347
17343.0,58.416,26.919,-16.374,-21.347
17353.0,58.416,27.919,-19.374,-23.347
17363.0,58.416,28.919,-23.374,-25.347
17373.0,58.416,26.919,-24.374,-26.347
17383.0,57.416,26.919,-25.374,-29.347
17393.0,56.416,26.919,-29.374,-29.347
17403.0,54.416,26.919,-30.374,-29.347
17413.0,52.416,23.919,-30.374,-29.347
17422.0,49.416,22.919,-32.374,-31.347
17432.0,46.416,20.919,-32.374,-31.347
17442.0,46.416,18.919,-34.374,-32.347
17452.0,41.416,17.919,-36.374,-33.347
17462.0,38.416,14.919,-37.374,-34.347
17472.0,36.416,15.919,-39.374,-35.347
17482.0,35.416,13.919,-39.374,-36.347
17492.0,33.416,14.919,-39.374,-37.347
17502.0,32.416,12.919,-38.374,-36.347
17511.0,30.416,11.919,-43.374,-39.347
17521.0,25.416,9.9193,-45.374,-39.347
17531.0,25.416,10.919,-46.374,-39.347
17541.0,24.416,9.9193,-46.374,-39.347
17551.0,21.416,8.9193,-48.374,-40.347
17561.0,18.416,5.9193,-47.374,-40.347
17571.0,15.416,5.9193,-47.374,-40.347
17581.0,13.416,5.9193,-53.374,-41.347
17591.0,8.4158,3.9193,-53.374,-41.347
17600.0,6.4158,0.91926,-55.374,-43.347
17610.0,0.41577,-2.0807,-55.374,-43.347
17620.0,-3.5842,-5.0807,-56.374,-45.347
17630.0,-8.5842,-6.0807,-56.374,-45.347
17640.0,2.4158,3.9193,-61.374,-47.347
17650.0,25.416,18.919,-61.374,-47.347
17660.0,22.416,18.919,-62.374,-46.347
17670.0,49.416,39.919,-62.374,-46.347
17679.0,67.416,52.919,-66.374,-47.347
17689.0,67.416,52.919,-66.374,-47.347
17699.0,93.416,64.919,-67.374,-45.347
17709.0,93.416,64.919,-67.374,-45.347
17719.0,105.42,65.919,-67.374,-49.347
17729.0,105.42,65.919,-67.374,-49.347
17739.0,98.416,55.919,-66.374,-53.347
17749.0,98.416,55.919,-66.374,-53.347
17759.0,84.416,45.919,-64.374,-54.347
17768.0,84.416,45.919,-64.374,-54.347
17778.0,75.416,36.919,-64.374,-55.347
17788.0,75.416,36.919,-64.374,-55.347
17798.0,62.416,27.919,-64.374,-56.347
17808.0,62.416,27.919,-63.374,-56.347
17818.0,55.416,24.919,-63.374,-56.347
17828.0,55.416,24.919,-65.374,-55.347
17838.0,49.416,21.919,-64.374,-56.347
17848.0,49.416,21.919,-64.374,-56.347
17857.0,50.416,22.919,-66.374,-56.347
17867.0,47.416,21.919,-69.374,-57.347
17877.0,46.416,22.919,-69.374,-58.347
17887.0,43.416,19.919,-69.374,-56.347
17897.0,43.416,19.919,-70.374,-58.347
17907.0,38.416,17.919,-73.374,-59.347
17917.0,38.416,16.919,-73.374,-59.347
17927.0,34.416,14.919,-74.374,-59.347
17936.0,29.416,12.919,-75.374,-59.347
17946.0,26.416,10.919,-74.374,-59.347
17956.0,23.416,8.9193,-75.374,-59.347
17966.0,20.416,4.9193,-76.374,-59.347
17976.0,14.416,2.9193,-75.374,-58.347
17986.0,10.416,0.91926,-75.374,-59.347
17996.0,8.4158,-1.0807,-76.374,-59.347
18006.0,4.4158,-2.0807,-76.374,-58.347
18016.0,0.41577,-4.0807,-77.374,-58.347
18025.0,-1.5842,-6.0807,-75.374,-57.347
18035.0,-3.5842,-7.0807,-77.374,-59.347
18045.0,-8.5842,-8.0807,-77.374,-57.347
18055.0,-9.5842,-10.081,-77.374,-58.347
18065.0,-12.584,-11.081,-77.374,-56.347
18075.0,-16.584,-13.081,-77.374,-57.347
18085.0,-19.584,-15.081,-76.374,-57.347
18095.0,-22.584,-16.081,-76.374,-55.347
18105.0,-25.584,-16.081,-77.374,-56.347
18114.0,-30.584,-21.081,-79.374,-55.347
18124.0,-34.584,-24.081,-78.374,-55.347
18134.0,-38.584,-25.081,-79.374,-55.347
18144.0,-41.584,-27.081,-79.374,-53.347
18154.0,-49.584,-31.081,-79.374,-54.347
18164.0,-52.584,-33.081,-82.374,-53.347
18174.0,-46.584,-24.081,-81.374,-54.347
18184.0,-23.584,-11.081,-79.374,-53.347
18194.0,-27.584,-12.081,-80.374,-51.347
18203.0,-6.5842,6.9193,-81.374,-52.347
18213.0,8.4158,16.919,-81.374,-51.347
18223.0,18.416,20.919,-82.374,-49.347
18233.0,28.416,24.919,-78.374,-48.347
18243.0,35.416,26.919,-78.374,-47.347
18253.0,35.416,23.919,-78.374,-47.347
18263.0,31.416,18.919,-77.374,-50.347
18273.0,24.416,10.919,-74.374,-50.347
18282.0,17.416,4.9193,-72.374,-51.347
18292.0,10.416,0.91926,-70.374,-49.347
18302.0,5.4158,-5.0807,-67.374,-50.347
18312.0,1.4158,-7.0807,-67.374,-51.347
18322.0,-4.5842,-11.081,-66.374,-49.347
18332.0,-9.5842,-15.081,-63.374,-46.347
18342.0,-15.584,-18.081,-60.374,-46.347
18352.0,-12.584,-17.081,-58.374,-44.347
18362.0,-17.584,-20.081,-58.374,-42.347
18371.0,-17.584,-18.081,-58.374,-40.347
18381.0,-17.584,-17.081,-58.374,-40.347
18391.0,-18.584,-18.081,-55.374,-37.347
18401.0,-20.584,-17.081,-56.374,-37.347
18411.0,-16.584,-12.081,-55.374,-37.347
18421.0,-10.584,-7.0807,-57.374,-38.347
18431.0,-2.5842,-2.0807,-56.374,-37.347
18441.0,11.416,6.9193,-57.374,-36.347
18451.0,23.416,15.919,-55.374,-35.347
18460.0,34.416,22.919,-54.374,-36.347
18470.0,42.416,27.919,-55.374,-36.347
18480.0,47.416,31.919,-54.374,-36.347
18490.0,51.416,34.919,-53.374,-38.347
18500.0,52.416,34.919,-53.374,-36.347
18510.0,51.416,33.919,-53.374,-37.347
18520.0,50.416,34.919,-54.374,-37.347
18530.0,49.416,32.919,-55.374,-37.347
18540.0,49.416,32.919,-56.374,-39.347
18549.0,45.416,30.919,-54.374,-38.347
18559.0,45.416,30.919,-55.374,-38.347
18569.0,37.416,25.919,-56.374,-39.347
18579.0,37.416,25.919,-56.374,-37.347
18589.0,25.416,19.919,-56.374,-37.347
18599.0,25.416,19.919,-57.374,-38.347
18609.0,13.416,12.919,-56.374,-37.347
18619.0,13.416,12.919,-56.374,-36.347
18628.0,-1.5842,2.9193,-55.374,-35.347
18638.0,-1.5842,2.9193,-56.374,-34.347
18648.0,-14.584,-7.0807,-55.374,-35.347
18658.0,-14.584,-7.0807,-56.374,-33.347
18668.0,-33.584,-20.081,-56.374,-33.347
18678.0,-33.584,-20.081,-56.374,-33.347
18688.0,-45.584,-25.081,-56.374,-32.347
18698.0,-45.584,-25.081,-56.374,-32.347
18708.0,-32.584,-16.081,-56.374,-31.347
18717.0,-32.584,-16.081,-56.374,-31.347
18727.0,-25.584,-7.0807,-61.374,-31.347
18737.0,-8.5842,5.9193,-61.374,-31.347
18747.0,-4.5842,6.9193,-61.374,-31.347
18757.0,-0.58423,8.9193,-61.374,-31.347
18767.0,5.4158,8.9193,-58.374,-30.347
18777.0,5.4158,5.9193,-58.374,-30.347
18787.0,0.41577,-1.0807,-54.374,-30.347
18797.0,-8.5842,-10.081,-54.374,-30.347
18806.0,-18.584,-20.081,-52.374,-33.347
18816.0,-28.584,-28.081,-52.374,-33.347
18826.0,-39.584,-37.081,-49.374,-33.347
18836.0,-49.584,-42.081,-49.374,-33.347
18846.0,-55.584,-47.081,-48.374,-32.347
18856.0,-63.584,-54.081,-48.374,-32.347
18866.0,-70.584,-57.081,-44.374,-30.347
18876.0,-72.584,-57.081,-44.374,-30.347
18886.0,-73.584,-59.081,-42.374,-28.347
18895.0,-79.584,-59.081,-41.374,-27.347
18905.0,-75.584,-58.081,-41.374,-27.347
18915.0,-75.584,-57.081,-41.374,-25.347
18925.0,-75.584,-56.081,-41.374,-24.347
18935.0,-75.584,-56.081,-41.374,-24.347
18945.0,-76.584,-56.081,-39.374,-23.347
18955.0,-77.584,-55.081,-38.374,-22.347
18965.0,-78.584,-56.081,-38.374,-21.347
18974.0,-83.584,-58.081,-37.374,-21.347
18984.0,-84.584,-59.081,-38.374,-23.347
18994.0,-87.584,-62.081,-37.374,-22.347
19004.0,-90.584,-66.081,-39.374,-23.347
19014.0,-95.584,-67.081,-39.374,-22.347
19024.0,-96.584,-68.081,-37.374,-22.347
19034.0,-98.584,-70.081,-39.374,-23.347
19044.0,-101.58,-70.081,-39.374,-21.347
19054.0,-100.58,-71.081,-37.374,-21.347
19063.0,-101.58,-72.081,-37.374,-22.347
19073.0,-103.58,-73.081,-38.374,-22.347
19083.0,-105.58,-75.081,-36.374,-23.347
19093.0,-108.58,-76.081,-36.374,-22.347
19103.0,-110.58,-76.081,-36.374,-21.347
19113.0,-111.58,-76.081,-36.374,-21.347
19123.0,-114.58,-79.081,-35.374,-21.347
19133.0,-116.58,-79.081,-35.374,-20.347
19143.0,-119.58,-81.081,-35.374,-20.347
19152.0,-122.58,-82.081,-33.374,-18.347
19162.0,-125.58,-85.081,-34.374,-18.347
19172.0,-127.58,-86.081,-33.374,-18.347
19182.0,-131.58,-88.081,-33.374,-18.347
19192.0,-136.58,-91.081,-33.374,-17.347
19202.0,-133.58,-88.081,-32.374,-16.347
19212.0,-112.58,-71.081,-32.374,-14.347
19222.0,-107.58,-67.081,-33.374,-14.347
19232.0,-99.584,-57.081,-32.374,-14.347
19241.0,-73.584,-39.081,-33.374,-15.347
19251.0,-66.584,-33.081,-32.374,-15.347
19261.0,-56.584,-28.081,-32.374,-14.347
19271.0,-45.584,-22.081,-31.374,-13.347
19281.0,-39.584,-23.081,-31.374,-12.347
19291.0,-39.584,-26.081,-30.374,-14.347
19301.0,-42.584,-31.081,-29.374,-17.347
19311.0,-47.584,-38.081,-29.374,-17.347
19320.0,-53.584,-43.081,-28.374,-18.347
19330.0,-59.584,-49.081,-26.374,-20.347
19340.0,-66.584,-54.081,-25.374,-19.347
19350.0,-69.584,-57.081,-23.374,-19.347
19360.0,-75.584,-62.081,-22.374,-17.347
19370.0,-82.584,-66.081,-19.374,-16.347
19380.0,-83.584,-67.081,-16.374,-15.347
19390.0,-81.584,-66.081,-14.374,-14.347
19400.0,-85.584,-67.081,-15.374,-12.347
19409.0,-85.584,-67.081,-13.374,-12.347
19419.0,-82.584,-61.081,-11.374,-10.347
19429.0,-82.584,-61.081,-12.374,-9.3474
19439.0,-79.584,-60.081,-11.374,-9.3474
19449.0,-79.584,-60.081,-10.374,-8.3474
19459.0,-79.584,-58.081,-9.3743,-8.3474
19469.0,-79.584,-58.081,-9.3743,-9.3474
19479.0,-82.584,-60.081,-8.3743,-8.3474
19489.0,-82.584,-60.081,-10.374,-8.3474
19498.0,-85.584,-62.081,-8.3743,-10.347
19508.0,-85.584,-62.081,-9.3743,-9.3474
19518.0,-90.584,-66.081,-9.3743,-10.347
19528.0,-90.584,-66.081,-8.3743,-10.347
19538.0,-96.584,-70.081,-7.3743,-9.3474
19548.0,-96.584,-70.081,-9.3743,-9.3474
19558.0,-99.584,-71.081,-8.3743,-9.3474
19568.0,-99.584,-71.081,-8.3743,-9.3474
19578.0,-100.58,-72.081,-7.3743,-9.3474
19587.0,-101.58,-72.081,-5.3743,-9.3474
19597.0,-103.58,-74.081,-6.3743,-9.3474
19607.0,-103.58,-74.081,-7.3743,-10.347
19617.0,-104.58,-74.081,-5.3743,-9.3474
19627.0,-106.58,-74.081,-5.3743,-7.3474
19637.0,-108.58,-76.081,-4.3743,-7.3474
19647.0,-111.58,-76.081,-3.3743,-6.3474
19657.0,-114.58,-77.081,-5.3743,-6.3474
19666.0,-118.58,-81.081,-2.3743,-5.3474
19676.0,-118.58,-81.081,-2.3743,-4.3474
19686.0,-122.58,-82.081,-1.3743,-4.3474
19696.0,-124.58,-83.081,-1.3743,-2.3474
19706.0,-127.58,-86.081,-1.3743,-2.3474
19716.0,-125.58,-81.081,-1.3743,-1.3474
19726.0,-102.58,-63.081,-1.3743,-1.3474
19736.0,-98.584,-60.081,0.62569,0.65258
19746.0,-76.584,-41.081,0.62569,0.65258
19755.0,-51.584,-24.081,-1.3743,2.6526
19765.0,-42.584,-17.081,-1.3743,2.6526
19775.0,-28.584,-11.081,1.6257,4.6526
19785.0,-17.584,-5.0807,1.6257,4.6526
19795.0,-11.584,-4.0807,2.6257,5.6526
19805.0,-8.5842,-8.0807,2.6257,5.6526
19815.0,-12.584,-14.081,4.6257,5.6526
19825.0,-17.584,-18.081,4.6257,5.6526
19835.0,-22.584,-24.081,9.6257,4.6526
19844.0,-25.584,-27.081,9.6257,4.6526
19854.0,-27.584,-30.081,16.626,7.6526
19864.0,-26.584,-30.081,16.626,7.6526
19874.0,-28.584,-32.081,20.626,9.6526
19884.0,-29.584,-32.081,20.626,9.6526
19894.0,-32.584,-34.081,22.626,12.653
19904.0,-30.584,-33.081,22.626,12.653
19914.0,-34.584,-35.081,24.626,14.653
19924.0,-32.584,-34.081,25.626,14.653
19933.0,-33.584,-33.081,26.626,15.653
19943.0,-34.584,-33.081,26.626,15.653
19953.0,-36.584,-33.081,29.626,17.653
19963.0,-35.584,-34.081,29.626,17.653
19973.0,-36.584,-34.081,30.626,19.653
19983.0,-36.584,-35.081,30.626,20.653
19993.0,-39.584,-37.081,30.626,20.653
20003.0,-42.584,-37.081,31.626,19.653
20012.0,-42.584,-38.081,31.626,19.653
20022.0,-44.584,-41.081,33.626,21.653
20032.0,-48.584,-42.081,34.626,21.653
20042.0,-49.584,-43.081,34.626,23.653
20052.0,-53.584,-44.081,36.626,24.653
20062.0,-54.584,-44.081,36.626,25.653
20072.0,-57.584,-45.081,36.626,25.653
20082.0,-59.584,-47.081,37.626,25.653
20092.0,-61.584,-47.081,39.626,26.653
20101.0,-63.584,-47.081,38.626,27.653
20111.0,-62.584,-49.081,39.626,27.653
20121.0,-66.584,-49.081,40.626,27.653
20131.0,-71.584,-52.081,41.626,27.653
20141.0,-74.584,-54.081,41.626,29.653
20151.0,-78.584,-57.081,43.626,29.653
20161.0,-81.584,-59.081,44.626,30.653
20171.0,-85.584,-61.081,44.626,28.653
20181.0,-89.584,-61.081,45.626,31.653
20190.0,-90.584,-62.081,45.626,31.653
20200.0,-93.584,-64.081,47.626,33.653
20210.0,-95.584,-64.081,46.626,33.653
20220.0,-95.584,-60.081,48.626,34.653
20230.0,-76.584,-46.081,46.626,33.653
20240.0,-72.584,-46.081,48.626,36.653
20250.0,-53.584,-29.081,48.626,36.653
20260.0,-30.584,-13.081,46.626,35.653
20270.0,-19.584,-5.0807,47.626,37.653
20279.0,-19.584,-5.0807,49.626,39.653
20289.0,-3.5842,0.91926,50.626,40.653
20299.0,-3.5842,0.91926,53.626,42.653
20309.0,5.4158,-0.080741,53.626,41.653
20319.0,5.4158,-0.080741,55.626,42.653
20329.0,0.41577,-7.0807,60.626,44.653
20339.0,0.41577,-7.0807,64.626,44.653
20349.0,-3.5842,-12.081,67.626,45.653
20358.0,-3.5842,-12.081,72.626,45.653
20368.0,-5.5842,-15.081,74.626,46.653
20378.0,-5.5842,-15.081,80.626,47.653
20388.0,-10.584,-18.081,79.626,48.653
20398.0,-10.584,-18.081,82.626,50.653
20408.0,-11.584,-17.081,85.626,52.653
20418.0,-11.584,-17.081,86.626,53.653
20428.0,-13.584,-17.081,87.626,53.653
20438.0,-13.584,-17.081,87.626,55.653
20447.0,-11.584,-14.081,86.626,55.653
20457.0,-11.584,-14.081,90.626,56.653
20467.0,-10.584,-11.081,90.626,57.653
20477.0,-11.584,-12.081,92.626,58.653
20487.0,-10.584,-11.081,92.626,58.653
20497.0,-14.584,-13.081,94.626,59.653
20507.0,-17.584,-13.081,92.626,59.653
20517.0,-19.584,-15.081,94.626,59.653
20527.0,-22.584,-17.081,96.626,61.653
20536.0,-27.584,-18.081,95.626,62.653
20546.0,-32.584,-22.081,96.626,62.653
20556.0,-34.584,-23.081,98.626,63.653
20566.0,-36.584,-25.081,100.63,63.653
20576.0,-37.584,-27.081,99.626,63.653
20586.0,-39.584,-25.081,100.63,65.653
20596.0,-41.584,-27.081,99.626,64.653
20606.0,-42.584,-26.081,99.626,64.653
20616.0,-42.584,-26.081,99.626,63.653
20625.0,-44.584,-26.081,99.626,62.653
20635.0,-44.584,-26.081,97.626,63.653
20645.0,-47.584,-28.081,95.626,62.653
20655.0,-49.584,-28.081,95.626,63.653
20665.0,-51.584,-29.081,95.626,62.653
20675.0,-54.584,-30.081,93.626,63.653
20685.0,-55.584,-31.081,91.626,62.653
20695.0,-60.584,-33.081,91.626,62.653
20704.0,-65.584,-34.081,88.626,61.653
20714.0,-68.584,-37.081,86.626,61.653
20724.0,-72.584,-40.081,84.626,60.653
20734.0,-75.584,-39.081,80.626,59.653
20744.0,-51.584,-20.081,79.626,58.653
20754.0,-46.584,-18.081,76.626,59.653
20764.0,-34.584,-6.0807,76.626,57.653
20774.0,-7.5842,12.919,70.626,58.653
20784.0,4.4158,19.919,68.626,57.653
20793.0,14.416,25.919,69.626,59.653
20803.0,26.416,28.919,69.626,58.653
20813.0,32.416,29.919,69.626,57.653
20823.0,34.416,28.919,68.626,58.653
20833.0,35.416,25.919,68.626,58.653
20843.0,33.416,22.919,73.626,57.653
20853.0,30.416,20.919,73.626,57.653
20863.0,30.416,18.919,77.626,57.653
20873.0,29.416,19.919,77.626,57.653
20882.0,29.416,17.919,80.626,57.653
20892.0,25.416,16.919,80.626,57.653
20902.0,26.416,13.919,79.626,58.653
20912.0,20.416,9.9193,79.626,58.653
20922.0,23.416,11.919,80.626,59.653
20932.0,20.416,11.919,80.626,59.653
20942.0,19.416,10.919,80.626,60.653
20952.0,20.416,12.919,80.626,60.653
20962.0,20.416,12.919,79.626,60.653
20971.0,19.416,14.919,79.626,60.653
20981.0,19.416,13.919,76.626,59.653
20991.0,20.416,15.919,76.626,59.653
21001.0,18.416,14.919,72.626,57.653
21011.0,20.416,15.919,72.626,57.653
21021.0,18.416,14.919,69.626,53.653
21031.0,16.416,11.919,69.626,53.653
21041.0,13.416,12.919,64.626,53.653
21050.0,12.416,10.919,64.626,53.653
21060.0,9.4158,9.9193,63.626,51.653
21070.0,9.4158,8.9193,62.626,49.653
21080.0,5.4158,6.9193,60.626,47.653
21090.0,4.4158,4.9193,57.626,44.653
21100.0,0.41577,3.9193,54.626,41.653
21110.0,-0.58423,4.9193,51.626,40.653
21120.0,-1.5842,2.9193,50.626,40.653
21130.0,-3.5842,1.9193,46.626,36.653
21139.0,-4.5842,2.9193,44.626,35.653
21149.0,-4.5842,2.9193,42.626,33.653
21159.0,-7.5842,0.91926,39.626,33.653
21169.0,-7.5842,0.91926,38.626,31.653
21179.0,-14.584,-2.0807,39.626,31.653
21189.0,-14.584,-2.0807,35.626,28.653
21199.0,-17.584,-3.0807,31.626,27.653
21209.0,-17.584,-3.0807,28.626,25.653
21219.0,-21.584,-5.0807,28.626,25.653
21228.0,-21.584,-5.0807,25.626,24.653
21238.0,-30.584,-10.081,24.626,25.653
21248.0,-30.584,-10.081,21.626,22.653
21258.0,2.4158,15.919,22.626,21.653
21268.0,2.4158,15.919,18.626,19.653
21278.0,29.416,37.919,16.626,16.653
21288.0,29.416,37.919,14.626,17.653
21298.0,66.416,62.919,12.626,16.653
21308.0,66.416,62.919,11.626,18.653
21317.0,82.416,70.919,12.626,18.653
21327.0,96.416,76.919,11.626,17.653
21337.0,103.42,78.919,8.6257,15.653
21347.0,104.42,76.919,8.6257,11.653
21357.0,104.42,72.919,11.626,9.6526
21367.0,101.42,68.919,11.626,10.653
21377.0,98.416,64.919,13.626,8.6526
21387.0,94.416,61.919,13.626,8.6526
21396.0,91.416,60.919,10.626,6.6526
21406.0,88.416,57.919,12.626,6.6526
21416.0,83.416,54.919,11.626,6.6526
21426.0,78.416,50.919,10.626,4.6526
21436.0,77.416,51.919,11.626,4.6526
21446.0,78.416,51.919,9.6257,5.6526
21456.0,76.416,49.919,9.6257,4.6526
21466.0,76.416,51.919,8.6257,4.6526
21476.0,76.416,51.919,6.6257,3.6526
21485.0,76.416,53.919,4.6257,2.6526
21495.0,77.416,53.919,4.6257,2.6526
21505.0,77.416,53.919,4.6257,-0.34742
21515.0,76.416,53.919,0.62569,-1.3474
21525.0,75.416,53.919,-1.3743,-3.3474
21535.0,73.416,51.919,-3.3743,-2.3474
21545.0,69.416,49.919,-5.3743,-4.3474
21555.0,68.416,46.919,-6.3743,-6.3474
21565.0,65.416,45.919,-9.3743,-7.3474
21574.0,63.416,42.919,-9.3743,-9.3474
21584.0,58.416,41.919,-11.374,-8.3474
21594.0,56.416,40.919,-12.374,-10.347
21604.0,54.416,38.919,-14.374,-12.347
21614.0,52.416,37.919,-15.374,-12.347
21624.0,50.416,36.919,-19.374,-15.347
21634.0,48.416,35.919,-19.374,-16.347
21644.0,46.416,34.919,-21.374,-15.347
21654.0,44.416,33.919,-21.374,-16.347
21663.0,42.416,32.919,-23.374,-17.347
21673.0,39.416,32.919,-25.374,-18.347
21683.0,36.416,29.919,-26.374,-18.347
21693.0,36.416,30.919,-26.374,-19.347
21703.0,32.416,27.919,-29.374,-20.347
21713.0,29.416,25.919,-30.374,-20.347
21723.0,26.416,24.919,-31.374,-19.347
21733.0,22.416,21.919,-33.374,-23.347
21742.0,19.416,19.919,-34.374,-23.347
21752.0,11.416,16.919,-36.374,-21.347
21762.0,10.416,16.919,-36.374,-24.347
21772.0,28.416,31.919,-38.374,-24.347
21782.0,41.416,39.919,-38.374,-24.347
21792.0,46.416,44.919,-41.374,-24.347
21802.0,71.416,65.919,-42.374,-25.347
21812.0,87.416,76.919,-43.374,-25.347
21822.0,101.42,82.919,-41.374,-23.347
21831.0,115.42,87.919,-42.374,-24.347
21841.0,122.42,90.919,-42.374,-25.347
21851.0,123.42,87.919,-42.374,-29.347
21861.0,122.42,83.919,-43.374,-30.347
21871.0,115.42,76.919,-42.374,-31.347
21881.0,110.42,71.919,-42.374,-31.347
21891.0,105.42,65.919,-41.374,-34.347
21901.0,100.42,62.919,-41.374,-34.347
21911.0,95.416,59.919,-41.374,-35.347
21920.0,91.416,57.919,-41.374,-35.347
21930.0,88.416,54.919,-40.374,-33.347
21940.0,86.416,55.919,-40.374,-33.347
21950.0,88.416,56.919,-37.374,-32.347
21960.0,85.416,56.919,-37.374,-32.347
21970.0,86.416,57.919,-39.374,-32.347
21980.0,87.416,60.919,-39.374,-32.347
21990.0,87.416,59.919,-39.374,-31.347
22000.0,87.416,59.919,-39.374,-31.347
22009.0,86.416,60.919,-43.374,-33.347
22019.0,86.416,60.919,-43.374,-33.347
22029.0,82.416,57.919,-43.374,-34.347
22039.0,82.416,57.919,-43.374,-34.347
22049.0,76.416,53.919,-45.374,-34.347
22059.0,76.416,53.919,-45.374,-34.347
22069.0,66.416,48.919,-46.374,-34.347
22079.0,66.416,48.919,-46.374,-34.347
22088.0,60.416,43.919,-49.374,-34.347
22098.0,60.416,43.919,-49.374,-34.347
22108.0,52.416,39.919,-50.374,-36.347
22118.0,52.416,39.919,-51.374,-35.347
22128.0,49.416,39.919,-50.374,-35.347
22138.0,49.416,39.919,-51.374,-37.347
22148.0,44.416,36.919,-51.374,-38.347
22158.0,44.416,36.919,-52.374,-36.347
22168.0,38.416,33.919,-53.374,-36.347
22177.0,38.416,33.919,-53.374,-37.347
22187.0,34.416,31.919,-54.374,-36.347
22197.0,31.416,29.919,-53.374,-35.347
22207.0,27.416,28.919,-54.374,-36.347
22217.0,24.416,24.919,-54.374,-36.347
22227.0,18.416,22.919,-53.374,-35.347
22237.0,12.416,20.919,-55.374,-35.347
22247.0,8.4158,16.919,-53.374,-35.347
22257.0,2.4158,12.919,-53.374,-34.347
22266.0,-3.5842,9.9193,-55.374,-35.347
22276.0,-10.584,6.9193,-55.374,-34.347
22286.0,-9.5842,7.9193,-56.374,-34.347
22296.0,14.416,26.919,-57.374,-35.347
22306.0,14.416,24.919,-57.374,-34.347
22316.0,27.416,37.919,-59.374,-34.347
22326.0,45.416,51.919,-59.374,-36.347
22336.0,55.416,57.919,-59.374,-36.347
22346.0,64.416,62.919,-61.374,-34.347
22355.0,72.416,64.919,-58.374,-35.347
22365.0,76.416,61.919,-58.374,-36.347
22375.0,74.416,57.919,-59.374,-37.347
22385.0,68.416,49.919,-57.374,-39.347
22395.0,58.416,43.919,-56.374,-38.347
22405.0,52.416,36.919,-55.374,-39.347
22415.0,45.416,32.919,-52.374,-38.347
22425.0,39.416,28.919,-53.374,-39.347
22434.0,34.416,24.919,-53.374,-38.347
22444.0,28.416,20.919,-51.374,-39.347
22454.0,22.416,17.919,-51.374,-38.347
22464.0,23.416,18.919,-50.374,-37.347
22474.0,23.416,19.919,-51.374,-36.347
22484.0,19.416,18.919,-50.374,-34.347
22494.0,23.416,20.919,-51.374,-33.347
22504.0,22.416,21.919,-48.374,-33.347
22514.0,22.416,21.919,-49.374,-32.347
22523.0,22.416,22.919,-48.374,-30.347
22533.0,21.416,21.919,-49.374,-32.347
22543.0,19.416,21.919,-50.374,-31.347
22553.0,17.416,20.919,-51.374,-32.347
22563.0,15.416,19.919,-51.374,-30.347
22573.0,13.416,18.919,-52.374,-30.347
22583.0,9.4158,15.919,-50.374,-31.347
22593.0,7.4158,13.919,-48.374,-28.347
22603.0,4.4158,12.919,-47.374,-28.347
22612.0,1.4158,9.9193,-47.374,-28.347
22622.0,-3.5842,8.9193,-47.374,-27.347
22632.0,-5.5842,6.9193,-46.374,-28.347
22642.0,-6.5842,5.9193,-46.374,-26.347
22652.0,-8.5842,4.9193,-47.374,-27.347
22662.0,-9.5842,4.9193,-48.374,-27.347
22672.0,-12.584,2.9193,-47.374,-28.347
22682.0,-13.584,2.9193,-44.374,-27.347
22692.0,-16.584,0.91926,-47.374,-27.347
22701.0,-19.584,0.91926,-44.374,-25.347
22711.0,-21.584,-2.0807,-44.374,-24.347
22721.0,-25.584,-4.0807,-44.374,-24.347
22731.0,-29.584,-6.0807,-43.374,-22.347
22741.0,-34.584,-9.0807,-42.374,-22.347
22751.0,-39.584,-11.081,-43.374,-21.347
22761.0,-44.584,-15.081,-42.374,-20.347
22771.0,-49.584,-19.081,-41.374,-21.347
22780.0,-54.584,-21.081,-42.374,-21.347
22790.0,-51.584,-17.081,-41.374,-19.347
22800.0,-28.584,-0.080741,-39.374,-19.347
22810.0,-26.584,0.91926,-40.374,-18.347
22820.0,-12.584,13.919,-41.374,-17.347
22830.0,7.4158,28.919,-39.374,-17.347
22840.0,17.416,37.919,-40.374,-18.347
22850.0,27.416,41.919,-38.374,-14.347
22860.0,34.416,42.919,-36.374,-12.347
22869.0,34.416,42.919,-34.374,-14.347
22879.0,35.416,36.919,-32.374,-13.347
22889.0,35.416,36.919,-31.374,-13.347
22899.0,19.416,21.919,-31.374,-15.347
22909.0,19.416,21.919,-29.374,-15.347
22919.0,4.4158,10.919,-28.374,-14.347
22929.0,4.4158,10.919,-28.374,-14.347
22939.0,-7.5842,1.9193,-24.374,-14.347
22949.0,-7.5842,1.9193,-22.374,-13.347
22958.0,-18.584,-5.0807,-21.374,-12.347
22968.0,-18.584,-5.0807,-18.374,-10.347
22978.0,-21.584,-5.0807,-18.374,-8.3474
22988.0,-21.584,-5.0807,-18.374,-8.3474
22998.0,-18.584,-3.0807,-17.374,-7.3474
23008.0,-18.584,-3.0807,-17.374,-7.3474
23018.0,-19.584,-1.0807,-15.374,-5.3474
23028.0,-19.584,-1.0807,-15.374,-5.3474
23038.0,-16.584,0.91926,-15.374,-5.3474
23047.0,-17.584,0.91926,-15.374,-5.3474
23057.0,-18.584,-0.080741,-15.374,-6.3474
23067.0,-21.584,-2.0807,-15.374,-6.3474
23077.0,-24.584,-2.0807,-18.374,-5.3474
23087.0,-25.584,-5.0807,-18.374,-5.3474
23097.0,-28.584,-6.0807,-16.374,-5.3474
23107.0,-31.584,-8.0807,-16.374,-5.3474
23117.0,-35.584,-10.081,-19.374,-7.3474
23126.0,-38.584,-13.081,-19.374,-7.3474
23136.0,-41.584,-16.081,-19.374,-6.3474
23146.0,-46.584,-16.081,-19.374,-6.3474
23156.0,-47.584,-17.081,-18.374,-5.3474
23166.0,-50.584,-20.081,-18.374,-5.3474
23176.0,-53.584,-21.081,-19.374,-7.3474
23186.0,-54.584,-23.081,-19.374,-7.3474
23196.0,-56.584,-24.081,-21.374,-6.3474
23206.0,-62.584,-25.081,-20.374,-7.3474
23215.0,-62.584,-27.081,-22.374,-8.3474
23225.0,-65.584,-29.081,-21.374,-7.3474
23235.0,-71.584,-30.081,-19.374,-5.3474
23245.0,-74.584,-33.081,-21.374,-6.3474
23255.0,-76.584,-35.081,-20.374,-5.3474
23265.0,-81.584,-37.081,-19.374,-5.3474
23275.0,-86.584,-42.081,-20.374,-5.3474
23285.0,-91.584,-42.081,-21.374,-5.3474
23295.0,-87.584,-38.081,-22.374,-5.3474
23304.0,-64.584,-22.081,-22.374,-5.3474
23314.0,-62.584,-22.081,-22.374,-4.3474
23324.0,-45.584,-5.0807,-22.374,-4.3474
23334.0,-24.584,8.9193,-25.374,-5.3474
23344.0,-16.584,14.919,-23.374,-4.3474
23354.0,-6.5842,20.919,-24.374,-5.3474
23364.0,3.4158,22.919,-22.374,-3.3474
23374.0,6.4158,20.919,-22.374,-4.3474
23383.0,3.4158,15.919,-20.374,-4.3474
23393.0,-2.5842,9.9193,-19.374,-8.3474
23403.0,-10.584,2.9193,-20.374,-8.3474
23413.0,-15.584,-3.0807,-19.374,-9.3474
23423.0,-21.584,-9.0807,-17.374,-11.347
23433.0,-27.584,-12.081,-16.374,-11.347
23443.0,-32.584,-16.081,-13.374,-10.347
23453.0,-38.584,-19.081,-12.374,-10.347
23463.0,-42.584,-22.081,-9.3743,-9.3474
23472.0,-44.584,-23.081,-8.3743,-8.3474
23482.0,-43.584,-22.081,-5.3743,-6.3474
23492.0,-47.584,-24.081,-7.3743,-7.3474
23502.0,-44.584,-22.081,-6.3743,-6.3474
23512.0,-44.584,-21.081,-4.3743,-4.3474
23522.0,-46.584,-21.081,-4.3743,-3.3474
23532.0,-47.584,-20.081,-3.3743,-2.3474
23542.0,-47.584,-20.081,-3.3743,-3.3474
23552.0,-49.584,-21.081,-3.3743,-4.3474
23561.0,-50.584,-23.081,-4.3743,-3.3474
23571.0,-51.584,-24.081,-4.3743,-4.3474
23581.0,-58.584,-27.081,-3.3743,-3.3474
23591.0,-61.584,-32.081,-3.3743,-3.3474
23601.0,-64.584,-32.081,-5.3743,-4.3474
23611.0,-69.584,-36.081,-4.3743,-4.3474
23621.0,-73.584,-37.081,-3.3743,-6.3474
23631.0,-75.584,-39.081,-5.3743,-5.3474
23641.0,-77.584,-40.081,-4.3743,-6.3474
23650.0,-79.584,-41.081,-4.3743,-6.3474
23660.0,-82.584,-42.081,-6.3743,-8.3474
23670.0,-85.584,-43.081,-5.3743,-7.3474
23680.0,-87.584,-46.081,-4.3743,-7.3474
23690.0,-90.584,-45.081,-4.3743,-8.3474
23700.0,-90.584,-47.081,-4.3743,-8.3474
23710.0,-93.584,-48.081,-4.3743,-8.3474
23720.0,-96.584,-50.081,-3.3743,-6.3474
23729.0,-96.584,-50.081,-4.3743,-6.3474
23739.0,-96.584,-50.081,-4.3743,-4.3474
23749.0,-101.58,-52.081,-2.3743,-3.3474
23759.0,-101.58,-52.081,-1.3743,-3.3474
23769.0,-110.58,-57.081,-2.3743,-3.3474
23779.0,-110.58,-57.081,-3.3743,-3.3474
23789.0,-97.584,-44.081,-3.3743,-2.3474
23799.0,-97.584,-44.081,-3.3743,-1.3474
23809.0,-76.584,-28.081,-3.3743,-1.3474
23818.0,-76.584,-28.081,-2.3743,-0.34742
23828.0,-37.584,2.9193,-2.3743,0.65258
23838.0,-37.584,2.9193,-2.3743,0.65258
23848.0,-17.584,11.919,0.62569,5.6526
23858.0,-17.584,11.919,1.6257,5.6526
23868.0,-9.5842,9.9193,2.6257,5.6526
23878.0,-9.5842,9.9193,3.6257,4.6526
23888.0,-18.584,-1.0807,5.6257,3.6526
23898.0,-18.584,-1.0807,8.6257,5.6526
23907.0,-22.584,-4.0807,11.626,4.6526
23917.0,-25.584,-9.0807,12.626,5.6526
23927.0,-29.584,-13.081,15.626,6.6526
23937.0,-31.584,-15.081,17.626,7.6526
23947.0,-35.584,-18.081,20.626,10.653
23957.0,-39.584,-20.081,23.626,10.653
23967.0,-43.584,-23.081,23.626,12.653
23977.0,-42.584,-22.081,27.626,15.653
23987.0,-43.584,-22.081,29.626,15.653
23996.0,-45.584,-21.081,29.626,16.653
24006.0,-43.584,-19.081,30.626,16.653
24016.0,-41.584,-18.081,31.626,17.653
24026.0,-41.584,-17.081,32.626,19.653
24036.0,-41.584,-15.081,32.626,20.653
24046.0,-41.584,-16.081,34.626,19.653
24056.0,-44.584,-15.081,35.626,20.653
24066.0,-44.584,-15.081,32.626,20.653
24075.0,-46.584,-17.081,32.626,20.653
24085.0,-48.584,-18.081,34.626,21.653
24095.0,-52.584,-19.081,34.626,21.653
24105.0,-55.584,-22.081,37.626,24.653
24115.0,-57.584,-23.081,37.626,24.653
24125.0,-60.584,-25.081,36.626,24.653
24135.0,-64.584,-27.081,36.626,24.653
24145.0,-66.584,-28.081,36.626,24.653
24155.0,-68.584,-30.081,36.626,24.653
24164.0,-71.584,-32.081,37.626,25.653
24174.0,-72.584,-32.081,37.626,25.653
24184.0,-73.584,-33.081,40.626,25.653
24194.0,-76.584,-34.081,40.626,25.653
24204.0,-78.584,-35.081,40.626,26.653
24214.0,-81.584,-35.081,40.626,26.653
24224.0,-81.584,-37.081,39.626,27.653
24234.0,-84.584,-39.081,39.626,27.653
24244.0,-86.584,-40.081,41.626,30.653
24253.0,-91.584,-41.081,41.626,30.653
24263.0,-94.584,-44.081,42.626,29.653
24273.0,-98.584,-46.081,42.626,29.653
24283.0,-95.584,-41.081,42.626,30.653
24293.0,-72.584,-25.081,42.626,30.653
24303.0,-69.584,-22.081,42.626,30.653
24313.0,-49.584,-7.0807,43.626,30.653
24323.0,-33.584,6.9193,40.626,31.653
24333.0,-21.584,13.919,41.626,31.653
24342.0,-13.584,17.919,41.626,33.653
24352.0,-7.5842,18.919,46.626,34.653
24362.0,-5.5842,17.919,46.626,36.653
24372.0,-8.5842,11.919,48.626,37.653
24382.0,-11.584,8.9193,50.626,36.653
24392.0,-14.584,4.9193,56.626,37.653
24402.0,-18.584,1.9193,59.626,39.653
24412.0,-17.584,0.91926,63.626,40.653
24421.0,-18.584,-1.0807,65.626,39.653
24431.0,-19.584,-0.080741,68.626,41.653
24441.0,-20.584,-3.0807,69.626,41.653
24451.0,-23.584,-5.0807,72.626,43.653
24461.0,-29.584,-9.0807,73.626,43.653
24471.0,-29.584,-8.0807,74.626,45.653
24481.0,-31.584,-11.081,75.626,45.653
24491.0,-35.584,-13.081,75.626,45.653
24501.0,-36.584,-13.081,76.626,45.653
24510.0,-38.584,-14.081,73.626,46.653
24520.0,-36.584,-14.081,74.626,45.653
24530.0,-37.584,-14.081,75.626,46.653
24540.0,-39.584,-15.081,73.626,44.653
24550.0,-38.584,-14.081,74.626,45.653
24560.0,-41.584,-15.081,73.626,45.653
24570.0,-41.584,-16.081,72.626,44.653
24580.0,-42.584,-17.081,74.626,45.653
24590.0,-43.584,-18.081,73.626,45.653
24599.0,-44.584,-20.081,73.626,45.653
24609.0,-44.584,-20.081,73.626,44.653
24619.0,-47.584,-19.081,73.626,46.653
24629.0,-47.584,-19.081,73.626,44.653
24639.0,-47.584,-20.081,73.626,43.653
24649.0,-47.584,-20.081,72.626,44.653
24659.0,-48.584,-19.081,71.626,43.653
24669.0,-48.584,-19.081,70.626,42.653
24679.0,-51.584,-19.081,67.626,41.653
24688.0,-51.584,-19.081,65.626,41.653
24698.0,-53.584,-21.081,63.626,39.653
24708.0,-53.584,-21.081,61.626,40.653
24718.0,-56.584,-22.081,60.626,39.653
24728.0,-56.584,-22.081,57.626,39.653
24738.0,-60.584,-24.081,54.626,37.653
24748.0,-60.584,-24.081,54.626,34.653
24758.0,-68.584,-29.081,51.626,34.653
24767.0,-68.584,-29.081,48.626,31.653
24777.0,-68.584,-28.081,45.626,31.653
24787.0,-56.584,-16.081,41.626,29.653
24797.0,-37.584,-4.0807,40.626,28.653
24807.0,-28.584,1.9193,36.626,24.653
24817.0,-2.5842,22.919,33.626,25.653
24827.0,13.416,34.919,31.626,25.653
24837.0,27.416,41.919,31.626,26.653
24847.0,38.416,45.919,30.626,23.653
24856.0,46.416,48.919,27.626,22.653
24866.0,49.416,48.919,26.626,18.653
24876.0,53.416,46.919,24.626,16.653
24886.0,52.416,44.919,26.626,13.653
24896.0,53.416,42.919,27.626,11.653
24906.0,51.416,41.919,27.626,11.653
24916.0,51.416,41.919,27.626,9.6526
24926.0,51.416,40.919,25.626,7.6526
24936.0,52.416,40.919,25.626,7.6526
24945.0,50.416,38.919,28.626,8.6526
24955.0,47.416,36.919,26.626,7.6526
24965.0,48.416,38.919,27.626,7.6526
24975.0,48.416,36.919,28.626,8.6526
24985.0,45.416,36.919,26.626,7.6526
24995.0,45.416,37.919,27.626,6.6526
25005.0,46.416,36.919,24.626,7.6526
25015.0,46.416,35.919,21.626,5.6526
25025.0,44.416,36.919,20.626,6.6526
25034.0,42.416,36.919,20.626,5.6526
25044.0,41.416,35.919,16.626,3.6526
25054.0,40.416,35.919,13.626,1.6526
25064.0,40.416,35.919,13.626,1.6526
25074.0,37.416,33.919,11.626,1.6526
25084.0,35.416,32.919,11.626,0.65258
25094.0,32.416,29.919,9.6257,-0.34742
25104.0,33.416,29.919,6.6257,-0.34742
25113.0,29.416,27.919,7.6257,-2.3474
25123.0,28.416,25.919,5.6257,-3.3474
25133.0,23.416,24.919,3.6257,-3.3474
25143.0,23.416,22.919,2.6257,-5.3474
25153.0,21.416,24.919,2.6257,-6.3474
25163.0,18.416,22.919,1.6257,-6.3474
25173.0,18.416,21.919,2.6257,-5.3474
25183.0,16.416,20.919,-0.37431,-7.3474
25193.0,14.416,20.919,-0.37431,-7.3474
25202.0,14.416,20.919,-0.37431,-7.3474
25212.0,10.416,16.919,-2.3743,-7.3474
25222.0,9.4158,16.919,-2.3743,-7.3474
25232.0,6.4158,16.919,-3.3743,-9.3474
25242.0,2.4158,13.919,-3.3743,-9.3474
25252.0,-0.58423,13.919,-7.3743,-10.347
25262.0,-4.5842,10.919,-7.3743,-10.347
25272.0,-9.5842,8.9193,-9.3743,-10.347
25282.0,-7.5842,9.9193,-9.3743,-10.347
25291.0,11.416,25.919,-13.374,-12.347
25301.0,20.416,31.919,-13.374,-12.347
25311.0,35.416,44.919,-14.374,-13.347
25321.0,58.416,60.919,-14.374,-13.347
25331.0,71.416,68.919,-16.374,-13.347
25341.0,83.416,75.919,-16.374,-13.347
25351.0,93.416,78.919,-15.374,-13.347
25361.0,99.416,79.919,-15.374,-13.347
25371.0,101.42,77.919,-15.374,-18.347
25380.0,99.416,73.919,-15.374,-18.347
25390.0,99.416,71.919,-12.374,-17.347
25400.0,98.416,70.919,-12.374,-17.347
25410.0,100.42,70.919,-8.3743,-20.347
25420.0,100.42,69.919,-8.3743,-20.347
25430.0,99.416,68.919,-8.3743,-19.347
25440.0,97.416,66.919,-7.3743,-22.347
25450.0,92.416,63.919,-7.3743,-21.347
25459.0,89.416,60.919,-5.3743,-21.347
25469.0,90.416,62.919,-4.3743,-19.347
25479.0,90.416,62.919,-4.3743,-20.347
25489.0,88.416,61.919,-5.3743,-19.347
25499.0,88.416,61.919,-6.3743,-20.347
25509.0,89.416,63.919,-5.3743,-21.347
25519.0,89.416,63.919,-7.3743,-20.347
25529.0,89.416,63.919,-6.3743,-19.347
25539.0,89.416,63.919,-6.3743,-19.347
25548.0,87.416,62.919,-7.3743,-21.347
25558.0,87.416,62.919,-10.374,-21.347
25568.0,85.416,61.919,-10.374,-23.347
25578.0,85.416,61.919,-11.374,-22.347
25588.0,82.416,57.919,-12.374,-21.347
25598.0,82.416,57.919,-12.374,-22.347
25608.0,76.416,54.919,-12.374,-20.347
25618.0,76.416,54.919,-13.374,-21.347
25628.0,71.416,52.919,-15.374,-20.347
25637.0,71.416,52.919,-16.374,-21.347
25647.0,69.416,50.919,-15.374,-21.347
25657.0,66.416,49.919,-13.374,-22.347
25667.0,64.416,48.919,-14.374,-21.347
25677.0,60.416,45.919,-15.374,-22.347
25687.0,61.416,45.919,-15.374,-21.347
25697.0,59.416,45.919,-15.374,-21.347
25707.0,58.416,43.919,-15.374,-20.347
25717.0,56.416,43.919,-15.374,-19.347
25726.0,53.416,42.919,-18.374,-20.347
25736.0,51.416,40.919,-17.374,-19.347
25746.0,49.416,40.919,-19.374,-21.347
25756.0,46.416,38.919,-19.374,-20.347
25766.0,42.416,35.919,-20.374,-20.347
25776.0,39.416,34.919,-19.374,-22.347
25786.0,35.416,32.919,-21.374,-22.347
25796.0,29.416,28.919,-21.374,-23.347
25805.0,28.416,29.919,-21.374,-23.347
25815.0,44.416,43.919,-23.374,-22.347
25825.0,54.416,50.919,-24.374,-23.347
25835.0,64.416,57.919,-25.374,-22.347
25845.0,86.416,73.919,-26.374,-24.347
25855.0,99.416,83.919,-27.374,-24.347
25865.0,110.42,89.919,-27.374,-21.347
25875.0,121.42,92.919,-26.374,-22.347
25885.0,125.42,92.919,-24.374,-24.347
25894.0,125.42,90.919,-25.374,-24.347
25904.0,124.42,86.919,-26.374,-26.347
25914.0,122.42,84.919,-22.374,-28.347
25924.0,119.42,79.919,-21.374,-28.347
25934.0,118.42,78.919,-19.374,-28.347
25944.0,115.42,76.919,-18.374,-29.347
25954.0,115.42,76.919,-18.374,-30.347
25964.0,112.42,74.919,-15.374,-28.347
25974.0,110.42,73.919,-16.374,-28.347
25983.0,110.42,73.919,-15.374,-29.347
25993.0,112.42,74.919,-15.374,-28.347
26003.0,111.42,73.919,-17.374,-28.347
26013.0,110.42,74.919,-15.374,-28.347
26023.0,113.42,78.919,-14.374,-28.347
26033.0,114.42,78.919,-16.374,-27.347
26043.0,116.42,79.919,-17.374,-28.347
26053.0,114.42,80.919,-18.374,-28.347
26063.0,115.42,82.919,-20.374,-30.347
26072.0,116.42,82.919,-22.374,-30.347
26082.0,116.42,83.919,-23.374,-30.347
26092.0,115.42,82.919,-23.374,-32.347
26102.0,112.42,81.919,-23.374,-32.347
26112.0,108.42,79.919,-24.374,-33.347
26122.0,106.42,77.919,-27.374,-32.347
26132.0,102.42,76.919,-25.374,-31.347
26142.0,101.42,74.919,-27.374,-32.347
26151.0,99.416,72.919,-25.374,-32.347
26161.0,96.416,71.919,-26.374,-32.347
26171.0,95.416,71.919,-26.374,-33.347
26181.0,93.416,71.919,-27.374,-34.347
26191.0,92.416,71.919,-24.374,-32.347
26201.0,90.416,69.919,-25.374,-32.347
26211.0,88.416,69.919,-27.374,-32.347
26221.0,87.416,66.919,-26.374,-32.347
26231.0,81.416,67.919,-28.374,-30.347
26240.0,77.416,64.919,-28.374,-31.347
26250.0,72.416,60.919,-28.374,-31.347
26260.0,68.416,56.919,-30.374,-33.347
26270.0,66.416,55.919,-30.374,-33.347
26280.0,60.416,53.919,-31.374,-34.347
26290.0,56.416,50.919,-31.374,-34.347
26300.0,53.416,46.919,-30.374,-33.347
26310.0,46.416,42.919,-30.374,-33.347
26320.0,40.416,39.919,-33.374,-35.347
26329.0,32.416,35.919,-33.374,-35.347
26339.0,29.416,33.919,-36.374,-35.347
26349.0,29.416,33.919,-36.374,-35.347
26359.0,49.416,50.919,-35.374,-34.347
26369.0,49.416,50.919,-35.374,-34.347
26379.0,71.416,67.919,-38.374,-36.347
26389.0,71.416,67.919,-38.374,-36.347
26399.0,85.416,76.919,-40.374,-34.347
26409.0,85.416,76.919,-40.374,-34.347
26418.0,94.416,76.919,-37.374,-35.347
26428.0,94.416,76.919,-37.374,-35.347
26438.0,88.416,65.919,-39.374,-35.347
26448.0,88.416,65.919,-36.374,-38.347
26458.0,79.416,56.919,-35.374,-35.347
26468.0,79.416,56.919,-31.374,-37.347
26478.0,74.416,51.919,-30.374,-38.347
26488.0,74.416,51.919,-30.374,-40.347
26497.0,68.416,48.919,-29.374,-39.347
26507.0,68.416,48.919,-28.374,-37.347
26517.0,59.416,42.919,-25.374,-37.347
26527.0,59.416,42.919,-27.374,-38.347
26537.0,62.416,43.919,-25.374,-37.347
26547.0,58.416,40.919,-26.374,-37.347
26557.0,57.416,38.919,-27.374,-37.347
26567.0,58.416,40.919,-27.374,-37.347
26577.0,57.416,41.919,-29.374,-36.347
26586.0,57.416,42.919,-27.374,-35.347
26596.0,55.416,43.919,-28.374,-36.347
26606.0,54.416,43.919,-29.374,-37.347
26616.0,55.416,43.919,-30.374,-38.347
26626.0,53.416,42.919,-29.374,-38.347
26636.0,50.416,39.919,-31.374,-39.347
26646.0,46.416,38.919,-31.374,-39.347
26656.0,46.416,36.919,-30.374,-37.347
26666.0,43.416,35.919,-31.374,-36.347
26675.0,39.416,34.919,-31.374,-37.347
26685.0,36.416,31.919,-31.374,-36.347
26695.0,33.416,29.919,-29.374,-36.347
26705.0,31.416,26.919,-30.374,-36.347
26715.0,28.416,26.919,-28.374,-34.347
26725.0,23.416,23.919,-28.374,-34.347
26735.0,19.416,23.919,-27.374,-34.347
26745.0,19.416,21.919,-28.374,-34.347
26755.0,17.416,20.919,-28.374,-33.347
26764.0,14.416,19.919,-28.374,-33.347
26774.0,12.416,19.919,-28.374,-34.347
26784.0,10.416,17.919,-26.374,-32.347
26794.0,4.4158,15.919,-26.374,-32.347
26804.0,1.4158,12.919,-27.374,-32.347
26814.0,-1.5842,11.919,-27.374,-30.347
26824.0,-5.5842,9.9193,-27.374,-31.347
26834.0,-8.5842,7.9193,-24.374,-29.347
26843.0,-11.584,5.9193,-27.374,-29.347
26853.0,-16.584,2.9193,-26.374,-29.347
26863.0,-19.584,1.9193,-25.374,-28.347
26873.0,-24.584,-1.0807,-27.374,-28.347
26883.0,-29.584,-6.0807,-23.374,-28.347
26893.0,-29.584,-4.0807,-25.374,-26.347
26903.0,-13.584,10.919,-25.374,-27.347
26913.0,-3.5842,15.919,-25.374,-26.347
26923.0,2.4158,21.919,-26.374,-26.347
26932.0,26.416,39.919,-26.374,-26.347
26942.0,35.416,45.919,-25.374,-24.347
26952.0,44.416,50.919,-23.374,-20.347
26962.0,50.416,53.919,-21.374,-20.347
26972.0,53.416,52.919,-21.374,-19.347
26982.0,54.416,47.919,-18.374,-21.347
26992.0,48.416,40.919,-16.374,-21.347
27002.0,42.416,36.919,-14.374,-21.347
27012.0,37.416,32.919,-12.374,-21.347
27021.0,34.416,28.919,-10.374,-23.347
27031.0,32.416,25.919,-11.374,-23.347
27041.0,27.416,23.919,-8.3743,-23.347
27051.0,24.416,21.919,-7.3743,-21.347
27061.0,20.416,18.919,-5.3743,-20.347
27071.0,19.416,16.919,-2.3743,-19.347
27081.0,17.416,17.919,-1.3743,-17.347
27091.0,14.416,14.919,0.62569,-18.347
27101.0,17.416,17.919,-1.3743,-17.347
27110.0,20.416,19.919,-1.3743,-15.347
27120.0,20.416,20.919,0.62569,-13.347
27130.0,20.416,22.919,2.6257,-12.347
27140.0,20.416,23.919,1.6257,-11.347
27150.0,20.416,23.919,1.6257,-12.347
27160.0,17.416,20.919,0.62569,-11.347
27170.0,15.416,19.919,2.6257,-12.347
27180.0,11.416,16.919,3.6257,-11.347
27189.0,8.4158,14.919,2.6257,-11.347
27199.0,5.4158,12.919,2.6257,-10.347
27209.0,1.4158,10.919,2.6257,-11.347
27219.0,0.41577,9.9193,2.6257,-10.347
27229.0,-1.5842,7.9193,2.6257,-10.347
27239.0,-1.5842,7.9193,1.6257,-12.347
27249.0,-7.5842,5.9193,2.6257,-12.347
27259.0,-7.5842,5.9193,2.6257,-12.347
27269.0,-8.5842,4.9193,2.6257,-11.347
27278.0,-8.5842,4.9193,0.62569,-11.347
27288.0,-12.584,2.9193,0.62569,-11.347
27298.0,-12.584,2.9193,0.62569,-12.347
27308.0,-16.584,1.9193,0.62569,-10.347
27318.0,-16.584,1.9193,0.62569,-10.347
27328.0,-21.584,-1.0807,0.62569,-10.347
27338.0,-21.584,-1.0807,0.62569,-10.347
27348.0,-24.584,-2.0807,-2.3743,-10.347
27358.0,-24.584,-2.0807,-2.3743,-10.347
27367.0,-30.584,-5.0807,-1.3743,-9.3474
27377.0,-30.584,-5.0807,-1.3743,-9.3474
27387.0,-36.584,-7.0807,-1.3743,-10.347
27397.0,-36.584,-7.0807,-1.3743,-10.347
27407.0,-39.584,-9.0807,-3.3743,-9.3474
27417.0,-45.584,-13.081,-3.3743,-9.3474
27427.0,-48.584,-15.081,-2.3743,-9.3474
27437.0,-48.584,-14.081,-2.3743,-9.3474
27447.0,-32.584,-0.080741,-3.3743,-8.3474
27456.0,-22.584,4.9193,-3.3743,-8.3474
27466.0,-18.584,11.919,-6.3743,-10.347
27476.0,6.4158,30.919,-6.3743,-10.347
27486.0,16.416,38.919,-5.3743,-8.3474
27496.0,26.416,43.919,-5.3743,-8.3474
27506.0,34.416,49.919,-3.3743,-6.3474
27516.0,39.416,46.919,-3.3743,-6.3474
27526.0,38.416,43.919,-0.37431,-8.3474
27535.0,35.416,37.919,-0.37431,-8.3474
27545.0,28.416,32.919,-0.37431,-12.347
27555.0,21.416,25.919,-0.37431,-13.347
27565.0,18.416,21.919,1.6257,-13.347
27575.0,13.416,18.919,3.6257,-15.347
27585.0,9.4158,14.919,4.6257,-14.347
27595.0,3.4158,11.919,5.6257,-13.347
27605.0,-0.58423,7.9193,8.6257,-13.347
27615.0,-6.5842,4.9193,9.6257,-10.347
27624.0,-5.5842,4.9193,10.626,-11.347
27634.0,-10.584,2.9193,11.626,-10.347
27644.0,-11.584,2.9193,12.626,-8.3474
27654.0,-9.5842,4.9193,12.626,-7.3474
27664.0,-11.584,3.9193,13.626,-7.3474
27674.0,-12.584,3.9193,11.626,-6.3474
27684.0,-14.584,2.9193,12.626,-6.3474
27694.0,-15.584,3.9193,12.626,-7.3474
27704.0,-17.584,3.9193,12.626,-7.3474
27713.0,-19.584,1.9193,14.626,-7.3474
27723.0,-23.584,-1.0807,14.626,-8.3474
27733.0,-25.584,-3.0807,14.626,-8.3474
27743.0,-27.584,-4.0807,13.626,-7.3474
27753.0,-32.584,-6.0807,14.626,-7.3474
27763.0,-36.584,-8.0807,12.626,-7.3474
27773.0,-40.584,-11.081,13.626,-6.3474
27783.0,-42.584,-11.081,15.626,-6.3474
27793.0,-45.584,-13.081,18.626,-5.3474
27802.0,-46.584,-14.081,17.626,-4.3474
27812.0,-48.584,-15.081,19.626,-4.3474
27822.0,-48.584,-16.081,18.626,-3.3474
27832.0,-53.584,-18.081,20.626,-1.3474
27842.0,-54.584,-18.081,24.626,-0.34742
27852.0,-56.584,-21.081,25.626,2.6526
27862.0,-60.584,-23.081,24.626,3.6526
27872.0,-64.584,-25.081,24.626,4.6526
27881.0,-70.584,-26.081,27.626,4.6526
27891.0,-74.584,-31.081,26.626,6.6526
27901.0,-77.584,-33.081,28.626,7.6526
27911.0,-82.584,-35.081,26.626,8.6526
27921.0,-83.584,-36.081,26.626,9.6526
27931.0,-86.584,-38.081,27.626,9.6526
27941.0,-90.584,-42.081,28.626,9.6526
27951.0,-96.584,-44.081,28.626,10.653
27961.0,-97.584,-43.081,29.626,9.6526
27970.0,-89.584,-37.081,29.626,10.653
27980.0,-70.584,-23.081,28.626,12.653
27990.0,-68.584,-19.081,28.626,10.653
28000.0,-42.584,0.91926,26.626,11.653
28010.0,-29.584,12.919,26.626,11.653
28020.0,-20.584,18.919,26.626,11.653
28030.0,-6.5842,24.919,27.626,11.653
28040.0,-0.58423,26.919,25.626,13.653
28050.0,2.4158,23.919,28.626,13.653
28059.0,0.41577,20.919,29.626,13.653
28069.0,-2.5842,15.919,32.626,12.653
28079.0,-4.5842,11.919,32.626,12.653
28089.0,-9.5842,7.9193,36.626,13.653
28099.0,-12.584,3.9193,40.626,13.653
28109.0,-12.584,3.9193,41.626,14.653
28119.0,-16.584,0.91926,44.626,14.653
28129.0,-16.584,0.91926,44.626,16.653
28139.0,-24.584,-5.0807,44.626,15.653
28148.0,-24.584,-5.0807,47.626,16.653
28158.0,-23.584,-3.0807,48.626,16.653
28168.0,-23.584,-3.0807,49.626,18.653
28178.0,-20.584,-0.080741,49.626,17.653
28188.0,-20.584,-0.080741,49.626,18.653
28198.0,-21.584,1.9193,50.626,17.653
28208.0,-21.584,1.9193,50.626,19.653
28218.0,-19.584,4.9193,52.626,20.653
28227.0,-19.584,4.9193,51.626,20.653
28237.0,-21.584,3.9193,50.626,18.653
28247.0,-21.584,3.9193,52.626,20.653
28257.0,-24.584,0.91926,53.626,20.653
28267.0,-24.584,0.91926,52.626,21.653
28277.0,-27.584,-0.080741,53.626,20.653
28287.0,-29.584,-2.0807,53.626,22.653
28297.0,-30.584,-2.0807,54.626,22.653
28307.0,-32.584,-7.0807,53.626,21.653
28316.0,-36.584,-6.0807,54.626,23.653
28326.0,-37.584,-9.0807,54.626,23.653
28336.0,-40.584,-10.081,55.626,23.653
28346.0,-43.584,-11.081,57.626,23.653
28356.0,-44.584,-12.081,55.626,22.653
28366.0,-46.584,-13.081,56.626,24.653
28376.0,-48.584,-14.081,58.626,22.653
28386.0,-49.584,-15.081,58.626,22.653
28396.0,-52.584,-15.081,60.626,25.653
28405.0,-52.584,-16.081,60.626,25.653
28415.0,-56.584,-17.081,58.626,27.653
28425.0,-60.584,-19.081,58.626,27.653
28435.0,-63.584,-20.081,60.626,28.653
28445.0,-66.584,-22.081,60.626,28.653
28455.0,-68.584,-23.081,60.626,27.653
28465.0,-71.584,-25.081,60.626,27.653
28475.0,-73.584,-26.081,60.626,28.653
28485.0,-79.584,-29.081,60.626,28.653
28494.0,-82.584,-30.081,59.626,29.653
28504.0,-77.584,-25.081,59.626,29.653
28514.0,-58.584,-14.081,59.626,29.653
28524.0,-55.584,-9.0807,59.626,29.653
28534.0,-33.584,10.919,58.626,31.653
28544.0,-20.584,19.919,58.626,31.653
28554.0,-12.584,23.919,57.626,32.653
28564.0,-0.58423,30.919,57.626,32.653
28573.0,8.4158,30.919,62.626,33.653
28583.0,9.4158,30.919,62.626,33.653
28593.0,7.4158,25.919,62.626,32.653
28603.0,7.4158,22.919,65.626,32.653
28613.0,4.4158,18.919,67.626,34.653
28623.0,3.4158,15.919,70.626,35.653
28633.0,2.4158,13.919,73.626,35.653
28643.0,2.4158,12.919,76.626,36.653
28653.0,0.41577,9.9193,80.626,39.653
28662.0,-3.5842,8.9193,79.626,38.653
28672.0,-9.5842,4.9193,82.626,39.653
28682.0,-16.584,-1.0807,83.626,38.653
28692.0,-18.584,-1.0807,85.626,42.653
28702.0,-22.584,-4.0807,88.626,43.653
28712.0,-22.584,-4.0807,89.626,44.653
28722.0,-24.584,-4.0807,89.626,43.653
28732.0,-27.584,-6.0807,88.626,44.653
28742.0,-28.584,-6.0807,92.626,46.653
28751.0,-28.584,-7.0807,91.626,46.653
28761.0,-29.584,-6.0807,94.626,47.653
28771.0,-32.584,-9.0807,94.626,46.653
28781.0,-33.584,-10.081,92.626,46.653
28791.0,-35.584,-12.081,94.626,46.653
28801.0,-35.584,-12.081,95.626,48.653
28811.0,-36.584,-14.081,95.626,48.653
28821.0,-39.584,-14.081,96.626,49.653
28830.0,-42.584,-17.081,95.626,49.653
28840.0,-43.584,-17.081,96.626,51.653
28850.0,-43.584,-18.081,97.626,50.653
28860.0,-47.584,-20.081,97.626,51.653
28870.0,-48.584,-19.081,96.626,51.653
28880.0,-52.584,-22.081,98.626,52.653
28890.0,-53.584,-22.081,100.63,51.653
28900.0,-52.584,-22.081,98.626,52.653
28910.0,-53.584,-22.081,98.626,53.653
28919.0,-56.584,-22.081,96.626,53.653
28929.0,-58.584,-23.081,99.626,54.653
28939.0,-58.584,-23.081,100.63,54.653
28949.0,-60.584,-23.081,99.626,56.653
28959.0,-60.584,-24.081,98.626,56.653
28969.0,-65.584,-25.081,100.63,55.653
28979.0,-65.584,-25.081,99.626,56.653
28989.0,-65.584,-26.081,101.63,58.653
28999.0,-65.584,-26.081,102.63,57.653
29008.0,-74.584,-30.081,101.63,58.653
29018.0,-74.584,-30.081,102.63,59.653
29028.0,-75.584,-27.081,101.63,59.653
29038.0,-75.584,-27.081,101.63,58.653
29048.0,-50.584,-9.0807,101.63,60.653
29058.0,-50.584,-9.0807,100.63,60.653
29068.0,-16.584,17.919,102.63,61.653
29078.0,-16.584,17.919,102.63,60.653
29088.0,1.4158,28.919,100.63,62.653
29097.0,1.4158,28.919,102.63,63.653
29107.0,14.416,29.919,104.63,64.653
29117.0,14.416,29.919,105.63,63.653
29127.0,13.416,21.919,108.63,64.653
29137.0,13.416,21.919,110.63,63.653
29147.0,9.4158,17.919,114.63,64.653
29157.0,10.416,15.919,116.63,64.653
29167.0,10.416,15.919,121.63,66.653
29176.0,10.416,15.919,122.63,66.653
29186.0,12.416,17.919,123.63,68.653
29196.0,12.416,16.919,126.63,68.653
29206.0,8.4158,14.919,128.63,70.653
29216.0,6.4158,10.919,129.63,71.653
29226.0,5.4158,12.919,129.63,71.653
29236.0,4.4158,11.919,130.63,73.653
29246.0,3.4158,10.919,131.63,74.653
29256.0,4.4158,11.919,133.63,74.653
29265.0,5.4158,13.919,130.63,75.653
29275.0,4.4158,12.919,131.63,75.653
29285.0,4.4158,14.919,132.63,74.653
29295.0,3.4158,14.919,131.63,76.653
29305.0,6.4158,15.919,130.63,74.653
29315.0,5.4158,14.919,130.63,75.653
29325.0,5.4158,14.919,131.63,76.653
29335.0,4.4158,13.919,131.63,77.653
29345.0,2.4158,12.919,133.63,76.653
29354.0,0.41577,12.919,133.63,78.653
29364.0,-1.5842,9.9193,132.63,76.653
29374.0,-1.5842,10.919,133.63,77.653
29384.0,-4.5842,9.9193,133.63,77.653
29394.0,-6.5842,7.9193,134.63,77.653
29404.0,-8.5842,7.9193,133.63,77.653
29414.0,-11.584,6.9193,134.63,77.653
29424.0,-12.584,5.9193,133.63,77.653
29434.0,-14.584,4.9193,132.63,76.653
29443.0,-16.584,4.9193,130.63,75.653
29453.0,-17.584,3.9193,131.63,76.653
29463.0,-19.584,3.9193,129.63,74.653
29473.0,-21.584,1.9193,129.63,74.653
29483.0,-24.584,1.9193,126.63,74.653
29493.0,-26.584,0.91926,126.63,74.653
29503.0,-28.584,-0.080741,121.63,73.653
29513.0,-31.584,-1.0807,121.63,73.653
29522.0,-33.584,-2.0807,117.63,73.653
29532.0,-36.584,-4.0807,117.63,73.653
29542.0,-38.584,-5.0807,116.63,71.653
29552.0,-43.584,-9.0807,116.63,71.653
29562.0,-48.584,-11.081,111.63,71.653
29572.0,-50.584,-11.081,111.63,71.653
29582.0,-43.584,-5.0807,106.63,68.653
29592.0,-21.584,12.919,106.63,68.653
29602.0,-17.584,13.919,100.63,69.653
29611.0,5.4158,32.919,100.63,69.653
29621.0,25.416,47.919,94.626,67.653
29631.0,41.416,57.919,94.626,67.653
29641.0,55.416,62.919,94.626,68.653
29651.0,65.416,66.919,94.626,68.653
29661.0,72.416,67.919,96.626,67.653
29671.0,74.416,66.919,96.626,67.653
29681.0,75.416,62.919,97.626,66.653
29691.0,73.416,59.919,97.626,66.653
29700.0,72.416,58.919,102.63,67.653
29710.0,70.416,55.919,102.63,67.653
29720.0,69.416,54.919,104.63,67.653
29730.0,69.416,54.919,104.63,67.653
29740.0,66.416,53.919,103.63,67.653
29750.0,61.416,49.919,102.63,66.653
29760.0,59.416,45.919,102.63,66.653
29770.0,57.416,47.919,103.63,67.653
29780.0,55.416,45.919,104.63,65.653
29789.0,51.416,42.919,102.63,67.653
29799.0,50.416,43.919,102.63,67.653
29809.0,50.416,42.919,99.626,66.653
29819.0,48.416,44.919,99.626,67.653
29829.0,46.416,42.919,96.626,66.653
29839.0,45.416,41.919,95.626,65.653
29849.0,45.416,41.919,93.626,64.653
29859.0,40.416,40.919,91.626,62.653
29868.0,40.416,40.919,88.626,60.653
29878.0,36.416,35.919,84.626,58.653
29888.0,36.416,35.919,83.626,56.653
29898.0,32.416,31.919,82.626,54.653
29908.0,32.416,31.919,82.626,53.653
29918.0,27.416,28.919,79.626,52.653
29928.0,27.416,28.919,78.626,52.653
29938.0,22.416,26.919,74.626,50.653
29948.0,22.416,26.919,73.626,50.653
29957.0,19.416,25.919,72.626,48.653
29967.0,19.416,25.919,69.626,48.653
29977.0,17.416,24.919,69.626,45.653
29987.0,17.416,24.919,67.626,44.653
29997.0,11.416,24.919,66.626,42.653
