t,carotid_880nm,carotid_660nm,brachial_880nm,brachial_660nm
2.7,-10.248,2.0996,4.8155,-12.504
12.6,-11.248,2.0996,4.8155,-12.504
22.5,-12.248,2.0996,4.8155,-12.504
32.4,-13.248,2.0996,4.8155,-12.504
42.3,-13.248,0.099585,5.8155,-12.504
52.1,-15.248,0.099585,3.8155,-14.504
62.0,-16.248,0.099585,3.8155,-12.504
71.9,-18.248,-1.9004,4.8155,-13.504
81.8,-19.248,-1.9004,2.8155,-12.504
91.7,-20.248,-3.9004,1.8155,-14.504
101.6,-22.248,-4.9004,1.8155,-12.504
111.5,-23.248,-4.9004,1.8155,-15.504
121.3,-24.248,-5.9004,-1.1845,-15.504
131.2,-29.248,-6.9004,-0.18447,-14.504
141.1,-28.248,-6.9004,-0.18447,-15.504
151.0,-29.248,-7.9004,-0.18447,-13.504
160.9,-32.248,-8.9004,0.81553,-14.504
170.8,-34.248,-9.9004,-1.1845,-14.504
180.7,-36.248,-10.9,-4.1845,-13.504
190.5,-38.248,-12.9,-2.1845,-14.504
200.4,-38.248,-12.9,-2.1845,-14.504
210.3,-40.248,-13.9,-3.1845,-15.504
220.2,-40.248,-13.9,-5.1845,-15.504
230.1,-45.248,-15.9,-5.1845,-15.504
240.0,-45.248,-15.9,-5.1845,-16.504
249.9,-47.248,-15.9,-4.1845,-15.504
259.7,-47.248,-15.9,-4.1845,-15.504
269.6,-49.248,-17.9,-5.1845,-15.504
279.5,-49.248,-17.9,-5.1845,-16.504
289.4,-56.248,-18.9,-4.1845,-16.504
299.3,-56.248,-18.9,-6.1845,-17.504
309.2,-60.248,-20.9,-8.1845,-15.504
319.1,-60.248,-20.9,-7.1845,-15.504
328.9,-62.248,-21.9,-8.1845,-17.504
338.8,-62.248,-21.9,-10.184,-17.504
348.7,-53.248,-14.9,-11.184,-17.504
358.6,-53.248,-14.9,-11.184,-17.504
368.5,-40.248,-7.9004,-10.184,-17.504
378.4,-40.248,-7.9004,-13.184,-18.504
388.3,-34.248,-2.9004,-16.184,-19.504
398.1,-27.248,0.099585,-15.184,-20.504
408.0,-24.248,1.0996,-11.184,-18.504
417.9,-19.248,4.0996,-10.184,-17.504
427.8,-11.248,7.0996,-6.1845,-16.504
437.7,-4.2483,11.1,-2.1845,-14.504
447.6,-0.24834,13.1,-0.18447,-14.504
457.5,8.7517,15.1,1.8155,-13.504
467.3,12.752,17.1,2.8155,-15.504
477.2,17.752,19.1,3.8155,-15.504
487.1,21.752,21.1,4.8155,-15.504
497.0,26.752,22.1,4.8155,-16.504
506.9,28.752,23.1,4.8155,-15.504
516.8,31.752,24.1,4.8155,-15.504
526.7,32.752,25.1,6.8155,-16.504
536.5,37.752,26.1,6.8155,-14.504
546.4,37.752,27.1,7.8155,-14.504
556.3,41.752,28.1,9.8155,-15.504
566.2,43.752,29.1,8.8155,-15.504
576.1,44.752,28.1,7.8155,-14.504
586.0,43.752,28.1,6.8155,-14.504
595.9,41.752,27.1,7.8155,-14.504
605.7,44.752,28.1,7.8155,-15.504
615.6,46.752,29.1,7.8155,-15.504
625.5,46.752,29.1,9.8155,-13.504
635.4,48.752,30.1,9.8155,-14.504
645.3,52.752,32.1,5.8155,-14.504
655.2,47.752,31.1,6.8155,-13.504
665.1,49.752,31.1,6.8155,-13.504
674.9,50.752,31.1,5.8155,-14.504
684.8,49.752,31.1,6.8155,-13.504
694.7,50.752,31.1,8.8155,-12.504
704.6,49.752,29.1,9.8155,-13.504
714.5,50.752,30.1,9.8155,-13.504
724.4,49.752,29.1,8.8155,-13.504
734.3,48.752,29.1,8.8155,-13.504
744.1,49.752,28.1,7.8155,-14.504
754.0,45.752,27.1,7.8155,-15.504
763.9,44.752,25.1,5.8155,-16.504
773.8,43.752,25.1,6.8155,-14.504
783.7,42.752,24.1,6.8155,-15.504
793.6,42.752,25.1,7.8155,-14.504
803.5,39.752,23.1,6.8155,-14.504
813.3,38.752,22.1,4.8155,-15.504
823.2,36.752,21.1,2.8155,-15.504
833.1,34.752,20.1,4.8155,-15.504
843.0,34.752,20.1,3.8155,-16.504
852.9,32.752,20.1,4.8155,-15.504
862.8,31.752,18.1,2.8155,-15.504
872.7,29.752,18.1,3.8155,-15.504
882.5,25.752,17.1,3.8155,-15.504
892.4,24.752,17.1,1.8155,-17.504
902.3,24.752,15.1,1.8155,-17.504
912.2,22.752,14.1,2.8155,-15.504
922.1,20.752,13.1,2.8155,-15.504
932.0,17.752,11.1,0.81553,-16.504
941.9,14.752,11.1,0.81553,-16.504
951.7,12.752,10.1,-1.1845,-18.504
961.6,9.7517,9.0996,-1.1845,-18.504
971.5,7.7517,7.0996,-1.1845,-17.504
981.4,5.7517,6.0996,-1.1845,-17.504
991.3,3.7517,6.0996,-0.18447,-15.504
1001.2,3.7517,6.0996,-0.18447,-15.504
1011.1,1.7517,5.0996,-1.1845,-16.504
1020.9,-0.24834,4.0996,-1.1845,-16.504
1030.8,-2.2483,3.0996,-1.1845,-16.504
1040.7,-7.2483,2.0996,-1.1845,-16.504
1050.6,-8.2483,0.099585,-3.1845,-16.504
1060.5,-7.2483,1.0996,-3.1845,-16.504
1070.4,-7.2483,2.0996,-6.1845,-15.504
1080.3,-4.2483,5.0996,-6.1845,-15.504
1090.1,-4.2483,5.0996,-5.1845,-16.504
1100.0,10.752,13.1,-5.1845,-16.504
1109.9,10.752,13.1,-4.1845,-16.504
1119.8,21.752,22.1,-5.1845,-16.504
1129.7,21.752,22.1,-6.1845,-16.504
1139.6,33.752,29.1,-8.1845,-17.504
1149.5,33.752,29.1,-8.1845,-15.504
1159.3,45.752,35.1,-5.1845,-14.504
1169.2,45.752,35.1,-0.18447,-11.504
1179.1,60.752,41.1,0.81553,-10.504
1189.0,60.752,41.1,3.8155,-9.5037
1198.9,74.752,47.1,7.8155,-10.504
1208.8,74.752,47.1,8.8155,-9.5037
1218.7,82.752,49.1,8.8155,-9.5037
1228.5,82.752,49.1,12.816,-9.5037
1238.4,88.752,53.1,12.816,-8.5037
1248.3,88.752,53.1,12.816,-8.5037
1258.2,93.752,53.1,13.816,-8.5037
1268.1,95.752,56.1,15.816,-8.5037
1278.0,98.752,56.1,15.816,-6.5037
1287.9,98.752,58.1,16.816,-5.5037
1297.7,101.75,58.1,17.816,-5.5037
1307.6,103.75,59.1,16.816,-6.5037
1317.5,104.75,59.1,15.816,-5.5037
1327.4,101.75,57.1,17.816,-6.5037
1337.3,102.75,56.1,17.816,-5.5037
1347.2,101.75,58.1,15.816,-4.5037
1357.1,105.75,60.1,16.816,-3.5037
1366.9,104.75,59.1,17.816,-4.5037
1376.8,105.75,58.1,17.816,-3.5037
1386.7,107.75,60.1,16.816,-4.5037
1396.6,106.75,59.1,15.816,-3.5037
1406.5,105.75,59.1,16.816,-3.5037
1416.4,103.75,58.1,17.816,-2.5037
1426.3,104.75,59.1,15.816,-4.5037
1436.1,104.75,58.1,15.816,-4.5037
1446.0,105.75,58.1,16.816,-2.5037
1455.9,104.75,57.1,14.816,-3.5037
1465.8,103.75,57.1,17.816,-3.5037
1475.7,104.75,59.1,16.816,-4.5037
1485.6,104.75,57.1,15.816,-3.5037
1495.5,104.75,57.1,13.816,-4.5037
1505.3,104.75,56.1,14.816,-4.5037
1515.2,103.75,56.1,13.816,-5.5037
1525.1,105.75,56.1,11.816,-6.5037
1535.0,102.75,56.1,12.816,-4.5037
1544.9,101.75,55.1,10.816,-5.5037
1554.8,102.75,54.1,10.816,-6.5037
1564.7,99.752,54.1,10.816,-6.5037
1574.5,96.752,52.1,8.8155,-7.5037
1584.4,95.752,52.1,7.8155,-6.5037
1594.3,94.752,51.1,4.8155,-7.5037
1604.2,94.752,52.1,5.8155,-7.5037
1614.1,92.752,51.1,4.8155,-8.5037
1624.0,91.752,50.1,3.8155,-7.5037
1633.9,87.752,49.1,3.8155,-8.5037
1643.7,89.752,49.1,1.8155,-10.504
1653.6,87.752,48.1,1.8155,-8.5037
1663.5,84.752,47.1,1.8155,-8.5037
1673.4,82.752,45.1,2.8155,-7.5037
1683.3,79.752,46.1,-1.1845,-8.5037
1693.2,78.752,45.1,-0.18447,-8.5037
1703.1,74.752,43.1,0.81553,-9.5037
1712.9,75.752,42.1,-1.1845,-9.5037
1722.8,73.752,42.1,-2.1845,-8.5037
1732.7,72.752,42.1,-1.1845,-7.5037
1742.6,71.752,41.1,-0.18447,-8.5037
1752.5,70.752,42.1,-4.1845,-8.5037
1762.4,68.752,41.1,-3.1845,-9.5037
1772.3,65.752,38.1,-3.1845,-9.5037
1782.1,62.752,37.1,-3.1845,-12.504
1792.0,62.752,38.1,-7.1845,-11.504
1801.9,61.752,37.1,-5.1845,-10.504
1811.8,61.752,38.1,-10.184,-10.504
1821.7,61.752,39.1,-8.1845,-11.504
1831.6,66.752,42.1,-10.184,-11.504
1841.5,74.752,47.1,-11.184,-11.504
1851.3,79.752,51.1,-10.184,-12.504
1861.2,85.752,55.1,-13.184,-13.504
1871.1,95.752,60.1,-14.184,-12.504
1881.0,100.75,63.1,-13.184,-12.504
1890.9,105.75,66.1,-12.184,-12.504
1900.8,113.75,69.1,-8.1845,-10.504
1910.7,118.75,71.1,-6.1845,-7.5037
1920.5,124.75,74.1,-2.1845,-7.5037
1930.4,132.75,77.1,-1.1845,-6.5037
1940.3,139.75,80.1,2.8155,-6.5037
1950.2,142.75,82.1,3.8155,-5.5037
1960.1,142.75,82.1,2.8155,-8.5037
1970.0,149.75,84.1,2.8155,-8.5037
1979.9,149.75,84.1,4.8155,-6.5037
1989.7,155.75,85.1,4.8155,-6.5037
1999.6,155.75,85.1,8.8155,-5.5037
2009.5,156.75,87.1,8.8155,-5.5037
2019.4,156.75,87.1,9.8155,-4.5037
2029.3,160.75,88.1,9.8155,-4.5037
2039.2,160.75,88.1,7.8155,-5.5037
2049.1,162.75,88.1,7.8155,-5.5037
2058.9,162.75,88.1,3.8155,-6.5037
2068.8,160.75,86.1,3.8155,-6.5037
2078.7,160.75,86.1,4.8155,-6.5037
2088.6,164.75,88.1,4.8155,-6.5037
2098.5,164.75,88.1,4.8155,-5.5037
2108.4,163.75,88.1,4.8155,-5.5037
2118.3,163.75,88.1,2.8155,-6.5037
2128.1,165.75,88.1,2.8155,-6.5037
2138.0,163.75,88.1,2.8155,-7.5037
2147.9,163.75,87.1,2.8155,-7.5037
2157.8,162.75,87.1,1.8155,-6.5037
2167.7,161.75,86.1,1.8155,-6.5037
2177.6,161.75,86.1,-0.18447,-6.5037
2187.5,162.75,86.1,1.8155,-6.5037
2197.3,163.75,85.1,2.8155,-6.5037
2207.2,161.75,85.1,1.8155,-6.5037
2217.1,161.75,85.1,1.8155,-6.5037
2227.0,159.75,85.1,0.81553,-6.5037
2236.9,158.75,83.1,-0.18447,-6.5037
2246.8,156.75,83.1,0.81553,-6.5037
2256.7,155.75,81.1,-0.18447,-7.5037
2266.5,154.75,81.1,-0.18447,-8.5037
2276.4,153.75,80.1,-0.18447,-7.5037
2286.3,149.75,79.1,1.8155,-5.5037
2296.2,147.75,78.1,-1.1845,-6.5037
2306.1,146.75,76.1,-2.1845,-6.5037
2316.0,143.75,76.1,-1.1845,-7.5037
2325.9,142.75,75.1,-3.1845,-6.5037
2335.7,139.75,73.1,-3.1845,-8.5037
2345.6,138.75,74.1,-3.1845,-7.5037
2355.5,137.75,72.1,-3.1845,-6.5037
2365.4,135.75,71.1,-3.1845,-6.5037
2375.3,132.75,70.1,-4.1845,-8.5037
2385.2,130.75,70.1,-6.1845,-8.5037
2395.0,129.75,68.1,-6.1845,-9.5037
2404.9,128.75,69.1,-8.1845,-8.5037
2414.8,126.75,69.1,-9.1845,-9.5037
2424.7,125.75,67.1,-9.1845,-9.5037
2434.6,122.75,66.1,-11.184,-11.504
2444.5,120.75,66.1,-11.184,-10.504
2454.4,119.75,66.1,-10.184,-9.5037
2464.3,117.75,65.1,-12.184,-9.5037
2474.1,116.75,65.1,-13.184,-9.5037
2484.0,114.75,63.1,-13.184,-10.504
2493.9,110.75,62.1,-14.184,-9.5037
2503.8,109.75,61.1,-15.184,-11.504
2513.7,107.75,61.1,-15.184,-11.504
2523.6,107.75,62.1,-17.184,-11.504
2533.4,107.75,62.1,-18.184,-11.504
2543.3,108.75,63.1,-17.184,-10.504
2553.2,114.75,68.1,-20.184,-11.504
2563.1,121.75,73.1,-18.184,-11.504
2573.0,127.75,77.1,-23.184,-12.504
2582.9,136.75,81.1,-21.184,-12.504
2592.8,141.75,84.1,-22.184,-11.504
2602.7,147.75,88.1,-20.184,-11.504
2612.5,152.75,91.1,-17.184,-9.5037
2622.4,160.75,95.1,-14.184,-7.5037
2632.3,166.75,97.1,-11.184,-6.5037
2642.2,172.75,100.1,-9.1845,-7.5037
2652.1,176.75,101.1,-7.1845,-6.5037
2662.0,182.75,104.1,-7.1845,-7.5037
2671.8,185.75,105.1,-5.1845,-7.5037
2681.7,187.75,105.1,-4.1845,-6.5037
2691.6,189.75,105.1,-5.1845,-7.5037
2701.5,191.75,106.1,-3.1845,-7.5037
2711.4,192.75,105.1,-3.1845,-7.5037
2721.3,194.75,105.1,-3.1845,-6.5037
2731.2,195.75,106.1,-2.1845,-6.5037
2741.0,195.75,106.1,-3.1845,-6.5037
2750.9,196.75,106.1,-1.1845,-6.5037
2760.8,195.75,106.1,-3.1845,-6.5037
2770.7,194.75,105.1,-4.1845,-7.5037
2780.6,191.75,103.1,-5.1845,-6.5037
2790.5,191.75,102.1,-5.1845,-7.5037
2800.4,193.75,102.1,-3.1845,-6.5037
2810.2,190.75,101.1,-4.1845,-7.5037
2820.1,189.75,101.1,-4.1845,-6.5037
2830.0,189.75,101.1,-4.1845,-7.5037
2839.9,190.75,100.1,-6.1845,-7.5037
2849.8,190.75,100.1,-7.1845,-7.5037
2859.7,187.75,99.1,-9.1845,-7.5037
2869.6,187.75,99.1,-9.1845,-8.5037
2879.4,187.75,98.1,-10.184,-8.5037
2889.3,187.75,98.1,-10.184,-7.5037
2899.2,182.75,97.1,-10.184,-6.5037
2909.1,182.75,97.1,-9.1845,-7.5037
2919.0,180.75,95.1,-11.184,-8.5037
2928.9,180.75,95.1,-11.184,-8.5037
2938.8,179.75,93.1,-12.184,-8.5037
2948.6,179.75,93.1,-10.184,-7.5037
2958.5,174.75,92.1,-10.184,-9.5037
2968.4,174.75,92.1,-11.184,-9.5037
2978.3,171.75,89.1,-11.184,-8.5037
2988.2,171.75,89.1,-11.184,-8.5037
2998.1,170.75,89.1,-13.184,-8.5037
3008.0,168.75,88.1,-9.1845,-7.5037
3017.8,165.75,87.1,-9.1845,-7.5037
3027.7,162.75,86.1,-12.184,-8.5037
3037.6,159.75,85.1,-12.184,-8.5037
3047.5,157.75,83.1,-12.184,-9.5037
3057.4,155.75,82.1,-12.184,-9.5037
3067.3,151.75,81.1,-14.184,-9.5037
3077.2,151.75,79.1,-14.184,-9.5037
3087.0,148.75,78.1,-17.184,-10.504
3096.9,146.75,77.1,-17.184,-10.504
3106.8,143.75,76.1,-19.184,-9.5037
3116.7,141.75,75.1,-19.184,-9.5037
3126.6,139.75,73.1,-18.184,-10.504
3136.5,136.75,74.1,-18.184,-10.504
3146.4,133.75,72.1,-20.184,-10.504
3156.2,131.75,72.1,-20.184,-10.504
3166.1,127.75,70.1,-20.184,-11.504
3176.0,126.75,68.1,-20.184,-11.504
3185.9,123.75,68.1,-21.184,-11.504
3195.8,119.75,64.1,-21.184,-11.504
3205.7,113.75,62.1,-23.184,-11.504
3215.6,110.75,61.1,-23.184,-11.504
3225.4,110.75,61.1,-25.184,-12.504
3235.3,109.75,61.1,-25.184,-12.504
3245.2,107.75,61.1,-27.184,-11.504
3255.1,108.75,62.1,-26.184,-13.504
3265.0,116.75,66.1,-26.184,-12.504
3274.9,120.75,70.1,-27.184,-12.504
3284.8,126.75,73.1,-28.184,-12.504
3294.6,135.75,78.1,-28.184,-14.504
3304.5,141.75,82.1,-29.184,-13.504
3314.4,146.75,84.1,-29.184,-12.504
3324.3,151.75,88.1,-24.184,-10.504
3334.2,160.75,91.1,-21.184,-9.5037
3344.1,165.75,94.1,-17.184,-9.5037
3354.0,171.75,95.1,-16.184,-9.5037
3363.8,176.75,98.1,-15.184,-9.5037
3373.7,181.75,100.1,-14.184,-8.5037
3383.6,185.75,101.1,-13.184,-9.5037
3393.5,189.75,103.1,-14.184,-9.5037
3403.4,192.75,103.1,-13.184,-10.504
3413.3,195.75,104.1,-11.184,-9.5037
3423.2,199.75,106.1,-11.184,-9.5037
3433.0,200.75,107.1,-9.1845,-8.5037
3442.9,205.75,108.1,-9.1845,-7.5037
3452.8,208.75,110.1,-9.1845,-7.5037
3462.7,209.75,110.1,-10.184,-8.5037
3472.6,213.75,112.1,-10.184,-8.5037
3482.5,214.75,111.1,-12.184,-10.504
3492.4,212.75,111.1,-13.184,-8.5037
3502.2,211.75,109.1,-11.184,-9.5037
3512.1,212.75,111.1,-13.184,-7.5037
3522.0,215.75,112.1,-10.184,-7.5037
3531.9,214.75,110.1,-10.184,-7.5037
3541.8,216.75,110.1,-9.1845,-7.5037
3551.7,216.75,111.1,-11.184,-7.5037
3561.6,214.75,109.1,-10.184,-9.5037
3571.4,212.75,110.1,-14.184,-7.5037
3581.3,209.75,108.1,-13.184,-8.5037
3591.2,208.75,107.1,-14.184,-8.5037
3601.1,206.75,105.1,-15.184,-8.5037
3611.0,202.75,103.1,-15.184,-10.504
3620.9,197.75,100.1,-13.184,-8.5037
3630.8,193.75,99.1,-15.184,-8.5037
3640.6,190.75,95.1,-13.184,-9.5037
3650.5,187.75,94.1,-13.184,-9.5037
3660.4,182.75,92.1,-15.184,-10.504
3670.3,181.75,90.1,-15.184,-8.5037
3680.2,177.75,89.1,-15.184,-10.504
3690.1,175.75,88.1,-16.184,-11.504
3700.0,175.75,88.1,-16.184,-10.504
3709.8,170.75,85.1,-17.184,-9.5037
3719.7,170.75,85.1,-16.184,-10.504
3729.6,164.75,81.1,-16.184,-10.504
3739.5,164.75,81.1,-15.184,-10.504
3749.4,159.75,80.1,-19.184,-11.504
3759.3,159.75,80.1,-18.184,-10.504
3769.2,153.75,76.1,-18.184,-11.504
3779.0,153.75,76.1,-20.184,-11.504
3788.9,147.75,73.1,-21.184,-12.504
3798.8,147.75,73.1,-20.184,-11.504
3808.7,139.75,70.1,-22.184,-12.504
3818.6,139.75,70.1,-22.184,-12.504
3828.5,132.75,66.1,-23.184,-13.504
3838.4,132.75,66.1,-24.184,-13.504
3848.2,125.75,63.1,-24.184,-13.504
3858.1,125.75,63.1,-25.184,-13.504
3868.0,123.75,62.1,-26.184,-13.504
3877.9,121.75,62.1,-25.184,-12.504
3887.8,117.75,60.1,-26.184,-13.504
3897.7,116.75,58.1,-26.184,-13.504
3907.6,111.75,55.1,-27.184,-13.504
3917.4,106.75,54.1,-28.184,-14.504
3927.3,103.75,53.1,-27.184,-14.504
3937.2,102.75,54.1,-29.184,-14.504
3947.1,103.75,53.1,-28.184,-15.504
3957.0,102.75,55.1,-31.184,-14.504
3966.9,108.75,57.1,-30.184,-15.504
3976.8,116.75,62.1,-30.184,-15.504
3986.6,120.75,65.1,-30.184,-13.504
3996.5,125.75,69.1,-31.184,-14.504
4006.4,133.75,72.1,-31.184,-14.504
4016.3,138.75,76.1,-30.184,-14.504
4026.2,141.75,77.1,-28.184,-12.504
4036.1,146.75,80.1,-26.184,-11.504
4046.0,151.75,82.1,-20.184,-10.504
4055.8,156.75,84.1,-18.184,-10.504
4065.7,161.75,86.1,-17.184,-9.5037
4075.6,165.75,86.1,-16.184,-11.504
4085.5,167.75,86.1,-14.184,-10.504
4095.4,170.75,87.1,-14.184,-11.504
4105.3,170.75,87.1,-15.184,-10.504
4115.2,172.75,87.1,-14.184,-10.504
4125.0,171.75,87.1,-14.184,-10.504
4134.9,171.75,88.1,-16.184,-11.504
4144.8,172.75,86.1,-12.184,-8.5037
4154.7,171.75,86.1,-11.184,-10.504
4164.6,173.75,87.1,-11.184,-10.504
4174.5,171.75,86.1,-11.184,-10.504
4184.4,171.75,86.1,-11.184,-10.504
4194.2,171.75,84.1,-13.184,-10.504
4204.1,170.75,84.1,-13.184,-10.504
4214.0,165.75,81.1,-9.1845,-10.504
4223.9,163.75,80.1,-9.1845,-10.504
4233.8,165.75,80.1,-8.1845,-8.5037
4243.7,167.75,80.1,-8.1845,-8.5037
4253.6,166.75,80.1,-9.1845,-8.5037
4263.4,167.75,81.1,-9.1845,-8.5037
4273.3,165.75,79.1,-12.184,-11.504
4283.2,162.75,77.1,-12.184,-11.504
4293.1,161.75,76.1,-11.184,-8.5037
4303.0,160.75,76.1,-11.184,-8.5037
4312.9,158.75,74.1,-12.184,-8.5037
4322.8,157.75,74.1,-12.184,-8.5037
4332.6,155.75,72.1,-12.184,-9.5037
4342.5,153.75,71.1,-12.184,-9.5037
4352.4,152.75,70.1,-10.184,-8.5037
4362.3,148.75,68.1,-10.184,-8.5037
4372.2,147.75,67.1,-13.184,-9.5037
4382.1,145.75,66.1,-13.184,-9.5037
4392.0,142.75,65.1,-13.184,-10.504
4401.8,139.75,63.1,-13.184,-10.504
4411.7,136.75,62.1,-14.184,-9.5037
4421.6,134.75,61.1,-11.184,-9.5037
4431.5,131.75,59.1,-15.184,-8.5037
4441.4,128.75,57.1,-14.184,-10.504
4451.3,126.75,55.1,-15.184,-9.5037
4461.2,121.75,54.1,-14.184,-10.504
4471.0,118.75,52.1,-16.184,-10.504
4480.9,116.75,51.1,-13.184,-9.5037
4490.8,114.75,50.1,-17.184,-8.5037
4500.7,112.75,49.1,-18.184,-10.504
4510.6,110.75,47.1,-19.184,-9.5037
4520.5,104.75,46.1,-17.184,-10.504
4530.4,102.75,45.1,-17.184,-11.504
4540.2,99.752,43.1,-19.184,-10.504
4550.1,97.752,42.1,-22.184,-12.504
4560.0,93.752,41.1,-21.184,-12.504
4569.9,93.752,41.1,-22.184,-12.504
4579.8,87.752,38.1,-21.184,-11.504
4589.7,87.752,38.1,-23.184,-13.504
4599.6,82.752,34.1,-25.184,-11.504
4609.4,82.752,34.1,-22.184,-13.504
4619.3,75.752,32.1,-23.184,-12.504
4629.2,75.752,32.1,-22.184,-12.504
4639.1,70.752,28.1,-24.184,-12.504
4649.0,70.752,28.1,-24.184,-13.504
4658.9,59.752,25.1,-23.184,-13.504
4668.8,59.752,25.1,-26.184,-13.504
4678.6,53.752,22.1,-26.184,-14.504
4688.5,53.752,22.1,-28.184,-13.504
4698.4,50.752,21.1,-26.184,-14.504
4708.3,50.752,21.1,-27.184,-13.504
4718.2,58.752,29.1,-28.184,-13.504
4728.1,58.752,29.1,-28.184,-14.504
4738.0,64.752,32.1,-28.184,-14.504
4747.8,69.752,35.1,-31.184,-16.504
4757.7,74.752,37.1,-31.184,-15.504
4767.6,80.752,41.1,-29.184,-13.504
4777.5,85.752,43.1,-27.184,-13.504
4787.4,88.752,45.1,-20.184,-10.504
4797.3,94.752,47.1,-20.184,-10.504
4807.2,99.752,49.1,-18.184,-8.5037
4817.0,104.75,50.1,-16.184,-9.5037
4826.9,108.75,53.1,-13.184,-7.5037
4836.8,112.75,54.1,-13.184,-8.5037
4846.7,115.75,55.1,-12.184,-8.5037
4856.6,117.75,55.1,-12.184,-9.5037
4866.5,120.75,55.1,-9.1845,-10.504
4876.4,122.75,56.1,-10.184,-10.504
4886.2,122.75,57.1,-9.1845,-10.504
4896.1,125.75,56.1,-9.1845,-10.504
4906.0,128.75,58.1,-8.1845,-9.5037
4915.9,129.75,58.1,-9.1845,-9.5037
4925.8,131.75,58.1,-8.1845,-8.5037
4935.7,134.75,59.1,-9.1845,-9.5037
4945.6,135.75,58.1,-9.1845,-9.5037
4955.4,136.75,60.1,-10.184,-9.5037
4965.3,130.75,56.1,-9.1845,-9.5037
4975.2,131.75,56.1,-7.1845,-9.5037
4985.1,132.75,56.1,-6.1845,-8.5037
4995.0,133.75,57.1,-7.1845,-7.5037
5004.9,131.75,55.1,-6.1845,-8.5037
5014.8,132.75,56.1,-6.1845,-8.5037
5024.6,131.75,56.1,-8.1845,-8.5037
5034.5,129.75,53.1,-10.184,-9.5037
5044.4,129.75,54.1,-9.1845,-10.504
5054.3,129.75,54.1,-9.1845,-8.5037
5064.2,127.75,53.1,-12.184,-9.5037
5074.1,127.75,52.1,-8.1845,-9.5037
5083.9,124.75,51.1,-9.1845,-10.504
5093.8,123.75,49.1,-9.1845,-9.5037
5103.7,124.75,49.1,-10.184,-8.5037
5113.6,123.75,49.1,-12.184,-9.5037
5123.5,120.75,48.1,-10.184,-8.5037
5133.4,119.75,46.1,-12.184,-9.5037
5143.3,117.75,44.1,-12.184,-9.5037
5153.2,114.75,44.1,-12.184,-10.504
5163.0,113.75,42.1,-14.184,-10.504
5172.9,110.75,42.1,-13.184,-10.504
5182.8,107.75,41.1,-14.184,-10.504
5192.7,106.75,40.1,-13.184,-11.504
5202.6,103.75,38.1,-14.184,-10.504
5212.5,102.75,38.1,-15.184,-11.504
5222.3,100.75,37.1,-15.184,-10.504
5232.2,97.752,35.1,-15.184,-10.504
5242.1,96.752,34.1,-16.184,-11.504
5252.0,94.752,34.1,-16.184,-11.504
5261.9,92.752,33.1,-17.184,-11.504
5271.8,91.752,33.1,-17.184,-11.504
5281.7,88.752,32.1,-18.184,-12.504
5291.5,87.752,32.1,-18.184,-12.504
5301.4,86.752,31.1,-22.184,-14.504
5311.3,84.752,29.1,-22.184,-14.504
5321.2,82.752,29.1,-23.184,-14.504
5331.1,80.752,28.1,-23.184,-14.504
5341.0,77.752,26.1,-25.184,-14.504
5350.9,76.752,25.1,-25.184,-14.504
5360.7,73.752,24.1,-26.184,-15.504
5370.6,71.752,24.1,-26.184,-15.504
5380.5,69.752,22.1,-27.184,-14.504
5390.4,66.752,23.1,-27.184,-14.504
5400.3,64.752,22.1,-29.184,-16.504
5410.2,64.752,20.1,-29.184,-16.504
5420.1,61.752,20.1,-29.184,-17.504
5429.9,59.752,18.1,-29.184,-17.504
5439.8,59.752,18.1,-30.184,-16.504
5449.7,52.752,16.1,-29.184,-17.504
5459.6,52.752,16.1,-28.184,-17.504
5469.5,41.752,11.1,-30.184,-16.504
5479.4,41.752,11.1,-30.184,-17.504
5489.3,37.752,10.1,-32.184,-17.504
5499.1,37.752,10.1,-33.184,-17.504
5509.0,40.752,12.1,-34.184,-19.504
5518.9,40.752,12.1,-35.184,-19.504
5528.8,53.752,21.1,-36.184,-18.504
5538.7,53.752,21.1,-37.184,-19.504
5548.6,65.752,29.1,-37.184,-20.504
5558.5,65.752,29.1,-39.184,-19.504
5568.3,77.752,35.1,-40.184,-19.504
5578.2,77.752,35.1,-38.184,-19.504
5588.1,91.752,43.1,-35.184,-17.504
5598.0,91.752,43.1,-32.184,-17.504
5607.9,97.752,45.1,-29.184,-15.504
5617.8,102.75,47.1,-26.184,-15.504
5627.7,109.75,50.1,-23.184,-14.504
5637.5,114.75,52.1,-23.184,-14.504
5647.4,119.75,53.1,-23.184,-15.504
5657.3,121.75,54.1,-20.184,-16.504
5667.2,126.75,57.1,-23.184,-16.504
5677.1,128.75,58.1,-21.184,-17.504
5687.0,132.75,58.1,-23.184,-16.504
5696.9,133.75,59.1,-23.184,-17.504
5706.7,136.75,60.1,-21.184,-16.504
5716.6,138.75,61.1,-18.184,-17.504
5726.5,139.75,60.1,-19.184,-16.504
5736.4,140.75,62.1,-21.184,-16.504
5746.3,141.75,61.1,-20.184,-16.504
5756.2,141.75,61.1,-20.184,-16.504
5766.1,138.75,59.1,-21.184,-15.504
5775.9,138.75,58.1,-18.184,-14.504
5785.8,139.75,58.1,-19.184,-15.504
5795.7,143.75,59.1,-18.184,-15.504
5805.6,140.75,57.1,-18.184,-14.504
5815.5,140.75,58.1,-19.184,-15.504
5825.4,142.75,58.1,-19.184,-15.504
5835.3,139.75,56.1,-22.184,-15.504
5845.1,138.75,57.1,-19.184,-16.504
5855.0,140.75,57.1,-22.184,-17.504
5864.9,140.75,57.1,-19.184,-17.504
5874.8,138.75,58.1,-20.184,-16.504
5884.7,138.75,55.1,-19.184,-16.504
5894.6,136.75,54.1,-20.184,-15.504
5904.5,136.75,54.1,-18.184,-16.504
5914.3,135.75,54.1,-20.184,-17.504
5924.2,133.75,52.1,-20.184,-15.504
5934.1,131.75,51.1,-20.184,-16.504
5944.0,130.75,49.1,-21.184,-17.504
5953.9,127.75,48.1,-20.184,-16.504
5963.8,128.75,49.1,-25.184,-17.504
5973.7,127.75,46.1,-22.184,-18.504
5983.5,123.75,45.1,-20.184,-17.504
5993.4,121.75,45.1,-21.184,-16.504
6003.3,118.75,43.1,-23.184,-16.504
6013.2,113.75,41.1,-21.184,-18.504
6023.1,107.75,38.1,-23.184,-17.504
6033.0,101.75,35.1,-22.184,-17.504
6042.9,98.752,32.1,-23.184,-15.504
6052.7,92.752,31.1,-23.184,-16.504
6062.6,91.752,29.1,-23.184,-17.504
6072.5,86.752,28.1,-22.184,-15.504
6082.4,84.752,27.1,-24.184,-16.504
6092.3,80.752,26.1,-24.184,-16.504
6102.2,77.752,25.1,-25.184,-16.504
6112.1,76.752,23.1,-26.184,-17.504
6121.9,73.752,23.1,-25.184,-16.504
6131.8,72.752,21.1,-25.184,-17.504
6141.7,69.752,21.1,-25.184,-16.504
6151.6,68.752,21.1,-26.184,-16.504
6161.5,68.752,20.1,-26.184,-15.504
6171.4,64.752,20.1,-27.184,-16.504
6181.3,65.752,20.1,-27.184,-15.504
6191.1,65.752,20.1,-27.184,-15.504
6201.0,62.752,19.1,-28.184,-17.504
6210.9,62.752,19.1,-28.184,-17.504
6220.8,62.752,20.1,-30.184,-16.504
6230.7,60.752,20.1,-30.184,-16.504
6240.6,58.752,19.1,-30.184,-17.504
6250.5,58.752,18.1,-31.184,-17.504
6260.3,55.752,18.1,-31.184,-17.504
6270.2,54.752,18.1,-31.184,-16.504
6280.1,54.752,18.1,-31.184,-15.504
6290.0,50.752,16.1,-33.184,-16.504
6299.9,46.752,15.1,-32.184,-16.504
6309.8,46.752,15.1,-33.184,-16.504
6319.7,45.752,15.1,-33.184,-16.504
6329.5,45.752,15.1,-35.184,-16.504
6339.4,47.752,16.1,-35.184,-16.504
6349.3,47.752,16.1,-34.184,-16.504
6359.2,60.752,24.1,-34.184,-16.504
6369.1,60.752,24.1,-35.184,-17.504
6379.0,68.752,30.1,-35.184,-17.504
6388.9,68.752,30.1,-39.184,-17.504
6398.7,81.752,36.1,-39.184,-17.504
6408.6,81.752,36.1,-34.184,-17.504
6418.5,90.752,42.1,-34.184,-17.504
6428.4,90.752,42.1,-29.184,-11.504
6438.3,98.752,47.1,-29.184,-11.504
6448.2,98.752,47.1,-20.184,-11.504
6458.1,110.75,51.1,-20.184,-11.504
6467.9,110.75,51.1,-17.184,-10.504
6477.8,116.75,52.1,-17.184,-10.504
6487.7,119.75,54.1,-16.184,-10.504
6497.6,121.75,55.1,-16.184,-10.504
6507.5,124.75,56.1,-14.184,-12.504
6517.4,126.75,56.1,-16.184,-11.504
6527.3,128.75,56.1,-14.184,-11.504
6537.1,131.75,57.1,-12.184,-10.504
6547.0,134.75,57.1,-11.184,-9.5037
6556.9,135.75,57.1,-12.184,-10.504
6566.8,135.75,56.1,-12.184,-9.5037
6576.7,134.75,57.1,-11.184,-11.504
6586.6,133.75,56.1,-13.184,-9.5037
6596.5,131.75,54.1,-13.184,-9.5037
6606.3,130.75,52.1,-13.184,-11.504
6616.2,129.75,52.1,-10.184,-8.5037
6626.1,130.75,52.1,-11.184,-9.5037
6636.0,128.75,51.1,-10.184,-8.5037
6645.9,127.75,51.1,-8.1845,-6.5037
6655.8,129.75,52.1,-8.1845,-6.5037
6665.7,127.75,51.1,-10.184,-5.5037
6675.5,125.75,50.1,-9.1845,-6.5037
6685.4,123.75,48.1,-9.1845,-7.5037
6695.3,122.75,49.1,-10.184,-6.5037
6705.2,122.75,46.1,-8.1845,-7.5037
6715.1,122.75,48.1,-8.1845,-6.5037
6725.0,121.75,47.1,-8.1845,-5.5037
6734.9,120.75,47.1,-8.1845,-5.5037
6744.7,118.75,45.1,-8.1845,-4.5037
6754.6,117.75,45.1,-7.1845,-5.5037
6764.5,115.75,44.1,-8.1845,-5.5037
6774.4,113.75,44.1,-10.184,-5.5037
6784.3,111.75,42.1,-9.1845,-5.5037
6794.2,109.75,42.1,-8.1845,-4.5037
6804.1,105.75,41.1,-8.1845,-5.5037
6813.9,105.75,40.1,-8.1845,-4.5037
6823.8,103.75,38.1,-6.1845,-3.5037
6833.7,101.75,38.1,-8.1845,-4.5037
6843.6,98.752,35.1,-7.1845,-3.5037
6853.5,96.752,34.1,-10.184,-4.5037
6863.4,92.752,33.1,-11.184,-3.5037
6873.3,90.752,32.1,-9.1845,-3.5037
6883.1,87.752,32.1,-11.184,-4.5037
6893.0,83.752,30.1,-8.1845,-4.5037
6902.9,83.752,28.1,-11.184,-3.5037
6912.8,80.752,27.1,-12.184,-5.5037
6922.7,77.752,29.1,-12.184,-5.5037
6932.6,77.752,27.1,-13.184,-6.5037
6942.5,74.752,25.1,-13.184,-5.5037
6952.3,71.752,25.1,-14.184,-6.5037
6962.2,70.752,24.1,-15.184,-5.5037
6972.1,66.752,23.1,-15.184,-6.5037
6982.0,66.752,22.1,-16.184,-5.5037
6991.9,64.752,22.1,-17.184,-5.5037
7001.8,60.752,21.1,-16.184,-5.5037
7011.7,60.752,20.1,-17.184,-5.5037
7021.5,57.752,19.1,-18.184,-6.5037
7031.4,56.752,19.1,-17.184,-5.5037
7041.3,54.752,19.1,-19.184,-5.5037
7051.2,52.752,18.1,-18.184,-6.5037
7061.1,51.752,18.1,-17.184,-6.5037
7071.0,49.752,16.1,-18.184,-6.5037
7080.9,48.752,16.1,-18.184,-5.5037
7090.7,46.752,15.1,-18.184,-4.5037
7100.6,44.752,15.1,-21.184,-5.5037
7110.5,41.752,13.1,-19.184,-4.5037
7120.4,38.752,13.1,-21.184,-6.5037
7130.3,38.752,12.1,-23.184,-5.5037
7140.2,36.752,12.1,-22.184,-7.5037
7150.1,36.752,12.1,-24.184,-7.5037
7159.9,36.752,14.1,-24.184,-7.5037
7169.8,42.752,17.1,-23.184,-6.5037
7179.7,42.752,17.1,-23.184,-6.5037
7189.6,54.752,26.1,-26.184,-6.5037
7199.5,54.752,26.1,-26.184,-6.5037
7209.4,68.752,33.1,-29.184,-7.5037
7219.3,68.752,33.1,-29.184,-6.5037
7229.1,76.752,39.1,-27.184,-6.5037
7239.0,76.752,39.1,-24.184,-5.5037
7248.9,87.752,44.1,-19.184,-2.5037
7258.8,87.752,44.1,-17.184,-1.5037
7268.7,97.752,49.1,-16.184,-2.5037
7278.6,97.752,49.1,-13.184,-0.50366
7288.5,103.75,50.1,-12.184,-1.5037
7298.3,103.75,50.1,-12.184,-2.5037
7308.2,106.75,50.1,-10.184,-1.5037
7318.1,106.75,50.1,-9.1845,-0.50366
7328.0,108.75,51.1,-9.1845,-0.50366
7337.9,108.75,51.1,-5.1845,-1.5037
7347.8,110.75,51.1,-5.1845,-1.5037
7357.7,109.75,50.1,-6.1845,-0.50366
7367.5,110.75,52.1,-6.1845,-0.50366
7377.4,111.75,52.1,-7.1845,-1.5037
7387.3,112.75,52.1,-7.1845,-1.5037
7397.2,111.75,52.1,-8.1845,-0.50366
7407.1,109.75,49.1,-8.1845,-0.50366
7417.0,107.75,48.1,-8.1845,-2.5037
7426.9,105.75,48.1,-8.1845,-2.5037
7436.7,109.75,51.1,-8.1845,-1.5037
7446.6,105.75,48.1,-8.1845,-1.5037
7456.5,106.75,48.1,-7.1845,0.49634
7466.4,109.75,49.1,-7.1845,0.49634
7476.3,107.75,48.1,-6.1845,-0.50366
7486.2,106.75,47.1,-6.1845,-0.50366
7496.1,107.75,48.1,-7.1845,-0.50366
7505.9,106.75,46.1,-7.1845,-0.50366
7515.8,103.75,46.1,-5.1845,1.4963
7525.7,103.75,45.1,-5.1845,1.4963
7535.6,101.75,44.1,-3.1845,1.4963
7545.5,99.752,43.1,-3.1845,1.4963
7555.4,97.752,41.1,-2.1845,2.4963
7565.3,95.752,41.1,-0.18447,3.4963
7575.1,93.752,38.1,-4.1845,2.4963
7585.0,90.752,37.1,-1.1845,2.4963
7594.9,89.752,36.1,-2.1845,3.4963
7604.8,86.752,35.1,-2.1845,2.4963
7614.7,85.752,34.1,-2.1845,2.4963
7624.6,81.752,32.1,-2.1845,2.4963
7634.4,79.752,31.1,0.81553,3.4963
7644.3,75.752,28.1,-2.1845,2.4963
7654.2,72.752,27.1,-1.1845,3.4963
7664.1,72.752,26.1,-2.1845,3.4963
7674.0,65.752,25.1,-3.1845,2.4963
7683.9,62.752,23.1,-1.1845,4.4963
7693.8,59.752,22.1,-2.1845,3.4963
7703.7,56.752,19.1,-3.1845,2.4963
7713.5,54.752,18.1,-3.1845,3.4963
7723.4,50.752,17.1,-4.1845,3.4963
7733.3,48.752,16.1,-5.1845,2.4963
7743.2,45.752,14.1,-5.1845,3.4963
7753.1,41.752,13.1,-6.1845,2.4963
7763.0,37.752,11.1,-7.1845,1.4963
7772.8,34.752,10.1,-6.1845,1.4963
7782.7,31.752,8.0996,-5.1845,1.4963
7792.6,27.752,7.0996,-7.1845,3.4963
7802.5,24.752,5.0996,-7.1845,2.4963
7812.4,22.752,4.0996,-7.1845,2.4963
7822.3,19.752,3.0996,-9.1845,1.4963
7832.2,15.752,1.0996,-8.1845,1.4963
7842.0,15.752,0.099585,-8.1845,2.4963
7851.9,11.752,-0.90042,-9.1845,2.4963
7861.8,7.7517,-1.9004,-10.184,1.4963
7871.7,0.75166,-5.9004,-11.184,0.49634
7881.6,0.75166,-7.9004,-9.1845,0.49634
7891.5,-3.2483,-7.9004,-12.184,-0.50366
7901.4,-4.2483,-7.9004,-11.184,0.49634
7911.2,-6.2483,-7.9004,-12.184,0.49634
7921.1,-7.2483,-7.9004,-12.184,-0.50366
7931.0,-3.2483,-4.9004,-12.184,0.49634
7940.9,3.7517,-1.9004,-14.184,0.49634
7950.8,9.7517,2.0996,-12.184,-1.5037
7960.7,13.752,6.0996,-13.184,0.49634
7970.6,18.752,9.0996,-14.184,-0.50366
7980.4,21.752,11.1,-12.184,0.49634
7990.3,27.752,14.1,-13.184,2.4963
8000.2,29.752,16.1,-7.1845,2.4963
8010.1,35.752,18.1,-5.1845,4.4963
8020.0,40.752,19.1,-1.1845,4.4963
8029.9,42.752,21.1,0.81553,4.4963
8039.8,46.752,22.1,1.8155,4.4963
8049.6,46.752,22.1,1.8155,4.4963
8059.5,52.752,22.1,2.8155,4.4963
8069.4,52.752,22.1,3.8155,4.4963
8079.3,52.752,22.1,6.8155,3.4963
8089.2,52.752,22.1,7.8155,5.4963
8099.1,52.752,21.1,7.8155,3.4963
8109.0,52.752,21.1,8.8155,5.4963
8118.8,50.752,19.1,6.8155,4.4963
8128.7,50.752,19.1,9.8155,4.4963
8138.6,52.752,20.1,7.8155,3.4963
8148.5,52.752,20.1,6.8155,3.4963
8158.4,49.752,18.1,6.8155,3.4963
8168.3,49.752,18.1,6.8155,2.4963
8178.2,45.752,15.1,6.8155,4.4963
8188.0,45.752,15.1,6.8155,2.4963
8197.9,43.752,15.1,6.8155,3.4963
8207.8,43.752,15.1,6.8155,2.4963
8217.7,43.752,14.1,5.8155,3.4963
8227.6,43.752,14.1,6.8155,2.4963
8237.5,43.752,13.1,1.8155,2.4963
8247.4,41.752,12.1,2.8155,1.4963
8257.2,38.752,10.1,1.8155,0.49634
8267.1,37.752,10.1,2.8155,0.49634
8277.0,35.752,9.0996,1.8155,0.49634
8286.9,32.752,8.0996,2.8155,1.4963
8296.8,30.752,5.0996,3.8155,1.4963
8306.7,27.752,5.0996,2.8155,2.4963
8316.6,25.752,3.0996,4.8155,2.4963
8326.4,21.752,2.0996,2.8155,2.4963
8336.3,20.752,0.099585,2.8155,1.4963
8346.2,21.752,0.099585,3.8155,2.4963
8356.1,15.752,-2.9004,1.8155,1.4963
8366.0,12.752,-3.9004,1.8155,1.4963
8375.9,10.752,-5.9004,3.8155,0.49634
8385.8,6.7517,-7.9004,3.8155,2.4963
8395.6,3.7517,-8.9004,2.8155,2.4963
8405.5,1.7517,-10.9,1.8155,1.4963
8415.4,-1.2483,-10.9,-0.18447,0.49634
8425.3,-5.2483,-11.9,-1.1845,0.49634
8435.2,-8.2483,-13.9,-0.18447,0.49634
8445.1,-11.248,-15.9,-1.1845,0.49634
8455.0,-13.248,-16.9,-1.1845,0.49634
8464.8,-16.248,-17.9,-2.1845,-0.50366
8474.7,-19.248,-18.9,-2.1845,-0.50366
8484.6,-21.248,-20.9,-4.1845,-1.5037
8494.5,-24.248,-20.9,-4.1845,-1.5037
8504.4,-28.248,-22.9,-4.1845,-1.5037
8514.3,-32.248,-23.9,-4.1845,-1.5037
8524.2,-34.248,-25.9,-8.1845,-2.5037
8534.0,-37.248,-26.9,-8.1845,-2.5037
8543.9,-41.248,-28.9,-8.1845,-3.5037
8553.8,-44.248,-29.9,-8.1845,-3.5037
8563.7,-48.248,-30.9,-11.184,-4.5037
8573.6,-49.248,-31.9,-11.184,-4.5037
8583.5,-51.248,-33.9,-10.184,-3.5037
8593.4,-54.248,-34.9,-10.184,-3.5037
8603.2,-55.248,-35.9,-10.184,-3.5037
8613.1,-60.248,-36.9,-10.184,-3.5037
8623.0,-64.248,-39.9,-11.184,-4.5037
8632.9,-67.248,-40.9,-11.184,-4.5037
8642.8,-69.248,-40.9,-12.184,-4.5037
8652.7,-71.248,-41.9,-12.184,-4.5037
8662.6,-71.248,-40.9,-14.184,-3.5037
8672.4,-68.248,-37.9,-14.184,-3.5037
8682.3,-60.248,-32.9,-15.184,-5.5037
8692.2,-53.248,-29.9,-14.184,-6.5037
8702.1,-48.248,-25.9,-17.184,-6.5037
8712.0,-43.248,-23.9,-16.184,-6.5037
8721.9,-38.248,-18.9,-18.184,-6.5037
8731.8,-33.248,-17.9,-17.184,-5.5037
8741.6,-29.248,-14.9,-14.184,-5.5037
8751.5,-24.248,-14.9,-13.184,-4.5037
8761.4,-20.248,-12.9,-9.1845,-2.5037
8771.3,-15.248,-9.9004,-4.1845,-1.5037
8781.2,-10.248,-8.9004,-3.1845,-1.5037
8791.1,-5.2483,-6.9004,-1.1845,-2.5037
8801.0,-3.2483,-6.9004,-0.18447,-3.5037
8810.8,0.75166,-4.9004,0.81553,-2.5037
8820.7,1.7517,-5.9004,1.8155,-4.5037
8830.6,4.7517,-3.9004,1.8155,-2.5037
8840.5,5.7517,-3.9004,0.81553,-2.5037
8850.4,7.7517,-3.9004,3.8155,-3.5037
8860.3,8.7517,-2.9004,3.8155,-3.5037
8870.2,8.7517,-2.9004,3.8155,-2.5037
8880.0,9.7517,-2.9004,3.8155,-1.5037
8889.9,12.752,-1.9004,4.8155,-2.5037
8899.8,12.752,-1.9004,6.8155,-3.5037
8909.7,14.752,-1.9004,3.8155,-2.5037
8919.6,14.752,-1.9004,4.8155,-2.5037
8929.5,9.7517,-3.9004,3.8155,-1.5037
8939.4,9.7517,-3.9004,3.8155,-2.5037
8949.2,14.752,-1.9004,5.8155,-0.50366
8959.1,14.752,-1.9004,4.8155,-0.50366
8969.0,13.752,-1.9004,4.8155,-0.50366
8978.9,13.752,-1.9004,4.8155,-1.5037
8988.8,9.7517,-3.9004,6.8155,-1.5037
8998.7,9.7517,-3.9004,4.8155,-0.50366
9008.6,9.7517,-4.9004,4.8155,-0.50366
9018.4,9.7517,-4.9004,5.8155,-1.5037
9028.3,6.7517,-6.9004,4.8155,-0.50366
9038.2,6.7517,-6.9004,4.8155,-2.5037
9048.1,3.7517,-7.9004,4.8155,-2.5037
9058.0,3.7517,-7.9004,2.8155,-2.5037
9067.9,-0.24834,-8.9004,4.8155,-2.5037
9077.8,-0.24834,-8.9004,3.8155,-2.5037
9087.6,-2.2483,-9.9004,2.8155,-3.5037
9097.5,-4.2483,-11.9,1.8155,-3.5037
9107.4,-6.2483,-12.9,2.8155,-3.5037
9117.3,-8.2483,-14.9,2.8155,-2.5037
9127.2,-11.248,-16.9,1.8155,-1.5037
9137.1,-14.248,-17.9,1.8155,-3.5037
9147.0,-15.248,-18.9,0.81553,-3.5037
9156.8,-19.248,-19.9,1.8155,-3.5037
9166.7,-22.248,-21.9,-0.18447,-3.5037
9176.6,-24.248,-22.9,-0.18447,-3.5037
9186.5,-27.248,-24.9,-0.18447,-3.5037
9196.4,-28.248,-24.9,0.81553,-3.5037
9206.3,-31.248,-25.9,-1.1845,-4.5037
9216.2,-32.248,-26.9,-2.1845,-4.5037
9226.0,-35.248,-27.9,-2.1845,-4.5037
9235.9,-38.248,-27.9,-2.1845,-5.5037
9245.8,-40.248,-29.9,-5.1845,-5.5037
9255.7,-42.248,-30.9,-5.1845,-6.5037
9265.6,-43.248,-32.9,-4.1845,-6.5037
9275.5,-44.248,-30.9,-6.1845,-6.5037
9285.4,-47.248,-32.9,-6.1845,-6.5037
9295.2,-48.248,-32.9,-7.1845,-6.5037
9305.1,-49.248,-33.9,-9.1845,-7.5037
9315.0,-52.248,-36.9,-8.1845,-7.5037
9324.9,-53.248,-35.9,-10.184,-7.5037
9334.8,-56.248,-35.9,-9.1845,-8.5037
9344.7,-59.248,-37.9,-12.184,-9.5037
9354.6,-63.248,-39.9,-10.184,-8.5037
9364.4,-65.248,-40.9,-11.184,-7.5037
9374.3,-67.248,-41.9,-10.184,-8.5037
9384.2,-68.248,-42.9,-12.184,-8.5037
9394.1,-69.248,-42.9,-13.184,-8.5037
9404.0,-69.248,-40.9,-12.184,-7.5037
9413.9,-62.248,-36.9,-11.184,-5.5037
9423.8,-56.248,-33.9,-12.184,-9.5037
9433.6,-53.248,-30.9,-12.184,-8.5037
9443.5,-48.248,-26.9,-14.184,-10.504
9453.4,-42.248,-23.9,-13.184,-8.5037
9463.3,-37.248,-20.9,-13.184,-7.5037
9473.2,-31.248,-18.9,-10.184,-7.5037
9483.1,-26.248,-15.9,-8.1845,-6.5037
9493.0,-21.248,-14.9,-5.1845,-4.5037
9502.8,-15.248,-10.9,-4.1845,-4.5037
9512.7,-9.2483,-9.9004,-1.1845,-4.5037
9522.6,-6.2483,-7.9004,-1.1845,-4.5037
9532.5,-0.24834,-5.9004,1.8155,-4.5037
9542.4,4.7517,-3.9004,1.8155,-4.5037
9552.3,8.7517,-2.9004,1.8155,-5.5037
9562.2,12.752,-0.90042,1.8155,-5.5037
9572.0,12.752,0.099585,4.8155,-5.5037
9581.9,15.752,1.0996,4.8155,-5.5037
9591.8,18.752,2.0996,5.8155,-4.5037
9601.7,19.752,2.0996,5.8155,-4.5037
9611.6,22.752,3.0996,6.8155,-3.5037
9621.5,25.752,4.0996,6.8155,-3.5037
9631.4,25.752,4.0996,6.8155,-4.5037
9641.2,24.752,4.0996,6.8155,-4.5037
9651.1,22.752,1.0996,6.8155,-5.5037
9661.0,20.752,1.0996,6.8155,-5.5037
9670.9,20.752,2.0996,6.8155,-4.5037
9680.8,22.752,1.0996,6.8155,-4.5037
9690.7,21.752,0.099585,6.8155,-3.5037
9700.6,21.752,1.0996,6.8155,-3.5037
9710.4,21.752,2.0996,7.8155,-3.5037
9720.3,18.752,0.099585,7.8155,-3.5037
9730.2,16.752,-0.90042,5.8155,-4.5037
9740.1,16.752,-2.9004,5.8155,-4.5037
9750.0,14.752,-2.9004,5.8155,-4.5037
9759.9,12.752,-3.9004,3.8155,-5.5037
9769.8,11.752,-4.9004,0.81553,-4.5037
9779.6,9.7517,-5.9004,4.8155,-6.5037
9789.5,9.7517,-5.9004,2.8155,-4.5037
9799.4,5.7517,-8.9004,2.8155,-4.5037
9809.3,5.7517,-8.9004,1.8155,-5.5037
9819.2,3.7517,-10.9,2.8155,-7.5037
9829.1,3.7517,-10.9,0.81553,-6.5037
9839.0,-1.2483,-11.9,-0.18447,-8.5037
9848.8,-1.2483,-11.9,-1.1845,-8.5037
9858.7,-7.2483,-14.9,-2.1845,-9.5037
9868.6,-7.2483,-14.9,-4.1845,-9.5037
9878.5,-10.248,-16.9,-4.1845,-9.5037
9888.4,-10.248,-16.9,-3.1845,-9.5037
9898.3,-13.248,-17.9,-4.1845,-10.504
9908.2,-13.248,-17.9,-5.1845,-9.5037
9918.0,-18.248,-20.9,-5.1845,-10.504
9927.9,-18.248,-20.9,-6.1845,-9.5037
9937.8,-26.248,-22.9,-7.1845,-9.5037
9947.7,-26.248,-22.9,-4.1845,-9.5037
9957.6,-35.248,-27.9,-6.1845,-10.504
9967.5,-35.248,-27.9,-6.1845,-9.5037
9977.4,-38.248,-28.9,-6.1845,-10.504
9987.2,-38.248,-29.9,-7.1845,-9.5037
9997.1,-42.248,-29.9,-8.1845,-9.5037
10007.0,-42.248,-31.9,-7.1845,-11.504
10017.0,-44.248,-31.9,-8.1845,-11.504
10027.0,-44.248,-30.9,-10.184,-11.504
10037.0,-46.248,-31.9,-12.184,-10.504
10047.0,-46.248,-31.9,-12.184,-12.504
10056.0,-49.248,-31.9,-12.184,-12.504
10066.0,-53.248,-33.9,-14.184,-12.504
10076.0,-53.248,-34.9,-13.184,-11.504
10086.0,-55.248,-35.9,-13.184,-11.504
10096.0,-55.248,-34.9,-16.184,-12.504
10106.0,-55.248,-35.9,-15.184,-11.504
10116.0,-53.248,-34.9,-16.184,-12.504
10126.0,-50.248,-30.9,-16.184,-13.504
10136.0,-44.248,-26.9,-18.184,-13.504
10145.0,-39.248,-22.9,-16.184,-13.504
10155.0,-34.248,-20.9,-19.184,-14.504
10165.0,-31.248,-17.9,-21.184,-13.504
10175.0,-25.248,-15.9,-20.184,-12.504
10185.0,-21.248,-11.9,-17.184,-11.504
10195.0,-14.248,-9.9004,-13.184,-9.5037
10205.0,-7.2483,-6.9004,-8.1845,-8.5037
10215.0,-4.2483,-4.9004,-5.1845,-8.5037
10225.0,-1.2483,-3.9004,-4.1845,-7.5037
10234.0,4.7517,-1.9004,-2.1845,-8.5037
10244.0,8.7517,1.0996,-1.1845,-8.5037
10254.0,11.752,1.0996,-2.1845,-10.504
10264.0,16.752,3.0996,-2.1845,-9.5037
10274.0,19.752,5.0996,-2.1845,-10.504
10284.0,22.752,6.0996,-0.18447,-8.5037
10294.0,25.752,7.0996,-1.1845,-8.5037
10304.0,27.752,9.0996,-0.18447,-9.5037
10314.0,30.752,9.0996,0.81553,-9.5037
10323.0,32.752,10.1,0.81553,-8.5037
10333.0,34.752,9.0996,-0.18447,-9.5037
10343.0,35.752,10.1,0.81553,-7.5037
10353.0,33.752,9.0996,0.81553,-8.5037
10363.0,30.752,8.0996,1.8155,-8.5037
10373.0,31.752,8.0996,0.81553,-7.5037
10383.0,33.752,7.0996,1.8155,-8.5037
10393.0,37.752,10.1,3.8155,-6.5037
10402.0,35.752,8.0996,3.8155,-7.5037
10412.0,34.752,9.0996,2.8155,-5.5037
10422.0,38.752,10.1,2.8155,-5.5037
10432.0,35.752,10.1,0.81553,-6.5037
10442.0,34.752,9.0996,1.8155,-7.5037
10452.0,33.752,9.0996,2.8155,-6.5037
10462.0,33.752,8.0996,2.8155,-6.5037
10472.0,34.752,8.0996,4.8155,-5.5037
10482.0,34.752,9.0996,0.81553,-6.5037
10491.0,31.752,7.0996,0.81553,-5.5037
10501.0,31.752,7.0996,3.8155,-6.5037
10511.0,30.752,8.0996,0.81553,-7.5037
10521.0,30.752,7.0996,-0.18447,-7.5037
10531.0,27.752,5.0996,-0.18447,-6.5037
10541.0,25.752,4.0996,0.81553,-5.5037
10551.0,23.752,3.0996,-0.18447,-6.5037
10561.0,22.752,2.0996,1.8155,-5.5037
10571.0,20.752,3.0996,1.8155,-5.5037
10580.0,18.752,2.0996,1.8155,-5.5037
10590.0,16.752,1.0996,1.8155,-5.5037
10600.0,15.752,0.099585,1.8155,-6.5037
10610.0,14.752,-0.90042,1.8155,-6.5037
10620.0,12.752,-1.9004,1.8155,-4.5037
10630.0,10.752,-2.9004,1.8155,-4.5037
10640.0,8.7517,-2.9004,0.81553,-5.5037
10650.0,5.7517,-3.9004,0.81553,-5.5037
10660.0,4.7517,-4.9004,0.81553,-4.5037
10669.0,4.7517,-6.9004,0.81553,-4.5037
10679.0,4.7517,-6.9004,-1.1845,-5.5037
10689.0,-1.2483,-6.9004,-1.1845,-5.5037
10699.0,-1.2483,-6.9004,-2.1845,-4.5037
10709.0,-5.2483,-8.9004,-2.1845,-4.5037
10719.0,-5.2483,-8.9004,-3.1845,-4.5037
10729.0,-8.2483,-10.9,-3.1845,-4.5037
10739.0,-8.2483,-10.9,-2.1845,-3.5037
10748.0,-10.248,-10.9,-2.1845,-3.5037
10758.0,-10.248,-10.9,-1.1845,-3.5037
10768.0,-16.248,-13.9,-1.1845,-3.5037
10778.0,-16.248,-13.9,-6.1845,-4.5037
10788.0,-17.248,-12.9,-6.1845,-4.5037
10798.0,-17.248,-12.9,-1.1845,-4.5037
10808.0,-20.248,-13.9,-1.1845,-4.5037
10818.0,-20.248,-13.9,-4.1845,-4.5037
10828.0,-15.248,-9.9004,-4.1845,-4.5037
10837.0,-15.248,-9.9004,-3.1845,-4.5037
10847.0,-8.2483,-3.9004,-4.1845,-3.5037
10857.0,-2.2483,-0.90042,-4.1845,-2.5037
10867.0,3.7517,3.0996,-5.1845,-3.5037
10877.0,10.752,8.0996,-5.1845,-4.5037
10887.0,17.752,11.1,-4.1845,-2.5037
10897.0,22.752,15.1,-2.1845,-0.50366
10907.0,26.752,16.1,2.8155,-0.50366
10917.0,33.752,20.1,3.8155,1.4963
10926.0,39.752,21.1,7.8155,1.4963
10936.0,45.752,24.1,8.8155,2.4963
10946.0,50.752,28.1,8.8155,2.4963
10956.0,53.752,28.1,11.816,2.4963
10966.0,56.752,28.1,11.816,3.4963
10976.0,56.752,29.1,13.816,2.4963
10986.0,59.752,30.1,12.816,2.4963
10996.0,59.752,30.1,13.816,4.4963
11006.0,59.752,30.1,15.816,3.4963
11015.0,62.752,30.1,15.816,2.4963
11025.0,63.752,31.1,16.816,5.4963
11035.0,63.752,31.1,17.816,4.4963
11045.0,63.752,32.1,15.816,4.4963
11055.0,64.752,31.1,13.816,4.4963
11065.0,63.752,29.1,12.816,3.4963
11075.0,60.752,29.1,13.816,3.4963
11085.0,62.752,30.1,12.816,4.4963
11094.0,64.752,31.1,12.816,3.4963
11104.0,63.752,31.1,14.816,5.4963
11114.0,63.752,30.1,13.816,4.4963
11124.0,64.752,31.1,12.816,4.4963
11134.0,63.752,30.1,10.816,3.4963
11144.0,62.752,29.1,11.816,2.4963
11154.0,58.752,29.1,10.816,3.4963
11164.0,59.752,28.1,8.8155,4.4963
11174.0,57.752,27.1,8.8155,2.4963
11183.0,57.752,27.1,9.8155,3.4963
11193.0,54.752,25.1,8.8155,3.4963
11203.0,55.752,25.1,8.8155,5.4963
11213.0,50.752,25.1,9.8155,6.4963
11223.0,50.752,24.1,9.8155,4.4963
11233.0,51.752,23.1,12.816,5.4963
11243.0,47.752,22.1,12.816,5.4963
11253.0,46.752,20.1,11.816,6.4963
11263.0,45.752,19.1,12.816,6.4963
11272.0,42.752,18.1,10.816,6.4963
11282.0,40.752,18.1,11.816,6.4963
11292.0,39.752,17.1,13.816,5.4963
11302.0,36.752,16.1,12.816,5.4963
11312.0,33.752,13.1,11.816,6.4963
11322.0,32.752,12.1,10.816,5.4963
11332.0,28.752,12.1,10.816,4.4963
11342.0,25.752,9.0996,7.8155,4.4963
11352.0,23.752,9.0996,8.8155,5.4963
11361.0,22.752,8.0996,8.8155,4.4963
11371.0,20.752,7.0996,8.8155,4.4963
11381.0,17.752,7.0996,5.8155,3.4963
11391.0,14.752,5.0996,6.8155,4.4963
11401.0,14.752,3.0996,7.8155,5.4963
11411.0,10.752,2.0996,8.8155,4.4963
11421.0,7.7517,1.0996,8.8155,4.4963
11431.0,4.7517,0.099585,7.8155,5.4963
11440.0,0.75166,-1.9004,5.8155,5.4963
11450.0,-3.2483,-2.9004,6.8155,4.4963
11460.0,-7.2483,-4.9004,6.8155,4.4963
11470.0,-8.2483,-3.9004,5.8155,4.4963
11480.0,-10.248,-5.9004,4.8155,4.4963
11490.0,-10.248,-4.9004,3.8155,3.4963
11500.0,-11.248,-4.9004,4.8155,4.4963
11510.0,-8.2483,-2.9004,5.8155,2.4963
11520.0,-4.2483,-0.90042,4.8155,3.4963
11529.0,0.75166,3.0996,2.8155,3.4963
11539.0,5.7517,6.0996,2.8155,4.4963
11549.0,5.7517,6.0996,2.8155,2.4963
11559.0,13.752,9.0996,3.8155,4.4963
11569.0,13.752,9.0996,3.8155,4.4963
11579.0,20.752,13.1,6.8155,6.4963
11589.0,20.752,13.1,10.816,6.4963
11599.0,27.752,16.1,13.816,8.4963
11609.0,27.752,16.1,17.816,8.4963
11618.0,35.752,18.1,18.816,9.4963
11628.0,35.752,18.1,17.816,8.4963
11638.0,37.752,19.1,20.816,8.4963
11648.0,37.752,19.1,19.816,8.4963
11658.0,40.752,18.1,20.816,7.4963
11668.0,40.752,18.1,23.816,9.4963
11678.0,40.752,19.1,23.816,8.4963
11688.0,40.752,19.1,23.816,9.4963
11698.0,39.752,19.1,23.816,9.4963
11707.0,39.752,19.1,24.816,8.4963
11717.0,42.752,17.1,24.816,8.4963
11727.0,39.752,17.1,21.816,7.4963
11737.0,37.752,14.1,21.816,7.4963
11747.0,33.752,12.1,21.816,8.4963
11757.0,32.752,10.1,21.816,8.4963
11767.0,34.752,12.1,22.816,9.4963
11777.0,32.752,10.1,22.816,9.4963
11786.0,31.752,9.0996,23.816,9.4963
11796.0,29.752,10.1,23.816,9.4963
11806.0,29.752,9.0996,20.816,8.4963
11816.0,25.752,7.0996,20.816,8.4963
11826.0,22.752,6.0996,20.816,8.4963
11836.0,21.752,5.0996,20.816,8.4963
11846.0,22.752,5.0996,22.816,8.4963
11856.0,23.752,5.0996,22.816,8.4963
11866.0,23.752,5.0996,23.816,8.4963
11875.0,21.752,6.0996,23.816,8.4963
11885.0,20.752,3.0996,23.816,9.4963
11895.0,20.752,4.0996,23.816,9.4963
11905.0,19.752,2.0996,23.816,9.4963
11915.0,16.752,0.099585,22.816,9.4963
11925.0,13.752,-0.90042,21.816,8.4963
11935.0,12.752,-1.9004,22.816,8.4963
11945.0,9.7517,-3.9004,22.816,8.4963
11955.0,6.7517,-2.9004,23.816,7.4963
11964.0,6.7517,-4.9004,22.816,9.4963
11974.0,4.7517,-4.9004,22.816,8.4963
11984.0,1.7517,-6.9004,22.816,8.4963
11994.0,-1.2483,-8.9004,20.816,7.4963
12004.0,-3.2483,-10.9,20.816,7.4963
12014.0,-7.2483,-10.9,19.816,8.4963
12024.0,-9.2483,-12.9,19.816,6.4963
12034.0,-11.248,-13.9,20.816,7.4963
12044.0,-17.248,-15.9,18.816,7.4963
12053.0,-20.248,-18.9,15.816,6.4963
12063.0,-22.248,-17.9,16.816,6.4963
12073.0,-25.248,-19.9,12.816,4.4963
12083.0,-28.248,-21.9,13.816,5.4963
12093.0,-31.248,-22.9,15.816,5.4963
12103.0,-33.248,-23.9,14.816,5.4963
12113.0,-37.248,-25.9,13.816,5.4963
12123.0,-44.248,-28.9,12.816,5.4963
12132.0,-46.248,-29.9,13.816,6.4963
12142.0,-48.248,-31.9,13.816,5.4963
12152.0,-53.248,-33.9,12.816,4.4963
12162.0,-54.248,-32.9,12.816,4.4963
12172.0,-50.248,-29.9,11.816,4.4963
12182.0,-44.248,-26.9,9.8155,5.4963
12192.0,-40.248,-23.9,9.8155,3.4963
12202.0,-36.248,-21.9,8.8155,4.4963
12212.0,-31.248,-18.9,8.8155,4.4963
12221.0,-28.248,-15.9,8.8155,4.4963
12231.0,-24.248,-14.9,10.816,3.4963
12241.0,-21.248,-14.9,12.816,4.4963
12251.0,-17.248,-12.9,15.816,6.4963
12261.0,-15.248,-11.9,20.816,7.4963
12271.0,-13.248,-10.9,20.816,8.4963
12281.0,-10.248,-9.9004,23.816,8.4963
12291.0,-6.2483,-8.9004,25.816,9.4963
12301.0,-3.2483,-7.9004,25.816,8.4963
12310.0,-0.24834,-7.9004,28.816,9.4963
12320.0,-0.24834,-7.9004,27.816,8.4963
12330.0,3.7517,-6.9004,31.816,9.4963
12340.0,3.7517,-6.9004,29.816,10.496
12350.0,3.7517,-6.9004,31.816,9.4963
12360.0,5.7517,-6.9004,33.816,9.4963
12370.0,7.7517,-5.9004,31.816,9.4963
12380.0,9.7517,-6.9004,33.816,9.4963
12390.0,9.7517,-5.9004,33.816,7.4963
12399.0,7.7517,-6.9004,31.816,9.4963
12409.0,4.7517,-9.9004,31.816,8.4963
12419.0,2.7517,-10.9,29.816,8.4963
12429.0,1.7517,-11.9,31.816,8.4963
12439.0,1.7517,-11.9,31.816,8.4963
12449.0,3.7517,-11.9,32.816,8.4963
12459.0,3.7517,-11.9,31.816,8.4963
12469.0,6.7517,-11.9,28.816,7.4963
12478.0,6.7517,-11.9,30.816,7.4963
12488.0,2.7517,-13.9,29.816,6.4963
12498.0,2.7517,-13.9,27.816,6.4963
12508.0,1.7517,-13.9,28.816,6.4963
12518.0,1.7517,-13.9,27.816,7.4963
12528.0,1.7517,-14.9,27.816,7.4963
12538.0,1.7517,-14.9,28.816,6.4963
12548.0,1.7517,-14.9,27.816,5.4963
12558.0,1.7517,-14.9,27.816,6.4963
12567.0,-0.24834,-15.9,26.816,6.4963
12577.0,-0.24834,-15.9,24.816,4.4963
12587.0,-2.2483,-16.9,25.816,6.4963
12597.0,-2.2483,-16.9,25.816,3.4963
12607.0,-3.2483,-16.9,24.816,4.4963
12617.0,-1.2483,-17.9,23.816,4.4963
12627.0,-3.2483,-18.9,23.816,4.4963
12637.0,-6.2483,-19.9,23.816,2.4963
12647.0,-7.2483,-18.9,25.816,3.4963
12656.0,-8.2483,-19.9,23.816,2.4963
12666.0,-10.248,-20.9,21.816,3.4963
12676.0,-11.248,-20.9,21.816,2.4963
12686.0,-13.248,-23.9,21.816,3.4963
12696.0,-14.248,-24.9,19.816,2.4963
12706.0,-16.248,-24.9,21.816,1.4963
12716.0,-18.248,-24.9,21.816,2.4963
12726.0,-19.248,-25.9,18.816,2.4963
12736.0,-20.248,-25.9,16.816,1.4963
12745.0,-23.248,-28.9,16.816,-0.50366
12755.0,-23.248,-26.9,15.816,-0.50366
12765.0,-28.248,-28.9,14.816,-0.50366
12775.0,-28.248,-28.9,12.816,-0.50366
12785.0,-29.248,-29.9,13.816,-0.50366
12795.0,-32.248,-30.9,13.816,-1.5037
12805.0,-34.248,-32.9,12.816,-0.50366
12815.0,-38.248,-34.9,13.816,-1.5037
12824.0,-39.248,-33.9,13.816,-1.5037
12834.0,-40.248,-34.9,7.8155,-3.5037
12844.0,-40.248,-35.9,7.8155,-3.5037
12854.0,-39.248,-32.9,9.8155,-2.5037
12864.0,-33.248,-30.9,9.8155,-2.5037
12874.0,-29.248,-27.9,7.8155,-2.5037
12884.0,-25.248,-23.9,7.8155,-2.5037
12894.0,-19.248,-19.9,5.8155,-3.5037
12904.0,-12.248,-16.9,5.8155,-3.5037
12913.0,-8.2483,-15.9,6.8155,-3.5037
12923.0,-5.2483,-13.9,6.8155,-3.5037
12933.0,0.75166,-11.9,13.816,-0.50366
12943.0,3.7517,-9.9004,13.816,-0.50366
12953.0,7.7517,-7.9004,17.816,0.49634
12963.0,13.752,-6.9004,17.816,0.49634
12973.0,17.752,-4.9004,19.816,1.4963
12983.0,21.752,-3.9004,19.816,1.4963
12993.0,23.752,-1.9004,22.816,0.49634
13002.0,28.752,-1.9004,22.816,0.49634
13012.0,29.752,-0.90042,22.816,-0.50366
13022.0,34.752,1.0996,22.816,-0.50366
13032.0,36.752,2.0996,23.816,-0.50366
13042.0,38.752,2.0996,23.816,-0.50366
13052.0,41.752,4.0996,23.816,0.49634
13062.0,42.752,3.0996,23.816,-0.50366
13072.0,44.752,4.0996,23.816,-0.50366
13081.0,46.752,5.0996,23.816,-2.5037
13091.0,43.752,3.0996,22.816,0.49634
13101.0,41.752,1.0996,25.816,-0.50366
13111.0,41.752,1.0996,22.816,1.4963
13121.0,40.752,2.0996,24.816,0.49634
13131.0,43.752,2.0996,24.816,1.4963
13141.0,40.752,0.099585,25.816,0.49634
13151.0,43.752,2.0996,24.816,2.4963
13161.0,40.752,1.0996,24.816,0.49634
13170.0,39.752,-0.90042,25.816,0.49634
13180.0,39.752,-0.90042,24.816,0.49634
13190.0,38.752,-1.9004,22.816,0.49634
13200.0,36.752,-2.9004,21.816,1.4963
13210.0,36.752,-3.9004,22.816,1.4963
13220.0,35.752,-4.9004,23.816,0.49634
13230.0,32.752,-4.9004,20.816,-0.50366
13240.0,33.752,-5.9004,20.816,-0.50366
13250.0,31.752,-6.9004,20.816,-0.50366
13259.0,29.752,-7.9004,19.816,-0.50366
13269.0,29.752,-6.9004,20.816,-1.5037
13279.0,26.752,-7.9004,19.816,-0.50366
13289.0,24.752,-9.9004,17.816,-2.5037
13299.0,26.752,-10.9,19.816,-0.50366
13309.0,23.752,-9.9004,19.816,-2.5037
13319.0,22.752,-10.9,18.816,-1.5037
13329.0,22.752,-10.9,18.816,-0.50366
13339.0,21.752,-13.9,16.816,-1.5037
13348.0,21.752,-13.9,16.816,-1.5037
13358.0,17.752,-13.9,16.816,-1.5037
13368.0,17.752,-13.9,18.816,-1.5037
13378.0,15.752,-14.9,17.816,-0.50366
13388.0,15.752,-14.9,18.816,-1.5037
13398.0,10.752,-15.9,17.816,-1.5037
13408.0,10.752,-15.9,18.816,-0.50366
13418.0,7.7517,-17.9,16.816,-0.50366
13427.0,7.7517,-17.9,16.816,-0.50366
13437.0,3.7517,-18.9,17.816,0.49634
13447.0,3.7517,-18.9,15.816,-0.50366
13457.0,-0.24834,-20.9,13.816,-2.5037
13467.0,-0.24834,-20.9,13.816,-2.5037
13477.0,-2.2483,-21.9,11.816,-1.5037
13487.0,-2.2483,-21.9,12.816,-1.5037
13497.0,-3.2483,-23.9,10.816,-2.5037
13507.0,-4.2483,-22.9,11.816,-1.5037
13516.0,-6.2483,-23.9,10.816,-2.5037
13526.0,-11.248,-25.9,10.816,-2.5037
13536.0,-15.248,-27.9,9.8155,-2.5037
13546.0,-17.248,-27.9,10.816,-2.5037
13556.0,-17.248,-27.9,9.8155,-2.5037
13566.0,-17.248,-28.9,8.8155,-2.5037
13576.0,-18.248,-26.9,6.8155,-3.5037
13586.0,-12.248,-24.9,7.8155,-3.5037
13596.0,-6.2483,-18.9,7.8155,-2.5037
13605.0,1.7517,-15.9,5.8155,-4.5037
13615.0,6.7517,-12.9,5.8155,-4.5037
13625.0,11.752,-7.9004,6.8155,-4.5037
13635.0,17.752,-5.9004,7.8155,-3.5037
13645.0,22.752,-2.9004,8.8155,-1.5037
13655.0,26.752,-0.90042,11.816,-0.50366
13665.0,33.752,3.0996,13.816,0.49634
13675.0,38.752,5.0996,18.816,1.4963
13685.0,44.752,8.0996,21.816,1.4963
13694.0,48.752,9.0996,21.816,2.4963
13704.0,55.752,12.1,23.816,4.4963
13714.0,57.752,13.1,23.816,2.4963
13724.0,62.752,14.1,24.816,2.4963
13734.0,66.752,18.1,24.816,2.4963
13744.0,70.752,18.1,25.816,1.4963
13754.0,72.752,19.1,23.816,3.4963
13764.0,75.752,21.1,25.816,2.4963
13773.0,79.752,22.1,25.816,3.4963
13783.0,81.752,23.1,28.816,3.4963
13793.0,83.752,24.1,28.816,3.4963
13803.0,85.752,24.1,25.816,3.4963
13813.0,86.752,23.1,26.816,4.4963
13823.0,84.752,23.1,28.816,5.4963
13833.0,83.752,22.1,26.816,4.4963
13843.0,85.752,24.1,28.816,4.4963
13853.0,90.752,25.1,28.816,4.4963
13862.0,88.752,24.1,28.816,6.4963
13872.0,90.752,25.1,28.816,6.4963
13882.0,91.752,26.1,27.816,4.4963
13892.0,90.752,26.1,27.816,4.4963
13902.0,92.752,27.1,28.816,4.4963
13912.0,91.752,26.1,28.816,4.4963
13922.0,93.752,28.1,24.816,3.4963
13932.0,93.752,28.1,24.816,3.4963
13942.0,94.752,28.1,27.816,5.4963
13951.0,93.752,28.1,27.816,5.4963
13961.0,94.752,29.1,28.816,5.4963
13971.0,94.752,29.1,28.816,5.4963
13981.0,94.752,28.1,27.816,5.4963
13991.0,95.752,30.1,27.816,5.4963
14001.0,95.752,29.1,25.816,5.4963
14011.0,93.752,29.1,25.816,5.4963
14021.0,92.752,28.1,26.816,6.4963
14031.0,92.752,29.1,26.816,6.4963
14040.0,91.752,27.1,27.816,6.4963
14050.0,90.752,27.1,27.816,6.4963
14060.0,89.752,26.1,25.816,5.4963
14070.0,88.752,26.1,25.816,5.4963
14080.0,86.752,26.1,23.816,4.4963
14090.0,85.752,25.1,23.816,4.4963
14100.0,84.752,25.1,23.816,4.4963
14110.0,82.752,23.1,22.816,5.4963
14119.0,78.752,23.1,21.816,5.4963
14129.0,79.752,23.1,21.816,5.4963
14139.0,75.752,22.1,20.816,4.4963
14149.0,75.752,21.1,19.816,3.4963
14159.0,73.752,21.1,17.816,4.4963
14169.0,69.752,19.1,18.816,4.4963
14179.0,69.752,19.1,18.816,4.4963
14189.0,67.752,19.1,18.816,3.4963
14199.0,67.752,19.1,17.816,4.4963
14208.0,64.752,18.1,17.816,2.4963
14218.0,64.752,18.1,17.816,5.4963
14228.0,63.752,16.1,16.816,4.4963
14238.0,63.752,16.1,17.816,3.4963
14248.0,56.752,15.1,14.816,3.4963
14258.0,56.752,15.1,11.816,1.4963
14268.0,52.752,14.1,11.816,2.4963
14278.0,52.752,14.1,13.816,3.4963
14288.0,50.752,12.1,10.816,1.4963
14297.0,50.752,12.1,10.816,1.4963
14307.0,43.752,9.0996,6.8155,2.4963
14317.0,43.752,9.0996,7.8155,-0.50366
14327.0,37.752,8.0996,6.8155,0.49634
14337.0,37.752,8.0996,5.8155,-0.50366
14347.0,37.752,7.0996,4.8155,-1.5037
14357.0,37.752,7.0996,2.8155,-2.5037
14367.0,43.752,13.1,1.8155,-1.5037
14377.0,43.752,13.1,1.8155,-3.5037
14386.0,49.752,17.1,-0.18447,-3.5037
14396.0,56.752,22.1,1.8155,-2.5037
14406.0,60.752,25.1,0.81553,-1.5037
14416.0,70.752,30.1,0.81553,-2.5037
14426.0,75.752,31.1,-0.18447,-0.50366
14436.0,81.752,35.1,0.81553,0.49634
14446.0,84.752,37.1,5.8155,1.4963
14456.0,92.752,40.1,9.8155,2.4963
14465.0,98.752,45.1,12.816,2.4963
14475.0,104.75,45.1,12.816,4.4963
14485.0,106.75,48.1,14.816,4.4963
14495.0,111.75,49.1,14.816,4.4963
14505.0,115.75,50.1,16.816,3.4963
14515.0,117.75,51.1,18.816,4.4963
14525.0,117.75,51.1,18.816,2.4963
14535.0,120.75,53.1,19.816,4.4963
14545.0,123.75,55.1,18.816,3.4963
14554.0,124.75,55.1,18.816,3.4963
14564.0,127.75,57.1,18.816,2.4963
14574.0,128.75,56.1,17.816,3.4963
14584.0,130.75,57.1,17.816,3.4963
14594.0,129.75,56.1,16.816,2.4963
14604.0,127.75,54.1,17.816,3.4963
14614.0,126.75,54.1,13.816,2.4963
14624.0,127.75,55.1,14.816,3.4963
14634.0,127.75,55.1,16.816,4.4963
14643.0,127.75,54.1,15.816,3.4963
14653.0,126.75,54.1,16.816,2.4963
14663.0,128.75,55.1,15.816,3.4963
14673.0,126.75,57.1,16.816,3.4963
14683.0,126.75,53.1,14.816,2.4963
14693.0,123.75,53.1,16.816,2.4963
14703.0,123.75,52.1,15.816,3.4963
14713.0,121.75,51.1,15.816,3.4963
14723.0,117.75,50.1,16.816,4.4963
14732.0,117.75,49.1,15.816,2.4963
14742.0,115.75,47.1,15.816,3.4963
14752.0,114.75,47.1,14.816,2.4963
14762.0,112.75,46.1,13.816,3.4963
14772.0,110.75,44.1,13.816,1.4963
14782.0,106.75,43.1,13.816,3.4963
14792.0,105.75,42.1,13.816,2.4963
14802.0,102.75,40.1,13.816,2.4963
14811.0,100.75,38.1,12.816,2.4963
14821.0,97.752,37.1,14.816,2.4963
14831.0,94.752,36.1,12.816,3.4963
14841.0,93.752,35.1,12.816,2.4963
14851.0,90.752,34.1,12.816,2.4963
14861.0,85.752,31.1,12.816,2.4963
14871.0,82.752,31.1,10.816,1.4963
14881.0,79.752,29.1,8.8155,1.4963
14891.0,76.752,27.1,8.8155,0.49634
14900.0,74.752,26.1,8.8155,0.49634
14910.0,72.752,26.1,7.8155,0.49634
14920.0,69.752,25.1,7.8155,0.49634
14930.0,67.752,23.1,5.8155,0.49634
14940.0,65.752,23.1,5.8155,0.49634
14950.0,61.752,21.1,3.8155,0.49634
14960.0,57.752,20.1,3.8155,0.49634
14970.0,55.752,19.1,4.8155,-0.50366
14980.0,53.752,18.1,4.8155,-0.50366
14989.0,52.752,17.1,5.8155,0.49634
14999.0,48.752,16.1,5.8155,0.49634
15009.0,47.752,14.1,3.8155,-0.50366
15019.0,44.752,14.1,3.8155,-0.50366
15029.0,41.752,13.1,1.8155,0.49634
15039.0,42.752,13.1,1.8155,0.49634
15049.0,38.752,13.1,2.8155,-0.50366
15059.0,35.752,9.0996,2.8155,-0.50366
15069.0,29.752,8.0996,-0.18447,-0.50366
15078.0,28.752,6.0996,-0.18447,-0.50366
15088.0,28.752,6.0996,-2.1845,-1.5037
15098.0,26.752,5.0996,-2.1845,-1.5037
15108.0,26.752,5.0996,-4.1845,-2.5037
15118.0,24.752,6.0996,-4.1845,-2.5037
15128.0,24.752,6.0996,-3.1845,-2.5037
15138.0,34.752,12.1,-3.1845,-2.5037
15148.0,34.752,12.1,-6.1845,-2.5037
15157.0,45.752,20.1,-6.1845,-2.5037
15167.0,45.752,20.1,-7.1845,-2.5037
15177.0,54.752,25.1,-7.1845,-3.5037
15187.0,54.752,25.1,-5.1845,-1.5037
15197.0,62.752,28.1,-2.1845,-1.5037
15207.0,62.752,28.1,1.8155,0.49634
15217.0,73.752,32.1,3.8155,1.4963
15227.0,73.752,32.1,4.8155,1.4963
15237.0,80.752,35.1,7.8155,1.4963
15246.0,80.752,35.1,8.8155,0.49634
15256.0,83.752,36.1,6.8155,1.4963
15266.0,85.752,38.1,8.8155,0.49634
15276.0,88.752,38.1,5.8155,-0.50366
15286.0,91.752,37.1,8.8155,0.49634
15296.0,90.752,38.1,10.816,1.4963
15306.0,92.752,39.1,10.816,1.4963
15316.0,95.752,39.1,11.816,1.4963
15326.0,94.752,39.1,9.8155,0.49634
15335.0,98.752,39.1,10.816,0.49634
15345.0,98.752,39.1,9.8155,1.4963
15355.0,96.752,40.1,8.8155,-0.50366
15365.0,95.752,38.1,8.8155,0.49634
15375.0,93.752,36.1,6.8155,0.49634
15385.0,91.752,35.1,7.8155,0.49634
15395.0,94.752,36.1,9.8155,0.49634
15405.0,95.752,35.1,9.8155,-0.50366
15415.0,93.752,35.1,9.8155,2.4963
15424.0,95.752,37.1,7.8155,0.49634
15434.0,94.752,36.1,6.8155,-0.50366
15444.0,91.752,34.1,5.8155,-0.50366
15454.0,92.752,34.1,6.8155,0.49634
15464.0,91.752,34.1,5.8155,-1.5037
15474.0,90.752,34.1,4.8155,-1.5037
15484.0,89.752,32.1,3.8155,-0.50366
15494.0,88.752,31.1,5.8155,-0.50366
15503.0,87.752,31.1,4.8155,-0.50366
15513.0,85.752,30.1,4.8155,-0.50366
15523.0,85.752,28.1,2.8155,-1.5037
15533.0,81.752,28.1,3.8155,-1.5037
15543.0,80.752,26.1,3.8155,-2.5037
15553.0,79.752,25.1,2.8155,-2.5037
15563.0,76.752,23.1,1.8155,-2.5037
15573.0,73.752,23.1,3.8155,-1.5037
15583.0,71.752,21.1,2.8155,-2.5037
15592.0,70.752,21.1,1.8155,-1.5037
15602.0,65.752,19.1,1.8155,-1.5037
15612.0,64.752,18.1,0.81553,-3.5037
15622.0,62.752,18.1,0.81553,-3.5037
15632.0,59.752,17.1,-1.1845,-4.5037
15642.0,58.752,16.1,-2.1845,-4.5037
15652.0,57.752,13.1,-3.1845,-4.5037
15662.0,53.752,13.1,-3.1845,-4.5037
15672.0,52.752,13.1,-3.1845,-3.5037
15681.0,49.752,12.1,-4.1845,-3.5037
15691.0,47.752,11.1,-5.1845,-3.5037
15701.0,45.752,10.1,-5.1845,-4.5037
15711.0,41.752,8.0996,-4.1845,-4.5037
15721.0,39.752,7.0996,-5.1845,-4.5037
15731.0,39.752,7.0996,-7.1845,-5.5037
15741.0,35.752,6.0996,-6.1845,-5.5037
15751.0,32.752,4.0996,-9.1845,-4.5037
15761.0,29.752,4.0996,-10.184,-6.5037
15770.0,29.752,3.0996,-12.184,-6.5037
15780.0,26.752,1.0996,-11.184,-7.5037
15790.0,22.752,-0.90042,-13.184,-6.5037
15800.0,20.752,-1.9004,-11.184,-6.5037
15810.0,18.752,-1.9004,-14.184,-7.5037
15820.0,17.752,-3.9004,-14.184,-7.5037
15830.0,13.752,-3.9004,-15.184,-7.5037
15840.0,7.7517,-6.9004,-16.184,-8.5037
15849.0,4.7517,-8.9004,-17.184,-9.5037
15859.0,3.7517,-8.9004,-17.184,-9.5037
15869.0,0.75166,-8.9004,-19.184,-10.504
15879.0,-1.2483,-10.9,-18.184,-9.5037
15889.0,-2.2483,-9.9004,-22.184,-12.504
15899.0,3.7517,-6.9004,-22.184,-11.504
15909.0,6.7517,-4.9004,-24.184,-11.504
15919.0,11.752,-0.90042,-24.184,-12.504
15929.0,16.752,1.0996,-24.184,-12.504
15938.0,21.752,4.0996,-24.184,-12.504
15948.0,28.752,7.0996,-24.184,-12.504
15958.0,28.752,7.0996,-23.184,-9.5037
15968.0,33.752,10.1,-18.184,-9.5037
15978.0,33.752,10.1,-15.184,-8.5037
15988.0,42.752,13.1,-12.184,-7.5037
15998.0,42.752,13.1,-9.1845,-6.5037
16008.0,51.752,16.1,-9.1845,-6.5037
16018.0,51.752,16.1,-4.1845,-5.5037
16027.0,57.752,18.1,-4.1845,-5.5037
16037.0,57.752,18.1,-1.1845,-4.5037
16047.0,60.752,18.1,-1.1845,-4.5037
16057.0,60.752,18.1,-2.1845,-4.5037
16067.0,61.752,18.1,-2.1845,-4.5037
16077.0,61.752,18.1,-0.18447,-5.5037
16087.0,65.752,18.1,-0.18447,-5.5037
16097.0,65.752,18.1,-1.1845,-6.5037
16107.0,65.752,18.1,-1.1845,-6.5037
16116.0,65.752,18.1,-2.1845,-4.5037
16126.0,68.752,18.1,-2.1845,-4.5037
16136.0,67.752,17.1,-4.1845,-6.5037
16146.0,65.752,15.1,-4.1845,-6.5037
16156.0,60.752,13.1,-4.1845,-4.5037
16166.0,62.752,13.1,-4.1845,-4.5037
16176.0,65.752,14.1,-2.1845,-5.5037
16186.0,60.752,12.1,-2.1845,-5.5037
16195.0,59.752,10.1,-3.1845,-5.5037
16205.0,59.752,10.1,-3.1845,-5.5037
16215.0,55.752,9.0996,-2.1845,-6.5037
16225.0,54.752,7.0996,-6.1845,-5.5037
16235.0,52.752,6.0996,-3.1845,-6.5037
16245.0,50.752,5.0996,-6.1845,-5.5037
16255.0,50.752,4.0996,-5.1845,-5.5037
16265.0,48.752,3.0996,-3.1845,-5.5037
16275.0,44.752,1.0996,-2.1845,-4.5037
16284.0,41.752,1.0996,-2.1845,-5.5037
16294.0,41.752,-0.90042,-0.18447,-4.5037
16304.0,37.752,-1.9004,-3.1845,-5.5037
16314.0,35.752,-3.9004,-1.1845,-4.5037
16324.0,33.752,-4.9004,-1.1845,-4.5037
16334.0,30.752,-6.9004,-1.1845,-3.5037
16344.0,26.752,-8.9004,-2.1845,-4.5037
16354.0,24.752,-10.9,-4.1845,-3.5037
16364.0,21.752,-11.9,-1.1845,-3.5037
16373.0,17.752,-13.9,-2.1845,-3.5037
16383.0,17.752,-13.9,-4.1845,-4.5037
16393.0,13.752,-15.9,-3.1845,-4.5037
16403.0,12.752,-16.9,-4.1845,-5.5037
16413.0,9.7517,-17.9,-2.1845,-3.5037
16423.0,8.7517,-18.9,-3.1845,-4.5037
16433.0,4.7517,-21.9,-5.1845,-5.5037
16443.0,1.7517,-21.9,-5.1845,-4.5037
16453.0,-1.2483,-22.9,-6.1845,-5.5037
16462.0,-3.2483,-23.9,-7.1845,-6.5037
16472.0,-2.2483,-23.9,-8.1845,-7.5037
16482.0,-6.2483,-26.9,-7.1845,-5.5037
16492.0,-9.2483,-27.9,-7.1845,-5.5037
16502.0,-9.2483,-28.9,-6.1845,-4.5037
16512.0,-14.248,-28.9,-7.1845,-4.5037
16522.0,-16.248,-31.9,-8.1845,-5.5037
16532.0,-19.248,-30.9,-8.1845,-3.5037
16541.0,-22.248,-32.9,-6.1845,-5.5037
16551.0,-24.248,-33.9,-8.1845,-4.5037
16561.0,-26.248,-35.9,-6.1845,-4.5037
16571.0,-29.248,-35.9,-8.1845,-5.5037
16581.0,-33.248,-37.9,-9.1845,-4.5037
16591.0,-35.248,-38.9,-12.184,-7.5037
16601.0,-36.248,-39.9,-13.184,-6.5037
16611.0,-39.248,-40.9,-11.184,-6.5037
16621.0,-43.248,-41.9,-13.184,-6.5037
16630.0,-42.248,-41.9,-13.184,-6.5037
16640.0,-49.248,-44.9,-15.184,-6.5037
16650.0,-53.248,-47.9,-14.184,-6.5037
16660.0,-55.248,-48.9,-16.184,-9.5037
16670.0,-58.248,-47.9,-18.184,-7.5037
16680.0,-60.248,-49.9,-18.184,-8.5037
16690.0,-61.248,-50.9,-18.184,-6.5037
16700.0,-55.248,-47.9,-18.184,-7.5037
16710.0,-51.248,-42.9,-19.184,-8.5037
16719.0,-44.248,-38.9,-20.184,-7.5037
16729.0,-40.248,-35.9,-17.184,-8.5037
16739.0,-33.248,-29.9,-21.184,-7.5037
16749.0,-26.248,-27.9,-21.184,-7.5037
16759.0,-21.248,-24.9,-15.184,-7.5037
16769.0,-14.248,-20.9,-14.184,-4.5037
16779.0,-7.2483,-17.9,-10.184,-0.50366
16789.0,-4.2483,-16.9,-6.1845,-1.5037
16799.0,1.7517,-14.9,-2.1845,-0.50366
16808.0,7.7517,-11.9,1.8155,1.4963
16818.0,12.752,-8.9004,3.8155,0.49634
16828.0,12.752,-8.9004,4.8155,1.4963
16838.0,21.752,-6.9004,5.8155,1.4963
16848.0,21.752,-6.9004,4.8155,1.4963
16858.0,27.752,-4.9004,7.8155,1.4963
16868.0,27.752,-4.9004,6.8155,1.4963
16878.0,34.752,-1.9004,7.8155,1.4963
16887.0,34.752,-1.9004,10.816,0.49634
16897.0,39.752,-0.90042,10.816,1.4963
16907.0,39.752,-0.90042,11.816,2.4963
16917.0,46.752,1.0996,10.816,2.4963
16927.0,46.752,1.0996,11.816,2.4963
16937.0,47.752,2.0996,10.816,2.4963
16947.0,47.752,2.0996,10.816,1.4963
16957.0,44.752,1.0996,11.816,2.4963
16967.0,44.752,1.0996,10.816,1.4963
16976.0,48.752,1.0996,12.816,2.4963
16986.0,48.752,1.0996,14.816,3.4963
16996.0,48.752,1.0996,14.816,3.4963
17006.0,48.752,1.0996,13.816,3.4963
17016.0,50.752,1.0996,11.816,3.4963
17026.0,45.752,-0.90042,9.8155,1.4963
17036.0,44.752,0.099585,11.816,2.4963
17046.0,44.752,-1.9004,10.816,2.4963
17056.0,43.752,-2.9004,10.816,2.4963
17065.0,39.752,-2.9004,9.8155,2.4963
17075.0,40.752,-2.9004,9.8155,2.4963
17085.0,40.752,-3.9004,8.8155,2.4963
17095.0,40.752,-2.9004,8.8155,2.4963
17105.0,39.752,-3.9004,9.8155,2.4963
17115.0,39.752,-4.9004,9.8155,2.4963
17125.0,41.752,-5.9004,8.8155,1.4963
17135.0,36.752,-5.9004,8.8155,1.4963
17145.0,36.752,-7.9004,6.8155,0.49634
17154.0,31.752,-8.9004,6.8155,0.49634
17164.0,30.752,-8.9004,4.8155,0.49634
17174.0,25.752,-11.9,4.8155,0.49634
17184.0,21.752,-13.9,6.8155,2.4963
17194.0,18.752,-15.9,6.8155,2.4963
17204.0,14.752,-16.9,5.8155,1.4963
17214.0,10.752,-19.9,5.8155,1.4963
17224.0,7.7517,-20.9,3.8155,0.49634
17233.0,3.7517,-22.9,3.8155,0.49634
17243.0,2.7517,-23.9,1.8155,0.49634
17253.0,-0.24834,-25.9,1.8155,0.49634
17263.0,-2.2483,-25.9,1.8155,0.49634
17273.0,-5.2483,-27.9,1.8155,0.49634
17283.0,-5.2483,-26.9,1.8155,1.4963
17293.0,-5.2483,-27.9,0.81553,1.4963
17303.0,-9.2483,-28.9,-0.18447,-0.50366
17313.0,-10.248,-27.9,-1.1845,-0.50366
17322.0,-12.248,-27.9,-2.1845,-0.50366
17332.0,-13.248,-28.9,-3.1845,0.49634
17342.0,-14.248,-29.9,-5.1845,-1.5037
17352.0,-16.248,-29.9,-4.1845,0.49634
17362.0,-19.248,-31.9,-3.1845,-0.50366
17372.0,-22.248,-31.9,-4.1845,-0.50366
17382.0,-25.248,-32.9,-5.1845,-0.50366
17392.0,-28.248,-34.9,-6.1845,-0.50366
17402.0,-29.248,-34.9,-7.1845,-0.50366
17411.0,-33.248,-35.9,-7.1845,-0.50366
17421.0,-33.248,-37.9,-7.1845,-0.50366
17431.0,-36.248,-38.9,-5.1845,1.4963
17441.0,-38.248,-38.9,-6.1845,0.49634
17451.0,-41.248,-39.9,-6.1845,0.49634
17461.0,-42.248,-41.9,-4.1845,1.4963
17471.0,-48.248,-42.9,-3.1845,1.4963
17481.0,-52.248,-44.9,-5.1845,2.4963
17491.0,-53.248,-45.9,-5.1845,1.4963
17500.0,-56.248,-45.9,-5.1845,1.4963
17510.0,-56.248,-45.9,-7.1845,1.4963
17520.0,-56.248,-44.9,-7.1845,1.4963
17530.0,-52.248,-40.9,-9.1845,1.4963
17540.0,-45.248,-36.9,-8.1845,1.4963
17550.0,-38.248,-32.9,-8.1845,1.4963
17560.0,-34.248,-29.9,-10.184,1.4963
17570.0,-26.248,-24.9,-11.184,0.49634
17579.0,-20.248,-22.9,-11.184,-0.50366
17589.0,-13.248,-18.9,-11.184,-0.50366
17599.0,-8.2483,-15.9,-8.1845,0.49634
17609.0,-1.2483,-11.9,-6.1845,2.4963
17619.0,4.7517,-9.9004,-0.18447,4.4963
17629.0,8.7517,-6.9004,1.8155,5.4963
17639.0,14.752,-3.9004,4.8155,6.4963
17649.0,18.752,-2.9004,5.8155,6.4963
17659.0,23.752,-0.90042,5.8155,6.4963
17668.0,25.752,0.099585,5.8155,5.4963
17678.0,29.752,1.0996,8.8155,6.4963
17688.0,28.752,2.0996,8.8155,6.4963
17698.0,33.752,3.0996,10.816,6.4963
17708.0,34.752,2.0996,12.816,8.4963
17718.0,34.752,2.0996,13.816,7.4963
17728.0,35.752,4.0996,12.816,7.4963
17738.0,35.752,4.0996,15.816,8.4963
17748.0,39.752,4.0996,14.816,8.4963
17757.0,39.752,4.0996,13.816,8.4963
17767.0,36.752,3.0996,11.816,7.4963
17777.0,36.752,3.0996,13.816,9.4963
17787.0,35.752,1.0996,12.816,8.4963
17797.0,35.752,1.0996,13.816,8.4963
17807.0,36.752,2.0996,12.816,8.4963
17817.0,36.752,2.0996,12.816,10.496
17827.0,39.752,2.0996,10.816,8.4963
17837.0,39.752,2.0996,9.8155,8.4963
17846.0,37.752,1.0996,10.816,7.4963
17856.0,37.752,1.0996,9.8155,8.4963
17866.0,34.752,0.099585,9.8155,8.4963
17876.0,34.752,0.099585,11.816,8.4963
17886.0,30.752,0.099585,11.816,9.4963
17896.0,30.752,0.099585,12.816,9.4963
17906.0,29.752,-1.9004,11.816,9.4963
17916.0,30.752,-0.90042,13.816,8.4963
17925.0,29.752,-2.9004,13.816,9.4963
17935.0,28.752,-2.9004,11.816,9.4963
17945.0,26.752,-3.9004,11.816,9.4963
17955.0,25.752,-4.9004,11.816,7.4963
17965.0,22.752,-4.9004,13.816,8.4963
17975.0,20.752,-6.9004,9.8155,8.4963
17985.0,19.752,-6.9004,12.816,10.496
17995.0,16.752,-7.9004,9.8155,9.4963
18005.0,12.752,-8.9004,11.816,9.4963
18014.0,12.752,-8.9004,11.816,8.4963
18024.0,11.752,-10.9,9.8155,9.4963
18034.0,6.7517,-11.9,8.8155,7.4963
18044.0,5.7517,-11.9,7.8155,8.4963
18054.0,4.7517,-12.9,6.8155,8.4963
18064.0,1.7517,-14.9,6.8155,8.4963
18074.0,-1.2483,-14.9,5.8155,5.4963
18084.0,-2.2483,-14.9,5.8155,7.4963
18094.0,-4.2483,-15.9,5.8155,5.4963
18103.0,-7.2483,-15.9,3.8155,6.4963
18113.0,-8.2483,-17.9,1.8155,4.4963
18123.0,-10.248,-18.9,1.8155,5.4963
18133.0,-13.248,-18.9,2.8155,5.4963
18143.0,-16.248,-18.9,0.81553,4.4963
18153.0,-17.248,-19.9,-1.1845,4.4963
18163.0,-20.248,-20.9,-1.1845,4.4963
18173.0,-21.248,-21.9,-0.18447,5.4963
18183.0,-24.248,-22.9,-0.18447,5.4963
18192.0,-27.248,-23.9,-1.1845,4.4963
18202.0,-30.248,-25.9,-1.1845,4.4963
18212.0,-32.248,-25.9,-2.1845,5.4963
18222.0,-33.248,-26.9,-2.1845,5.4963
18232.0,-34.248,-26.9,-2.1845,5.4963
18242.0,-38.248,-27.9,-2.1845,5.4963
18252.0,-41.248,-29.9,-3.1845,4.4963
18262.0,-45.248,-32.9,-3.1845,4.4963
18271.0,-47.248,-31.9,-3.1845,4.4963
18281.0,-48.248,-32.9,-3.1845,4.4963
18291.0,-49.248,-32.9,-4.1845,4.4963
18301.0,-50.248,-32.9,-4.1845,4.4963
18311.0,-50.248,-31.9,-8.1845,4.4963
18321.0,-43.248,-27.9,-8.1845,4.4963
18331.0,-39.248,-23.9,-7.1845,3.4963
18341.0,-33.248,-20.9,-7.1845,3.4963
18351.0,-26.248,-15.9,-8.1845,3.4963
18360.0,-19.248,-11.9,-8.1845,3.4963
18370.0,-14.248,-9.9004,-9.1845,4.4963
18380.0,-11.248,-5.9004,-9.1845,4.4963
18390.0,-6.2483,-3.9004,-10.184,4.4963
18400.0,0.75166,-0.90042,-4.1845,6.4963
18410.0,5.7517,0.099585,-3.1845,6.4963
18420.0,10.752,3.0996,-2.1845,5.4963
18430.0,13.752,4.0996,0.81553,5.4963
18440.0,15.752,4.0996,1.8155,6.4963
18449.0,15.752,4.0996,0.81553,5.4963
18459.0,18.752,5.0996,2.8155,3.4963
18469.0,16.752,5.0996,2.8155,5.4963
18479.0,15.752,5.0996,0.81553,5.4963
18489.0,16.752,4.0996,3.8155,5.4963
18499.0,14.752,3.0996,4.8155,3.4963
18509.0,14.752,3.0996,5.8155,5.4963
18519.0,16.752,3.0996,5.8155,6.4963
18528.0,14.752,2.0996,5.8155,6.4963
18538.0,11.752,0.099585,4.8155,5.4963
18548.0,6.7517,-2.9004,4.8155,5.4963
18558.0,2.7517,-3.9004,3.8155,3.4963
18568.0,2.7517,-4.9004,2.8155,3.4963
18578.0,1.7517,-6.9004,3.8155,5.4963
18588.0,-2.2483,-8.9004,4.8155,4.4963
18598.0,-4.2483,-7.9004,3.8155,4.4963
18608.0,-4.2483,-7.9004,0.81553,3.4963
18617.0,-9.2483,-11.9,-1.1845,1.4963
18627.0,-9.2483,-11.9,-4.1845,1.4963
18637.0,-17.248,-16.9,-5.1845,0.49634
18647.0,-17.248,-16.9,-7.1845,0.49634
18657.0,-22.248,-18.9,-7.1845,-0.50366
18667.0,-22.248,-18.9,-8.1845,-0.50366
18677.0,-28.248,-20.9,-8.1845,-0.50366
18687.0,-28.248,-20.9,-8.1845,-0.50366
18697.0,-33.248,-22.9,-9.1845,-0.50366
18706.0,-33.248,-22.9,-8.1845,-1.5037
18716.0,-36.248,-25.9,-8.1845,-1.5037
18726.0,-36.248,-25.9,-9.1845,-1.5037
18736.0,-45.248,-28.9,-11.184,-0.50366
18746.0,-45.248,-28.9,-9.1845,-2.5037
18756.0,-52.248,-32.9,-11.184,-1.5037
18766.0,-52.248,-32.9,-10.184,-2.5037
18776.0,-56.248,-35.9,-12.184,-3.5037
18786.0,-60.248,-37.9,-13.184,-3.5037
18795.0,-64.248,-38.9,-15.184,-4.5037
18805.0,-67.248,-40.9,-15.184,-6.5037
18815.0,-69.248,-42.9,-14.184,-5.5037
18825.0,-73.248,-42.9,-14.184,-3.5037
18835.0,-76.248,-44.9,-16.184,-4.5037
18845.0,-79.248,-46.9,-16.184,-5.5037
18855.0,-84.248,-48.9,-15.184,-6.5037
18865.0,-86.248,-50.9,-16.184,-5.5037
18874.0,-91.248,-51.9,-17.184,-6.5037
18884.0,-96.248,-53.9,-16.184,-4.5037
18894.0,-99.248,-55.9,-16.184,-5.5037
18904.0,-103.25,-56.9,-17.184,-3.5037
18914.0,-106.25,-58.9,-15.184,-5.5037
18924.0,-113.25,-60.9,-17.184,-6.5037
18934.0,-116.25,-62.9,-17.184,-5.5037
18944.0,-121.25,-65.9,-16.184,-6.5037
18954.0,-124.25,-65.9,-15.184,-4.5037
18963.0,-125.25,-67.9,-18.184,-4.5037
18973.0,-126.25,-68.9,-17.184,-5.5037
18983.0,-131.25,-70.9,-17.184,-5.5037
18993.0,-138.25,-73.9,-17.184,-6.5037
19003.0,-144.25,-75.9,-15.184,-5.5037
19013.0,-144.25,-76.9,-18.184,-6.5037
19023.0,-146.25,-77.9,-18.184,-6.5037
19033.0,-149.25,-76.9,-18.184,-6.5037
19043.0,-150.25,-76.9,-19.184,-8.5037
19052.0,-143.25,-73.9,-20.184,-7.5037
19062.0,-137.25,-69.9,-21.184,-7.5037
19072.0,-133.25,-65.9,-23.184,-10.504
19082.0,-127.25,-62.9,-22.184,-8.5037
19092.0,-123.25,-59.9,-23.184,-8.5037
19102.0,-118.25,-56.9,-21.184,-7.5037
19112.0,-115.25,-55.9,-17.184,-6.5037
19122.0,-110.25,-53.9,-16.184,-6.5037
19132.0,-107.25,-52.9,-12.184,-3.5037
19141.0,-104.25,-50.9,-11.184,-3.5037
19151.0,-101.25,-49.9,-7.1845,-2.5037
19161.0,-97.248,-48.9,-7.1845,-3.5037
19171.0,-94.248,-47.9,-6.1845,-2.5037
19181.0,-94.248,-47.9,-3.1845,-4.5037
19191.0,-95.248,-48.9,-5.1845,-3.5037
19201.0,-94.248,-47.9,-2.1845,-3.5037
19211.0,-94.248,-48.9,-1.1845,-3.5037
19220.0,-94.248,-49.9,1.8155,-3.5037
19230.0,-96.248,-48.9,2.8155,-2.5037
19240.0,-94.248,-49.9,2.8155,-1.5037
19250.0,-97.248,-50.9,4.8155,-2.5037
19260.0,-97.248,-51.9,3.8155,-0.50366
19270.0,-100.25,-51.9,1.8155,-1.5037
19280.0,-102.25,-54.9,1.8155,-0.50366
19290.0,-106.25,-56.9,1.8155,-0.50366
19300.0,-108.25,-57.9,1.8155,-1.5037
19309.0,-107.25,-57.9,1.8155,-1.5037
19319.0,-111.25,-59.9,4.8155,-0.50366
19329.0,-114.25,-59.9,4.8155,-0.50366
19339.0,-111.25,-58.9,2.8155,-0.50366
19349.0,-113.25,-59.9,2.8155,-0.50366
19359.0,-115.25,-62.9,0.81553,-1.5037
19369.0,-118.25,-60.9,0.81553,-1.5037
19379.0,-118.25,-61.9,0.81553,-1.5037
19389.0,-121.25,-63.9,0.81553,-1.5037
19398.0,-122.25,-65.9,1.8155,-0.50366
19408.0,-126.25,-65.9,1.8155,-0.50366
19418.0,-126.25,-66.9,1.8155,-1.5037
19428.0,-129.25,-67.9,1.8155,-1.5037
19438.0,-132.25,-69.9,1.8155,-0.50366
19448.0,-134.25,-70.9,1.8155,-0.50366
19458.0,-134.25,-70.9,1.8155,-0.50366
19468.0,-137.25,-72.9,1.8155,-0.50366
19478.0,-137.25,-72.9,0.81553,-1.5037
19487.0,-142.25,-74.9,0.81553,-1.5037
19497.0,-142.25,-74.9,-0.18447,-2.5037
19507.0,-146.25,-78.9,-0.18447,-1.5037
19517.0,-146.25,-78.9,1.8155,-1.5037
19527.0,-152.25,-79.9,-0.18447,-2.5037
19537.0,-152.25,-79.9,-0.18447,-0.50366
19547.0,-158.25,-82.9,0.81553,-2.5037
19557.0,-158.25,-82.9,-0.18447,-1.5037
19566.0,-161.25,-84.9,-2.1845,-1.5037
19576.0,-161.25,-84.9,0.81553,-1.5037
19586.0,-168.25,-86.9,-0.18447,-2.5037
19596.0,-168.25,-86.9,-3.1845,-2.5037
19606.0,-175.25,-89.9,-4.1845,-1.5037
19616.0,-175.25,-89.9,-3.1845,-3.5037
19626.0,-179.25,-91.9,-4.1845,-1.5037
19636.0,-179.25,-91.9,-5.1845,-2.5037
19646.0,-180.25,-92.9,-4.1845,-1.5037
19655.0,-185.25,-94.9,-6.1845,-1.5037
19665.0,-188.25,-94.9,-8.1845,-2.5037
19675.0,-191.25,-95.9,-6.1845,-1.5037
19685.0,-194.25,-98.9,-7.1845,-2.5037
19695.0,-195.25,-98.9,-8.1845,-1.5037
19705.0,-200.25,-99.9,-6.1845,-1.5037
19715.0,-204.25,-102.9,-8.1845,-2.5037
19725.0,-208.25,-103.9,-9.1845,-2.5037
19735.0,-210.25,-104.9,-11.184,-3.5037
19744.0,-211.25,-105.9,-11.184,-3.5037
19754.0,-214.25,-105.9,-11.184,-4.5037
19764.0,-212.25,-102.9,-13.184,-3.5037
19774.0,-205.25,-99.9,-13.184,-4.5037
19784.0,-198.25,-94.9,-12.184,-3.5037
19794.0,-193.25,-90.9,-14.184,-5.5037
19804.0,-188.25,-87.9,-15.184,-4.5037
19814.0,-182.25,-82.9,-16.184,-3.5037
19824.0,-177.25,-80.9,-16.184,-3.5037
19833.0,-172.25,-79.9,-12.184,-2.5037
19843.0,-168.25,-76.9,-9.1845,-1.5037
19853.0,-165.25,-74.9,-6.1845,-0.50366
19863.0,-160.25,-73.9,-4.1845,0.49634
19873.0,-156.25,-72.9,-1.1845,0.49634
19883.0,-152.25,-69.9,-0.18447,1.4963
19893.0,-151.25,-69.9,0.81553,0.49634
19903.0,-147.25,-69.9,-0.18447,-0.50366
19912.0,-147.25,-68.9,0.81553,0.49634
19922.0,-146.25,-68.9,1.8155,-0.50366
19932.0,-144.25,-67.9,3.8155,0.49634
19942.0,-144.25,-66.9,4.8155,-0.50366
19952.0,-143.25,-66.9,5.8155,-0.50366
19962.0,-143.25,-67.9,6.8155,0.49634
19972.0,-144.25,-66.9,5.8155,-0.50366
19982.0,-143.25,-67.9,3.8155,1.4963
19992.0,-143.25,-67.9,4.8155,-0.50366
20001.0,-144.25,-68.9,3.8155,-1.5037
20011.0,-149.25,-73.9,4.8155,-0.50366
20021.0,-150.25,-71.9,4.8155,-1.5037
20031.0,-149.25,-71.9,4.8155,0.49634
20041.0,-150.25,-72.9,7.8155,0.49634
20051.0,-154.25,-73.9,3.8155,-0.50366
20061.0,-152.25,-74.9,4.8155,0.49634
20071.0,-154.25,-74.9,0.81553,-1.5037
20081.0,-155.25,-74.9,2.8155,-0.50366
20090.0,-157.25,-75.9,0.81553,-0.50366
20100.0,-159.25,-75.9,0.81553,-1.5037
20110.0,-161.25,-78.9,1.8155,-0.50366
20120.0,-163.25,-80.9,1.8155,0.49634
20130.0,-163.25,-80.9,1.8155,0.49634
20140.0,-165.25,-81.9,1.8155,0.49634
20150.0,-168.25,-82.9,3.8155,0.49634
20160.0,-171.25,-83.9,3.8155,-0.50366
20170.0,-172.25,-84.9,2.8155,-0.50366
20179.0,-175.25,-85.9,1.8155,-0.50366
20189.0,-178.25,-87.9,2.8155,-2.5037
20199.0,-179.25,-87.9,1.8155,0.49634
20209.0,-181.25,-89.9,2.8155,0.49634
20219.0,-184.25,-89.9,3.8155,-0.50366
20229.0,-187.25,-91.9,2.8155,-0.50366
20239.0,-189.25,-92.9,2.8155,1.4963
20249.0,-191.25,-93.9,2.8155,0.49634
20258.0,-193.25,-94.9,0.81553,-1.5037
20268.0,-195.25,-96.9,2.8155,-0.50366
20278.0,-199.25,-96.9,-0.18447,-1.5037
20288.0,-201.25,-99.9,-1.1845,-1.5037
20298.0,-204.25,-98.9,-2.1845,-2.5037
20308.0,-208.25,-100.9,-2.1845,-0.50366
20318.0,-212.25,-102.9,-1.1845,-0.50366
20328.0,-212.25,-102.9,-0.18447,0.49634
20338.0,-215.25,-104.9,-3.1845,0.49634
20347.0,-215.25,-104.9,-3.1845,-1.5037
20357.0,-221.25,-107.9,-3.1845,-1.5037
20367.0,-221.25,-107.9,-3.1845,-1.5037
20377.0,-224.25,-109.9,-3.1845,-1.5037
20387.0,-224.25,-109.9,-4.1845,-0.50366
20397.0,-226.25,-108.9,-4.1845,-0.50366
20407.0,-226.25,-108.9,-4.1845,-1.5037
20417.0,-234.25,-111.9,-4.1845,-1.5037
20427.0,-234.25,-111.9,-6.1845,-0.50366
20436.0,-238.25,-112.9,-6.1845,-0.50366
20446.0,-238.25,-112.9,-8.1845,-2.5037
20456.0,-237.25,-112.9,-8.1845,-2.5037
20466.0,-237.25,-112.9,-12.184,-4.5037
20476.0,-225.25,-104.9,-12.184,-4.5037
20486.0,-225.25,-104.9,-13.184,-4.5037
20496.0,-212.25,-95.9,-13.184,-4.5037
20506.0,-212.25,-95.9,-17.184,-5.5037
20516.0,-206.25,-91.9,-17.184,-5.5037
20525.0,-200.25,-86.9,-16.184,-5.5037
20535.0,-193.25,-84.9,-16.184,-5.5037
20545.0,-187.25,-80.9,-16.184,-4.5037
20555.0,-180.25,-77.9,-13.184,-2.5037
20565.0,-175.25,-73.9,-11.184,-2.5037
20575.0,-170.25,-72.9,-7.1845,0.49634
20585.0,-163.25,-70.9,-6.1845,0.49634
20595.0,-158.25,-66.9,-3.1845,-0.50366
20604.0,-152.25,-65.9,-3.1845,-0.50366
20614.0,-150.25,-63.9,-0.18447,-0.50366
20624.0,-145.25,-61.9,1.8155,-0.50366
20634.0,-144.25,-59.9,0.81553,-0.50366
20644.0,-143.25,-61.9,1.8155,-0.50366
20654.0,-140.25,-59.9,2.8155,0.49634
20664.0,-139.25,-58.9,2.8155,1.4963
20674.0,-139.25,-58.9,2.8155,2.4963
20684.0,-138.25,-57.9,2.8155,2.4963
20693.0,-136.25,-57.9,2.8155,0.49634
20703.0,-136.25,-58.9,3.8155,1.4963
20713.0,-137.25,-57.9,1.8155,1.4963
20723.0,-139.25,-60.9,1.8155,1.4963
20733.0,-139.25,-58.9,-0.18447,1.4963
20743.0,-138.25,-59.9,0.81553,1.4963
20753.0,-137.25,-59.9,1.8155,2.4963
20763.0,-139.25,-60.9,1.8155,3.4963
20773.0,-138.25,-58.9,1.8155,1.4963
20782.0,-139.25,-59.9,1.8155,2.4963
20792.0,-140.25,-60.9,-0.18447,1.4963
20802.0,-143.25,-61.9,0.81553,1.4963
20812.0,-144.25,-62.9,-0.18447,2.4963
20822.0,-145.25,-61.9,1.8155,3.4963
20832.0,-147.25,-63.9,1.8155,2.4963
20842.0,-147.25,-62.9,0.81553,3.4963
20852.0,-148.25,-63.9,0.81553,3.4963
20862.0,-150.25,-64.9,0.81553,3.4963
20871.0,-151.25,-65.9,1.8155,3.4963
20881.0,-151.25,-65.9,0.81553,2.4963
20891.0,-153.25,-65.9,1.8155,1.4963
20901.0,-154.25,-67.9,-0.18447,1.4963
20911.0,-154.25,-66.9,0.81553,2.4963
20921.0,-155.25,-66.9,1.8155,3.4963
20931.0,-155.25,-67.9,0.81553,3.4963
20941.0,-159.25,-69.9,0.81553,3.4963
20950.0,-160.25,-68.9,0.81553,3.4963
20960.0,-160.25,-68.9,0.81553,3.4963
20970.0,-161.25,-69.9,-0.18447,1.4963
20980.0,-163.25,-69.9,-2.1845,2.4963
20990.0,-165.25,-71.9,-1.1845,2.4963
21000.0,-164.25,-72.9,-2.1845,2.4963
21010.0,-168.25,-71.9,-0.18447,3.4963
21020.0,-170.25,-72.9,-1.1845,2.4963
21030.0,-170.25,-72.9,-3.1845,1.4963
21039.0,-169.25,-72.9,-2.1845,1.4963
21049.0,-171.25,-73.9,-5.1845,1.4963
21059.0,-174.25,-73.9,-6.1845,2.4963
21069.0,-175.25,-75.9,-4.1845,1.4963
21079.0,-176.25,-74.9,-4.1845,2.4963
21089.0,-179.25,-75.9,-4.1845,3.4963
21099.0,-178.25,-76.9,-4.1845,3.4963
21109.0,-182.25,-76.9,-6.1845,2.4963
21119.0,-185.25,-78.9,-5.1845,2.4963
21128.0,-188.25,-79.9,-5.1845,3.4963
21138.0,-189.25,-79.9,-6.1845,2.4963
21148.0,-190.25,-79.9,-6.1845,1.4963
21158.0,-193.25,-79.9,-8.1845,0.49634
21168.0,-194.25,-78.9,-10.184,-0.50366
21178.0,-191.25,-75.9,-10.184,-0.50366
21188.0,-183.25,-72.9,-10.184,-0.50366
21198.0,-183.25,-72.9,-10.184,0.49634
21208.0,-174.25,-65.9,-10.184,-1.5037
21217.0,-174.25,-65.9,-12.184,-1.5037
21227.0,-165.25,-60.9,-11.184,-1.5037
21237.0,-165.25,-60.9,-10.184,-0.50366
21247.0,-160.25,-56.9,-9.1845,1.4963
21257.0,-160.25,-56.9,-4.1845,1.4963
21267.0,-149.25,-52.9,-3.1845,2.4963
21277.0,-149.25,-52.9,-3.1845,0.49634
21287.0,-141.25,-49.9,-3.1845,0.49634
21296.0,-141.25,-49.9,-2.1845,0.49634
21306.0,-136.25,-47.9,-0.18447,1.4963
21316.0,-136.25,-47.9,-0.18447,-0.50366
21326.0,-135.25,-47.9,1.8155,-0.50366
21336.0,-135.25,-47.9,1.8155,0.49634
21346.0,-136.25,-48.9,3.8155,-0.50366
21356.0,-136.25,-48.9,5.8155,0.49634
21366.0,-132.25,-47.9,6.8155,1.4963
21376.0,-132.25,-47.9,8.8155,1.4963
21385.0,-132.25,-47.9,10.816,3.4963
21395.0,-132.25,-48.9,10.816,3.4963
21405.0,-133.25,-50.9,11.816,3.4963
21415.0,-136.25,-49.9,12.816,5.4963
21425.0,-137.25,-51.9,12.816,5.4963
21435.0,-139.25,-52.9,15.816,6.4963
21445.0,-135.25,-52.9,15.816,6.4963
21455.0,-138.25,-53.9,16.816,5.4963
21465.0,-138.25,-53.9,16.816,5.4963
21474.0,-138.25,-52.9,11.816,4.4963
21484.0,-139.25,-53.9,11.816,4.4963
21494.0,-140.25,-55.9,8.8155,4.4963
21504.0,-143.25,-55.9,8.8155,4.4963
21514.0,-146.25,-57.9,7.8155,2.4963
21524.0,-145.25,-58.9,7.8155,2.4963
21534.0,-147.25,-59.9,5.8155,2.4963
21544.0,-152.25,-60.9,5.8155,2.4963
21554.0,-151.25,-62.9,2.8155,2.4963
21563.0,-155.25,-62.9,2.8155,2.4963
21573.0,-156.25,-64.9,3.8155,2.4963
21583.0,-160.25,-66.9,3.8155,2.4963
21593.0,-162.25,-68.9,3.8155,2.4963
21603.0,-164.25,-70.9,3.8155,2.4963
21613.0,-166.25,-70.9,5.8155,4.4963
21623.0,-171.25,-71.9,5.8155,4.4963
21633.0,-174.25,-74.9,6.8155,4.4963
21642.0,-175.25,-75.9,7.8155,3.4963
21652.0,-177.25,-76.9,6.8155,5.4963
21662.0,-180.25,-77.9,8.8155,4.4963
21672.0,-182.25,-79.9,8.8155,4.4963
21682.0,-184.25,-80.9,7.8155,6.4963
21692.0,-188.25,-82.9,6.8155,5.4963
21702.0,-191.25,-83.9,5.8155,4.4963
21712.0,-194.25,-86.9,7.8155,4.4963
21722.0,-197.25,-87.9,7.8155,4.4963
21731.0,-199.25,-87.9,5.8155,4.4963
21741.0,-202.25,-89.9,5.8155,4.4963
21751.0,-204.25,-90.9,1.8155,2.4963
21761.0,-208.25,-92.9,1.8155,1.4963
21771.0,-211.25,-93.9,-1.1845,1.4963
21781.0,-215.25,-94.9,-0.18447,1.4963
21791.0,-216.25,-96.9,-2.1845,0.49634
21801.0,-217.25,-97.9,-3.1845,0.49634
21811.0,-218.25,-97.9,-4.1845,0.49634
21820.0,-224.25,-99.9,-5.1845,-0.50366
21830.0,-228.25,-101.9,-7.1845,-1.5037
21840.0,-232.25,-102.9,-8.1845,-1.5037
21850.0,-233.25,-103.9,-7.1845,-0.50366
21860.0,-231.25,-103.9,-8.1845,-0.50366
21870.0,-231.25,-101.9,-9.1845,-0.50366
21880.0,-225.25,-98.9,-10.184,-0.50366
21890.0,-219.25,-94.9,-8.1845,-0.50366
21900.0,-212.25,-90.9,-6.1845,0.49634
21909.0,-208.25,-87.9,-10.184,-1.5037
21919.0,-202.25,-84.9,-10.184,-1.5037
21929.0,-197.25,-83.9,-9.1845,-1.5037
21939.0,-193.25,-81.9,-8.1845,-0.50366
21949.0,-189.25,-78.9,-5.1845,0.49634
21959.0,-185.25,-76.9,-2.1845,1.4963
21969.0,-180.25,-75.9,-1.1845,1.4963
21979.0,-176.25,-72.9,-0.18447,2.4963
21988.0,-171.25,-70.9,1.8155,1.4963
21998.0,-167.25,-70.9,1.8155,2.4963
22008.0,-164.25,-69.9,1.8155,1.4963
22018.0,-163.25,-68.9,1.8155,0.49634
22028.0,-158.25,-66.9,2.8155,0.49634
22038.0,-158.25,-66.9,1.8155,-0.50366
22048.0,-154.25,-66.9,0.81553,0.49634
22058.0,-152.25,-65.9,1.8155,-0.50366
22068.0,-152.25,-65.9,3.8155,-0.50366
22077.0,-149.25,-62.9,3.8155,2.4963
22087.0,-149.25,-62.9,2.8155,1.4963
22097.0,-145.25,-61.9,1.8155,1.4963
22107.0,-145.25,-61.9,1.8155,-0.50366
22117.0,-149.25,-63.9,2.8155,-1.5037
22127.0,-149.25,-63.9,3.8155,0.49634
22137.0,-143.25,-62.9,1.8155,-1.5037
22147.0,-143.25,-62.9,3.8155,1.4963
22157.0,-143.25,-60.9,4.8155,1.4963
22166.0,-143.25,-60.9,3.8155,0.49634
22176.0,-138.25,-58.9,1.8155,0.49634
22186.0,-138.25,-58.9,1.8155,-0.50366
22196.0,-140.25,-58.9,1.8155,0.49634
22206.0,-140.25,-58.9,1.8155,0.49634
22216.0,-139.25,-59.9,2.8155,0.49634
22226.0,-139.25,-59.9,1.8155,0.49634
22236.0,-138.25,-59.9,2.8155,1.4963
22246.0,-138.25,-59.9,2.8155,0.49634
22255.0,-140.25,-61.9,1.8155,0.49634
22265.0,-139.25,-60.9,1.8155,-0.50366
22275.0,-140.25,-61.9,0.81553,-0.50366
22285.0,-141.25,-60.9,-0.18447,-0.50366
22295.0,-140.25,-62.9,-0.18447,-1.5037
22305.0,-141.25,-61.9,-3.1845,-1.5037
22315.0,-143.25,-62.9,-1.1845,-2.5037
22325.0,-142.25,-62.9,0.81553,-1.5037
22334.0,-144.25,-62.9,-0.18447,0.49634
22344.0,-144.25,-62.9,-1.1845,-1.5037
22354.0,-146.25,-63.9,-1.1845,0.49634
22364.0,-146.25,-63.9,-2.1845,-2.5037
22374.0,-147.25,-65.9,-1.1845,-1.5037
22384.0,-149.25,-65.9,-0.18447,-1.5037
22394.0,-151.25,-65.9,-0.18447,0.49634
22404.0,-151.25,-66.9,-1.1845,-1.5037
22414.0,-152.25,-65.9,-2.1845,-1.5037
22423.0,-152.25,-65.9,-3.1845,-1.5037
22433.0,-154.25,-67.9,-3.1845,-2.5037
22443.0,-155.25,-67.9,-6.1845,-1.5037
22453.0,-156.25,-67.9,-5.1845,-1.5037
22463.0,-159.25,-68.9,-4.1845,-2.5037
22473.0,-159.25,-69.9,-8.1845,-1.5037
22483.0,-161.25,-69.9,-6.1845,-2.5037
22493.0,-162.25,-70.9,-8.1845,-2.5037
22503.0,-164.25,-72.9,-8.1845,-3.5037
22512.0,-169.25,-72.9,-8.1845,-3.5037
22522.0,-170.25,-74.9,-8.1845,-2.5037
22532.0,-170.25,-73.9,-8.1845,-2.5037
22542.0,-170.25,-74.9,-8.1845,-1.5037
22552.0,-173.25,-76.9,-8.1845,-1.5037
22562.0,-177.25,-77.9,-8.1845,-3.5037
22572.0,-177.25,-77.9,-8.1845,-3.5037
22582.0,-178.25,-77.9,-13.184,-4.5037
22592.0,-179.25,-76.9,-13.184,-4.5037
22601.0,-178.25,-75.9,-11.184,-3.5037
22611.0,-172.25,-72.9,-11.184,-3.5037
22621.0,-166.25,-68.9,-11.184,-3.5037
22631.0,-160.25,-64.9,-11.184,-3.5037
22641.0,-155.25,-60.9,-14.184,-2.5037
22651.0,-147.25,-57.9,-14.184,-2.5037
22661.0,-141.25,-54.9,-12.184,-2.5037
22671.0,-136.25,-51.9,-12.184,-2.5037
22680.0,-132.25,-49.9,-7.1845,0.49634
22690.0,-126.25,-46.9,-7.1845,0.49634
22700.0,-120.25,-44.9,-4.1845,1.4963
22710.0,-113.25,-42.9,-1.1845,1.4963
22720.0,-111.25,-40.9,-0.18447,1.4963
22730.0,-104.25,-37.9,-2.1845,-1.5037
22740.0,-100.25,-35.9,-0.18447,0.49634
22750.0,-96.248,-34.9,-0.18447,-1.5037
22760.0,-92.248,-33.9,0.81553,0.49634
22769.0,-89.248,-31.9,1.8155,-0.50366
22779.0,-86.248,-29.9,-1.1845,-1.5037
22789.0,-84.248,-28.9,1.8155,0.49634
22799.0,-81.248,-27.9,1.8155,1.4963
22809.0,-77.248,-26.9,2.8155,1.4963
22819.0,-75.248,-26.9,1.8155,1.4963
22829.0,-74.248,-25.9,1.8155,2.4963
22839.0,-74.248,-25.9,3.8155,2.4963
22849.0,-76.248,-26.9,3.8155,2.4963
22858.0,-75.248,-25.9,3.8155,3.4963
22868.0,-71.248,-23.9,4.8155,2.4963
22878.0,-68.248,-23.9,7.8155,5.4963
22888.0,-69.248,-22.9,5.8155,5.4963
22898.0,-64.248,-20.9,5.8155,5.4963
22908.0,-65.248,-21.9,6.8155,5.4963
22918.0,-65.248,-21.9,5.8155,4.4963
22928.0,-63.248,-20.9,4.8155,6.4963
22938.0,-63.248,-20.9,5.8155,6.4963
22947.0,-64.248,-20.9,3.8155,5.4963
22957.0,-64.248,-20.9,4.8155,5.4963
22967.0,-61.248,-19.9,3.8155,5.4963
22977.0,-61.248,-19.9,2.8155,5.4963
22987.0,-61.248,-19.9,5.8155,6.4963
22997.0,-61.248,-19.9,3.8155,4.4963
23007.0,-59.248,-18.9,2.8155,4.4963
23017.0,-59.248,-18.9,2.8155,4.4963
23026.0,-61.248,-18.9,1.8155,4.4963
23036.0,-61.248,-18.9,1.8155,4.4963
23046.0,-61.248,-19.9,2.8155,4.4963
23056.0,-61.248,-19.9,1.8155,4.4963
23066.0,-64.248,-20.9,2.8155,6.4963
23076.0,-64.248,-20.9,2.8155,6.4963
23086.0,-64.248,-20.9,2.8155,6.4963
23096.0,-64.248,-20.9,2.8155,5.4963
23106.0,-68.248,-22.9,2.8155,6.4963
23115.0,-68.248,-22.9,2.8155,6.4963
23125.0,-70.248,-22.9,0.81553,6.4963
23135.0,-71.248,-23.9,0.81553,6.4963
23145.0,-70.248,-23.9,-0.18447,5.4963
23155.0,-70.248,-22.9,-1.1845,7.4963
23165.0,-70.248,-24.9,-1.1845,3.4963
23175.0,-70.248,-23.9,-3.1845,5.4963
23185.0,-72.248,-24.9,-4.1845,4.4963
23195.0,-73.248,-24.9,-3.1845,4.4963
23204.0,-75.248,-25.9,-3.1845,2.4963
23214.0,-77.248,-26.9,-4.1845,4.4963
23224.0,-77.248,-27.9,-4.1845,4.4963
23234.0,-79.248,-28.9,-4.1845,4.4963
23244.0,-80.248,-29.9,-4.1845,4.4963
23254.0,-81.248,-28.9,-4.1845,5.4963
23264.0,-84.248,-29.9,-2.1845,5.4963
23274.0,-85.248,-30.9,-6.1845,5.4963
23284.0,-84.248,-29.9,-2.1845,6.4963
23293.0,-85.248,-30.9,-4.1845,5.4963
23303.0,-88.248,-30.9,-5.1845,5.4963
23313.0,-92.248,-32.9,-6.1845,4.4963
23323.0,-94.248,-34.9,-7.1845,5.4963
23333.0,-94.248,-34.9,-8.1845,4.4963
23343.0,-94.248,-33.9,-9.1845,4.4963
23353.0,-95.248,-33.9,-9.1845,4.4963
23363.0,-93.248,-31.9,-11.184,3.4963
23372.0,-88.248,-28.9,-11.184,2.4963
23382.0,-82.248,-24.9,-12.184,4.4963
23392.0,-75.248,-21.9,-13.184,2.4963
23402.0,-71.248,-17.9,-14.184,3.4963
23412.0,-65.248,-13.9,-13.184,2.4963
23422.0,-58.248,-10.9,-12.184,3.4963
23432.0,-53.248,-7.9004,-12.184,4.4963
23442.0,-46.248,-4.9004,-8.1845,6.4963
23452.0,-40.248,-1.9004,-6.1845,8.4963
23461.0,-34.248,0.099585,-4.1845,6.4963
23471.0,-28.248,3.0996,-1.1845,7.4963
23481.0,-22.248,6.0996,-3.1845,5.4963
23491.0,-17.248,7.0996,-3.1845,6.4963
23501.0,-11.248,8.0996,-3.1845,3.4963
23511.0,-8.2483,11.1,-4.1845,6.4963
23521.0,-5.2483,13.1,-3.1845,4.4963
23531.0,-3.2483,14.1,-0.18447,6.4963
23541.0,0.75166,13.1,0.81553,6.4963
23550.0,3.7517,15.1,2.8155,6.4963
23560.0,7.7517,17.1,2.8155,7.4963
23570.0,8.7517,17.1,4.8155,7.4963
23580.0,10.752,20.1,4.8155,7.4963
23590.0,10.752,19.1,0.81553,7.4963
23600.0,9.7517,17.1,0.81553,7.4963
23610.0,10.752,17.1,0.81553,6.4963
23620.0,12.752,18.1,0.81553,6.4963
23629.0,16.752,21.1,0.81553,7.4963
23639.0,15.752,20.1,0.81553,7.4963
23649.0,19.752,21.1,2.8155,10.496
23659.0,20.752,22.1,2.8155,10.496
23669.0,21.752,22.1,0.81553,7.4963
23679.0,21.752,22.1,0.81553,7.4963
23689.0,22.752,22.1,-2.1845,7.4963
23699.0,23.752,22.1,-2.1845,7.4963
23709.0,22.752,23.1,-3.1845,7.4963
23718.0,22.752,22.1,-3.1845,7.4963
23728.0,21.752,23.1,-0.18447,7.4963
23738.0,23.752,23.1,-0.18447,7.4963
23748.0,22.752,22.1,-2.1845,7.4963
23758.0,23.752,23.1,-2.1845,7.4963
23768.0,23.752,21.1,-6.1845,7.4963
23778.0,21.752,21.1,-6.1845,7.4963
23788.0,20.752,20.1,-6.1845,6.4963
23798.0,20.752,20.1,-6.1845,6.4963
23807.0,20.752,20.1,-6.1845,7.4963
23817.0,18.752,19.1,-5.1845,6.4963
23827.0,18.752,19.1,-6.1845,6.4963
23837.0,15.752,18.1,-6.1845,6.4963
23847.0,15.752,18.1,-7.1845,6.4963
23857.0,13.752,18.1,-7.1845,7.4963
23867.0,13.752,18.1,-7.1845,6.4963
23877.0,10.752,15.1,-8.1845,5.4963
23887.0,10.752,15.1,-10.184,6.4963
23896.0,8.7517,15.1,-10.184,5.4963
23906.0,8.7517,15.1,-12.184,5.4963
23916.0,7.7517,14.1,-11.184,6.4963
23926.0,7.7517,14.1,-14.184,5.4963
23936.0,5.7517,15.1,-11.184,5.4963
23946.0,5.7517,15.1,-15.184,5.4963
23956.0,2.7517,14.1,-13.184,5.4963
23966.0,2.7517,14.1,-15.184,3.4963
23975.0,2.7517,14.1,-18.184,4.4963
23985.0,2.7517,14.1,-17.184,5.4963
23995.0,-0.24834,12.1,-17.184,3.4963
24005.0,-3.2483,12.1,-18.184,4.4963
24015.0,-2.2483,11.1,-18.184,4.4963
24025.0,-4.2483,10.1,-17.184,3.4963
24035.0,-7.2483,9.0996,-17.184,3.4963
24045.0,-7.2483,10.1,-20.184,3.4963
24055.0,-8.2483,9.0996,-21.184,3.4963
24064.0,-12.248,7.0996,-20.184,5.4963
24074.0,-15.248,7.0996,-22.184,3.4963
24084.0,-16.248,6.0996,-23.184,2.4963
24094.0,-17.248,6.0996,-23.184,3.4963
24104.0,-17.248,6.0996,-25.184,3.4963
24114.0,-17.248,7.0996,-24.184,2.4963
24124.0,-15.248,9.0996,-23.184,3.4963
24134.0,-9.2483,14.1,-23.184,2.4963
24144.0,-3.2483,17.1,-22.184,2.4963
24153.0,4.7517,21.1,-23.184,3.4963
24163.0,9.7517,25.1,-25.184,3.4963
24173.0,14.752,28.1,-24.184,4.4963
24183.0,20.752,31.1,-24.184,4.4963
24193.0,23.752,33.1,-22.184,6.4963
24203.0,32.752,34.1,-17.184,7.4963
24213.0,36.752,38.1,-15.184,9.4963
24223.0,45.752,41.1,-13.184,7.4963
24233.0,50.752,44.1,-12.184,8.4963
24242.0,53.752,45.1,-11.184,9.4963
24252.0,58.752,46.1,-11.184,8.4963
24262.0,62.752,49.1,-10.184,9.4963
24272.0,64.752,49.1,-8.1845,9.4963
24282.0,67.752,51.1,-10.184,8.4963
24292.0,67.752,50.1,-8.1845,9.4963
24302.0,67.752,50.1,-8.1845,9.4963
24312.0,68.752,51.1,-7.1845,10.496
24321.0,69.752,50.1,-6.1845,10.496
24331.0,69.752,51.1,-4.1845,10.496
24341.0,70.752,49.1,-6.1845,10.496
24351.0,68.752,50.1,-7.1845,10.496
24361.0,67.752,47.1,-6.1845,9.4963
24371.0,65.752,46.1,-9.1845,9.4963
24381.0,69.752,48.1,-8.1845,9.4963
24391.0,70.752,48.1,-8.1845,10.496
24401.0,68.752,48.1,-6.1845,9.4963
24410.0,72.752,48.1,-8.1845,10.496
24420.0,69.752,48.1,-6.1845,10.496
24430.0,69.752,48.1,-9.1845,11.496
24440.0,66.752,47.1,-10.184,10.496
24450.0,68.752,46.1,-9.1845,11.496
24460.0,68.752,46.1,-8.1845,10.496
24470.0,67.752,47.1,-6.1845,12.496
24480.0,68.752,45.1,-9.1845,10.496
24490.0,67.752,45.1,-7.1845,11.496
24499.0,66.752,45.1,-6.1845,10.496
24509.0,64.752,46.1,-7.1845,12.496
24519.0,64.752,43.1,-8.1845,10.496
24529.0,62.752,43.1,-9.1845,11.496
24539.0,60.752,41.1,-8.1845,10.496
24549.0,59.752,40.1,-9.1845,10.496
24559.0,58.752,39.1,-10.184,11.496
24569.0,55.752,39.1,-10.184,12.496
24579.0,53.752,37.1,-8.1845,11.496
24588.0,50.752,36.1,-10.184,10.496
24598.0,50.752,35.1,-11.184,11.496
24608.0,47.752,36.1,-8.1845,12.496
24618.0,47.752,33.1,-9.1845,12.496
24628.0,45.752,34.1,-11.184,11.496
24638.0,43.752,32.1,-10.184,12.496
24648.0,42.752,33.1,-12.184,11.496
24658.0,38.752,31.1,-12.184,10.496
24667.0,38.752,31.1,-12.184,10.496
24677.0,37.752,30.1,-14.184,9.4963
24687.0,35.752,29.1,-14.184,9.4963
24697.0,35.752,29.1,-14.184,9.4963
24707.0,30.752,27.1,-14.184,9.4963
24717.0,30.752,27.1,-18.184,9.4963
24727.0,29.752,26.1,-18.184,9.4963
24737.0,29.752,26.1,-19.184,8.4963
24747.0,23.752,24.1,-19.184,8.4963
24756.0,23.752,24.1,-18.184,11.496
24766.0,17.752,23.1,-18.184,11.496
24776.0,17.752,23.1,-17.184,10.496
24786.0,12.752,20.1,-17.184,10.496
24796.0,12.752,20.1,-16.184,9.4963
24806.0,4.7517,16.1,-16.184,9.4963
24816.0,4.7517,16.1,-19.184,10.496
24826.0,2.7517,15.1,-19.184,10.496
24836.0,2.7517,15.1,-22.184,8.4963
24845.0,-0.24834,15.1,-22.184,8.4963
24855.0,-0.24834,15.1,-21.184,8.4963
24865.0,2.7517,17.1,-21.184,8.4963
24875.0,7.7517,20.1,-20.184,8.4963
24885.0,15.752,24.1,-20.184,6.4963
24895.0,19.752,28.1,-20.184,10.496
24905.0,24.752,32.1,-20.184,9.4963
24915.0,29.752,34.1,-21.184,9.4963
24925.0,33.752,36.1,-18.184,10.496
24934.0,38.752,38.1,-16.184,11.496
24944.0,45.752,41.1,-13.184,13.496
24954.0,51.752,45.1,-10.184,13.496
24964.0,55.752,46.1,-10.184,14.496
24974.0,59.752,48.1,-9.1845,12.496
24984.0,65.752,49.1,-5.1845,13.496
24994.0,67.752,50.1,-6.1845,12.496
25004.0,70.752,51.1,-9.1845,12.496
25013.0,74.752,52.1,-7.1845,12.496
25023.0,75.752,52.1,-7.1845,12.496
25033.0,75.752,52.1,-4.1845,12.496
25043.0,76.752,53.1,0.81553,12.496
25053.0,77.752,53.1,-1.1845,14.496
25063.0,80.752,54.1,-0.18447,13.496
25073.0,81.752,52.1,-2.1845,12.496
25083.0,81.752,52.1,-1.1845,14.496
25093.0,80.752,51.1,-3.1845,12.496
25102.0,77.752,50.1,-2.1845,14.496
25112.0,74.752,48.1,-0.18447,13.496
25122.0,73.752,46.1,-0.18447,14.496
25132.0,71.752,46.1,-0.18447,14.496
25142.0,71.752,46.1,1.8155,14.496
25152.0,68.752,44.1,2.8155,15.496
25162.0,69.752,45.1,2.8155,15.496
25172.0,68.752,44.1,1.8155,14.496
25182.0,65.752,43.1,0.81553,13.496
25191.0,63.752,42.1,-0.18447,13.496
25201.0,62.752,40.1,-0.18447,14.496
25211.0,61.752,40.1,0.81553,15.496
25221.0,57.752,38.1,-2.1845,14.496
25231.0,58.752,37.1,-1.1845,14.496
25241.0,56.752,36.1,0.81553,14.496
25251.0,54.752,35.1,-2.1845,15.496
25261.0,53.752,33.1,0.81553,14.496
25271.0,51.752,33.1,0.81553,14.496
25280.0,48.752,31.1,-0.18447,13.496
25290.0,47.752,30.1,-0.18447,13.496
25300.0,44.752,29.1,-0.18447,13.496
25310.0,41.752,27.1,-0.18447,13.496
25320.0,40.752,25.1,-0.18447,11.496
25330.0,36.752,24.1,0.81553,12.496
25340.0,33.752,22.1,1.8155,14.496
25350.0,30.752,21.1,-1.1845,13.496
25359.0,26.752,19.1,-1.1845,14.496
25369.0,24.752,18.1,-1.1845,13.496
25379.0,20.752,17.1,-0.18447,13.496
25389.0,19.752,16.1,-2.1845,11.496
25399.0,18.752,15.1,-3.1845,12.496
25409.0,15.752,13.1,-4.1845,13.496
25419.0,12.752,11.1,-3.1845,11.496
25429.0,9.7517,11.1,-6.1845,10.496
25439.0,7.7517,10.1,-6.1845,9.4963
25448.0,4.7517,8.0996,-5.1845,11.496
25458.0,1.7517,6.0996,-8.1845,10.496
25468.0,0.75166,7.0996,-7.1845,9.4963
25478.0,-2.2483,6.0996,-8.1845,10.496
25488.0,-6.2483,4.0996,-8.1845,8.4963
25498.0,-7.2483,3.0996,-9.1845,8.4963
25508.0,-7.2483,2.0996,-8.1845,9.4963
25518.0,-11.248,1.0996,-8.1845,8.4963
25528.0,-15.248,1.0996,-9.1845,7.4963
25537.0,-17.248,-0.90042,-12.184,7.4963
25547.0,-20.248,-1.9004,-10.184,8.4963
25557.0,-25.248,-4.9004,-12.184,7.4963
25567.0,-25.248,-4.9004,-11.184,7.4963
25577.0,-30.248,-7.9004,-14.184,7.4963
25587.0,-30.248,-7.9004,-13.184,7.4963
25597.0,-36.248,-8.9004,-14.184,6.4963
25607.0,-36.248,-8.9004,-11.184,7.4963
25617.0,-30.248,-4.9004,-15.184,5.4963
25626.0,-30.248,-4.9004,-13.184,5.4963
25636.0,-20.248,2.0996,-14.184,5.4963
25646.0,-20.248,2.0996,-15.184,4.4963
25656.0,-8.2483,10.1,-14.184,4.4963
25666.0,-8.2483,10.1,-17.184,4.4963
25676.0,0.75166,14.1,-14.184,5.4963
25686.0,0.75166,14.1,-10.184,7.4963
25696.0,9.7517,20.1,-8.1845,7.4963
25705.0,9.7517,20.1,-7.1845,9.4963
25715.0,20.752,23.1,-7.1845,9.4963
25725.0,20.752,23.1,-2.1845,8.4963
25735.0,24.752,24.1,-2.1845,8.4963
25745.0,29.752,26.1,-2.1845,7.4963
25755.0,31.752,26.1,-2.1845,7.4963
25765.0,34.752,26.1,2.8155,7.4963
25775.0,34.752,28.1,2.8155,7.4963
25785.0,36.752,28.1,4.8155,8.4963
25794.0,37.752,28.1,4.8155,8.4963
25804.0,38.752,28.1,4.8155,9.4963
25814.0,38.752,27.1,4.8155,9.4963
25824.0,39.752,29.1,8.8155,10.496
25834.0,40.752,29.1,8.8155,10.496
25844.0,41.752,28.1,8.8155,10.496
25854.0,39.752,26.1,8.8155,10.496
25864.0,37.752,25.1,8.8155,11.496
25874.0,35.752,22.1,8.8155,11.496
25883.0,33.752,22.1,9.8155,9.4963
25893.0,33.752,22.1,9.8155,9.4963
25903.0,34.752,21.1,8.8155,9.4963
25913.0,33.752,22.1,8.8155,9.4963
25923.0,33.752,20.1,10.816,10.496
25933.0,31.752,19.1,8.8155,9.4963
25943.0,28.752,18.1,10.816,10.496
25953.0,26.752,16.1,8.8155,10.496
25963.0,23.752,15.1,8.8155,10.496
25972.0,23.752,14.1,9.8155,9.4963
25982.0,22.752,13.1,10.816,11.496
25992.0,21.752,12.1,11.816,11.496
26002.0,19.752,12.1,10.816,11.496
26012.0,17.752,9.0996,11.816,11.496
26022.0,12.752,7.0996,8.8155,10.496
26032.0,11.752,5.0996,9.8155,9.4963
26042.0,6.7517,3.0996,11.816,10.496
26051.0,2.7517,2.0996,12.816,10.496
26061.0,0.75166,1.0996,10.816,10.496
26071.0,-0.24834,-0.90042,11.816,9.4963
26081.0,-2.2483,-1.9004,12.816,9.4963
26091.0,-5.2483,-3.9004,11.816,11.496
26101.0,-6.2483,-3.9004,10.816,11.496
26111.0,-11.248,-4.9004,13.816,10.496
26121.0,-14.248,-6.9004,13.816,12.496
26131.0,-15.248,-8.9004,11.816,11.496
26140.0,-18.248,-9.9004,11.816,10.496
26150.0,-22.248,-11.9,12.816,11.496
26160.0,-25.248,-12.9,9.8155,8.4963
26170.0,-27.248,-14.9,9.8155,10.496
26180.0,-32.248,-15.9,11.816,10.496
26190.0,-34.248,-16.9,9.8155,10.496
26200.0,-36.248,-18.9,8.8155,10.496
26210.0,-36.248,-19.9,9.8155,11.496
26220.0,-41.248,-20.9,8.8155,11.496
26229.0,-44.248,-21.9,8.8155,10.496
26239.0,-44.248,-22.9,9.8155,10.496
26249.0,-47.248,-23.9,9.8155,10.496
26259.0,-52.248,-25.9,10.816,10.496
26269.0,-55.248,-26.9,9.8155,9.4963
26279.0,-58.248,-28.9,11.816,11.496
26289.0,-62.248,-30.9,9.8155,10.496
26299.0,-62.248,-31.9,8.8155,9.4963
26309.0,-66.248,-31.9,7.8155,10.496
26318.0,-69.248,-33.9,6.8155,10.496
26328.0,-71.248,-33.9,8.8155,9.4963
26338.0,-73.248,-35.9,7.8155,10.496
26348.0,-77.248,-35.9,6.8155,9.4963
26358.0,-79.248,-37.9,3.8155,9.4963
26368.0,-86.248,-39.9,3.8155,10.496
26378.0,-86.248,-40.9,3.8155,8.4963
26388.0,-89.248,-41.9,2.8155,8.4963
26397.0,-92.248,-42.9,0.81553,8.4963
26407.0,-94.248,-42.9,1.8155,7.4963
26417.0,-90.248,-39.9,1.8155,7.4963
26427.0,-84.248,-35.9,0.81553,6.4963
26437.0,-84.248,-35.9,-1.1845,8.4963
26447.0,-73.248,-29.9,-1.1845,6.4963
26457.0,-73.248,-29.9,-1.1845,8.4963
26467.0,-63.248,-22.9,-1.1845,8.4963
26477.0,-63.248,-22.9,0.81553,8.4963
26486.0,-50.248,-17.9,4.8155,10.496
26496.0,-50.248,-17.9,7.8155,12.496
26506.0,-41.248,-12.9,12.816,13.496
26516.0,-41.248,-12.9,15.816,14.496
26526.0,-34.248,-9.9004,21.816,15.496
26536.0,-34.248,-9.9004,21.816,16.496
26546.0,-26.248,-6.9004,21.816,15.496
26556.0,-26.248,-6.9004,23.816,14.496
26566.0,-23.248,-5.9004,26.816,14.496
26575.0,-23.248,-5.9004,23.816,14.496
26585.0,-20.248,-4.9004,26.816,14.496
26595.0,-20.248,-4.9004,25.816,14.496
26605.0,-17.248,-4.9004,24.816,15.496
26615.0,-14.248,-3.9004,25.816,15.496
26625.0,-14.248,-2.9004,24.816,14.496
26635.0,-11.248,-1.9004,25.816,15.496
26645.0,-11.248,-1.9004,25.816,13.496
26655.0,-11.248,-3.9004,24.816,14.496
26664.0,-12.248,-3.9004,25.816,14.496
26674.0,-15.248,-6.9004,24.816,13.496
26684.0,-13.248,-6.9004,26.816,14.496
26694.0,-15.248,-6.9004,26.816,15.496
26704.0,-13.248,-5.9004,27.816,15.496
26714.0,-18.248,-7.9004,27.816,15.496
26724.0,-18.248,-6.9004,27.816,16.496
26734.0,-17.248,-7.9004,27.816,16.496
26743.0,-19.248,-8.9004,27.816,15.496
26753.0,-20.248,-9.9004,28.816,14.496
26763.0,-23.248,-10.9,28.816,16.496
26773.0,-23.248,-11.9,30.816,16.496
26783.0,-26.248,-11.9,29.816,16.496
26793.0,-28.248,-13.9,31.816,17.496
26803.0,-29.248,-14.9,30.816,18.496
26813.0,-30.248,-15.9,32.816,17.496
26823.0,-32.248,-16.9,29.816,16.496
26832.0,-33.248,-17.9,29.816,16.496
26842.0,-34.248,-18.9,29.816,16.496
26852.0,-38.248,-19.9,27.816,16.496
26862.0,-41.248,-20.9,27.816,16.496
26872.0,-42.248,-22.9,28.816,15.496
26882.0,-45.248,-23.9,28.816,15.496
26892.0,-48.248,-24.9,28.816,16.496
26902.0,-51.248,-26.9,28.816,16.496
26912.0,-53.248,-27.9,29.816,16.496
26921.0,-55.248,-29.9,29.816,16.496
26931.0,-59.248,-30.9,26.816,15.496
26941.0,-62.248,-32.9,26.816,15.496
26951.0,-67.248,-34.9,26.816,17.496
26961.0,-69.248,-34.9,26.816,17.496
26971.0,-70.248,-36.9,27.816,17.496
26981.0,-72.248,-36.9,27.816,17.496
26991.0,-75.248,-38.9,24.816,16.496
27001.0,-77.248,-40.9,24.816,16.496
27010.0,-83.248,-41.9,21.816,14.496
27020.0,-83.248,-42.9,21.816,14.496
27030.0,-86.248,-43.9,20.816,14.496
27040.0,-87.248,-43.9,20.816,14.496
27050.0,-91.248,-44.9,20.816,14.496
27060.0,-93.248,-45.9,20.816,14.496
27070.0,-96.248,-47.9,20.816,14.496
27080.0,-98.248,-47.9,20.816,14.496
27089.0,-99.248,-47.9,18.816,12.496
27099.0,-101.25,-49.9,17.816,13.496
27109.0,-103.25,-49.9,15.816,13.496
27119.0,-107.25,-51.9,15.816,12.496
27129.0,-110.25,-51.9,15.816,12.496
27139.0,-111.25,-53.9,12.816,12.496
27149.0,-114.25,-54.9,14.816,12.496
27159.0,-118.25,-54.9,13.816,12.496
27169.0,-120.25,-56.9,14.816,11.496
27178.0,-123.25,-58.9,12.816,10.496
27188.0,-126.25,-58.9,11.816,12.496
27198.0,-129.25,-60.9,11.816,10.496
27208.0,-130.25,-61.9,12.816,10.496
27218.0,-132.25,-61.9,9.8155,9.4963
27228.0,-134.25,-61.9,9.8155,10.496
27238.0,-137.25,-63.9,7.8155,12.496
27248.0,-140.25,-65.9,11.816,12.496
27258.0,-143.25,-67.9,9.8155,11.496
27267.0,-150.25,-68.9,7.8155,9.4963
27277.0,-151.25,-68.9,10.816,10.496
27287.0,-152.25,-69.9,4.8155,9.4963
27297.0,-150.25,-67.9,4.8155,8.4963
27307.0,-150.25,-67.9,3.8155,7.4963
27317.0,-137.25,-59.9,4.8155,10.496
27327.0,-137.25,-59.9,4.8155,9.4963
27337.0,-127.25,-52.9,3.8155,10.496
27347.0,-127.25,-52.9,0.81553,7.4963
27356.0,-116.25,-46.9,-0.18447,7.4963
27366.0,-116.25,-46.9,-0.18447,8.4963
27376.0,-106.25,-40.9,-0.18447,8.4963
27386.0,-106.25,-40.9,4.8155,10.496
27396.0,-93.248,-35.9,9.8155,10.496
27406.0,-93.248,-35.9,12.816,11.496
27416.0,-85.248,-32.9,12.816,11.496
27426.0,-85.248,-32.9,15.816,11.496
27435.0,-80.248,-30.9,15.816,10.496
27445.0,-80.248,-30.9,14.816,10.496
27455.0,-77.248,-28.9,15.816,9.4963
27465.0,-77.248,-28.9,17.816,9.4963
27475.0,-75.248,-28.9,18.816,9.4963
27485.0,-72.248,-27.9,17.816,11.496
27495.0,-71.248,-27.9,19.816,10.496
27505.0,-72.248,-27.9,19.816,10.496
27515.0,-70.248,-27.9,18.816,9.4963
27524.0,-70.248,-27.9,21.816,11.496
27534.0,-69.248,-27.9,20.816,11.496
27544.0,-70.248,-27.9,19.816,10.496
27554.0,-70.248,-28.9,21.816,10.496
27564.0,-75.248,-31.9,22.816,11.496
27574.0,-73.248,-31.9,22.816,13.496
27584.0,-73.248,-30.9,24.816,12.496
27594.0,-73.248,-31.9,26.816,12.496
27604.0,-74.248,-31.9,25.816,12.496
27613.0,-72.248,-29.9,25.816,13.496
27623.0,-72.248,-30.9,23.816,12.496
27633.0,-75.248,-32.9,25.816,13.496
27643.0,-74.248,-30.9,25.816,12.496
27653.0,-73.248,-31.9,24.816,14.496
27663.0,-75.248,-32.9,25.816,14.496
27673.0,-77.248,-31.9,25.816,14.496
27683.0,-76.248,-32.9,26.816,13.496
27693.0,-79.248,-32.9,27.816,14.496
27702.0,-79.248,-34.9,26.816,14.496
27712.0,-81.248,-35.9,26.816,14.496
27722.0,-79.248,-35.9,24.816,13.496
27732.0,-81.248,-33.9,24.816,13.496
27742.0,-82.248,-35.9,24.816,14.496
27752.0,-83.248,-35.9,24.816,12.496
27762.0,-86.248,-36.9,25.816,14.496
27772.0,-85.248,-37.9,26.816,14.496
27781.0,-87.248,-38.9,25.816,14.496
27791.0,-89.248,-39.9,26.816,14.496
27801.0,-91.248,-41.9,25.816,14.496
27811.0,-93.248,-40.9,26.816,14.496
27821.0,-96.248,-42.9,25.816,14.496
27831.0,-97.248,-42.9,23.816,15.496
27841.0,-98.248,-43.9,25.816,15.496
27851.0,-101.25,-44.9,22.816,14.496
27861.0,-104.25,-44.9,24.816,15.496
27870.0,-106.25,-45.9,25.816,16.496
27880.0,-108.25,-46.9,23.816,15.496
27890.0,-112.25,-49.9,23.816,16.496
27900.0,-114.25,-49.9,22.816,16.496
27910.0,-115.25,-50.9,22.816,16.496
27920.0,-116.25,-50.9,22.816,16.496
27930.0,-117.25,-50.9,22.816,16.496
27940.0,-119.25,-52.9,22.816,15.496
27950.0,-120.25,-51.9,22.816,15.496
27959.0,-123.25,-53.9,21.816,16.496
27969.0,-125.25,-52.9,21.816,16.496
27979.0,-124.25,-53.9,19.816,15.496
27989.0,-126.25,-52.9,19.816,15.496
27999.0,-127.25,-54.9,20.816,15.496
28009.0,-127.25,-53.9,20.816,15.496
28019.0,-130.25,-54.9,16.816,15.496
28029.0,-132.25,-55.9,16.816,15.496
28039.0,-135.25,-56.9,16.816,13.496
28048.0,-138.25,-57.9,16.816,13.496
28058.0,-139.25,-58.9,15.816,15.496
28068.0,-141.25,-59.9,15.816,15.496
28078.0,-144.25,-59.9,13.816,13.496
28088.0,-144.25,-59.9,13.816,13.496
28098.0,-148.25,-60.9,14.816,14.496
28108.0,-149.25,-62.9,14.816,14.496
28118.0,-150.25,-61.9,14.816,15.496
28127.0,-152.25,-63.9,14.816,15.496
28137.0,-155.25,-64.9,14.816,14.496
28147.0,-160.25,-66.9,11.816,13.496
28157.0,-162.25,-67.9,12.816,14.496
28167.0,-163.25,-66.9,10.816,13.496
28177.0,-165.25,-67.9,10.816,13.496
28187.0,-163.25,-66.9,9.8155,14.496
28197.0,-163.25,-66.9,9.8155,12.496
28207.0,-153.25,-59.9,7.8155,12.496
28216.0,-153.25,-59.9,6.8155,12.496
28226.0,-143.25,-52.9,4.8155,12.496
28236.0,-143.25,-52.9,3.8155,11.496
28246.0,-130.25,-43.9,2.8155,13.496
28256.0,-130.25,-43.9,3.8155,11.496
28266.0,-117.25,-36.9,3.8155,12.496
28276.0,-117.25,-36.9,4.8155,14.496
28286.0,-104.25,-29.9,9.8155,15.496
28296.0,-104.25,-29.9,12.816,17.496
28305.0,-90.248,-23.9,16.816,17.496
28315.0,-90.248,-23.9,16.816,17.496
28325.0,-82.248,-19.9,17.816,16.496
28335.0,-82.248,-19.9,17.816,15.496
28345.0,-77.248,-17.9,18.816,15.496
28355.0,-77.248,-17.9,18.816,15.496
28365.0,-73.248,-15.9,20.816,17.496
28375.0,-74.248,-15.9,21.816,15.496
28385.0,-73.248,-16.9,25.816,16.496
28394.0,-72.248,-14.9,24.816,16.496
28404.0,-69.248,-14.9,24.816,17.496
28414.0,-69.248,-13.9,25.816,16.496
28424.0,-68.248,-12.9,23.816,16.496
28434.0,-68.248,-13.9,20.816,15.496
28444.0,-69.248,-14.9,21.816,16.496
28454.0,-73.248,-16.9,21.816,16.496
28464.0,-74.248,-16.9,22.816,16.496
28473.0,-71.248,-15.9,22.816,17.496
28483.0,-73.248,-15.9,22.816,18.496
28493.0,-73.248,-16.9,23.816,18.496
28503.0,-70.248,-15.9,22.816,16.496
28513.0,-72.248,-16.9,19.816,17.496
28523.0,-73.248,-15.9,18.816,16.496
28533.0,-74.248,-16.9,18.816,15.496
28543.0,-74.248,-18.9,15.816,15.496
28553.0,-75.248,-18.9,16.816,15.496
28562.0,-77.248,-19.9,15.816,16.496
28572.0,-78.248,-20.9,16.816,15.496
28582.0,-80.248,-19.9,16.816,15.496
28592.0,-81.248,-20.9,14.816,15.496
28602.0,-82.248,-21.9,14.816,15.496
28612.0,-84.248,-22.9,14.816,15.496
28622.0,-84.248,-22.9,12.816,15.496
28632.0,-86.248,-23.9,13.816,16.496
28642.0,-88.248,-23.9,14.816,15.496
28651.0,-90.248,-25.9,14.816,15.496
28661.0,-93.248,-26.9,16.816,17.496
28671.0,-97.248,-28.9,15.816,15.496
28681.0,-99.248,-29.9,14.816,16.496
28691.0,-99.248,-29.9,12.816,15.496
28701.0,-102.25,-32.9,13.816,15.496
28711.0,-106.25,-31.9,13.816,15.496
28721.0,-108.25,-32.9,12.816,15.496
28730.0,-109.25,-33.9,10.816,15.496
28740.0,-113.25,-35.9,10.816,16.496
28750.0,-115.25,-36.9,7.8155,14.496
28760.0,-116.25,-37.9,9.8155,14.496
28770.0,-120.25,-37.9,7.8155,13.496
28780.0,-120.25,-38.9,7.8155,14.496
28790.0,-123.25,-40.9,6.8155,14.496
28800.0,-127.25,-40.9,5.8155,13.496
28810.0,-127.25,-40.9,4.8155,13.496
28819.0,-129.25,-43.9,4.8155,14.496
28829.0,-131.25,-42.9,2.8155,13.496
28839.0,-134.25,-43.9,4.8155,14.496
28849.0,-136.25,-43.9,3.8155,13.496
28859.0,-138.25,-45.9,3.8155,15.496
28869.0,-140.25,-44.9,3.8155,14.496
28879.0,-143.25,-46.9,2.8155,14.496
28889.0,-144.25,-46.9,3.8155,14.496
28899.0,-145.25,-48.9,1.8155,13.496
28908.0,-146.25,-48.9,0.81553,13.496
28918.0,-149.25,-49.9,2.8155,14.496
28928.0,-149.25,-49.9,0.81553,14.496
28938.0,-152.25,-49.9,0.81553,13.496
28948.0,-158.25,-51.9,1.8155,11.496
28958.0,-159.25,-52.9,-0.18447,12.496
28968.0,-161.25,-53.9,-0.18447,12.496
28978.0,-162.25,-53.9,-2.1845,12.496
28988.0,-162.25,-52.9,-3.1845,12.496
28997.0,-162.25,-51.9,-3.1845,12.496
29007.0,-155.25,-46.9,-5.1845,11.496
29017.0,-150.25,-43.9,-5.1845,11.496
29027.0,-142.25,-39.9,-5.1845,11.496
29037.0,-135.25,-33.9,-5.1845,11.496
29047.0,-128.25,-30.9,-8.1845,12.496
29057.0,-124.25,-27.9,-8.1845,12.496
29067.0,-117.25,-23.9,-5.1845,12.496
29076.0,-112.25,-19.9,-5.1845,12.496
29086.0,-112.25,-19.9,-0.18447,14.496
29096.0,-100.25,-15.9,-0.18447,14.496
29106.0,-100.25,-15.9,1.8155,14.496
29116.0,-94.248,-11.9,1.8155,14.496
29126.0,-94.248,-11.9,2.8155,13.496
29136.0,-89.248,-10.9,2.8155,13.496
29146.0,-89.248,-10.9,10.816,15.496
29156.0,-86.248,-10.9,10.816,15.496
29165.0,-86.248,-10.9,9.8155,15.496
29175.0,-86.248,-10.9,9.8155,15.496
29185.0,-86.248,-10.9,11.816,16.496
29195.0,-85.248,-10.9,11.816,16.496
29205.0,-85.248,-10.9,11.816,16.496
29215.0,-86.248,-11.9,11.816,16.496
29225.0,-86.248,-11.9,11.816,16.496
29235.0,-86.248,-11.9,10.816,14.496
29245.0,-86.248,-11.9,12.816,15.496
29254.0,-90.248,-13.9,10.816,14.496
29264.0,-94.248,-15.9,12.816,16.496
29274.0,-95.248,-15.9,12.816,16.496
29284.0,-94.248,-15.9,12.816,17.496
29294.0,-96.248,-17.9,14.816,16.496
29304.0,-96.248,-15.9,13.816,18.496
29314.0,-95.248,-16.9,12.816,18.496
29324.0,-96.248,-16.9,10.816,17.496
29334.0,-99.248,-18.9,10.816,16.496
29343.0,-100.25,-17.9,11.816,16.496
29353.0,-101.25,-19.9,9.8155,17.496
29363.0,-102.25,-20.9,9.8155,17.496
29373.0,-105.25,-20.9,10.816,16.496
29383.0,-106.25,-21.9,11.816,18.496
29393.0,-106.25,-22.9,11.816,16.496
29403.0,-109.25,-24.9,12.816,18.496
29413.0,-112.25,-25.9,11.816,17.496
29422.0,-113.25,-27.9,12.816,18.496
29432.0,-116.25,-27.9,14.816,18.496
29442.0,-119.25,-29.9,13.816,17.496
29452.0,-122.25,-30.9,14.816,19.496
29462.0,-124.25,-31.9,14.816,18.496
29472.0,-128.25,-33.9,15.816,18.496
29482.0,-132.25,-34.9,14.816,18.496
29492.0,-134.25,-36.9,14.816,19.496
29502.0,-138.25,-38.9,13.816,18.496
29511.0,-142.25,-39.9,13.816,19.496
29521.0,-144.25,-41.9,13.816,17.496
29531.0,-148.25,-42.9,11.816,17.496
29541.0,-151.25,-45.9,11.816,18.496
29551.0,-154.25,-45.9,11.816,17.496
29561.0,-158.25,-47.9,8.8155,17.496
29571.0,-161.25,-48.9,8.8155,15.496
29581.0,-165.25,-49.9,9.8155,16.496
29591.0,-168.25,-51.9,8.8155,16.496
29600.0,-170.25,-51.9,7.8155,16.496
29610.0,-173.25,-54.9,6.8155,17.496
29620.0,-177.25,-55.9,6.8155,17.496
29630.0,-179.25,-56.9,7.8155,15.496
29640.0,-182.25,-57.9,6.8155,15.496
29650.0,-185.25,-59.9,5.8155,14.496
29660.0,-188.25,-60.9,3.8155,15.496
29670.0,-192.25,-61.9,4.8155,13.496
29680.0,-196.25,-64.9,1.8155,14.496
29689.0,-203.25,-65.9,2.8155,12.496
29699.0,-208.25,-68.9,0.81553,13.496
29709.0,-211.25,-69.9,-0.18447,12.496
29719.0,-212.25,-70.9,-1.1845,13.496
29729.0,-214.25,-71.9,-2.1845,12.496
29739.0,-215.25,-70.9,-3.1845,12.496
29749.0,-213.25,-68.9,-3.1845,10.496
29759.0,-206.25,-65.9,-3.1845,11.496
29768.0,-201.25,-60.9,-6.1845,11.496
29778.0,-196.25,-57.9,-7.1845,11.496
29788.0,-189.25,-54.9,-7.1845,10.496
29798.0,-184.25,-49.9,-5.1845,9.4963
29808.0,-180.25,-48.9,-4.1845,11.496
29818.0,-176.25,-45.9,-3.1845,12.496
29828.0,-173.25,-43.9,0.81553,13.496
29838.0,-166.25,-42.9,4.8155,14.496
29848.0,-163.25,-39.9,5.8155,13.496
29857.0,-159.25,-38.9,6.8155,12.496
29867.0,-155.25,-37.9,5.8155,13.496
29877.0,-153.25,-36.9,8.8155,13.496
29887.0,-153.25,-35.9,9.8155,13.496
29897.0,-150.25,-36.9,11.816,14.496
29907.0,-151.25,-35.9,14.816,14.496
29917.0,-151.25,-35.9,12.816,13.496
29927.0,-150.25,-36.9,13.816,15.496
29937.0,-152.25,-37.9,15.816,15.496
29946.0,-151.25,-37.9,16.816,15.496
29956.0,-151.25,-37.9,14.816,14.496
29966.0,-153.25,-38.9,14.816,14.496
29976.0,-153.25,-38.9,14.816,14.496
29986.0,-159.25,-41.9,12.816,13.496
29996.0,-159.25,-41.9,12.816,13.496
