t,lead_I,lead_II,v3,v4
0.2,6851,-60263,175719,24378
2.2,6856,-59904,175905,24439
4.2,7609,-57736,176579,24309
6.2,7652,-56602,177824,24903
8.2,6695,-57670,178947,26079
10.2,6091,-58829,179377,26786
12.2,6114,-59538,179202,26953
14.2,6249,-60685,178554,26961
16.2,6833,-61245,177523,26558
18.2,7817,-60219,176690,25818
20.2,8091,-58988,176482,25334
22.2,7572,-58432,176670,25151
24.2,7443,-57478,177251,25185
26.2,7795,-56269,178370,25758
28.2,7556,-56580,179311,26584
30.2,6647,-58386,179393,26941
32.23,6153,-59818,179083,27034
34.25,6572,-60217,178753,27257
36.28,7276,-60227,177995,27062
38.3,7537,-59952,177033,26253
40.3,7433,-59066,176737,25686
42.3,7494,-57713,177182,25745
44.3,7587,-56557,177889,25998
46.3,7098,-56401,178707,26367
48.3,6444,-57245,179423,26962
50.3,6772,-58031,179669,27444
52.3,7821,-58408,179433,27562
54.3,8209,-59243,178775,27343
56.3,7921,-60300,177756,26775
58.3,8074,-60075,176971,26143
60.3,8551,-58606,176967,25941
62.3,8409,-57398,177430,26074
64.3,7946,-56786,177957,26188
66.3,7991,-56334,178614,26423
68.3,8144,-56516,179219,26894
70.3,7728,-57558,179395,27287
72.3,7276,-58520,179240,27491
74.3,7375,-58979,178880,27564
76.3,7381,-59465,178161,27272
78.3,6796,-59815,177369,26629
80.3,6511,-59201,177105,26163
82.3,7256,-57769,177321,26033
84.3,8164,-56666,177592,25918
86.3,8140,-56578,177941,25912
88.3,7391,-57228,178483,26335
90.3,6681,-58160,178859,26881
92.3,6319,-59145,178733,27073
94.3,6461,-59746,178307,27034
96.3,7163,-59515,177843,26929
98.3,7865,-58886,177243,26458
100.3,7864,-58570,176624,25688
102.3,7295,-58242,176611,25384
104.3,6893,-57438,177353,25768
106.3,7014,-56950,178025,26107
108.3,7349,-57479,178122,26082
110.3,7412,-58373,178127,26231
112.3,7101,-59079,178232,26639
114.3,6844,-59740,177925,26711
116.3,7019,-59918,177279,26401
118.3,7310,-59216,176939,26170
120.3,7260,-58558,176857,25934
122.3,7124,-58563,176695,25467
124.3,7192,-58418,176858,25262
126.3,6977,-57909,177630,25730
128.3,6301,-57978,178315,26347
130.3,5963,-58741,178320,26523
132.3,6104,-59578,177927,26410
134.3,5910,-60360,177523,26337
136.3,5726,-60586,177229,26348
138.3,6681,-59460,177163,26391
140.3,8055,-57878,177190,26290
142.3,8154,-57521,177002,25850
144.3,7230,-58101,176848,25405
146.3,6693,-58251,177241,25541
148.3,6805,-57970,177933,26141
150.3,7096,-58041,178240,26567
152.3,7288,-58651,178054,26631
154.3,7076,-59597,177660,26535
156.3,6651,-60307,177166,26296
158.3,6799,-59954,176750,25964
160.3,7422,-58701,176726,25822
162.3,7574,-57680,177043,25908
164.3,7272,-57268,177418,26018
166.3,7234,-57060,177806,26180
168.3,7273,-57256,178156,26446
170.3,6919,-58174,178187,26585
172.33,6611,-59099,177861,26517
174.35,6665,-59319,177499,26474
176.38,6445,-59261,177271,26493
178.4,5810,-59317,177144,26423
180.4,5756,-59008,177140,26292
182.4,6629,-58267,177190,26124
184.4,7417,-57862,177168,25863
186.4,7523,-57915,177274,25771
188.4,7424,-57833,177722,26148
190.4,7277,-57772,178196,26718
192.4,6793,-58230,178296,27035
194.4,6404,-58617,178131,27129
196.4,6791,-58203,177909,27116
198.4,7655,-57613,177540,26829
200.4,8220,-57646,177082,26307
202.4,8199,-57875,176907,25959
204.4,7682,-57694,177189,26006
206.4,6933,-57381,177731,26340
208.4,6383,-57341,178280,26814
210.4,6230,-57494,178617,27236
212.4,6358,-57724,178581,27394
214.4,6692,-58004,178266,27316
216.4,7112,-58135,177914,27165
218.4,7314,-57931,177600,26927
220.4,7223,-57487,177332,26592
222.4,7147,-57059,177246,26353
224.4,7264,-56825,177390,26313
226.4,7325,-56800,177612,26368
228.4,7004,-56998,177813,26486
230.4,6446,-57524,177938,26657
232.4,6291,-58178,177835,26721
234.4,6829,-58364,177553,26673
236.4,7360,-57989,177389,26729
238.4,7182,-57753,177333,26790
240.4,6822,-57889,177102,26523
242.4,7079,-57766,176858,26111
244.4,7416,-57343,177004,26044
246.4,6962,-57399,177345,26240
248.4,6392,-57895,177440,26316
250.4,6789,-57952,177468,26422
252.4,7539,-57606,177713,26799
254.4,7503,-57730,177785,27023
256.4,7112,-58338,177319,26679
258.4,7269,-58648,176755,26155
260.4,7594,-58452,176607,25962
262.4,7466,-58126,176744,25984
264.4,7237,-57878,176886,25959
266.4,7300,-57844,176997,25916
268.4,7428,-58150,177051,25909
270.4,7395,-58535,177077,25986
272.4,7079,-58755,177178,26225
274.4,6432,-59127,177147,26382
276.4,6058,-59715,176701,26087
278.4,6589,-59783,176171,25593
280.4,7308,-59078,176103,25457
282.4,7153,-58441,176388,25627
284.4,6644,-58399,176595,25690
286.4,6752,-58581,176682,25646
288.4,6982,-58748,176815,25740
290.4,6633,-58985,176980,25986
292.4,6334,-59197,177008,26151
294.4,6525,-59447,176707,25992
296.4,6461,-59866,176201,25606
298.4,6080,-59951,175972,25421
300.4,6461,-59255,176126,25507
302.4,7509,-58366,176237,25479
304.4,7690,-57996,176290,25397
306.4,6671,-58054,176670,25687
308.4,5838,-58326,177109,26099
310.4,5885,-58826,176997,26048
312.43,6141,-59253,176551,25749
314.45,6298,-59228,176397,25759
316.48,6626,-58990,176464,25923
318.5,6727,-59057,176350,25811
320.5,6149,-59396,176132,25529
322.5,5679,-59522,176083,25368
324.5,6150,-59311,176172,25305
326.5,6871,-59145,176291,25302
328.5,6896,-59133,176490,25488
330.5,6545,-59021,176719,25808
332.5,6468,-58956,176760,25974
334.5,6580,-59223,176585,25920
336.5,6688,-59475,176375,25805
338.5,6835,-59384,176150,25607
340.5,6819,-59301,175891,25292
342.5,6442,-59322,175893,25198
344.5,6074,-58978,176345,25547
346.5,6152,-58424,176818,25933
348.5,6453,-58372,176852,25946
350.5,6542,-58761,176663,25824
352.5,6524,-58929,176619,25899
354.5,6721,-58815,176583,25987
356.5,6963,-58854,176334,25830
358.5,6949,-59092,176093,25607
360.5,6825,-59151,176130,25579
362.5,6756,-58874,176275,25620
364.5,6586,-58620,176238,25468
366.5,6342,-58824,176135,25249
368.5,6169,-59433,176265,25297
370.5,5871,-60042,176534,25558
372.5,5563,-60368,176600,25686
374.5,5908,-60301,176506,25691
376.5,6737,-59853,176577,25889
378.5,6985,-59251,176793,26248
380.5,6660,-58702,176870,26457
382.5,6847,-58120,176852,26542
384.5,7700,-57391,176994,26796
386.5,8595,-56574,177266,27241
388.5,9598,-55803,177430,27665
390.5,10812,-55342,177401,27980
392.5,11547,-55358,177266,28259
394.5,11635,-55356,177141,28584
396.5,11907,-54666,177095,28948
398.5,12576,-53509,177090,29252
400.5,12934,-52664,177063,29438
402.5,12782,-52400,177025,29540
404.5,12536,-52488,176977,29546
406.5,12347,-52663,176908,29424
408.5,12234,-52748,176862,29232
410.5,12151,-53006,176711,28878
412.5,11512,-54029,176157,28075
414.5,9988,-55682,175240,26866
416.5,8496,-57048,174406,25724
418.5,7855,-57831,173877,24906
420.5,7465,-58483,173566,24317
422.5,6856,-58906,173562,24011
424.5,6721,-58667,173959,24108
426.5,7018,-58315,174461,24385
428.5,6578,-58708,174821,24615
430.5,5614,-59436,175208,24924
432.5,5568,-59631,175634,25307
434.5,6176,-59625,175739,25416
436.5,6096,-60009,175529,25235
438.5,5832,-60105,175515,25214
440.5,6566,-59213,175845,25479
442.5,7484,-58186,176147,25690
444.5,7284,-58097,176257,25722
446.5,6449,-58673,176325,25728
448.5,5972,-59177,176350,25717
450.5,5917,-59408,176307,25693
452.53,6185,-59333,176354,25810
454.55,6740,-59007,176470,25995
456.58,7049,-58821,176421,25988
458.6,6731,-58948,176246,25844
460.6,6278,-59092,176153,25760
462.6,6305,-59076,176109,25663
464.6,6619,-59054,176068,25530
466.6,6476,-59186,176167,25578
468.6,5724,-59484,176339,25764
470.6,5280,-59730,176341,25809
472.6,5765,-59734,176240,25749
474.6,6286,-59743,176256,25799
476.6,6026,-59894,176334,25895
478.6,5927,-59640,176310,25888
480.6,6788,-58879,176206,25807
482.6,7394,-58587,176103,25706
484.6,6722,-59063,176091,25644
486.6,5941,-59191,176272,25759
488.6,6208,-58572,176535,25993
490.6,6749,-58251,176617,26098
492.6,6649,-58613,176520,26058
494.6,6251,-58894,176454,26062
496.6,5992,-58973,176400,26058
498.6,5875,-59292,176218,25880
500.6,6092,-59444,176041,25656
502.6,6554,-58963,176076,25620
504.6,6584,-58554,176226,25718
506.6,6165,-58837,176285,25779
508.6,6057,-59234,176258,25791
510.6,6205,-59247,176249,25829
512.6,5962,-59168,176322,25954
514.6,5686,-59073,176475,26166
516.6,6025,-58816,176543,26263
518.6,6466,-58727,176364,26064
520.6,6418,-58906,176170,25826
522.6,6238,-58830,176311,25928
524.6,6096,-58540,176605,26186
526.6,5768,-58637,176630,26179
528.6,5670,-58915,176505,26049
530.6,6025,-58827,176605,26191
532.6,6062,-58775,176775,26442
534.6,5727,-59183,176616,26356
536.6,6104,-59409,176260,26027
538.6,7037,-59026,176146,25899
540.6,7095,-58749,176283,25992
542.6,6292,-59004,176342,25986
544.6,6102,-59056,176298,25898
546.6,6902,-58451,176395,26017
548.6,7565,-58007,176576,26245
550.6,7279,-58459,176568,26240
552.6,6466,-59113,176485,26144
554.6,6041,-58950,176652,26350
556.6,6244,-58341,176907,26671
558.6,6528,-58330,176843,26626
560.6,6656,-58732,176580,26345
562.6,7041,-58500,176555,26304
564.6,7651,-57655,176777,26495
566.6,7790,-57275,176942,26630
568.6,7376,-57703,176999,26713
570.6,7170,-58131,177073,26854
572.6,7435,-58045,177155,26976
574.6,7571,-57927,177190,27031
576.6,7281,-58219,177206,27092
578.6,7054,-58507,177238,27163
580.6,7203,-58312,177296,27211
582.6,7380,-57939,177367,27257
584.6,7364,-57851,177378,27251
586.6,7421,-57857,177323,27155
588.6,7607,-57649,177335,27117
590.7,7630,-57468,177427,27221
592.7,7493,-57577,177422,27284
594.7,7408,-57705,177331,27249
596.7,7266,-57582,177381,27335
598.7,6959,-57451,177538,27526
600.7,6820,-57542,177540,27530
602.7,7196,-57552,177416,27362
604.7,7881,-57224,177408,27317
606.7,8276,-56954,177484,27407
608.7,8132,-57094,177504,27459
610.7,7934,-57230,177569,27544
612.7,8108,-57012,177742,27741
614.7,8251,-56878,177811,27854
616.7,7930,-57137,177687,27772
618.7,7504,-57324,177603,27698
620.7,7355,-57109,177719,27798
622.7,7296,-56800,177920,27977
624.7,7243,-56668,178040,28077
626.7,7386,-56701,177995,28017
628.7,7632,-56843,177816,27836
630.7,7764,-56969,177668,27703
632.7,7823,-57031,177636,27692
634.7,7898,-57193,177549,27618
636.7,7973,-57378,177327,27415
638.7,7962,-57304,177212,27329
640.7,7693,-57229,177270,27407
642.7,7234,-57607,177198,27331
644.7,7088,-58013,176986,27111
646.7,7434,-57728,177050,27179
648.7,7590,-57163,177407,27544
650.7,7013,-57314,177532,27672
652.7,6388,-58061,177215,27366
654.7,6708,-58335,176841,27023
656.7,7575,-57802,176790,27003
658.7,7723,-57222,177027,27255
660.7,7115,-57165,177221,27446
662.7,6867,-57402,177077,27281
664.7,7181,-57605,176730,26891
666.7,7236,-57794,176581,26706
668.7,6912,-58021,176666,26786
670.7,6746,-58163,176678,26825
672.7,6717,-58089,176661,26853
674.7,6643,-57819,176860,27101
676.7,6891,-57600,176999,27258
678.7,7526,-57669,176680,26923
680.7,7810,-57862,176287,26515
682.7,7365,-57869,176438,26672
684.7,6777,-57798,176894,27136
686.7,6548,-57915,177015,27257
688.7,6505,-58095,176839,27076
690.7,6581,-58096,176777,27010
692.7,7027,-57993,176783,27034
694.7,7468,-57891,176659,26952
696.7,7138,-57677,176635,26961
698.7,6393,-57386,176910,27249
700.7,6304,-57379,177112,27475
702.7,6703,-57846,176899,27282
704.7,6601,-58351,176622,26980
706.7,6193,-58285,176754,27071
708.7,6342,-57747,177085,27410
710.7,6835,-57389,177113,27467
712.7,6993,-57434,176843,27203
714.7,6943,-57625,176635,27004
716.7,7018,-57894,176600,27012
718.7,7122,-58121,176633,27080
720.7,7190,-57869,176707,27150
722.7,7199,-57297,176822,27241
724.7,6937,-57271,176903,27296
726.7,6588,-57858,176880,27242
728.7,6744,-58143,176734,27075
730.8,7284,-57858,176557,26916
732.8,7369,-57596,176585,27002
734.8,6887,-57530,176879,27354
736.8,6642,-57455,177088,27587
738.8,6900,-57524,176941,27436
740.8,7033,-57761,176724,27201
742.8,6803,-57754,176769,27213
744.8,6811,-57460,176866,27273
746.8,7388,-57213,176729,27125
748.8,7920,-56993,176607,27010
750.8,7699,-56788,176807,27207
752.8,6946,-57003,177093,27497
754.8,6483,-57554,177135,27580
756.8,6585,-57695,177055,27547
758.8,6806,-57325,177032,27524
760.8,6925,-57084,176945,27398
762.8,7094,-57096,176803,27208
764.8,7089,-57065,176839,27208
766.8,6640,-57120,177008,27364
768.8,6271,-57319,177068,27444
770.8,6508,-57246,177071,27487
772.8,6905,-56866,177154,27608
774.8,6958,-56715,177186,27667
776.8,6914,-56975,177056,27557
778.8,6957,-57289,176882,27405
780.8,6888,-57277,176802,27338
782.8,6810,-56808,176892,27429
784.8,6938,-56231,177127,27672
786.8,7058,-56194,177244,27811
788.8,6955,-56698,177076,27667
790.8,6780,-56967,176938,27547
792.8,6728,-56698,177091,27725
794.8,6914,-56456,177202,27870
796.8,7326,-56615,176933,27636
798.8,7599,-56929,176561,27294
800.8,7397,-57188,176486,27238
802.8,7054,-57387,176617,27378
804.8,7107,-57395,176636,27400
806.8,7353,-57168,176518,27265
808.8,7192,-56989,176488,27202
810.8,6740,-57022,176613,27311
812.8,6654,-57113,176647,27365
814.8,6921,-57259,176420,27167
816.8,6947,-57568,176192,26952
818.8,6843,-57772,176265,27019
820.8,7285,-57579,176453,27189
822.8,8053,-57279,176429,27145
824.8,8202,-57259,176294,26992
826.8,7715,-57391,176300,26971
828.8,7417,-57475,176351,26991
830.8,7323,-57700,176258,26894
832.8,6756,-58173,176109,26779
834.8,6060,-58494,176053,26764
836.8,6355,-58243,176040,26768
838.8,7460,-57670,175989,26706
840.8,7892,-57479,175970,26661
842.8,7241,-57882,176019,26687
844.8,6673,-58353,175979,26647
846.8,6715,-58498,175794,26482
848.8,6583,-58471,175737,26446
850.8,6055,-58407,175961,26691
852.8,5841,-58352,176111,26871
854.8,5899,-58658,175910,26695
856.8,5580,-59283,175727,26515
858.8,5356,-59259,175961,26734
860.8,6148,-58208,176301,27058
862.83,7291,-57411,176228,26971
864.85,7332,-57861,175865,26584
866.88,6445,-58593,175727,26411
868.9,6131,-58521,175836,26513
870.9,6731,-58322,175754,26477
872.9,7041,-58790,175502,26282
874.9,6542,-59022,175673,26474
876.9,6220,-58165,176334,27128
878.9,6534,-57340,176675,27469
880.9,6561,-57855,176267,27059
882.9,6086,-58903,175710,26482
884.9,6217,-58999,175574,26337
886.9,6971,-58378,175694,26479
888.9,6991,-58136,175821,26638
890.9,6313,-58249,175988,26828
892.9,6382,-58119,176070,26931
894.9,7135,-57897,175864,26746
896.9,7129,-58020,175604,26499
898.9,6314,-58377,175645,26547
900.9,5962,-58614,175827,26732
902.9,6397,-58561,175810,26715
904.9,6804,-58336,175728,26624
906.9,6689,-58365,175851,26715
908.9,6351,-58782,176019,26852
910.9,6344,-58929,176025,26873
912.9,6837,-58363,176019,26926
914.9,7340,-57788,176090,27043
916.9,7261,-57936,176054,27011
918.9,6625,-58479,175929,26869
920.9,5918,-58862,175921,26830
922.9,5660,-59045,175924,26769
924.9,6170,-59002,175730,26494
926.9,7037,-58679,175548,26249
928.9,7167,-58483,175669,26321
930.9,6276,-58768,175931,26545
932.9,5499,-59148,176045,26668
934.9,5702,-59087,176063,26745
936.9,6370,-58620,176158,26910
938.9,6821,-58022,176313,27156
940.9,7140,-57389,176448,27446
942.9,7437,-56889,176541,27735
944.9,7528,-56780,176572,27959
946.9,7689,-56895,176509,28117
948.9,8547,-56686,176369,28248
950.9,10037,-56013,176206,28364
952.9,11432,-55242,176114,28547
954.9,12376,-54474,176180,28923
956.9,13027,-53558,176304,29379
958.9,13373,-52795,176252,29626
960.9,13315,-52554,176046,29670
962.9,13179,-52432,175990,29801
964.9,13315,-51994,176104,29994
966.9,13548,-51790,175995,29862
968.9,13564,-52410,175504,29288
970.9,13154,-53371,174974,28598
972.9,11870,-54037,174689,28029
974.9,9697,-54672,174485,27474
976.9,7893,-55723,174078,26750
978.9,7482,-56959,173513,25908
980.9,7524,-57894,173182,25291
982.9,6753,-58387,173362,25202
984.9,5757,-58620,173787,25444
986.9,5602,-58824,174011,25552
988.9,5885,-59017,174101,25518
990.9,5879,-59066,174406,25687
992.9,5834,-59055,174801,26011
994.9,6042,-59121,174962,26176
996.9,6299,-58957,175062,26273
998.9,6566,-58342,175367,26531
1000.9,6827,-57872,175640,26756
1002.93,6782,-58086,175672,26757
1004.95,6534,-58458,175719,26767
1006.98,6527,-58403,175880,26898
1009.0,6601,-58274,175876,26899
1011.0,6336,-58411,175725,26761
1013.0,5968,-58538,175725,26754
1015.0,5862,-58619,175829,26849
1017.0,5836,-58846,175867,26894
1019.0,5709,-58933,175947,26981
1021.0,5724,-58783,175988,27019
1023.0,6112,-58860,175702,26727
1025.0,6666,-58966,175438,26452
1027.0,6788,-58439,175803,26819
1029.0,6192,-57804,176404,27450
1031.0,5573,-57979,176394,27475
1033.0,5744,-58435,175947,27041
1035.0,6343,-58380,175756,26847
1037.0,6650,-58276,175763,26854
1039.0,6894,-58452,175664,26745
1041.0,7337,-58358,175652,26708
1043.0,7383,-58095,175810,26854
1045.0,6758,-58328,175853,26920
1047.0,6031,-58769,175790,26899
1049.0,5535,-58801,175845,26978
1051.0,5366,-58672,175889,27016
1053.0,5920,-58646,175771,26879
1055.0,6812,-58478,175691,26795
1057.0,6643,-58322,175793,26909
1059.0,5329,-58541,175935,27059
1061.0,4704,-58780,175968,27085
1063.0,5493,-58636,175856,26962
1065.0,6151,-58470,175692,26796
1067.0,5830,-58540,175699,26803
1069.0,5713,-58479,175875,26978
1071.0,6356,-58189,175936,27058
1073.0,6622,-58060,175880,27038
1075.0,6109,-58177,175938,27118
1077.0,5894,-58327,175923,27091
1079.0,6351,-58441,175575,26737
1081.0,6595,-58414,175361,26547
1083.0,6248,-58151,175759,26958
1085.0,5949,-57940,176240,27405
1087.0,6169,-57997,176139,27256
1089.0,6580,-58062,175805,26917
1091.0,6640,-58031,175836,26982
1093.0,6412,-58152,176029,27207
1095.0,6372,-58369,175982,27167
1097.0,6516,-58409,175854,27029
1099.0,6523,-58244,175930,27094
1101.0,6540,-57900,176122,27283
1103.0,6655,-57555,176196,27356
1105.0,6432,-57697,176095,27251
1107.0,6038,-58233,175964,27111
1109.0,6210,-58330,175986,27126
1111.0,6687,-57906,176144,27290
1113.0,6726,-57756,176227,27406
1115.0,6656,-57973,176153,27381
1117.0,6831,-58031,176073,27332
1119.0,6687,-57982,176118,27374
1121.0,6388,-58013,176248,27483
1123.0,6839,-57889,176342,27562
1125.0,7424,-57729,176362,27581
1127.0,6895,-57903,176403,27633
1129.0,6082,-58098,176525,27774
1131.0,6443,-57908,176611,27880
1133.0,7284,-57723,176565,27849
1135.0,7365,-57875,176481,27775
1137.0,7164,-58004,176464,27773
1139.0,7262,-57890,176533,27856
1141.0,6981,-57734,176740,28069
1143.03,6242,-57597,177026,28359
1145.05,6199,-57506,177086,28422
1147.08,7057,-57619,176835,28161
1149.1,7617,-57743,176692,28010
1151.1,7414,-57484,176928,28267
1153.1,7222,-57025,177188,28564
1155.1,7421,-56849,177162,28548
1157.1,7632,-56890,177107,28486
1159.1,7704,-56856,177238,28631
1161.1,7722,-56963,177280,28696
1163.1,7594,-57422,177056,28468
1165.1,7471,-57734,176871,28264
1167.1,7742,-57398,176962,28356
1169.1,8220,-56843,177131,28535
1171.1,8328,-56749,177136,28543
1173.1,8087,-56917,177042,28462
1175.1,7998,-56731,177033,28476
1177.1,8187,-56317,177100,28562
1179.1,8297,-56304,177064,28538
1181.1,8008,-56714,176862,28346
1183.1,7503,-56968,176713,28199
1185.1,7308,-56829,176844,28328
1187.1,7530,-56597,177134,28623
1189.1,7721,-56492,177239,28737
1191.1,7735,-56487,177049,28556
1193.1,7941,-56521,176819,28339
1195.1,8379,-56475,176834,28369
1197.1,8482,-56380,177025,28560
1199.1,7906,-56660,177035,28562
1201.1,7189,-57354,176762,28287
1203.1,7126,-57607,176568,28093
1205.1,7490,-57119,176683,28207
1207.1,7378,-56902,176810,28342
1209.1,7031,-57309,176708,28252
1211.1,7457,-57353,176599,28149
1213.1,8139,-56968,176629,28185
1215.1,7759,-57162,176618,28187
1217.1,6885,-57601,176577,28167
1219.1,6872,-57293,176674,28288
1221.1,7170,-56986,176718,28345
1223.1,6745,-57545,176546,28164
1225.1,6424,-57803,176488,28090
1227.1,7089,-57083,176618,28228
1229.1,7671,-56908,176473,28115
1231.1,7115,-57802,176158,27824
1233.1,6268,-58109,176338,28002
1235.1,6162,-57447,176780,28433
1237.1,6427,-57341,176631,28280
1239.1,6550,-57904,176101,27742
1241.1,6846,-57831,176044,27668
1243.1,7345,-57244,176332,27949
1245.1,7475,-57165,176336,27969
1247.1,7178,-57371,176202,27860
1249.1,6836,-57315,176286,27964
1251.1,6556,-57329,176349,28048
1253.1,6641,-57429,176216,27935
1255.1,7329,-57189,176136,27852
1257.1,7701,-57135,176126,27815
1259.1,7092,-57750,176013,27684
1261.1,6742,-57961,176023,27710
1263.1,7449,-57170,176322,28035
1265.1,7769,-56766,176478,28198
1267.1,7021,-57378,176263,27974
1269.1,6757,-57584,176156,27863
1271.1,7516,-56981,176340,28049
1273.1,7865,-56980,176323,28040
1275.1,7319,-57703,176062,27794
1277.1,6807,-57794,176123,27875
1279.1,6686,-57278,176468,28226
1281.1,6769,-57273,176461,28210
1283.13,7051,-57676,176107,27843
1285.15,7163,-57728,175994,27718
1287.18,6779,-57537,176213,27927
1289.2,6566,-57394,176371,28088
1291.2,7018,-57188,176310,28049
1293.2,7295,-57085,176192,27953
1295.2,6775,-57307,176194,27953
1297.2,6274,-57517,176313,28055
1299.2,6447,-57506,176345,28081
1301.2,6678,-57499,176246,27999
1303.2,6510,-57366,176335,28110
1305.2,6467,-56942,176657,28436
1307.2,6772,-56816,176725,28490
1309.2,6789,-57310,176456,28209
1311.2,6278,-57645,176406,28170
1313.2,5961,-57355,176634,28419
1315.2,6421,-57060,176571,28360
1317.2,7210,-57135,176242,28014
1319.2,7429,-57252,176227,28002
1321.2,6950,-57293,176519,28324
1323.2,6638,-57264,176666,28479
1325.2,7031,-56917,176664,28452
1327.2,7482,-56435,176708,28481
1329.2,7349,-56441,176670,28451
1331.2,7059,-56881,176484,28244
1333.2,7077,-57092,176403,28119
1335.2,7121,-56890,176575,28286
1337.2,7078,-56596,176813,28564
1339.2,7170,-56448,176839,28626
1341.2,7078,-56557,176593,28411
1343.2,6585,-56841,176378,28245
1345.2,6515,-56933,176489,28406
1347.2,7298,-56689,176698,28652
1349.2,7845,-56474,176611,28601
1351.2,7468,-56514,176386,28405
1353.2,7137,-56585,176399,28431
1355.2,7410,-56579,176541,28599
1357.2,7393,-56657,176555,28661
1359.2,6920,-56729,176541,28664
1361.2,7088,-56575,176563,28644
1363.2,7744,-56472,176432,28464
1365.2,7482,-56795,176223,28243
1367.2,6617,-57142,176263,28294
1369.2,6767,-56937,176488,28527
1371.2,7609,-56605,176516,28568
1373.2,7552,-56892,176321,28382
1375.2,6896,-57449,176189,28237
1377.2,6917,-57461,176194,28215
1379.2,7242,-57095,176216,28226
1381.2,7065,-56976,176262,28266
1383.2,6976,-57035,176330,28314
1385.2,7396,-57040,176229,28205
1387.2,7520,-57302,175905,27905
1389.2,7055,-57893,175673,27691
1391.2,6702,-58221,175759,27768
1393.2,6641,-58029,175910,27913
1395.2,6521,-57823,175800,27813
1397.2,6429,-57985,175542,27549
1399.2,6479,-58314,175435,27416
1401.2,6447,-58493,175515,27474
1403.2,6418,-58391,175656,27606
1405.2,6636,-58066,175806,27754
1407.2,6845,-57784,175889,27846
1409.2,6770,-57779,175814,27777
1411.2,6614,-57940,175699,27656
1413.2,6509,-58036,175731,27704
1415.2,6390,-58060,175837,27849
1417.2,6475,-58039,175828,27832
1419.2,6881,-57896,175729,27684
1421.2,7149,-57812,175634,27588
1423.23,6947,-58175,175454,27457
1425.25,6599,-58797,175204,27216
1427.28,6478,-58895,175204,27180
1429.3,6605,-58285,175563,27524
1431.3,6810,-57842,175856,27821
1433.3,6713,-58226,175748,27702
1435.3,6164,-58973,175457,27413
1437.3,5880,-59314,175275,27264
1439.3,6460,-59105,175228,27243
1441.3,7088,-58555,175386,27396
1443.3,6810,-57868,175804,27793
1445.3,6240,-57440,176137,28098
1447.3,6299,-57629,176025,27955
1449.3,6622,-58174,175680,27602
1451.3,6596,-58494,175510,27456
1453.3,6426,-58464,175522,27500
1455.3,6422,-58334,175532,27541
1457.3,6579,-58221,175537,27577
1459.3,6762,-58226,175570,27627
1461.3,6628,-58427,175610,27650
1463.3,6225,-58430,175711,27711
1465.3,6355,-57894,175856,27836
1467.3,7016,-57525,175824,27815
1469.3,7004,-58094,175532,27544
1471.3,6280,-58875,175282,27324
1473.3,6155,-58820,175346,27438
1475.3,6599,-58406,175578,27725
1477.3,6626,-58389,175721,27898
1479.3,6659,-58275,175762,27943
1481.3,7117,-57887,175738,27912
1483.3,6770,-58201,175596,27739
1485.3,5441,-59147,175444,27524
1487.3,5002,-59415,175458,27458
1489.3,5789,-59108,175466,27389
1491.3,6177,-59329,175260,27111
1493.3,6059,-59587,175118,26926
1495.3,6412,-59036,175323,27146
1497.3,6692,-58592,175612,27489
1499.3,6432,-58799,175799,27736
1501.3,6704,-58450,176135,28165
1503.3,7527,-57410,176553,28748
1505.3,7591,-57077,176609,29020
1507.3,7347,-57226,176416,29041
1509.3,8170,-56491,176477,29325
1511.3,9358,-55418,176701,29808
1513.3,9938,-55258,176625,29993
1515.3,10930,-55337,176290,29901
1517.3,12610,-54575,176148,30022
1519.3,13224,-53477,176362,30525
1521.3,12616,-52851,176582,31000
1523.3,12809,-52609,176403,31026
1525.3,13962,-52497,176009,30811
1527.3,14177,-52485,175964,30878
1529.3,13289,-52549,176238,31142
1531.3,12746,-52850,176197,30992
1533.3,12567,-53553,175627,30255
1535.3,11746,-54414,174901,29281
1537.3,10357,-55230,174221,28292
1539.3,9007,-56206,173593,27367
1541.3,7783,-57293,173203,26714
1543.3,6854,-57954,173167,26410
1545.3,6481,-58087,173289,26277
1547.3,6318,-58260,173413,26208
1549.3,6035,-58642,173610,26256
1551.3,5988,-58764,173906,26422
1553.3,6355,-58572,174207,26628
1555.3,6589,-58626,174466,26822
1557.3,6264,-59065,174703,26991
1559.3,5681,-59391,174903,27128
1561.3,5472,-59250,175073,27260
1563.33,5873,-58805,175297,27467
1565.35,6339,-58518,175538,27692
1567.38,6210,-58766,175557,27693
1569.4,5779,-59329,175314,27439
1571.4,5866,-59515,175150,27285
1573.4,6452,-59095,175271,27436
1575.4,6728,-58502,175517,27704
1577.4,6303,-58107,175782,27961
1579.4,5663,-58050,176009,28164
1581.4,5614,-58452,175909,28035
1583.4,6397,-59019,175433,27518
1585.4,7212,-59059,175144,27190
1587.4,7176,-58436,175419,27464
1589.4,6684,-57795,175853,27934
1591.4,6680,-57681,175950,28057
1593.4,6890,-58084,175797,27892
1595.4,6361,-58706,175724,27788
1597.4,5433,-59179,175772,27813
1599.4,5433,-59201,175736,27766
1601.4,6471,-58761,175591,27620
1603.4,7155,-58259,175584,27626
1605.4,6767,-58291,175709,27768
1607.4,6252,-58936,175606,27671
1609.4,6380,-59403,175334,27405
1611.4,6425,-59132,175419,27515
1613.4,5878,-58759,175772,27898
1615.4,5823,-58872,175753,27886
1617.4,6932,-58833,175468,27602
1619.4,7776,-58233,175591,27745
1621.4,7101,-58003,175983,28147
1623.4,6054,-58622,175970,28116
1625.4,6158,-59047,175668,27801
1627.4,6833,-58648,175657,27799
1629.4,6830,-58253,175832,27966
1631.4,6318,-58441,175753,27859
1633.4,5935,-58738,175576,27680
1635.4,5574,-58896,175647,27786
1637.4,5329,-59145,175794,27952
1639.4,5735,-59236,175757,27897
1641.4,6398,-58945,175678,27803
1643.4,6313,-58885,175664,27798
1645.4,5702,-59297,175617,27755
1647.4,5624,-59234,175666,27785
1649.4,6074,-58416,175936,28043
1651.4,6222,-58138,176090,28210
1653.4,6000,-58900,175932,28072
1655.4,6065,-59344,175842,27994
1657.4,6545,-58839,175940,28108
1659.4,6803,-58557,175833,28027
1661.4,6549,-58953,175601,27807
1663.4,6510,-58941,175710,27905
1665.4,7196,-58323,175938,28129
1667.4,7622,-58251,175832,28040
1669.4,6815,-58832,175758,27977
1671.4,5841,-58917,176102,28311
1673.4,6162,-58329,176334,28547
1675.4,7019,-58038,176080,28331
1677.4,6944,-58295,175882,28171
1679.4,6462,-58412,176066,28360
1681.4,6698,-58137,176204,28466
1683.4,7030,-57959,176108,28312
1685.4,6616,-58199,176064,28208
1687.4,6318,-58579,176082,28213
1689.4,6865,-58737,176018,28173
1691.4,7237,-58678,176081,28252
1693.4,6766,-58460,176448,28636
1695.4,6548,-57924,176833,29082
1697.4,7283,-57273,176906,29223
1699.4,8025,-57201,176717,29048
1701.4,8012,-57824,176520,28831
1703.43,7660,-58296,176484,28797
1705.45,7398,-58047,176626,28960
1707.48,7207,-57541,176816,29164
1709.5,7120,-57401,176874,29236
1711.5,7199,-57509,176793,29168
1713.5,7407,-57411,176749,29108
1715.5,7646,-57202,176784,29109
1717.5,7593,-57359,176746,29055
1719.5,7165,-57703,176675,28984
1721.5,7083,-57517,176806,29113
1723.5,7787,-56933,177082,29382
1725.5,8393,-56862,177208,29512
1727.5,8152,-57367,177168,29499
1729.5,7737,-57698,177112,29490
1731.5,7758,-57688,177030,29441
1733.5,7694,-57565,177014,29415
1735.5,7315,-57237,177214,29584
1737.5,7233,-56980,177323,29688
1739.5,7524,-57314,177021,29411
1741.5,7646,-57657,176759,29168
1743.5,7610,-57184,177031,29445
1745.5,7733,-56690,177385,29798
1747.5,7853,-57190,177262,29664
1749.5,7795,-57840,176995,29377
1751.5,7621,-57653,177033,29403
1753.5,7197,-57375,177164,29530
1755.5,6666,-57612,177168,29527
1757.5,6818,-57532,177176,29536
1759.5,7739,-56933,177120,29503
1761.5,8226,-56848,176877,29280
1763.5,7690,-57316,176785,29194
1765.5,7087,-57336,177048,29461
1767.5,7101,-57098,177141,29553
1769.5,7228,-57528,176714,29117
1771.5,7153,-58197,176305,28715
1773.5,7181,-58129,176401,28843
1775.5,7236,-57654,176700,29152
1777.5,7107,-57529,176798,29230
1779.5,7161,-57563,176744,29178
1781.5,7499,-57485,176650,29124
1783.5,7487,-57616,176519,29032
1785.5,7061,-57856,176498,29019
1787.5,6997,-57616,176685,29191
1789.5,7415,-57061,176870,29357
1791.5,7611,-56928,176832,29324
1793.5,7369,-57306,176614,29132
1795.5,6992,-57778,176378,28900
1797.5,6548,-58163,176281,28771
1799.5,6255,-58342,176386,28845
1801.5,6641,-58224,176463,28911
1803.5,7388,-58084,176269,28715
1805.5,7346,-58105,176093,28554
1807.5,6424,-57985,176351,28853
1809.5,5929,-57707,176756,29304
1811.5,6441,-57755,176741,29325
1813.5,7014,-58122,176427,29039
1815.5,7032,-58250,176341,28967
1817.5,7043,-58079,176530,29148
1819.5,7184,-58101,176641,29248
1821.5,6714,-58500,176538,29134
1823.5,5879,-58878,176365,28940
1825.5,6203,-58668,176269,28824
1827.5,7771,-57888,176276,28845
1829.5,8381,-57444,176330,28933
1831.5,7020,-57907,176385,29006
1833.5,5817,-58406,176460,29096
1835.5,6485,-58055,176552,29237
1837.5,7516,-57583,176588,29327
1839.5,7230,-57856,176549,29290
1841.5,6657,-58191,176519,29219
1843.53,6924,-57935,176524,29189
1845.55,6946,-57906,176450,29106
1847.58,6036,-58546,176286,28955
1849.6,5740,-58667,176269,28969
1851.6,6934,-57690,176520,29252
1853.6,7884,-57049,176741,29496
1855.6,7188,-57729,176651,29423
1857.6,6205,-58499,176467,29235
1859.6,6550,-58150,176501,29237
1861.6,7365,-57465,176657,29368
1863.6,7271,-57446,176708,29435
1865.6,6930,-57607,176672,29435
1867.6,7329,-57382,176625,29408
1869.6,7618,-57309,176593,29369
1871.6,6906,-57710,176666,29409
1873.6,6074,-57966,176827,29524
1875.6,6042,-57793,176848,29505
1877.6,6319,-57622,176711,29353
1879.6,6421,-57504,176740,29404
1881.6,6689,-57113,177003,29714
1883.6,7142,-56742,177101,29841
1885.6,7229,-56961,176860,29575
1887.6,6946,-57468,176667,29329
1889.6,6859,-57510,176813,29453
1891.6,7028,-57217,177025,29692
1893.6,6999,-57292,176961,29669
1895.6,6846,-57564,176777,29509
1897.6,7117,-57184,176832,29580
1899.6,7674,-56291,177076,29847
1901.6,7741,-56030,177138,29937
1903.6,7206,-56776,176901,29724
1905.6,6711,-57649,176621,29466
1907.6,6511,-57887,176518,29377
1909.6,6411,-57579,176588,29441
1911.6,6551,-57127,176722,29572
1913.6,7099,-56814,176788,29673
1915.6,7503,-56827,176693,29644
1917.6,7206,-57191,176471,29473
1919.6,6743,-57622,176260,29278
1921.6,6943,-57650,176217,29219
1923.6,7430,-57201,176387,29351
1925.6,7293,-56886,176581,29520
1927.6,6790,-57159,176569,29524
1929.6,6745,-57571,176407,29397
1931.6,6880,-57647,176272,29274
1933.6,6621,-57684,176140,29131
1935.6,6606,-57832,176023,28998
1937.6,7310,-57682,176100,29058
1939.6,7580,-57470,176283,29223
1941.6,6705,-57922,176238,29158
1943.6,6104,-58614,176006,28905
1945.6,6855,-58547,175893,28785
1947.6,7684,-58087,175880,28802
1949.6,7322,-58202,175817,28804
1951.6,6628,-58556,175825,28879
1953.6,6732,-58309,175971,29056
1955.6,7200,-57760,176074,29145
1957.6,7222,-57715,176050,29084
1959.6,6900,-58316,175894,28892
1961.6,6600,-59092,175593,28557
1963.6,6334,-59331,175464,28416
1965.6,6144,-58717,175844,28827
1967.6,6165,-58066,176266,29294
1969.6,6226,-58392,176027,29067
1971.6,6096,-59228,175456,28484
1973.6,6075,-59424,175329,28345
1975.6,6520,-59103,175503,28491
1977.6,6964,-59104,175441,28397
1979.6,6713,-59323,175362,28325
1981.6,6119,-59186,175641,28642
1983.63,6020,-58849,175946,28959
1985.65,6295,-58742,175897,28899
1987.68,6315,-58765,175719,28725
1989.7,6251,-58681,175655,28664
1991.7,6552,-58627,175586,28576
1993.7,6842,-58812,175495,28484
1995.7,6592,-59165,175520,28535
1997.7,6176,-59435,175531,28549
1999.7,6236,-59413,175388,28378
2001.7,6681,-59108,175324,28315
2003.7,6995,-58839,175482,28516
2005.7,6906,-58960,175570,28645
2007.7,6436,-59383,175447,28551
2009.7,5948,-59626,175380,28524
2011.7,6018,-59430,175473,28661
2013.7,6547,-59057,175565,28770
2015.7,6647,-58891,175659,28844
2017.7,6160,-58927,175801,28941
2019.7,6111,-58864,175822,28925
2021.7,6764,-58679,175682,28781
2023.7,6926,-58755,175614,28711
2025.7,6128,-59196,175688,28744
2027.7,5555,-59579,175698,28706
2029.7,5886,-59686,175533,28555
2031.7,6337,-59708,175355,28441
2033.7,6445,-59544,175392,28529
2035.7,6691,-58980,175649,28821
2037.7,7089,-58428,175895,29100
2039.7,7077,-58431,175977,29174
2041.7,6653,-58868,175941,29059
2043.7,6250,-59421,175795,28811
2045.7,6070,-59953,175512,28454
2047.7,6203,-60121,175285,28168
2049.7,6531,-59725,175321,28152
2051.7,6603,-59294,175506,28329
2053.7,6398,-59285,175649,28532
2055.7,6427,-59316,175849,28828
2057.7,6610,-58978,176239,29316
2059.7,6451,-58534,176596,29795
2061.7,6286,-58302,176609,29993
2063.7,6763,-58175,176362,29993
2065.7,7622,-57923,176208,30109
2067.7,8363,-57435,176275,30432
2069.7,9122,-56802,176406,30810
2071.7,10003,-56331,176485,31149
2073.7,10808,-56085,176510,31465
2075.7,11658,-55598,176494,31774
2077.7,12570,-54640,176520,32135
2079.7,12938,-53735,176649,32568
2081.7,12657,-53314,176736,32910
2083.7,12541,-53141,176639,32999
2085.7,12769,-53026,176490,32916
2087.7,12648,-53208,176417,32751
2089.7,12188,-53752,176185,32310
2091.7,11761,-54460,175562,31420
2093.7,10757,-55349,174725,30258
2095.7,8905,-56529,173906,29061
2097.7,7460,-57846,173068,27860
2099.7,6971,-58970,172375,26853
2101.7,6318,-59565,172343,26524
2103.7,5404,-59583,172980,26892
2105.7,5474,-59574,173545,27290
2107.7,6147,-60015,173679,27351
2109.7,5957,-60402,173854,27454
2111.7,5456,-60080,174313,27813
2113.7,5998,-59491,174657,28085
2115.7,6833,-59366,174758,28173
2117.7,6681,-59483,174960,28385
2119.7,6143,-59442,175243,28659
2121.7,6240,-59474,175249,28621
2123.73,6699,-59570,175098,28398
2125.75,6916,-59298,175197,28432
2127.78,6817,-58952,175461,28666
2129.8,6551,-59205,175562,28768
2131.8,6352,-59684,175609,28829
2133.8,6255,-59677,175815,29046
2135.8,5960,-59533,175945,29174
2137.8,5684,-59730,175777,28999
2139.8,6074,-59784,175594,28818
2141.8,6738,-59448,175666,28894
2143.8,6612,-59381,175786,29006
2145.8,5906,-59754,175731,28943
2147.8,5674,-59905,175668,28890
2149.8,6019,-59638,175760,29002
2151.8,6424,-59422,175822,29073
2153.8,6687,-59543,175635,28883
2155.8,6537,-59928,175336,28579
2157.8,5873,-60272,175260,28502
2159.8,5355,-60233,175480,28715
2161.8,5298,-60039,175700,28924
2163.8,5136,-60163,175708,28922
2165.8,4966,-60249,175651,28863
2167.8,5528,-59821,175671,28882
2169.8,6362,-59523,175634,28832
2171.8,6503,-59874,175503,28695
2173.8,6348,-60009,175544,28760
2175.8,6516,-59444,175812,29070
2177.8,6434,-59208,175957,29235
2179.8,5929,-59798,175803,29065
2181.8,5977,-60210,175603,28839
2183.8,6647,-59927,175579,28803
2185.8,6794,-59712,175645,28873
2187.8,6236,-59962,175658,28907
2189.8,5934,-60091,175627,28910
2191.8,6134,-59761,175623,28928
2193.8,6300,-59440,175615,28926
2195.8,6327,-59551,175524,28857
2197.8,6371,-59783,175469,28842
2199.8,6244,-59571,175688,29081
2201.8,6004,-59015,176053,29433
2203.8,6240,-58820,176093,29455
2205.8,6990,-59207,175733,29081
2207.8,7380,-59593,175451,28776
2209.8,6989,-59599,175495,28797
2211.8,6452,-59583,175586,28902
2213.8,6196,-59809,175561,28926
2215.8,5957,-59929,175613,29012
2217.8,5857,-59717,175781,29168
2219.8,6333,-59513,175853,29214
2221.8,6914,-59575,175808,29177
2223.8,6799,-59674,175824,29212
2225.8,6300,-59611,175893,29274
2227.8,6119,-59520,175916,29284
2229.8,6032,-59523,175976,29355
2231.8,5716,-59583,176093,29496
2233.8,5644,-59693,176051,29471
2235.8,5963,-59863,175868,29282
2237.8,5974,-59970,175899,29272
2239.8,5633,-59828,176180,29502
2241.8,5869,-59415,176316,29633
2243.8,6750,-59037,176210,29569
2245.8,7205,-59078,176160,29541
2247.8,7001,-59418,176231,29607
2249.8,6960,-59547,176244,29650
2251.8,7131,-59392,176213,29689
2253.8,6907,-59302,176249,29767
2255.8,6648,-59214,176311,29830
2257.8,7028,-58872,176353,29882
2259.8,7539,-58560,176388,29937
2261.8,7490,-58538,176411,29935
2263.8,7312,-58382,176511,29973
2265.8,7494,-57923,176757,30196
2267.8,7652,-57845,176915,30384
2269.8,7509,-58405,176782,30283
2271.9,7437,-58741,176666,30189
2273.9,7612,-58331,176867,30427
2275.9,7690,-57988,177032,30646
2277.9,7519,-58417,176811,30459
2279.9,7467,-58889,176588,30239
2281.9,7705,-58552,176776,30401
2283.9,7662,-58040,177023,30619
2285.9,6989,-58265,176924,30512
2287.9,6534,-58705,176750,30333
2289.9,7092,-58549,176791,30349
2291.9,7955,-58254,176820,30363
2293.9,8152,-58385,176728,30287
2295.9,7836,-58544,176784,30355
2297.9,7392,-58530,176968,30541
2299.9,6942,-58680,176951,30561
2301.9,6943,-58755,176807,30471
2303.9,7363,-58449,176846,30513
2305.9,7197,-58372,176945,30580
2307.9,6481,-58755,176843,30491
2309.9,6661,-58662,176734,30438
2311.9,7766,-57862,176876,30607
2313.9,8166,-57443,177068,30785
2315.9,7554,-57799,177052,30760
2317.9,7070,-58164,176964,30681
2319.9,6989,-58278,176958,30677
2321.9,6977,-58535,176864,30569
2323.9,7186,-58894,176578,30274
2325.9,7294,-59090,176375,30085
2327.9,6701,-59124,176485,30229
2329.9,6181,-58920,176679,30453
2331.9,6604,-58524,176644,30426
2333.9,6989,-58442,176501,30276
2335.9,6603,-58779,176508,30287
2337.9,6612,-58961,176533,30323
2339.9,7321,-58944,176298,30085
2341.9,7312,-59187,175956,29731
2343.9,6663,-59357,175868,29656
2345.9,6866,-58942,175990,29811
2347.9,7450,-58581,176026,29866
2349.9,6956,-58906,176020,29858
2351.9,6117,-59261,176219,30056
2353.9,6310,-59138,176458,30293
2355.9,6893,-59137,176348,30168
2357.9,6857,-59396,176015,29827
2359.9,6668,-59217,175956,29782
2361.9,6803,-58809,176162,30004
2363.9,6845,-59074,176178,30030
2365.9,6733,-59641,176006,29873
2367.9,6971,-59402,176064,29955
2369.9,7484,-58663,176288,30197
2371.9,7571,-58644,176233,30142
2373.9,6951,-59354,175974,29854
2375.9,6331,-59711,175965,29801
2377.9,6659,-59298,176187,30006
2379.9,7661,-58772,176275,30119
2381.9,7908,-58789,176229,30104
2383.9,7014,-59168,176260,30155
2385.9,6311,-59256,176323,30238
2387.9,6418,-58984,176298,30236
2389.9,6239,-58992,176244,30199
2391.9,5443,-59401,176225,30192
2393.9,5293,-59519,176240,30204
2395.9,6117,-59217,176301,30237
2397.9,6730,-59184,176332,30242
2399.9,6796,-59472,176217,30136
2401.9,6935,-59480,176089,30026
2403.9,6911,-59276,176184,30115
2405.9,6431,-59248,176411,30337
2407.9,6495,-59094,176488,30434
2409.9,7500,-58675,176376,30341
2411.9,8005,-58648,176223,30196
2413.93,7315,-59079,176123,30114
2415.95,6694,-59100,176173,30180
2417.98,6743,-58707,176381,30376
2420.0,6517,-58885,176471,30447
2422.0,5944,-59515,176282,30261
2424.0,6178,-59389,176132,30107
2426.0,7243,-58495,176251,30195
2428.0,7817,-58080,176367,30283
2430.0,7312,-58480,176340,30247
2432.0,6467,-58869,176424,30326
2434.0,6157,-58839,176589,30501
2436.0,6524,-58649,176531,30485
2438.0,6963,-58470,176365,30350
2440.0,6886,-58398,176381,30333
2442.0,6675,-58437,176422,30307
2444.0,7026,-58298,176318,30172
2446.0,7436,-58019,176303,30176
2448.0,6959,-58133,176505,30394
2450.0,6124,-58518,176702,30586
2452.0,6173,-58409,176779,30662
2454.0,6975,-57921,176756,30664
2456.0,7534,-57832,176594,30542
2458.0,7587,-58006,176445,30428
2460.0,7268,-57901,176583,30596
2462.0,6540,-57871,176853,30884
2464.0,5917,-58226,176846,30878
2466.0,6152,-58281,176642,30667
2468.0,6822,-57742,176635,30656
2470.0,6903,-57453,176764,30778
2472.0,6639,-57788,176658,30675
2474.0,6927,-58028,176382,30430
2476.0,7419,-57880,176332,30416
2478.0,7233,-57895,176514,30609
2480.0,6742,-58202,176584,30676
2482.0,6719,-58376,176467,30567
2484.0,6817,-58419,176385,30490
2486.0,6555,-58625,176376,30472
2488.0,6447,-58820,176283,30376
2490.0,6857,-58773,176094,30195
2492.0,7161,-58779,175972,30070
2494.0,6882,-59062,176037,30118
2496.0,6453,-59302,176224,30297
2498.0,6443,-59310,176281,30350
2500.0,6822,-59355,176049,30098
2502.0,7154,-59473,175776,29794
2504.0,7177,-59384,175783,29785
2506.0,7044,-59208,175942,29947
2508.0,6994,-59246,175962,29979
2510.0,7015,-59320,175884,29914
2512.0,6944,-59300,175815,29857
2514.0,6660,-59602,175660,29699
2516.0,6294,-60167,175481,29494
2518.0,6304,-60175,175501,29475
2520.0,6735,-59649,175596,29547
2522.0,6771,-59665,175489,29446
2524.0,6158,-60257,175350,29326
2526.0,6056,-60167,175475,29454
2528.0,6890,-59333,175680,29646
2530.0,7166,-59231,175653,29621
2532.0,6228,-60167,175510,29501
2534.0,5704,-60680,175481,29494
2536.0,6468,-60157,175508,29524
2538.0,7109,-59657,175490,29496
2540.0,6736,-59795,175492,29482
2542.0,6249,-59968,175554,29525
2544.0,6209,-59849,175619,29574
2546.0,6209,-59862,175610,29565
2548.0,6247,-60132,175482,29457
2550.0,6526,-60243,175363,29362
2552.0,6607,-60017,175489,29511
2554.03,6184,-59886,175735,29781
2556.05,5716,-60278,175670,29736
2558.08,5689,-60779,175379,29444
2560.1,6148,-60539,175425,29472
2562.1,6829,-59744,175775,29804
2564.1,7160,-59531,175812,29830
2566.1,6737,-60099,175536,29540
2568.1,6041,-60458,175498,29486
2570.1,5891,-60279,175676,29662
2572.1,6257,-60225,175620,29618
2574.1,6470,-60482,175394,29395
2576.1,6363,-60618,175341,29339
2578.1,6303,-60591,175406,29410
2580.1,6347,-60590,175418,29428
2582.1,6279,-60490,175459,29459
2584.1,6257,-60266,175553,29537
2586.1,6495,-60201,175555,29541
2588.1,6559,-60365,175464,29462
2590.1,6020,-60562,175414,29426
2592.1,5495,-60656,175441,29477
2594.1,5878,-60533,175489,29543
2596.1,6815,-60197,175510,29547
2598.1,7115,-60012,175518,29517
2600.1,6587,-60169,175602,29570
2602.1,6184,-60350,175702,29641
2604.1,6303,-60515,175556,29447
2606.1,6322,-61021,175193,29024
2608.1,6001,-61551,175086,28866
2610.1,5871,-61403,175417,29169
2612.1,6081,-60810,175781,29546
2614.1,6238,-60396,175937,29767
2616.1,6329,-59951,176071,30009
2618.1,6663,-59253,176189,30275
2620.1,7207,-58892,176119,30402
2622.1,7693,-59090,176044,30557
2624.1,8000,-59096,176242,30993
2626.1,8289,-58451,176541,31545
2628.1,8895,-57626,176640,31924
2630.1,9777,-57150,176577,32162
2632.1,10501,-56873,176540,32449
2634.1,11137,-56249,176603,32854
2636.1,12009,-55232,176719,33294
2638.1,12621,-54497,176733,33591
2640.1,12578,-54287,176584,33693
2642.1,12670,-53970,176490,33795
2644.1,13121,-53528,176563,33952
2646.1,12747,-53925,176521,33856
2648.1,11451,-55173,176153,33298
2650.1,10632,-56079,175614,32439
2652.1,10288,-56435,174997,31420
2654.1,9124,-57272,174204,30234
2656.1,7485,-58790,173371,29051
2658.1,6804,-60039,172828,28174
2660.1,6898,-60548,172694,27720
2662.1,6599,-60749,172881,27643
2664.1,5941,-61038,173254,27824
2666.1,5735,-61298,173597,28036
2668.1,6043,-61253,173804,28160
2670.1,6294,-60979,174052,28348
2672.1,6203,-60877,174450,28686
2674.1,5967,-61008,174825,29018
2676.1,5821,-60984,175071,29246
2678.1,5728,-60763,175226,29382
2680.1,5678,-60752,175237,29353
2682.1,5875,-60963,175125,29199
2684.1,6204,-61044,175133,29184
2686.1,6238,-61025,175314,29357
2688.1,6134,-61052,175425,29469
2690.1,6399,-60920,175441,29485
2692.1,6704,-60630,175547,29577
2694.13,6446,-60590,175678,29673
2696.15,6053,-60808,175667,29626
2698.18,6066,-60856,175649,29592
2700.2,5913,-60741,175761,29708
2702.2,5278,-60790,175829,29777
2704.2,5173,-60882,175726,29667
2706.2,6097,-60759,175595,29524
2708.2,6872,-60727,175505,29417
2710.2,6579,-61116,175371,29274
2712.2,5976,-61455,175274,29193
2714.2,6008,-61145,175400,29352
2716.2,6321,-60539,175687,29658
2718.2,6178,-60422,175885,29858
2720.2,5809,-60782,175853,29826
2722.2,5889,-60981,175645,29615
2724.2,6216,-60786,175506,29458
2726.2,5969,-60544,175661,29593
2728.2,5215,-60582,175950,29883
2730.2,5065,-60793,175984,29944
2732.2,6004,-60801,175736,29725
2734.2,7040,-60544,175511,29505
2736.2,7101,-60409,175433,29415
2738.2,6439,-60563,175453,29427
2740.2,5952,-60747,175561,29525
2742.2,5890,-60898,175653,29581
2744.2,5919,-61188,175596,29475
2746.2,5752,-61492,175520,29373
2748.2,5348,-61598,175575,29428
2750.2,5066,-61540,175646,29508
2752.2,5438,-61337,175665,29543
2754.2,6203,-61022,175740,29636
2756.2,6411,-60873,175825,29723
2758.2,6000,-60911,175796,29678
2760.2,5940,-60774,175762,29635
2762.2,6428,-60516,175808,29685
2764.2,6589,-60598,175780,29667
2766.2,6178,-60923,175652,29554
2768.2,5983,-60947,175615,29540
2770.2,6421,-60651,175677,29626
2772.2,6882,-60530,175678,29636
2774.2,6636,-60799,175637,29590
2776.2,5902,-61127,175655,29600
2778.2,5657,-61109,175667,29610
2780.2,6178,-60870,175605,29546
2782.2,6537,-60857,175578,29505
2784.2,6254,-60948,175694,29600
2786.2,6140,-60606,175897,29797
2788.2,6612,-60059,176045,29965
2790.2,6909,-60071,176052,29994
2792.2,6641,-60570,175961,29908
2794.2,6249,-60849,175923,29874
2796.2,5946,-60779,176022,29992
2798.2,5807,-60646,176156,30143
2800.2,6177,-60433,176211,30195
2802.2,6870,-60113,176244,30228
2804.2,7175,-59928,176326,30327
2806.2,7003,-59970,176392,30404
2808.2,6791,-60099,176402,30411
2810.2,6633,-60252,176408,30423
2812.2,6496,-60390,176394,30431
2814.2,6575,-60357,176350,30412
2816.2,6856,-60153,176413,30493
2818.2,6939,-60055,176620,30700
2820.2,6632,-60115,176806,30859
2822.2,6448,-59913,176912,30941
2824.2,7002,-59390,176961,31005
2826.2,7755,-59317,176851,30920
2828.2,7544,-59948,176677,30731
2830.2,6696,-60199,176831,30855
2832.2,6646,-59497,177264,31301
2834.23,7315,-59011,177355,31431
2836.25,7527,-59539,176938,31028
2838.28,7456,-60029,176625,30703
2840.3,7774,-59642,176803,30877
2842.3,7837,-59160,177130,31210
2844.3,7249,-59228,177225,31304
2846.3,7005,-59360,177126,31200
2848.3,7385,-59317,176986,31072
2850.3,7390,-59514,176864,30987
2852.3,6893,-59871,176839,31003
2854.3,6682,-59892,176950,31136
2856.3,6786,-59650,177076,31258
2858.3,6912,-59521,177076,31240
2860.3,7350,-59450,176984,31129
2862.3,7999,-59246,176935,31067
2864.3,8129,-59044,176984,31115
2866.3,7818,-58988,177067,31204
2868.3,7809,-59016,177085,31222
2870.3,7940,-59118,177027,31167
2872.3,7566,-59327,176982,31136
2874.3,7101,-59479,177003,31163
2876.3,7251,-59450,177023,31174
2878.3,7507,-59413,176980,31133
2880.3,7183,-59492,176914,31081
2882.3,6821,-59579,176829,30984
2884.3,6968,-59740,176670,30789
2886.3,6965,-60152,176511,30626
2888.3,6409,-60551,176535,30681
2890.3,6197,-60487,176708,30865
2892.3,6919,-60054,176777,30918
2894.3,7643,-59758,176665,30800
2896.3,7314,-59894,176546,30688
2898.3,6385,-60342,176507,30651
2900.3,6153,-60649,176458,30610
2902.3,6823,-60486,176364,30539
2904.3,7265,-60163,176295,30485
2906.3,7007,-60112,176267,30460
2908.3,6906,-60117,176230,30436
2910.3,7022,-60014,176185,30403
2912.3,6259,-60264,176195,30402
2914.3,5177,-60752,176330,30520
2916.3,5784,-60509,176572,30768
2918.3,7587,-59641,176744,30957
2920.3,7921,-59508,176643,30858
2922.3,6629,-60252,176367,30569
2924.3,5979,-60563,176268,30458
2926.3,6329,-60222,176415,30599
2928.3,6254,-60260,176468,30655
2930.3,5858,-60687,176302,30499
2932.3,6127,-60623,176220,30430
2934.3,6595,-60272,176321,30547
2936.3,6520,-60395,176331,30564
2938.3,6440,-60655,176200,30430
2940.3,6712,-60490,176177,30400
2942.3,6700,-60407,176242,30465
2944.3,6379,-60766,176191,30422
2946.3,6563,-60842,176116,30354
2948.3,7137,-60366,176177,30418
2950.3,7158,-60193,176237,30477
2952.3,6732,-60536,176194,30433
2954.3,6771,-60498,176222,30471
2956.3,7231,-59884,176373,30645
2958.3,7364,-59584,176424,30725
2960.3,7123,-59892,176331,30658
2962.3,6832,-60191,176339,30680
2964.3,6475,-60265,176495,30834
2966.3,6290,-60405,176526,30849
2968.3,6731,-60478,176350,30651
2970.3,7350,-60180,176263,30552
2972.3,7316,-59849,176407,30699
2974.3,6865,-59999,176499,30801
2976.3,6710,-60442,176340,30644
2978.3,6738,-60575,176160,30457
2980.3,6571,-60268,176238,30510
2982.3,6387,-60013,176467,30692
2984.33,6407,-60179,176523,30715
2986.35,6637,-60389,176350,30557
2988.38,7096,-60089,176251,30496
2990.4,7433,-59584,176422,30684
2992.4,7072,-59609,176640,30906
2994.4,6332,-60031,176664,30943
2996.4,6120,-60230,176606,30888
2998.4,6390,-60362,176583,30846
3000.4,6449,-60750,176512,30750
3002.4,6455,-60753,176493,30705
3004.4,6870,-59927,176740,30919
3006.4,7106,-59271,177060,31221
3008.4,6525,-59647,177125,31299
3010.4,5888,-60260,177021,31220
3012.4,6158,-60209,176926,31144
3014.4,6828,-59936,176776,31018
3016.4,6872,-59953,176695,30960
3018.4,6299,-59906,176939,31207
3020.4,5754,-59700,177247,31506
3022.4,5657,-59740,177171,31438
3024.4,6163,-59890,176874,31167
3026.4,6908,-59829,176735,31048
3028.4,7067,-59843,176682,31013
3030.4,6632,-59961,176619,30977
3032.4,6598,-59630,176695,31074
3034.4,7156,-59096,176778,31156
3036.4,7365,-59192,176591,30967
3038.4,7003,-59666,176352,30754
3040.4,6814,-59776,176360,30795
3042.4,6997,-59804,176363,30803
3044.4,7225,-60114,176136,30564
3046.4,7477,-60188,175976,30397
3048.4,7536,-59974,176062,30470
3050.4,6952,-60198,176178,30560
3052.4,6218,-60688,176257,30632
3054.4,6275,-60638,176368,30770
3056.4,6768,-60318,176374,30800
3058.4,6748,-60413,176236,30652
3060.4,6550,-60642,176172,30567
3062.4,6870,-60688,176171,30557
3064.4,7105,-60867,176075,30451
3066.4,6655,-60980,176063,30422
3068.4,6327,-60581,176223,30584
3070.4,6664,-60371,176151,30524
3072.4,6813,-60988,175782,30147
3074.4,6421,-61441,175724,30072
3076.4,6388,-60992,176048,30406
3078.4,6877,-60691,176036,30416
3080.4,6921,-61176,175638,30008
3082.4,6356,-61501,175601,29943
3084.4,5976,-61311,175924,30265
3086.4,5966,-61354,175931,30289
3088.4,5927,-61586,175700,30071
3090.4,5873,-61441,175746,30136
3092.4,6016,-61291,175848,30274
3094.4,6284,-61521,175652,30095
3096.4,6555,-61654,175478,29904
3098.4,6734,-61525,175560,29966
3100.4,6684,-61504,175654,30040
3102.4,6509,-61456,175727,30072
3104.4,6475,-61251,175855,30165
3106.4,6570,-61351,175757,30083
3108.4,6636,-61711,175408,29774
3110.4,6731,-61712,175270,29654
3112.4,6904,-61503,175392,29777
3114.4,6928,-61559,175420,29806
3116.4,6718,-61529,175458,29835
3118.4,6609,-61200,175708,30069
3120.4,6749,-61230,175818,30173
3122.4,6670,-61777,175608,29962
3124.4,6110,-62110,175505,29853
3126.4,5702,-62010,175654,30004
3128.4,5983,-61911,175698,30065
3130.4,6378,-61851,175602,29982
3132.4,6172,-61687,175607,29982
3134.43,5698,-61665,175629,29988
3136.45,5646,-61837,175538,29892
3138.48,6049,-61840,175491,29857
3140.5,6500,-61667,175503,29883
3142.5,6615,-61651,175428,29812
3144.5,6223,-61744,175467,29856
3146.5,5693,-61751,175801,30198
3148.5,5671,-61826,175986,30378
3150.5,6133,-61939,175666,30049
3152.5,6452,-61721,175334,29740
3154.5,6439,-61359,175481,29928
3156.5,6419,-61477,175740,30198
3158.5,6480,-61902,175676,30102
3160.5,6525,-61881,175518,29913
3162.5,6587,-61484,175548,29931
3164.5,6455,-61449,175642,30005
3166.5,5807,-61899,175703,30016
3168.5,5136,-62313,175759,29998
3170.5,5314,-62415,175714,29879
3172.5,6091,-62360,175562,29679
3174.5,6478,-62303,175515,29628
3176.5,6414,-62201,175652,29814
3178.5,6475,-61945,175861,30126
3180.5,6549,-61568,176096,30517
3182.5,6391,-61177,176284,30897
3184.5,6575,-60704,176273,31101
3186.5,7527,-60076,176131,31202
3188.5,8625,-59499,176102,31448
3190.5,9242,-59151,176246,31878
3192.5,9695,-58828,176439,32368
3194.5,10497,-58270,176585,32842
3196.5,11508,-57486,176624,33231
3198.5,12285,-56598,176560,33493
3200.5,12707,-55797,176469,33689
3202.5,12874,-55384,176350,33818
3204.5,12801,-55378,176169,33802
3206.5,12640,-55396,176042,33719
3208.5,12709,-55299,176073,33696
3210.5,12757,-55516,176095,33593
3212.5,11907,-56395,175844,33109
3214.5,10015,-57704,175242,32147
3216.5,8226,-58986,174410,30914
3218.5,7463,-60006,173606,29757
3220.5,7377,-60725,173093,28927
3222.5,7262,-61201,172931,28456
3224.5,6912,-61634,172995,28261
3226.5,6362,-62151,173173,28255
3228.5,5835,-62523,173412,28353
3230.5,5745,-62497,173691,28518
3232.5,6007,-62264,174039,28794
3234.5,6044,-62101,174468,29169
3236.5,5897,-61889,174878,29503
3238.5,6136,-61584,175156,29700
3240.5,6556,-61575,175285,29788
3242.5,6441,-61971,175308,29801
3244.5,5951,-62315,175270,29745
3246.5,5747,-62377,175234,29684
3248.5,5770,-62350,175274,29706
3250.5,5709,-62286,175364,29781
3252.5,5818,-62185,175359,29767
3254.5,6090,-62312,175231,29645
3256.5,5857,-62675,175203,29627
3258.5,5194,-62788,175415,29829
3260.5,5248,-62432,175612,29999
3262.5,6315,-61968,175564,29930
3264.5,7118,-61669,175515,29866
3266.5,6785,-61488,175723,30061
3268.5,6025,-61467,175942,30283
3270.5,5728,-61742,175849,30219
3272.5,5802,-62141,175576,29985
3274.5,5903,-62301,175406,29851
3276.5,6041,-62169,175376,29834
3278.5,6054,-62060,175405,29852
3280.5,5666,-62177,175457,29888
3282.5,5275,-62290,175477,29903
3284.5,5559,-62062,175465,29884
3286.5,6224,-61631,175493,29901
3288.5,6418,-61580,175498,29898
3290.5,6219,-62067,175356,29738
3292.5,6333,-62412,175240,29590
3294.53,6678,-62133,175394,29737
3296.55,6699,-61758,175619,29996
3298.58,6494,-61783,175632,30042
3300.6,6352,-61812,175638,30051
3302.6,6125,-61634,175802,30201
3304.6,5891,-61788,175767,30152
3306.6,5995,-62256,175490,29860
3308.6,6167,-62233,175578,29933
3310.6,6037,-61685,176057,30408
3312.6,6046,-61463,176099,30461
3314.6,6422,-61753,175560,29935
3316.6,6473,-61977,175277,29653
3318.6,6086,-61987,175481,29860
3320.6,6087,-62104,175525,29929
3322.6,6485,-62298,175289,29721
3324.6,6510,-62233,175274,29710
3326.6,6311,-61935,175433,29852
3328.6,6435,-61828,175323,29735
3330.6,6465,-62054,175126,29546
3332.6,5999,-62204,175309,29735
3334.6,5621,-62045,175675,30101
3336.6,5668,-62010,175708,30146
3338.6,5661,-62414,175438,29904
3340.6,5482,-62765,175297,29777
3342.6,5636,-62490,175473,29933
3344.6,6229,-61799,175773,30205
3346.6,6732,-61336,175904,30333
3348.6,6642,-61426,175780,30228
3350.6,6035,-61840,175639,30103
3352.6,5524,-62078,175713,30180
3354.6,5535,-61949,175865,30323
3356.6,5812,-61799,175869,30299
3358.6,6054,-61842,175841,30243
3360.6,6421,-61730,175993,30402
3362.6,6844,-61354,176184,30630
3364.6,6801,-61301,176161,30633
3366.6,6322,-61772,176056,30515
3368.6,6187,-61968,176180,30610
3370.6,6682,-61436,176463,30891
3372.6,7219,-60930,176556,31015
3374.6,7353,-61074,176404,30897
3376.6,7261,-61345,176297,30814
3378.6,7161,-61203,176369,30909
3380.6,7044,-60981,176477,31027
3382.6,7005,-60993,176564,31087
3384.6,7274,-60968,176648,31138
3386.6,7721,-60846,176611,31112
3388.6,7738,-60914,176457,30998
3390.6,7046,-61028,176511,31072
3392.6,6327,-60822,176880,31448
3394.6,6404,-60475,177160,31743
3396.6,7062,-60343,177074,31663
3398.6,7539,-60339,176863,31436
3400.6,7738,-60351,176771,31334
3402.6,7901,-60521,176755,31331
3404.6,7689,-60821,176784,31370
3406.6,6912,-61058,176847,31423
3408.6,6465,-61153,176787,31356
3410.6,7062,-60980,176597,31178
3412.6,7887,-60524,176527,31123
3414.6,7981,-60244,176642,31244
3416.6,7793,-60426,176767,31379
3418.6,7898,-60613,176898,31523
3420.6,7799,-60533,177085,31706
3422.6,7277,-60642,177116,31715
3424.6,7039,-61029,176898,31489
3426.6,7250,-61071,176776,31383
3428.6,7374,-60665,176929,31541
3430.6,7467,-60469,176989,31584
3432.6,7784,-60637,176775,31367
3434.63,7832,-60619,176712,31329
3436.65,7332,-60326,177007,31652
3438.68,6872,-60275,177196,31851
3440.7,6777,-60548,176981,31631
3442.7,6776,-60694,176709,31354
3444.7,6886,-60596,176667,31314
3446.7,7179,-60511,176692,31349
3448.7,7220,-60512,176669,31326
3450.7,6887,-60628,176646,31278
3452.7,6780,-60990,176528,31137
3454.7,7057,-61333,176314,30939
3456.7,7130,-61202,176265,30932
3458.7,6834,-60861,176386,31076
3460.7,6606,-60901,176385,31064
3462.7,6538,-61159,176286,30950
3464.7,6454,-61157,176347,31011
3466.7,6537,-61063,176456,31128
3468.7,6895,-61154,176376,31050
3470.7,7194,-61161,176211,30883
3472.7,7334,-60969,176096,30772
3474.7,7556,-60961,175972,30659
3476.7,7666,-61183,175940,30640
3478.7,7235,-61240,176174,30885
3480.7,6508,-61145,176459,31164
3482.7,6092,-61218,176452,31131
3484.7,6071,-61378,176262,30926
3486.7,6206,-61375,176218,30906
3488.7,6448,-61304,176307,31035
3490.7,6745,-61281,176299,31045
3492.7,6916,-61243,176158,30904
3494.7,6908,-61296,176036,30789
3496.7,6774,-61582,176028,30785
3498.7,6595,-61829,176074,30819
3500.7,6601,-61747,176040,30774
3502.7,6895,-61572,175902,30638
3504.7,7104,-61580,175830,30558
3506.7,6904,-61574,175926,30629
3508.7,6519,-61436,176015,30708
3510.7,6237,-61467,175967,30684
3512.7,6091,-61680,175958,30705
3514.7,6224,-61652,176053,30817
3516.7,6636,-61404,175993,30783
3518.7,6867,-61341,175773,30595
3520.7,6779,-61325,175797,30619
3522.7,6794,-61058,176108,30915
3524.7,6808,-60956,176279,31100
3526.7,6373,-61364,176221,31052
3528.7,5968,-61721,176223,31014
3530.7,6319,-61549,176313,31066
3532.7,7019,-61154,176348,31123
3534.7,7357,-60853,176359,31167
3536.7,7307,-60744,176294,31092
3538.7,6911,-60992,176074,30856
3540.7,6288,-61350,175967,30759
3542.7,6122,-61324,176137,30935
3544.7,6556,-61193,176203,30998
3546.7,6773,-61385,176016,30831
3548.7,6703,-61309,176057,30895
3550.7,6996,-60629,176405,31238
3552.7,7103,-60376,176483,31304
3554.7,6178,-61021,176243,31058
3556.7,5346,-61358,176243,31042
3558.7,6059,-60731,176455,31240
3560.7,7300,-60154,176390,31186
3562.7,7240,-60302,176189,30988
3564.7,6298,-60601,176277,31038
3566.7,6098,-60665,176426,31152
3568.7,6720,-60747,176294,31044
3570.7,7048,-60823,176185,30985
3572.7,6832,-60668,176372,31184
3574.7,6692,-60516,176498,31276
3576.7,6729,-60683,176315,31063
3578.7,6525,-60981,176172,30924
3580.7,6144,-61046,176310,31081
3582.8,6032,-60854,176481,31252
3584.8,6199,-60652,176474,31225
3586.8,6337,-60612,176389,31132
3588.8,6399,-60681,176330,31094
3590.8,6383,-60729,176275,31077
3592.8,6169,-60756,176204,31050
3594.8,6083,-60726,176164,31044
3596.8,6694,-60404,176226,31113
3598.8,7580,-59871,176338,31227
3600.8,7622,-59791,176269,31197
3602.8,6959,-60378,175950,30929
3604.8,6850,-60788,175693,30677
3606.8,7325,-60513,175716,30661
3608.8,7224,-60313,175797,30717
3610.8,6587,-60738,175794,30719
3612.8,6443,-61168,175902,30840
3614.8,6657,-61241,176043,31003
3616.8,6553,-61434,175855,30842
3618.8,6538,-61677,175537,30516
3620.8,6887,-61358,175706,30632
3622.8,6866,-60783,176257,31142
3624.8,6554,-60723,176451,31341
3626.8,6878,-61015,176155,31069
3628.8,7435,-61197,175894,30813
3630.8,7190,-61460,175807,30716
3632.8,6641,-61821,175649,30558
3634.8,6593,-61790,175540,30459
3636.8,6494,-61507,175661,30575
3638.8,5999,-61707,175672,30560
3640.8,5847,-62318,175363,30238
3642.8,6164,-62439,175241,30130
3644.8,6323,-61791,175604,30503
3646.8,6360,-61171,175881,30761
3648.8,6491,-61340,175624,30483
3650.8,6310,-62038,175240,30103
3652.8,5891,-62421,175168,30051
3654.8,5995,-62240,175253,30150
3656.8,6523,-62018,175275,30175
3658.8,6645,-62052,175302,30187
3660.8,6377,-62104,175353,30209
3662.8,6282,-62168,175305,30141
3664.8,6272,-62487,175168,29998
3666.8,6083,-62750,175107,29933
3668.8,6024,-62454,175232,30059
3670.8,6316,-61932,175421,30268
3672.8,6619,-61821,175429,30305
3674.8,6587,-61974,175246,30151
3676.8,6203,-61995,175149,30086
3678.8,5755,-62073,175209,30166
3680.8,5724,-62308,175179,30132
3682.8,6128,-62282,175075,30016
3684.8,6232,-62018,175200,30130
3686.8,5744,-62119,175447,30344
3688.8,5462,-62568,175392,30233
3690.8,5804,-62712,175101,29929
3692.8,6017,-62503,175025,29910
3694.8,5750,-62442,175179,30128
3696.8,5778,-62463,175243,30201
3698.8,6433,-62135,175212,30140
3700.8,7017,-61659,175248,30149
3702.8,7140,-61580,175256,30139
3704.8,7081,-61880,175125,30002
3706.8,6926,-62140,175005,29891
3708.8,6634,-62148,175067,29971
3710.8,6479,-61950,175311,30231
3712.8,6548,-61767,175559,30501
3714.8,6530,-61893,175534,30501
3716.8,6334,-62231,175256,30234
3718.8,6096,-62308,175190,30162
3720.8,5786,-62080,175496,30458
3722.8,5546,-61994,175653,30596
3724.83,5741,-62114,175401,30311
3726.85,6178,-62144,175211,30085
3728.88,6242,-62207,175311,30148
3730.9,5912,-62589,175304,30081
3732.9,5659,-63029,175072,29767
3734.9,5570,-63162,174964,29598
3736.9,5536,-63088,175050,29674
3738.9,5756,-62925,175162,29811
3740.9,6198,-62562,175380,30056
3742.9,6339,-62134,175734,30437
3744.9,6173,-61871,175958,30750
3746.9,6459,-61513,176011,30994
3748.9,7227,-60810,176126,31362
3750.9,7476,-60256,176246,31731
3752.9,7258,-60260,176133,31861
3754.9,8173,-60175,175899,31897
3756.9,10477,-59335,175782,32081
3758.9,12069,-58271,175737,32350
3760.9,11853,-57693,175670,32606
3762.9,11399,-57231,175678,32918
3764.9,11942,-56413,175767,33273
3766.9,12754,-55687,175782,33527
3768.9,13282,-55489,175686,33615
3770.9,13792,-55573,175562,33535
3772.9,13794,-55842,175389,33257
3774.9,12643,-56566,175087,32786
3776.9,11044,-57641,174645,32139
3778.9,9899,-58690,174079,31277
3780.9,9040,-59597,173458,30292
3782.9,8265,-60364,172978,29478
3784.9,7816,-61006,172761,28967
3786.9,7398,-61689,172703,28613
3788.9,6564,-62376,172736,28397
3790.9,5847,-62697,172972,28497
3792.9,5870,-62645,173390,28839
3794.9,6075,-62688,173756,29098
3796.9,5821,-62920,174010,29231
3798.9,5755,-62916,174286,29431
3800.9,6532,-62572,174570,29662
3802.9,7164,-62355,174747,29770
3804.9,6418,-62532,174896,29860
3806.9,5052,-62770,175113,30048
3808.9,4767,-62753,175233,30145
3810.9,5503,-62708,175109,29991
3812.9,5801,-62848,174944,29813
3814.9,5408,-62805,175011,29887
3816.9,5493,-62349,175224,30112
3818.9,6320,-62058,175305,30205
3820.9,6669,-62411,175242,30143
3822.9,5931,-62893,175268,30139
3824.9,5147,-62884,175408,30247
3826.9,5295,-62625,175448,30292
3828.9,5990,-62532,175344,30210
3830.9,6430,-62526,175260,30129
3832.9,6290,-62599,175225,30092
3834.9,5541,-62953,175174,30049
3836.9,4784,-63233,175192,30064
3838.9,5113,-62859,175346,30188
3840.9,6351,-62223,175462,30276
3842.9,6942,-62188,175401,30219
3844.9,6473,-62590,175307,30141
3846.9,5974,-62699,175365,30191
3848.9,5631,-62658,175506,30318
3850.9,5111,-62912,175515,30348
3852.9,5209,-63006,175355,30229
3854.9,6216,-62521,175243,30120
3856.9,6560,-62205,175288,30144
3858.9,5523,-62754,175280,30139
3860.9,4674,-63512,175078,29944
3862.9,5057,-63539,174916,29758
3864.93,5821,-63012,174987,29819
3866.95,6194,-62654,175122,29996
3868.98,6280,-62526,175185,30110
3871.0,6255,-62207,175270,30211
3873.0,6333,-61811,175331,30274
3875.0,6578,-61964,175210,30155
3877.0,6483,-62612,175063,29991
3879.0,5990,-62889,175112,30010
3881.0,5907,-62578,175212,30096
3883.0,6245,-62434,175208,30104
3885.0,6148,-62678,175238,30162
3887.0,5800,-62755,175286,30231
3889.0,5852,-62714,175158,30098
3891.0,5736,-62964,175044,29972
3893.0,5181,-63009,175257,30198
3895.0,5412,-62344,175551,30511
3897.0,6533,-61764,175552,30492
3899.0,6729,-62038,175414,30311
3901.0,5633,-62569,175366,30253
3903.0,5044,-62626,175309,30226
3905.0,5606,-62381,175287,30228
3907.0,6115,-62139,175476,30415
3909.0,5989,-62017,175630,30564
3911.0,5767,-62207,175439,30378
3913.0,5809,-62509,175210,30149
3915.0,6039,-62439,175333,30249
3917.0,6224,-62184,175588,30465
3919.0,6145,-62173,175662,30522
3921.0,6069,-62122,175662,30543
3923.0,6441,-61820,175684,30593
3925.0,6878,-61780,175609,30526
3927.0,6687,-62078,175522,30446
3929.0,6147,-62101,175641,30592
3931.0,5952,-61873,175874,30858
3933.0,6128,-61899,175980,30987
3935.0,6501,-61950,175950,30987
3937.0,7032,-61676,175884,30968
3939.0,7248,-61547,175837,30948
3941.0,6862,-61829,175892,30990
3943.0,6575,-61965,176071,31141
3945.0,6803,-61808,176207,31265
3947.0,6927,-61818,176206,31264
3949.0,6915,-61857,176182,31243
3951.0,7447,-61577,176148,31207
3953.0,8001,-61423,175986,31039
3955.0,7594,-61634,175853,30901
3957.0,6892,-61562,176007,31067
3959.0,6851,-61124,176278,31359
3961.0,6944,-61039,176329,31440
3963.0,6831,-61247,176255,31411
3965.0,7166,-61210,176322,31508
3967.0,7651,-61233,176459,31627
3969.0,7362,-61570,176508,31650
3971.0,6843,-61592,176497,31673
3973.0,6972,-61208,176468,31706
3975.0,7163,-61130,176450,31701
3977.0,6960,-61219,176542,31770
3979.0,7107,-60826,176697,31922
3981.0,7699,-60388,176715,31945
3983.0,7861,-60589,176592,31804
3985.0,7566,-60979,176489,31685
3987.0,7455,-61035,176408,31606
3989.0,7544,-61097,176250,31453
3991.0,7623,-61270,176117,31331
3993.0,7628,-61067,176235,31469
3995.0,7141,-60624,176579,31817
3997.0,6184,-60637,176807,32033
3999.0,5997,-60955,176704,31944
4001.0,7215,-60852,176457,31725
4003.0,8462,-60506,176285,31553
4005.03,8371,-60653,176170,31424
4007.05,7513,-61088,176142,31415
4009.08,7025,-61089,176313,31620
4011.1,6948,-60821,176507,31819
4013.1,6909,-60885,176436,31732
4015.1,6996,-61149,176177,31468
4017.1,7219,-61206,176004,31294
4019.1,7232,-61172,175987,31272
4021.1,6923,-61257,176062,31341
4023.1,6532,-61417,176143,31413
4025.1,6325,-61604,176090,31356
4027.1,6506,-61706,175890,31172
4029.1,6982,-61537,175749,31055
4031.1,7257,-61182,175821,31127
4033.1,7194,-60867,176030,31320
4035.1,7245,-60728,176145,31433
4037.1,7301,-61044,175969,31259
4039.1,6693,-61892,175602,30878
4041.1,5842,-62527,175408,30669
4043.1,5934,-62275,175510,30778
4045.1,6700,-61655,175667,30945
4047.1,6894,-61465,175742,31015
4049.1,6651,-61584,175801,31066
4051.1,6809,-61664,175795,31067
4053.1,6827,-61878,175689,30982
4055.1,6059,-62235,175638,30955
4057.1,5499,-62322,175678,31017
4059.1,5872,-62087,175690,31034
4061.1,6200,-61805,175777,31099
4063.1,6087,-61409,176050,31345
4065.1,6551,-60883,176193,31500
4067.1,7448,-60772,175947,31300
4069.1,7407,-61310,175642,31021
4071.1,6659,-61873,175604,30968
4073.1,6575,-62087,175593,30936
4075.1,6974,-62296,175393,30740
4077.1,6856,-62447,175332,30693
4079.1,6443,-62079,175642,31015
4081.1,6288,-61586,175946,31334
4083.1,6256,-61694,175873,31273
4085.1,6439,-61961,175662,31063
4087.1,6977,-61678,175676,31078
4089.1,7150,-61410,175786,31201
4091.1,6616,-61796,175727,31151
4093.1,6297,-62141,175653,31071
4095.1,6605,-61766,175813,31238
4097.1,6832,-61232,176005,31466
4099.1,6882,-61179,175863,31362
4101.1,7165,-61437,175498,31004
4103.1,7156,-61626,175386,30882
4105.1,6446,-61552,175660,31143
4107.1,5988,-61235,175926,31384
4109.1,6327,-61050,175922,31343
4111.1,6501,-61252,175872,31270
4113.1,6012,-61555,175956,31347
4115.1,5721,-61702,176001,31375
4117.1,6129,-61723,175957,31313
4119.1,6729,-61517,176014,31388
4121.1,6987,-61176,176113,31524
4123.1,6676,-61235,176050,31461
4125.1,5929,-61683,175939,31322
4127.1,5531,-61770,175928,31308
4129.1,6061,-61384,175879,31276
4131.1,6840,-61174,175780,31179
4133.1,6916,-61177,175881,31280
4135.1,6470,-60909,176167,31589
4137.1,6263,-60554,176301,31740
4139.1,6494,-60603,176144,31577
4141.1,6776,-60846,175916,31349
4143.1,6701,-60895,175874,31324
4145.13,6354,-60932,176030,31489
4147.15,6259,-61075,176197,31652
4149.18,6476,-60981,176288,31743
4151.2,6474,-60681,176323,31784
4153.2,6401,-60677,176186,31654
4155.2,6927,-60931,175829,31317
4157.2,7501,-61024,175575,31101
4159.2,7031,-61059,175655,31217
4161.2,6187,-61165,175831,31405
4163.2,6345,-60968,175891,31451
4165.2,6959,-60600,175893,31434
4167.2,6813,-60766,175804,31344
4169.2,6537,-61257,175577,31121
4171.2,7156,-61281,175389,30931
4173.2,7880,-61125,175321,30876
4175.2,7645,-61460,175255,30843
4177.2,7002,-61806,175258,30867
4179.2,6788,-61560,175467,31070
4181.2,6754,-61247,175681,31278
4183.2,6649,-61348,175636,31242
4185.2,6861,-61418,175459,31066
4187.2,7265,-61237,175425,31016
4189.2,7121,-61273,175551,31128
4191.2,6493,-61579,175677,31250
4193.2,6163,-61715,175683,31249
4195.2,6148,-61806,175500,31052
4197.2,6004,-62223,175176,30703
4199.2,6119,-62467,174964,30453
4201.2,6891,-61913,175069,30520
4203.2,7473,-61219,175282,30721
4205.2,7064,-61421,175232,30680
4207.2,6296,-62183,174983,30431
4209.2,5932,-62490,174944,30374
4211.2,5730,-62334,175181,30598
4213.2,5560,-62323,175286,30711
4215.2,5833,-62460,175049,30497
4217.2,6347,-62466,174808,30278
4219.2,6400,-62486,174881,30362
4221.2,6034,-62651,175079,30554
4223.2,5822,-62689,175128,30595
4225.2,5923,-62537,175119,30591
4227.2,6162,-62624,175141,30621
4229.2,6310,-63102,175041,30536
4231.2,6117,-63374,174927,30453
4233.2,5829,-62924,175127,30681
4235.2,6047,-62184,175441,30992
4237.2,6471,-62031,175366,30897
4239.2,6168,-62619,175039,30565
4241.2,5492,-63231,174939,30464
4243.2,5777,-63257,174968,30477
4245.2,6866,-62844,174854,30336
4247.2,7246,-62473,174833,30285
4249.2,6659,-62353,175031,30466
4251.2,6182,-62498,175035,30499
4253.2,6040,-62884,174757,30281
4255.2,5723,-63185,174701,30256
4257.2,5530,-62989,174963,30496
4259.2,5857,-62569,175040,30552
4261.2,6153,-62534,174856,30371
4263.2,6098,-62706,174856,30365
4265.2,6194,-62536,175055,30557
4267.2,6434,-62274,175055,30584
4269.2,6290,-62409,174885,30448
4271.2,6031,-62619,174896,30453
4273.2,6215,-62523,175040,30570
4275.2,6464,-62474,175026,30561
4277.2,6284,-62641,174923,30494
4279.2,6092,-62548,174969,30568
4281.2,6312,-62187,175087,30692
4283.2,6553,-62269,175047,30655
4285.23,6404,-62900,174880,30497
4287.25,6120,-63285,174795,30411
4289.28,6042,-63095,174853,30439
4291.3,6085,-62930,174903,30430
4293.3,6071,-63182,174815,30284
4295.3,6018,-63486,174708,30143
4297.3,5937,-63458,174790,30193
4299.3,5763,-63165,175007,30360
4301.3,5531,-62900,175113,30432
4303.3,5395,-62916,175093,30436
4305.3,5580,-63048,175205,30613
4307.3,6235,-62707,175550,31048
4309.3,7079,-61881,175863,31501
4311.3,7571,-61374,175861,31680
4313.3,7728,-61332,175680,31682
4315.3,8092,-60947,175693,31882
4317.3,8798,-60191,175853,32279
4319.3,9555,-59875,175762,32460
4321.3,10397,-59798,175456,32429
4323.3,11467,-59127,175351,32610
4325.3,12375,-58282,175366,32910
4327.3,12758,-58075,175132,32908
4329.3,13017,-57860,174912,32887
4331.3,13626,-56821,175126,33334
4333.3,14209,-55845,175390,33796
4335.3,14151,-56093,175148,33580
4337.3,13591,-57107,174638,32940
4339.3,12930,-57926,174288,32414
4341.3,11941,-58611,173963,31868
4343.3,10315,-59527,173472,31077
4345.3,8482,-60493,173013,30301
4347.3,7042,-61341,172737,29743
4349.3,6116,-62185,172542,29272
4351.3,5760,-62880,172414,28874
4353.3,5971,-63158,172491,28739
4355.3,6086,-63200,172849,28937
4357.3,5560,-63271,173391,29341
4359.3,5098,-63206,173863,29732
4361.3,5456,-62920,174078,29929
4363.3,5916,-62791,174186,30015
4365.3,5657,-62944,174448,30214
4367.3,5351,-62960,174742,30458
4369.3,5714,-62781,174764,30471
4371.3,6127,-62861,174601,30305
4373.3,6129,-63094,174588,30267
4375.3,6328,-62856,174732,30388
4377.3,6773,-62355,174789,30444
4379.3,6555,-62518,174728,30385
4381.3,5681,-63317,174699,30340
4383.3,5306,-63692,174769,30378
4385.3,5790,-63273,174896,30482
4387.3,6311,-62804,175007,30588
4389.3,6292,-62810,175043,30617
4391.3,5853,-63086,175028,30592
4393.3,5302,-63351,175010,30569
4395.3,5111,-63408,174960,30529
4397.3,5561,-63109,174902,30495
4399.3,6026,-62860,174914,30540
4401.3,5795,-63198,174941,30574
4403.3,5430,-63588,174922,30526
4405.3,5783,-63209,174978,30558
4407.3,6310,-62761,175081,30671
4409.3,6145,-63269,174986,30586
4411.3,5843,-63886,174777,30375
4413.3,6182,-63524,174770,30386
4415.3,6462,-63186,174834,30488
4417.3,5909,-63795,174743,30404
4419.3,5465,-64000,174793,30431
4421.3,6133,-62935,175130,30762
4423.3,6819,-62246,175262,30901
4425.33,6100,-63001,175025,30652
4427.35,4954,-63765,174906,30518
4429.38,5151,-63433,175032,30652
4431.4,6062,-62890,175060,30689
4433.4,5955,-62940,175008,30638
4435.4,5304,-63201,175054,30697
4437.4,5684,-63304,175007,30667
4439.4,6555,-63320,174827,30480
4441.4,6350,-63236,174858,30487
4443.4,5502,-63029,175098,30714
4445.4,5476,-62782,175210,30818
4447.4,6091,-62511,175224,30826
4449.4,6268,-62361,175319,30932
4451.4,6052,-62627,175291,30929
4453.4,6031,-63165,175033,30682
4455.4,6125,-63393,174891,30537
4457.4,6112,-63144,175041,30690
4459.4,6141,-62833,175227,30883
4461.4,6227,-62746,175287,30941
4463.4,6182,-62804,175262,30918
4465.4,5959,-62932,175146,30812
4467.4,5598,-63145,175020,30692
4469.4,5313,-63328,175066,30730
4471.4,5525,-63294,175211,30862
4473.4,6089,-63049,175260,30908
4475.4,6234,-62797,175295,30952
4477.4,5889,-62686,175408,31080
4479.4,5793,-62700,175410,31099
4481.4,6022,-62774,175241,30939
4483.4,6113,-62852,175153,30849
4485.4,6313,-62849,175237,30915
4487.4,6844,-62735,175320,30979
4489.4,6953,-62616,175377,31038
4491.4,6348,-62596,175494,31181
4493.4,5952,-62664,175569,31283
4495.4,6134,-62713,175506,31235
4497.4,6328,-62607,175420,31148
4499.4,6600,-62346,175388,31097
4501.4,7195,-62218,175381,31066
4503.4,7347,-62401,175477,31167
4505.4,6799,-62507,175714,31440
4507.4,6708,-62120,175887,31643
4509.4,7301,-61606,175877,31647
4511.4,7305,-61585,175852,31646
4513.4,6697,-61905,175910,31730
4515.4,6743,-62052,175944,31756
4517.4,7205,-62106,175927,31721
4519.4,6948,-62289,175953,31766
4521.4,6548,-62272,176030,31878
4523.4,7014,-61900,176120,31975
4525.4,7489,-61703,176223,32070
4527.4,7043,-61929,176283,32144
4529.4,6550,-62139,176234,32121
4531.4,6828,-62068,176186,32083
4533.4,7392,-61785,176295,32183
4535.4,7949,-61246,176456,32335
4537.4,8526,-60750,176426,32301
4539.4,8423,-60955,176252,32125
4541.4,7474,-61616,176277,32136
4543.4,6942,-61711,176571,32419
4545.4,7274,-61255,176743,32620
4547.4,7315,-61224,176559,32488
4549.4,6840,-61664,176335,32285
4551.4,6877,-61810,176390,32328
4553.4,7311,-61649,176545,32488
4555.4,7282,-61668,176523,32490
4557.4,7195,-61781,176383,32352
4559.4,7617,-61744,176293,32251
4561.4,7805,-61685,176262,32223
4563.4,7340,-61684,176220,32175
4565.43,6994,-61744,176122,32038
4567.45,7063,-61969,175999,31884
4569.48,7195,-62133,175970,31871
4571.5,7557,-61883,176047,31983
4573.5,8041,-61546,176093,32046
4575.5,7717,-61609,176104,32057
4577.5,6651,-61761,176191,32133
4579.5,6212,-61597,176257,32180
4581.5,6645,-61541,176122,32034
4583.5,6749,-62052,175852,31781
4585.5,6309,-62679,175648,31608
4587.5,6429,-62661,175592,31576
4589.5,7295,-62039,175655,31648
4591.5,7786,-61643,175700,31683
4593.5,7483,-61986,175538,31490
4595.5,7151,-62583,175247,31166
4597.5,7042,-62691,175213,31113
4599.5,6655,-62301,175568,31463
4601.5,6225,-61964,175876,31777
4603.5,6437,-62044,175756,31681
4605.5,6841,-62348,175536,31495
4607.5,6623,-62405,175705,31690
4609.5,6262,-62223,175967,31960
4611.5,6509,-62327,175740,31739
4613.5,6926,-62620,175341,31346
4615.5,6903,-62396,175449,31460
4617.5,6672,-61954,175766,31785
4619.5,6568,-62218,175611,31632
4621.5,6644,-62635,175326,31323
4623.5,6958,-62066,175568,31527
4625.5,7291,-61305,175947,31896
4627.5,7277,-61695,175840,31810
4629.5,7063,-62442,175648,31625
4631.5,6895,-62255,175895,31859
4633.5,6559,-61863,176158,32118
4635.5,6104,-62285,175968,31939
4637.5,6005,-62817,175692,31671
4639.5,6166,-62743,175683,31664
4641.5,6175,-62675,175649,31637
4643.5,6343,-62905,175426,31423
4645.5,6911,-62809,175341,31350
4647.5,7036,-62477,175500,31522
4649.5,6232,-62628,175626,31652
4651.5,5558,-63002,175641,31667
4653.5,5833,-62919,175652,31682
4655.5,6336,-62703,175554,31588
4657.5,6515,-62759,175296,31323
4659.5,6823,-62611,175174,31205
4661.5,7113,-62165,175384,31438
4663.5,6816,-62024,175701,31771
4665.5,6692,-62030,175877,31937
4667.5,7490,-61693,175909,31946
4669.5,7935,-61582,175827,31846
4671.5,7003,-62113,175666,31672
4673.5,6042,-62407,175562,31566
4675.5,6062,-62104,175619,31642
4677.5,6023,-62078,175813,31864
4679.5,5585,-62398,176055,32121
4681.5,5833,-62268,176172,32229
4683.5,6581,-61943,176020,32051
4685.5,6669,-62135,175778,31772
4687.5,6452,-62403,175755,31718
4689.5,6764,-62179,175903,31852
4691.5,6969,-61893,175948,31901
4693.5,6517,-61852,175908,31866
4695.5,6242,-61715,175979,31949
4697.5,6587,-61516,176107,32101
4699.5,6744,-61668,176114,32125
4701.5,6266,-62041,176074,32086
4703.5,5766,-62129,176200,32226
4705.53,5847,-61882,176394,32461
4707.55,6330,-61763,176304,32395
4709.58,6606,-62048,175908,31987
4711.6,6538,-62285,175673,31752
4713.6,6717,-61841,175877,32007
4715.6,7343,-60999,176195,32389
4717.6,7603,-60656,176271,32497
4719.6,7034,-60991,176178,32412
4721.6,6531,-61462,176009,32260
4723.6,6963,-61763,175694,31962
4725.6,7803,-61830,175428,31690
4727.6,8062,-61613,175527,31753
4729.6,7684,-61492,175777,31963
4731.6,7249,-61870,175742,31903
4733.6,6978,-62301,175542,31690
4735.6,6745,-62246,175523,31670
4737.6,6670,-62123,175538,31709
4739.6,6899,-62359,175360,31565
4741.6,6984,-62550,175249,31457
4743.6,6362,-62576,175405,31571
4745.6,5552,-62908,175494,31609
4747.6,5777,-63195,175318,31403
4749.6,7000,-62639,175207,31291
4751.6,7587,-61930,175309,31415
4753.6,6782,-62313,175283,31417
4755.6,5953,-63153,175032,31183
4757.6,6141,-63129,174925,31084
4759.6,6379,-62810,175032,31195
4761.6,6004,-63211,174979,31139
4763.6,6064,-63517,174738,30891
4765.6,6757,-62906,174743,30895
4767.6,6599,-62451,175061,31217
4769.6,5486,-62974,175235,31392
4771.6,5110,-63489,175076,31234
4773.6,5681,-63288,174941,31109
4775.6,5899,-63053,175049,31226
4777.6,5899,-63118,175134,31306
4779.6,6582,-62948,175026,31181
4781.6,7153,-62559,174991,31125
4783.6,6574,-62627,175125,31246
4785.6,5751,-63246,175050,31184
4787.6,5849,-63736,174698,30874
4789.6,6428,-63612,174588,30813
4791.6,6690,-63200,174853,31118
4793.6,6578,-63174,174938,31224
4795.6,6298,-63570,174667,30935
4797.6,6258,-63744,174494,30702
4799.6,6857,-63430,174566,30715
4801.6,7493,-63131,174605,30734
4803.6,7150,-63252,174604,30741
4805.6,6108,-63617,174703,30851
4807.6,5394,-63882,174796,30966
4809.6,5175,-63875,174825,31031
4811.6,5208,-63677,174872,31109
4813.6,5599,-63596,174847,31088
4815.6,6108,-63726,174700,30942
4817.6,6270,-63676,174692,30962
4819.6,6412,-63196,174929,31229
4821.6,6869,-62793,175108,31388
4823.6,6981,-63115,175021,31239
4825.6,6421,-63919,174803,30970
4827.6,5989,-64323,174623,30770
4829.6,6050,-64063,174554,30695
4831.6,6126,-63730,174619,30772
4833.6,6202,-63662,174759,30955
4835.6,6383,-63581,174886,31130
4837.6,6151,-63425,174949,31208
4839.6,5682,-63421,174908,31162
4841.6,6015,-63399,174827,31089
4843.6,6820,-63136,174887,31171
4845.63,6688,-62990,175061,31345
4847.65,5882,-63285,175016,31264
4849.68,5812,-63714,174631,30821
4851.7,6304,-63981,174280,30406
4853.7,6235,-64192,174316,30375
4855.7,5699,-64380,174598,30609
4857.7,5373,-64379,174823,30835
4859.7,5371,-64145,174982,31047
4861.7,5825,-63758,175173,31309
4863.7,6704,-63306,175317,31537
4865.7,7109,-62919,175403,31746
4867.7,6673,-62651,175585,32098
4869.7,6561,-62402,175826,32537
4871.7,7449,-62083,175933,32870
4873.7,8455,-61728,175925,33115
4875.7,9162,-61387,175885,33336
4877.7,10184,-60961,175770,33479
4879.7,11351,-60263,175679,33658
4881.7,11875,-59346,175758,34024
4883.7,11997,-58586,175838,34386
4885.7,12392,-58181,175743,34552
4887.7,12885,-57926,175638,34686
4889.7,13084,-57677,175646,34870
4891.7,12970,-57613,175630,34904
4893.7,12469,-57939,175495,34670
4895.7,11688,-58615,175199,34152
4897.7,11076,-59397,174643,33293
4899.7,10438,-60136,173899,32205
4901.7,9015,-61020,173211,31185
4903.7,7186,-62140,172703,30390
4905.7,6342,-63034,172393,29834
4907.7,6621,-63350,172341,29562
4909.7,6614,-63540,172543,29569
4911.7,5776,-64037,172851,29703
4913.7,5243,-64424,173094,29801
4915.7,5578,-64314,173266,29867
4917.7,5651,-64225,173520,30044
4919.7,4913,-64603,173895,30346
4921.7,4736,-64823,174205,30600
4923.7,5921,-64226,174378,30773
4925.7,6995,-63413,174568,30993
4927.7,6701,-63353,174758,31180
4929.7,5991,-63840,174746,31133
4931.7,5998,-64015,174573,30954
4933.7,6292,-63779,174497,30900
4935.7,6278,-63605,174580,30982
4937.7,6213,-63631,174663,31033
4939.7,6227,-63719,174665,31005
4941.7,6056,-63792,174685,31003
4943.7,5809,-63774,174797,31097
4945.7,5791,-63734,174855,31155
4947.7,5928,-63884,174707,31030
4949.7,6034,-64116,174529,30874
4951.7,6074,-64154,174592,30933
4953.7,5958,-64161,174773,31095
4955.7,5736,-64326,174795,31119
4957.7,5794,-64265,174729,31079
4959.7,6197,-63863,174733,31093
4961.7,6342,-63818,174680,31012
4963.7,5885,-64328,174553,30856
4965.7,5302,-64507,174676,30980
4967.7,5096,-64030,175070,31373
4969.7,5250,-63698,175258,31535
4971.7,5642,-63746,175076,31337
4973.7,6078,-63570,174905,31190
4975.7,6193,-63337,174909,31214
4977.7,6062,-63663,174868,31174
4979.7,6173,-64096,174811,31141
4981.7,6336,-64017,174910,31295
4983.7,5971,-63936,174977,31372
4985.73,5490,-64157,174854,31188
4987.75,5743,-63963,174845,31129
4989.78,6389,-63339,175088,31392
4991.8,6471,-63274,175190,31546
4993.8,6032,-63811,174978,31357
4995.8,5857,-64010,174778,31146
4997.8,6136,-63766,174711,31058
4999.8,6284,-63736,174602,30941
5001.8,5992,-63938,174543,30892
5003.8,5867,-63903,174720,31079
5005.8,6386,-63658,174931,31278
5007.8,6802,-63591,174956,31282
5009.8,6398,-63712,174936,31263
5011.8,5875,-63756,174947,31310
5013.8,5909,-63767,174827,31241
5015.8,5981,-63920,174650,31101
5017.8,5944,-63982,174660,31115
5019.8,6380,-63734,174776,31205
5021.8,6880,-63556,174798,31202
5023.8,6579,-63768,174826,31240
5025.8,5961,-64038,174948,31388
5027.8,5862,-64077,174961,31398
5029.8,6019,-64041,174826,31238
5031.8,6048,-63968,174824,31245
5033.8,6089,-63780,175023,31480
5035.8,6055,-63680,175159,31623
5037.8,5771,-63784,175170,31626
5039.8,5460,-63845,175259,31742
5041.8,5378,-63718,175410,31934
5043.8,5738,-63479,175400,31922
5045.8,6653,-63170,175272,31758
5047.8,7418,-62993,175263,31717
5049.8,7184,-63223,175342,31773
5051.8,6633,-63594,175289,31713
5053.8,6871,-63567,175133,31597
5055.8,7110,-63346,175118,31645
5057.8,6123,-63571,175294,31850
5059.8,5015,-64039,175481,32020
5061.8,5553,-63904,175570,32091
5063.8,7003,-63122,175656,32178
5065.8,7529,-62509,175821,32358
5067.8,7201,-62495,175928,32490
5069.8,7086,-62816,175796,32381
5071.8,7157,-63096,175596,32173
5073.8,7085,-63079,175676,32224
5075.8,7173,-62798,175925,32475
5077.8,7448,-62631,175931,32526
5079.8,7680,-62541,175836,32456
5081.8,8133,-61995,176104,32705
5083.8,8619,-61334,176459,33061
5085.8,8198,-61644,176280,32924
5087.8,7068,-62709,175853,32515
5089.8,6608,-63194,175878,32511
5091.8,7050,-62975,176148,32758
5093.8,7435,-62973,176111,32712
5095.8,7489,-63137,176011,32579
5097.8,7512,-62862,176200,32743
5099.8,7439,-62489,176313,32892
5101.8,7246,-62553,176127,32758
5103.8,7139,-62746,176057,32687
5105.8,7103,-62731,176190,32798
5107.8,7183,-62679,176134,32755
5109.8,7516,-62575,175980,32629
5111.8,7765,-62299,176073,32725
5113.8,7638,-62181,176143,32779
5115.8,7523,-62412,175930,32552
5117.8,7542,-62618,175849,32484
5119.8,7187,-62728,176023,32703
5121.8,6597,-63062,175929,32637
5123.8,6529,-63334,175651,32320
5125.83,6966,-63017,175838,32460
5127.85,7366,-62481,176258,32917
5129.88,7596,-62351,176200,32946
5131.9,7444,-62475,175936,32723
5133.9,6662,-62590,176075,32860
5135.9,6078,-62793,176278,33064
5137.9,6672,-62885,176018,32799
5139.9,7600,-62672,175607,32353
5141.9,7394,-62620,175519,32221
5143.9,6599,-62891,175648,32322
5145.9,6818,-62825,175662,32325
5147.9,7748,-62444,175456,32130
5149.9,7691,-62692,175213,31916
5151.9,6580,-63469,175232,31957
5153.9,5952,-63602,175506,32255
5155.9,6127,-63093,175694,32484
5157.9,6058,-63051,175675,32485
5159.9,5858,-63425,175656,32420
5161.9,6523,-63216,175659,32358
5163.9,7365,-62703,175520,32211
5165.9,6878,-62981,175331,32058
5167.9,5732,-63673,175331,32077
5169.9,5780,-63551,175460,32215
5171.9,6844,-62889,175467,32261
5173.9,7365,-62844,175342,32186
5175.9,7144,-63261,175311,32175
5177.9,6992,-63259,175450,32310
5179.9,6902,-63030,175577,32424
5181.9,6493,-63233,175534,32354
5183.9,6096,-63620,175392,32185
5185.9,6127,-63573,175332,32124
5187.9,6312,-63190,175405,32232
5189.9,6218,-63100,175452,32331
5191.9,5913,-63581,175318,32240
5193.9,5819,-64092,175139,32069
5195.9,6172,-63901,175180,32087
5197.9,6664,-63214,175399,32283
5199.9,6753,-62913,175526,32400
5201.9,6380,-63175,175504,32370
5203.9,6034,-63407,175458,32329
5205.9,6070,-63355,175411,32312
5207.9,6333,-63247,175384,32312
5209.9,6495,-63195,175451,32369
5211.9,6541,-63129,175514,32401
5213.9,6828,-62904,175434,32301
5215.9,7391,-62497,175345,32207
5217.9,7495,-62402,175396,32255
5219.9,6796,-62994,175433,32288
5221.9,6398,-63480,175352,32214
5223.9,7162,-62953,175363,32239
5225.9,7824,-62139,175587,32468
5227.9,6984,-62210,175848,32721
5229.9,5759,-62676,176017,32902
5231.9,5875,-62526,176106,33038
5233.9,6691,-62217,176046,33014
5235.9,6775,-62498,175818,32767
5237.9,6484,-62792,175652,32548
5239.9,6602,-62561,175664,32535
5241.9,6634,-62531,175625,32513
5243.9,6265,-63050,175475,32374
5245.9,6214,-63165,175542,32424
5247.9,6659,-62485,175871,32729
5249.9,6980,-61997,175983,32837
5251.9,7072,-62191,175748,32613
5253.9,7090,-62354,175664,32541
5255.9,6801,-62132,175893,32782
5257.9,6435,-61973,175967,32882
5259.9,6550,-62016,175754,32716
5261.9,6680,-61996,175704,32704
5263.9,6195,-61920,175905,32902
5265.93,5907,-61890,175932,32902
5267.95,6574,-61859,175696,32670
5269.98,7215,-61898,175561,32580
5272.0,6953,-62026,175644,32699
5274.0,6553,-62013,175695,32747
5276.0,6636,-61975,175562,32604
5278.0,6585,-62385,175325,32385
5280.0,6161,-62994,175147,32236
5282.0,6069,-62943,175176,32274
5284.0,6492,-62296,175368,32470
5286.0,6810,-62098,175460,32580
5288.0,6785,-62656,175308,32438
5290.0,6743,-63110,175113,32233
5292.0,6832,-62945,175118,32254
5294.0,6940,-62673,175240,32433
5296.0,6957,-62759,175216,32432
5298.0,6760,-62944,175046,32205
5300.0,6387,-62966,175010,32095
5302.0,6195,-63090,175147,32213
5304.0,6335,-63484,175155,32237
5306.0,6484,-63782,174975,32063
5308.0,6464,-63760,174891,31976
5310.0,6443,-63789,174890,31980
5312.0,6315,-64082,174692,31799
5314.0,5871,-64234,174457,31595
5316.0,5533,-64007,174569,31744
5318.0,5853,-63728,174875,32058
5320.0,6485,-63584,174976,32105
5322.0,6700,-63474,174887,31922
5324.0,6501,-63557,174777,31755
5326.0,6377,-63934,174633,31636
5328.0,6439,-64170,174503,31572
5330.0,6509,-63999,174465,31568
5332.0,6532,-63805,174413,31496
5334.0,6459,-63849,174357,31403
5336.0,6280,-63892,174484,31521
5338.0,6291,-63794,174692,31747
5340.0,6579,-63728,174710,31792
5342.0,6631,-63822,174641,31754
5344.0,6311,-63992,174657,31806
5346.0,6290,-64011,174580,31752
5348.0,6525,-63805,174399,31564
5350.0,6018,-63754,174452,31594
5352.0,5028,-64132,174667,31788
5354.0,5131,-64446,174610,31723
5356.0,6358,-64219,174371,31491
5358.0,7020,-63965,174309,31443
5360.0,6644,-64270,174266,31394
5362.0,6288,-64653,174070,31170
5364.0,6249,-64523,174094,31174
5366.0,5938,-64322,174447,31535
5368.0,5411,-64555,174646,31759
5370.0,5212,-64783,174561,31698
5372.0,5368,-64626,174529,31676
5374.0,5542,-64579,174524,31655
5376.0,5681,-64854,174357,31462
5378.0,6047,-64753,174282,31396
5380.0,6588,-64084,174488,31652
5382.0,6625,-63737,174665,31868
5384.0,5882,-64121,174602,31802
5386.0,5337,-64504,174463,31651
5388.0,5848,-64404,174339,31543
5390.0,6736,-64153,174250,31485
5392.0,6982,-63991,174351,31600
5394.0,6612,-63902,174595,31831
5396.0,6096,-64040,174654,31878
5398.0,5771,-64317,174498,31712
5400.0,6012,-64318,174422,31596
5402.0,6564,-64225,174438,31532
5404.0,6389,-64692,174269,31291
5406.03,5446,-65496,173968,30936
5408.05,5187,-65617,173935,30845
5410.08,6220,-64803,174311,31179
5412.1,7249,-63907,174760,31662
5414.1,7210,-63637,174930,31932
5416.1,6585,-63860,174856,31980
5418.1,6146,-64043,174822,32096
5420.1,6134,-63743,174984,32471
5422.1,6703,-62896,175253,32996
5424.1,7711,-62044,175422,33419
5426.1,8472,-61793,175376,33619
5428.1,8805,-61861,175285,33796
5430.1,9389,-61407,175437,34266
5432.1,10436,-60391,175761,34943
5434.1,11318,-59592,175819,35342
5436.1,11764,-59231,175481,35301
5438.1,12064,-58791,175169,35237
5440.1,12302,-58194,175162,35435
5442.1,12514,-57925,175191,35613
5444.1,12813,-58067,175037,35523
5446.1,12667,-58300,174936,35367
5448.1,11384,-58698,174961,35191
5450.1,9559,-59572,174619,34512
5452.1,8397,-60760,173620,33112
5454.1,7866,-61831,172493,31608
5456.1,7221,-62711,171855,30638
5458.1,6543,-63564,171619,30069
5460.1,6236,-64320,171458,29569
5462.1,6021,-64808,171455,29302
5464.1,5558,-65057,171812,29504
5466.1,5132,-65111,172395,29970
5468.1,5148,-64899,172915,30354
5470.1,5513,-64663,173219,30553
5472.1,5766,-64851,173358,30646
5474.1,5784,-65191,173536,30795
5476.1,6028,-64929,173865,31078
5478.1,6531,-64302,174150,31329
5480.1,6461,-64275,174231,31399
5482.1,5647,-64726,174281,31437
5484.1,5174,-64772,174402,31547
5486.1,5514,-64577,174373,31523
5488.1,5863,-64839,174149,31309
5490.1,5762,-65236,174040,31195
5492.1,5584,-65173,174179,31320
5494.1,5542,-64945,174349,31469
5496.1,5596,-64938,174371,31467
5498.1,5781,-64919,174267,31355
5500.1,6044,-64712,174152,31250
5502.1,6305,-64472,174193,31281
5504.1,6544,-64250,174459,31507
5506.1,6610,-64078,174714,31738
5508.1,6492,-64147,174673,31723
5510.1,6364,-64483,174452,31548
5512.1,6055,-64809,174409,31520
5514.1,5517,-64873,174549,31642
5516.1,5471,-64717,174528,31594
5518.1,6108,-64652,174277,31331
5520.1,6301,-64886,174122,31181
5522.1,5618,-65142,174213,31271
5524.1,5220,-65037,174352,31390
5526.1,5562,-64769,174424,31446
5528.1,5712,-64713,174508,31530
5530.1,5632,-64601,174570,31598
5532.1,6168,-64155,174504,31545
5534.1,6657,-63997,174388,31458
5536.1,5815,-64576,174417,31504
5538.1,4558,-65033,174642,31697
5540.1,4573,-64704,174870,31872
5542.1,5277,-64463,174822,31801
5544.1,5450,-64933,174493,31475
5546.1,5725,-65215,174199,31174
5548.1,6493,-64904,174116,31080
5550.1,6437,-64945,174135,31110
5552.1,5444,-65374,174233,31237
5554.2,5247,-65073,174493,31506
5556.2,5974,-64181,174770,31763
5558.2,6086,-63893,174864,31841
5560.2,5587,-64272,174781,31778
5562.2,5518,-64690,174541,31575
5564.2,5638,-65094,174222,31276
5566.2,5445,-65275,174191,31241
5568.2,5418,-64830,174577,31620
5570.2,5732,-64326,174858,31900
5572.2,5988,-64457,174679,31723
5574.2,6256,-64718,174440,31485
5576.2,6548,-64589,174498,31544
5578.2,6397,-64492,174647,31684
5580.2,6033,-64562,174713,31728
5582.2,6167,-64395,174802,31794
5584.2,6422,-64241,174847,31833
5586.2,5968,-64627,174658,31658
5588.2,5297,-65170,174387,31394
5590.2,5524,-65154,174341,31326
5592.2,6527,-64659,174516,31468
5594.2,7137,-64266,174704,31643
5596.2,6745,-64255,174818,31770
5598.2,5922,-64475,174851,31827
5600.2,5614,-64522,174813,31808
5602.2,6063,-64135,174841,31842
5604.2,6620,-63704,175007,32020
5606.2,6706,-63859,175112,32152
5608.2,6560,-64377,175061,32120
5610.2,6560,-64488,175118,32168
5612.2,6424,-64270,175352,32394
5614.2,5988,-64356,175444,32498
5616.2,5961,-64475,175338,32407
5618.2,6711,-64006,175331,32413
5620.2,7380,-63440,175408,32516
5622.2,7333,-63519,175347,32477
5624.2,7104,-63807,175314,32428
5626.2,7063,-63654,175553,32626
5628.2,6836,-63407,175836,32895
5630.2,6463,-63497,175866,32953
5632.2,6434,-63589,175764,32893
5634.2,6655,-63381,175739,32896
5636.2,6793,-63158,175743,32909
5638.2,7036,-63151,175702,32877
5640.2,7446,-63145,175729,32908
5642.2,7543,-63013,175872,33039
5644.2,7266,-63042,175912,33067
5646.2,7240,-63344,175689,32853
5648.2,7565,-63477,175472,32652
5650.2,7491,-63223,175567,32742
5652.2,6820,-63101,175743,32903
5654.2,6510,-63358,175656,32811
5656.2,7154,-63422,175508,32670
5658.2,7862,-63132,175595,32766
5660.2,7596,-63148,175731,32904
5662.2,6785,-63511,175748,32919
5664.2,6538,-63411,175853,33024
5666.2,6944,-62837,176025,33199
5668.2,7213,-62737,175916,33092
5670.2,7046,-63283,175572,32754
5672.2,6922,-63547,175432,32633
5674.2,7130,-63080,175599,32830
5676.2,7225,-62610,175782,33042
5678.2,6792,-62860,175785,33062
5680.2,6365,-63441,175643,32910
5682.2,6720,-63506,175465,32696
5684.2,7423,-63157,175342,32532
5686.23,7388,-63204,175280,32446
5688.25,6743,-63651,175233,32395
5690.28,6409,-63802,175203,32383
5692.3,6215,-63713,175213,32417
5694.3,5573,-63940,175241,32445
5696.3,5193,-64196,175254,32438
5698.3,5875,-63920,175210,32392
5700.3,6732,-63521,175083,32273
5702.3,6726,-63578,174949,32124
5704.3,6478,-63730,174922,32080
5706.3,6811,-63535,174985,32171
5708.3,7136,-63341,175050,32294
5710.3,6766,-63499,175095,32380
5712.3,6285,-63772,175093,32384
5714.3,6434,-63899,174979,32263
5716.3,6881,-63887,174824,32099
5718.3,6947,-63771,174787,32052
5720.3,6601,-63711,174868,32117
5722.3,6170,-63979,174910,32144
5724.3,5870,-64382,174867,32106
5726.3,5878,-64338,174861,32125
5728.3,6163,-63840,174988,32271
5730.3,6357,-63500,175181,32458
5732.3,6299,-63523,175261,32523
5734.3,6216,-63605,175139,32392
5736.3,6218,-63689,174936,32179
5738.3,6333,-63862,174817,32047
5740.3,6652,-63948,174784,32010
5742.3,6779,-63896,174817,32042
5744.3,6207,-63891,174994,32205
5746.3,5531,-63886,175192,32391
5748.3,5684,-63823,175082,32303
5750.3,6338,-63888,174745,32007
5752.3,6753,-63923,174698,31982
5754.3,7055,-63582,175010,32291
5756.3,7263,-63294,175158,32427
5758.3,6877,-63663,174961,32210
5760.3,6264,-64177,174810,32041
5762.3,6264,-64073,174895,32139
5764.3,6482,-63738,175003,32285
5766.3,6161,-63835,175033,32334
5768.3,5870,-64053,175076,32368
5770.3,6247,-63921,175120,32416
5772.3,6532,-63818,175090,32413
5774.3,6145,-64122,175019,32352
5776.3,5864,-64336,175039,32347
5778.3,6137,-63989,175243,32516
5780.3,6220,-63565,175519,32772
5782.3,5819,-63637,175608,32849
5784.3,5581,-63846,175493,32714
5786.3,5674,-63679,175437,32625
5788.3,5720,-63467,175480,32642
5790.3,5881,-63637,175382,32536
5792.3,6410,-63841,175157,32314
5794.3,6765,-63724,175099,32264
5796.3,6432,-63601,175261,32456
5798.3,5851,-63632,175448,32686
5800.3,5754,-63440,175553,32802
5802.3,6218,-63023,175552,32771
5804.3,6719,-62857,175467,32666
5806.3,6786,-62928,175468,32677
5808.3,6561,-62826,175587,32796
5810.3,6583,-62651,175554,32735
5812.3,6889,-62736,175322,32495
5814.3,6942,-62919,175220,32426
5816.3,6635,-62926,175319,32563
5818.3,6436,-62848,175361,32630
5820.3,6476,-62775,175326,32619
5822.3,6535,-62662,175304,32627
5824.3,6674,-62660,175164,32505
5826.3,6955,-62863,174941,32281
5828.3,7068,-62977,174940,32277
5830.3,6901,-62808,175136,32485
5832.3,6733,-62593,175225,32589
5834.4,6616,-62535,175210,32572
5836.4,6428,-62643,175190,32544
5838.4,6286,-62970,175033,32387
5840.4,6285,-63377,174784,32138
5842.4,6353,-63443,174714,32058
5844.4,6572,-63183,174750,32086
5846.4,6851,-63182,174663,32002
5848.4,6743,-63580,174632,31978
5850.4,6332,-63837,174866,32214
5852.4,6274,-63798,175098,32443
5854.4,6498,-63950,175042,32383
5856.4,6318,-64402,174809,32142
5858.4,5782,-64665,174631,31949
5860.4,5471,-64563,174610,31911
5862.4,5594,-64419,174706,32000
5864.4,6124,-64377,174718,32011
5866.4,6629,-64442,174533,31823
5868.4,6155,-64794,174391,31683
5870.4,4904,-65208,174525,31828
5872.4,4656,-65004,174727,32032
5874.4,5829,-64406,174629,31921
5876.4,6583,-64507,174245,31527
5878.4,6180,-65232,173961,31240
5880.4,5928,-65302,174070,31344
5882.4,6142,-64647,174414,31675
5884.4,5836,-64483,174566,31815
5886.4,5338,-64935,174401,31650
5888.4,5655,-65081,174205,31459
5890.4,6138,-64977,174131,31390
5892.4,5781,-65270,174065,31329
5894.4,5296,-65527,174079,31342
5896.4,5659,-65072,174334,31578
5898.4,6416,-64461,174524,31736
5900.4,6792,-64472,174271,31465
5902.4,6672,-64814,173918,31119
5904.4,6091,-65001,174014,31238
5906.4,5436,-65104,174339,31589
5908.4,5664,-65036,174355,31625
5910.4,6714,-64625,174156,31428
5912.4,6975,-64451,174123,31383
5914.4,5895,-64982,174203,31456
5916.4,5176,-65431,174191,31453
5918.4,5776,-65125,174148,31422
5920.4,6239,-64820,174167,31447
5922.4,5639,-65078,174218,31511
5924.4,5279,-65122,174302,31620
5926.4,5937,-64644,174373,31709
5928.4,6442,-64522,174319,31643
5930.4,6147,-64919,174179,31488
5932.4,5961,-65075,174053,31366
5934.4,6293,-65037,173885,31199
5936.4,6342,-65269,173771,31065
5938.4,5675,-65341,174032,31314
5940.4,4869,-64997,174506,31793
5942.4,4708,-64967,174538,31823
5944.4,5406,-65313,174104,31383
5946.4,6281,-65119,173941,31228
5948.4,6390,-64508,174238,31532
5950.4,5874,-64519,174384,31675
5952.4,5702,-65007,174181,31467
5954.4,5938,-65075,174063,31331
5956.4,5865,-64907,174087,31302
5958.4,5692,-65136,173912,31042
5960.4,5998,-65528,173622,30663
5962.4,6081,-65743,173589,30553
5964.4,5301,-65936,173777,30703
5966.43,4826,-65886,174005,30949
5968.45,5595,-65170,174377,31384
5970.48,6450,-64242,174839,31951
5972.5,6464,-63819,174988,32274
5974.5,6518,-63717,174798,32321
5976.5,7073,-63468,174756,32524
5978.5,7457,-63121,174978,32980
5980.5,7835,-62744,175091,33337
5982.5,8710,-62263,175046,33554
5984.5,9309,-61864,175155,33940
5986.5,9337,-61516,175346,34451
5988.5,10084,-60764,175272,34739
5990.5,11680,-59728,174992,34798
5992.5,12490,-59124,174866,34943
5994.5,12216,-58992,174994,35282
5996.5,12020,-58834,175176,35617
5998.5,12026,-58768,175200,35684
6000.5,11898,-59103,174960,35349
6002.5,12041,-59525,174514,34687
6004.5,11988,-59896,173982,33836
6006.5,10510,-60732,173319,32784
6008.5,8258,-62130,172487,31569
6010.5,7014,-63436,171762,30521
6012.5,6743,-64267,171449,29929
6014.5,6376,-64784,171462,29685
6016.5,5994,-65113,171579,29581
6018.5,5869,-65280,171820,29653
6020.5,5509,-65358,172263,29969
6022.5,5027,-65323,172763,30364
6024.5,5204,-65151,173126,30642
6026.5,5746,-65054,173374,30820
6028.5,5668,-65223,173630,31015
6030.5,5164,-65511,173864,31193
6032.5,5156,-65634,173960,31228
6034.5,5565,-65562,173946,31160
6036.5,5686,-65506,173939,31120
6038.5,5580,-65536,173943,31113
6040.5,5680,-65464,173932,31104
6042.5,5762,-65282,173966,31146
6044.5,5434,-65324,174034,31211
6046.5,4951,-65655,174046,31204
6048.5,4767,-65864,174050,31196
6050.5,4839,-65772,174125,31281
6052.5,4831,-65654,174183,31351
6054.5,4724,-65608,174172,31332
6056.5,4950,-65443,174170,31315
6058.5,5799,-65174,174131,31274
6060.5,6756,-65012,173961,31102
6062.5,6985,-64991,173845,30976
6064.5,6488,-65030,173981,31115
6066.5,6003,-65132,174158,31311
6068.5,5849,-65296,174115,31276
6070.5,5771,-65389,174048,31193
6072.5,5786,-65242,174194,31331
6074.5,6188,-64914,174319,31461
6076.5,6664,-64815,174163,31294
6078.5,6401,-65271,173940,31044
6080.5,5443,-65878,173914,31011
6082.5,4916,-65832,174029,31144
6084.5,5297,-65175,174198,31332
6086.5,5767,-64880,174349,31491
6088.5,5845,-65326,174255,31399
6090.5,5968,-65707,173959,31099
6092.5,6053,-65473,173910,31038
6094.5,5522,-65185,174168,31279
6096.5,4831,-65341,174258,31346
6098.5,4917,-65561,174087,31151
6100.5,5439,-65515,174038,31098
6102.5,5439,-65521,174155,31237
6104.5,5102,-65716,174174,31278
6106.5,5278,-65710,174108,31204
6108.5,5881,-65429,174102,31171
6110.5,6110,-65283,174157,31218
6112.5,5889,-65310,174303,31376
6114.6,5849,-65185,174509,31582
6116.6,6043,-65034,174526,31577
6118.6,5951,-65179,174300,31337
6120.6,5615,-65382,174166,31210
6122.6,5449,-65333,174257,31322
6124.6,5353,-65263,174317,31410
6126.6,5273,-65287,174279,31396
6128.6,5627,-65146,174350,31471
6130.6,6122,-65065,174475,31589
6132.6,5836,-65545,174373,31493
6134.6,5172,-66135,174121,31248
6136.6,5432,-65957,174074,31196
6138.6,6292,-65329,174265,31384
6140.6,6341,-65211,174389,31513
6142.6,5760,-65471,174359,31475
6144.6,5757,-65348,174404,31505
6146.6,6156,-64993,174612,31720
6148.6,6011,-65020,174776,31907
6150.6,5552,-65260,174738,31873
6152.6,5578,-65223,174590,31709
6154.6,5992,-64992,174522,31637
6156.6,6222,-64849,174600,31725
6158.6,6120,-64831,174700,31831
6160.6,5936,-64936,174671,31806
6162.6,6096,-65049,174559,31705
6164.6,6751,-64866,174562,31713
6166.6,7225,-64431,174771,31911
6168.6,6821,-64203,175040,32180
6170.6,6163,-64311,175135,32302
6172.6,6314,-64378,175031,32222
6174.6,6996,-64156,174990,32181
6176.6,7273,-63840,175137,32336
6178.6,7070,-63807,175213,32441
6180.6,6685,-64166,175101,32342
6182.6,6197,-64530,175091,32314
6184.6,6061,-64495,175243,32451
6186.6,6516,-64246,175272,32481
6188.6,6794,-64141,175253,32459
6190.6,6641,-64077,175417,32626
6192.6,6903,-63961,175471,32713
6194.6,7349,-64062,175202,32485
6196.6,6803,-64320,175103,32403
6198.6,5894,-64275,175403,32705
6200.6,6188,-63978,175569,32870
6202.6,7157,-63887,175422,32705
6204.6,7331,-63959,175414,32669
6206.6,6929,-63874,175580,32835
6208.6,6843,-63714,175561,32849
6210.6,6963,-63685,175480,32787
6212.6,6889,-63764,175618,32909
6214.6,6643,-63892,175728,33013
6216.6,6448,-63963,175574,32879
6218.6,6571,-63789,175454,32760
6220.6,6950,-63510,175573,32851
6222.6,7195,-63458,175607,32882
6224.6,7380,-63483,175354,32666
6226.6,7697,-63297,175152,32489
6228.6,7550,-63218,175270,32604
6230.6,6690,-63596,175467,32803
6232.6,6199,-64053,175453,32801
6234.6,6709,-64157,175324,32674
6236.6,7315,-64011,175302,32655
6238.6,7355,-63746,175382,32742
6240.6,7239,-63513,175369,32718
6242.6,7060,-63812,175156,32478
6244.6,6455,-64696,174907,32223
6246.6,5813,-65290,174858,32188
6248.6,5848,-65083,174950,32286
6250.6,6230,-64673,174982,32321
6252.6,6114,-64592,174996,32351
6254.6,5693,-64634,175058,32416
6256.63,5788,-64615,174979,32315
6258.65,6235,-64623,174761,32077
6260.68,6231,-64536,174752,32072
6262.7,5920,-64248,174985,32318
6264.7,6012,-64099,175034,32381
6266.7,6386,-64359,174779,32141
6268.7,6485,-64710,174570,31930
6270.7,6378,-64819,174545,31882
6272.7,6411,-64839,174499,31818
6274.7,6605,-64893,174405,31730
6276.7,6698,-64812,174451,31791
6278.7,6345,-64732,174603,31948
6280.7,5713,-64941,174638,31971
6282.7,5674,-65041,174600,31914
6284.7,6394,-64520,174724,32029
6286.7,6694,-64000,174912,32220
6288.7,5996,-64409,174818,32133
6290.7,5375,-65261,174513,31851
6292.7,5703,-65305,174462,31844
6294.7,6413,-64493,174758,32173
6296.7,6641,-63995,174958,32375
6298.7,6320,-64421,174796,32209
6300.7,6040,-64997,174566,31988
6302.7,6294,-64799,174621,32044
6304.7,6736,-64185,174837,32250
6306.7,6687,-64137,174883,32294
6308.7,6365,-64526,174782,32203
6310.7,6432,-64510,174773,32207
6312.7,6614,-64280,174814,32258
6314.7,6275,-64558,174760,32193
6316.7,5737,-64991,174727,32128
6318.7,5689,-64870,174796,32176
6320.7,6019,-64448,174827,32213
6322.7,6180,-64218,174815,32214
6324.7,6159,-64173,174810,32209
6326.7,6419,-64346,174628,32018
6328.7,6933,-64647,174370,31751
6330.7,6919,-64516,174548,31923
6332.7,6081,-64039,175045,32425
6334.7,5345,-64115,175143,32536
6336.7,5402,-64620,174927,32330
6338.7,5623,-64446,175098,32500
6340.7,5446,-63776,175441,32834
6342.7,5398,-63823,175251,32639
6344.7,5758,-64445,174846,32240
6346.7,5877,-64574,174935,32337
6348.7,5703,-64270,175245,32649
6350.7,6131,-64141,175222,32623
6352.7,7035,-64065,175073,32476
6354.7,7010,-64053,175077,32478
6356.7,5975,-64462,174997,32388
6358.7,5667,-64711,174824,32204
6360.7,6550,-64095,174933,32308
6362.7,6959,-63439,175271,32649
6364.7,6256,-63618,175427,32826
6366.7,5807,-63902,175372,32813
6368.7,6210,-63720,175288,32772
6370.7,6570,-63732,175110,32631
6372.7,6527,-64030,174854,32397
6374.7,6381,-63957,174752,32295
6376.7,6019,-63793,174807,32338
6378.7,5614,-64103,174831,32360
6380.7,5747,-64437,174816,32344
6382.7,6070,-64484,174789,32298
6384.7,6029,-64563,174704,32204
6386.7,6345,-64360,174695,32247
6388.7,7316,-63568,174872,32502
6390.7,7525,-63177,174982,32636
6392.7,6531,-63812,174840,32455
6394.7,5978,-64438,174646,32231
6396.73,6474,-64345,174569,32167
6398.75,6805,-64128,174576,32188
6400.78,6715,-64124,174644,32235
6402.8,6930,-64192,174645,32208
6404.8,7008,-64557,174468,32025
6406.8,6301,-65122,174398,31964
6408.8,5656,-65247,174623,32193
6410.8,5795,-65045,174699,32268
6412.8,5924,-65138,174398,31972
6414.8,5506,-65332,174232,31810
6416.8,5381,-65180,174346,31914
6418.8,6110,-64936,174212,31751
6420.8,6834,-64809,173881,31394
6422.8,6623,-64653,173976,31497
6424.8,5924,-64676,174355,31902
6426.8,5748,-65062,174352,31888
6428.8,5938,-65386,174050,31539
6430.8,5647,-65430,173960,31428
6432.8,5230,-65482,174014,31509
6434.8,5645,-65486,173929,31452
6436.8,6318,-65273,173843,31362
6438.8,6109,-65207,173898,31399
6440.8,5689,-65391,173928,31410
6442.8,6197,-65327,173846,31320
6444.8,6867,-65060,173773,31259
6446.8,6572,-65133,173770,31271
6448.8,5858,-65399,173846,31344
6450.8,5554,-65389,174010,31509
6452.8,5536,-65260,174121,31636
6454.8,5685,-65319,174007,31511
6456.8,5931,-65533,173776,31248
6458.8,5797,-65801,173707,31191
6460.8,5447,-65877,173845,31387
6462.8,5600,-65595,173956,31519
6464.8,5873,-65418,173905,31431
6466.8,5604,-65558,173858,31358
6468.8,5531,-65345,173954,31470
6470.8,6053,-64840,173986,31518
6472.8,5986,-65125,173764,31302
6474.8,5269,-65899,173557,31114
6476.8,5561,-65670,173682,31257
6478.8,6698,-64795,173923,31497
6480.8,6628,-64941,173939,31513
6482.8,5350,-65862,173847,31414
6484.8,4791,-66065,173880,31401
6486.8,5213,-65660,173910,31380
6488.8,5424,-65646,173777,31251
6490.8,5326,-65857,173636,31147
6492.8,5419,-65790,173649,31162
6494.8,5485,-65763,173714,31216
6496.8,5456,-65897,173751,31285
6498.8,5740,-65655,173865,31446
6500.8,6142,-65065,174025,31608
6502.8,6186,-64826,174007,31568
6504.8,6072,-65095,173821,31383
6506.8,6040,-65470,173735,31292
6508.8,5960,-65763,173772,31288
6510.8,6041,-65896,173737,31205
6512.8,6390,-65800,173672,31115
6514.8,6279,-65811,173739,31131
6516.8,5469,-66189,173817,31113
6518.8,4891,-66498,173769,31004
6520.8,4798,-66446,173811,31075
6522.8,4478,-66382,174143,31470
6524.8,4316,-66256,174548,31936
6526.8,5282,-65638,174683,32196
6528.8,6567,-64963,174537,32256
6530.8,6742,-64909,174387,32315
6532.8,6397,-64899,174438,32559
6534.8,6970,-64082,174617,32982
6536.83,8336,-63003,174669,33339
6538.85,9564,-62626,174445,33432
6540.88,10487,-62641,174124,33439
6542.9,11233,-62052,174077,33745
6544.9,11667,-60759,174366,34365
6546.9,11846,-59640,174589,34850
6548.9,12070,-59223,174505,34987
6550.9,12472,-59041,174429,35099
6552.9,12848,-58696,174573,35333
6554.9,12722,-58745,174610,35332
6556.9,11918,-59632,174297,34882
6558.9,11005,-60737,173791,34132
6560.9,10338,-61563,173122,33103
6562.9,9292,-62561,172222,31804
6564.9,7558,-63882,171448,30684
6566.9,6020,-64865,171221,30162
6568.9,5428,-65314,171349,30007
6570.9,5564,-65667,171406,29815
6572.9,5922,-65920,171466,29690
6574.9,5911,-65870,171840,29931
6576.9,5102,-65871,172406,30390
6578.9,4237,-66121,172765,30653
6580.9,4498,-66146,172894,30690
6582.9,5458,-65820,173116,30833
6584.9,5723,-65734,173464,31128
6586.9,5307,-66055,173628,31271
6588.9,5258,-66177,173582,31225
6590.9,5636,-65811,173625,31264
6592.9,5786,-65394,173789,31402
6594.9,5774,-65287,173827,31408
6596.9,5903,-65399,173747,31319
6598.9,5782,-65615,173783,31358
6600.9,5205,-65891,173922,31487
6602.9,4946,-66018,173931,31482
6604.9,5496,-65889,173759,31314
6606.9,6063,-65747,173593,31147
6608.9,5818,-65813,173560,31090
6610.9,5110,-65975,173607,31115
6612.9,4816,-66009,173663,31178
6614.9,5300,-65818,173731,31267
6616.9,6064,-65587,173747,31285
6618.9,6099,-65706,173651,31165
6620.9,5238,-66101,173626,31120
6622.9,4808,-66110,173843,31350
6624.9,5570,-65666,174029,31564
6626.9,6205,-65541,173918,31454
6628.9,5688,-65856,173801,31324
6630.9,5216,-65964,173895,31425
6632.9,5749,-65957,173822,31365
6634.9,6180,-66285,173500,31023
6636.9,5763,-66375,173502,31001
6638.9,5446,-65782,173913,31430
6640.9,5502,-65462,174108,31658
6642.9,5009,-65996,173970,31527
6644.9,4340,-66351,173944,31508
6646.9,4859,-65867,174004,31597
6648.9,6037,-65393,173865,31465
6650.9,6042,-65568,173714,31289
6652.9,4974,-65890,173762,31325
6654.9,4557,-65925,173800,31376
6656.9,5151,-65836,173755,31335
6658.9,5704,-65658,173845,31416
6660.9,6019,-65255,174026,31587
6662.9,6578,-64934,174041,31584
6664.9,6763,-65253,173871,31400
6666.9,5657,-66220,173649,31191
6668.9,4136,-67096,173480,31048
6670.9,4032,-67050,173547,31124
6672.9,5417,-66066,173898,31468
6674.9,6462,-65173,174157,31712
6676.93,5974,-65315,174040,31564
6678.95,4807,-66025,173867,31362
6680.98,4422,-66153,173945,31447
6683.0,4879,-65793,173972,31505
6685.0,5148,-65911,173726,31266
6687.0,5079,-66298,173627,31144
6689.0,5434,-65993,173940,31443
6691.0,5980,-65386,174202,31727
6693.0,5780,-65501,174081,31644
6695.0,5303,-65885,173939,31525
6697.0,5632,-65613,174050,31631
6699.0,6176,-65265,174104,31666
6701.0,5903,-65632,173943,31485
6703.0,5471,-66022,173927,31456
6705.0,5618,-65805,174192,31726
6707.0,5641,-65682,174338,31907
6709.0,5297,-65975,174201,31824
6711.0,5440,-65942,174161,31809
6713.0,5904,-65578,174339,31954
6715.0,5795,-65576,174390,31955
6717.0,5611,-65581,174301,31861
6719.0,6149,-64992,174434,32028
6721.0,6626,-64595,174699,32304
6723.0,6339,-65030,174716,32309
6725.0,6153,-65316,174624,32242
6727.0,6595,-64841,174727,32395
6729.0,6885,-64586,174791,32463
6731.0,6749,-65022,174599,32241
6733.0,6762,-65257,174498,32157
6735.0,6784,-64985,174717,32437
6737.0,6306,-64871,174943,32688
6739.0,5858,-64934,174971,32693
6741.0,6128,-64683,174975,32673
6743.0,6639,-64368,175006,32694
6745.0,6735,-64425,174960,32638
6747.0,6580,-64586,174908,32601
6749.0,6379,-64599,174962,32692
6751.0,6168,-64589,175081,32824
6753.0,6420,-64354,175253,32969
6755.0,7251,-63759,175424,33114
6757.0,7651,-63523,175352,33046
6759.0,7031,-64096,175020,32735
6761.0,6334,-64646,174841,32578
6763.0,6411,-64475,175001,32745
6765.0,6751,-64105,175183,32904
6767.0,6671,-64063,175229,32919
6769.0,6388,-64120,175305,32995
6771.0,6381,-64162,175329,33043
6773.0,6621,-64377,175096,32819
6775.0,6746,-64613,174828,32543
6777.0,6600,-64630,174839,32558
6779.0,6490,-64575,174998,32741
6781.0,6742,-64572,175071,32841
6783.0,7056,-64502,175086,32876
6785.0,6859,-64422,175099,32888
6787.0,6330,-64518,175075,32833
6789.0,6193,-64709,175014,32739
6791.0,6420,-64828,174905,32642
6793.0,6309,-64916,174762,32545
6795.0,5951,-64954,174731,32537
6797.0,6124,-64770,174853,32648
6799.0,6676,-64479,174917,32717
6801.0,6722,-64487,174817,32649
6803.0,6334,-64846,174667,32513
6805.0,6246,-65114,174523,32347
6807.0,6401,-65029,174417,32218
6809.0,6418,-64843,174458,32258
6811.0,6467,-64899,174537,32340
6813.0,6510,-65173,174422,32214
6815.0,6179,-65325,174258,32046
6817.03,5828,-65213,174312,32118
6819.05,5936,-65162,174388,32215
6821.08,5929,-65378,174292,32113
6823.1,5394,-65427,174357,32153
6825.1,5167,-65015,174730,32516
6827.1,5691,-64712,174897,32700
6829.1,6110,-64951,174613,32440
6831.1,5976,-65179,174380,32206
6833.1,5797,-64992,174490,32290
6835.1,5665,-64947,174571,32354
6837.1,5360,-65344,174413,32216
6839.1,5331,-65528,174290,32117
6841.1,5854,-65167,174300,32114
6843.1,6257,-64815,174284,32068
6845.1,6213,-64745,174338,32114
6847.1,6267,-64670,174574,32355
6849.1,6409,-64702,174685,32470
6851.1,6009,-65139,174477,32286
6853.1,5340,-65612,174295,32143
6855.1,5176,-65746,174349,32208
6857.1,5299,-65824,174364,32216
6859.1,5230,-65805,174293,32153
6861.1,5408,-65156,174423,32293
6863.1,6100,-64293,174637,32489
6865.1,6607,-64245,174575,32402
6867.1,6545,-64756,174381,32201
6869.1,6298,-64871,174372,32195
6871.1,5954,-64860,174397,32231
6873.1,5456,-65359,174288,32152
6875.1,5336,-65731,174293,32186
6877.1,5847,-65297,174496,32389
6879.1,6321,-64737,174566,32431
6881.1,6339,-64755,174410,32245
6883.1,6266,-64928,174323,32149
6885.1,6259,-64847,174388,32234
6887.1,6083,-64816,174413,32282
6889.1,5914,-64917,174390,32260
6891.1,6073,-64772,174444,32311
6893.1,6286,-64439,174505,32388
6895.1,6114,-64418,174478,32379
6897.1,5710,-64763,174495,32392
6899.1,5592,-65014,174632,32505
6901.1,5912,-64956,174693,32538
6903.1,6262,-64795,174597,32431
6905.1,6198,-64743,174574,32414
6907.1,5863,-64818,174699,32538
6909.1,5795,-64857,174757,32585
6911.1,6121,-64622,174718,32553
6913.1,6454,-64203,174749,32608
6915.1,6595,-64081,174765,32630
6917.1,6627,-64364,174637,32485
6919.1,6422,-64495,174622,32466
6921.1,5914,-64199,174882,32757
6923.1,5615,-63995,174993,32905
6925.1,5871,-64286,174615,32536
6927.1,6147,-64637,174212,32125
6929.1,6008,-64493,174378,32300
6931.1,5801,-64143,174839,32787
6933.1,5675,-64317,174871,32844
6935.1,5465,-64842,174477,32473
6937.1,5757,-64682,174312,32330
6939.1,6931,-63746,174536,32555
6941.1,7619,-63325,174677,32682
6943.1,6709,-63920,174596,32622
6945.1,5652,-64378,174617,32686
6947.1,6021,-64084,174708,32771
6949.1,6730,-64002,174532,32541
6951.1,6341,-64681,174212,32199
6953.1,5674,-65250,174147,32168
6955.1,5866,-65079,174293,32349
6957.13,6361,-64714,174309,32375
6959.15,6339,-64758,174142,32204
6961.18,5932,-65117,173990,32034
6963.2,5514,-65435,173978,31986
6965.2,5409,-65490,174077,32065
6967.2,5804,-65345,174147,32146
6969.2,6160,-65373,174039,32052
6971.2,5917,-65722,173825,31827
6973.2,5647,-65943,173746,31725
6975.2,5868,-65771,173839,31809
6977.2,5894,-65680,173869,31857
6979.2,5421,-65973,173725,31748
6981.2,5325,-66192,173555,31593
6983.2,5703,-66084,173450,31469
6985.2,5640,-66024,173360,31350
6987.2,5358,-66042,173343,31325
6989.2,5783,-65744,173494,31483
6991.2,6329,-65377,173638,31638
6993.2,5984,-65529,173559,31571
6995.2,5405,-65907,173410,31414
6997.2,5422,-65875,173462,31427
6999.2,5380,-65691,173631,31561
7001.2,4958,-65851,173677,31614
7003.2,5065,-66046,173615,31580
7005.2,5670,-65952,173595,31568
7007.2,5692,-65946,173618,31587
7009.2,5457,-66154,173604,31578
7011.2,6084,-66036,173563,31540
7013.2,6817,-65516,173596,31561
7015.2,6223,-65267,173737,31698
7017.2,5099,-65504,173832,31808
7019.2,5133,-65732,173735,31713
7021.2,5861,-65813,173589,31543
7023.2,5731,-66141,173609,31540
7025.2,5001,-66654,173649,31586
7027.2,5034,-66774,173463,31430
7029.2,5661,-66407,173255,31256
7031.2,5624,-66019,173405,31428
7033.2,5014,-65827,173750,31775
7035.2,4996,-65809,173737,31752
7037.2,5560,-66101,173312,31320
7039.2,5763,-66493,173081,31082
7041.2,5686,-66364,173373,31351
7043.2,5942,-65854,173716,31686
7045.2,6043,-65884,173663,31663
7047.2,5371,-66493,173474,31511
7049.2,4742,-66726,173485,31514
7051.2,5113,-66372,173501,31500
7053.2,5877,-66120,173352,31360
7055.2,5932,-66182,173300,31348
7057.2,5365,-66290,173439,31504
7059.2,5045,-66445,173503,31553
7061.2,5345,-66529,173478,31511
7063.2,5868,-66168,173612,31629
7065.2,6069,-65687,173783,31774
7067.2,5814,-65905,173650,31621
7069.2,5424,-66637,173316,31273
7071.2,5321,-66888,173137,31054
7073.2,5567,-66605,173147,30991
7075.2,5710,-66624,173239,31016
7077.2,5376,-66972,173464,31209
7079.2,4955,-66886,173771,31531
7081.2,5020,-66350,173956,31807
7083.2,5374,-65988,174044,32066
7085.2,5644,-65730,174166,32390
7087.2,6155,-65086,174246,32667
7089.2,7050,-64274,174273,32910
7091.2,7740,-63806,174417,33297
7093.2,8214,-63529,174518,33654
7095.2,9319,-63015,174237,33662
7097.2,10987,-62287,173810,33571
7099.2,12040,-61621,173726,33813
7101.2,12181,-61106,173843,34195
7103.2,12431,-60618,173772,34366
7105.2,13292,-60008,173662,34499
7107.23,13882,-59494,173762,34759
7109.25,13298,-59643,173837,34844
7111.28,11963,-60521,173642,34544
7113.3,10954,-61409,173282,34013
7115.3,10387,-61902,172826,33309
7117.3,9464,-62441,172218,32380
7119.3,8073,-63357,171590,31420
7121.3,7025,-64421,171116,30639
7123.3,6545,-65427,170805,30037
7125.3,6024,-66172,170790,29756
7127.3,5388,-66258,171205,29967
7129.3,5187,-65893,171689,30304
7131.3,5274,-65942,171823,30315
7133.3,4994,-66433,171908,30293
7135.3,4613,-66466,172366,30669
7137.3,4879,-66022,172832,31076
7139.3,5388,-66026,172864,31064
7141.3,5225,-66494,172807,30967
7143.3,4767,-66555,173054,31168
7145.3,4920,-66207,173332,31397
7147.3,5310,-66228,173358,31399
7149.3,5120,-66680,173296,31351
7151.3,4711,-66967,173276,31362
7153.3,4848,-66884,173232,31341
7155.3,5445,-66608,173211,31329
7157.3,5986,-66258,173298,31412
7159.3,6127,-65984,173436,31539
7161.3,5829,-65922,173529,31619
7163.3,5578,-65957,173498,31581
7165.3,5790,-65965,173361,31443
7167.3,5936,-66042,173353,31434
7169.3,5458,-66222,173583,31664
7171.3,4973,-66380,173709,31797
7173.3,5168,-66498,173471,31576
7175.3,5510,-66614,173195,31310
7177.3,5311,-66632,173233,31333
7179.3,4972,-66486,173421,31493
7181.3,5187,-66223,173540,31599
7183.3,5732,-65931,173643,31706
7185.3,5807,-65893,173668,31732
7187.3,5253,-66374,173439,31495
7189.3,4827,-66928,173163,31222
7191.3,4971,-66776,173222,31306
7193.3,5060,-66183,173511,31623
7195.3,4666,-66176,173597,31712
7197.3,4550,-66755,173392,31492
7199.3,5191,-66914,173228,31312
7201.3,5661,-66436,173355,31422
7203.3,5256,-66046,173665,31713
7205.3,4737,-66014,173842,31885
7207.3,4821,-66059,173727,31786
7209.3,5095,-66208,173489,31560
7211.3,5153,-66565,173372,31433
7213.3,5212,-66741,173453,31502
7215.3,5360,-66390,173705,31765
7217.3,5449,-65876,173978,32071
7219.3,5474,-65862,173971,32087
7221.3,5355,-66432,173623,31727
7223.3,5036,-66917,173357,31421
7225.3,4821,-66717,173481,31506
7227.3,4796,-66184,173709,31721
7229.3,4656,-66123,173688,31711
7231.3,4689,-66510,173500,31546
7233.3,5356,-66656,173365,31436
7235.3,5892,-66493,173345,31441
7237.3,5447,-66450,173468,31577
7239.3,4915,-66433,173669,31755
7241.3,5300,-66214,173694,31735
7243.3,5808,-66111,173492,31514
7245.3,5649,-66204,173440,31460
7247.3,5545,-65998,173741,31734
7249.3,5842,-65612,174017,31987
7251.3,5640,-65808,173900,31899
7253.3,4842,-66488,173580,31620
7255.3,4575,-66724,173467,31502
7257.3,5127,-66279,173649,31674
7259.3,5578,-65779,173925,31975
7261.3,5520,-65645,174101,32170
7263.3,5461,-65801,174141,32202
7265.3,5672,-66033,174122,32184
7267.33,5846,-66143,174078,32156
7269.35,5841,-66032,174010,32089
7271.38,5963,-65724,174032,32109
7273.4,6384,-65296,174248,32334
7275.4,6736,-64991,174461,32548
7277.4,6629,-65114,174402,32485
7279.4,6305,-65482,174212,32304
7281.4,6223,-65558,174245,32355
7283.4,6221,-65410,174474,32600
7285.4,5933,-65603,174558,32702
7287.4,5715,-66012,174444,32603
7289.4,6076,-65908,174447,32600
7291.4,6646,-65277,174683,32824
7293.4,6805,-64863,174838,32981
7295.4,6646,-64988,174697,32851
7297.4,6459,-65259,174540,32699
7299.4,6289,-65240,174661,32823
7301.4,6362,-64884,174836,33005
7303.4,6768,-64526,174749,32920
7305.4,7019,-64526,174565,32731
7307.4,6952,-64785,174548,32716
7309.4,6975,-64982,174558,32749
7311.4,6913,-65154,174466,32688
7313.4,6351,-65346,174552,32783
7315.4,5902,-65218,174954,33174
7317.4,6201,-64767,175269,33494
7319.4,6672,-64581,175138,33387
7321.4,6857,-64788,174759,33006
7323.4,7132,-64886,174540,32743
7325.4,7239,-64849,174637,32797
7327.4,6550,-65039,174937,33099
7329.4,5822,-65200,175183,33377
7331.4,6121,-64957,175151,33379
7333.4,6729,-64768,174907,33166
7335.4,6545,-65043,174739,33018
7337.4,6190,-65255,174747,33019
7339.4,6539,-65040,174783,33035
7341.4,6909,-64957,174758,33006
7343.4,6564,-65270,174681,32941
7345.4,6209,-65414,174547,32813
7347.4,6526,-65191,174430,32699
7349.4,6961,-65024,174472,32754
7351.4,6965,-64938,174645,32941
7353.4,6820,-64697,174762,33064
7355.4,6688,-64630,174711,33025
7357.4,6278,-65125,174506,32842
7359.4,5659,-65772,174272,32623
7361.4,5337,-65943,174222,32573
7363.4,5501,-65690,174373,32719
7365.4,5906,-65469,174449,32788
7367.4,6298,-65372,174357,32698
7369.4,6456,-65231,174348,32712
7371.4,6178,-65248,174432,32815
7373.4,5719,-65691,174301,32670
7375.4,5726,-66090,174024,32361
7377.4,6224,-65875,173963,32295
7379.4,6414,-65524,174038,32392
7381.4,6013,-65684,173972,32343
7383.4,5716,-65949,173924,32300
7385.4,5883,-65859,174043,32431
7387.4,6054,-65785,174056,32449
7389.4,5992,-65785,173943,32323
7391.4,5949,-65406,174087,32458
7393.4,5916,-65041,174370,32765
7395.4,5675,-65440,174275,32690
7397.4,5511,-66050,173920,32319
7399.4,5930,-65897,173865,32233
7401.4,6596,-65447,174069,32431
7403.4,6515,-65676,174112,32490
7405.4,5718,-66130,174045,32448
7407.4,5554,-65775,174159,32590
7409.4,6397,-65009,174337,32791
7411.4,6787,-65031,174328,32790
7413.4,6023,-65777,174234,32694
7415.4,5353,-66210,174256,32716
7417.43,5476,-66103,174344,32802
7419.45,5550,-65964,174357,32809
7421.48,5328,-65883,174268,32705
7423.5,5497,-65782,174100,32518
7425.5,5805,-65939,173926,32327
7427.5,5475,-66320,173865,32262
7429.5,4999,-66356,173948,32359
7431.5,5335,-65840,174120,32553
7433.5,6199,-65195,174333,32773
7435.5,6754,-64816,174465,32888
7437.5,6836,-64797,174385,32788
7439.5,6445,-65115,174237,32638
7441.5,5475,-65612,174265,32670
7443.5,4617,-65886,174411,32804
7445.5,4827,-65577,174533,32901
7447.5,5591,-65028,174649,33003
7449.5,5642,-65079,174631,32999
7451.5,5240,-65683,174315,32717
7453.5,5545,-65753,174032,32464
7455.5,6353,-65045,174159,32604
7457.5,6669,-64606,174375,32820
7459.5,6493,-64850,174289,32720
7461.5,6204,-65086,174207,32608
7463.5,5691,-65061,174423,32810
7465.5,5227,-65100,174613,33027
7467.5,5374,-65125,174561,33009
7469.5,5762,-65001,174539,32988
7471.5,5673,-65033,174643,33077
7473.5,5332,-65273,174655,33102
7475.5,5332,-65281,174605,33089
7477.5,5712,-64867,174687,33207
7479.5,6177,-64363,174794,33337
7481.5,6401,-64207,174725,33279
7483.5,6291,-64467,174553,33123
7485.5,6242,-64712,174438,33037
7487.5,6450,-64637,174388,33012
7489.5,6504,-64526,174397,33028
7491.5,6377,-64536,174474,33115
7493.5,6499,-64391,174507,33178
7495.5,6549,-64288,174388,33074
7497.5,6049,-64743,174209,32877
7499.5,5709,-65300,174133,32783
7501.5,6159,-65160,174159,32811
7503.5,6578,-64783,174169,32810
7505.5,6264,-65046,174104,32715
7507.5,5789,-65591,174037,32635
7509.5,5624,-65668,174059,32679
7511.5,5623,-65471,174130,32771
7513.5,5885,-65417,174122,32761
7515.5,6294,-65391,174046,32668
7517.5,6133,-65430,174019,32620
