t,lead_I,lead_II,v3,v4
0.2,-57811,-38378,102650,24883
2.2,-59473,-38625,102410,24220
4.2,-59692,-38460,102423,24150
6.2,-59523,-37218,101976,23253
8.2,-59607,-35420,101230,21724
10.2,-59231,-33837,100987,21078
12.2,-58304,-33028,101091,21316
14.2,-57697,-33362,101044,21544
16.2,-57595,-34648,101212,22085
18.2,-57509,-36213,101861,23320
20.2,-57598,-37515,102351,24277
22.2,-58373,-38290,102341,24272
24.2,-59426,-38211,102260,23897
26.2,-59791,-37010,102172,23391
28.2,-59296,-35164,101711,22352
30.2,-58641,-33816,101115,21292
32.2,-58278,-33535,100976,21167
34.2,-57959,-33929,101271,21798
36.2,-57510,-34780,101604,22529
38.2,-57420,-36229,101866,23302
40.2,-58078,-37721,102106,24005
42.2,-58977,-38337,102285,24230
44.2,-59443,-37901,102357,23996
46.2,-59440,-36682,102211,23458
48.2,-59069,-34994,101770,22543
50.2,-58421,-33626,101295,21656
52.2,-58007,-33281,101118,21460
54.2,-58017,-33748,101178,21828
56.2,-57778,-34678,101341,22356
58.2,-57255,-36042,101736,23158
60.2,-57484,-37277,102283,24061
62.2,-58532,-37644,102535,24341
64.2,-59240,-37319,102340,23884
66.2,-59366,-36708,101988,23198
68.2,-59509,-35729,101628,22451
70.2,-59361,-34653,101253,21721
72.2,-58444,-34136,101053,21450
74.2,-57543,-34286,101172,21780
76.2,-57427,-34929,101437,22376
78.2,-57586,-35978,101722,23078
80.2,-57528,-36871,102092,23821
82.2,-57696,-37025,102395,24202
84.2,-58387,-36746,102326,23918
86.2,-59126,-36351,101955,23205
88.2,-59325,-35515,101629,22463
90.2,-58784,-34434,101413,21893
92.2,-57871,-33969,101204,21621
94.2,-57400,-34304,101181,21807
96.2,-57721,-35037,101552,22500
98.2,-58202,-35983,102101,23431
100.2,-58289,-36787,102449,24093
102.2,-58350,-36959,102497,24176
104.2,-58769,-36660,102339,23790
106.2,-59117,-36129,102079,23206
108.2,-58901,-35080,101857,22639
110.2,-58339,-33864,101725,22236
112.2,-57914,-33603,101571,22047
114.2,-57774,-34363,101465,22130
116.2,-57817,-35093,101700,22646
118.2,-57912,-35479,102245,23504
120.2,-58009,-35941,102662,24165
122.2,-58263,-36350,102736,24266
124.2,-58750,-36272,102628,23988
126.2,-59047,-35695,102397,23505
128.2,-58744,-34815,101972,22789
130.2,-58222,-33924,101541,22117
132.2,-58020,-33479,101454,21994
134.2,-57951,-33674,101764,22480
136.2,-57806,-34345,102168,23157
138.2,-57958,-35298,102390,23686
140.2,-58328,-36127,102442,23997
142.23,-58210,-36274,102455,24084
144.25,-57738,-35759,102387,23888
146.28,-57794,-35102,102134,23401
148.3,-58279,-34523,101815,22815
150.3,-58322,-34019,101634,22441
152.3,-57885,-33790,101602,22403
154.3,-57569,-33998,101634,22586
156.3,-57543,-34670,101719,22875
158.3,-57756,-35743,101835,23218
160.3,-58176,-36681,101924,23508
162.3,-58366,-36730,101993,23625
164.3,-58051,-36013,102035,23522
166.3,-57862,-35400,101964,23209
168.3,-58261,-35165,101768,22753
170.3,-58519,-34902,101530,22303
172.3,-58012,-34585,101304,22012
174.3,-57374,-34624,101177,22015
176.3,-57334,-35088,101339,22418
178.3,-57668,-35671,101768,23088
180.3,-57955,-36202,102091,23573
182.3,-58192,-36635,102030,23539
184.3,-58444,-36776,101754,23135
186.3,-58756,-36456,101552,22690
188.3,-59112,-35808,101443,22331
190.3,-59135,-35161,101324,22063
192.3,-58593,-34827,101187,21911
194.3,-58044,-34977,101085,21907
196.3,-58019,-35524,101118,22139
198.3,-58245,-36209,101376,22651
200.3,-58433,-36881,101713,23157
202.3,-58759,-37375,101826,23251
204.3,-59119,-37345,101654,22929
206.3,-59124,-36762,101383,22463
208.3,-58924,-36123,101162,22035
210.3,-59021,-35720,101127,21854
212.3,-59365,-35430,101345,22075
214.3,-59357,-35359,101546,22414
216.3,-58697,-35734,101451,22504
218.3,-57892,-36311,101286,22513
220.3,-57724,-36753,101365,22704
222.3,-58242,-37057,101514,22863
224.3,-58766,-37093,101503,22774
226.3,-58925,-36575,101462,22608
228.3,-58984,-35807,101435,22425
230.3,-59137,-35540,101214,22057
232.3,-59165,-35855,100893,21674
234.3,-58786,-36030,100880,21723
236.3,-58056,-35767,101220,22218
238.3,-57517,-35725,101532,22708
240.3,-57723,-36334,101629,22930
242.3,-58434,-36934,101648,22975
244.3,-58864,-36851,101631,22885
246.3,-58815,-36405,101495,22594
248.3,-58721,-36085,101311,22218
250.3,-58751,-35860,101185,21942
252.3,-58745,-35833,101043,21748
254.3,-58733,-36291,100883,21621
256.3,-58885,-36967,100889,21706
258.3,-59266,-37414,101064,21987
260.3,-59717,-37717,101215,22228
262.3,-59819,-37877,101341,22372
264.3,-59377,-37485,101508,22482
266.3,-58849,-36612,101523,22425
268.3,-58578,-35825,101307,22185
270.3,-58198,-35210,101190,22129
272.3,-57532,-34630,101321,22432
274.3,-56929,-34423,101383,22761
276.3,-56224,-34641,101223,22929
278.3,-54963,-34575,101126,23203
280.3,-53693,-33928,101251,23723
282.3,-53251,-33260,101425,24237
284.3,-53304,-32769,101504,24521
286.3,-53079,-32017,101470,24580
288.3,-52573,-31019,101340,24512
290.3,-52046,-30311,101209,24442
292.33,-51580,-30062,101178,24467
294.35,-51529,-30140,101193,24547
296.38,-52154,-30649,101123,24531
298.4,-53121,-31641,100896,24268
300.4,-54242,-32775,100517,23708
302.4,-55715,-33732,100066,22963
304.4,-57095,-34469,99651,22194
306.4,-57603,-34949,99353,21515
308.4,-57665,-35172,99270,21075
310.4,-58267,-35383,99437,20967
312.4,-59024,-35718,99685,21038
314.4,-58916,-35986,99903,21170
316.4,-58298,-36143,100243,21511
318.4,-58140,-36363,100720,22043
320.4,-58276,-36530,101036,22397
322.4,-58233,-36507,101109,22460
324.4,-58401,-36595,101202,22497
326.4,-58897,-36831,101360,22542
328.4,-58955,-36642,101351,22383
330.4,-58422,-35974,101185,22102
332.4,-58084,-35532,101121,22018
334.4,-58186,-35578,101225,22175
336.4,-58312,-35844,101331,22367
338.4,-58421,-36327,101356,22502
340.4,-58625,-36908,101376,22618
342.4,-58733,-37089,101412,22679
344.4,-58761,-36866,101385,22586
346.4,-58931,-36674,101311,22402
348.4,-59038,-36449,101323,22303
350.4,-58750,-36001,101407,22305
352.4,-58231,-35663,101407,22272
354.4,-57886,-35630,101315,22225
356.4,-57887,-35708,101302,22330
358.4,-58105,-36040,101404,22565
360.4,-58308,-36786,101466,22706
362.4,-58519,-37334,101441,22683
364.4,-58920,-37070,101483,22673
366.4,-59253,-36398,101628,22730
368.4,-59075,-36039,101633,22632
370.4,-58554,-35990,101376,22303
372.4,-58172,-35894,101159,22085
374.4,-58025,-35813,101253,22240
376.4,-58059,-36013,101449,22518
378.4,-58262,-36396,101456,22609
380.4,-58411,-36696,101376,22597
382.4,-58409,-36906,101384,22619
384.4,-58533,-37017,101404,22582
386.4,-58758,-36789,101379,22466
388.4,-58621,-36235,101379,22380
390.4,-58132,-35838,101351,22287
392.4,-57900,-35895,101247,22154
394.4,-58155,-36130,101253,22192
396.4,-58515,-36235,101457,22486
398.4,-58715,-36303,101629,22758
400.4,-58751,-36470,101619,22811
402.4,-58497,-36565,101555,22759
404.4,-58086,-36476,101520,22684
406.4,-58217,-36443,101467,22549
408.4,-58943,-36537,101410,22404
410.4,-59113,-36353,101366,22322
412.4,-58281,-35795,101328,22306
414.4,-57643,-35486,101375,22394
416.4,-57860,-35761,101523,22580
418.4,-58106,-36141,101592,22695
420.4,-58044,-36236,101535,22678
422.4,-58188,-36201,101560,22706
424.4,-58271,-36117,101696,22805
426.4,-57822,-35958,101685,22742
428.4,-57576,-35943,101486,22485
430.4,-58133,-36120,101376,22325
432.4,-58733,-36203,101463,22396
434.4,-58723,-36208,101542,22509
436.4,-58438,-36369,101494,22525
438.4,-58189,-36483,101465,22563
440.4,-58091,-36305,101597,22736
442.43,-58370,-36130,101772,22908
444.45,-58696,-36146,101753,22851
446.48,-58470,-36038,101575,22630
448.5,-58120,-35747,101571,22582
450.5,-58323,-35612,101836,22794
452.5,-58414,-35642,101982,22900
454.5,-57713,-35649,101764,22695
456.5,-57279,-35825,101550,22543
458.5,-58042,-36267,101696,22761
460.5,-58833,-36507,101941,23059
462.5,-58445,-36260,101954,23095
464.5,-57664,-35911,101867,22996
466.5,-57444,-35790,101797,22878
468.5,-57395,-35763,101575,22591
470.5,-57317,-35717,101341,22311
472.5,-57744,-35728,101513,22491
474.5,-58353,-35756,101962,22981
476.5,-58211,-35731,102118,23164
478.5,-57532,-35758,101926,22990
480.5,-57247,-35871,101838,22952
482.5,-57485,-35929,102015,23185
484.5,-57755,-35904,102194,23355
486.5,-57706,-35869,102150,23231
488.5,-57262,-35733,101939,22939
490.5,-56833,-35426,101827,22787
492.5,-57028,-35197,101965,22930
494.5,-57636,-35298,102141,23151
496.5,-57877,-35580,102128,23208
498.5,-57690,-35751,102097,23233
500.5,-57479,-35720,102248,23408
502.5,-57154,-35486,102393,23559
504.5,-56734,-35144,102334,23492
506.5,-56842,-35005,102189,23316
508.5,-57455,-35208,102093,23182
510.5,-57644,-35383,102040,23108
512.5,-57241,-35231,102065,23138
514.5,-56988,-34991,102201,23295
516.5,-56923,-34904,102338,23466
518.5,-56600,-34886,102389,23566
520.5,-56490,-35026,102390,23613
522.5,-57181,-35539,102330,23569
524.5,-57968,-36049,102194,23412
526.5,-57920,-35887,102145,23328
528.5,-57313,-35193,102296,23448
530.5,-56864,-34773,102426,23558
532.5,-56689,-34847,102320,23441
534.5,-56712,-34961,102170,23287
536.5,-57016,-35021,102218,23341
538.5,-57355,-35259,102352,23497
540.5,-57264,-35417,102390,23558
542.5,-56942,-35261,102363,23539
544.5,-57138,-35328,102312,23473
546.5,-57844,-35837,102238,23374
548.5,-58108,-35908,102275,23387
550.5,-57516,-35172,102425,23525
552.5,-56757,-34661,102368,23473
554.5,-56505,-34972,102044,23155
556.5,-56819,-35337,101925,23036
558.5,-57443,-35255,102216,23336
560.5,-57767,-35164,102436,23577
562.5,-57319,-35262,102261,23410
564.5,-56774,-35341,102045,23182
566.5,-57099,-35515,102074,23191
568.5,-57810,-35791,102109,23204
570.5,-57837,-35695,102010,23089
572.5,-57420,-35231,101995,23083
574.5,-57354,-35105,102078,23189
576.5,-57510,-35506,102019,23137
578.5,-57604,-35898,101873,22984
580.5,-57890,-36040,101877,22996
582.5,-58162,-35988,101965,23100
584.5,-57865,-35582,101979,23109
586.5,-57505,-35077,102001,23102
588.5,-57943,-35260,102039,23094
590.5,-58582,-36020,101920,22919
592.53,-58334,-36221,101752,22721
594.55,-57603,-35619,101831,22836
596.58,-57390,-35231,102050,23127
598.6,-57628,-35541,102050,23166
600.6,-57942,-36019,101876,22988
602.6,-58414,-36280,101831,22934
604.6,-58719,-36319,101895,22981
606.6,-58369,-36095,101842,22885
608.6,-57919,-35765,101712,22713
610.6,-58130,-35699,101705,22695
612.6,-58587,-35904,101823,22802
614.6,-58570,-36007,101912,22870
616.6,-58151,-35810,101904,22873
618.6,-57736,-35523,101841,22861
620.6,-57674,-35541,101781,22837
622.6,-58078,-35880,101770,22827
624.6,-58319,-35956,101837,22881
626.6,-57835,-35500,101943,22971
628.6,-57392,-35183,101999,23010
630.6,-57775,-35432,101980,22988
632.6,-58175,-35632,101945,22963
634.6,-57796,-35464,101894,22924
636.6,-57414,-35530,101779,22830
638.6,-57730,-35924,101701,22775
640.6,-58175,-35966,101814,22885
642.6,-58210,-35669,101984,23028
644.6,-57930,-35597,101956,22980
646.6,-57475,-35589,101807,22822
648.6,-57250,-35348,101778,22764
650.6,-57722,-35302,101817,22753
652.6,-58297,-35554,101771,22669
654.6,-58081,-35518,101717,22616
656.6,-57618,-35282,101733,22668
658.6,-57805,-35441,101739,22725
660.6,-58038,-35650,101741,22774
662.6,-57615,-35370,101807,22861
664.6,-57322,-35154,101839,22866
666.6,-57695,-35409,101775,22746
668.6,-57882,-35511,101736,22673
670.6,-57623,-35350,101726,22679
672.6,-57794,-35548,101650,22633
674.6,-58298,-35789,101627,22618
676.6,-58162,-35399,101760,22753
678.6,-57660,-35044,101843,22859
680.6,-57751,-35473,101752,22796
682.6,-58139,-35912,101671,22720
684.6,-58059,-35644,101679,22709
686.6,-57763,-35303,101671,22683
688.6,-57704,-35331,101703,22695
690.6,-57717,-35301,101788,22746
692.6,-57797,-35270,101680,22616
694.6,-58204,-35674,101393,22353
696.6,-58568,-36004,101377,22383
698.6,-58236,-35540,101721,22741
700.6,-57495,-34867,101937,22928
702.6,-57366,-35006,101823,22782
704.6,-58079,-35714,101719,22677
706.6,-58622,-35973,101772,22759
708.6,-58261,-35596,101799,22809
710.6,-57766,-35288,101819,22822
712.6,-58150,-35429,101973,22960
714.6,-58922,-35628,102114,23110
716.6,-59004,-35502,102080,23095
718.6,-58541,-35216,102007,23031
720.6,-58245,-35050,101993,23025
722.6,-58027,-34995,101917,22956
724.6,-57718,-35026,101822,22842
726.6,-57808,-35210,101896,22879
728.6,-58313,-35396,102047,23007
730.6,-58377,-35332,102047,22988
732.6,-57784,-35081,101980,22894
734.6,-57391,-34890,102051,22959
736.6,-57627,-34861,102168,23111
738.6,-57975,-35000,102165,23137
740.6,-58068,-35223,102121,23093
742.6,-58077,-35288,102162,23134
744.6,-58071,-35139,102201,23191
746.6,-57998,-35075,102130,23134
748.6,-57972,-35121,102058,23069
750.6,-57905,-34861,102122,23154
752.63,-57554,-34365,102224,23286
754.65,-57264,-34335,102185,23267
756.68,-57515,-34818,102083,23171
758.7,-57856,-35037,102087,23187
760.7,-57746,-34847,102124,23255
762.7,-57740,-34848,102097,23271
764.7,-58226,-35052,102122,23326
766.7,-58353,-35021,102159,23361
768.7,-57652,-34890,101964,23146
770.7,-56963,-34876,101677,22855
772.7,-56837,-34727,101685,22867
774.7,-56987,-34600,101842,23018
776.7,-57410,-35061,101756,22928
778.7,-58051,-35747,101598,22780
780.7,-58078,-35704,101714,22900
782.7,-57308,-35094,101896,23065
784.7,-56996,-34946,101849,22995
786.7,-57750,-35452,101751,22866
788.7,-58389,-35834,101780,22852
790.7,-58037,-35669,101766,22811
792.7,-57437,-35332,101637,22700
794.7,-57373,-35277,101586,22690
796.7,-57628,-35501,101650,22780
798.7,-57909,-35736,101664,22797
800.7,-58195,-35824,101613,22733
802.7,-58271,-35807,101613,22719
804.7,-58146,-35780,101632,22728
806.7,-58235,-35752,101565,22649
808.7,-58478,-35711,101463,22526
810.7,-58507,-35805,101430,22481
812.7,-58576,-36116,101463,22521
814.7,-58790,-36298,101502,22574
816.7,-58454,-36038,101504,22584
818.7,-57654,-35744,101427,22516
820.7,-57643,-35964,101314,22414
822.7,-58494,-36361,101309,22407
824.7,-58816,-36287,101435,22516
826.7,-58369,-35965,101517,22586
828.7,-58241,-36008,101464,22541
830.7,-58572,-36287,101382,22476
832.7,-58667,-36345,101347,22439
834.7,-58587,-36251,101321,22401
836.7,-58615,-36220,101321,22404
838.7,-58422,-36148,101378,22479
840.7,-58060,-36048,101423,22533
842.7,-58073,-36111,101405,22509
844.7,-58202,-36195,101353,22455
846.7,-57887,-36068,101277,22376
848.7,-57674,-35925,101199,22280
850.7,-58196,-35979,101202,22264
852.7,-58714,-36086,101246,22315
854.7,-58407,-36144,101192,22277
856.7,-57826,-36166,101112,22197
858.7,-57820,-36019,101224,22311
860.7,-58250,-35804,101461,22574
862.7,-58463,-35932,101522,22661
864.7,-58188,-36282,101375,22506
866.7,-57848,-36318,101273,22373
868.7,-58059,-36226,101272,22332
870.7,-58546,-36541,101171,22175
872.7,-58483,-36938,100976,21905
874.7,-58182,-36891,100929,21788
876.7,-58601,-36793,101032,21850
878.7,-59265,-37050,101056,21866
880.7,-59182,-37201,101038,21872
882.7,-58942,-36928,101205,22098
884.7,-59217,-36543,101474,22465
886.7,-59040,-36108,101582,22711
888.7,-57991,-35520,101538,22844
890.7,-57296,-35183,101450,22966
892.7,-57009,-35228,101247,22985
894.7,-55659,-34928,100959,22912
896.7,-53611,-33982,100870,23053
898.7,-52775,-33068,101055,23514
900.7,-52993,-32491,101202,23957
902.73,-52673,-31838,101143,24164
904.75,-52027,-31134,101083,24329
906.78,-52022,-30773,101134,24568
908.8,-51984,-30648,101095,24648
910.8,-51324,-30598,100892,24475
912.8,-51242,-30876,100762,24295
914.8,-52483,-31455,100763,24163
916.8,-54032,-32033,100564,23734
918.8,-55247,-32826,99999,22868
920.8,-56555,-34055,99401,21933
922.8,-57747,-35154,99110,21311
924.8,-58070,-35643,99102,21032
926.8,-57814,-35878,99266,21005
928.8,-57896,-36193,99589,21185
930.8,-58421,-36428,99956,21428
932.8,-58844,-36505,100217,21600
934.8,-58851,-36458,100457,21786
936.8,-58442,-36146,100776,22061
938.8,-57804,-35711,100998,22243
940.8,-57359,-35619,101014,22232
942.8,-57461,-35892,101048,22237
944.8,-57960,-36157,101187,22338
946.8,-58324,-36349,101188,22310
948.8,-58243,-36504,101050,22155
950.8,-58011,-36399,101105,22190
952.8,-58133,-36140,101329,22392
954.8,-58544,-36222,101343,22395
956.8,-58676,-36530,101186,22237
958.8,-58388,-36464,101225,22274
960.8,-58087,-36173,101346,22391
962.8,-57892,-36261,101179,22231
964.8,-57692,-36547,100950,22025
966.8,-57853,-36515,101116,22213
968.8,-58588,-36386,101460,22557
970.8,-59123,-36483,101492,22567
972.8,-58890,-36529,101321,22377
974.8,-58634,-36472,101267,22328
976.8,-58957,-36661,101236,22313
978.8,-59109,-36786,101151,22243
980.8,-58561,-36312,101252,22349
982.8,-58196,-35815,101482,22565
984.8,-58594,-36033,101468,22521
986.8,-58784,-36330,101267,22298
988.8,-58028,-36001,101200,22233
990.8,-57257,-35720,101172,22212
992.8,-57425,-36012,101040,22071
994.8,-58008,-36233,101084,22108
996.8,-58340,-36238,101377,22407
998.8,-58697,-36658,101500,22539
1000.8,-59005,-37069,101354,22395
1002.8,-58550,-36556,101315,22359
1004.8,-57755,-35782,101458,22508
1006.8,-57923,-35915,101493,22556
1008.8,-58800,-36481,101368,22459
1010.8,-58928,-36473,101274,22398
1012.8,-58258,-36140,101276,22410
1014.8,-57954,-36056,101306,22413
1016.8,-58204,-36039,101290,22335
1018.8,-58329,-35939,101203,22185
1020.8,-58182,-35980,101149,22116
1022.8,-57994,-36080,101223,22225
1024.8,-57899,-36071,101308,22333
1026.8,-58142,-36215,101280,22298
1028.8,-58655,-36582,101247,22270
1030.8,-58768,-36739,101264,22309
1032.8,-58316,-36585,101201,22240
1034.8,-57997,-36411,101126,22147
1036.8,-58074,-36165,101297,22323
1038.8,-58135,-35814,101580,22613
1040.8,-58204,-35825,101578,22599
1042.8,-58513,-36204,101364,22378
1044.8,-58611,-36253,101306,22327
1046.8,-58161,-35947,101354,22385
1048.8,-57814,-35960,101312,22358
1050.8,-58166,-36224,101379,22441
1052.83,-58791,-36198,101647,22706
1054.85,-59002,-36066,101726,22771
1056.88,-58697,-36195,101449,22487
1058.9,-58150,-36332,101186,22208
1060.9,-57692,-36261,101155,22149
1062.9,-57601,-36171,101220,22206
1064.9,-57802,-36073,101330,22333
1066.9,-57843,-35864,101488,22502
1068.9,-57624,-35789,101537,22555
1070.9,-57707,-36045,101459,22496
1072.9,-58320,-36349,101477,22533
1074.9,-58708,-36356,101618,22667
1076.9,-58318,-36137,101630,22654
1078.9,-57769,-35976,101467,22471
1080.9,-57721,-35938,101411,22410
1082.9,-57832,-35874,101577,22594
1084.9,-57705,-35793,101695,22743
1086.9,-57655,-35859,101587,22645
1088.9,-57885,-36040,101496,22540
1090.9,-58095,-36180,101618,22673
1092.9,-58117,-36272,101744,22834
1094.9,-57962,-36240,101701,22796
1096.9,-57533,-35862,101690,22749
1098.9,-57027,-35334,101793,22828
1100.9,-56957,-35222,101752,22785
1102.9,-57326,-35551,101544,22567
1104.9,-57567,-35764,101508,22535
1106.9,-57458,-35669,101709,22768
1108.9,-57335,-35570,101844,22914
1110.9,-57419,-35589,101850,22890
1112.9,-57625,-35676,101911,22943
1114.9,-57920,-35938,101970,23042
1116.9,-58189,-36235,101876,22971
1118.9,-57988,-36038,101783,22848
1120.9,-57191,-35323,101855,22889
1122.9,-56541,-34862,101915,22949
1124.9,-56649,-35098,101823,22869
1126.9,-57077,-35580,101809,22872
1128.9,-57231,-35840,102039,23134
1130.9,-57215,-35908,102251,23379
1132.9,-57161,-35843,102177,23314
1134.9,-56959,-35654,101964,23090
1136.9,-56908,-35594,101880,22992
1138.9,-57257,-35736,101906,23000
1140.9,-57469,-35683,101927,22990
1142.9,-57199,-35320,102006,23046
1144.9,-57069,-35152,102151,23213
1146.9,-57441,-35394,102166,23280
1148.9,-57655,-35523,102035,23171
1150.9,-57240,-35192,102050,23164
1152.9,-56696,-34829,102266,23359
1154.9,-56649,-34912,102339,23429
1156.9,-57048,-35254,102155,23224
1158.9,-57379,-35389,102014,23041
1160.9,-57298,-35226,102023,23031
1162.9,-57050,-35061,101965,22986
1164.9,-57176,-35182,101857,22892
1166.9,-57681,-35575,101938,22993
1168.9,-57948,-35911,102111,23202
1170.9,-57728,-35941,102061,23168
1172.9,-57517,-35847,101822,22897
1174.9,-57582,-35882,101699,22732
1176.9,-57534,-35832,101783,22809
1178.9,-57251,-35430,101937,22967
1180.9,-57183,-35021,102027,23032
1182.9,-57423,-35069,101986,22959
1184.9,-57578,-35333,101898,22874
1186.9,-57611,-35381,101922,22939
1188.9,-57771,-35455,101978,23034
1190.9,-57960,-35898,101858,22936
1192.9,-58005,-36335,101681,22771
1194.9,-57995,-36326,101659,22743
1196.9,-57921,-36113,101627,22674
1198.9,-57758,-36000,101459,22456
1200.9,-57806,-35845,101443,22415
1202.9,-58144,-35641,101669,22639
1204.9,-58373,-35650,101784,22760
1206.9,-58389,-35795,101717,22720
1208.9,-58384,-35828,101723,22787
1211.0,-58152,-35865,101744,22868
1213.0,-57670,-36004,101656,22797
1215.0,-57633,-36033,101690,22810
1217.0,-58178,-35975,101846,22932
1219.0,-58463,-36085,101739,22784
1221.0,-58300,-36189,101448,22442
1223.0,-58269,-35964,101427,22389
1225.0,-58194,-35651,101569,22542
1227.0,-57721,-35697,101488,22510
1229.0,-57584,-36051,101360,22443
1231.0,-58162,-36336,101488,22625
1233.0,-58450,-36325,101649,22813
1235.0,-58114,-36068,101605,22754
1237.0,-58157,-35837,101546,22643
1239.0,-58679,-35857,101609,22643
1241.0,-58679,-35997,101651,22633
1243.0,-58168,-35977,101619,22573
1245.0,-57939,-35843,101600,22554
1247.0,-57991,-35925,101562,22545
1249.0,-58010,-36299,101456,22493
1251.0,-58136,-36578,101394,22494
1253.0,-58335,-36463,101470,22602
1255.0,-58421,-36182,101615,22730
1257.0,-58566,-35993,101761,22837
1259.0,-58728,-35769,101891,22931
1261.0,-58564,-35582,101883,22897
1263.0,-58250,-35806,101631,22639
1265.0,-58036,-36132,101307,22339
1267.0,-57632,-35820,101225,22295
1269.0,-57309,-35269,101466,22566
1271.0,-57936,-35568,101783,22912
1273.0,-59014,-36423,101883,23027
1275.0,-59003,-36558,101737,22843
1277.0,-58016,-35970,101568,22583
1279.0,-57621,-35717,101485,22434
1281.0,-58138,-35909,101416,22363
1283.0,-58547,-35864,101421,22390
1285.0,-58500,-35644,101618,22596
1287.0,-58389,-35802,101769,22770
1289.0,-58263,-36208,101600,22657
1291.0,-58132,-36384,101411,22522
1293.0,-58268,-36337,101615,22746
1295.0,-58443,-36250,101926,23046
1297.0,-58143,-36065,101834,22911
1299.0,-57707,-35831,101507,22512
1301.0,-57833,-35737,101436,22380
1303.0,-58219,-35713,101559,22500
1305.0,-58117,-35637,101508,22494
1307.0,-57713,-35679,101342,22389
1309.0,-57708,-35955,101369,22482
1311.0,-58076,-36242,101536,22703
1313.0,-58217,-36300,101591,22774
1315.0,-57992,-36149,101575,22733
1317.0,-57913,-35990,101646,22753
1319.0,-58212,-35955,101695,22739
1321.0,-58418,-35896,101601,22597
1323.0,-58327,-35659,101540,22530
1325.0,-58471,-35509,101674,22691
1327.0,-58852,-35679,101875,22934
1329.0,-58628,-35819,101981,23095
1331.0,-57882,-35715,102004,23169
1333.0,-57776,-35780,101976,23151
1335.0,-58316,-36087,101890,23032
1337.0,-58317,-36054,101787,22875
1339.0,-57719,-35590,101726,22754
1341.0,-57595,-35279,101733,22712
1343.0,-58139,-35361,101803,22773
1345.0,-58646,-35626,101868,22873
1347.0,-58771,-35852,101888,22955
1349.0,-58545,-35722,101991,23136
1351.0,-58141,-35274,102224,23440
1353.0,-58056,-35300,102311,23552
1355.0,-58433,-36001,102081,23290
1357.0,-58581,-36234,101863,23011
1359.0,-58100,-35443,101936,23018
1361.0,-57548,-34701,102039,23074
1363.03,-57382,-34718,101950,22991
1365.05,-57427,-34904,101923,23029
1367.08,-57576,-35012,102077,23280
1369.1,-57827,-35414,102127,23423
1371.1,-57882,-35848,101990,23357
1373.1,-57681,-35874,101895,23302
1375.1,-57599,-35745,101868,23264
1377.1,-57608,-35511,101808,23133
1379.1,-57371,-34886,101811,23044
1381.1,-57203,-34472,101886,23055
1383.1,-57554,-34973,101816,22961
1385.1,-57963,-35679,101623,22773
1387.1,-57928,-35827,101561,22757
1389.1,-57858,-36002,101650,22926
1391.1,-58036,-36506,101745,23091
1393.1,-57973,-36555,101815,23191
1395.1,-57671,-36140,101815,23183
1397.1,-57839,-36148,101713,23026
1399.1,-58319,-36404,101656,22875
1401.1,-58094,-36067,101674,22814
1403.1,-57272,-35496,101564,22671
1405.1,-57199,-35669,101377,22476
1407.1,-58214,-36478,101361,22482
1409.1,-59001,-37037,101411,22612
1411.1,-58669,-36971,101340,22638
1413.1,-57952,-36649,101344,22679
1415.1,-57791,-36572,101480,22776
1417.1,-58040,-36750,101397,22596
1419.1,-58190,-36706,101100,22172
1421.1,-58254,-36273,101038,22008
1423.1,-58323,-35916,101204,22143
1425.1,-58188,-35924,101208,22182
1427.1,-57954,-36051,101123,22195
1429.1,-58098,-36210,101244,22438
1431.1,-58515,-36562,101401,22650
1433.1,-58532,-36858,101346,22551
1435.1,-58129,-36695,101238,22384
1437.1,-57995,-36240,101217,22321
1439.1,-58270,-35900,101123,22147
1441.1,-58440,-35743,100925,21853
1443.1,-58377,-35756,100840,21743
1445.1,-58329,-36000,100946,21886
1447.1,-58217,-36347,101072,22069
1449.1,-57993,-36638,101096,22185
1451.1,-58043,-36920,101094,22294
1453.1,-58384,-37087,101156,22406
1455.1,-58374,-36862,101201,22411
1457.1,-57937,-36364,101126,22249
1459.1,-57901,-36061,101027,22048
1461.1,-58463,-36050,101011,21945
1463.1,-58671,-35988,100992,21894
1465.1,-58124,-35758,100945,21883
1467.1,-57751,-35732,101035,22063
1469.1,-58211,-36226,101247,22403
1471.1,-58840,-36934,101341,22619
1473.1,-58875,-37258,101276,22587
1475.1,-58548,-37107,101192,22418
1477.1,-58388,-36915,101085,22174
1479.1,-58438,-36959,100915,21899
1481.1,-58620,-37246,100830,21790
1483.1,-58993,-37955,100995,22078
1485.1,-59464,-39309,101436,22883
1487.1,-59925,-41063,102118,24150
1489.1,-60458,-42573,102938,25563
1491.1,-60852,-43366,103696,26731
1493.1,-60620,-43516,104260,27548
1495.1,-59940,-43495,104664,28202
1497.1,-59542,-43662,104974,28835
1499.1,-59386,-43942,105202,29411
1501.1,-58694,-43971,105377,29895
1503.1,-57344,-43446,105532,30303
1505.1,-55952,-42369,105608,30573
1507.1,-54756,-41061,105546,30627
1509.1,-53594,-39837,105447,30587
1511.1,-52685,-38746,105424,30664
1513.1,-52430,-37863,105427,30858
1515.1,-52608,-37477,105388,31034
1517.1,-52478,-37594,105331,31146
1519.1,-51732,-37762,105246,31177
1521.2,-50979,-37757,105129,31082
1523.2,-51151,-37922,105015,30825
1525.2,-52525,-38477,104782,30277
1527.2,-54398,-39030,104256,29338
1529.2,-55719,-39195,103581,28220
1531.2,-56116,-39288,102980,27210
1533.2,-56160,-39829,102483,26383
1535.2,-56450,-40657,102273,25936
1537.2,-56875,-41261,102612,26127
1539.2,-57149,-41670,103191,26633
1541.2,-57340,-42083,103493,26890
1543.2,-57401,-42093,103676,27000
1545.2,-57054,-41372,104058,27249
1547.2,-56492,-40509,104314,27304
1549.2,-56309,-40185,104149,26904
1551.2,-56557,-40197,103906,26478
1553.2,-56678,-40031,103858,26349
1555.2,-56400,-39726,103860,26347
1557.2,-56090,-39657,103913,26454
1559.2,-56154,-39935,104135,26774
1561.2,-56516,-40364,104285,26991
1563.2,-56870,-40764,104086,26754
1565.2,-57111,-40998,103761,26297
1567.2,-57185,-40731,103688,26052
1569.2,-56925,-39821,103829,26026
1571.2,-56473,-38938,103850,25942
1573.2,-56337,-38866,103628,25711
1575.2,-56648,-39299,103409,25536
1577.2,-57016,-39508,103416,25595
1579.2,-57206,-39639,103524,25764
1581.2,-57218,-40018,103520,25809
1583.2,-56922,-40088,103447,25731
1585.2,-56428,-39447,103424,25655
1587.2,-56309,-38809,103381,25525
1589.2,-56679,-38768,103232,25245
1591.2,-56825,-38793,103086,24947
1593.2,-56410,-38378,103067,24837
1595.2,-56071,-38003,103123,24901
1597.2,-56294,-38217,103128,24976
1599.2,-56720,-38744,103072,25002
1601.2,-56917,-39030,103017,25010
1603.2,-56875,-38947,102978,24983
1605.2,-56676,-38654,102919,24870
1607.2,-56462,-38332,102824,24672
1609.2,-56468,-38143,102693,24418
1611.2,-56609,-38052,102559,24181
1613.2,-56578,-37858,102525,24095
1615.2,-56446,-37649,102608,24177
1617.2,-56451,-37729,102645,24249
1619.2,-56512,-38005,102578,24233
1621.2,-56569,-38151,102579,24270
1623.2,-56734,-38207,102652,24328
1625.2,-56780,-38249,102545,24151
1627.2,-56423,-37981,102287,23795
1629.2,-56071,-37410,102222,23631
1631.2,-56255,-37093,102352,23684
1633.2,-56700,-37165,102350,23652
1635.2,-56826,-37115,102226,23559
1637.2,-56608,-36853,102248,23643
1639.2,-56429,-36901,102341,23774
1641.2,-56556,-37394,102280,23711
1643.2,-56883,-37808,102171,23595
1645.2,-56974,-37731,102169,23592
1647.2,-56661,-37297,102135,23523
1649.2,-56402,-36875,101997,23298
1651.2,-56503,-36629,101930,23141
1653.2,-56599,-36470,101966,23129
1655.2,-56463,-36414,101927,23089
1657.2,-56456,-36598,101830,23028
1659.2,-56696,-36880,101858,23120
1661.2,-56867,-36995,101972,23297
1663.2,-57033,-37116,101963,23300
1665.2,-57415,-37407,101836,23115
1667.2,-57571,-37356,101775,22962
1669.2,-57087,-36664,101787,22897
1671.2,-56526,-36053,101732,22810
1673.23,-56516,-36062,101671,22750
1675.25,-56786,-36220,101763,22855
1677.28,-56979,-36277,101883,22980
1679.3,-57209,-36646,101796,22903
1681.3,-57401,-37149,101619,22769
1683.3,-57314,-37111,101631,22832
1685.3,-57110,-36668,101760,22944
1687.3,-56913,-36375,101739,22818
1689.3,-56559,-36119,101578,22549
1691.3,-56282,-35689,101499,22437
1693.3,-56459,-35444,101570,22527
1695.3,-56724,-35612,101681,22647
1697.3,-56614,-35902,101741,22712
1699.3,-56419,-36041,101748,22756
1701.3,-56392,-36000,101746,22804
1703.3,-56302,-35908,101756,22828
1705.3,-56241,-36017,101746,22798
1707.3,-56514,-36261,101699,22718
1709.3,-56820,-36165,101657,22621
1711.3,-56796,-35743,101641,22530
1713.3,-56732,-35615,101601,22452
1715.3,-56812,-35816,101548,22437
1717.3,-56686,-35718,101600,22572
1719.3,-56336,-35362,101765,22805
1721.3,-56222,-35390,101848,22921
1723.3,-56374,-35675,101775,22849
1725.3,-56384,-35566,101724,22757
1727.3,-56225,-35260,101712,22656
1729.3,-56170,-35392,101516,22363
1731.3,-56186,-35661,101251,22045
1733.3,-56155,-35356,101349,22138
1735.3,-56277,-34822,101725,22537
1737.3,-56627,-34933,101812,22671
1739.3,-56810,-35531,101558,22482
1741.3,-56609,-35750,101469,22440
1743.3,-56379,-35479,101639,22627
1745.3,-56369,-35295,101690,22671
1747.3,-56404,-35327,101563,22499
1749.3,-56425,-35189,101528,22379
1751.3,-56485,-34836,101580,22354
1753.3,-56406,-34713,101487,22235
1755.3,-56243,-35038,101292,22055
1757.3,-56369,-35325,101304,22106
1759.3,-56531,-35023,101599,22453
1761.3,-56216,-34484,101825,22724
1763.3,-56069,-34580,101703,22612
1765.3,-56877,-35218,101489,22381
1767.3,-57638,-35374,101541,22407
1769.3,-57173,-34841,101680,22511
1771.3,-56520,-34549,101543,22331
1773.3,-56971,-34863,101257,22012
1775.3,-57554,-35124,101156,21910
1777.3,-57120,-35037,101205,21996
1779.3,-56568,-34985,101210,22050
1781.3,-56789,-35016,101213,22067
1783.3,-57075,-34855,101314,22140
1785.3,-57032,-34684,101420,22206
1787.3,-57272,-34812,101384,22132
1789.3,-57639,-34984,101223,21932
1791.3,-57399,-34853,101106,21777
1793.3,-57000,-34635,101122,21765
1795.3,-57291,-34719,101142,21777
1797.3,-57836,-35071,101026,21686
1799.3,-57843,-35420,100846,21551
1801.3,-57540,-35595,100759,21481
1803.3,-57413,-35493,100805,21508
1805.3,-57418,-35144,100928,21620
1807.3,-57544,-34869,101021,21712
1809.3,-57804,-34898,100962,21619
1811.3,-57729,-34965,100759,21351
1813.3,-57157,-34840,100572,21133
1815.3,-56891,-34863,100504,21095
1817.3,-57457,-35273,100512,21154
1819.3,-58184,-35598,100569,21249
1821.3,-58417,-35475,100700,21402
1823.3,-58383,-35297,100820,21533
1825.3,-58312,-35373,100779,21492
1827.3,-58082,-35362,100613,21302
1829.3,-57890,-35104,100527,21162
1831.3,-57977,-34950,100577,21154
1833.33,-57949,-34909,100619,21177
1835.35,-57536,-34617,100583,21169
1837.38,-57343,-34336,100541,21169
1839.4,-57808,-34729,100503,21164
1841.4,-58279,-35518,100427,21117
1843.4,-58112,-35724,100404,21108
1845.4,-57714,-35253,100515,21208
1847.4,-57645,-34887,100618,21286
1849.4,-57730,-34859,100582,21227
1851.4,-57790,-34749,100552,21177
1853.4,-58046,-34503,100663,21268
1855.4,-58319,-34416,100745,21335
1857.4,-58188,-34541,100643,21227
1859.4,-58006,-34807,100523,21120
1861.4,-58280,-35083,100548,21177
1863.4,-58528,-35111,100558,21198
1865.4,-58278,-35000,100369,20971
1867.4,-58108,-35155,100167,20709
1869.4,-58433,-35322,100266,20781
1871.4,-58665,-34960,100582,21110
1873.4,-58352,-34467,100713,21254
1875.4,-57791,-34471,100561,21111
1877.4,-57386,-34600,100473,21052
1879.4,-57433,-34506,100609,21229
1881.4,-58040,-34734,100677,21312
1883.4,-58706,-35342,100529,21146
1885.4,-58783,-35448,100437,21027
1887.4,-58386,-34932,100522,21091
1889.4,-58056,-34658,100517,21066
1891.4,-57980,-34822,100314,20842
1893.4,-58045,-34821,100191,20700
1895.4,-58045,-34549,100291,20802
1897.4,-57842,-34466,100413,20959
1899.4,-57795,-34777,100419,21011
1901.4,-58309,-35268,100415,21030
1903.4,-58805,-35550,100444,21069
1905.4,-58526,-35366,100428,21071
1907.4,-58070,-35017,100366,21010
1909.4,-58312,-35012,100302,20902
1911.4,-58661,-35210,100228,20780
1913.4,-58345,-35120,100196,20753
1915.4,-57943,-34870,100268,20866
1917.4,-58044,-34893,100333,20952
1919.4,-58283,-35058,100333,20959
1921.4,-58571,-35033,100453,21099
1923.4,-59121,-34974,100670,21326
1925.4,-59301,-35083,100608,21235
1927.4,-58566,-35088,100253,20853
1929.4,-57735,-34777,100120,20724
1931.4,-57723,-34497,100352,20963
1933.4,-58247,-34625,100520,21119
1935.4,-58644,-34933,100470,21062
1937.4,-58668,-34944,100511,21114
1939.4,-58400,-34651,100746,21362
1941.4,-58201,-34463,100939,21570
1943.4,-58268,-34558,100919,21565
1945.4,-58215,-34689,100725,21366
1947.4,-57961,-34594,100569,21193
1949.4,-58115,-34337,100673,21292
1951.4,-58596,-34186,100889,21510
1953.4,-58544,-34282,100857,21460
1955.4,-58169,-34486,100666,21258
1957.4,-58482,-34612,100711,21325
1959.4,-59137,-34698,100868,21512
1961.4,-58996,-34840,100746,21392
1963.4,-58339,-34891,100527,21158
1965.4,-58200,-34679,100607,21231
1967.4,-58410,-34349,100805,21426
1969.4,-58281,-34100,100800,21418
1971.4,-58059,-33915,100765,21383
1973.4,-58246,-33886,100867,21504
1975.4,-58611,-34235,100890,21577
1977.4,-58674,-34618,100771,21513
1979.4,-58347,-34364,100722,21493
1981.4,-57934,-33729,100739,21524
1983.43,-57879,-33677,100695,21505
1985.45,-58202,-34227,100696,21529
1987.48,-58381,-34527,100764,21595
1989.5,-58191,-34441,100660,21481
1991.5,-57970,-34454,100388,21220
1993.5,-57831,-34500,100270,21121
1995.5,-57703,-34384,100375,21223
1997.5,-57859,-34460,100470,21294
1999.5,-58261,-34762,100466,21280
2001.5,-58306,-34800,100439,21274
2003.5,-58107,-34734,100397,21258
2005.5,-58454,-35107,100339,21191
2007.5,-59077,-35550,100314,21124
2009.5,-58980,-35443,100299,21079
2011.5,-58317,-35125,100250,21034
2013.5,-57990,-35076,100216,21003
2015.5,-58183,-35151,100225,20993
2017.5,-58636,-35336,100208,20957
2019.5,-59057,-35723,100147,20900
2021.5,-58874,-35791,100125,20885
2023.5,-58120,-35314,100146,20902
2025.5,-57861,-35082,100133,20881
2027.5,-58376,-35411,100099,20835
2029.5,-58723,-35586,100132,20845
2031.5,-58783,-35476,100199,20896
2033.5,-59165,-35623,100171,20873
2035.5,-59312,-35743,100062,20774
2037.5,-58599,-35321,100012,20735
2039.5,-58078,-35005,100024,20779
2041.5,-58558,-35440,99992,20783
2043.5,-59014,-35919,99964,20754
2045.5,-58733,-35730,100063,20827
2047.5,-58521,-35417,100172,20921
2049.5,-58843,-35625,100085,20817
2051.5,-59184,-36061,99898,20593
2053.5,-59300,-36223,99854,20520
2055.5,-59272,-36123,99917,20590
2057.5,-58980,-35967,99924,20615
2059.5,-58611,-35843,99938,20635
2061.5,-58685,-35818,100060,20757
2063.5,-59106,-35897,100137,20843
2065.5,-59207,-35919,100016,20730
2067.5,-58772,-35745,99835,20538
2069.5,-58282,-35473,99821,20493
2071.5,-58254,-35343,99986,20636
2073.5,-58703,-35482,100146,20803
2075.5,-59119,-35756,100148,20823
2077.5,-59023,-35903,100024,20708
2079.5,-58634,-35889,99925,20613
2081.5,-58620,-35935,99928,20618
2083.5,-59102,-36107,99980,20662
2085.5,-59487,-36208,100030,20692
2087.5,-59374,-36167,100046,20683
2089.5,-58994,-36111,99941,20559
2091.5,-58801,-36165,99712,20300
2093.5,-59111,-36467,99532,20051
2095.5,-59819,-36986,99525,19961
2097.5,-60211,-37254,99620,20019
2099.5,-59753,-36902,99740,20167
2101.5,-58974,-36295,99927,20405
2103.5,-58651,-35877,100162,20715
2105.5,-58641,-35531,100320,21007
2107.5,-58461,-35195,100313,21172
2109.5,-58145,-35111,100190,21221
2111.5,-57762,-35066,100104,21334
2113.5,-57050,-34571,100135,21616
2115.5,-55950,-33781,100163,21897
2117.5,-54775,-33144,100086,22050
2119.5,-53837,-32607,100068,22290
2121.5,-53215,-31945,100228,22743
2123.5,-52740,-31202,100374,23150
2125.5,-52407,-30496,100404,23377
2127.5,-52572,-30060,100470,23595
2129.5,-53108,-30160,100526,23738
2131.5,-53199,-30526,100366,23564
2133.5,-52973,-30695,100128,23224
2135.5,-53749,-30994,99978,22895
2137.5,-55678,-32011,99575,22229
2139.5,-57272,-33377,98686,21019
2141.5,-57874,-34348,97835,19851
2143.53,-58231,-35008,97600,19334
2145.55,-58678,-35715,97856,19353
2147.58,-58890,-36178,98216,19530
2149.6,-58886,-36130,98535,19707
2151.6,-58785,-36022,98759,19797
2153.6,-58530,-36186,98912,19842
2155.6,-58431,-36234,99221,20103
2157.6,-58811,-35955,99728,20588
2159.6,-59235,-35786,100098,20910
2161.6,-59191,-35912,100135,20889
2163.6,-58917,-35962,100004,20728
2165.6,-58806,-35910,99849,20561
2167.6,-58850,-36155,99735,20443
2169.6,-58962,-36585,99814,20522
2171.6,-58972,-36602,100014,20708
2173.6,-58599,-36149,100005,20660
2175.6,-58183,-35858,99808,20439
2177.6,-58542,-36074,99856,20495
2179.6,-59449,-36384,100227,20881
2181.6,-59688,-36352,100476,21141
2183.6,-59126,-36227,100333,21018
2185.6,-58867,-36372,100062,20751
2187.6,-59116,-36487,100030,20693
2189.6,-59072,-36237,100206,20860
2191.6,-58839,-36055,100267,20950
2193.6,-59147,-36313,100144,20846
2195.6,-59573,-36535,100120,20809
2197.6,-59246,-36351,100238,20914
2199.6,-58581,-36167,100181,20858
2201.6,-58470,-36261,99955,20634
2203.6,-58751,-36363,99956,20642
2205.6,-58888,-36366,100212,20913
2207.6,-58969,-36381,100339,21055
2209.6,-59140,-36322,100257,20979
2211.6,-59203,-36202,100216,20926
2213.6,-59139,-36262,100273,20951
2215.6,-59094,-36438,100290,20952
2217.6,-58967,-36457,100221,20907
2219.6,-58716,-36386,100113,20830
2221.6,-58646,-36398,100070,20780
2223.6,-58852,-36349,100187,20879
2225.6,-58908,-36157,100363,21066
2227.6,-58610,-36075,100392,21111
2229.6,-58500,-36257,100305,21003
2231.6,-59021,-36549,100269,20932
2233.6,-59635,-36761,100255,20913
2235.6,-59650,-36780,100194,20874
2237.6,-59318,-36555,100221,20915
2239.6,-59140,-36243,100376,21079
2241.6,-58939,-36113,100462,21178
2243.6,-58630,-36194,100414,21132
2245.6,-58690,-36311,100368,21071
2247.6,-59099,-36385,100328,21022
2249.6,-59214,-36407,100267,20966
2251.6,-58985,-36311,100338,21041
2253.6,-58884,-36167,100554,21254
2255.6,-58861,-36160,100644,21347
2257.6,-58642,-36231,100538,21250
2259.6,-58523,-36189,100470,21198
2261.6,-58887,-36188,100510,21256
2263.6,-59425,-36448,100512,21261
2265.6,-59464,-36657,100452,21178
2267.6,-58858,-36429,100388,21088
2269.6,-58271,-36105,100318,21006
2271.6,-58360,-36239,100268,20953
2273.6,-58805,-36584,100282,20972
2275.6,-58784,-36475,100317,21027
2277.6,-58333,-36003,100338,21081
2279.6,-58204,-35850,100389,21152
2281.6,-58484,-36093,100477,21247
2283.6,-58607,-36188,100563,21345
2285.6,-58532,-36078,100609,21403
2287.6,-58690,-36231,100578,21357
2289.6,-59048,-36599,100511,21254
2291.6,-59225,-36684,100515,21247
2293.6,-59119,-36515,100563,21319
2295.6,-58804,-36481,100537,21308
2297.6,-58387,-36504,100507,21263
2299.6,-58187,-36303,100615,21368
2301.6,-58405,-36060,100764,21554
2303.63,-58721,-36095,100789,21611
2305.65,-58736,-36279,100756,21550
2307.68,-58470,-36257,100770,21493
2309.7,-58132,-35963,100780,21453
2311.7,-57971,-35715,100779,21465
2313.7,-58261,-35838,100858,21598
2315.7,-58784,-36163,100962,21744
2317.7,-58834,-36220,100960,21752
2319.7,-58373,-36055,100916,21703
2321.7,-58147,-36122,100952,21740
2323.7,-58207,-36269,101028,21837
2325.7,-57948,-35991,101088,21924
2327.7,-57666,-35646,101131,21976
2329.7,-58014,-35926,101086,21921
2331.7,-58396,-36433,100948,21777
2333.7,-58079,-36393,100894,21736
2335.7,-57738,-36071,100989,21851
2337.7,-57968,-35995,101101,21970
2339.7,-58144,-35898,101216,22083
2341.7,-58026,-35627,101379,22242
2343.7,-58185,-35621,101417,22269
2345.7,-58411,-35824,101257,22095
2347.7,-58075,-35710,101164,22006
2349.7,-57583,-35441,101239,22101
2351.7,-57499,-35470,101249,22115
2353.7,-57541,-35560,101189,22042
2355.7,-57610,-35491,101281,22133
2357.7,-57953,-35646,101408,22269
2359.7,-58086,-36021,101307,22161
2361.7,-57579,-36018,101139,21986
2363.7,-57245,-35660,101183,22051
2365.7,-57696,-35605,101303,22199
2367.7,-58134,-35931,101254,22143
2369.7,-57967,-36143,101132,21992
2371.7,-57839,-36108,101138,21984
2373.7,-58167,-36071,101223,22071
2375.7,-58406,-36110,101241,22100
2377.7,-58199,-36079,101237,22123
2379.7,-57798,-35819,101329,22245
2381.7,-57427,-35413,101423,22337
2383.7,-57250,-35335,101340,22225
2385.7,-57542,-35858,101195,22058
2387.7,-58148,-36407,101270,22131
2389.7,-58380,-36258,101492,22365
2391.7,-57970,-35648,101502,22398
2393.7,-57545,-35350,101272,22190
2395.7,-57759,-35505,101176,22092
2397.7,-58399,-35700,101370,22276
2399.7,-58723,-35763,101583,22491
2401.7,-58491,-35816,101565,22479
2403.7,-58185,-35917,101365,22280
2405.7,-58231,-36049,101153,22080
2407.7,-58534,-36173,101081,22023
2409.7,-58799,-36184,101209,22144
2411.7,-58768,-36033,101371,22284
2413.7,-58373,-35888,101326,22227
2415.7,-58076,-35967,101137,22028
2417.7,-58398,-36253,101035,21906
2419.7,-58908,-36518,101002,21870
2421.7,-58835,-36613,100917,21808
2423.7,-58494,-36601,100870,21774
2425.7,-58641,-36556,100948,21844
2427.7,-58959,-36417,101028,21932
2429.7,-58754,-36160,101043,21976
2431.7,-58307,-35936,101072,22008
2433.7,-58200,-35904,101100,22012
2435.7,-58319,-36095,101032,21941
2437.7,-58419,-36423,100893,21827
2439.7,-58632,-36678,100805,21739
2441.7,-58877,-36672,100822,21721
2443.7,-58781,-36489,100887,21774
2445.7,-58446,-36368,100936,21853
2447.7,-58436,-36363,100998,21942
2449.7,-58843,-36408,101100,22038
2451.7,-59154,-36519,101134,22068
2453.73,-59107,-36644,101060,22017
2455.75,-58916,-36610,101054,22038
2457.78,-58684,-36403,101175,22167
2459.8,-58365,-36212,101206,22187
2461.8,-58194,-36161,101076,22035
2463.8,-58403,-36256,100989,21923
2465.8,-58775,-36465,101014,21930
2467.8,-58985,-36675,101030,21943
2469.8,-59030,-36739,101045,21967
2471.8,-59045,-36686,101121,22058
2473.8,-59014,-36626,101183,22122
2475.8,-58818,-36484,101180,22114
2477.8,-58513,-36234,101174,22117
2479.8,-58399,-36173,101141,22110
2481.8,-58514,-36364,101060,22036
2483.8,-58481,-36320,101088,22039
2485.8,-58316,-35920,101249,22173
2487.8,-58451,-35835,101242,22170
2489.8,-58700,-36314,100978,21935
2491.8,-58619,-36673,100822,21801
2493.8,-58533,-36517,100936,21922
2495.8,-58674,-36190,101050,22029
2497.8,-58525,-35946,101082,22051
2499.8,-58255,-35881,101232,22208
2501.8,-58648,-36163,101412,22409
2503.8,-59095,-36420,101392,22398
2505.8,-58419,-36063,101297,22287
2507.8,-57452,-35634,101267,22242
2509.8,-57806,-36102,101156,22131
2511.8,-58933,-36924,101003,21975
2513.8,-59146,-36849,101060,22016
2515.8,-58441,-36167,101193,22132
2517.8,-58063,-36064,101088,22020
2519.8,-58328,-36516,100876,21815
2521.8,-58643,-36716,100853,21821
2523.8,-58724,-36595,100991,22003
2525.8,-58511,-36437,101127,22161
2527.8,-57900,-36127,101154,22173
2529.8,-57379,-35742,101038,22030
2531.8,-57674,-35715,100990,21974
2533.8,-58485,-36031,101200,22190
2535.8,-59053,-36393,101348,22337
2537.8,-59458,-36823,101099,22067
2539.8,-59728,-37116,100827,21772
2541.8,-59234,-36757,100999,21949
2543.8,-58356,-36093,101353,22333
2545.8,-58368,-36049,101423,22420
2547.8,-58976,-36431,101275,22269
2549.8,-58839,-36324,101210,22196
2551.8,-58170,-35857,101280,22254
2553.8,-57911,-35740,101382,22334
2555.8,-57799,-35842,101439,22388
2557.8,-57670,-35780,101452,22433
2559.8,-58319,-35825,101505,22514
2561.8,-59433,-36141,101603,22600
2563.8,-59518,-36312,101590,22544
2565.8,-58636,-36177,101435,22362
2567.8,-58320,-36072,101365,22305
2569.8,-58751,-36101,101455,22433
2571.8,-58738,-36007,101491,22490
2573.8,-58105,-35681,101414,22401
2575.8,-57773,-35355,101434,22406
2577.8,-57984,-35330,101571,22552
2579.8,-58172,-35572,101610,22620
2581.8,-58117,-35680,101560,22582
2583.8,-58043,-35456,101591,22604
2585.8,-58020,-35215,101649,22668
2587.8,-57985,-35195,101602,22659
2589.8,-58034,-35225,101526,22613
2591.8,-58258,-35250,101498,22576
2593.8,-58472,-35440,101450,22510
2595.8,-58409,-35641,101412,22484
2597.8,-58134,-35554,101523,22616
2599.8,-57924,-35339,101694,22787
2601.8,-57787,-35313,101626,22716
2603.8,-57584,-35435,101242,22355
2605.8,-57541,-35591,100869,22007
2607.8,-57874,-35762,100868,22004
2609.8,-58157,-35755,101196,22317
2611.9,-57989,-35539,101465,22585
2613.9,-57767,-35557,101437,22568
2615.9,-57870,-35924,101247,22391
2617.9,-57936,-36072,101113,22261
2619.9,-57851,-35899,101061,22181
2621.9,-58122,-36060,101010,22074
2623.9,-58584,-36606,100942,21966
2625.9,-58425,-36807,100908,21938
2627.9,-57936,-36566,100951,22002
2629.9,-58158,-36480,101038,22090
2631.9,-58783,-36580,101063,22105
2633.9,-58717,-36518,100980,22009
2635.9,-58326,-36521,100868,21878
2637.9,-58654,-36842,100801,21804
2639.9,-59174,-37005,100772,21795
2641.9,-58800,-36656,100789,21829
2643.9,-58123,-36301,100865,21896
2645.9,-58239,-36419,100911,21921
2647.9,-58633,-36701,100834,21826
2649.9,-58364,-36702,100718,21703
2651.9,-57978,-36533,100681,21691
2653.9,-58287,-36569,100674,21725
2655.9,-58721,-36819,100636,21692
2657.9,-58559,-36886,100672,21696
2659.9,-58321,-36599,100820,21835
2661.9,-58566,-36368,100912,21954
2663.9,-58799,-36520,100888,21939
2665.9,-58647,-36758,100902,21931
2667.9,-58596,-36779,100968,21983
2669.9,-58834,-36779,100904,21927
2671.9,-58856,-36884,100727,21752
2673.9,-58630,-36895,100658,21672
2675.9,-58680,-36811,100722,21732
2677.9,-58869,-36797,100731,21749
2679.9,-58638,-36809,100627,21657
2681.9,-58324,-36839,100545,21582
2683.9,-58649,-36989,100559,21586
2685.9,-59153,-36984,100606,21616
2687.9,-58832,-36528,100656,21662
2689.9,-58077,-36113,100746,21757
2691.9,-58135,-36363,100838,21842
2693.9,-58877,-36855,100837,21836
2695.9,-59023,-36800,100781,21797
2697.9,-58432,-36438,100779,21820
2699.9,-58178,-36525,100776,21828
2701.9,-58537,-36970,100631,21675
2703.9,-58818,-37218,100391,21391
2705.9,-58905,-37331,100239,21143
2707.9,-59155,-37548,100236,21030
2709.9,-59305,-37590,100296,21033
2711.9,-59089,-37371,100346,21095
2713.9,-58995,-37311,100419,21210
2715.9,-59148,-37316,100577,21416
2717.9,-58837,-36834,100760,21653
2719.9,-58137,-36199,100787,21765
2721.9,-58110,-36201,100651,21775
2723.9,-58640,-36432,100594,21925
2725.9,-58286,-35919,100709,22257
2727.9,-56777,-34952,100770,22511
2729.9,-55363,-34492,100644,22596
2731.9,-54560,-34382,100499,22735
2733.9,-53777,-33721,100498,23062
2735.9,-52969,-32482,100613,23475
2737.9,-52627,-31515,100728,23836
2739.9,-52536,-31261,100728,24031
2741.9,-52163,-31310,100610,24037
2743.9,-51745,-31218,100536,24017
2745.9,-51874,-31184,100542,24034
2747.9,-52580,-31599,100374,23816
2749.9,-53512,-32309,99925,23197
2751.9,-54542,-32869,99477,22480
2753.9,-55733,-33345,99211,21915
2755.9,-56894,-34121,98905,21305
2757.9,-57513,-35065,98458,20549
2759.9,-57455,-35707,98196,20026
2761.9,-57417,-36089,98363,20021
2763.93,-57983,-36551,98758,20284
2765.95,-58665,-36881,99139,20537
2767.98,-58853,-36691,99543,20844
2770.0,-58883,-36330,99957,21205
2772.0,-59080,-36363,100172,21363
2774.0,-59007,-36624,100166,21275
2776.0,-58645,-36749,100165,21222
2778.0,-58651,-36888,100243,21302
2780.0,-58882,-37013,100309,21374
2782.0,-58584,-36654,100412,21447
2784.0,-58065,-35973,100585,21592
2786.0,-58180,-35806,100673,21682
2788.0,-58717,-36289,100618,21636
2790.0,-58952,-36725,100572,21591
2792.0,-58856,-36742,100580,21601
2794.0,-58726,-36582,100557,21575
2796.0,-58725,-36555,100529,21528
2798.0,-58966,-36741,100556,21538
2800.0,-59140,-36837,100590,21570
2802.0,-58696,-36495,100595,21576
2804.0,-58020,-36113,100571,21543
2806.0,-58098,-36405,100475,21438
2808.0,-58751,-37014,100376,21332
2810.0,-58929,-36967,100456,21405
2812.0,-58611,-36465,100654,21608
2814.0,-58577,-36494,100661,21642
2816.0,-58764,-36949,100450,21458
2818.0,-58633,-36938,100367,21368
2820.0,-58445,-36530,100540,21505
2822.0,-58612,-36467,100697,21633
2824.0,-58776,-36676,100662,21592
2826.0,-58719,-36612,100572,21503
2828.0,-58904,-36397,100535,21472
2830.0,-59290,-36406,100530,21496
2832.0,-59192,-36459,100589,21595
2834.0,-58689,-36327,100688,21716
2836.0,-58480,-36208,100675,21695
2838.0,-58481,-36197,100581,21569
2840.0,-58277,-36163,100621,21571
2842.0,-58228,-36198,100751,21686
2844.0,-58596,-36388,100732,21696
2846.0,-58807,-36493,100628,21635
2848.0,-58650,-36467,100634,21658
2850.0,-58581,-36570,100643,21652
2852.0,-58513,-36686,100517,21507
2854.0,-58120,-36513,100443,21426
2856.0,-57933,-36300,100559,21536
2858.0,-58391,-36384,100693,21662
2860.0,-58877,-36479,100736,21701
2862.0,-58939,-36278,100768,21738
2864.0,-58878,-36058,100758,21735
2866.0,-58666,-36082,100635,21616
2868.0,-58134,-36192,100546,21544
2870.0,-57861,-36244,100646,21664
2872.0,-58242,-36283,100787,21796
2874.0,-58630,-36288,100796,21774
2876.0,-58560,-36241,100754,21723
2878.0,-58425,-36268,100732,21720
2880.0,-58400,-36403,100639,21633
2882.0,-58224,-36443,100504,21486
2884.0,-58068,-36314,100490,21465
2886.0,-58263,-36250,100549,21526
2888.0,-58517,-36354,100547,21524
2890.0,-58456,-36373,100603,21583
2892.0,-58317,-36178,100809,21801
2894.0,-58369,-36031,100945,21940
2896.0,-58427,-36138,100857,21836
2898.0,-58408,-36368,100711,21677
2900.0,-58484,-36500,100642,21612
2902.0,-58520,-36388,100635,21610
2904.0,-58291,-36061,100746,21713
2906.0,-58064,-35812,100961,21917
2908.0,-58092,-35847,101048,22005
2910.0,-58160,-36000,100911,21876
2912.0,-58217,-36115,100772,21743
2914.03,-58424,-36257,100772,21745
2916.05,-58436,-36341,100786,21764
2918.08,-57993,-36243,100754,21742
2920.1,-57794,-36177,100811,21804
2922.1,-58352,-36301,101000,21988
2924.1,-58882,-36350,101151,22134
2926.1,-58623,-36183,101119,22105
2928.1,-58077,-36036,100990,21977
2930.1,-57967,-36008,100960,21944
2932.1,-58101,-35981,101045,22029
2934.1,-57971,-35973,101055,22035
2936.1,-57628,-35988,100952,21909
2938.1,-57445,-35827,100982,21919
2940.1,-57413,-35507,101221,22179
2942.1,-57247,-35410,101354,22367
2944.1,-57112,-35683,101237,22275
2946.1,-57412,-35926,101182,22196
2948.1,-57827,-35791,101313,22308
2950.1,-57742,-35549,101321,22331
2952.1,-57509,-35622,101189,22216
2954.1,-57751,-35841,101314,22342
2956.1,-57949,-35738,101621,22675
2958.1,-57476,-35383,101608,22715
2960.1,-57033,-35246,101330,22459
2962.1,-57303,-35414,101261,22350
2964.1,-57584,-35578,101335,22370
2966.1,-57266,-35553,101245,22260
2968.1,-56995,-35375,101203,22229
2970.1,-57197,-35204,101383,22420
2972.1,-57261,-35269,101385,22429
2974.1,-56933,-35548,101104,22169
2976.1,-56859,-35669,101106,22192
2978.1,-57268,-35471,101492,22571
2980.1,-57540,-35277,101622,22667
2982.1,-57420,-35337,101327,22353
2984.1,-57414,-35504,101154,22195
2986.1,-57699,-35568,101287,22344
2988.1,-57707,-35478,101399,22446
2990.1,-57229,-35256,101434,22463
2992.1,-56891,-35063,101533,22558
2994.1,-57108,-35175,101552,22575
2996.1,-57460,-35546,101395,22406
2998.1,-57509,-35717,101305,22312
3000.1,-57386,-35488,101378,22397
3002.1,-57336,-35257,101381,22404
3004.1,-57369,-35342,101271,22277
3006.1,-57455,-35511,101265,22258
3008.1,-57632,-35578,101361,22355
3010.1,-57892,-35748,101350,22348
3012.1,-58105,-35979,101230,22228
3014.1,-58092,-35865,101192,22189
3016.1,-57885,-35462,101287,22281
3018.1,-57737,-35281,101390,22376
3020.1,-57716,-35395,101383,22366
3022.1,-57668,-35500,101279,22260
3024.1,-57677,-35606,101187,22171
3026.1,-57926,-35799,101172,22172
3028.1,-58176,-35843,101161,22175
3030.1,-58078,-35681,101087,22072
3032.1,-57759,-35604,101019,21951
3034.1,-57611,-35676,101018,21936
3036.1,-57869,-35768,100993,21944
3038.1,-58497,-35971,100889,21864
3040.1,-59007,-36245,100835,21795
3042.1,-58802,-36219,100932,21866
3044.1,-58214,-35902,101095,22021
3046.1,-58194,-35776,101201,22134
3048.1,-58628,-35913,101198,22138
3050.1,-58555,-35985,101072,22018
3052.1,-58124,-36019,100916,21877
3054.1,-58218,-36125,100905,21877
3056.1,-58488,-36050,101039,21987
3058.1,-58209,-35870,101101,21989
3060.1,-58080,-36105,101007,21856
3062.1,-58688,-36541,100939,21805
3064.1,-58937,-36363,101040,21940
3066.1,-58274,-35735,101192,22102
3068.1,-57952,-35579,101202,22117
3070.1,-58446,-35878,101070,22000
3072.2,-58609,-35952,100963,21894
3074.2,-58216,-35890,100978,21893
3076.2,-58191,-36100,101047,21958
3078.2,-58406,-36270,101075,22003
3080.2,-58161,-36038,101071,22012
3082.2,-57883,-35740,101059,22002
3084.2,-58063,-35723,101012,21960
3086.2,-58132,-35844,100952,21909
3088.2,-57835,-35947,100989,21939
3090.2,-57802,-36033,101133,22054
3092.2,-58079,-36045,101218,22112
3094.2,-58044,-35956,101162,22051
3096.2,-57778,-35857,101086,21982
3098.2,-57840,-35802,101077,21970
3100.2,-58147,-35824,101080,21960
3102.2,-58344,-35967,101106,21985
3104.2,-58527,-36121,101207,22104
3106.2,-58715,-36104,101265,22179
3108.2,-58562,-35906,101175,22091
3110.2,-58061,-35621,101114,22026
3112.2,-57722,-35381,101225,22136
3114.2,-57885,-35474,101322,22231
3116.2,-58352,-35991,101245,22153
3118.2,-58613,-36396,101158,22070
3120.2,-58362,-36240,101187,22091
3122.2,-57988,-35923,101220,22096
3124.2,-58099,-35886,101239,22100
3126.2,-58451,-35836,101326,22212
3128.2,-58308,-35645,101325,22244
3130.2,-57782,-35737,101107,22017
3132.2,-57581,-35985,100967,21850
3134.2,-57753,-35841,101114,21999
3136.2,-57863,-35621,101190,22106
3138.2,-57890,-35894,100988,21931
3140.2,-58029,-36182,100931,21882
3142.2,-58238,-35966,101202,22147
3144.2,-58433,-35792,101341,22272
3146.2,-58595,-36052,101180,22097
3148.2,-58639,-36212,101113,22020
3150.2,-58525,-36009,101225,22121
3152.2,-58362,-35854,101226,22111
3154.2,-58271,-35905,101147,22039
3156.2,-58258,-35976,101184,22095
3158.2,-58224,-36029,101225,22153
3160.2,-58159,-35981,101216,22152
3162.2,-58239,-35736,101326,22260
3164.2,-58447,-35601,101453,22360
3166.2,-58394,-35830,101331,22201
3168.2,-58020,-36003,101148,22011
3170.2,-57854,-35687,101236,22124
3172.2,-58088,-35239,101449,22347
3174.2,-58247,-35165,101516,22395
3176.2,-58154,-35319,101533,22396
3178.2,-58258,-35406,101616,22476
3180.2,-58676,-35564,101622,22473
3182.2,-58843,-35834,101502,22346
3184.2,-58450,-35838,101432,22288
3186.2,-58028,-35529,101481,22349
3188.2,-58102,-35384,101543,22413
3190.2,-58317,-35477,101569,22455
3192.2,-58101,-35386,101589,22506
3194.2,-57743,-35121,101610,22535
3196.2,-57831,-35076,101638,22555
3198.2,-58134,-35230,101658,22590
3200.2,-58059,-35290,101598,22548
3202.2,-57600,-35173,101489,22425
3204.2,-57099,-34896,101492,22415
3206.2,-56884,-34689,101579,22533
3208.2,-57293,-34947,101555,22561
3210.2,-58053,-35354,101494,22544
3212.2,-58239,-35135,101605,22694
3214.2,-57811,-34651,101711,22813
3216.2,-57781,-34896,101545,22609
3218.2,-58129,-35465,101308,22326
3220.2,-57758,-35304,101253,22272
3222.2,-56928,-34822,101208,22260
3224.23,-57051,-34940,101096,22165
3226.25,-57966,-35317,101172,22236
3228.28,-58212,-35427,101383,22438
3230.3,-57718,-35649,101371,22421
3232.3,-57605,-36066,101191,22232
3234.3,-57921,-36087,101153,22181
3236.3,-57931,-35769,101211,22228
3238.3,-57846,-35771,101195,22203
3240.3,-58203,-36073,101207,22208
3242.3,-58486,-36132,101274,22275
3244.3,-58137,-35911,101213,22230
3246.3,-57796,-35754,101063,22106
3248.3,-58113,-35758,101062,22115
3250.3,-58609,-35902,101155,22200
3252.3,-58727,-36241,101090,22130
3254.3,-58605,-36550,100892,21935
3256.3,-58354,-36407,100793,21824
3258.3,-57955,-35967,100814,21820
3260.3,-57804,-35927,100793,21790
3262.3,-58152,-36408,100722,21728
3264.3,-58461,-36669,100758,21755
3266.3,-58226,-36287,100919,21901
3268.3,-57884,-35885,101016,22012
3270.3,-58192,-36253,100895,21923
3272.3,-58988,-37125,100655,21688
3274.3,-59227,-37396,100546,21553
3276.3,-58528,-36715,100664,21651
3278.3,-57964,-36089,100833,21827
3280.3,-58428,-36305,100862,21883
3282.3,-59161,-36799,100772,21821
3284.3,-59178,-36920,100659,21711
3286.3,-58892,-36948,100571,21599
3288.3,-58913,-37031,100577,21594
3290.3,-58781,-36726,100714,21752
3292.3,-58273,-36159,100879,21949
3294.3,-58193,-36082,100983,22068
3296.3,-58707,-36529,101010,22082
3298.3,-58764,-36757,100899,21937
3300.3,-58079,-36509,100693,21698
3302.3,-57776,-36332,100619,21616
3304.3,-58277,-36600,100686,21695
3306.3,-58549,-36902,100618,21639
3308.3,-58162,-36763,100437,21467
3310.3,-58045,-36519,100471,21503
3312.3,-58508,-36653,100692,21711
3314.3,-58605,-36746,100783,21791
3316.3,-58113,-36332,100761,21769
3318.3,-58029,-36084,100793,21785
3320.3,-58608,-36671,100731,21683
3322.3,-58979,-37458,100461,21379
3324.3,-58906,-37675,100245,21141
3326.3,-58974,-37627,100264,21112
3328.3,-59206,-37762,100327,21106
3330.3,-59170,-37828,100317,21061
3332.3,-58974,-37530,100403,21170
3334.3,-58914,-37023,100652,21484
3336.3,-58805,-36580,100875,21815
3338.3,-58422,-36286,100964,22055
3340.3,-57928,-36009,100999,22252
3342.3,-57533,-35654,100969,22375
3344.3,-57135,-35386,100761,22349
3346.3,-56377,-35216,100499,22334
3348.3,-55106,-34742,100456,22570
3350.3,-53776,-33857,100570,22953
3352.3,-52950,-32987,100556,23198
3354.3,-52517,-32286,100481,23395
3356.3,-52147,-31599,100615,23792
3358.3,-52008,-31149,100811,24190
3360.3,-52079,-31082,100750,24239
3362.3,-51775,-30945,100590,24112
3364.3,-51310,-30732,100621,24110
3366.3,-51986,-31270,100576,23942
3368.3,-54001,-32598,100079,23221
3370.3,-55725,-33576,99372,22227
3372.3,-56245,-33893,98908,21466
3374.33,-56651,-34573,98671,20943
3376.35,-57787,-35895,98509,20507
3378.38,-58802,-36826,98568,20327
3380.4,-58885,-36895,98914,20495
3382.4,-58510,-36739,99280,20743
3384.4,-58263,-36671,99539,20921
3386.4,-58054,-36432,99838,21161
3388.4,-57824,-36166,100143,21414
3390.4,-57828,-36245,100258,21478
3392.4,-58149,-36562,100294,21471
3394.4,-58577,-36833,100472,21628
3396.4,-58845,-37022,100631,21782
3398.4,-58831,-37103,100541,21683
3400.4,-58681,-37005,100434,21543
3402.4,-58570,-36824,100582,21658
3404.4,-58478,-36731,100750,21819
3406.4,-58458,-36777,100661,21741
3408.4,-58640,-36873,100563,21645
3410.4,-58787,-36884,100715,21796
3412.4,-58626,-36837,100856,21946
3414.4,-58472,-36885,100759,21846
3416.4,-58583,-36984,100640,21709
3418.4,-58610,-36995,100633,21701
3420.4,-58508,-36989,100589,21678
3422.4,-58723,-36979,100546,21649
3424.4,-58966,-36798,100647,21749
3426.4,-58555,-36607,100725,21832
3428.4,-58003,-36739,100650,21757
3430.4,-58235,-36950,100638,21733
3432.4,-58737,-36796,100758,21853
3434.4,-58545,-36536,100760,21869
3436.4,-58057,-36645,100617,21720
3438.4,-58069,-36893,100582,21662
3440.4,-58361,-36849,100695,21774
3442.4,-58554,-36704,100774,21870
3444.4,-58808,-36776,100777,21877
3446.4,-58963,-36807,100800,21902
3448.4,-58649,-36528,100858,21985
3450.4,-58337,-36338,100875,22024
3452.4,-58604,-36639,100798,21937
3454.4,-58877,-37000,100676,21797
3456.4,-58486,-36834,100657,21776
3458.4,-58016,-36410,100818,21943
3460.4,-58185,-36336,101014,22143
3462.4,-58543,-36570,101025,22150
3464.4,-58460,-36680,100864,21973
3466.4,-58250,-36631,100754,21849
3468.4,-58398,-36699,100772,21874
3470.4,-58652,-36904,100763,21883
3472.4,-58581,-37015,100656,21782
3474.4,-58343,-36977,100586,21720
3476.4,-58318,-36922,100631,21785
3478.4,-58449,-36862,100701,21862
3480.4,-58536,-36784,100726,21875
3482.4,-58690,-36858,100739,21876
3484.4,-58898,-37054,100757,21888
3486.4,-58773,-36980,100758,21883
3488.4,-58317,-36595,100760,21889
3490.4,-58104,-36386,100816,21972
3492.4,-58333,-36531,100908,22085
3494.4,-58588,-36720,100910,22088
3496.4,-58577,-36754,100802,21980
3498.4,-58298,-36554,100791,21975
3500.4,-57844,-36109,100966,22142
3502.4,-57633,-35915,101040,22181
3504.4,-58092,-36503,100818,21914
3506.4,-58791,-37358,100604,21665
3508.4,-58860,-37480,100709,21760
3510.4,-58326,-36936,100924,21994
3512.4,-57964,-36619,100929,22032
3514.4,-57965,-36739,100820,21950
3516.4,-57916,-36692,100870,22009
3518.4,-57801,-36300,101038,22175
3520.4,-57902,-36145,101054,22185
3522.4,-58070,-36505,100876,22006
3524.4,-58065,-36830,100784,21924
3526.4,-58084,-36672,100929,22089
3528.4,-58224,-36369,101101,22276
3530.4,-58191,-36331,101126,22307
3532.4,-58017,-36456,101110,22286
3534.43,-58116,-36584,101119,22281
3536.45,-58384,-36726,101066,22216
3538.48,-58264,-36752,100989,22147
3540.5,-57823,-36589,101011,22185
3542.5,-57706,-36466,101102,22282
3544.5,-57977,-36459,101181,22361
3546.5,-57986,-36322,101213,22403
3548.5,-57547,-36089,101173,22375
3550.5,-57265,-36116,101147,22351
3552.5,-57401,-36341,101274,22476
3554.5,-57417,-36289,101457,22654
3556.5,-57120,-35989,101500,22686
3558.5,-57099,-35983,101445,22638
3560.5,-57442,-36242,101401,22626
3562.5,-57394,-36100,101338,22583
3564.5,-56945,-35608,101305,22535
3566.5,-57074,-35668,101400,22607
3568.5,-57777,-36375,101473,22678
3570.5,-57819,-36698,101364,22571
3572.5,-57043,-36234,101255,22458
3574.5,-56757,-35743,101355,22562
3576.5,-57376,-35705,101539,22761
3578.5,-57859,-35846,101608,22829
3580.5,-57703,-36004,101575,22771
3582.5,-57423,-36137,101551,22732
3584.5,-57167,-35945,101588,22780
3586.5,-56754,-35542,101615,22824
3588.5,-56583,-35573,101533,22748
3590.5,-56966,-35948,101460,22685
3592.5,-57353,-35847,101618,22863
3594.5,-57296,-35352,101846,23106
3596.5,-57137,-35336,101752,23018
3598.5,-57153,-35721,101427,22705
3600.5,-57165,-35776,101318,22611
3602.5,-57159,-35724,101404,22707
3604.5,-57222,-36073,101337,22639
3606.5,-57147,-36267,101222,22502
3608.5,-56936,-35865,101360,22607
3610.5,-56990,-35644,101553,22788
3612.5,-57221,-35992,101510,22757
3614.5,-57082,-36045,101436,22680
3616.5,-56807,-35553,101546,22771
3618.5,-57143,-35422,101647,22872
3620.5,-57756,-35802,101614,22861
3622.5,-57668,-35895,101570,22834
3624.5,-57135,-35675,101525,22785
3626.5,-57195,-35724,101463,22691
3628.5,-57696,-35891,101502,22686
3630.5,-57726,-35809,101575,22745
3632.5,-57391,-35752,101472,22676
3634.5,-57366,-35870,101306,22534
3636.5,-57425,-35764,101279,22475
3638.5,-57081,-35470,101244,22394
3640.5,-56853,-35581,101101,22253
3642.5,-57382,-36133,101073,22262
3644.5,-58060,-36418,101186,22397
3646.5,-57980,-36121,101181,22395
3648.5,-57552,-35845,101063,22283
3650.5,-57702,-36103,101062,22293
3652.5,-58159,-36391,101184,22411
3654.5,-58106,-36085,101276,22491
3656.5,-57803,-35711,101260,22470
3658.5,-57930,-36013,101142,22349
3660.5,-58155,-36423,101060,22253
3662.5,-57873,-36109,101158,22331
3664.5,-57434,-35628,101273,22436
3666.5,-57428,-35835,101146,22322
3668.5,-57727,-36307,100925,22122
3670.5,-57951,-36320,100916,22110
3672.5,-58014,-36107,101032,22199
3674.5,-57947,-36156,100999,22159
3676.5,-57876,-36401,100881,22077
3678.5,-58014,-36556,100943,22176
3680.5,-58238,-36477,101149,22380
3682.5,-58152,-36262,101183,22388
3684.5,-57827,-36195,100976,22167
3686.5,-57715,-36231,100888,22075
3688.5,-57799,-35961,101126,22304
3690.5,-57768,-35544,101362,22534
3692.5,-57874,-35699,101288,22480
3694.53,-58362,-36337,101107,22328
3696.55,-58520,-36555,101060,22288
3698.58,-57819,-36203,101013,22227
3700.6,-57241,-36011,100881,22090
3702.6,-57771,-36201,100864,22089
3704.6,-58581,-36364,100996,22247
3706.6,-58444,-36364,101060,22323
3708.6,-57742,-36219,101040,22287
3710.6,-57516,-35823,101103,22321
3712.6,-57688,-35503,101167,22377
3714.6,-57629,-35780,101061,22282
3716.6,-57496,-36309,100949,22178
3718.6,-57797,-36366,101058,22297
3720.6,-58269,-36110,101238,22501
3722.6,-58307,-36032,101277,22552
3724.6,-58069,-35961,101255,22507
3726.6,-58074,-35755,101220,22453
3728.6,-58136,-35778,101093,22332
3730.6,-57820,-35994,100968,22210
3732.6,-57468,-35998,100933,22158
3734.6,-57649,-35952,100852,22064
3736.6,-58133,-36128,100784,21993
3738.6,-58293,-36187,100964,22165
3740.6,-57995,-35970,101209,22405
3742.6,-57586,-35862,101233,22442
3744.6,-57442,-35906,101255,22477
3746.6,-57660,-35891,101393,22618
3748.6,-57972,-36031,101280,22501
3750.6,-58063,-36326,100963,22180
3752.6,-57925,-36195,101003,22221
3754.6,-57745,-35666,101334,22573
3756.6,-57727,-35560,101374,22644
3758.6,-57952,-35995,101149,22421
3760.6,-58107,-36216,101065,22314
3762.6,-57877,-36050,101055,22296
3764.6,-57690,-36066,100924,22181
3766.6,-58058,-36328,100855,22123
3768.6,-58399,-36325,100952,22221
3770.6,-58002,-36045,100995,22263
3772.6,-57496,-35981,100927,22182
3774.6,-57686,-36146,100937,22163
3776.6,-58081,-36121,101033,22246
3778.6,-58033,-35917,101063,22290
3780.6,-57861,-35884,101024,22263
3782.6,-57828,-35997,100993,22220
3784.6,-57707,-36030,100957,22173
3786.6,-57715,-36028,100949,22171
3788.6,-58157,-36033,101052,22277
3790.6,-58412,-35896,101167,22378
3792.6,-57866,-35625,101142,22340
3794.6,-57216,-35390,101101,22300
3796.6,-57371,-35238,101218,22423
3798.6,-57907,-35206,101306,22514
3800.6,-57961,-35414,101144,22356
3802.6,-57770,-35731,101008,22216
3804.6,-57948,-35789,101252,22442
3806.6,-58185,-35575,101614,22779
3808.6,-58017,-35537,101580,22721
3810.6,-57881,-35851,101246,22375
3812.6,-58125,-36074,101143,22282
3814.6,-58132,-35855,101343,22512
3816.6,-57509,-35477,101429,22614
3818.6,-56971,-35335,101277,22429
3820.6,-57223,-35381,101201,22293
3822.6,-57920,-35410,101322,22393
3824.6,-58246,-35381,101412,22523
3826.6,-57937,-35308,101368,22532
3828.6,-57515,-35212,101332,22516
3830.6,-57615,-35141,101377,22557
3832.6,-58080,-35036,101457,22635
3834.6,-58179,-34874,101528,22716
3836.6,-57800,-34881,101522,22736
3838.6,-57547,-35098,101431,22678
3840.6,-57515,-35087,101378,22646
3842.6,-57177,-34732,101373,22645
3844.6,-56640,-34670,101247,22528
3846.6,-56603,-35114,101053,22360
3848.6,-57037,-35261,101067,22387
3850.6,-57335,-34821,101242,22545
3852.6,-57462,-34720,101248,22530
3854.63,-57675,-35333,101095,22378
3856.65,-57773,-35731,101048,22349
3858.68,-57654,-35557,101058,22368
3860.7,-57606,-35561,100928,22235
3862.7,-57497,-35769,100813,22108
3864.7,-56974,-35423,100919,22180
3866.7,-56478,-34863,101033,22244
3868.7,-56645,-35098,100910,22096
3870.7,-57180,-35811,100748,21953
3872.7,-57506,-36000,100791,22010
3874.7,-57685,-35828,100875,22064
3876.7,-57848,-35937,100799,21952
3878.7,-57790,-36084,100693,21854
3880.7,-57628,-35967,100688,21878
3882.7,-57778,-36029,100659,21849
3884.7,-58130,-36357,100580,21739
3886.7,-58220,-36312,100655,21788
3888.7,-58088,-35876,100888,22009
3890.7,-58151,-35842,100957,22076
3892.7,-58452,-36345,100740,21874
3894.7,-58572,-36657,100502,21665
3896.7,-58203,-36480,100445,21622
3898.7,-57627,-36257,100472,21639
3900.7,-57509,-36284,100480,21639
3902.7,-58027,-36414,100479,21655
3904.7,-58548,-36473,100466,21658
3906.7,-58552,-36440,100432,21619
3908.7,-58276,-36383,100411,21590
3910.7,-58050,-36357,100395,21580
3912.7,-57859,-36305,100394,21583
3914.7,-57799,-36199,100474,21659
3916.7,-57997,-36199,100563,21750
3918.7,-58153,-36356,100510,21713
3920.7,-58049,-36407,100436,21646
3922.7,-57991,-36255,100545,21748
3924.7,-58067,-36173,100680,21873
3926.7,-57888,-36219,100597,21792
3928.7,-57484,-36107,100453,21660
3930.7,-57398,-35916,100477,21699
3932.7,-57762,-36087,100536,21773
3934.7,-58185,-36551,100462,21705
3936.7,-58325,-36676,100381,21611
3938.7,-58093,-36276,100433,21645
3940.7,-57802,-35910,100557,21775
3942.7,-58004,-36057,100639,21882
3944.7,-58549,-36493,100625,21866
3946.7,-58578,-36674,100537,21714
3948.7,-58010,-36486,100471,21561
3950.7,-57755,-36395,100416,21451
3952.7,-58144,-36780,100223,21222
3954.7,-58597,-37340,99951,20894
3956.7,-58779,-37546,99915,20811
3958.7,-58803,-37420,100168,21077
3960.7,-58649,-37300,100373,21342
3962.7,-58338,-37135,100358,21382
3964.7,-58140,-36719,100320,21407
3966.7,-58096,-36263,100385,21591
3968.7,-57754,-35971,100418,21798
3970.7,-56731,-35518,100355,21924
3972.7,-55418,-34735,100330,22087
3974.7,-54670,-34176,100401,22364
3976.7,-54534,-34166,100445,22658
3978.7,-54069,-34057,100394,22901
3980.7,-52902,-33219,100344,23148
3982.7,-51782,-31986,100357,23417
3984.7,-51165,-31013,100352,23626
3986.7,-50744,-30507,100262,23714
3988.7,-50542,-30437,100129,23702
3990.7,-50894,-30736,100033,23642
3992.7,-51551,-31185,99981,23549
3994.7,-52180,-31647,99871,23331
3996.7,-53135,-32289,99564,22822
3998.7,-54624,-33242,99051,22009
4000.7,-55968,-34274,98522,21132
4002.7,-56605,-35047,98211,20510
4004.73,-56937,-35523,98201,20266
4006.75,-57460,-35959,98373,20256
4008.78,-57932,-36452,98571,20282
4010.8,-58042,-36695,98818,20360
4012.8,-58066,-36496,99234,20648
4014.8,-58196,-36209,99742,21082
4016.8,-58108,-36163,100102,21397
4018.8,-57778,-36174,100246,21503
4020.8,-57701,-36145,100280,21509
4022.8,-57874,-36365,100246,21455
4024.8,-57769,-36725,100183,21375
4026.8,-57528,-36711,100225,21411
4028.8,-57810,-36477,100355,21549
4030.8,-58386,-36627,100371,21571
4032.8,-58341,-36879,100255,21446
4034.8,-57705,-36543,100214,21399
4036.8,-57502,-36077,100294,21488
4038.8,-58054,-36382,100348,21550
4040.8,-58490,-37016,100365,21555
4042.8,-58229,-36968,100424,21591
4044.8,-57829,-36499,100450,21593
4046.8,-57943,-36472,100366,21492
4048.8,-58367,-36772,100309,21443
4050.8,-58496,-36827,100383,21545
4052.8,-58101,-36698,100427,21596
4054.8,-57550,-36679,100315,21460
4056.8,-57447,-36722,100208,21342
4058.8,-57805,-36684,100279,21435
4060.8,-57986,-36531,100472,21647
4062.8,-57848,-36341,100638,21814
4064.8,-57902,-36287,100687,21876
4066.8,-58068,-36387,100602,21814
4068.8,-57848,-36452,100466,21677
4070.8,-57574,-36476,100384,21567
4072.8,-57788,-36580,100346,21499
4074.8,-58101,-36624,100327,21453
4076.8,-58045,-36410,100416,21523
4078.8,-57865,-36066,100617,21732
4080.8,-57784,-35871,100735,21872
4082.8,-57791,-35951,100676,21821
4084.8,-58035,-36250,100583,21716
4086.8,-58342,-36569,100523,21644
4088.8,-58122,-36684,100391,21507
4090.8,-57488,-36560,100224,21331
4092.8,-57329,-36406,100222,21324
4094.8,-57858,-36436,100418,21520
4096.8,-58230,-36549,100614,21711
4098.8,-57927,-36449,100680,21770
4100.8,-57569,-36217,100666,21773
4102.8,-57839,-36279,100649,21788
4104.8,-58335,-36622,100616,21760
4106.8,-58306,-36770,100537,21660
4108.8,-57946,-36643,100485,21600
4110.8,-57908,-36548,100539,21668
4112.8,-58115,-36520,100620,21753
4114.8,-58128,-36491,100571,21694
4116.8,-57995,-36612,100419,21538
4118.8,-57919,-36824,100326,21456
4120.8,-57858,-36812,100351,21486
4122.8,-57864,-36616,100448,21570
4124.8,-58025,-36520,100582,21687
4126.8,-58110,-36499,100681,21797
4128.8,-57997,-36432,100688,21834
4130.8,-57977,-36412,100696,21846
4132.8,-58116,-36485,100748,21882
4134.8,-58087,-36620,100662,21810
4136.8,-57851,-36799,100414,21604
4138.8,-57621,-36726,100339,21542
4140.8,-57320,-36134,100552,21730
4142.8,-57017,-35650,100690,21841
4144.8,-57249,-36101,100590,21724
4146.8,-57886,-36872,100579,21695
4148.8,-57901,-36739,100765,21873
4150.8,-57254,-36120,100780,21904
4152.8,-57178,-36299,100524,21675
4154.8,-57793,-36882,100430,21591
4156.8,-57917,-36640,100690,21825
4158.8,-57593,-36065,100919,22001
4160.8,-57807,-36303,100837,21877
4162.8,-58036,-36743,100686,21722
4164.83,-57354,-36380,100722,21783
4166.85,-56784,-35934,100842,21929
4168.88,-57416,-36255,100899,22002
4170.9,-58159,-36642,100935,22039
4172.9,-57875,-36432,100970,22066
4174.9,-57272,-36131,100959,22052
4176.9,-57134,-36097,100938,22047
4178.9,-57130,-36068,100947,22072
4180.9,-56970,-36021,100937,22058
4182.9,-56847,-36076,100927,22034
4184.9,-56889,-36123,100999,22105
4186.9,-57089,-36168,101077,22199
4188.9,-57269,-36205,101066,22207
4190.9,-57203,-36007,101090,22245
4192.9,-57100,-35730,101224,22393
4194.9,-57149,-35825,101249,22432
4196.9,-56956,-36081,101055,22258
4198.9,-56522,-36029,100934,22155
4200.9,-56578,-35943,101060,22278
4202.9,-57031,-36162,101148,22343
4204.9,-56962,-36257,101020,22191
4206.9,-56565,-35947,100975,22123
4208.9,-56786,-35734,101190,22303
4210.9,-57285,-35911,101325,22411
4212.9,-57093,-36056,101170,22263
4214.9,-56584,-35899,101056,22175
4216.9,-56733,-35757,101210,22341
4218.9,-57335,-35921,101343,22474
4220.9,-57474,-36148,101263,22411
4222.9,-56924,-35979,101221,22397
4224.9,-56229,-35474,101318,22499
4226.9,-56018,-35283,101312,22469
4228.9,-56407,-35662,101204,22347
4230.9,-56765,-35948,101269,22430
4232.9,-56503,-35640,101439,22620
4234.9,-56062,-35264,101409,22591
4236.9,-56219,-35388,101263,22447
4238.9,-56727,-35712,101272,22476
4240.9,-56887,-35828,101326,22538
4242.9,-56849,-35851,101242,22425
4244.9,-57011,-35838,101219,22369
4246.9,-57045,-35645,101389,22529
4248.9,-56770,-35471,101452,22598
4250.9,-56744,-35599,101285,22444
4252.9,-57079,-35804,101206,22382
4254.9,-57116,-35783,101307,22489
4256.9,-56770,-35681,101307,22485
4258.9,-56687,-35741,101184,22360
4260.9,-57019,-35950,101170,22340
4262.9,-57291,-36116,101244,22391
4264.9,-57328,-36042,101254,22381
4266.9,-57448,-35863,101234,22370
4268.9,-57814,-36004,101211,22368
4270.9,-58022,-36353,101125,22285
4272.9,-57644,-36288,101020,22170
4274.9,-57053,-35906,100949,22089
4276.9,-56942,-35908,100862,21985
4278.9,-57201,-36200,100813,21916
4280.9,-57384,-36218,100915,22020
4282.9,-57656,-36163,101038,22179
4284.9,-58036,-36352,101001,22185
4286.9,-57933,-36371,100914,22118
4288.9,-57413,-36072,100944,22147
4290.9,-57284,-36040,100964,22170
4292.9,-57578,-36384,100782,21993
4294.9,-57661,-36522,100542,21738
4296.9,-57525,-36268,100587,21748
4298.9,-57512,-36003,100909,22059
4300.9,-57567,-36025,101090,22275
4302.9,-57627,-36336,100933,22169
4304.9,-57791,-36628,100760,22006
4306.9,-57912,-36551,100791,21982
4308.9,-57849,-36386,100770,21883
4310.9,-57800,-36685,100561,21640
4312.9,-57876,-37118,100509,21606
4314.9,-57923,-36971,100775,21902
4316.9,-57868,-36555,100956,22110
4318.9,-57678,-36535,100805,21985
4320.9,-57328,-36561,100654,21846
4322.9,-57212,-36211,100768,21951
4324.93,-57737,-36079,100933,22112
4326.95,-58282,-36421,100956,22138
4328.98,-57856,-36469,100915,22082
4331.0,-56906,-36060,100852,21986
4333.0,-56763,-35946,100793,21917
4335.0,-57410,-36159,100905,22054
4337.0,-57729,-36159,101109,22292
4339.0,-57598,-36119,101067,22262
4341.0,-57696,-36267,100864,22043
4343.0,-57898,-36208,100909,22064
4345.0,-57752,-36064,101070,22218
4347.0,-57562,-36420,100940,22099
4349.0,-57613,-36794,100746,21917
4351.0,-57592,-36386,100892,22076
4353.0,-57505,-35859,101098,22294
4355.0,-57702,-36131,100985,22179
4357.0,-57924,-36533,100827,22007
4359.0,-57696,-36157,100950,22136
4361.0,-57322,-35574,101145,22365
4363.0,-57371,-35687,101125,22372
4365.0,-57727,-36265,100925,22171
4367.0,-57907,-36536,100727,21963
4369.0,-57814,-36286,100723,21943
4371.0,-57779,-35969,100937,22130
4373.0,-57991,-36100,101080,22260
4375.0,-58112,-36509,100956,22149
4377.0,-57773,-36544,100798,21990
4379.0,-57357,-36208,100808,21954
4381.0,-57444,-36160,100816,21921
4383.0,-57698,-36406,100746,21854
4385.0,-57476,-36331,100793,21918
4387.0,-57159,-36044,100923,22055
4389.0,-57428,-36170,100871,22016
4391.0,-57852,-36535,100701,21858
4393.0,-57756,-36516,100732,21886
4395.0,-57598,-36251,100943,22099
4397.0,-57887,-36215,101010,22194
4399.0,-57973,-36283,100867,22069
4401.0,-57442,-36199,100746,21926
4403.0,-57200,-36188,100751,21911
4405.0,-57672,-36326,100804,21971
4407.0,-57818,-36229,100861,22035
4409.0,-57243,-35893,100907,22061
4411.0,-57038,-35808,100902,22033
4413.0,-57487,-35999,100885,22012
4415.0,-57632,-36093,100918,22047
4417.0,-57572,-36200,100955,22084
4419.0,-58150,-36533,100951,22085
4421.0,-58574,-36617,100967,22108
4423.0,-57704,-36099,101021,22157
4425.0,-56651,-35607,101059,22192
4427.0,-56861,-35712,101091,22236
4429.0,-57488,-35946,101158,22308
4431.0,-57416,-35740,101234,22362
4433.0,-57283,-35433,101263,22366
4435.0,-57602,-35595,101194,22297
4437.0,-57742,-36028,101076,22187
4439.0,-57568,-36102,101088,22202
4441.0,-57510,-35750,101258,22374
4443.0,-57446,-35529,101327,22431
4445.0,-57389,-35701,101197,22265
4447.0,-57755,-35855,101140,22187
4449.0,-58097,-35681,101270,22340
4451.0,-57672,-35386,101369,22471
4453.0,-57058,-35132,101374,22478
4455.0,-57105,-34896,101419,22527
4457.0,-57379,-34926,101434,22573
4459.0,-57301,-35362,101294,22464
4461.0,-57185,-35690,101158,22342
4463.0,-57139,-35526,101191,22392
4465.0,-56810,-35316,101265,22490
4467.0,-56558,-35448,101253,22497
4469.0,-57050,-35623,101216,22480
4471.0,-57787,-35607,101183,22465
4473.0,-57695,-35552,101111,22394
4475.03,-56967,-35480,101052,22315
4477.05,-56761,-35409,101053,22299
4479.08,-57295,-35563,101064,22307
4481.1,-57655,-35794,101101,22351
4483.1,-57418,-35689,101192,22459
4485.1,-57141,-35525,101171,22451
4487.1,-57210,-35834,100947,22211
4489.1,-57317,-36225,100784,22013
4491.1,-57260,-36103,100879,22087
4493.1,-57362,-35913,101002,22200
4495.1,-57725,-36178,100931,22100
4497.1,-57813,-36382,100784,21916
4499.1,-57396,-36104,100699,21826
4501.1,-57134,-35891,100659,21804
4503.1,-57416,-36094,100652,21802
4505.1,-57597,-36292,100636,21770
4507.1,-57349,-36323,100540,21656
4509.1,-57438,-36524,100455,21556
4511.1,-58089,-36881,100447,21537
4513.1,-58265,-37015,100369,21453
4515.1,-57536,-36755,100259,21342
4517.1,-56867,-36252,100417,21493
4519.1,-56865,-35907,100712,21787
4521.1,-57051,-36113,100652,21738
4523.1,-57188,-36675,100328,21430
4525.1,-57624,-36985,100310,21425
4527.1,-58184,-36936,100576,21688
4529.1,-58251,-36891,100624,21712
4531.1,-57941,-36882,100468,21533
4533.1,-57905,-36767,100469,21542
4535.1,-58056,-36697,100531,21624
4537.1,-57779,-36688,100430,21524
4539.1,-57272,-36486,100396,21476
4541.1,-57331,-36263,100580,21658
4543.1,-57890,-36435,100652,21732
4545.1,-58123,-36747,100458,21540
4547.1,-57819,-36672,100318,21415
4549.1,-57489,-36405,100387,21500
4551.1,-57445,-36458,100470,21574
4553.1,-57644,-36785,100479,21564
4555.1,-57845,-36977,100470,21552
4557.1,-57624,-36824,100443,21520
4559.1,-57029,-36476,100449,21501
4561.1,-56892,-36303,100560,21606
4563.1,-57493,-36391,100652,21733
4565.1,-57938,-36398,100584,21694
4567.1,-57794,-36341,100458,21566
4569.1,-57739,-36687,100411,21523
4571.1,-57955,-37231,100387,21507
4573.1,-57878,-37281,100320,21400
4575.1,-57683,-37080,100252,21245
4577.1,-57882,-37294,100193,21112
4579.1,-58046,-37553,100128,21007
4581.1,-57819,-37304,100122,20985
4583.1,-57831,-37057,100241,21104
4585.1,-58215,-37220,100433,21304
4587.1,-58175,-37206,100614,21512
4589.1,-57689,-36752,100742,21720
4591.1,-57447,-36401,100778,21899
4593.1,-57271,-36263,100728,22023
4595.1,-56646,-35907,100683,22164
4597.1,-55897,-35362,100672,22355
4599.1,-55245,-34942,100593,22494
4601.1,-54184,-34554,100447,22580
4603.1,-52806,-33974,100413,22808
4605.1,-52055,-33240,100570,23251
4607.1,-52145,-32523,100733,23688
4609.1,-52237,-31988,100720,23906
4611.1,-51708,-31598,100607,23969
4613.1,-50807,-31057,100625,24085
4615.1,-50364,-30484,100829,24296
4617.1,-51088,-30665,100909,24305
4619.1,-52650,-31839,100495,23745
4621.1,-53909,-33060,99683,22704
4623.1,-54535,-33640,98976,21722
4625.1,-55259,-34116,98638,21116
4627.1,-56219,-34960,98486,20716
4629.1,-56715,-35725,98384,20382
4631.1,-56786,-36133,98431,20227
4633.1,-57214,-36550,98639,20260
4635.13,-57945,-36980,98893,20350
4637.15,-58201,-37015,99187,20521
4639.18,-57965,-36820,99553,20834
4641.2,-57869,-36880,99878,21129
4643.2,-57899,-37031,100039,21228
4645.2,-57533,-36846,100086,21205
4647.2,-56954,-36485,100151,21242
4649.2,-56924,-36352,100280,21376
4651.2,-57451,-36446,100412,21517
4653.2,-57697,-36533,100456,21573
4655.2,-57318,-36519,100393,21507
4657.2,-56924,-36510,100287,21360
4659.2,-57086,-36708,100216,21246
4661.2,-57722,-37112,100235,21267
4663.2,-58372,-37360,100342,21400
4665.2,-58426,-37170,100443,21500
4667.2,-57650,-36792,100444,21474
4669.2,-56874,-36702,100389,21402
4671.2,-57094,-36967,100368,21384
4673.2,-57838,-37170,100349,21378
4675.2,-57937,-37009,100297,21343
4677.2,-57569,-36726,100340,21402
4679.2,-57684,-36703,100523,21594
4681.2,-58095,-36878,100611,21682
4683.2,-58052,-36973,100459,21526
4685.2,-57778,-36981,100297,21360
4687.2,-57780,-36940,100329,21382
4689.2,-57789,-36740,100402,21440
4691.2,-57606,-36543,100361,21369
4693.2,-57631,-36713,100299,21270
4695.2,-57876,-37073,100292,21252
4697.2,-57850,-37116,100287,21278
4699.2,-57608,-36925,100282,21305
4701.2,-57598,-36929,100338,21361
4703.2,-57782,-36998,100476,21486
4705.2,-57898,-36810,100628,21653
4707.2,-57859,-36571,100636,21705
4709.2,-57510,-36497,100459,21564
4711.2,-56987,-36381,100352,21446
4713.2,-56990,-36298,100488,21527
4715.2,-57616,-36617,100601,21599
4717.2,-57934,-37028,100466,21473
4719.2,-57629,-36896,100344,21371
4721.2,-57494,-36493,100469,21487
4723.2,-57749,-36500,100597,21608
4725.2,-57702,-36712,100487,21520
4727.2,-57240,-36547,100324,21355
4729.2,-56988,-36206,100342,21314
4731.2,-57201,-36241,100461,21380
4733.2,-57631,-36610,100514,21440
4735.2,-57986,-36906,100502,21468
4737.2,-57953,-36974,100488,21472
4739.2,-57482,-36865,100478,21449
4741.2,-57030,-36669,100486,21431
4743.2,-56936,-36560,100515,21450
4745.2,-57041,-36679,100512,21466
4747.2,-57261,-36915,100478,21462
4749.2,-57614,-37026,100489,21478
4751.2,-57659,-36909,100509,21489
4753.2,-57172,-36667,100475,21466
4755.2,-57009,-36528,100506,21519
4757.2,-57762,-36626,100653,21670
4759.2,-58394,-36735,100717,21720
4761.2,-57915,-36544,100638,21632
4763.2,-57185,-36272,100600,21589
4765.2,-57281,-36393,100595,21580
4767.2,-57621,-36742,100500,21471
4769.2,-57346,-36773,100443,21393
4771.2,-56925,-36545,100527,21461
4773.2,-57042,-36502,100556,21498
4775.2,-57388,-36644,100457,21429
4777.2,-57492,-36743,100418,21418
4779.2,-57482,-36811,100483,21495
4781.2,-57554,-36790,100567,21574
4783.2,-57621,-36534,100697,21695
4785.23,-57662,-36290,100833,21837
4787.25,-57694,-36360,100835,21858
4789.28,-57469,-36453,100758,21784
4791.3,-56845,-36202,100759,21768
4793.3,-56344,-35920,100800,21797
4795.3,-56549,-36081,100774,21782
4797.3,-57098,-36471,100752,21771
4799.3,-57185,-36543,100831,21850
4801.3,-56827,-36228,100934,21959
4803.3,-56594,-35886,100911,21952
4805.3,-56567,-35744,100787,21819
4807.3,-56582,-35837,100751,21744
4809.3,-56792,-36179,100866,21841
4811.3,-57130,-36567,100983,21984
4813.3,-57076,-36554,101024,22046
4815.3,-56578,-36017,101100,22108
4817.3,-56325,-35473,101261,22259
4819.3,-56736,-35529,101346,22370
4821.3,-57282,-36124,101199,22244
4823.3,-57160,-36552,100933,21948
4825.3,-56466,-36349,100831,21801
4827.3,-56180,-35954,100935,21909
4829.3,-56636,-35980,100979,22000
4831.3,-56844,-36156,100908,21952
4833.3,-56213,-35915,100995,22025
4835.3,-55713,-35547,101257,22285
4837.3,-56095,-35563,101356,22417
4839.3,-56514,-35653,101238,22337
4841.3,-56250,-35471,101173,22289
4843.3,-55992,-35427,101203,22304
4845.3,-56195,-35705,101184,22232
4847.3,-56201,-35788,101133,22120
4849.3,-55954,-35599,101108,22080
4851.3,-56319,-35682,101094,22095
4853.3,-57023,-35963,101135,22144
4855.3,-56789,-35835,101212,22182
4857.3,-55911,-35468,101196,22132
4859.3,-55968,-35559,101131,22074
4861.3,-56885,-35981,101165,22133
4863.3,-57109,-36012,101221,22200
4865.3,-56474,-35629,101196,22187
4867.3,-56204,-35441,101224,22247
4869.3,-56575,-35634,101328,22374
4871.3,-56831,-35836,101305,22338
4873.3,-56728,-35770,101164,22173
4875.3,-56553,-35534,101110,22118
4877.3,-56396,-35387,101138,22151
4879.3,-56306,-35407,101159,22166
4881.3,-56444,-35446,101246,22258
4883.3,-56688,-35491,101337,22364
4885.3,-56656,-35686,101226,22234
4887.3,-56328,-35870,101041,22000
4889.3,-56270,-35809,101075,22007
4891.3,-56821,-35797,101169,22106
4893.3,-57316,-36076,101010,21952
4895.3,-57035,-36188,100794,21730
4897.3,-56608,-35967,100822,21748
4899.3,-56991,-36052,100901,21814
4901.3,-57607,-36464,100824,21730
4903.3,-57455,-36394,100815,21732
4905.3,-57120,-35934,100973,21903
4907.3,-57487,-35926,101045,21973
4909.3,-57850,-36177,101002,21915
4911.3,-57480,-36092,100982,21884
4913.3,-57227,-36153,100843,21743
4915.3,-57587,-36607,100573,21482
4917.3,-57512,-36463,100566,21483
4919.3,-56766,-35614,100830,21751
4921.3,-56664,-35423,100888,21821
4923.3,-57323,-36009,100785,21733
4925.3,-57293,-36060,100924,21872
4927.3,-56564,-35702,101062,21990
4929.3,-56648,-36124,100805,21715
4931.3,-57578,-36840,100550,21452
4933.3,-57959,-36644,100708,21592
4935.3,-57579,-36051,100918,21784
4937.3,-57281,-35990,100897,21779
4939.3,-57159,-35983,100894,21822
4941.3,-56888,-35605,100942,21884
4943.3,-56711,-35525,100840,21737
4945.33,-56917,-35981,100783,21627
4947.35,-57348,-36330,100976,21790
4949.38,-57676,-36327,101119,21913
4951.4,-57613,-36189,101025,21823
4953.4,-57279,-35983,100974,21830
4955.4,-57269,-35912,101051,21974
4957.4,-57597,-36178,100996,21924
4959.4,-57515,-36390,100814,21707
4961.4,-57079,-36270,100764,21636
4963.4,-57236,-36296,100841,21713
4965.4,-57865,-36588,100896,21765
4967.4,-57840,-36452,100939,21800
4969.4,-57211,-35881,100967,21824
4971.4,-57123,-35822,100902,21769
4973.4,-57699,-36411,100830,21719
4975.4,-57971,-36702,100876,21780
4977.4,-57566,-36358,100922,21824
4979.4,-56944,-35969,100845,21744
4981.4,-56457,-35842,100782,21689
4983.4,-56312,-35816,100857,21768
4985.4,-56776,-35936,100931,21842
4987.4,-57525,-36255,100858,21767
4989.4,-57648,-36415,100736,21622
4991.4,-57046,-36165,100745,21605
4993.4,-56796,-35853,100890,21771
4995.4,-57378,-35934,100982,21927
4997.4,-57844,-36330,100893,21879
4999.4,-57519,-36604,100746,21708
5001.4,-57076,-36567,100704,21609
5003.4,-57160,-36401,100722,21593
5005.4,-57392,-36286,100726,21617
5007.4,-57400,-36244,100786,21726
5009.4,-57422,-36284,100886,21844
5011.4,-57480,-36325,100882,21811
5013.4,-57243,-36155,100833,21738
5015.4,-56864,-35883,100911,21830
5017.4,-56833,-35956,100988,21918
5019.4,-57124,-36299,100845,21753
5021.4,-57342,-36286,100655,21547
5023.4,-57390,-35919,100694,21602
5025.4,-57375,-35835,100869,21791
5027.4,-57247,-35982,101010,21931
5029.4,-56994,-35805,101179,22104
5031.4,-56863,-35554,101323,22251
5033.4,-57032,-35786,101222,22129
5035.4,-57278,-36107,100981,21869
5037.4,-57277,-35947,100954,21847
5039.4,-57113,-35678,101146,22049
5041.4,-57106,-35704,101284,22184
5043.4,-57275,-35709,101292,22192
5045.4,-57459,-35630,101262,22161
5047.4,-57642,-35854,101211,22093
5049.4,-57672,-36107,101141,22010
5051.4,-57304,-35841,101083,21971
5053.4,-56907,-35499,101051,21971
5055.4,-57150,-35743,101081,22006
5057.4,-57736,-36085,101190,22091
5059.4,-57753,-35829,101287,22164
5061.4,-57281,-35397,101328,22198
5063.4,-57160,-35411,101373,22251
5065.4,-57356,-35584,101392,22280
5067.4,-57182,-35496,101322,22214
5069.4,-56832,-35369,101272,22180
5071.4,-56967,-35393,101322,22265
5073.4,-57211,-35304,101342,22300
5075.4,-56866,-35019,101274,22208
5077.4,-56479,-34891,101223,22152
5079.4,-56834,-35086,101174,22143
5081.4,-57305,-35324,101077,22080
5083.4,-57080,-35359,101072,22072
5085.4,-56662,-35257,101178,22187
5087.4,-56610,-35143,101163,22208
5089.4,-56541,-35092,101031,22094
5091.4,-56373,-35245,101041,22092
5093.4,-56593,-35615,101150,22181
5095.43,-57025,-35908,101127,22130
5097.45,-57149,-35905,101071,22038
5099.48,-57076,-35803,101128,22078
5101.5,-56965,-35844,101111,22062
5103.5,-56713,-35981,100932,21880
5105.5,-56648,-36101,100855,21798
5107.5,-57054,-36145,100975,21934
5109.5,-57386,-36055,101058,22034
5111.5,-57280,-35990,100970,21942
5113.5,-57203,-36230,100794,21759
5115.5,-57290,-36568,100634,21600
5117.5,-57135,-36536,100585,21534
5119.5,-56988,-36339,100654,21564
5121.5,-57377,-36527,100685,21581
5123.5,-57881,-36883,100613,21538
5125.5,-57870,-36840,100586,21531
5127.5,-57679,-36637,100635,21558
5129.5,-57778,-36793,100600,21484
5131.5,-57801,-36996,100506,21359
5133.5,-57416,-36719,100551,21380
5135.5,-57122,-36302,100697,21533
5137.5,-57349,-36339,100729,21612
5139.5,-57675,-36674,100633,21548
5141.5,-57618,-36875,100531,21420
5143.5,-57407,-36954,100436,21284
5145.5,-57369,-36984,100373,21219
5147.5,-57355,-36845,100435,21292
5149.5,-57309,-36696,100577,21418
5151.5,-57516,-36778,100680,21495
5153.5,-57908,-36868,100739,21557
5155.5,-58075,-36769,100728,21579
5157.5,-58016,-36779,100579,21456
5159.5,-57897,-36943,100428,21304
5161.5,-57524,-36860,100454,21321
5163.5,-57004,-36605,100556,21421
5165.5,-56952,-36667,100591,21452
5167.5,-57306,-36920,100611,21465
5169.5,-57309,-36835,100626,21487
5171.5,-57009,-36467,100578,21460
5173.5,-57113,-36283,100556,21452
5175.5,-57554,-36459,100608,21502
5177.5,-57838,-36870,100626,21509
5179.5,-58052,-37238,100651,21524
5181.5,-58170,-37182,100794,21666
5183.5,-57686,-36713,100874,21737
5185.5,-56934,-36442,100721,21548
5187.5,-57046,-36755,100554,21344
5189.5,-57966,-37283,100543,21334
5191.5,-58405,-37598,100488,21264
5193.5,-58020,-37770,100299,20968
5195.5,-57775,-37900,100178,20712
5197.5,-58032,-37806,100221,20724
5199.5,-58087,-37397,100367,20950
5201.5,-57685,-36899,100611,21285
5203.5,-57404,-36593,100859,21618
5205.5,-57383,-36496,100893,21791
5207.5,-57083,-36311,100729,21825
5209.5,-56368,-35784,100622,21925
5211.5,-55568,-35072,100683,22203
5213.5,-54650,-34474,100814,22588
5215.5,-53500,-33966,100900,22964
5217.5,-52559,-33390,100887,23246
5219.5,-52192,-32807,100818,23456
5221.5,-52038,-32284,100811,23706
5223.5,-51677,-31710,100876,23996
5225.5,-51197,-31130,100893,24189
5227.5,-50835,-30893,100821,24219
5229.5,-50780,-31176,100729,24139
5231.5,-51241,-31717,100611,23951
5233.5,-52171,-32225,100352,23543
5235.5,-53263,-32728,99904,22863
5237.5,-54425,-33382,99384,22044
5239.5,-55676,-34270,98930,21264
5241.5,-56633,-35363,98561,20584
5243.5,-56892,-36317,98353,20099
5245.5,-56817,-36640,98516,20039
5247.5,-57051,-36408,99025,20381
5249.5,-57491,-36265,99487,20703
5251.5,-57644,-36463,99692,20782
5253.5,-57531,-36679,99856,20852
5255.53,-57394,-36775,100099,21036
5257.55,-57218,-36888,100261,21165
5259.58,-57177,-36933,100349,21259
5261.6,-57519,-36777,100556,21499
5263.6,-57833,-36652,100773,21721
5265.6,-57689,-36826,100722,21629
5267.6,-57556,-37101,100526,21403
5269.6,-57820,-37079,100563,21436
5271.6,-57966,-36843,100776,21634
5273.6,-57758,-36884,100756,21586
5275.6,-57659,-37216,100479,21302
5277.6,-57627,-37228,100362,21198
5279.6,-57281,-36778,100537,21381
5281.6,-57024,-36517,100677,21533
5283.6,-57275,-36701,100607,21466
5285.6,-57479,-36817,100501,21325
5287.6,-57247,-36709,100460,21237
5289.6,-57160,-36792,100413,21191
5291.6,-57561,-37061,100400,21218
5293.6,-57995,-37101,100537,21374
5295.6,-58127,-36919,100755,21579
5297.6,-57992,-36769,100856,21672
5299.6,-57643,-36618,100780,21588
5301.6,-57341,-36503,100642,21418
5303.6,-57368,-36672,100563,21310
5305.6,-57463,-36982,100566,21319
5307.6,-57334,-37036,100592,21361
5309.6,-57262,-36916,100572,21340
5311.6,-57394,-36917,100531,21302
5313.6,-57362,-36901,100562,21348
5315.6,-57133,-36707,100656,21444
5317.6,-57075,-36616,100667,21438
5319.6,-57180,-36793,100563,21319
5321.6,-57261,-36916,100526,21284
5323.6,-57441,-36748,100676,21454
5325.6,-57718,-36553,100838,21648
5327.6,-57791,-36678,100784,21604
5329.6,-57602,-36983,100585,21365
5331.6,-57320,-36996,100494,21225
5333.6,-57091,-36722,100561,21285
5335.6,-57122,-36720,100593,21335
5337.6,-57405,-37041,100519,21257
5339.6,-57567,-37055,100525,21251
5341.6,-57613,-36763,100685,21429
5343.6,-57948,-36927,100757,21536
5345.6,-58330,-37503,100616,21418
5347.6,-58114,-37600,100539,21340
5349.6,-57521,-37109,100675,21451
5351.6,-57268,-36708,100690,21444
5353.6,-57376,-36542,100430,21199
5355.6,-57496,-36387,100314,21114
5357.6,-57599,-36489,100564,21355
5359.6,-57666,-37021,100780,21526
5361.6,-57573,-37488,100711,21439
5363.6,-57446,-37455,100623,21374
5365.6,-57450,-37136,100662,21437
5367.6,-57555,-36938,100669,21464
5369.6,-57746,-36982,100655,21487
5371.6,-57906,-37102,100726,21581
5373.6,-57750,-37058,100760,21582
5375.6,-57468,-36904,100697,21461
5377.6,-57625,-36946,100713,21459
5379.6,-57977,-37124,100799,21570
5381.6,-57666,-37014,100742,21540
5383.6,-56889,-36682,100599,21395
5385.6,-56760,-36687,100603,21367
5387.6,-57336,-36998,100715,21441
5389.6,-57520,-37012,100743,21455
5391.6,-57055,-36706,100701,21424
5393.6,-56878,-36638,100719,21454
5395.6,-57342,-36880,100796,21542
5397.6,-57661,-37029,100841,21607
5399.6,-57308,-36964,100827,21613
5401.6,-56815,-36795,100853,21636
5403.6,-56947,-36588,101011,21774
5405.63,-57637,-36515,101173,21928
5407.65,-57989,-36689,101103,21861
5409.68,-57489,-36865,100841,21598
5411.7,-56848,-36856,100721,21478
5413.7,-56884,-36778,100906,21680
5415.7,-57124,-36618,101168,21959
5417.7,-56771,-36288,101242,22024
5419.7,-56292,-36111,101166,21928
5421.7,-56575,-36409,101139,21905
5423.7,-57273,-36830,101200,21992
5425.7,-57394,-36851,101213,22018
5427.7,-56866,-36568,101131,21930
5429.7,-56457,-36427,101083,21875
5431.7,-56568,-36492,101150,21953
5433.7,-56806,-36465,101229,22050
5435.7,-56776,-36329,101206,22036
5437.7,-56730,-36466,101123,21953
5439.7,-56964,-36857,101107,21941
5441.7,-57074,-36845,101217,22051
5443.7,-56673,-36302,101360,22174
5445.7,-56238,-36037,101366,22148
5447.7,-56343,-36349,101224,21989
5449.7,-56775,-36526,101143,21913
5451.7,-57069,-36310,101242,22027
5453.7,-57077,-36226,101366,22174
5455.7,-56789,-36311,101365,22200
5457.7,-56376,-36205,101304,22159
5459.7,-56188,-36097,101293,22141
5461.7,-56253,-36175,101345,22160
5463.7,-56261,-36066,101427,22215
5465.7,-56148,-35757,101451,22254
5467.7,-56146,-35755,101378,22219
5469.7,-56379,-36045,101351,22214
5471.7,-56727,-36221,101435,22297
5473.7,-56902,-36326,101394,22257
5475.7,-56751,-36469,101185,22047
5477.7,-56519,-36412,101164,22017
5479.7,-56500,-36202,101380,22233
5481.7,-56596,-36216,101415,22287
5483.7,-56655,-36401,101231,22108
5485.7,-56770,-36415,101222,22078
5487.7,-56929,-36238,101376,22217
5489.7,-56939,-36029,101361,22212
5491.7,-56792,-35899,101249,22110
5493.7,-56624,-35959,101277,22143
5495.7,-56509,-36118,101354,22235
5497.7,-56534,-36103,101347,22242
5499.7,-56747,-35979,101314,22192
5501.7,-56992,-36075,101254,22102
5503.7,-57136,-36369,101139,21976
5505.7,-57243,-36599,101077,21904
5507.7,-57323,-36691,101069,21871
5509.7,-57293,-36617,100989,21792
5511.7,-57276,-36401,100932,21770
5513.7,-57424,-36376,101029,21879
5515.7,-57500,-36682,101095,21913
5517.7,-57222,-36781,101016,21813
5519.7,-56884,-36367,101039,21855
5521.7,-56978,-36102,101198,22033
5523.7,-57328,-36471,101153,21983
5525.7,-57346,-36862,100887,21720
5527.7,-57019,-36755,100750,21600
5529.7,-56920,-36620,100782,21633
5531.7,-57276,-36782,100820,21650
5533.7,-57663,-36775,100937,21757
5535.7,-57663,-36452,101095,21921
5537.7,-57401,-36307,101032,21855
5539.7,-57274,-36438,100870,21680
5541.7,-57386,-36550,100921,21735
5543.7,-57574,-36750,100970,21804
5545.7,-57824,-37116,100772,21616
5547.7,-58135,-37166,100714,21561
5549.7,-58175,-36775,100996,21859
5551.7,-57753,-36606,101100,21977
5553.7,-57347,-36904,100813,21676
5555.7,-57395,-37067,100648,21480
5557.7,-57605,-36794,100811,21626
5559.7,-57573,-36523,100905,21727
5561.7,-57399,-36558,100771,21616
5563.7,-57282,-36695,100656,21532
5565.73,-57270,-36702,100706,21596
5567.75,-57442,-36628,100849,21725
5569.78,-57658,-36647,100945,21800
5571.8,-57549,-36747,100888,21738
5573.8,-57221,-36705,100795,21646
5575.8,-57207,-36508,100863,21704
5577.8,-57502,-36493,100961,21789
5579.8,-57608,-36740,100856,21677
5581.8,-57455,-36819,100717,21540
5583.8,-57337,-36547,100793,21632
5585.8,-57313,-36344,100916,21772
5587.8,-57371,-36470,100888,21746
5589.8,-57561,-36604,100879,21724
5591.8,-57645,-36549,100967,21800
5593.8,-57412,-36584,100929,21756
5595.8,-57223,-36781,100791,21625
5597.8,-57414,-36786,100854,21712
5599.8,-57667,-36611,101035,21906
5601.8,-57648,-36666,100987,21829
5603.8,-57480,-36802,100817,21625
5605.8,-57321,-36563,100876,21695
5607.8,-57247,-36315,101035,21888
5609.8,-57404,-36604,100950,21818
5611.8,-57653,-36914,100731,21613
5613.8,-57634,-36693,100691,21596
5615.8,-57410,-36525,100795,21682
5617.8,-57346,-36848,100832,21655
5619.8,-57454,-37050,100785,21573
5621.8,-57482,-36829,100755,21572
5623.8,-57379,-36711,100761,21610
5625.8,-57273,-36851,100751,21598
5627.8,-57267,-36882,100732,21578
5629.8,-57356,-36756,100797,21668
5631.8,-57432,-36645,100941,21837
5633.8,-57479,-36609,100957,21859
5635.8,-57619,-36762,100754,21658
5637.8,-57812,-37066,100595,21509
5639.8,-57865,-37161,100698,21615
5641.8,-57778,-36939,100876,21773
5643.8,-57674,-36676,100909,21771
5645.8,-57499,-36440,100913,21759
5647.8,-57304,-36176,101044,21899
5649.8,-57428,-36170,101168,22033
5651.8,-57840,-36519,101129,21984
5653.8,-57911,-36696,101045,21876
5655.8,-57441,-36376,101089,21903
5657.8,-57104,-36042,101186,22005
5659.8,-57295,-36161,101159,21999
5661.8,-57577,-36511,101048,21905
5663.8,-57645,-36669,101049,21907
5665.8,-57627,-36514,101180,22039
5667.8,-57433,-36185,101264,22125
5669.8,-57070,-36017,101222,22067
5671.8,-57104,-36286,101157,21975
5673.8,-57688,-36685,101154,21973
5675.8,-58098,-36659,101197,22051
5677.8,-57973,-36321,101258,22131
5679.8,-57723,-36205,101296,22147
5681.8,-57579,-36270,101271,22100
5683.8,-57500,-36103,101270,22113
5685.8,-57589,-35757,101389,22259
5687.8,-57670,-35593,101477,22359
5689.8,-57459,-35707,101345,22235
5691.8,-57332,-35951,101169,22077
5693.8,-57574,-36057,101219,22155
5695.8,-57509,-35824,101333,22307
5697.8,-56864,-35535,101221,22230
5699.8,-56552,-35622,101035,22055
5701.8,-56881,-35840,101038,22051
5703.8,-57017,-35784,101060,22074
5705.8,-56903,-35804,100900,21928
5707.8,-57256,-36226,100820,21856
5709.8,-57664,-36478,100994,22025
5711.8,-57231,-36166,101077,22098
5713.8,-56488,-35819,100898,21905
5715.83,-56404,-35772,100810,21803
5717.85,-56658,-35729,100939,21912
5719.88,-56720,-35746,100957,21914
5721.9,-57010,-36184,100828,21780
5723.9,-57650,-36727,100848,21797
5725.9,-57830,-36776,100968,21896
5727.9,-57348,-36527,100880,21779
5729.9,-57066,-36571,100611,21499
5731.9,-57337,-36875,100439,21340
5733.9,-57571,-37012,100470,21393
5735.9,-57478,-36937,100593,21535
5737.9,-57352,-36859,100653,21605
5739.9,-57297,-36788,100606,21555
5741.9,-57202,-36698,100556,21489
5743.9,-57100,-36692,100549,21463
5745.9,-57043,-36754,100494,21389
5747.9,-57090,-36804,100386,21268
5749.9,-57369,-36871,100347,21228
5751.9,-57746,-36901,100389,21285
5753.9,-57917,-36809,100445,21361
5755.9,-57961,-36854,100508,21441
5757.9,-58047,-37255,100536,21473
5759.9,-57933,-37580,100455,21374
5761.9,-57576,-37354,100362,21245
5763.9,-57474,-36921,100411,21271
5765.9,-57733,-36859,100508,21381
5767.9,-57793,-37056,100476,21385
5769.9,-57452,-37065,100407,21327
5771.9,-57168,-36887,100457,21349
5773.9,-57233,-36878,100497,21357
5775.9,-57528,-37161,100364,21222
5777.9,-57942,-37454,100259,21125
5779.9,-58341,-37432,100414,21279
5781.9,-58393,-37194,100608,21475
5783.9,-58031,-37160,100507,21386
5785.9,-57685,-37372,100247,21130
5787.9,-57534,-37311,100170,21050
5789.9,-57246,-36788,100276,21168
5791.9,-56966,-36430,100364,21282
5793.9,-57355,-36737,100421,21342
5795.9,-58085,-37243,100499,21397
5797.9,-57969,-37264,100559,21441
5799.9,-57122,-36891,100617,21500
5801.9,-56933,-36662,100701,21579
5803.9,-57589,-36803,100661,21520
5805.9,-57930,-37188,100392,21226
5807.9,-57749,-37566,100125,20909
5809.9,-57872,-37700,100113,20807
5811.9,-58311,-37652,100221,20829
5813.9,-58460,-37759,100197,20779
5815.9,-58431,-38035,100112,20717
5817.9,-58489,-38049,100154,20793
5819.9,-58183,-37582,100267,20952
5821.9,-57303,-36928,100294,21060
5823.9,-56592,-36470,100256,21135
5825.9,-56601,-36315,100251,21284
5827.9,-56782,-36267,100313,21556
5829.9,-56316,-35993,100436,21922
5831.9,-55126,-35388,100529,22246
5833.9,-53758,-34659,100489,22434
5835.9,-52706,-33896,100446,22666
5837.9,-52102,-33041,100580,23118
5839.9,-51828,-32356,100678,23508
5841.9,-51678,-32104,100476,23528
5843.9,-51470,-31936,100253,23465
5845.9,-51210,-31560,100329,23646
5847.9,-51140,-31424,100419,23767
5849.9,-51424,-31756,100240,23547
5851.9,-51928,-32022,100032,23231
5853.9,-52591,-32203,99844,22851
5855.9,-53691,-33044,99314,22054
5857.9,-55219,-34448,98571,21023
5859.9,-56496,-35461,98202,20372
5861.9,-57004,-35959,98250,20133
5863.9,-57010,-36446,98357,19963
5865.9,-56922,-36752,98534,19922
5867.9,-56851,-36690,98850,20097
5869.9,-56960,-36841,99065,20221
5871.9,-57266,-37289,99204,20298
5874.0,-57357,-37255,99585,20629
5876.0,-57213,-36769,100081,21072
5878.0,-57398,-36711,100296,21244
5880.0,-57837,-37047,100306,21237
5882.0,-57841,-37061,100369,21290
5884.0,-57542,-36877,100395,21291
5886.0,-57568,-36958,100291,21157
5888.0,-57687,-37026,100205,21063
5890.0,-57461,-36849,100192,21057
5892.0,-57301,-36802,100212,21090
5894.0,-57487,-36976,100329,21213
5896.0,-57533,-37023,100456,21326
5898.0,-57332,-36967,100383,21218
5900.0,-57419,-37038,100245,21050
5902.0,-57808,-37137,100323,21133
5904.0,-57915,-37137,100455,21292
5906.0,-57572,-37089,100363,21204
5908.0,-57281,-37018,100236,21048
5910.0,-57595,-37018,100334,21133
5912.0,-58345,-37145,100487,21318
5914.0,-58526,-37101,100479,21342
5916.0,-57618,-36713,100406,21262
5918.0,-56739,-36436,100400,21241
5920.0,-57159,-36635,100422,21280
5922.0,-58196,-37019,100429,21317
5924.0,-58310,-37190,100440,21340
5926.0,-57573,-37032,100485,21380
5928.0,-57148,-36623,100546,21423
5930.0,-57215,-36364,100507,21346
5932.0,-57254,-36675,100301,21094
5934.0,-57337,-37210,100135,20900
5936.0,-57562,-37226,100227,20992
5938.0,-57448,-36781,100414,21198
5940.0,-57072,-36579,100424,21229
5942.0,-57242,-36786,100329,21140
5944.0,-57863,-36964,100335,21132
5946.0,-57990,-36945,100411,21194
5948.0,-57674,-36963,100446,21227
5950.0,-57708,-37091,100445,21235
5952.0,-57870,-37093,100444,21251
5954.0,-57483,-36840,100477,21303
5956.0,-56970,-36576,100547,21380
5958.0,-56997,-36631,100529,21356
5960.0,-57167,-36904,100363,21186
5962.0,-57032,-36978,100273,21089
5964.0,-57002,-36798,100391,21173
5966.0,-57275,-36721,100472,21211
5968.0,-57412,-36811,100408,21141
5970.0,-57383,-36784,100464,21225
5972.0,-57525,-36623,100670,21453
5974.0,-57637,-36534,100691,21483
5976.0,-57442,-36497,100514,21313
5978.0,-57315,-36487,100468,21266
5980.0,-57517,-36669,100563,21345
5982.0,-57675,-36956,100555,21324
5984.0,-57655,-37083,100443,21218
5986.0,-57769,-37144,100357,21142
5988.0,-57797,-37175,100312,21102
5990.0,-57196,-36782,100354,21137
5992.0,-56443,-36126,100509,21272
5994.0,-56627,-36148,100609,21352
5996.0,-57556,-36886,100576,21313
5998.0,-57888,-37158,100592,21330
6000.0,-57315,-36651,100691,21428
6002.0,-56902,-36405,100674,21422
6004.0,-57182,-36788,100591,21360
6006.0,-57553,-36948,100706,21479
6008.0,-57524,-36528,100925,21681
6010.0,-57202,-36217,100864,21614
6012.0,-56816,-36434,100548,21303
6014.0,-56647,-36734,100437,21192
6016.0,-56968,-36700,100693,21458
6018.0,-57539,-36578,100940,21727
6020.0,-57675,-36663,100879,21659
6022.0,-57080,-36639,100677,21411
6024.0,-56351,-36193,100602,21317
6026.03,-56388,-35845,100695,21448
6028.05,-57198,-36178,100872,21660
6030.08,-57756,-36735,101025,21813
6032.1,-57450,-36760,101036,21824
6034.1,-56884,-36423,100921,21729
6036.1,-56680,-36271,100847,21665
6038.1,-56580,-36264,100865,21674
6040.1,-56276,-36151,100861,21663
6042.1,-56043,-36015,100842,21648
6044.1,-56154,-35981,100956,21763
6046.1,-56468,-36066,101145,21944
6048.1,-56723,-36297,101174,21967
6050.1,-56786,-36454,101079,21885
6052.1,-56643,-36174,101133,21954
6054.1,-56353,-35670,101285,22093
6056.1,-56069,-35575,101211,21992
6058.1,-56014,-35878,100974,21756
6060.1,-56170,-35977,100977,21787
6062.1,-56175,-35785,101226,22057
6064.1,-55926,-35760,101316,22171
6066.1,-55847,-35922,101168,22061
6068.1,-56160,-35908,101091,21985
6070.1,-56537,-35882,101135,21968
6072.1,-56692,-36229,101053,21838
6074.1,-56601,-36527,100919,21732
6076.1,-56301,-36137,101071,21940
6078.1,-56082,-35546,101397,22297
6080.1,-56251,-35606,101440,22357
6082.1,-56460,-35902,101218,22141
6084.1,-56206,-35593,101158,22048
6086.1,-55792,-35135,101260,22115
6088.1,-55634,-35301,101207,22079
6090.1,-55459,-35564,101100,22004
6092.1,-55272,-35306,101207,22101
6094.1,-55669,-35185,101332,22200
6096.1,-56317,-35659,101204,22076
6098.1,-56164,-35923,101063,21951
6100.1,-55621,-35612,101198,22088
6102.1,-55992,-35492,101426,22320
6104.1,-56796,-35700,101500,22403
6106.1,-56537,-35517,101463,22367
6108.1,-55609,-35090,101371,22259
6110.1,-55516,-35208,101209,22069
6112.1,-56123,-35673,101104,21940
6114.1,-56317,-35770,101147,21992
6116.1,-56197,-35610,101191,22068
6118.1,-56427,-35621,101151,22041
6120.1,-56723,-35707,101150,22028
6122.1,-56592,-35731,101180,22057
6124.1,-56339,-35840,101088,21965
6126.1,-56403,-35987,100926,21775
6128.1,-56672,-35971,100889,21704
6130.1,-56815,-35843,100951,21777
6132.1,-56666,-35795,100927,21788
6134.1,-56381,-35845,100803,21675
6136.1,-56310,-35878,100740,21598
6138.1,-56408,-35815,100801,21639
6140.1,-56285,-35731,100867,21681
6142.1,-56177,-35839,100848,21663
6144.1,-56737,-36169,100830,21679
6146.1,-57563,-36416,100891,21759
6148.1,-57512,-36273,100959,21783
6150.1,-56639,-35832,100971,21733
6152.1,-56226,-35526,100979,21730
6154.1,-56792,-35660,101006,21787
6156.1,-57484,-36050,100970,21772
6158.1,-57541,-36275,100844,21655
6160.1,-57268,-36277,100734,21565
6162.1,-57229,-36277,100738,21587
6164.1,-57293,-36277,100823,21657
6166.1,-57102,-36192,100881,21684
6168.1,-56872,-36227,100857,21661
6170.1,-56877,-36444,100809,21638
6172.1,-56843,-36419,100825,21661
6174.1,-56683,-35983,100918,21735
6176.1,-56842,-35696,100977,21787
6178.1,-57266,-35932,100898,21712
6180.1,-57241,-36193,100730,21536
6182.1,-56593,-35988,100617,21414
6184.2,-55939,-35670,100604,21414
6186.2,-55830,-35797,100640,21468
6188.2,-56351,-36237,100736,21572
6190.2,-57111,-36425,100913,21754
6192.2,-57400,-36211,101031,21881
6194.2,-57014,-36023,100932,21775
6196.2,-56622,-36178,100721,21543
6198.2,-56725,-36346,100678,21488
6200.2,-56988,-36094,100845,21657
6202.2,-57016,-35695,100974,21789
6204.2,-56883,-35668,100930,21743
6206.2,-56703,-35859,100844,21650
6208.2,-56511,-35897,100794,21599
6210.2,-56541,-35987,100716,21534
6212.2,-56886,-36294,100670,21513
6214.2,-57132,-36395,100776,21625
6216.2,-56932,-36135,100893,21723
6218.2,-56573,-35965,100838,21657
6220.2,-56470,-35969,100756,21591
6222.2,-56572,-35838,100817,21669
6224.2,-56692,-35763,100858,21709
6226.2,-56887,-36038,100761,21629
6228.2,-57208,-36303,100725,21630
6230.2,-57439,-36255,100801,21712
6232.2,-57280,-36168,100770,21632
6234.2,-56816,-36138,100667,21485
6236.2,-56670,-36012,100748,21564
6238.2,-57176,-36027,100908,21737
6240.2,-57634,-36286,100857,21686
6242.2,-57368,-36310,100701,21528
6244.2,-56945,-36083,100682,21510
6246.2,-57010,-36208,100666,21493
6248.2,-57054,-36499,100523,21358
6250.2,-56707,-36152,100510,21374
6252.2,-56609,-35464,100753,21639
6254.2,-56880,-35463,100888,21767
6256.2,-56788,-36029,100702,21564
6258.2,-56469,-36202,100551,21408
6260.2,-56702,-35879,100715,21572
6262.2,-57188,-35689,100932,21784
6264.2,-57169,-35772,100915,21774
6266.2,-56877,-35789,100817,21710
6268.2,-56765,-35665,100855,21781
6270.2,-56687,-35620,100938,21861
6272.2,-56645,-35722,100941,21835
6274.2,-56784,-35744,100961,21832
6276.2,-56797,-35492,101084,21940
6278.2,-56607,-35171,101185,22020
6280.2,-56603,-35143,101134,21943
6282.2,-56654,-35333,101010,21801
6284.2,-56438,-35376,100962,21754
6286.2,-56410,-35266,100989,21796
6288.2,-56806,-35272,100981,21796
6290.2,-56961,-35429,100941,21745
6292.2,-56825,-35610,100978,21772
6294.2,-57106,-35717,101084,21886
6296.2,-57426,-35501,101137,21962
6298.2,-56805,-34862,101135,21978
6300.2,-55830,-34352,101161,22018
6302.2,-55819,-34545,101179,22059
6304.2,-56441,-35036,101126,22035
6306.2,-56461,-35064,101097,22026
6308.2,-56012,-34782,101173,22114
6310.2,-56115,-34819,101236,22192
6312.2,-56710,-35067,101159,22133
6314.2,-56904,-35037,101013,22005
6316.2,-56640,-34900,100912,21928
6318.2,-56658,-35122,100876,21926
6320.2,-57109,-35579,100898,21973
6322.2,-57342,-35866,100916,21992
6324.2,-56947,-35917,100792,21845
6326.2,-56248,-35757,100577,21592
6328.2,-55813,-35369,100550,21534
6330.2,-55867,-35093,100729,21708
6332.2,-56191,-35319,100774,21769
6334.2,-56479,-35742,100625,21625
6336.23,-56659,-35801,100608,21585
6338.25,-56725,-35652,100751,21695
6340.28,-56521,-35762,100746,21677
6342.3,-56130,-36001,100592,21542
6344.3,-56137,-36054,100554,21538
6346.3,-56820,-36105,100623,21618
6348.3,-57448,-36317,100608,21587
6350.3,-57296,-36370,100523,21481
6352.3,-56852,-36128,100486,21419
6354.3,-56852,-35993,100472,21372
6356.3,-56899,-36178,100390,21270
6358.3,-56513,-36391,100246,21144
6360.3,-56418,-36416,100169,21103
6362.3,-57089,-36317,100279,21235
6364.3,-57524,-36129,100492,21446
6366.3,-57055,-35951,100555,21491
6368.3,-56545,-36055,100347,21270
6370.3,-56624,-36416,100049,20972
6372.3,-56782,-36611,99953,20883
6374.3,-56781,-36459,100168,21118
6376.3,-56889,-36211,100471,21448
6378.3,-56876,-36075,100514,21485
6380.3,-56544,-36069,100285,21202
6382.3,-56489,-36192,100158,21031
6384.3,-57060,-36367,100308,21190
6386.3,-57668,-36480,100430,21332
6388.3,-57776,-36543,100299,21200
6390.3,-57472,-36529,100172,21083
6392.3,-57027,-36324,100282,21220
6394.3,-56772,-36111,100405,21334
6396.3,-56959,-36237,100300,21197
6398.3,-57278,-36543,100145,21053
6400.3,-57285,-36582,100172,21116
6402.3,-57187,-36417,100257,21195
6404.3,-57261,-36387,100219,21120
6406.3,-57210,-36414,100161,21055
6408.3,-56952,-36320,100208,21118
6410.3,-56950,-36288,100268,21177
6412.3,-57140,-36405,100237,21147
6414.3,-56998,-36441,100173,21103
6416.3,-56773,-36397,100154,21083
6418.3,-57058,-36503,100174,21067
6420.3,-57524,-36702,100171,21041
6422.3,-57529,-36815,100072,20934
6424.3,-57230,-36884,99901,20718
6426.3,-57061,-36926,99811,20553
6428.3,-57087,-36890,99870,20563
6430.3,-57310,-36953,99958,20630
6432.3,-57667,-37214,99973,20631
6434.3,-57854,-37336,99949,20633
6436.3,-57780,-37088,99949,20725
6438.3,-57544,-36694,99996,20889
6440.3,-56893,-36268,100084,21095
6442.3,-55773,-35657,100176,21347
6444.3,-54926,-35032,100259,21648
6446.3,-54721,-34716,100328,21962
6448.3,-54285,-34468,100316,22206
6450.3,-52898,-33821,100168,22333
6452.3,-51210,-32903,99965,22405
6454.3,-50317,-32138,99830,22538
6456.3,-50438,-31557,99829,22821
6458.3,-50899,-31045,99964,23218
6460.3,-50994,-30772,100111,23514
6462.3,-50731,-30840,100123,23532
6464.3,-50642,-31008,100058,23404
6466.3,-51094,-31228,99990,23250
6468.3,-52164,-31870,99726,22837
6470.3,-53651,-32927,99163,22042
6472.3,-54859,-33778,98591,21190
6474.3,-55267,-34281,98212,20501
6476.3,-55380,-34983,97940,19897
6478.3,-55850,-35827,97884,19547
6480.3,-56504,-36157,98200,19666
6482.3,-57106,-36159,98575,19911
6484.3,-57697,-36456,98771,19992
6486.3,-57883,-36653,99162,20289
6488.3,-57480,-36198,99882,20952
6490.3,-57289,-35760,100316,21342
6492.3,-57627,-36000,100166,21149
6494.3,-57610,-36386,99960,20924
6496.33,-57107,-36467,100057,21020
6498.35,-57096,-36606,100175,21128
6500.38,-57459,-36802,100117,21060
6502.4,-57150,-36575,100090,21039
6504.4,-56536,-36159,100188,21146
6506.4,-56694,-36202,100210,21155
6508.4,-57132,-36556,100047,20959
6510.4,-56902,-36640,99901,20788
6512.4,-56612,-36471,99999,20894
6514.4,-56948,-36374,100248,21162
6516.4,-57178,-36332,100358,21255
6518.4,-56894,-36263,100295,21147
6520.4,-56888,-36273,100278,21108
6522.4,-57271,-36353,100301,21154
6524.4,-57250,-36391,100156,21035
6526.4,-56977,-36444,99947,20815
6528.4,-57180,-36571,99980,20822
6530.4,-57516,-36665,100160,20995
6532.4,-57305,-36693,100132,20986
6534.4,-56837,-36673,99965,20839
6536.4,-56599,-36480,100010,20886
6538.4,-56519,-36151,100224,21094
6540.4,-56578,-36050,100299,21166
6542.4,-56910,-36320,100212,21085
6544.4,-57259,-36646,100139,21019
6546.4,-57273,-36732,100115,21001
6548.4,-57040,-36567,100148,21035
6550.4,-56914,-36291,100297,21179
6552.4,-57098,-36091,100470,21345
6554.4,-57398,-36035,100489,21361
6556.4,-57393,-36025,100371,21239
6558.4,-57062,-36087,100241,21098
6560.4,-56833,-36293,100132,20977
6562.4,-56834,-36420,100071,20916
6564.4,-56806,-36292,100117,20971
6566.4,-56727,-36149,100213,21077
6568.4,-56766,-36162,100233,21110
6570.4,-56957,-36205,100181,21080
6572.4,-57331,-36325,100166,21083
6574.4,-57685,-36577,100233,21140
6576.4,-57442,-36658,100289,21158
6578.4,-56707,-36496,100235,21076
6580.4,-56528,-36428,100168,21009
6582.4,-57142,-36417,100268,21122
6584.4,-57488,-36194,100437,21300
6586.4,-57223,-36056,100413,21282
6588.4,-57164,-36285,100250,21117
6590.4,-57376,-36480,100178,21031
6592.4,-57170,-36414,100161,21009
6594.4,-56800,-36434,100111,20985
6596.4,-56923,-36527,100162,21068
6598.4,-57137,-36355,100288,21205
6600.4,-56968,-36136,100277,21193
6602.4,-56866,-36202,100220,21143
6604.4,-56898,-36227,100322,21248
6606.4,-56527,-35984,100404,21324
6608.4,-56213,-35906,100291,21220
6610.4,-56675,-36126,100208,21166
6612.4,-57072,-36133,100268,21237
6614.4,-56612,-35904,100268,21207
6616.4,-56408,-36054,100193,21087
6618.4,-57134,-36551,100202,21067
6620.4,-57411,-36663,100231,21087
6622.4,-56686,-36277,100227,21088
6624.4,-56436,-35983,100337,21225
6626.4,-57062,-35950,100494,21425
6628.4,-57127,-35910,100453,21412
6630.4,-56364,-35912,100319,21264
6632.4,-56040,-36089,100374,21275
6634.4,-56383,-36176,100509,21387
6636.4,-56524,-35975,100490,21395
6638.4,-56418,-35755,100436,21378
6640.4,-56557,-35808,100495,21434
6642.4,-56686,-36064,100492,21404
6644.4,-56429,-36266,100336,21239
6646.43,-56172,-36228,100279,21195
6648.45,-56321,-35980,100480,21414
6650.48,-56655,-35729,100758,21710
6652.5,-56874,-35629,100920,21889
6654.5,-56886,-35697,100913,21893
6656.5,-56566,-35850,100743,21732
6658.5,-56029,-35885,100575,21570
6660.5,-55790,-35640,100646,21633
6662.5,-56047,-35358,100848,21827
6664.5,-56378,-35449,100850,21841
6666.5,-56432,-35803,100683,21701
6668.5,-56242,-35863,100657,21698
6670.5,-55918,-35512,100770,21821
6672.5,-55652,-35286,100774,21818
6674.5,-55724,-35480,100684,21700
6676.5,-56056,-35660,100699,21695
6678.5,-56228,-35499,100808,21819
6680.5,-56110,-35398,100822,21866
6682.5,-55957,-35654,100690,21752
6684.5,-55878,-35822,100545,21610
6686.5,-55744,-35551,100528,21586
6688.5,-55569,-35217,100658,21706
6690.5,-55587,-35191,100833,21887
6692.5,-55854,-35290,100940,22021
6694.5,-55982,-35184,100992,22084
6696.5,-55609,-34837,101057,22123
6698.5,-55179,-34631,101055,22100
6700.5,-55501,-34982,100899,21960
6702.5,-56327,-35518,100788,21871
6704.5,-56452,-35386,100920,22005
6706.5,-55609,-34753,101059,22145
6708.5,-54951,-34647,100927,22018
6710.5,-55243,-35131,100747,21833
6712.5,-55918,-35356,100833,21907
6714.5,-56237,-35202,101041,22116
6716.5,-56155,-35124,101107,22188
6718.5,-55909,-35061,101042,22115
6720.5,-55653,-34892,100922,21974
6722.5,-55527,-34926,100767,21806
6724.5,-55623,-35137,100670,21715
6726.5,-55943,-35181,100651,21713
6728.5,-56312,-35246,100582,21652
6730.5,-56377,-35562,100490,21563
6732.5,-56174,-35703,100544,21630
6734.5,-56300,-35520,100658,21754
6736.5,-56759,-35534,100613,21686
6738.5,-56680,-35737,100501,21535
6740.5,-56055,-35594,100549,21569
6742.5,-56059,-35358,100664,21703
6744.5,-56839,-35586,100649,21703
6746.5,-57120,-35841,100576,21635
6748.5,-56535,-35559,100580,21653
6750.5,-56128,-35244,100595,21679
6752.5,-56414,-35446,100561,21626
6754.5,-56859,-35760,100548,21592
6756.5,-57022,-35737,100549,21607
6758.5,-56863,-35552,100502,21584
6760.5,-56470,-35434,100463,21542
6762.5,-56193,-35464,100461,21527
6764.5,-56371,-35724,100396,21472
6766.5,-56736,-35951,100300,21391
6768.5,-56721,-35719,100320,21403
6770.5,-56314,-35315,100376,21442
6772.5,-56012,-35397,100302,21366
6774.5,-56110,-35801,100230,21306
6776.5,-56465,-35879,100353,21434
6778.5,-56763,-35665,100517,21595
6780.5,-56763,-35552,100519,21601
6782.5,-56497,-35463,100471,21571
6784.5,-56286,-35295,100510,21626
6786.5,-56353,-35365,100524,21636
6788.5,-56562,-35757,100412,21497
6790.5,-56672,-36039,100275,21325
6792.5,-56554,-35921,100233,21268
6794.5,-56268,-35584,100314,21369
6796.5,-56207,-35365,100463,21547
6798.5,-56642,-35430,100510,21598
6800.5,-57027,-35647,100326,21392
6802.5,-56738,-35754,100108,21155
6804.5,-56336,-35765,100195,21235
6806.53,-56690,-35900,100517,21569
6808.55,-57348,-36071,100656,21737
6810.58,-57299,-35987,100508,21610
6812.6,-56695,-35736,100354,21447
6814.6,-56396,-35705,100307,21374
6816.6,-56570,-35958,100243,21300
6818.6,-56825,-36159,100212,21284
6820.6,-56956,-36108,100316,21415
6822.6,-56907,-35974,100386,21501
6824.6,-56683,-35954,100297,21400
6826.6,-56578,-35959,100260,21341
6828.6,-56851,-35829,100410,21487
6830.6,-57162,-35622,100526,21610
6832.6,-56990,-35449,100495,21569
6834.6,-56551,-35282,100507,21565
6836.6,-56514,-35186,100611,21671
6838.6,-56839,-35371,100566,21635
6840.6,-56820,-35746,100311,21377
6842.6,-56368,-35866,100143,21208
6844.6,-56172,-35577,100269,21346
6846.6,-56499,-35296,100489,21577
6848.6,-56902,-35430,100497,21593
6850.6,-57063,-35843,100294,21410
6852.6,-56937,-36016,100142,21274
6854.6,-56461,-35714,100205,21316
6856.6,-55990,-35390,100362,21435
6858.6,-56187,-35585,100402,21472
6860.6,-56844,-35976,100339,21441
6862.6,-56986,-35818,100360,21482
6864.6,-56495,-35259,100444,21562
6866.6,-56222,-35136,100378,21486
6868.6,-56461,-35560,100197,21305
6870.6,-56745,-35917,100181,21305
6872.6,-56855,-35983,100336,21473
6874.6,-56824,-35925,100373,21484
6876.6,-56501,-35706,100219,21282
6878.6,-56052,-35345,100142,21182
6880.6,-56062,-35161,100310,21358
6882.6,-56530,-35254,100549,21593
6884.6,-56750,-35341,100608,21633
6886.6,-56471,-35246,100539,21568
6888.6,-56234,-35057,100619,21668
6890.6,-56430,-34969,100842,21883
6892.6,-56835,-35170,100838,21859
6894.6,-57010,-35559,100517,21541
6896.6,-56742,-35670,100307,21349
6898.6,-56265,-35305,100492,21535
6900.6,-56099,-34895,100784,21819
6902.6,-56424,-34873,100833,21871
6904.6,-56822,-35105,100716,21763
6906.6,-56849,-35183,100710,21760
6908.6,-56597,-34969,100853,21904
6910.6,-56490,-34697,100957,22016
6912.6,-56694,-34658,100924,21994
6914.6,-56889,-34826,100847,21923
6916.6,-56745,-34915,100796,21873
6918.6,-56461,-34831,100721,21800
6920.6,-56395,-34791,100617,21716
6922.6,-56455,-34913,100568,21710
6924.6,-56387,-34995,100595,21769
6926.6,-56218,-34852,100614,21791
6928.6,-56002,-34622,100582,21750
6930.6,-55800,-34507,100554,21723
6932.6,-55922,-34470,100597,21774
6934.6,-56346,-34433,100657,21843
6936.6,-56393,-34488,100602,21805
6938.6,-55858,-34617,100485,21712
6940.6,-55565,-34625,100515,21767
6942.6,-55988,-34593,100641,21915
6944.6,-56516,-34849,100571,21850
6946.6,-56596,-35325,100294,21539
6948.6,-56384,-35603,100092,21276
6950.6,-56120,-35577,100069,21214
6952.6,-55903,-35438,100131,21283
6954.6,-55928,-35265,100244,21415
6956.63,-56217,-35164,100334,21507
6958.65,-56526,-35376,100275,21441
6960.68,-56732,-35789,100137,21300
6962.7,-56797,-35929,100063,21219
6964.7,-56570,-35724,99983,21123
6966.7,-56234,-35600,99842,20973
6968.7,-56347,-35719,99822,20955
6970.7,-56886,-35861,99966,21097
6972.7,-57141,-35987,100017,21127
6974.7,-56951,-36154,99905,20990
6976.7,-56917,-36143,99888,20969
6978.7,-57074,-35831,100034,21129
6980.7,-56739,-35527,100102,21209
6982.7,-55982,-35484,100032,21137
6984.7,-55805,-35627,99982,21093
6986.7,-56494,-35900,99948,21080
6988.7,-57173,-36265,99833,20978
6990.7,-57177,-36430,99743,20871
6992.7,-56714,-36160,99797,20900
6994.7,-56285,-35757,99879,20983
6996.7,-56358,-35745,99869,20994
6998.7,-57044,-36114,99853,20983
7000.7,-57610,-36297,99907,21023
7002.7,-57326,-36051,99946,21056
7004.7,-56730,-35863,99901,21019
7006.7,-56719,-36068,99851,20968
7008.7,-56977,-36207,99895,20989
7010.7,-56798,-35893,100019,21089
7012.7,-56530,-35578,100111,21178
7014.7,-56750,-35786,100053,21137
7016.7,-57065,-36257,99841,20950
7018.7,-56874,-36422,99650,20779
7020.7,-56429,-36174,99670,20810
7022.7,-56382,-35857,99839,20992
7024.7,-56830,-35809,99915,21085
7026.7,-57232,-35995,99841,21016
7028.7,-57067,-36022,99815,20982
7030.7,-56503,-35726,99925,21086
7032.7,-56313,-35565,100013,21156
7034.7,-56855,-35977,99953,21049
7036.7,-57417,-36599,99798,20840
7038.7,-57209,-36793,99617,20616
7040.7,-56722,-36667,99458,20411
7042.7,-57017,-36775,99443,20345
7044.7,-57905,-37091,99591,20471
7046.7,-58258,-37131,99710,20600
7048.7,-57898,-36833,99712,20624
7050.7,-57488,-36481,99739,20696
7052.7,-57072,-36121,99794,20849
7054.7,-56443,-35714,99717,20921
7056.7,-56036,-35396,99608,21000
7058.7,-55954,-35212,99652,21262
7060.7,-55427,-35059,99643,21467
7062.7,-54180,-34817,99390,21393
7064.7,-52800,-34184,99251,21444
7066.7,-51643,-32992,99500,21960
7068.7,-50836,-31802,99751,22529
7070.7,-50612,-31222,99672,22736
7072.7,-50544,-30919,99507,22808
7074.7,-49863,-30391,99475,22970
7076.7,-49027,-30009,99439,23048
7078.7,-49165,-30261,99331,22947
7080.7,-50130,-30843,99207,22748
7082.7,-51037,-31301,99011,22403
7084.7,-52006,-31783,98718,21863
7086.7,-53495,-32669,98364,21197
7088.7,-54909,-33880,97903,20433
7090.7,-55620,-34912,97455,19715
7092.7,-56088,-35447,97374,19389
7094.7,-56630,-35653,97689,19498
7096.7,-56707,-35802,98028,19685
