t,lead_I,lead_II,v3,v4
0.2,-3881,-34842,204468,44993
2.2,-3861,-35370,204419,45252
4.2,-4623,-37727,204218,46100
6.2,-5024,-39227,203244,45997
8.2,-4227,-38042,202073,44892
10.2,-3077,-35978,201659,44249
12.2,-2704,-34701,201746,43938
14.2,-3178,-33843,201974,43300
16.2,-3895,-33181,202799,43255
18.2,-4409,-33378,203971,44239
20.2,-4666,-34582,204487,45088
22.2,-4780,-36275,204318,45412
24.2,-4818,-37899,203993,45808
26.2,-4761,-38699,203384,45938
28.2,-4500,-38121,202515,45288
30.2,-3918,-36693,201978,44455
32.2,-3218,-35335,201869,43857
34.2,-2897,-34261,201967,43262
36.2,-3120,-33550,202544,43100
38.2,-3539,-33605,203617,43918
40.2,-3875,-34442,204435,45044
42.2,-4113,-35710,204510,45627
44.2,-4214,-37103,204061,45783
46.2,-4205,-38012,203371,45692
48.2,-4202,-37847,202607,45124
50.2,-4060,-36897,202000,44218
52.2,-3626,-35740,201757,43444
54.2,-3318,-34618,202043,43063
56.2,-3563,-34055,202853,43229
58.2,-4028,-34504,203793,43959
60.2,-4277,-35456,204415,44880
62.2,-4437,-36340,204621,45641
64.2,-4414,-37119,204425,46182
66.2,-3692,-37248,203848,46375
68.2,-2515,-36154,203193,46119
70.2,-1731,-34553,202826,45716
72.2,-1263,-33221,202808,45505
74.2,-426,-31909,203091,45510
76.2,575,-30800,203643,45777
78.2,1149,-30612,204259,46451
80.2,1557,-30917,204699,47371
82.23,2240,-30953,204828,48152
84.25,2921,-31076,204492,48555
86.28,3337,-31449,203719,48513
88.3,3725,-31337,202908,48044
90.3,4092,-30694,202374,47298
92.3,4005,-30147,202081,46495
94.3,3218,-29778,201998,45773
96.3,1769,-29797,202103,45169
98.3,-258,-30915,202187,44726
100.3,-2402,-32889,202157,44549
102.3,-3650,-34620,202059,44575
104.3,-3497,-35785,201683,44414
106.3,-2928,-36667,200915,43826
108.3,-3316,-37159,200245,43147
110.3,-4417,-37079,200127,42756
112.3,-4803,-36468,200427,42582
114.3,-4228,-35407,201007,42590
116.3,-3789,-34373,201932,43023
118.3,-3806,-34111,202912,43800
120.3,-3675,-34677,203516,44500
122.3,-3623,-35619,203738,44994
124.3,-4269,-36763,203632,45277
126.3,-4906,-37764,203074,45091
128.3,-4530,-37839,202348,44491
130.3,-3715,-36836,202045,44025
132.3,-3393,-35485,202212,43876
134.3,-3256,-34366,202497,43775
136.3,-3057,-33756,202893,43817
138.3,-3453,-34035,203464,44259
140.3,-4360,-35137,203863,44796
142.3,-4759,-36250,203823,45043
144.3,-4510,-36763,203567,45141
146.3,-4192,-36793,203307,45207
148.3,-3843,-36634,202954,45002
150.3,-3577,-36327,202543,44507
152.3,-3938,-35784,202393,44091
154.3,-4645,-35102,202671,43972
156.3,-4839,-34696,203166,44102
158.3,-4542,-34848,203593,44424
160.3,-4252,-35301,203865,44858
162.3,-4080,-35825,203966,45226
164.3,-4208,-36540,203816,45388
166.3,-4694,-37145,203440,45322
168.3,-4861,-37043,203027,45041
170.3,-4416,-36463,202709,44582
172.3,-4096,-36008,202553,44113
174.3,-4145,-35483,202700,43915
176.3,-3955,-34716,203150,44092
178.3,-3643,-34458,203599,44430
180.3,-3847,-35146,203760,44674
182.3,-4211,-36141,203617,44774
184.3,-4095,-36880,203291,44799
186.3,-3967,-37238,203017,44840
188.3,-4414,-36914,203045,44974
190.3,-4873,-35935,203245,45061
192.3,-4633,-35051,203239,44838
194.3,-3982,-34666,203060,44384
196.3,-3574,-34468,203072,44108
198.3,-3546,-34430,203334,44210
200.3,-3687,-34846,203619,44578
202.3,-3853,-35504,203807,45034
204.3,-3967,-35907,203809,45358
206.3,-3965,-35974,203549,45356
208.3,-3892,-35937,203179,45089
210.3,-3905,-35869,202935,44775
212.3,-3987,-35524,202897,44548
214.3,-3856,-34724,203076,44462
216.3,-3498,-34000,203414,44528
218.3,-3406,-34178,203717,44679
220.3,-3807,-35094,203899,44913
222.33,-4177,-35822,204043,45263
224.35,-4066,-36126,204053,45527
226.38,-3719,-36301,203741,45443
228.4,-3454,-36047,203325,45159
230.4,-3251,-35101,203244,45055
232.4,-3225,-34254,203509,45160
234.4,-3598,-34250,203800,45222
236.4,-4053,-34557,204038,45242
238.4,-3980,-34440,204349,45436
240.4,-3417,-34289,204622,45766
242.4,-2976,-34770,204615,45974
244.4,-2936,-35535,204422,46050
246.4,-3084,-35838,204303,46134
248.4,-3181,-35680,204172,46087
250.4,-3070,-35353,203867,45745
252.4,-2719,-34731,203708,45439
254.4,-2435,-33935,204055,45569
256.4,-2536,-33656,204604,45917
258.4,-2780,-34027,204870,46078
260.4,-2747,-34368,204914,46149
262.4,-2546,-34450,204961,46352
264.4,-2525,-34708,204882,46508
266.4,-2696,-35137,204598,46421
268.4,-2820,-35177,204380,46270
270.4,-2677,-34591,204410,46241
272.4,-2252,-33744,204544,46219
274.4,-1889,-33199,204627,46086
276.4,-1857,-33147,204706,46000
278.4,-1931,-33251,204897,46173
280.4,-2043,-33374,205164,46540
282.4,-2567,-33919,205290,46806
284.4,-3217,-34807,205121,46797
286.4,-3003,-35184,204772,46595
288.4,-1972,-34791,204461,46337
290.4,-1371,-34255,204314,46114
292.4,-1683,-33831,204367,46006
294.4,-2113,-33333,204562,46017
296.4,-2111,-33007,204785,46099
298.4,-2092,-33196,205009,46288
300.4,-2539,-33713,205221,46584
302.4,-3094,-34220,205271,46792
304.4,-3042,-34543,205080,46780
306.4,-2602,-34618,204822,46672
308.4,-2670,-34567,204646,46570
310.4,-3035,-34445,204509,46402
312.4,-2698,-34039,204410,46162
314.4,-2037,-33448,204472,45995
316.4,-2193,-33168,204697,45990
318.4,-2798,-33319,204871,46054
320.4,-2955,-33711,204782,46026
322.4,-3090,-34378,204487,45903
324.4,-3554,-35053,204266,45889
326.4,-3539,-35021,204259,46074
328.4,-2912,-34290,204331,46251
330.4,-2680,-33732,204340,46219
332.4,-3035,-33737,204269,46001
334.4,-3158,-33871,204121,45703
336.4,-2808,-33822,203951,45442
338.4,-2576,-33837,203877,45341
340.4,-2820,-34170,203918,45420
342.4,-3034,-34478,204057,45649
344.4,-2540,-34210,204281,45986
346.4,-1838,-33765,204340,46151
348.4,-2141,-34130,203959,45841
350.4,-3163,-35006,203456,45346
352.4,-3392,-35052,203404,45225
354.4,-2811,-34265,203718,45421
356.4,-2757,-33925,203910,45507
358.4,-3260,-34270,203958,45514
360.5,-3305,-34493,204100,45701
362.5,-3143,-34512,204228,45959
364.5,-3703,-34796,204168,46068
366.5,-4539,-35183,204024,46050
368.5,-4458,-35241,203873,45922
370.5,-3456,-34975,203656,45638
372.5,-2607,-34537,203499,45365
374.5,-2584,-34073,203605,45348
376.5,-3043,-33879,203854,45509
378.5,-3147,-34028,203962,45587
380.5,-2625,-34182,203941,45595
382.5,-2341,-34300,204004,45747
384.5,-3052,-34756,204124,46000
386.5,-3855,-35328,204110,46097
388.5,-3555,-35244,203989,46005
390.5,-2993,-34649,203907,45867
392.5,-3510,-34468,203870,45715
394.5,-4186,-34574,203938,45641
396.5,-3678,-34128,204249,45839
398.5,-2982,-33624,204566,46126
400.5,-3341,-34116,204491,46095
402.5,-3888,-34992,204215,45900
404.5,-3738,-35020,204225,46002
406.5,-3458,-34474,204417,46275
408.5,-3193,-34069,204413,46306
410.5,-2461,-33575,204295,46161
412.5,-1837,-33012,204260,46048
414.5,-2214,-33086,204215,45907
416.5,-3224,-33683,204189,45812
418.5,-4022,-33980,204368,45973
420.5,-4282,-33977,204590,46221
422.5,-3958,-34168,204570,46258
424.5,-3381,-34381,204409,46173
426.5,-3145,-34250,204297,46139
428.5,-3203,-33918,204197,46106
430.5,-3107,-33563,204175,46115
432.5,-2977,-33136,204380,46283
434.5,-3031,-32852,204550,46359
436.5,-2936,-33012,204313,46049
438.5,-2607,-33330,203950,45684
440.5,-2440,-33324,203999,45776
442.5,-2463,-33199,204294,46136
444.5,-2508,-33443,204323,46269
446.5,-2798,-33861,204164,46220
448.5,-3236,-33964,204124,46220
450.5,-3173,-33869,204022,46071
452.5,-2677,-33905,203725,45697
454.5,-2552,-33924,203621,45520
456.5,-2808,-33780,203817,45661
458.5,-2775,-33747,203887,45711
460.5,-2576,-33957,203786,45636
462.5,-2742,-34186,203884,45784
464.5,-2962,-34375,204054,46007
466.5,-2827,-34662,203919,45921
468.5,-2789,-34952,203665,45690
470.5,-3011,-34968,203585,45583
472.5,-2840,-34664,203494,45423
474.5,-2430,-34385,203338,45173
476.5,-2801,-34493,203430,45161
478.5,-3700,-34837,203714,45371
480.5,-3918,-34996,203757,45431
482.5,-3595,-34974,203580,45368
484.5,-3573,-34967,203555,45482
486.5,-3503,-34829,203669,45684
488.5,-3091,-34607,203657,45689
490.5,-3216,-34735,203540,45527
492.53,-3902,-35050,203467,45369
494.55,-3874,-34955,203389,45197
496.58,-3218,-34748,203265,44996
498.6,-3349,-35115,203229,44925
500.6,-4183,-35682,203320,45041
502.6,-4397,-35781,203363,45159
504.6,-3929,-35661,203274,45160
506.6,-3628,-35635,203182,45139
508.6,-3548,-35447,203165,45157
510.6,-3450,-35184,203174,45152
512.6,-3593,-35218,203230,45164
514.6,-3952,-35322,203355,45243
516.6,-4008,-35218,203365,45217
518.6,-3698,-35200,203190,45007
520.6,-3430,-35278,203142,44942
522.6,-3342,-35130,203349,45178
524.6,-3355,-35099,203397,45287
526.6,-3459,-35572,203087,45026
528.6,-3558,-35937,202840,44798
530.6,-3603,-35775,202889,44830
532.6,-3801,-35764,202913,44806
534.6,-4112,-36139,202820,44659
536.6,-4021,-36090,202936,44758
538.6,-3442,-35490,203279,45135
540.6,-3095,-35190,203494,45403
542.6,-3337,-35359,203460,45396
544.6,-3527,-35412,203306,45250
546.6,-3305,-35345,203134,45098
548.6,-3347,-35528,203084,45079
550.6,-3893,-35737,203217,45209
552.6,-3971,-35633,203249,45191
554.6,-3253,-35411,203016,44892
556.6,-2926,-35249,202966,44780
558.6,-3447,-34978,203413,45180
560.6,-3558,-34673,203820,45587
562.6,-2797,-34697,203662,45495
564.6,-2524,-35068,203321,45251
566.6,-3208,-35429,203267,45271
568.6,-3514,-35587,203239,45282
570.6,-3127,-35667,203027,45063
572.6,-3341,-35782,203011,44983
574.6,-4078,-35770,203326,45196
576.6,-3918,-35503,203532,45306
578.6,-3430,-35476,203425,45132
580.6,-4320,-36224,203245,44908
582.6,-5509,-37046,203133,44789
584.6,-4710,-36771,203129,44837
586.6,-2951,-35811,203342,45147
588.6,-2763,-35478,203625,45556
590.6,-3558,-35600,203685,45766
592.6,-3250,-35030,203631,45867
594.6,-2138,-33888,203772,46164
596.6,-1571,-33209,204014,46605
598.6,-1301,-33132,204121,46993
600.6,-585,-33014,204206,47416
602.6,382,-32580,204387,47952
604.6,1256,-32049,204410,48322
606.6,1980,-31646,204108,48306
608.6,2418,-31302,203754,48151
610.6,2623,-30757,203640,48213
612.6,2848,-30036,203709,48479
614.6,3034,-29522,203797,48700
616.6,3068,-29393,203858,48728
618.6,3016,-29575,203824,48521
620.6,2538,-30197,203516,47989
622.63,1275,-31268,202835,47074
624.65,-120,-32282,201937,45928
626.68,-966,-32978,201170,44910
628.7,-1842,-33767,200794,44300
630.7,-3119,-34714,200735,44007
632.7,-3820,-35255,200740,43744
634.7,-3647,-35380,200785,43504
636.7,-3813,-35652,201053,43543
638.7,-4561,-35988,201505,43851
640.7,-4687,-35922,201868,44117
642.7,-4084,-35731,202088,44264
644.7,-3886,-35920,202311,44448
646.7,-4158,-36181,202478,44589
648.7,-4023,-35956,202487,44551
650.7,-3500,-35392,202554,44571
652.7,-3279,-35075,202831,44836
654.7,-3475,-35259,203055,45049
656.7,-3717,-35598,203037,44982
658.7,-3774,-35612,202987,44878
660.7,-3693,-35426,203046,44926
662.7,-3740,-35594,203095,45000
664.7,-3998,-36065,203126,45060
666.7,-4113,-36190,203231,45190
668.7,-3924,-35920,203300,45284
670.7,-3876,-35865,203205,45200
672.7,-4184,-36116,203083,45053
674.7,-4375,-36214,203088,45001
676.7,-4151,-36152,203105,44975
678.7,-3817,-36208,203006,44880
680.7,-3633,-36216,202917,44820
682.7,-3633,-36041,202975,44902
684.7,-3889,-35977,203085,45053
686.7,-4189,-35989,203148,45192
688.7,-4088,-35667,203214,45325
690.7,-3678,-35194,203266,45391
692.7,-3446,-35057,203235,45336
694.7,-3495,-35144,203219,45281
696.7,-3735,-35259,203299,45307
698.7,-4076,-35548,203330,45295
700.7,-4058,-35750,203256,45217
702.7,-3589,-35513,203228,45210
704.7,-3549,-35333,203282,45282
706.7,-4095,-35575,203306,45319
708.7,-4016,-35617,203292,45296
710.7,-3281,-35311,203254,45204
712.7,-3402,-35363,203182,45065
714.7,-4178,-35573,203207,45078
716.7,-3843,-35200,203395,45303
718.7,-2823,-34897,203470,45405
720.7,-3011,-35580,203265,45208
722.7,-3912,-36312,203100,45073
724.7,-3805,-35917,203228,45254
726.7,-3196,-35175,203370,45425
728.7,-3331,-35241,203253,45286
730.7,-3661,-35642,203088,45078
732.7,-3540,-35569,203134,45087
734.7,-3634,-35354,203258,45177
736.7,-4042,-35450,203280,45163
738.7,-3941,-35549,203312,45181
740.7,-3557,-35511,203444,45323
742.7,-3774,-35697,203514,45403
744.7,-4172,-35931,203470,45349
746.7,-3773,-35596,203499,45372
748.7,-2953,-34903,203650,45547
750.7,-2714,-34672,203767,45701
752.7,-2962,-34947,203808,45761
754.7,-2986,-35139,203828,45782
756.7,-2839,-35131,203801,45755
758.7,-3000,-35140,203761,45724
760.8,-3333,-35125,203816,45809
762.8,-3362,-35093,203900,45938
764.8,-3101,-35228,203886,45953
766.8,-2909,-35402,203874,45941
768.8,-2921,-35358,203986,46037
770.8,-3000,-35225,204107,46125
772.8,-2929,-35130,204132,46104
774.8,-2660,-34838,204169,46123
776.8,-2424,-34331,204302,46293
778.8,-2355,-34060,204452,46494
780.8,-2210,-34206,204537,46606
782.8,-1941,-34383,204558,46650
784.8,-2025,-34337,204559,46680
786.8,-2626,-34338,204570,46689
788.8,-3053,-34581,204541,46626
790.8,-2671,-34698,204452,46502
792.8,-1865,-34371,204441,46480
794.8,-1554,-34002,204609,46657
796.8,-1957,-34020,204814,46876
798.8,-2324,-33987,204945,47013
800.8,-2051,-33436,205079,47164
802.8,-1633,-33023,205131,47271
804.8,-1967,-33599,204883,47087
806.8,-2933,-34718,204490,46713
808.8,-3449,-35266,204327,46545
810.8,-3019,-34970,204392,46618
812.8,-2372,-34347,204490,46697
814.8,-2192,-33812,204670,46804
816.8,-2193,-33538,204920,46979
818.8,-2082,-33611,204962,47004
820.8,-2184,-33824,204801,46884
822.8,-2380,-33815,204781,46940
824.8,-2050,-33668,204909,47148
826.8,-1567,-33817,204894,47162
828.8,-1843,-34200,204781,47026
830.8,-2419,-34282,204778,46996
832.8,-2320,-34031,204769,46971
834.8,-2054,-33963,204640,46818
836.8,-2450,-34180,204542,46724
838.8,-2958,-34355,204505,46739
840.8,-2928,-34414,204433,46697
842.8,-2667,-34358,204461,46683
844.8,-2374,-34055,204631,46810
846.8,-2041,-33805,204596,46806
848.8,-2194,-34090,204277,46546
850.8,-2902,-34560,204095,46386
852.8,-3203,-34527,204157,46452
854.8,-2760,-34213,204114,46429
856.8,-2521,-34260,203960,46281
858.8,-3071,-34611,203987,46275
860.8,-3821,-34853,204120,46373
862.8,-3966,-34836,204122,46396
864.8,-3411,-34538,204089,46431
866.8,-2743,-34050,204153,46548
868.8,-2376,-33637,204201,46611
870.8,-2047,-33455,204173,46588
872.8,-1791,-33624,204104,46531
874.8,-2321,-34303,203936,46377
876.8,-3391,-35041,203733,46188
878.8,-3575,-34987,203731,46209
880.8,-2768,-34339,203906,46394
882.8,-2439,-34184,203957,46421
884.8,-2746,-34579,203849,46270
886.8,-2451,-34553,203821,46212
888.8,-1844,-34040,203901,46287
890.8,-2322,-33953,203923,46310
892.83,-3369,-34422,203893,46282
894.85,-3394,-34679,203932,46331
896.88,-2794,-34551,203986,46397
898.9,-2919,-34561,203913,46315
900.9,-3309,-34716,203789,46157
902.9,-2989,-34561,203830,46160
904.9,-2672,-34301,203997,46307
906.9,-3075,-34507,203992,46315
908.9,-3338,-34884,203785,46151
910.9,-2986,-34705,203737,46164
912.9,-2892,-34206,203975,46433
914.9,-3315,-34163,204132,46562
916.9,-3507,-34475,204027,46406
918.9,-3312,-34517,203947,46322
920.9,-3080,-34371,204011,46422
922.9,-2740,-34395,204041,46471
924.9,-2296,-34205,204179,46601
926.9,-2130,-33471,204647,47073
928.9,-2338,-32991,205001,47452
930.9,-2770,-33525,204724,47191
932.9,-3278,-34312,204229,46676
934.9,-3432,-34244,204184,46576
936.9,-2985,-33682,204410,46749
938.9,-2482,-33579,204416,46744
940.9,-2395,-33778,204283,46635
942.9,-2525,-33752,204253,46628
944.9,-2901,-33830,204216,46622
946.9,-3675,-34197,204152,46621
948.9,-4070,-34109,204301,46816
950.9,-3417,-33401,204598,47074
952.9,-2669,-33104,204648,47025
954.9,-2853,-33539,204406,46719
956.9,-3210,-33640,204277,46584
958.9,-2758,-32956,204453,46763
960.9,-2176,-32443,204650,46970
962.9,-2410,-32677,204579,46964
964.9,-2925,-32987,204352,46841
966.9,-2849,-32859,204249,46807
968.9,-2515,-32751,204291,46860
970.9,-2650,-33059,204273,46835
972.9,-3076,-33458,204126,46697
974.9,-3163,-33658,203975,46576
976.9,-2896,-33854,203878,46518
978.9,-2850,-34122,203799,46447
980.9,-3315,-34202,203767,46382
982.9,-3752,-34046,203810,46406
984.9,-3437,-33896,203842,46470
986.9,-2638,-33837,203828,46476
988.9,-2275,-33833,203828,46429
990.9,-2358,-33949,203790,46328
992.9,-2253,-34213,203625,46145
994.9,-2216,-34507,203498,46010
996.9,-2711,-34644,203626,46114
998.9,-3012,-34499,203855,46357
1000.9,-2650,-34325,203856,46412
1002.9,-2678,-34577,203649,46214
1004.9,-3493,-35038,203537,46045
1006.9,-3763,-35024,203575,46034
1008.9,-3103,-34761,203497,45950
1010.9,-2950,-35061,203248,45709
1012.9,-3747,-35597,203180,45644
1014.9,-4161,-35439,203403,45887
1016.9,-3602,-34911,203481,45998
1018.9,-3013,-34889,203232,45772
1020.9,-3068,-35104,203166,45712
1022.93,-3365,-34957,203519,46061
1024.95,-3334,-34824,203692,46226
1026.98,-3014,-35141,203311,45838
1029.0,-2905,-35433,202915,45436
1031.0,-3207,-35218,202987,45506
1033.0,-3432,-34795,203220,45742
1035.0,-3236,-34699,203209,45727
1037.0,-3110,-35038,203057,45533
1039.0,-3387,-35460,202990,45396
1041.0,-3451,-35541,202994,45372
1043.0,-3009,-35307,203003,45435
1045.0,-2913,-35220,203052,45563
1047.0,-3565,-35424,203173,45717
1049.0,-3999,-35502,203293,45829
1051.0,-3634,-35272,203282,45808
1053.0,-3236,-35098,203144,45651
1055.0,-3263,-35108,203069,45547
1057.0,-3162,-34981,203154,45625
1059.0,-2886,-34817,203206,45700
1061.0,-3074,-35118,203051,45567
1063.0,-3536,-35693,202861,45370
1065.0,-3553,-35839,202866,45348
1067.0,-3410,-35600,202980,45448
1069.0,-3748,-35561,203005,45493
1071.0,-4087,-35684,202957,45473
1073.0,-3589,-35511,202950,45463
1075.0,-2563,-34997,203013,45502
1077.0,-2091,-34506,203140,45627
1079.0,-2674,-34522,203279,45780
1081.0,-3684,-35195,203320,45822
1083.0,-4069,-35796,203243,45742
1085.0,-3695,-35573,203142,45653
1087.0,-3442,-35046,203073,45607
1089.0,-3612,-35007,203106,45664
1091.0,-3527,-35119,203277,45859
1093.0,-3123,-35034,203347,45922
1095.0,-3144,-35290,203064,45578
1097.0,-3508,-35846,202706,45133
1099.0,-3467,-35830,202698,45059
1101.0,-3174,-35354,202884,45203
1103.0,-3276,-35408,202876,45147
1105.0,-3659,-36051,202748,44975
1107.0,-3930,-36525,202770,44996
1109.0,-3990,-36496,202914,45187
1111.0,-3626,-36025,203081,45419
1113.0,-2991,-35301,203319,45751
1115.0,-2925,-34776,203577,46175
1117.0,-3361,-34604,203712,46540
1119.0,-2998,-34268,203777,46850
1121.0,-1733,-33581,203907,47237
1123.0,-998,-33114,204034,47662
1125.0,-967,-33024,204045,47988
1127.0,-369,-32722,204017,48257
1129.0,843,-32048,204040,48577
1131.0,1613,-31408,204060,48921
1133.0,1969,-30748,204094,49276
1135.0,2496,-29830,204217,49687
1137.0,2839,-29176,204267,49990
1139.0,2719,-29246,204043,49952
1141.0,2688,-29434,203749,49720
1143.0,2704,-29296,203684,49578
1145.0,2072,-29518,203580,49278
1147.0,1072,-30530,202942,48323
1149.0,296,-31733,201907,46865
1151.0,-795,-32764,201067,45585
1153.0,-2384,-33805,200600,44750
1155.0,-3196,-34626,200261,44105
1157.0,-2815,-34924,200052,43600
1159.0,-2567,-34981,200233,43500
1161.0,-2994,-35030,200755,43808
1163.03,-3387,-35085,201243,44164
1165.05,-3798,-35457,201510,44343
1167.08,-4540,-36075,201718,44480
1169.1,-4713,-36096,202039,44739
1171.1,-3824,-35392,202428,45075
1173.1,-3124,-34942,202763,45359
1175.1,-3454,-35087,202966,45519
1177.1,-3931,-35237,202968,45498
1179.1,-3817,-35306,202777,45286
1181.1,-3571,-35653,202555,45031
1183.1,-3581,-36069,202472,44932
1185.1,-3655,-36164,202568,45039
1187.1,-3764,-36062,202811,45290
1189.1,-4035,-35997,203104,45575
1191.1,-4202,-35948,203227,45703
1193.1,-3889,-35884,203071,45564
1195.1,-3308,-35836,202856,45345
1197.1,-3140,-35817,202840,45304
1199.1,-3578,-35851,202960,45397
1201.1,-3955,-35892,203010,45425
1203.1,-3769,-35830,202953,45366
1205.1,-3482,-35722,202886,45322
1207.1,-3615,-35688,202875,45340
1209.1,-3821,-35631,202943,45421
1211.1,-3678,-35460,203032,45523
1213.1,-3515,-35368,203044,45543
1215.1,-3716,-35511,203001,45465
1217.1,-4027,-35715,203005,45411
1219.1,-4046,-35775,203045,45443
1221.1,-3734,-35662,203054,45495
1223.1,-3295,-35384,203086,45556
1225.1,-2940,-35055,203193,45663
1227.1,-2860,-35036,203251,45737
1229.1,-3245,-35504,203157,45662
1231.1,-3942,-35963,203060,45535
1233.1,-4128,-35774,203129,45547
1235.1,-3290,-35183,203234,45636
1237.1,-2511,-35071,203164,45576
1239.1,-3053,-35521,203037,45418
1241.1,-4032,-35667,203113,45460
1243.1,-3911,-35249,203313,45706
1245.1,-3338,-35063,203334,45821
1247.1,-3611,-35470,203145,45659
1249.1,-3970,-35791,202981,45452
1251.1,-3341,-35568,203007,45462
1253.1,-2680,-35164,203243,45723
1255.1,-3068,-34968,203557,46043
1257.1,-3810,-35002,203679,46136
1259.1,-4025,-35208,203517,45940
1261.1,-3889,-35451,203306,45693
1263.1,-3634,-35536,203211,45562
1265.1,-3209,-35499,203152,45494
1267.1,-2869,-35497,203127,45480
1269.1,-2826,-35505,203208,45576
1271.1,-2929,-35479,203292,45687
1273.1,-3214,-35505,203327,45753
1275.1,-3829,-35567,203476,45893
1277.1,-4339,-35547,203717,46097
1279.1,-4119,-35452,203778,46149
1281.1,-3361,-35327,203673,46049
1283.1,-2860,-35145,203689,46028
1285.1,-2850,-34947,203811,46109
1287.1,-2833,-34817,203815,46144
1289.1,-2598,-34729,203786,46187
1291.1,-2591,-34709,203910,46339
1293.1,-2947,-34873,204041,46445
1295.1,-3073,-35052,204032,46419
1297.1,-2675,-34892,204090,46488
1299.1,-2290,-34520,204291,46712
1301.1,-2318,-34422,204320,46758
1303.13,-2424,-34582,204115,46559
1305.15,-2291,-34564,204077,46519
1307.18,-2074,-34329,204329,46775
1309.2,-1956,-34142,204556,47007
1311.2,-2031,-34046,204662,47110
1313.2,-2370,-34102,204758,47203
1315.2,-2515,-34382,204694,47150
1317.2,-1896,-34447,204444,46912
1319.2,-1255,-33974,204453,46914
1321.2,-1813,-33624,204823,47264
1323.2,-2871,-33929,204931,47367
1325.2,-2845,-34221,204551,46999
1327.2,-2259,-34011,204315,46778
1329.2,-2501,-33880,204542,47036
1331.2,-2817,-33969,204766,47306
1333.2,-1997,-33612,204743,47301
1335.2,-1078,-33010,204773,47300
1337.2,-1247,-33109,204875,47375
1339.2,-1641,-33772,204732,47258
1341.2,-1557,-34080,204472,47052
1343.2,-1784,-33958,204514,47134
1345.2,-2444,-33910,204784,47425
1347.2,-2674,-33964,204910,47544
1349.2,-2603,-33936,204867,47459
1351.2,-2780,-33866,204790,47340
1353.2,-2729,-33752,204624,47176
1355.2,-2291,-33642,204425,47009
1357.2,-2234,-33773,204405,47007
1359.2,-2377,-34045,204492,47099
1361.2,-2009,-34094,204456,47085
1363.2,-1986,-34115,204379,47031
1365.2,-3050,-34458,204404,47037
1367.2,-3657,-34630,204401,46994
1369.2,-2747,-34146,204306,46896
1371.2,-1863,-33651,204259,46878
1373.2,-1983,-33790,204226,46856
1375.2,-1981,-34090,204066,46687
1377.2,-1632,-34093,203905,46527
1379.2,-2061,-34157,203923,46554
1381.2,-3001,-34402,204058,46691
1383.2,-3292,-34395,204220,46860
1385.2,-3106,-34141,204367,47018
1387.2,-2989,-34044,204313,46968
1389.2,-2685,-34135,203996,46658
1391.2,-2424,-34286,203712,46393
1393.2,-2895,-34563,203676,46369
1395.2,-3575,-34756,203768,46457
1397.2,-3547,-34531,203897,46584
1399.2,-3310,-34251,204036,46716
1401.2,-3543,-34470,203997,46660
1403.2,-3506,-34746,203757,46417
1405.2,-2657,-34402,203639,46318
1407.2,-2034,-33891,203752,46442
1409.2,-2360,-33925,203828,46515
1411.2,-2791,-34168,203761,46457
1413.2,-2771,-34139,203686,46394
1415.2,-2906,-34066,203644,46345
1417.2,-3310,-33990,203687,46381
1419.2,-3378,-33677,203911,46622
1421.2,-3191,-33573,204125,46850
1423.2,-3129,-34052,204045,46769
1425.2,-2967,-34432,203836,46565
1427.2,-2784,-34297,203799,46543
1429.2,-3039,-34312,203805,46559
1431.2,-3195,-34625,203656,46416
1433.23,-2592,-34559,203536,46303
1435.25,-2113,-34224,203626,46391
1437.28,-2570,-34208,203801,46551
1439.3,-3076,-34217,203959,46703
1441.3,-2961,-33955,204102,46860
1443.3,-2888,-33976,204105,46878
1445.3,-3016,-34326,203926,46698
1447.3,-2757,-34312,203790,46551
1449.3,-2439,-34047,203847,46592
1451.3,-2830,-34096,204045,46773
1453.3,-3591,-34128,204356,47071
1455.3,-3827,-33788,204622,47321
1457.3,-3323,-33571,204521,47194
1459.3,-2603,-33603,204169,46812
1461.3,-2412,-33412,204080,46708
1463.3,-2946,-33215,204294,46933
1465.3,-3439,-33440,204436,47104
1467.3,-3182,-33584,204484,47180
1469.3,-2573,-33293,204555,47264
1471.3,-2347,-33237,204441,47152
1473.3,-2506,-33668,204157,46868
1475.3,-2699,-33863,204144,46855
1477.3,-2790,-33577,204450,47155
1479.3,-2755,-33367,204615,47312
1481.3,-2691,-33490,204463,47158
1483.3,-2790,-33727,204219,46925
1485.3,-2922,-33843,204076,46813
1487.3,-2767,-33670,204133,46917
1489.3,-2420,-33326,204299,47118
1491.3,-2203,-33218,204259,47077
1493.3,-2162,-33352,204007,46804
1495.3,-2271,-33365,203963,46751
1497.3,-2551,-33309,204187,46986
1499.3,-2703,-33405,204263,47078
1501.3,-2480,-33462,204107,46938
1503.3,-2290,-33434,203999,46850
1505.3,-2562,-33672,203939,46810
1507.3,-2970,-34061,203794,46670
1509.3,-3101,-34104,203704,46569
1511.3,-3121,-33938,203761,46599
1513.3,-3161,-34004,203777,46586
1515.3,-2995,-34164,203681,46470
1517.3,-2755,-34249,203594,46361
1519.3,-2877,-34558,203519,46266
1521.3,-3083,-34967,203455,46199
1523.3,-2698,-34864,203513,46265
1525.3,-2042,-34453,203615,46360
1527.3,-2109,-34550,203542,46277
1529.3,-2898,-35053,203376,46125
1531.3,-3454,-35242,203334,46096
1533.3,-3381,-35162,203339,46084
1535.3,-3116,-35201,203298,46022
1537.3,-3089,-35233,203326,46061
1539.3,-3337,-35239,203336,46094
1541.3,-3549,-35433,203136,45892
1543.3,-3395,-35443,203018,45753
1545.3,-3136,-34982,203286,46006
1547.3,-3294,-34806,203494,46228
1549.3,-3605,-35300,203224,45991
1551.3,-3363,-35435,202942,45721
1553.3,-2703,-34677,203087,45844
1555.3,-2479,-34152,203261,46003
1557.3,-3026,-34651,203121,45874
1559.3,-3766,-35345,203019,45762
1561.3,-3880,-35274,203229,45934
1563.3,-3289,-34673,203494,46189
1565.3,-2826,-34338,203530,46250
1567.3,-2996,-34584,203333,46055
1569.3,-3244,-35115,203044,45753
1571.3,-3149,-35579,202866,45591
1573.33,-3078,-35860,202888,45629
1575.35,-3014,-35857,202945,45664
1577.38,-2549,-35516,202911,45608
1579.4,-2272,-35139,202948,45665
1581.4,-3001,-35064,203189,45925
1583.4,-3978,-35201,203382,46094
1585.4,-3981,-35402,203224,45902
1587.4,-3357,-35665,202917,45585
1589.4,-3091,-35748,202914,45580
1591.4,-3181,-35451,203172,45837
1593.4,-3250,-35188,203243,45919
1595.4,-3314,-35329,203054,45748
1597.4,-3321,-35531,202945,45647
1599.4,-3217,-35500,203017,45720
1601.4,-3311,-35518,203080,45792
1603.4,-3649,-35707,203079,45820
1605.4,-3758,-35778,203073,45851
1607.4,-3558,-35690,203037,45834
1609.4,-3441,-35657,202983,45759
1611.4,-3391,-35650,202971,45716
1613.4,-3221,-35542,202971,45712
1615.4,-3242,-35422,202966,45720
1617.4,-3522,-35329,203035,45787
1619.4,-3399,-35159,203146,45886
1621.4,-2813,-35027,203167,45905
1623.4,-2657,-35150,203095,45831
1625.4,-3026,-35386,202971,45672
1627.4,-3105,-35502,202763,45402
1629.4,-3137,-35644,202635,45208
1631.4,-3933,-35980,202835,45335
1633.4,-4770,-36332,203113,45543
1635.4,-4554,-36540,203041,45446
1637.4,-3881,-36498,202891,45330
1639.4,-3366,-35867,203152,45658
1641.4,-2372,-34747,203471,46086
1643.4,-1326,-34071,203344,46151
1645.4,-1768,-34180,203260,46326
1647.4,-2943,-34061,203740,47075
1649.4,-2480,-33074,204187,47799
1651.4,-590,-32020,204023,47941
1653.4,571,-31668,203749,47972
1655.4,834,-31716,203796,48319
1657.4,1526,-31606,203795,48654
1659.4,2551,-31133,203649,48871
1661.4,2971,-30295,203776,49315
1663.4,2933,-29415,204051,49850
1665.4,3073,-28942,203987,50010
1667.4,3415,-28790,203760,49919
1669.4,3680,-28672,203786,49921
1671.4,3556,-28969,203794,49764
1673.4,2735,-30072,203331,49041
1675.4,1465,-31292,202542,47899
1677.4,426,-31856,201760,46694
1679.4,-348,-32363,200994,45515
1681.4,-1362,-33592,200317,44491
1683.4,-2509,-34816,200123,44001
1685.4,-3259,-35115,200511,44126
1687.4,-3606,-35117,200940,44338
1689.4,-3777,-35582,200998,44237
1691.4,-3746,-35867,201031,44152
1693.4,-3661,-35478,201464,44479
1695.4,-3749,-35203,202033,44948
1697.4,-3785,-35466,202323,45170
1699.4,-3701,-35673,202466,45294
1701.4,-3982,-35756,202672,45498
1703.4,-4477,-36126,202763,45570
1705.4,-4227,-36232,202713,45487
1707.4,-3270,-35457,202825,45572
1709.4,-2796,-34738,203020,45757
1711.4,-3154,-35116,202903,45642
1713.43,-3574,-35824,202626,45368
1715.45,-3709,-35730,202678,45403
1717.48,-3719,-35200,202959,45652
1719.5,-3561,-35055,203053,45725
1721.5,-3396,-35201,203013,45672
1723.5,-3513,-35254,203055,45685
1725.5,-3496,-35176,203080,45681
1727.5,-3036,-35029,203033,45638
1729.5,-2923,-35049,203004,45623
1731.5,-3495,-35465,202859,45472
1733.5,-3718,-35859,202564,45172
1735.5,-3324,-35700,202530,45152
1737.5,-3398,-35279,202946,45565
1739.5,-3916,-35025,203339,45925
1741.5,-3685,-34827,203335,45907
1743.5,-2966,-34810,203122,45705
1745.5,-3023,-35348,202917,45497
1747.5,-3596,-35952,202738,45305
1749.5,-3584,-35828,202703,45286
1751.5,-3142,-35267,202913,45519
1753.5,-2980,-35021,203176,45772
1755.5,-3030,-35110,203239,45820
1757.5,-3089,-35318,203114,45716
1759.5,-3257,-35588,203026,45658
1761.5,-3301,-35531,203169,45792
1763.5,-3025,-35021,203421,46018
1765.5,-2968,-34935,203413,46014
1767.5,-3442,-35709,203084,45699
1769.5,-3699,-36216,202841,45441
1771.5,-3275,-35633,202930,45493
1773.5,-2997,-34873,203138,45690
1775.5,-3525,-34854,203292,45864
1777.5,-4166,-35141,203428,46018
1779.5,-4139,-35217,203467,46050
1781.5,-3760,-35308,203308,45879
1783.5,-3583,-35466,203120,45702
1785.5,-3506,-35391,203076,45679
1787.5,-3314,-35176,203081,45688
1789.5,-3154,-35104,203057,45654
1791.5,-3163,-35092,203135,45725
1793.5,-3303,-35044,203353,45940
1795.5,-3556,-35126,203497,46089
1797.5,-3823,-35352,203411,46020
1799.5,-3833,-35458,203251,45878
1801.5,-3478,-35245,203290,45923
1803.5,-2984,-34762,203522,46158
1805.5,-2636,-34321,203668,46308
1807.5,-2546,-34265,203629,46264
1809.5,-2640,-34473,203624,46241
1811.5,-2708,-34506,203736,46331
1813.5,-2603,-34366,203745,46326
1815.5,-2429,-34386,203621,46201
1817.5,-2420,-34514,203616,46203
1819.5,-2692,-34604,203745,46342
1821.5,-3050,-34806,203800,46418
1823.5,-3010,-34901,203880,46535
1825.5,-2441,-34473,204153,46824
1827.5,-2061,-34064,204324,46973
1829.5,-2404,-34345,204163,46801
1831.5,-2799,-34594,204058,46731
1833.5,-2543,-34084,204264,46972
1835.5,-2129,-33592,204410,47103
1837.5,-2043,-33670,204325,46979
1839.5,-1781,-33625,204305,46945
1841.5,-1293,-33417,204321,46969
1843.5,-1612,-33799,204141,46799
1845.5,-2872,-34301,204073,46739
1847.5,-3556,-33938,204411,47082
1849.5,-2856,-33315,204680,47347
1851.5,-2022,-33483,204466,47122
1853.53,-2106,-33916,204212,46854
1855.55,-2223,-33613,204400,47025
1857.58,-1547,-32851,204787,47412
1859.6,-1031,-32495,204973,47622
1861.6,-1418,-32688,204931,47610
1863.6,-1730,-33045,204748,47443
1865.6,-1421,-33348,204508,47210
1867.6,-1572,-33517,204455,47175
1869.6,-2547,-33437,204717,47459
1871.6,-3059,-33204,204959,47708
1873.6,-2543,-33197,204804,47532
1875.6,-2070,-33551,204440,47130
1877.6,-2368,-33868,204361,47012
1879.6,-2803,-33781,204606,47245
1881.6,-2638,-33509,204717,47382
1883.6,-2069,-33473,204482,47186
1885.6,-1717,-33593,204267,46984
1887.6,-1736,-33430,204397,47104
1889.6,-1839,-33027,204625,47323
1891.6,-1927,-32947,204579,47260
1893.6,-2042,-33267,204392,47050
1895.6,-1887,-33373,204393,47062
1897.6,-1344,-33125,204463,47184
1899.6,-1172,-33220,204311,47070
1901.6,-2014,-33913,204080,46835
1903.6,-3078,-34443,204063,46795
1905.6,-3181,-34260,204147,46863
1907.6,-2657,-33882,204096,46800
1909.6,-2641,-33988,203952,46667
1911.6,-3026,-34345,203848,46590
1913.6,-2947,-34321,203804,46549
1915.6,-2589,-34043,203819,46527
1917.6,-2616,-34128,203813,46481
1919.6,-2748,-34443,203667,46320
1921.6,-2648,-34314,203527,46187
1923.6,-2768,-33893,203626,46320
1925.6,-3040,-33920,203787,46523
1927.6,-2718,-34306,203711,46452
1929.6,-2248,-34374,203594,46300
1931.6,-2744,-34103,203777,46453
1933.6,-3554,-33881,204054,46728
1935.6,-3264,-33772,204001,46680
1937.6,-2487,-33829,203701,46393
1939.6,-2630,-34156,203579,46292
1941.6,-3047,-34358,203733,46447
1943.6,-2420,-34037,203873,46568
1945.6,-1561,-33631,203851,46550
1947.6,-2001,-33759,203821,46552
1949.6,-3119,-34225,203860,46608
1951.6,-3279,-34443,203849,46585
1953.6,-2703,-34319,203804,46532
1955.6,-2839,-34189,203881,46616
1957.6,-3564,-34191,204017,46745
1959.6,-3385,-34060,204001,46705
1961.6,-2267,-33692,203853,46534
1963.6,-1892,-33551,203731,46402
1965.6,-2773,-33946,203641,46303
1967.6,-3424,-34334,203549,46211
1969.6,-2975,-34131,203556,46239
1971.6,-2374,-33686,203697,46415
1973.6,-2475,-33635,203814,46555
1975.6,-2887,-33903,203808,46552
1977.6,-3008,-34012,203795,46533
1979.6,-2825,-33895,203873,46608
1981.6,-2746,-33904,203963,46689
1983.6,-3078,-34138,204012,46710
1985.6,-3349,-34126,204122,46785
1987.6,-2822,-33544,204294,46948
1989.6,-2066,-32964,204321,46991
1991.7,-2276,-33076,204153,46809
1993.7,-2916,-33474,204038,46644
1995.7,-2650,-33411,204093,46675
1997.7,-2078,-33199,204133,46729
1999.7,-2445,-33438,204074,46663
2001.7,-2968,-33664,204082,46639
2003.7,-2560,-33246,204242,46811
2005.7,-2082,-32661,204407,47041
2007.7,-2365,-32611,204397,47066
2009.7,-2704,-32893,204193,46842
2011.7,-2802,-32998,204033,46672
2013.7,-3172,-32894,204167,46838
2015.7,-3364,-32776,204395,47098
2017.7,-2811,-32745,204310,47013
2019.7,-2456,-32782,204065,46758
2021.7,-2907,-32772,204088,46785
2023.7,-3025,-32738,204171,46889
2025.7,-2335,-32864,203910,46648
2027.7,-2043,-33018,203642,46389
2029.7,-2414,-32909,203766,46517
2031.7,-2366,-32815,203842,46600
2033.7,-2029,-33162,203514,46277
2035.7,-2425,-33512,203354,46110
2037.7,-3091,-33308,203725,46475
2039.7,-2973,-33095,203995,46755
2041.7,-2460,-33459,203738,46519
2043.7,-2250,-33748,203490,46291
2045.7,-2129,-33445,203635,46445
2047.7,-2153,-33382,203759,46566
2049.7,-2682,-34022,203569,46363
2051.7,-3028,-34410,203351,46119
2053.7,-2536,-34084,203265,45995
2055.7,-2154,-33879,203201,45898
2057.7,-2655,-34082,203265,45962
2059.7,-3088,-34065,203532,46250
2061.7,-2834,-33926,203650,46373
2063.7,-2809,-34297,203392,46108
2065.7,-3326,-34908,203065,45795
2067.7,-3424,-35093,202924,45677
2069.7,-2983,-34930,202886,45630
2071.7,-2918,-34747,202946,45660
2073.7,-3233,-34538,203158,45845
2075.7,-3205,-34393,203314,45977
2077.7,-2970,-34498,203223,45867
2079.7,-3017,-34688,203016,45672
2081.7,-3071,-34738,202878,45565
2083.7,-2860,-34740,202865,45563
2085.7,-2805,-34818,202986,45676
2087.7,-3095,-34928,203119,45803
2089.7,-3298,-35014,203069,45752
2091.7,-3261,-35000,202908,45598
2093.7,-3252,-34841,202873,45585
2095.7,-3277,-34714,202923,45644
2097.7,-3154,-34756,202889,45584
2099.7,-2959,-34745,202856,45530
2101.7,-2804,-34540,202950,45650
2103.7,-2710,-34430,203034,45768
2105.7,-2857,-34638,202958,45694
2107.7,-3268,-34989,202774,45509
2109.7,-3473,-35275,202600,45329
2111.7,-3202,-35331,202566,45244
2113.7,-2854,-34975,202758,45375
2115.7,-2774,-34487,202966,45596
2117.7,-2886,-34508,202904,45606
2119.7,-3134,-34961,202752,45491
2121.7,-3419,-35094,202873,45598
2123.73,-3431,-34856,203070,45786
2125.75,-3199,-34896,202920,45646
2127.78,-3116,-35212,202622,45362
2129.8,-3165,-35238,202658,45408
2131.8,-3062,-35001,202896,45640
2133.8,-2939,-34912,202899,45614
2135.8,-3046,-34924,202760,45449
2137.8,-3277,-34878,202824,45516
2139.8,-3495,-34931,202999,45712
2141.8,-3634,-35063,203017,45758
2143.8,-3462,-34994,202944,45708
2145.8,-2969,-34780,202929,45683
2147.8,-2564,-34697,202918,45627
2149.8,-2400,-34666,202909,45598
2151.8,-2321,-34502,203029,45739
2153.8,-2611,-34480,203194,45902
2155.8,-3566,-34987,203130,45775
2157.8,-4483,-35790,202806,45374
2159.8,-4446,-36203,202537,45044
2161.8,-3712,-35998,202534,44974
2163.8,-3208,-35682,202640,45019
2165.8,-3332,-35673,202712,45086
2167.8,-3844,-35741,202897,45322
2169.8,-4115,-35561,203186,45687
2171.8,-3553,-35180,203236,45861
2173.8,-2517,-34609,203057,45895
2175.8,-1886,-33695,203120,46233
2177.8,-1474,-32654,203439,46825
2179.8,-551,-31926,203542,47184
2181.8,439,-31504,203452,47382
2183.8,843,-31111,203552,47839
2185.8,1346,-30763,203664,48350
2187.8,2417,-30500,203429,48494
2189.8,3033,-30059,203144,48546
2191.8,2748,-29341,203226,48927
2193.8,2650,-28694,203448,49384
2195.8,3230,-28344,203461,49527
2197.8,3773,-28100,203385,49465
2199.8,3925,-27968,203350,49353
2201.8,3643,-28432,203132,48980
2203.8,2492,-29647,202572,48160
2205.8,734,-30959,201863,47067
2207.8,-506,-31804,201234,45979
2209.8,-1079,-32488,200701,45028
2211.8,-1774,-33432,200249,44275
2213.8,-2515,-34367,200006,43803
2215.8,-2801,-34914,200100,43682
2217.8,-3136,-35208,200493,43887
2219.8,-3952,-35435,201009,44267
2221.8,-4431,-35475,201442,44586
2223.8,-4044,-35294,201693,44729
2225.8,-3565,-35058,201884,44848
2227.8,-3457,-34769,202208,45131
2229.8,-3161,-34379,202622,45487
2231.8,-2610,-34178,202879,45666
2233.8,-2591,-34488,202869,45613
2235.8,-3261,-35079,202711,45459
2237.8,-3876,-35454,202578,45317
2239.8,-3949,-35527,202572,45271
2241.8,-3610,-35496,202660,45336
2243.8,-3172,-35426,202666,45352
2245.8,-2982,-35406,202501,45191
2247.8,-3160,-35564,202354,45031
2249.8,-3357,-35607,202465,45124
2251.8,-3287,-35184,202754,45390
2253.8,-3170,-34709,202927,45540
2255.8,-3192,-34799,202875,45495
2257.8,-3184,-35231,202735,45395
2259.8,-3157,-35479,202625,45319
2261.8,-3376,-35624,202548,45264
2263.83,-3782,-35863,202540,45262
2265.85,-4060,-35963,202657,45348
2267.88,-4075,-35723,202824,45465
2269.9,-3742,-35256,202899,45526
2271.9,-3114,-34786,202857,45506
2273.9,-2724,-34620,202806,45449
2275.9,-2899,-34856,202822,45438
2277.9,-3119,-35080,202857,45479
2279.9,-3061,-35043,202817,45474
2281.9,-3293,-35131,202744,45423
2283.9,-3918,-35422,202807,45492
2285.9,-4042,-35328,203016,45713
2287.9,-3386,-34816,203134,45842
2289.9,-2774,-34608,203040,45742
2291.9,-2686,-34865,202909,45592
2293.9,-2798,-35042,202886,45546
2295.9,-2790,-34913,202910,45558
2297.9,-2687,-34652,202964,45608
2299.9,-2784,-34441,203061,45694
2301.9,-3362,-34545,203052,45678
2303.9,-3909,-34949,202874,45526
2305.9,-3474,-35098,202756,45450
2307.9,-2430,-34812,202837,45546
2309.9,-2298,-34666,202987,45680
2311.9,-3222,-34857,203112,45772
2313.9,-3690,-34927,203175,45789
2315.9,-3239,-34814,203082,45658
2317.9,-3059,-34854,202912,45502
2319.9,-3512,-34939,202893,45546
2321.9,-3552,-34788,202995,45701
2323.9,-2942,-34558,203048,45759
2325.9,-2695,-34530,203069,45750
2327.9,-3093,-34721,203051,45705
2329.9,-3332,-34946,202936,45585
2331.9,-3049,-34889,202950,45603
2333.9,-2633,-34433,203248,45892
2335.9,-2365,-34032,203441,46080
2337.9,-2386,-34175,203268,45934
2339.9,-2884,-34655,203151,45858
2341.9,-3546,-34891,203397,46115
2343.9,-3557,-34674,203673,46364
2345.9,-2718,-34220,203720,46396
2347.9,-1864,-33871,203699,46414
2349.9,-1702,-33862,203655,46431
2351.9,-1937,-34071,203516,46295
2353.9,-2032,-34140,203489,46207
2355.9,-2063,-34022,203725,46388
2357.9,-2203,-33991,203916,46572
2359.9,-2187,-34058,203838,46506
2361.9,-1935,-33931,203785,46474
2363.9,-1838,-33616,203970,46696
2365.9,-1970,-33446,204134,46886
2367.9,-2016,-33539,204119,46853
2369.9,-2104,-33751,204133,46852
2371.9,-2546,-33983,204239,46993
2373.9,-2863,-34049,204258,47049
2375.9,-2363,-33698,204197,46968
2377.9,-1443,-33159,204174,46918
2379.9,-1049,-32987,204131,46912
2381.9,-1211,-33161,204053,46888
2383.9,-1286,-33142,204109,46934
2385.9,-1291,-32859,204319,47112
2387.9,-1734,-32775,204496,47312
2389.9,-2412,-33042,204521,47378
2391.9,-2557,-33277,204427,47273
2393.9,-2143,-33178,204349,47161
2395.9,-1915,-32965,204413,47219
2397.9,-2046,-33022,204491,47313
2399.9,-1884,-33206,204387,47227
2401.9,-1304,-33062,204259,47123
2403.93,-1121,-32760,204312,47202
2405.95,-1613,-32856,204319,47229
2407.98,-1956,-33125,204132,47057
2410.0,-1761,-32989,204080,47007
2412.0,-1649,-32774,204253,47186
2414.0,-1801,-32983,204261,47228
2416.0,-1655,-33119,204069,47079
2418.0,-1269,-32755,204042,47058
2420.0,-1176,-32534,204091,47090
2422.0,-1332,-32902,203878,46892
2424.0,-1708,-33321,203653,46712
2426.0,-2541,-33346,203855,46939
2428.0,-3064,-33086,204227,47306
2430.0,-2325,-32731,204217,47291
2432.0,-1413,-32622,203862,46949
2434.0,-1911,-33062,203601,46706
2436.0,-2923,-33614,203568,46693
2438.0,-2729,-33663,203587,46728
2440.0,-1842,-33459,203560,46696
2442.0,-1650,-33495,203520,46631
2444.0,-1963,-33611,203471,46569
2446.0,-2018,-33599,203411,46535
2448.0,-1971,-33656,203393,46547
2450.0,-2202,-33795,203435,46582
2452.0,-2637,-33871,203459,46585
2454.0,-3025,-34067,203390,46512
2456.0,-3017,-34404,203257,46371
2458.0,-2507,-34410,203172,46257
2460.0,-2106,-34011,203204,46279
2462.0,-2305,-33773,203270,46369
2464.0,-2575,-33874,203238,46355
2466.0,-2397,-33921,203155,46261
2468.0,-2146,-33785,203200,46303
2470.0,-2103,-33622,203384,46501
2472.0,-2041,-33493,203506,46615
2474.0,-2124,-33559,203450,46537
2476.0,-2588,-33947,203324,46435
2478.0,-2865,-34308,203249,46431
2480.0,-2607,-34342,203199,46427
2482.0,-2487,-34312,203148,46361
2484.0,-2768,-34355,203155,46357
2486.0,-2802,-34200,203232,46460
2488.0,-2613,-33933,203274,46520
2490.0,-2868,-33919,203233,46457
2492.0,-3227,-33985,203206,46407
2494.0,-2871,-33775,203263,46470
2496.0,-2147,-33485,203321,46534
2498.0,-1911,-33418,203266,46474
2500.0,-2202,-33518,203139,46363
2502.0,-2687,-33758,203076,46336
2504.0,-3220,-34130,203126,46397
2506.0,-3425,-34179,203248,46499
2508.0,-2883,-33517,203401,46649
2510.0,-1888,-32667,203518,46784
2512.0,-1251,-32454,203530,46795
2514.0,-1367,-32797,203518,46769
2516.0,-1944,-33035,203616,46877
2518.0,-2551,-33073,203777,47042
2520.0,-2927,-33217,203849,47076
2522.0,-2779,-33301,203780,46981
2524.0,-2109,-33055,203599,46832
2526.0,-1728,-32846,203427,46687
2528.0,-2226,-33022,203452,46680
2530.0,-2784,-33220,203619,46806
2532.0,-2585,-33192,203614,46793
2534.0,-2403,-33326,203397,46584
2536.0,-2941,-33663,203301,46501
2538.0,-3292,-33574,203440,46666
2540.0,-2819,-32973,203550,46796
2542.0,-2444,-32625,203482,46748
2544.03,-2680,-32834,203384,46706
2546.05,-2721,-32971,203382,46775
2548.08,-2266,-32663,203430,46842
2550.1,-2058,-32391,203433,46831
2552.1,-2289,-32544,203366,46768
2554.1,-2296,-32763,203276,46683
2556.1,-1911,-32647,203228,46617
2558.1,-1771,-32446,203256,46637
2560.1,-2174,-32565,203309,46710
2562.1,-2509,-32846,203274,46695
2564.1,-2217,-32885,203140,46572
2566.1,-1739,-32806,203015,46453
2568.1,-1737,-33047,202886,46328
2570.1,-1910,-33412,202705,46155
2572.1,-1748,-33253,202713,46175
2574.1,-1770,-32732,203092,46543
2576.1,-2500,-32742,203431,46852
2578.1,-3094,-33337,203277,46682
2580.1,-2649,-33662,202908,46306
2582.1,-1845,-33561,202779,46158
2584.1,-1738,-33638,202774,46146
2586.1,-2156,-33904,202675,46067
2588.1,-2494,-33971,202642,46046
2590.1,-2707,-33998,202738,46116
2592.1,-2742,-34119,202728,46076
2594.1,-2491,-34030,202591,45926
2596.1,-2456,-33914,202521,45845
2598.1,-2942,-34253,202489,45795
2600.1,-3213,-34638,202396,45694
2602.1,-2918,-34451,202382,45685
2604.1,-2815,-34098,202510,45813
2606.1,-2912,-34057,202537,45837
2608.1,-2343,-33960,202390,45695
2610.1,-1682,-33689,202353,45665
2612.1,-2226,-33754,202512,45810
2614.1,-3180,-34106,202572,45850
2616.1,-2991,-34183,202464,45752
2618.1,-2269,-34030,202481,45792
2620.1,-2253,-34068,202627,45937
2622.1,-2517,-34288,202579,45884
2624.1,-2531,-34475,202383,45716
2626.1,-2777,-34600,202370,45730
2628.1,-3190,-34721,202441,45783
2630.1,-3183,-34918,202283,45596
2632.1,-3006,-35128,202045,45368
2634.1,-3050,-35050,202057,45401
2636.1,-3049,-34675,202217,45560
2638.1,-3001,-34496,202265,45607
2640.1,-3103,-34705,202234,45594
2642.1,-3003,-34874,202261,45639
2644.1,-2684,-34767,202335,45710
2646.1,-2819,-34659,202361,45731
2648.1,-3248,-34696,202284,45663
2650.1,-3098,-34708,202161,45544
2652.1,-2606,-34645,202138,45499
2654.1,-2656,-34634,202219,45542
2656.1,-3020,-34708,202212,45522
2658.1,-2938,-34765,202090,45425
2660.1,-2532,-34628,202084,45461
2662.1,-2321,-34248,202274,45675
2664.1,-2409,-34018,202389,45799
2666.1,-2772,-34422,202238,45665
2668.1,-3334,-35102,202048,45508
2670.1,-3674,-35155,202134,45609
2672.1,-3491,-34615,202384,45848
2674.1,-3020,-34383,202430,45888
2676.1,-2599,-34576,202269,45733
2678.1,-2477,-34533,202269,45715
2680.1,-2941,-34348,202514,45930
2682.2,-3675,-34547,202665,46097
2684.2,-3618,-34730,202542,46020
2686.2,-2620,-34438,202324,45808
2688.2,-2038,-34368,202143,45591
2690.2,-2567,-34985,201967,45372
2692.2,-3172,-35403,201885,45218
2694.2,-3076,-35029,202033,45261
2696.2,-2817,-34593,202269,45442
2698.2,-2834,-34626,202335,45546
2700.2,-2945,-34690,202294,45586
2702.2,-3064,-34496,202395,45791
2704.2,-2932,-34212,202616,46168
2706.2,-2080,-33717,202775,46527
2708.2,-1015,-32882,202927,46875
2710.2,-816,-32211,203131,47278
2712.2,-1138,-32137,203149,47546
2714.2,-565,-32126,202909,47616
2716.2,1064,-31454,202757,47815
2718.2,2505,-30438,202813,48230
2720.2,3033,-29897,202723,48478
2722.2,3171,-29708,202438,48500
2724.2,3638,-29033,202424,48762
2726.2,4330,-27936,202766,49323
2728.2,4497,-27490,202912,49574
2730.2,3960,-28055,202575,49204
2732.2,3518,-28737,202144,48634
2734.2,3417,-29028,201908,48173
2736.2,2569,-29653,201571,47525
2738.2,578,-31042,200905,46495
2740.2,-1089,-32373,200232,45480
2742.2,-1498,-32992,199889,44845
2744.2,-1682,-33398,199765,44439
2746.2,-2319,-34032,199688,44091
2748.2,-2584,-34537,199755,43941
2750.2,-2349,-34686,200065,44088
2752.2,-2544,-34668,200545,44416
2754.2,-2978,-34496,201060,44795
2756.2,-2794,-34234,201472,45119
2758.2,-2512,-34189,201742,45344
2760.2,-2886,-34266,201982,45563
2762.2,-3258,-34176,202174,45746
2764.2,-3131,-34263,202108,45654
2766.2,-3194,-34799,201866,45358
2768.2,-3529,-35125,201844,45293
2770.2,-3308,-34786,202061,45504
2772.2,-2712,-34410,202110,45559
2774.2,-2713,-34522,201930,45369
2776.2,-3176,-34753,201876,45303
2778.2,-3223,-34701,202037,45462
2780.2,-2892,-34478,202179,45612
2782.2,-2860,-34348,202232,45666
2784.2,-3140,-34504,202242,45649
2786.2,-3211,-34852,202165,45525
2788.2,-3002,-34908,202102,45448
2790.2,-2972,-34503,202253,45651
2792.2,-3296,-34201,202476,45927
2794.2,-3489,-34314,202440,45883
2796.2,-3079,-34338,202216,45621
2798.2,-2383,-33987,202110,45504
2800.2,-2098,-33733,202118,45518
2802.2,-2311,-33837,202078,45462
2804.2,-2589,-33976,202067,45434
2806.2,-2817,-34009,202225,45600
2808.2,-3067,-34112,202425,45826
2810.2,-3106,-34264,202457,45879
2812.2,-2954,-34390,202343,45779
2814.23,-3186,-34599,202286,45733
2816.25,-3833,-34816,202380,45838
2818.28,-4051,-34731,202498,45968
2820.3,-3464,-34346,202491,45964
2822.3,-2723,-34068,202363,45827
2824.3,-2564,-34201,202243,45703
2826.3,-3151,-34562,202302,45759
2828.3,-3985,-34600,202602,46033
2830.3,-4149,-34094,202902,46298
2832.3,-3384,-33657,202851,46232
2834.3,-2569,-33893,202461,45834
2836.3,-2367,-34372,202116,45469
2838.3,-2404,-34363,202088,45433
2840.3,-2333,-34009,202327,45684
2842.3,-2364,-33809,202624,45982
2844.3,-2600,-33821,202738,46093
2846.3,-2994,-34020,202578,45961
2848.3,-3476,-34396,202358,45787
2850.3,-3548,-34569,202311,45765
2852.3,-2873,-34354,202338,45790
2854.3,-2153,-34139,202315,45744
2856.3,-2087,-33979,202431,45821
2858.3,-2293,-33597,202748,46103
2860.3,-2432,-33466,202887,46226
2862.3,-2847,-34043,202704,46034
2864.3,-3274,-34434,202644,45963
2866.3,-2937,-33930,202880,46192
2868.3,-2218,-33499,202945,46239
2870.3,-2080,-33760,202695,45967
2872.3,-2229,-33647,202676,45969
2874.3,-1900,-32814,203055,46417
2876.3,-1531,-32613,203261,46659
2878.3,-1858,-33446,203063,46430
2880.3,-2486,-34028,202944,46292
2882.3,-2668,-33873,203123,46508
2884.3,-2385,-33757,203220,46636
2886.3,-2002,-33790,203106,46510
2888.3,-1766,-33465,203119,46515
2890.3,-1791,-33065,203328,46748
2892.3,-1924,-33117,203439,46869
2894.3,-1807,-33293,203398,46800
2896.3,-1418,-33163,203408,46785
2898.3,-1263,-33014,203518,46893
2900.3,-1812,-33139,203662,47042
2902.3,-2763,-33261,203848,47239
2904.3,-3152,-33131,203991,47407
2906.3,-2596,-32951,203937,47367
2908.3,-1928,-32973,203730,47154
2910.3,-1870,-33088,203585,47001
2912.3,-1886,-32985,203602,47017
2914.3,-1367,-32639,203708,47119
2916.3,-778,-32427,203776,47188
2918.3,-660,-32536,203772,47203
2920.3,-755,-32595,203830,47284
2922.3,-787,-32287,204048,47513
2924.3,-834,-31874,204268,47735
2926.3,-840,-31699,204341,47809
2928.3,-761,-31746,204351,47817
2930.3,-727,-31959,204258,47721
2932.3,-627,-32338,203878,47336
2934.3,-542,-32616,203506,46961
2936.3,-1121,-32523,203692,47154
2938.3,-2189,-32343,204168,47649
2940.3,-2369,-32499,204165,47669
2942.3,-1452,-32747,203820,47340
2944.3,-888,-32555,203812,47345
2946.3,-1038,-32103,203923,47470
2948.3,-892,-32056,203595,47150
2950.3,-692,-32480,203312,46840
2952.3,-1438,-32820,203655,47122
2954.33,-2420,-32822,204004,47428
2956.35,-2461,-32738,203761,47198
2958.38,-2178,-32747,203522,46981
2960.4,-2342,-32788,203712,47157
2962.4,-2256,-32819,203706,47146
2964.4,-1689,-32891,203252,46743
2966.4,-1636,-33006,203036,46597
2968.4,-2071,-33007,203327,46919
2970.4,-1884,-32752,203579,47172
2972.4,-1276,-32499,203495,47087
2974.4,-1377,-32663,203303,46882
2976.4,-1984,-33067,203173,46731
2978.4,-2123,-33155,203127,46693
2980.4,-1880,-32969,203169,46769
2982.4,-1822,-32949,203211,46822
2984.4,-1888,-32996,203230,46808
2986.4,-1905,-32821,203313,46844
2988.4,-1950,-32689,203326,46832
2990.4,-1949,-32889,203084,46585
2992.4,-1955,-33219,202818,46318
2994.4,-2295,-33513,202836,46326
2996.4,-2713,-33697,202992,46475
2998.4,-2520,-33444,203103,46591
3000.4,-2045,-32912,203269,46763
3002.4,-2282,-32998,203400,46897
3004.4,-2970,-33730,203267,46780
3006.4,-2929,-33951,203063,46612
3008.4,-2216,-33460,203066,46644
3010.4,-1913,-33289,203077,46654
3012.4,-2088,-33472,202952,46510
3014.4,-2015,-33112,203013,46550
3016.4,-1804,-32507,203314,46833
3018.4,-1893,-32558,203398,46900
3020.4,-1855,-32813,203176,46675
3022.4,-1422,-32502,203119,46637
3024.4,-1464,-32304,203329,46874
3026.4,-2336,-33010,203325,46878
3028.4,-2859,-33853,202952,46480
3030.4,-2370,-33753,202740,46218
3032.4,-1932,-33017,203047,46478
3034.4,-2255,-32642,203451,46865
3036.4,-2571,-32831,203447,46876
3038.4,-2463,-33020,203265,46711
3040.4,-2468,-32882,203358,46813
3042.4,-2458,-32683,203529,47005
3044.4,-1868,-32707,203374,46879
3046.4,-1242,-32797,203112,46625
3048.4,-1324,-32661,203143,46650
3050.4,-1677,-32387,203336,46833
3052.4,-1933,-32336,203426,46903
3054.4,-2585,-32558,203518,46987
3056.4,-3381,-32663,203682,47178
3058.4,-3200,-32419,203706,47218
3060.4,-2195,-32142,203559,47033
3062.4,-1732,-32169,203485,46922
3064.4,-2060,-32304,203549,46999
3066.4,-2222,-32269,203569,47037
3068.4,-2094,-32249,203504,46969
3070.4,-2422,-32403,203497,46985
3072.4,-3045,-32415,203555,47092
3074.4,-3040,-32150,203522,47074
3076.4,-2401,-32007,203386,46915
3078.4,-1940,-32117,203332,46854
3080.4,-1958,-32161,203400,46935
3082.4,-2157,-32126,203391,46932
3084.4,-2154,-32112,203300,46842
3086.4,-1647,-31797,203392,46953
3088.4,-1060,-31300,203616,47208
3090.4,-1359,-31509,203513,47128
3092.5,-2225,-32352,203072,46694
3094.5,-2261,-32601,202916,46539
3096.5,-1666,-32193,203224,46852
3098.5,-1821,-32270,203391,47034
3100.5,-2356,-32745,203145,46811
3102.5,-1997,-32701,202952,46623
3104.5,-1341,-32563,202993,46644
3106.5,-1615,-33064,202916,46546
3108.5,-2356,-33474,202716,46343
3110.5,-2599,-33132,202750,46376
3112.5,-2339,-32723,202933,46538
3114.5,-1806,-32663,202883,46454
3116.5,-1260,-32545,202656,46190
3118.5,-1340,-32548,202591,46101
3120.5,-2109,-33105,202706,46218
3122.5,-2637,-33670,202727,46265
3124.5,-2400,-33633,202544,46109
3126.5,-2020,-33416,202357,45926
3128.5,-2202,-33556,202364,45915
3130.5,-2786,-33847,202470,45998
3132.5,-3118,-33914,202490,46008
3134.5,-2989,-33787,202455,45980
3136.5,-2813,-33788,202401,45926
3138.5,-2795,-34110,202178,45682
3140.5,-2660,-34443,201873,45348
3142.5,-2544,-34376,201871,45331
3144.5,-2985,-34078,202189,45662
3146.5,-3576,-33833,202424,45926
3148.5,-3208,-33423,202445,45956
3150.5,-2138,-32959,202431,45926
3152.5,-1901,-33127,202408,45902
3154.5,-2687,-33753,202355,45872
3156.5,-3073,-33849,202371,45886
3158.5,-2725,-33513,202386,45874
3160.5,-2682,-33561,202286,45777
3162.5,-2877,-33634,202254,45783
3164.5,-2452,-33231,202366,45900
3166.5,-2033,-33246,202308,45808
3168.5,-2464,-34007,202097,45588
3170.5,-2692,-34114,202203,45713
3172.5,-1970,-33245,202560,46059
3174.5,-1631,-32934,202585,46050
3176.5,-2342,-33481,202308,45770
3178.5,-2894,-33677,202249,45731
3180.5,-2799,-33471,202379,45858
3182.5,-2630,-33507,202396,45863
3184.5,-2316,-33440,202421,45905
3186.5,-1938,-33259,202510,46019
3188.5,-2254,-33789,202344,45857
3190.5,-2956,-34617,202006,45513
3192.5,-3142,-34601,201992,45491
3194.5,-3187,-34190,202265,45758
3196.5,-3450,-34276,202377,45875
3198.5,-3100,-34330,202302,45814
3200.5,-2225,-33986,202258,45758
3202.5,-2169,-33966,202224,45690
3204.5,-2932,-34233,202235,45690
3206.5,-3279,-34002,202432,45915
3208.5,-3070,-33609,202632,46140
3210.5,-2946,-33827,202546,46047
3212.5,-2852,-34267,202298,45763
3214.5,-2582,-34342,202158,45554
3216.5,-2441,-34333,202120,45431
3218.5,-2551,-34455,202119,45373
3220.5,-2651,-34481,202184,45425
3222.5,-2699,-34475,202248,45489
3224.53,-2856,-34587,202254,45478
3226.55,-3090,-34544,202342,45546
3228.58,-3227,-34163,202619,45840
3230.6,-3064,-33634,202942,46248
3232.6,-2527,-33117,203138,46599
3234.6,-1962,-32771,203210,46876
3236.6,-1725,-32739,203227,47114
3238.6,-1360,-32626,203204,47320
3240.6,-247,-31944,203181,47549
3242.6,1097,-31077,203248,47893
3244.6,1866,-30562,203408,48346
3246.6,2434,-30044,203517,48760
3248.6,3344,-29222,203429,48982
3250.6,4130,-28575,203172,49010
3252.6,4516,-28203,202936,49012
3254.6,4879,-27635,202912,49179
3256.6,4948,-27174,203096,49486
3258.6,4331,-27454,203249,49649
3260.6,3671,-28111,203122,49413
3262.6,3093,-28715,202688,48771
3264.6,1624,-29678,202080,47857
3266.6,-274,-30855,201421,46819
3268.6,-936,-31373,200782,45823
3270.6,-839,-31576,200222,44979
3272.6,-1715,-32557,199832,44338
3274.6,-2927,-33801,199729,43989
3276.6,-2883,-34012,199935,43989
3278.6,-2384,-33574,200314,44208
3280.6,-2884,-33745,200692,44433
3282.6,-3726,-34484,200978,44571
3284.6,-3828,-34886,201225,44706
3286.6,-3584,-34704,201554,44956
3288.6,-3503,-34396,201889,45240
3290.6,-3322,-34368,202000,45340
3292.6,-2981,-34500,201973,45324
3294.6,-2663,-34310,202106,45450
3296.6,-2291,-33816,202236,45557
3298.6,-2138,-33733,202033,45332
3300.6,-2727,-34190,201846,45119
3302.6,-3553,-34348,202152,45405
3304.6,-3557,-33971,202494,45763
3306.6,-2954,-33864,202275,45573
3308.6,-2822,-34162,201991,45277
3310.6,-3184,-34094,202267,45516
3312.6,-3254,-33756,202563,45794
3314.6,-3069,-33977,202262,45481
3316.6,-3231,-34440,201956,45152
3318.6,-3543,-34198,202276,45459
3320.6,-3333,-33602,202637,45818
3322.6,-2736,-33578,202415,45589
3324.6,-2523,-33900,202099,45296
3326.6,-2848,-33910,202236,45504
3328.6,-3046,-33734,202482,45797
3330.6,-2755,-33634,202472,45742
3332.6,-2546,-33548,202439,45634
3334.6,-2928,-33667,202512,45692
3336.6,-3317,-34105,202442,45647
3338.6,-2960,-34263,202263,45484
3340.6,-2385,-33749,202350,45595
3342.6,-2524,-33221,202669,45956
3344.6,-2968,-33323,202730,46016
3346.6,-2815,-33687,202403,45622
3348.6,-2465,-33771,202152,45312
3350.6,-2791,-33741,202266,45417
3352.6,-3424,-33901,202446,45598
3354.6,-3534,-34066,202403,45544
3356.6,-3270,-34007,202322,45466
3358.6,-3182,-33869,202417,45584
3360.6,-3229,-33825,202523,45717
3362.6,-3135,-33805,202457,45671
3364.63,-2918,-33740,202380,45604
3366.65,-2782,-33703,202509,45731
3368.68,-2929,-33772,202730,45956
3370.7,-3331,-33956,202771,46008
3372.7,-3544,-34129,202628,45849
3374.7,-3161,-34048,202536,45717
3376.7,-2502,-33718,202576,45750
3378.7,-2301,-33545,202619,45826
3380.7,-2631,-33715,202611,45842
3382.7,-2775,-33809,202617,45848
3384.7,-2493,-33540,202654,45883
3386.7,-2507,-33325,202719,45940
3388.7,-3051,-33489,202834,46031
3390.7,-3168,-33615,202943,46119
3392.7,-2462,-33393,202957,46135
3394.7,-2009,-33248,202937,46144
3396.7,-2433,-33456,203000,46240
3398.7,-2843,-33601,203097,46328
3400.7,-2606,-33459,203128,46308
3402.7,-2267,-33367,203140,46296
3404.7,-2148,-33406,203189,46392
3406.7,-1898,-33291,203204,46464
3408.7,-1687,-33132,203168,46423
3410.7,-2053,-33213,203240,46456
3412.7,-2603,-33245,203472,46679
3414.7,-2420,-32847,203649,46867
3416.7,-1626,-32388,203610,46816
3418.7,-1265,-32479,203476,46647
3420.7,-1661,-33024,203367,46513
3422.7,-1950,-33333,203277,46425
3424.7,-1479,-33010,203341,46495
3426.7,-842,-32514,203609,46765
3428.7,-831,-32574,203703,46871
3430.7,-1159,-32986,203453,46646
3432.7,-1250,-32868,203431,46632
3434.7,-1435,-32326,203934,47126
3436.7,-2037,-32346,204297,47500
3438.7,-2362,-32895,204084,47326
3440.7,-1963,-33010,203826,47095
3442.7,-1549,-32606,203889,47147
3444.7,-1562,-32326,203953,47181
3446.7,-1532,-32215,203939,47159
3448.7,-1378,-32064,204120,47367
3450.7,-1513,-32095,204320,47597
3452.7,-1680,-32342,204186,47450
3454.7,-1417,-32394,203950,47161
3456.7,-1101,-32112,204029,47205
3458.7,-1161,-31770,204292,47489
3460.7,-1303,-31631,204359,47612
3462.7,-1387,-31858,204213,47506
3464.7,-1741,-32388,204089,47390
3466.7,-2108,-32751,204065,47360
3468.7,-1788,-32562,204060,47354
3470.7,-1031,-32116,204051,47349
3472.7,-890,-31975,204089,47396
3474.7,-1550,-32151,204171,47477
3476.7,-2029,-32203,204208,47487
3478.7,-1721,-32038,204126,47370
3480.7,-1205,-32049,203948,47179
3482.7,-1250,-32404,203760,47005
3484.7,-1775,-32770,203630,46900
3486.7,-2142,-32842,203572,46883
3488.7,-1970,-32611,203607,46971
3490.7,-1416,-32144,203728,47117
3492.7,-989,-31730,203799,47152
3494.7,-1152,-31904,203697,46982
3496.7,-1739,-32638,203528,46769
3498.7,-2047,-33128,203453,46698
3500.7,-1895,-33018,203419,46698
3502.8,-1863,-32838,203345,46656
3504.8,-2097,-32852,203338,46666
3506.8,-2128,-32811,203442,46777
3508.8,-2070,-32858,203463,46805
3510.8,-2334,-33179,203339,46689
3512.8,-2437,-33237,203298,46669
3514.8,-2002,-32841,203415,46804
3516.8,-1898,-32810,203438,46805
3518.8,-2503,-33299,203298,46603
3520.8,-2711,-33326,203267,46531
3522.8,-2231,-32805,203421,46716
3524.8,-2202,-32735,203517,46869
3526.8,-2567,-33070,203453,46820
3528.8,-2088,-32921,203337,46693
3530.8,-1200,-32525,203219,46581
3532.8,-1380,-32631,203151,46520
3534.8,-2177,-32860,203214,46561
3536.8,-2242,-32634,203309,46633
3538.8,-2110,-32392,203356,46689
3540.8,-2791,-32531,203512,46876
3542.8,-3343,-32678,203742,47128
3544.8,-2747,-32731,203658,47061
3546.8,-2099,-33089,203254,46668
3548.8,-2416,-33572,203038,46460
3550.8,-2614,-33518,203170,46599
3552.8,-1861,-32948,203306,46727
3554.8,-1345,-32537,203339,46735
3556.8,-1904,-32597,203428,46809
3558.8,-2508,-32860,203490,46864
3560.8,-2435,-33029,203416,46757
3562.8,-2349,-33046,203397,46701
3564.8,-2502,-32974,203519,46839
3566.8,-2330,-32862,203565,46934
3568.8,-2056,-32712,203515,46895
3570.8,-2421,-32605,203570,46933
3572.8,-3095,-32670,203668,47039
3574.8,-3188,-32781,203634,47042
3576.8,-2751,-32580,203636,47085
3578.8,-2337,-32065,203845,47318
3580.8,-2022,-31780,203979,47430
3582.8,-1934,-32133,203773,47152
3584.8,-2449,-32752,203507,46829
3586.8,-3107,-32875,203558,46891
3588.8,-2966,-32398,203780,47150
3590.8,-2268,-32013,203796,47176
3592.8,-1918,-31994,203640,47019
3594.8,-1857,-31789,203664,47057
3596.8,-1839,-31384,203908,47315
3598.8,-2294,-31560,204033,47451
3600.8,-2827,-32155,203908,47343
3602.8,-2295,-32085,203760,47197
3604.8,-1213,-31470,203716,47120
3606.8,-1093,-31369,203686,47080
3608.8,-1667,-31657,203701,47158
3610.8,-1852,-31627,203809,47350
3612.8,-1943,-31656,203800,47374
3614.8,-2299,-32134,203545,47118
3616.8,-2277,-32442,203294,46855
3618.8,-1934,-32424,203207,46737
3620.8,-2014,-32657,203138,46638
3622.8,-2182,-32877,203098,46622
3624.8,-1892,-32519,203248,46834
3626.8,-1686,-32153,203408,47018
3628.8,-1809,-32356,203300,46881
3630.8,-1813,-32705,203088,46630
3632.8,-2060,-33065,203024,46532
3634.83,-2853,-33682,203019,46491
3636.85,-3080,-33978,203005,46452
3638.88,-2340,-33573,203088,46538
3640.9,-1974,-33348,203156,46616
3642.9,-2216,-33606,203026,46486
3644.9,-1907,-33428,202890,46356
3646.9,-1558,-32951,202950,46431
3648.9,-2414,-33265,202970,46445
3650.9,-3296,-33916,202792,46230
3652.9,-2648,-33723,202698,46099
3654.9,-1681,-33221,202809,46202
3656.9,-1906,-33431,202816,46212
3658.9,-2479,-33863,202626,46014
3660.9,-2501,-33862,202556,45934
3662.9,-2610,-33867,202701,46095
3664.9,-3060,-34156,202765,46203
3666.9,-3248,-34316,202617,46096
3668.9,-3153,-34195,202472,45966
3670.9,-3046,-33915,202515,46004
3672.9,-2782,-33558,202671,46142
3674.9,-2514,-33540,202747,46189
3676.9,-2515,-34065,202660,46086
3678.9,-2341,-34345,202548,45993
3680.9,-1776,-33821,202570,46060
3682.9,-1633,-33311,202658,46198
3684.9,-2318,-33626,202645,46222
3686.9,-3062,-34320,202522,46101
3688.9,-3210,-34661,202404,45947
3690.9,-2887,-34501,202393,45897
3692.9,-2493,-34076,202497,45981
3694.9,-2451,-33908,202543,46013
3696.9,-2771,-34287,202393,45864
3698.9,-2845,-34597,202270,45786
3700.9,-2543,-34337,202411,45988
3702.9,-2526,-34147,202560,46153
3704.9,-2786,-34403,202440,46010
3706.9,-2610,-34320,202330,45876
3708.9,-2256,-33759,202472,45989
3710.9,-2494,-33737,202554,46028
3712.9,-2914,-34327,202371,45832
3714.9,-2757,-34450,202244,45742
3716.9,-2361,-33937,202376,45897
3718.9,-2247,-33580,202536,46055
3720.9,-2290,-33641,202542,46117
3722.9,-2417,-33902,202447,46128
3724.9,-2540,-34178,202328,46039
3726.9,-2233,-34122,202291,45928
3728.9,-1786,-33760,202390,45964
3730.9,-2057,-33860,202439,46013
3732.9,-2596,-34543,202296,45862
3734.9,-2290,-34810,202171,45697
3736.9,-1749,-34421,202255,45755
3738.9,-2211,-34377,202372,45861
3740.9,-3088,-34949,202345,45805
3742.9,-3328,-35301,202285,45708
3744.9,-3352,-35211,202275,45655
3746.9,-3585,-35209,202229,45549
3748.9,-3534,-35307,202195,45469
3750.9,-3318,-35162,202340,45616
3752.9,-3447,-34860,202614,45915
3754.9,-3335,-34544,202806,46155
3756.9,-2562,-34083,202895,46376
3758.9,-2169,-33569,203040,46756
3760.9,-2581,-33214,203310,47311
3762.9,-2429,-32814,203547,47860
3764.9,-993,-32172,203514,48149
3766.9,558,-31596,203259,48162
3768.9,1317,-31260,203176,48278
3770.9,1826,-30798,203393,48718
3772.9,2585,-30055,203521,49154
3774.93,3106,-29373,203409,49377
3776.95,2966,-28921,203426,49712
3778.98,2712,-28517,203621,50205
3781.0,3062,-28108,203558,50372
3783.0,3697,-27870,203256,50140
3785.0,3687,-28000,203127,49920
3787.0,2948,-28633,202994,49607
3789.0,2134,-29661,202360,48707
3791.0,1209,-30711,201425,47387
3793.0,-324,-31567,200765,46280
3795.0,-1908,-32379,200377,45502
3797.0,-2452,-33273,199951,44760
3799.0,-2178,-34074,199590,44104
3801.0,-2175,-34527,199595,43833
3803.0,-2566,-34601,199930,43950
3805.0,-2713,-34510,200351,44223
3807.0,-2551,-34419,200746,44528
3809.0,-2480,-34298,201109,44841
3811.0,-2620,-34197,201421,45100
3813.0,-2807,-34322,201666,45267
3815.0,-2838,-34587,201854,45380
3817.0,-2677,-34647,201999,45475
3819.0,-2600,-34488,202147,45595
3821.0,-2732,-34387,202328,45778
3823.0,-2781,-34411,202465,45933
3825.0,-2722,-34489,202452,45900
3827.0,-2898,-34678,202311,45698
3829.0,-3229,-34951,202172,45519
3831.0,-3404,-35139,202144,45480
3833.0,-3484,-35127,202250,45575
3835.0,-3344,-34850,202405,45734
3837.0,-2761,-34427,202472,45827
3839.0,-2466,-34304,202426,45772
3841.0,-3119,-34645,202355,45656
3843.0,-3697,-34950,202299,45588
3845.0,-3276,-34960,202254,45570
3847.0,-2866,-35088,202258,45590
3849.0,-3146,-35368,202297,45626
3851.0,-2980,-35181,202287,45619
3853.0,-2113,-34471,202321,45650
3855.0,-2033,-33979,202562,45873
3857.0,-2942,-34091,202821,46130
3859.0,-3292,-34461,202764,46077
3861.0,-2698,-34675,202513,45810
3863.0,-2273,-34671,202442,45727
3865.0,-2454,-34653,202521,45828
3867.0,-2809,-34786,202496,45835
3869.0,-3133,-34919,202432,45781
3871.0,-3296,-34801,202491,45851
3873.0,-3052,-34526,202552,45934
3875.0,-2629,-34371,202500,45898
3877.0,-2485,-34324,202491,45896
3879.0,-2469,-34200,202615,46025
3881.0,-2234,-34056,202707,46103
3883.0,-2076,-34087,202685,46051
3885.0,-2360,-34256,202656,46013
3887.0,-2739,-34400,202627,45986
3889.0,-2875,-34515,202524,45832
3891.0,-3014,-34604,202479,45694
3893.0,-3108,-34534,202609,45789
3895.0,-2677,-34363,202677,45910
3897.0,-2033,-34355,202492,45790
3899.0,-2057,-34475,202341,45659
3901.0,-2625,-34485,202466,45778
3903.0,-2895,-34493,202603,45902
3905.0,-2818,-34711,202550,45824
3907.0,-2901,-34927,202544,45797
3909.0,-3098,-34903,202694,45967
3911.0,-3030,-34763,202779,46116
3913.0,-2689,-34590,202791,46180
3915.03,-2366,-34323,202920,46307
3917.05,-2295,-34163,203037,46396
3919.08,-2429,-34341,202926,46254
3921.1,-2505,-34656,202780,46058
3923.1,-2501,-34814,202874,46090
3925.1,-2630,-34778,203099,46287
3927.1,-2695,-34504,203241,46454
3929.1,-2197,-33948,203303,46570
3931.1,-1377,-33474,203319,46630
3933.1,-1263,-33617,203280,46604
3935.1,-2203,-34297,203281,46591
3937.1,-3127,-34814,203392,46696
3939.1,-2987,-34731,203510,46851
3941.1,-2197,-34301,203577,46975
3943.1,-1760,-33951,203646,47065
3945.1,-1748,-33740,203699,47079
3947.1,-1702,-33557,203722,47054
3949.1,-1634,-33444,203832,47164
3951.1,-1674,-33463,204025,47389
3953.1,-1612,-33496,204103,47472
3955.1,-1354,-33422,204036,47370
3957.1,-1164,-33378,203992,47286
3959.1,-1364,-33610,203994,47265
3961.1,-2005,-34033,203955,47221
3963.1,-2551,-34203,203922,47215
3965.1,-2289,-33954,203941,47298
3967.1,-1534,-33693,203948,47367
3969.1,-1387,-33694,203989,47424
3971.1,-1901,-33665,204142,47556
3973.1,-2012,-33445,204218,47606
3975.1,-1420,-33257,204098,47465
3977.1,-856,-32999,204130,47479
3979.1,-666,-32530,204439,47784
3981.1,-715,-32473,204450,47808
3983.1,-1148,-33187,203983,47360
3985.1,-1937,-33694,203829,47224
3987.1,-2420,-33324,204283,47692
3989.1,-2202,-32972,204508,47918
3991.1,-1760,-33240,204167,47572
3993.1,-1675,-33390,203986,47393
3995.1,-1904,-33156,204223,47624
3997.1,-2022,-33172,204349,47721
3999.1,-1818,-33363,204273,47628
4001.1,-1624,-33275,204272,47655
4003.1,-1829,-33307,204187,47612
4005.1,-2104,-33677,203920,47356
4007.1,-1932,-33651,203871,47295
4009.1,-1681,-33156,204098,47498
4011.1,-1893,-33162,204076,47445
4013.1,-2116,-33802,203667,47022
4015.1,-1865,-34155,203329,46696
4017.1,-1617,-33891,203297,46665
4019.1,-1699,-33507,203374,46716
4021.1,-1749,-33374,203430,46755
4023.1,-1831,-33521,203489,46817
4025.1,-2265,-33736,203510,46842
4027.1,-2528,-33621,203492,46837
4029.1,-2173,-33183,203580,46956
4031.1,-1996,-33047,203796,47182
4033.1,-2605,-33497,203920,47281
4035.1,-3134,-33991,203805,47168
4037.1,-2763,-34107,203557,46972
4039.1,-2066,-34082,203333,46783
4041.1,-1783,-34080,203224,46649
4043.1,-1733,-33912,203261,46638
4045.1,-1728,-33722,203332,46676
4047.1,-2045,-33894,203302,46621
4049.1,-2491,-34204,203254,46556
4051.1,-2466,-34126,203344,46653
4053.1,-2094,-33730,203514,46851
4055.13,-1961,-33419,203629,46991
4057.15,-2068,-33362,203655,47020
4059.18,-2175,-33688,203559,46906
4061.2,-2318,-34280,203387,46715
4063.2,-2319,-34450,203361,46695
4065.2,-2061,-33993,203542,46900
4067.2,-2113,-33808,203645,47025
4069.2,-2583,-34263,203517,46916
4071.2,-2478,-34415,203411,46815
4073.2,-1702,-33917,203500,46885
4075.2,-1636,-33748,203575,46936
4077.2,-2530,-34264,203478,46836
4079.2,-3016,-34591,203418,46785
4081.2,-2704,-34302,203576,46957
4083.2,-2377,-33840,203764,47166
4085.2,-2019,-33437,203763,47159
4087.2,-1426,-33085,203692,47042
4089.2,-1470,-33048,203747,47059
4091.2,-2415,-33342,203850,47165
4093.2,-2913,-33517,203831,47146
4095.2,-2436,-33522,203698,46989
4097.2,-2174,-33675,203600,46886
4099.2,-2413,-33694,203694,47004
4101.2,-2024,-33110,203978,47291
4103.2,-1194,-32505,204154,47443
4105.2,-1376,-32743,204003,47273
4107.2,-2353,-33402,203780,47029
4109.2,-2637,-33561,203791,47012
4111.2,-2371,-33336,203928,47148
4113.2,-2725,-33205,204055,47305
4115.2,-3326,-33026,204239,47502
4117.2,-3076,-32815,204309,47553
4119.2,-2338,-32956,204050,47286
4121.2,-2093,-33128,203829,47095
4123.2,-2250,-32788,204015,47329
4125.2,-2248,-32431,204189,47547
4127.2,-2081,-32610,203953,47345
4129.2,-1903,-32722,203733,47144
4131.2,-1596,-32292,203869,47281
4133.2,-1192,-31946,203981,47387
4135.2,-1107,-32099,203870,47279
4137.2,-1627,-32390,203837,47250
4139.2,-2362,-32744,203817,47234
4141.2,-2564,-33320,203493,46920
4143.2,-2130,-33712,203142,46577
4145.2,-1867,-33639,203218,46625
4147.2,-2330,-33615,203476,46841
4149.2,-2861,-33896,203483,46842
4151.2,-2521,-33980,203346,46726
4153.2,-1638,-33732,203322,46700
4155.2,-1363,-33642,203377,46749
4157.2,-1830,-33785,203429,46829
4159.2,-2048,-33854,203429,46849
4161.2,-1748,-34017,203254,46636
4163.2,-1839,-34528,202989,46313
4165.2,-2582,-34932,202939,46249
4167.2,-2920,-34709,203097,46416
4169.2,-2349,-34246,203115,46426
4171.2,-1924,-34278,202944,46247
4173.2,-2432,-34746,202896,46218
4175.2,-3019,-34979,203020,46365
4177.2,-2733,-34769,203028,46365
4179.2,-2113,-34559,202853,46168
4181.2,-2110,-34635,202743,46046
4183.2,-2586,-34826,202782,46072
4185.23,-2841,-34975,202794,46052
4187.25,-2651,-35058,202720,45935
4189.28,-2246,-34924,202693,45893
4191.3,-2025,-34583,202758,45988
4193.3,-2345,-34461,202812,46084
4195.3,-2986,-34770,202814,46097
4197.3,-3272,-35067,202846,46109
4199.3,-3076,-34999,202920,46173
4201.3,-2908,-34887,202901,46174
4203.3,-2880,-35006,202733,46041
4205.3,-2637,-35072,202589,45929
4207.3,-2320,-34986,202601,45951
4209.3,-2408,-35098,202646,45956
4211.3,-2633,-35278,202647,45879
4213.3,-2270,-35008,202677,45857
4215.3,-1575,-34676,202628,45813
4217.3,-1710,-35084,202406,45617
4219.3,-2893,-35688,202402,45622
4221.3,-3803,-35382,202862,46088
4223.3,-3503,-34680,203171,46420
4225.3,-2816,-34817,202826,46106
4227.3,-2764,-35351,202444,45738
4229.3,-2885,-35078,202655,45947
4231.3,-2513,-34456,202982,46266
4233.3,-2379,-34751,202836,46104
4235.3,-3155,-35618,202565,45805
4237.3,-3747,-35709,202648,45852
4239.3,-3027,-34989,202884,46051
4241.3,-1892,-34608,202937,46081
4243.3,-1688,-34925,202851,46003
4245.3,-2082,-35200,202774,45959
4247.3,-2207,-35030,202734,45943
4249.3,-2352,-34882,202713,45919
4251.3,-2932,-35152,202680,45868
4253.3,-3262,-35516,202652,45828
4255.3,-2752,-35438,202738,45915
4257.3,-2070,-34945,202934,46120
4259.3,-2013,-34647,203018,46202
4261.3,-2334,-35043,202836,45986
4263.3,-2579,-35915,202529,45620
4265.3,-2889,-36522,202349,45379
4267.3,-3189,-36397,202368,45348
4269.3,-2952,-35885,202469,45395
4271.3,-2384,-35705,202535,45407
4273.3,-2351,-35992,202601,45463
4275.3,-2875,-36128,202795,45729
4277.3,-3181,-35688,203139,46209
4279.3,-3106,-35025,203460,46693
4281.3,-3020,-34574,203564,46988
4283.3,-2770,-34171,203491,47148
4285.3,-1919,-33507,203477,47391
4287.3,-681,-32795,203608,47795
4289.3,251,-32466,203713,48202
4291.3,741,-32381,203675,48486
4293.3,1384,-31923,203650,48775
4295.3,2423,-30981,203776,49208
4297.3,3227,-30187,203885,49624
4299.3,3349,-29862,203775,49809
4301.3,3214,-29582,203590,49885
4303.3,3292,-29159,203545,50050
4305.3,3536,-28987,203537,50140
4307.3,3666,-29156,203396,49950
4309.3,3234,-29438,203194,49577
4311.3,1934,-30058,202871,48978
4313.3,361,-31225,202136,47846
4315.3,-556,-32359,201136,46381
4317.3,-942,-32989,200479,45298
4319.3,-1556,-33617,200299,44771
4321.3,-2354,-34564,200211,44387
4323.3,-2731,-35162,200207,44140
4325.33,-2755,-35145,200533,44286
4327.35,-2984,-35350,200919,44521
4329.38,-3407,-36010,201038,44486
4331.4,-3588,-36183,201211,44533
4333.4,-3557,-35707,201698,44956
4335.4,-3553,-35530,202100,45329
4337.4,-3287,-35651,202207,45403
4339.4,-2614,-35285,202366,45522
4341.4,-2253,-34925,202579,45697
4343.4,-2621,-35426,202516,45592
4345.4,-3010,-35967,202405,45458
4347.4,-3003,-35612,202623,45694
4349.4,-3131,-35160,202841,45942
4351.4,-3404,-35282,202744,45837
4353.4,-3136,-35199,202708,45767
4355.4,-2504,-34692,202915,45955
4357.4,-2356,-34711,202927,45968
4359.4,-2659,-35342,202644,45675
4361.4,-2795,-35633,202504,45506
4363.4,-2842,-35444,202629,45592
4365.4,-3229,-35432,202760,45691
4367.4,-3691,-35653,202799,45720
4369.4,-3553,-35598,202767,45692
4371.4,-2769,-35219,202656,45571
4373.4,-2142,-35037,202578,45484
4375.4,-2390,-35379,202619,45546
4377.4,-3164,-35941,202626,45577
4379.4,-3536,-36195,202527,45469
4381.4,-3383,-36014,202561,45481
4383.4,-3286,-35638,202830,45752
4385.4,-3127,-35209,203031,45971
4387.4,-2391,-34779,202939,45897
4389.4,-1697,-34600,202749,45721
4391.4,-2054,-34876,202667,45640
4393.4,-2915,-35306,202640,45591
4395.4,-3097,-35392,202667,45589
4397.4,-2865,-35194,202868,45766
4399.4,-3038,-35200,203107,45990
4401.4,-3323,-35502,203113,45994
4403.4,-3231,-35682,202960,45854
4405.4,-2986,-35537,202866,45774
4407.4,-2680,-35319,202781,45685
4409.4,-2344,-35269,202667,45568
4411.4,-2544,-35297,202735,45643
4413.4,-3167,-35182,202976,45876
4415.4,-3092,-34957,203050,45917
4417.4,-2348,-34918,202901,45735
4419.4,-2225,-35090,202832,45663
4421.4,-2654,-35078,202906,45751
4423.4,-2445,-34833,202887,45739
4425.4,-1931,-34883,202762,45601
4427.4,-2327,-35312,202759,45570
4429.4,-3226,-35472,202929,45725
4431.4,-3434,-35170,203095,45912
4433.4,-3061,-34981,203136,45989
4435.4,-2813,-35133,203073,45941
4437.4,-2699,-35260,202998,45859
4439.4,-2555,-35235,203020,45867
4441.4,-2396,-35176,203164,46003
4443.4,-2045,-34929,203344,46186
4445.4,-1620,-34502,203480,46330
4447.4,-1796,-34451,203556,46389
4449.4,-2590,-34996,203553,46354
4451.4,-3009,-35393,203518,46309
4453.4,-2554,-34999,203559,46371
4455.4,-1891,-34357,203615,46450
4457.4,-1711,-34399,203498,46352
4459.4,-1976,-35044,203304,46180
4461.4,-2336,-35418,203365,46253
4463.5,-2528,-35171,203688,46565
4465.5,-2427,-34704,203949,46807
4467.5,-2139,-34344,204039,46888
4469.5,-1961,-34141,204096,46946
4471.5,-2048,-34208,204113,46967
4473.5,-2181,-34467,204031,46880
4475.5,-2064,-34462,203993,46816
4477.5,-1780,-34050,204083,46887
4479.5,-1606,-33701,204169,47002
4481.5,-1475,-33676,204213,47093
4483.5,-1249,-33705,204301,47186
4485.5,-1250,-33713,204358,47229
4487.5,-1611,-33913,204272,47170
4489.5,-1686,-34121,204162,47105
4491.5,-1285,-34021,204162,47108
4493.5,-1385,-33902,204239,47156
4495.5,-2272,-34100,204377,47290
4497.5,-2630,-34241,204577,47514
4499.5,-1864,-33984,204686,47654
4501.5,-1192,-33754,204613,47613
4503.5,-1351,-33893,204530,47545
4505.5,-1601,-34024,204554,47542
4507.5,-1547,-33873,204535,47475
4509.5,-1554,-33761,204375,47291
4511.5,-1554,-33864,204237,47145
4513.5,-1371,-33907,204269,47169
4515.5,-1335,-33789,204389,47292
4517.5,-1377,-33737,204416,47334
4519.5,-1142,-33808,204329,47262
4521.5,-1247,-33925,204283,47243
4523.5,-2267,-34194,204331,47329
4525.5,-2983,-34516,204334,47343
4527.5,-2148,-34385,204247,47235
4529.5,-948,-33831,204179,47159
4531.5,-1084,-33684,204118,47112
4533.5,-1864,-34135,203983,46980
4535.5,-1809,-34365,203878,46869
4537.5,-1459,-34145,203928,46923
4539.5,-1909,-34114,204040,47035
4541.5,-2407,-34286,204063,47051
4543.5,-1989,-34155,203978,46975
4545.5,-1589,-33997,203847,46869
4547.5,-2198,-34339,203732,46769
4549.5,-2909,-34812,203627,46665
4551.5,-2663,-34809,203498,46536
4553.5,-1991,-34400,203451,46492
4555.5,-1718,-33983,203577,46619
4557.5,-1761,-33860,203686,46723
4559.5,-1868,-34101,203617,46644
4561.5,-2006,-34347,203564,46574
4563.5,-2021,-34302,203626,46609
4565.5,-2003,-34377,203530,46488
4567.5,-2341,-34888,203239,46201
4569.5,-2754,-35121,203172,46162
4571.5,-2469,-34461,203459,46464
4573.5,-1774,-33722,203662,46664
4575.5,-1787,-33934,203509,46522
4577.5,-2512,-34660,203299,46324
4579.5,-2922,-34851,203340,46335
4581.5,-2823,-34468,203505,46450
4583.5,-2811,-34088,203560,46503
4585.5,-2796,-33898,203514,46518
4587.5,-2335,-33928,203449,46519
4589.5,-1759,-34216,203384,46480
4591.5,-1625,-34371,203406,46492
4593.5,-1836,-34088,203578,46648
4595.53,-2085,-33832,203744,46809
4597.55,-2273,-33992,203738,46806
4599.58,-2311,-34193,203625,46696
4601.6,-2221,-34172,203517,46586
4603.6,-2151,-34181,203418,46466
4605.6,-2085,-34265,203362,46368
4607.6,-2039,-34243,203427,46388
4609.6,-2209,-34178,203584,46515
4611.6,-2473,-34139,203726,46636
4613.6,-2469,-34113,203772,46664
4615.6,-2269,-34217,203716,46604
4617.6,-2180,-34331,203691,46589
4619.6,-2223,-34080,203866,46771
4621.6,-2402,-33673,204135,47052
4623.6,-2690,-33689,204174,47121
4625.6,-2646,-33912,203928,46898
4627.6,-2079,-33696,203742,46690
4629.6,-1697,-33282,203818,46710
4631.6,-2069,-33429,203903,46762
4633.6,-2691,-34049,203767,46641
4635.6,-2864,-34271,203653,46553
4637.6,-2543,-33684,203861,46765
4639.6,-1951,-32865,204167,47070
4641.6,-1363,-32567,204186,47107
4643.6,-1234,-32749,204037,46984
4645.6,-1675,-32891,204047,47002
4647.6,-2178,-32989,204079,47029
4649.6,-2375,-33331,203869,46812
4651.6,-2343,-33597,203637,46573
4653.6,-2131,-33359,203676,46614
4655.6,-1887,-33069,203792,46750
4657.6,-2004,-33254,203752,46737
4659.6,-2331,-33481,203695,46710
4661.6,-2315,-33347,203702,46759
4663.6,-2205,-33347,203616,46703
4665.6,-2487,-33692,203462,46539
4667.6,-2579,-33763,203388,46444
4669.6,-2034,-33514,203288,46344
4671.6,-1765,-33672,203080,46134
4673.6,-2253,-34189,203009,46041
4675.6,-2556,-34311,203137,46172
4677.6,-2253,-34035,203166,46250
4679.6,-1921,-33823,203087,46203
4681.6,-1616,-33643,203204,46303
4683.6,-1363,-33542,203426,46508
4685.6,-1914,-33903,203428,46507
4687.6,-2886,-34416,203299,46337
4689.6,-2598,-34391,203219,46188
4691.6,-1301,-34150,203035,45994
4693.6,-1201,-34376,202801,45801
4695.6,-2462,-34739,202854,45856
4697.6,-3049,-34751,203048,46001
4699.6,-2618,-34836,202931,45870
4701.6,-2590,-35210,202680,45652
4703.6,-2950,-35209,202743,45738
4705.6,-2666,-34693,202931,45921
4707.6,-2171,-34458,202868,45852
4709.6,-2401,-34761,202727,45707
4711.6,-2848,-35054,202724,45683
4713.6,-2708,-35144,202641,45573
4715.6,-2295,-35164,202432,45351
4717.6,-2212,-34967,202462,45377
4719.6,-2541,-34681,202762,45673
4721.6,-3010,-34850,202887,45795
4723.6,-3074,-35313,202702,45611
4725.6,-2485,-35300,202552,45479
4727.6,-1970,-34873,202607,45567
4729.6,-2221,-34817,202649,45632
4731.6,-2736,-35173,202553,45527
4733.6,-2802,-35265,202490,45437
4735.63,-2579,-34938,202599,45532
4737.65,-2415,-34718,202716,45651
4739.68,-2376,-34915,202627,45554
4741.7,-2603,-35244,202436,45344
4743.7,-2960,-35352,202394,45291
4745.7,-2921,-35356,202440,45344
4747.7,-2677,-35519,202383,45300
4749.7,-3013,-35664,202376,45314
4751.7,-3669,-35480,202620,45585
4753.7,-3629,-35185,202842,45819
4755.7,-3047,-35205,202708,45666
4757.7,-2846,-35460,202411,45345
4759.7,-2855,-35513,202308,45235
4761.7,-2409,-35212,202394,45325
4763.7,-2025,-34902,202506,45441
4765.7,-2471,-35012,202576,45522
4767.7,-3142,-35432,202533,45500
4769.7,-3050,-35555,202353,45327
4771.7,-2433,-35233,202182,45138
4773.7,-2144,-35080,202168,45094
4775.7,-2367,-35424,202252,45165
4777.7,-2709,-35744,202281,45214
4779.7,-2781,-35571,202237,45200
4781.7,-2428,-35081,202279,45251
4783.7,-1928,-34637,202513,45476
4785.7,-1896,-34509,202750,45698
4787.7,-2523,-34842,202737,45652
4789.7,-3120,-35317,202562,45428
4791.7,-2952,-35416,202459,45288
4793.7,-2337,-35323,202360,45152
4795.7,-2210,-35584,202145,44858
4797.7,-2706,-35955,202049,44670
4799.7,-3114,-35900,202263,44865
4801.7,-3128,-35731,202526,45198
4803.7,-2990,-35766,202629,45404
4805.7,-2636,-35361,202788,45690
4807.7,-1905,-34259,203085,46170
4809.7,-1259,-33433,203208,46520
4811.7,-1078,-33328,203078,46636
4813.7,-771,-33067,203020,46868
4815.7,199,-32261,203161,47359
4817.7,1197,-31652,203315,47872
4819.7,1582,-31494,203367,48263
4821.7,1952,-31125,203301,48548
4823.7,2805,-30315,203114,48717
4825.7,3395,-29556,202958,48862
4827.7,3400,-29051,202998,49132
4829.7,3757,-28525,203146,49453
4831.7,4473,-28044,203262,49649
4833.7,4137,-28152,203326,49659
4835.7,2651,-29061,203195,49364
4837.7,1492,-30331,202642,48559
4839.7,864,-31488,201773,47328
4841.7,-230,-32425,200957,46080
4843.7,-1494,-33153,200382,45097
4845.7,-1923,-33728,199989,44343
4847.7,-1900,-34290,199731,43752
4849.7,-2270,-34775,199669,43419
4851.7,-2814,-34989,199831,43409
4853.7,-3144,-35086,200131,43593
4855.7,-3431,-35319,200477,43831
4857.7,-3575,-35494,200860,44126
4859.7,-3295,-35410,201232,44432
4861.7,-2975,-35343,201474,44617
4863.7,-3026,-35441,201651,44754
4865.73,-3027,-35379,201934,45016
4867.75,-2582,-35089,202203,45252
4869.78,-2139,-34932,202206,45193
4871.8,-2197,-34961,202101,45015
4873.8,-2517,-34912,202195,45050
4875.8,-2582,-34788,202352,45185
4877.8,-2298,-34709,202344,45188
4879.8,-2106,-34644,202334,45189
4881.8,-2445,-34753,202390,45228
4883.8,-2943,-35182,202224,45041
4885.8,-2828,-35448,201939,44763
4887.8,-2488,-35198,202043,44885
4889.8,-3062,-35075,202421,45257
4891.8,-4066,-35485,202460,45266
4893.8,-3862,-35651,202191,44977
4895.8,-2735,-35186,202115,44908
4897.8,-2392,-34840,202244,45049
4899.8,-2712,-34849,202311,45110
4901.8,-2506,-34720,202361,45146
4903.8,-2372,-34690,202448,45229
4905.8,-3186,-35097,202438,45230
4907.8,-3711,-35231,202364,45171
4909.8,-2931,-34822,202328,45141
4911.8,-2164,-34813,202251,45055
4913.8,-2443,-35341,202166,44970
4915.8,-2858,-35398,202263,45089
4917.8,-2877,-34957,202477,45316
4919.8,-3149,-34861,202603,45439
4921.8,-3539,-35016,202679,45531
4923.8,-3291,-34925,202710,45602
4925.8,-2766,-34906,202510,45423
4927.8,-2747,-35202,202174,45081
4929.8,-3045,-35383,202056,44958
4931.8,-3245,-35367,202146,45029
4933.8,-3379,-35457,202163,44982
4935.8,-3277,-35438,202139,44887
4937.8,-2815,-35096,202258,44981
4939.8,-2533,-34879,202403,45148
4941.8,-2651,-34982,202411,45197
4943.8,-2580,-34937,202392,45224
4945.8,-2363,-34745,202433,45301
4947.8,-2756,-34945,202403,45279
4949.8,-3348,-35335,202257,45119
4951.8,-3004,-35159,202200,45040
4953.8,-2229,-34530,202394,45208
4955.8,-2365,-34265,202669,45455
4957.8,-2967,-34552,202692,45462
4959.8,-2840,-34912,202447,45230
4961.8,-2526,-35080,202328,45132
4963.8,-2881,-35006,202541,45341
4965.8,-2998,-34577,202777,45553
4967.8,-2243,-33994,202786,45554
4969.8,-1854,-33761,202762,45543
4971.8,-2325,-33897,202844,45630
4973.8,-2301,-33936,202847,45618
4975.8,-1615,-33829,202762,45517
4977.8,-1804,-33976,202835,45582
4979.8,-2811,-34336,203029,45781
4981.8,-2915,-34417,203091,45860
4983.8,-2081,-34179,203042,45838
4985.8,-1808,-34117,203052,45880
4987.8,-2164,-34340,203099,45946
4989.8,-2148,-34361,203178,46006
4991.8,-2002,-34026,203396,46176
4993.8,-2382,-33815,203619,46364
4995.83,-2533,-33905,203567,46319
4997.85,-1711,-33875,203344,46115
4999.88,-994,-33658,203284,46063
5001.9,-1464,-33695,203400,46193
5003.9,-2150,-33900,203466,46289
5005.9,-1834,-33737,203477,46311
5007.9,-1237,-33311,203590,46391
5009.9,-1391,-33148,203786,46550
5011.9,-1681,-33199,203897,46661
5013.9,-1380,-33159,203860,46639
5015.9,-1172,-33146,203793,46564
5017.9,-1582,-33249,203831,46599
5019.9,-1868,-33222,203927,46743
5021.9,-1579,-33027,203933,46813
5023.9,-1352,-32882,203877,46773
5025.9,-1504,-32843,203909,46782
5027.9,-1515,-32886,203974,46840
5029.9,-1195,-33012,203921,46801
5031.9,-1046,-33056,203855,46746
5033.9,-1337,-32945,203938,46833
5035.9,-1669,-32918,204038,46937
5037.9,-1580,-33020,204007,46906
5039.9,-1156,-32996,203965,46858
5041.9,-942,-32975,203958,46859
5043.9,-1279,-33331,203836,46763
5045.9,-1793,-33772,203650,46609
5047.9,-1761,-33604,203639,46616
5049.9,-1133,-32919,203779,46752
5051.9,-715,-32514,203857,46808
5053.9,-1042,-32652,203865,46791
5055.9,-1703,-32901,203889,46808
5057.9,-2202,-33105,203852,46794
5059.9,-2537,-33437,203700,46665
5061.9,-2514,-33631,203547,46505
5063.9,-1791,-33400,203423,46352
5065.9,-1016,-33291,203205,46135
5067.9,-1287,-33762,202962,45952
5069.9,-2219,-34072,202977,46026
5071.9,-2442,-33596,203236,46279
5073.9,-1984,-33116,203339,46345
5075.9,-1986,-33301,203147,46147
5077.9,-2341,-33462,202989,45996
5079.9,-2075,-33150,203032,46033
5081.9,-1509,-33082,203018,46044
5083.9,-1642,-33491,202830,45913
5085.9,-2172,-33627,202721,45813
5087.9,-2254,-33382,202795,45835
5089.9,-2063,-33388,202833,45848
5091.9,-1999,-33537,202762,45809
5093.9,-1807,-33298,202776,45843
5095.9,-1541,-33009,202906,45947
5097.9,-1714,-33244,202962,45962
5099.9,-2113,-33693,202903,45890
5101.9,-2138,-33886,202853,45868
5103.9,-2011,-33980,202837,45896
5105.9,-2108,-34012,202844,45916
5107.9,-2075,-33656,202925,45967
5109.9,-1855,-33204,202980,45985
5111.9,-2045,-33292,202866,45847
5113.9,-2455,-33582,202789,45754
5115.9,-2310,-33385,202985,45955
5117.9,-2014,-33183,203154,46162
5119.9,-2425,-33680,202948,46003
5121.9,-2930,-34236,202667,45747
5123.9,-2648,-34047,202703,45794
5125.9,-2283,-33612,202875,45971
5127.9,-2566,-33511,202950,46026
5129.9,-2660,-33398,203040,46076
5131.9,-1936,-33131,203112,46110
5133.9,-1286,-33119,202994,45970
5135.93,-1438,-33253,202910,45884
5137.95,-1898,-33139,203094,46095
5139.98,-2112,-33004,203201,46247
5142.0,-2085,-33062,202976,46052
5144.0,-1886,-32939,202826,45900
5146.0,-1704,-32619,203003,46052
5148.0,-1873,-32632,203146,46157
5150.0,-2239,-32889,203110,46094
5152.0,-2284,-32840,203182,46154
5154.0,-2060,-32698,203250,46206
5156.0,-2013,-32903,202972,45912
5158.0,-2099,-32954,202702,45658
5160.0,-2066,-32400,202995,45992
5162.0,-2079,-32020,203480,46496
5164.0,-2237,-32449,203461,46466
5166.0,-2255,-32923,203122,46122
5168.0,-2114,-32698,203048,46059
5170.0,-2120,-32274,203174,46199
5172.0,-2271,-32230,203160,46197
5174.0,-2412,-32309,203094,46139
5176.0,-2609,-32226,203143,46171
5178.0,-2690,-32118,203145,46150
5180.0,-2279,-32021,202997,46020
5182.0,-1707,-31866,202869,45950
5184.0,-1746,-31813,202868,45996
5186.0,-2257,-31967,202914,46062
5188.0,-2396,-32141,202886,46058
5190.0,-2090,-32198,202713,45912
5192.0,-1903,-32146,202511,45684
5194.0,-1784,-31942,202528,45631
5196.0,-1420,-31693,202750,45825
5198.0,-1206,-31739,202851,45977
5200.0,-1497,-32134,202735,45924
5202.0,-1784,-32510,202630,45845
5204.0,-1752,-32662,202629,45847
5206.0,-1848,-32724,202626,45817
5208.0,-2114,-32779,202606,45733
5210.0,-2062,-32828,202590,45678
5212.0,-1900,-32943,202524,45641
5214.0,-2089,-33094,202429,45570
5216.0,-2144,-33094,202385,45488
5218.0,-1687,-32932,202362,45428
5220.0,-1561,-32896,202265,45349
5222.0,-2221,-33196,202059,45159
5224.0,-2718,-33631,201804,44898
5226.0,-2571,-33773,201698,44807
5228.0,-2516,-33511,201877,44996
5230.0,-2665,-33188,202096,45160
5232.0,-2349,-33088,202028,45018
5234.0,-1866,-33150,201794,44786
5236.0,-2023,-33324,201714,44753
5238.0,-2446,-33674,201757,44803
5240.0,-2408,-33993,201759,44792
5242.0,-2315,-33974,201808,44868
5244.0,-2733,-33819,201919,45019
5246.0,-3145,-33946,201862,44963
5248.0,-2960,-34192,201640,44727
5250.0,-2589,-34124,201577,44663
5252.0,-2594,-33858,201721,44797
5254.0,-2714,-33742,201790,44853
5256.0,-2538,-33717,201730,44803
5258.0,-2363,-33697,201727,44810
5260.0,-2619,-33854,201792,44849
5262.0,-3044,-34035,201863,44892
5264.0,-3134,-33843,201984,45032
5266.03,-2865,-33480,202033,45117
5268.05,-2462,-33458,201777,44862
5270.08,-2158,-33676,201426,44477
5272.1,-2378,-33814,201434,44442
5274.1,-3216,-34033,201700,44686
5276.1,-3815,-34343,201752,44761
5278.1,-3381,-34241,201614,44665
5280.1,-2450,-33654,201680,44744
5282.1,-2031,-33184,201932,44981
5284.1,-2146,-33147,202005,45055
5286.1,-2289,-33371,201803,44882
5288.1,-2418,-33666,201571,44664
5290.1,-2580,-33814,201523,44587
5292.1,-2535,-33683,201640,44657
5294.1,-2296,-33532,201764,44757
5296.1,-2183,-33491,201819,44804
5298.1,-2248,-33326,201840,44801
5300.1,-2346,-33228,201792,44728
5302.1,-2451,-33591,201656,44611
5304.1,-2480,-33931,201629,44636
5306.1,-2410,-33680,201789,44833
5308.1,-2518,-33423,201830,44860
5310.1,-2803,-33643,201611,44577
5312.1,-2778,-33682,201486,44367
5314.1,-2475,-33327,201613,44449
5316.1,-2541,-33410,201682,44523
5318.1,-2935,-33998,201587,44421
5320.1,-2969,-34279,201521,44311
5322.1,-2648,-34298,201397,44155
5324.1,-2484,-34590,201090,43830
5326.1,-2567,-34783,200967,43660
5328.1,-2952,-34440,201346,43993
5330.1,-3695,-34021,201875,44537
5332.1,-3983,-33787,202104,44839
5334.1,-3027,-33293,202121,44966
5336.1,-1752,-32556,202189,45189
5338.1,-1480,-32139,202291,45492
5340.1,-1648,-31980,202303,45757
5342.1,-942,-31493,202259,46028
5344.1,423,-30601,202303,46411
5346.1,1464,-29758,202442,46866
5348.1,2212,-29229,202448,47188
5350.1,3069,-28853,202216,47285
5352.1,3539,-28380,202067,47426
5354.1,3111,-27842,202294,47883
5356.1,2556,-27456,202635,48438
5358.1,2895,-27226,202690,48684
5360.1,3676,-27091,202482,48586
5362.1,3725,-27358,202164,48280
5364.1,3075,-28218,201706,47716
5366.1,2612,-29076,201152,46891
5368.1,2264,-29359,200653,45983
5370.1,1209,-29575,200157,45051
5372.1,-444,-30515,199555,44052
5374.1,-1723,-31938,199019,43150
5376.1,-2279,-33010,198793,42611
5378.1,-2549,-33447,198887,42495
5380.1,-2741,-33480,199201,42678
5382.1,-2726,-33310,199648,43013
5384.1,-2605,-33072,200103,43364
5386.1,-2590,-32908,200469,43649
5388.1,-2684,-32955,200724,43823
5390.1,-2832,-33273,200844,43842
5392.1,-2887,-33567,200884,43797
5394.1,-2588,-33365,201020,43879
5396.1,-2195,-32910,201262,44060
5398.1,-2441,-33039,201393,44136
5400.1,-3216,-33757,201369,44116
5402.1,-3541,-34165,201340,44140
5404.2,-3245,-34014,201285,44120
5406.2,-3020,-33845,201137,43975
5408.2,-2902,-33715,201095,43931
5410.2,-2633,-33382,201297,44117
5412.2,-2796,-33244,201521,44285
5414.2,-3580,-33560,201609,44295
5416.2,-3809,-33679,201706,44330
5418.2,-2991,-33294,201829,44435
5420.2,-2399,-33153,201771,44410
5422.2,-2755,-33585,201546,44240
5424.2,-3117,-33922,201365,44101
5426.2,-2914,-33864,201251,44013
5428.2,-2705,-33751,201164,43944
5430.2,-2625,-33517,201248,44001
5432.2,-2299,-33004,201508,44176
5434.2,-2113,-32745,201656,44259
5436.2,-2582,-33069,201595,44210
5438.2,-3067,-33389,201566,44224
5440.2,-2907,-33348,201637,44326
5442.2,-2810,-33414,201609,44344
5444.2,-3405,-33731,201472,44266
5446.2,-3824,-33761,201411,44224
5448.2,-3335,-33350,201433,44213
5450.2,-2700,-32907,201451,44161
5452.2,-2531,-32550,201536,44151
5454.2,-2380,-32197,201717,44246
5456.2,-2277,-32210,201783,44296
5458.2,-2714,-32807,201618,44175
5460.2,-3032,-33293,201459,44063
5462.2,-2500,-33060,201552,44192
5464.2,-2190,-32745,201757,44423
5466.2,-3028,-33105,201767,44426
5468.2,-3684,-33527,201589,44225
5470.2,-3002,-33157,201497,44124
5472.2,-2158,-32541,201560,44158
5474.2,-2236,-32506,201601,44121
5476.2,-2353,-32617,201592,44054
5478.2,-1889,-32351,201656,44145
5480.2,-1882,-32362,201763,44313
5482.2,-2959,-33077,201799,44386
5484.2,-4091,-33636,201807,44407
5486.2,-4170,-33381,201819,44420
5488.2,-3328,-32839,201719,44293
5490.2,-2407,-32577,201524,44042
5492.2,-2039,-32544,201464,43921
5494.2,-2260,-32698,201618,44040
5496.2,-2621,-33036,201817,44234
5498.2,-2801,-33238,201946,44384
5500.2,-2964,-33148,202017,44514
5502.2,-3180,-33082,202019,44603
5504.2,-3060,-33136,201975,44613
5506.2,-2500,-32960,202021,44637
5508.2,-2063,-32491,202191,44744
5510.2,-2097,-32129,202331,44812
5512.2,-2254,-32074,202360,44757
5514.2,-2225,-32135,202377,44711
5516.2,-2165,-32170,202438,44783
5518.2,-2213,-32255,202483,44880
5520.2,-2180,-32371,202494,44915
5522.2,-1758,-32220,202531,44961
5524.2,-1063,-31669,202640,45094
5526.2,-906,-31231,202795,45259
5528.2,-1675,-31410,202894,45332
5530.2,-2203,-31659,202859,45270
5532.2,-1493,-31197,202789,45187
5534.2,-850,-30633,202845,45216
5536.23,-1763,-31117,202913,45263
5538.25,-2977,-32137,202744,45103
5540.28,-2622,-32146,202499,44835
5542.3,-1382,-31046,202614,44825
5544.3,-778,-30136,203037,45097
5546.3,-727,-30080,203296,45317
5548.3,-938,-30578,203352,45451
5550.3,-1877,-31405,203498,45725
5552.3,-3013,-32385,203553,45951
5554.3,-2976,-32936,203166,45773
5556.3,-1836,-32605,202657,45405
5558.3,-802,-31573,202566,45291
5560.3,-236,-30398,202777,45342
5562.3,18,-29737,202850,45222
5564.3,-372,-29929,202794,45010
5566.3,-1288,-30458,202898,45027
5568.3,-1731,-30655,203162,45295
5570.3,-1454,-30890,203260,45505
5572.3,-1362,-31707,203017,45443
5574.3,-1697,-32323,202679,45258
5576.3,-1713,-31876,202529,45169
5578.3,-1362,-31072,202486,45099
5580.3,-1272,-30733,202442,44950
5582.3,-1269,-30387,202548,44900
5584.3,-962,-29879,202761,44990
5586.3,-994,-30104,202783,44965
5588.3,-1794,-31072,202679,44863
5590.3,-2440,-31705,202716,44975
5592.3,-2312,-31804,202679,45115
5594.3,-2090,-31908,202330,44939
5596.3,-2153,-31793,202075,44724
5598.3,-1974,-31158,202204,44777
5600.3,-1605,-30716,202242,44697
5602.3,-1789,-30999,201934,44238
5604.3,-2349,-31309,201830,43985
5606.3,-2307,-31033,202210,44288
5608.3,-1824,-30864,202503,44605
5610.3,-2066,-31579,202310,44527
5612.3,-2758,-32409,202020,44411
5614.3,-2388,-32112,202026,44537
5616.3,-1336,-31176,202116,44608
5618.3,-1560,-31050,202001,44397
5620.3,-2743,-31530,201853,44168
5622.3,-2727,-31287,201966,44214
5624.3,-1655,-30541,202191,44388
5626.3,-1384,-30577,202149,44357
5628.3,-1826,-31207,201923,44180
5630.3,-1910,-31286,201998,44288
5632.3,-2152,-30945,202377,44689
5634.3,-2936,-31128,202417,44755
5636.3,-3097,-31712,201906,44236
5638.3,-2397,-31802,201522,43802
5640.3,-2250,-31324,201726,43943
5642.3,-2944,-31047,202050,44207
5644.3,-3186,-31283,202028,44139
5646.3,-2593,-31540,201879,43991
5648.3,-2059,-31502,201844,43998
5650.3,-2047,-31480,201807,43990
5652.3,-2342,-31671,201786,43966
5654.3,-2754,-31760,201921,44080
5656.3,-2843,-31540,202036,44173
5658.3,-2186,-31250,201980,44105
5660.3,-1528,-31160,201977,44096
5662.3,-1913,-31218,202131,44225
5664.3,-2592,-31186,202188,44250
5666.3,-2260,-31025,202069,44130
5668.3,-1724,-30982,201991,44068
5670.3,-2315,-31118,202050,44097
5672.3,-3104,-31141,202176,44160
5674.4,-2891,-31016,202303,44273
5676.4,-2628,-31055,202352,44350
5678.4,-3084,-31155,202321,44300
5680.4,-3164,-30937,202333,44241
5682.4,-2529,-30663,202365,44242
5684.4,-2443,-30813,202261,44171
5686.4,-3021,-31080,202108,44057
5688.4,-2995,-30967,202121,44066
5690.4,-2288,-30720,202227,44124
5692.4,-1906,-30613,202256,44098
5694.4,-1873,-30318,202275,44087
5696.4,-1650,-29830,202346,44150
5698.4,-1571,-29791,202392,44191
5700.4,-2006,-30237,202433,44231
5702.4,-2366,-30417,202474,44275
5704.4,-2314,-30180,202386,44165
5706.4,-2439,-30086,202265,44012
5708.4,-2833,-30173,202369,44133
5710.4,-2769,-30096,202513,44330
5712.4,-2254,-30042,202338,44178
5714.4,-1997,-30183,202083,43924
5716.4,-1948,-30084,202163,44015
5718.4,-1745,-29684,202349,44199
5720.4,-1824,-29647,202266,44112
5722.4,-2368,-30078,202105,43981
5724.4,-2503,-30316,202084,43982
5726.4,-1881,-30184,202001,43857
5728.4,-1388,-30049,201816,43617
5730.4,-1521,-29962,201813,43598
5732.4,-1797,-29913,201951,43730
5734.4,-1927,-30160,201910,43678
5736.4,-2115,-30608,201741,43517
5738.4,-2418,-30845,201724,43508
5740.4,-2636,-30866,201811,43579
5742.4,-2551,-30835,201801,43552
5744.4,-2256,-30702,201736,43477
5746.4,-2280,-30690,201722,43428
5748.4,-2724,-31062,201686,43345
5750.4,-2781,-31336,201559,43192
5752.4,-2203,-31090,201424,43034
5754.4,-1988,-30854,201403,42971
5756.4,-2467,-30991,201501,43037
5758.4,-2657,-31062,201571,43101
5760.4,-2386,-31073,201449,42975
5762.4,-2657,-31512,201196,42702
5764.4,-3399,-31986,201047,42519
5766.4,-3458,-31786,201049,42485
5768.4,-2863,-31331,201056,42469
5770.4,-2624,-31267,201072,42469
5772.4,-2709,-31263,201174,42536
5774.4,-2492,-31030,201252,42567
5776.4,-2314,-30982,201235,42526
5778.4,-2640,-31144,201268,42562
5780.4,-2874,-31058,201358,42660
5782.4,-2603,-30885,201338,42649
5784.4,-2502,-31071,201268,42589
5786.4,-2932,-31381,201288,42602
5788.4,-3297,-31404,201282,42566
5790.4,-3310,-31264,201191,42444
5792.4,-3303,-31215,201194,42426
5794.4,-3299,-31287,201264,42481
5796.4,-3079,-31428,201186,42381
5798.4,-2817,-31524,201014,42183
5800.4,-2773,-31534,200905,42072
5802.4,-2851,-31561,200840,42032
5804.4,-2840,-31504,200876,42070
5806.43,-2739,-31191,201106,42259
5808.45,-2683,-30991,201285,42396
5810.48,-2718,-31281,201164,42263
5812.5,-2795,-31588,201021,42110
5814.5,-3001,-31431,201181,42236
5816.5,-3426,-31278,201408,42425
5818.5,-3707,-31534,201369,42368
5820.5,-3391,-31711,201201,42211
5822.5,-2841,-31547,201144,42186
5824.5,-2807,-31552,201124,42180
5826.5,-3141,-31773,201074,42088
5828.5,-3089,-31580,201145,42091
5830.5,-2713,-31114,201312,42219
5832.5,-2719,-31252,201267,42162
5834.5,-3018,-31894,200959,41834
5836.5,-2926,-32006,200749,41596
5838.5,-2641,-31479,200850,41682
5840.5,-2934,-31199,201089,41922
5842.5,-3517,-31301,201315,42151
5844.5,-3445,-31093,201552,42393
5846.5,-2872,-30567,201701,42538
5848.5,-2699,-30402,201569,42370
5850.5,-2995,-30753,201219,41949
5852.5,-3214,-31217,200911,41564
5854.5,-3252,-31568,200759,41347
5856.5,-3246,-31756,200728,41255
5858.5,-3233,-31823,200800,41262
5860.5,-3405,-32015,200921,41331
5862.5,-3751,-32265,201038,41429
5864.5,-3751,-31990,201248,41658
5866.5,-3290,-31149,201575,42039
5868.5,-2977,-30537,201788,42355
5870.5,-2922,-30322,201815,42531
5872.5,-2471,-29762,201922,42808
5874.5,-1507,-28857,202127,43201
5876.5,-674,-28477,202101,43401
5878.5,-226,-28614,201863,43419
5880.5,302,-28362,201766,43595
5882.5,1302,-27559,201776,43910
5884.5,2504,-26753,201640,44114
5886.5,3233,-25995,201536,44328
5888.5,3285,-25117,201680,44717
5890.5,3374,-24487,201744,44944
5892.5,4091,-24369,201446,44726
5894.5,4789,-24463,201127,44401
5896.5,4520,-24714,201065,44259
5898.5,3569,-25446,200920,43971
5900.5,2788,-26401,200402,43232
5902.5,1932,-27043,199775,42298
5904.5,253,-27719,199295,41461
5906.5,-1684,-28993,198843,40657
5908.5,-2583,-30280,198413,39907
5910.5,-2504,-30736,198306,39516
5912.5,-2587,-30714,198633,39587
5914.5,-3147,-30930,199093,39831
5916.5,-3629,-31168,199431,40004
5918.5,-3711,-30914,199754,40204
5920.5,-3318,-30391,200232,40573
5922.5,-2636,-30204,200699,40946
5924.5,-2392,-30518,200867,41059
5926.5,-2864,-30981,200776,40936
5928.5,-3294,-31269,200681,40798
5930.5,-3344,-31429,200671,40732
5932.5,-3523,-31481,200748,40762
5934.5,-3697,-31192,200977,40952
5936.5,-3427,-30726,201273,41200
5938.5,-3378,-30698,201407,41292
5940.5,-3988,-31078,201376,41237
5942.5,-4139,-31144,201346,41191
5944.5,-3330,-30857,201321,41144
5946.5,-2936,-30925,201252,41047
5948.5,-3607,-31346,201261,41011
5950.5,-4056,-31368,201414,41099
5952.5,-3568,-30902,201548,41176
5954.5,-3069,-30647,201523,41126
5956.53,-3175,-30859,201416,41013
5958.55,-3471,-31117,201377,40964
5960.58,-3713,-31189,201424,40996
5962.6,-3941,-31211,201453,41004
5964.6,-3842,-31178,201389,40905
5966.6,-3311,-30979,201283,40762
5968.6,-2950,-30768,201252,40715
5970.6,-3160,-30746,201350,40816
5972.6,-3509,-30798,201517,40985
5974.6,-3571,-30758,201618,41077
5976.6,-3582,-30772,201547,40994
5978.6,-3742,-30948,201366,40795
5980.6,-3680,-30978,201269,40659
5982.6,-3276,-30706,201319,40656
5984.6,-3151,-30643,201330,40634
5986.6,-3448,-31051,201181,40491
5988.6,-3285,-31164,201087,40410
5990.6,-2514,-30473,201292,40591
5992.6,-2334,-29854,201621,40866
5994.6,-2971,-30064,201702,40911
5996.6,-3087,-30447,201504,40715
5998.6,-2591,-30414,201333,40556
6000.6,-2996,-30485,201388,40602
6002.6,-4158,-30831,201576,40757
6004.6,-4227,-30753,201708,40858
6006.6,-3199,-30239,201714,40856
6008.6,-2803,-30068,201654,40784
6010.6,-3195,-30300,201574,40654
6012.6,-3312,-30439,201463,40467
6014.6,-3303,-30522,201368,40306
6016.6,-3626,-30642,201426,40317
6018.6,-3620,-30471,201666,40526
6020.6,-3069,-30184,201842,40698
6022.6,-2823,-30415,201700,40567
6024.6,-2987,-30884,201437,40298
6026.6,-2960,-30761,201502,40336
6028.6,-2932,-30230,201862,40664
6030.6,-3164,-30047,202015,40785
6032.6,-3110,-30157,201839,40579
6034.6,-2743,-30186,201739,40451
6036.6,-2775,-30256,201897,40578
6038.6,-3013,-30335,202099,40747
6040.6,-2750,-30104,202199,40833
6042.6,-2411,-29822,202207,40847
6044.6,-2645,-29894,202183,40822
6046.6,-2909,-29903,202287,40912
6048.6,-2710,-29527,202528,41137
6050.6,-2585,-29399,202607,41188
6052.6,-2662,-29750,202455,40977
6054.6,-2343,-29771,202447,40899
6056.6,-1843,-29276,202659,41065
6058.6,-1935,-29094,202697,41097
6060.6,-2449,-29371,202543,40958
6062.6,-2774,-29435,202599,41023
6064.6,-2811,-29244,202816,41233
6066.6,-2408,-29204,202787,41177
6068.6,-1530,-29127,202626,40973
6070.6,-1029,-28732,202754,41066
6072.6,-1465,-28400,203031,41338
6074.6,-2059,-28550,203026,41345
6076.6,-2154,-28934,202857,41161
6078.6,-2022,-29009,202912,41166
6080.6,-1802,-28658,203093,41311
6082.6,-1542,-28307,203094,41325
6084.6,-1702,-28315,203005,41253
6086.6,-2100,-28481,203035,41249
6088.6,-1955,-28506,203082,41234
6090.6,-1621,-28527,203027,41151
6092.6,-1990,-28629,203014,41144
6094.6,-2530,-28510,203137,41260
6096.6,-2368,-28213,203236,41337
6098.6,-2082,-28330,203140,41236
6100.6,-2180,-28864,202890,40991
6102.6,-1784,-28912,202706,40799
6104.6,-782,-28191,202775,40838
6106.63,-761,-27738,202992,41012
6108.65,-2111,-28212,203072,41048
6110.68,-2916,-28774,202961,40897
6112.7,-2277,-28639,202868,40769
6114.7,-1810,-28341,202889,40764
6116.7,-2471,-28467,202895,40772
6118.7,-2898,-28590,202796,40698
6120.7,-2268,-28335,202692,40613
6122.7,-1772,-28096,202724,40636
6124.7,-2164,-28181,202848,40726
6126.7,-2549,-28385,202842,40683
6128.7,-2354,-28547,202616,40434
6130.7,-2160,-28686,202371,40169
6132.7,-2228,-28703,202338,40088
6134.7,-2082,-28516,202470,40143
6136.7,-1693,-28316,202516,40134
6138.7,-1710,-28385,202392,40005
6140.7,-2369,-28689,202301,39928
6142.7,-2974,-28901,202362,39979
6144.7,-2818,-28917,202342,39925
6146.7,-2191,-28955,202113,39665
6148.7,-1874,-28976,202000,39544
6150.7,-1907,-28661,202190,39730
6152.7,-1800,-28162,202314,39823
6154.7,-1708,-28033,202163,39631
6156.7,-2133,-28325,202086,39539
6158.7,-2718,-28583,202239,39688
6160.7,-2744,-28687,202291,39699
6162.7,-2509,-28920,202132,39479
6164.7,-2809,-29265,202081,39402
6166.7,-3421,-29323,202253,39575
6168.7,-3466,-28994,202393,39703
6170.7,-2914,-28687,202335,39624
6172.7,-2532,-28676,202203,39484
6174.7,-2622,-28718,202182,39452
6176.7,-2783,-28603,202286,39525
6178.7,-2685,-28526,202354,39569
6180.7,-2360,-28594,202260,39476
6182.7,-1973,-28595,202119,39330
6184.7,-1859,-28472,202169,39351
6186.7,-2306,-28437,202396,39540
6188.7,-2957,-28542,202471,39574
6190.7,-3180,-28641,202274,39324
6192.7,-3138,-28673,202174,39196
6194.7,-3342,-28612,202439,39475
6196.7,-3386,-28372,202712,39759
6198.7,-2715,-28037,202601,39616
6200.7,-2046,-27909,202333,39305
6202.7,-2271,-28126,202317,39257
6204.7,-2839,-28405,202492,39384
6206.7,-2842,-28391,202558,39396
6208.7,-2555,-28126,202497,39306
6210.7,-2544,-27939,202491,39265
6212.7,-2578,-27982,202545,39253
6214.7,-2397,-28152,202492,39161
6216.7,-2327,-28323,202338,39018
6218.7,-2536,-28390,202323,39010
6220.7,-2714,-28259,202528,39197
6222.7,-2728,-28022,202702,39362
6224.7,-2769,-27926,202673,39323
6226.7,-2791,-27999,202595,39197
6228.7,-2539,-27982,202617,39170
6230.7,-2221,-27794,202644,39200
6232.7,-2358,-27713,202579,39158
6234.7,-2794,-27788,202526,39088
6236.7,-2721,-27569,202638,39157
6238.7,-2066,-26972,202857,39360
6240.7,-1774,-26690,202958,39473
6242.7,-2265,-27039,202870,39390
6244.7,-2789,-27360,202751,39259
6246.7,-2736,-27263,202650,39143
6248.7,-2421,-27186,202501,38976
6250.7,-2289,-27272,202453,38898
6252.7,-2332,-27164,202637,39062
6254.7,-2350,-26958,202769,39210
6256.73,-2241,-26963,202626,39096
6258.75,-2143,-27024,202478,38947
6260.78,-2263,-27120,202460,38897
6262.8,-2370,-27571,202260,38664
6264.8,-2094,-28113,201930,38307
6266.8,-1832,-28169,201972,38314
6268.8,-2210,-27944,202355,38659
6270.8,-2703,-27875,202521,38803
6272.8,-2442,-27785,202379,38662
6274.8,-2014,-27665,202277,38574
6276.8,-2406,-27937,202240,38529
6278.8,-2893,-28341,202101,38324
6280.8,-2401,-28239,201966,38096
6282.8,-1742,-27965,201938,38013
6284.8,-1959,-28129,201880,37946
6286.8,-2250,-28292,201799,37854
6288.8,-1951,-27958,201890,37918
6290.8,-2069,-27735,202069,38059
6292.8,-2897,-28112,202042,37964
6294.8,-3179,-28500,201857,37702
6296.8,-2770,-28490,201801,37621
6298.8,-2756,-28530,201834,37667
6300.8,-2900,-28740,201749,37557
6302.8,-2410,-28642,201654,37399
6304.8,-2158,-28362,201730,37447
6306.8,-2944,-28508,201823,37554
6308.8,-3495,-28919,201744,37464
6310.8,-2839,-28975,201597,37265
6312.8,-2175,-28753,201539,37169
6314.8,-2437,-28641,201578,37209
6316.8,-2683,-28553,201666,37306
6318.8,-2313,-28430,201742,37377
6320.8,-2217,-28516,201791,37413
6322.8,-2706,-28632,201887,37484
6324.8,-2808,-28360,201981,37533
6326.8,-2384,-28064,201880,37378
6328.8,-2531,-28420,201620,37080
6330.8,-3290,-29076,201496,36942
6332.8,-3396,-29155,201583,37023
6334.8,-2761,-28810,201656,37069
6336.8,-2656,-28858,201610,36975
6338.8,-3156,-29208,201591,36905
6340.8,-3096,-29116,201680,36950
6342.8,-2524,-28700,201760,36988
6344.8,-2528,-28651,201735,36940
6346.8,-2978,-28872,201652,36874
6348.8,-2940,-28825,201564,36819
6350.8,-2580,-28618,201485,36741
6352.8,-2601,-28546,201513,36725
6354.8,-2828,-28450,201716,36860
6356.8,-2847,-28310,201908,36992
6358.8,-2869,-28426,201879,36944
6360.8,-3186,-28739,201744,36837
6362.8,-3670,-28988,201708,36819
6364.8,-3879,-29116,201719,36808
6366.8,-3266,-28876,201705,36770
6368.8,-2006,-28119,201727,36799
6370.8,-1376,-27657,201722,36789
6372.8,-2056,-28210,201572,36598
6374.8,-2881,-28897,201445,36432
6376.8,-2746,-28645,201536,36505
6378.8,-2355,-28107,201699,36638
6380.8,-2591,-28313,201757,36644
6382.8,-2954,-28855,201757,36594
6384.8,-2893,-28998,201682,36481
6386.8,-2780,-28957,201491,36228
6388.8,-2875,-29038,201394,36022
6390.8,-3034,-29096,201527,36038
6392.8,-3267,-29122,201661,36111
6394.8,-3285,-29112,201667,36120
6396.83,-2691,-28824,201765,36233
6398.85,-2220,-28443,202008,36497
6400.88,-2656,-28321,202190,36779
6402.9,-2939,-27972,202364,37154
6404.9,-1964,-26988,202677,37683
6406.9,-755,-26236,202834,38019
6408.9,-319,-26329,202592,37955
6410.9,126,-26352,202379,37947
6412.9,1028,-25691,202538,38327
6414.9,1764,-25036,202645,38676
6416.9,2459,-24591,202410,38710
6418.9,3369,-23769,202290,38852
6420.9,3649,-22907,202492,39299
6422.9,3309,-22737,202534,39591
6424.9,3764,-22736,202289,39543
6426.9,4823,-22273,202198,39498
6428.9,4617,-22069,202294,39498
6430.9,3032,-22767,202175,39204
6432.9,1620,-23800,201743,38510
6434.9,656,-24712,201121,37539
6436.9,-493,-25691,200384,36453
6438.9,-1413,-26538,199766,35548
6440.9,-1583,-26926,199487,35009
6442.9,-1650,-27292,199374,34634
6444.9,-2205,-28053,199240,34246
6446.9,-2928,-28822,199246,34006
6448.9,-3478,-29199,199491,34037
6450.9,-3677,-29191,199845,34248
6452.9,-3172,-28720,200286,34607
6454.9,-2258,-27967,200813,35054
6456.9,-2003,-27722,201177,35322
6458.9,-2568,-28255,201213,35290
6460.9,-2898,-28697,201160,35218
6462.9,-2655,-28410,201267,35323
6464.9,-2659,-27938,201422,35464
6466.9,-3185,-27983,201454,35469
6468.9,-3520,-28373,201450,35438
6470.9,-3237,-28519,201529,35493
6472.9,-2695,-28309,201605,35524
6474.9,-2440,-28155,201577,35412
6476.9,-2625,-28291,201542,35291
6478.9,-2822,-28392,201614,35335
6480.9,-2591,-28184,201706,35444
6482.9,-2254,-28009,201678,35414
6484.9,-2420,-28272,201580,35277
6486.9,-3016,-28775,201545,35207
6488.9,-3550,-29061,201566,35210
6490.9,-3686,-28909,201575,35197
6492.9,-3240,-28377,201598,35179
6494.9,-2531,-27931,201612,35142
6496.9,-2390,-28100,201506,34999
6498.9,-2816,-28503,201402,34878
6500.9,-2831,-28248,201565,35038
6502.9,-2339,-27558,201869,35337
6504.9,-2261,-27403,201938,35392
6506.9,-2621,-27705,201813,35246
6508.9,-2678,-27774,201764,35178
6510.9,-2581,-27849,201698,35094
6512.9,-2803,-28274,201511,34887
6514.9,-2881,-28381,201499,34851
6516.9,-2490,-27881,201753,35086
6518.9,-2368,-27700,201878,35199
6520.9,-2790,-28172,201744,35050
6522.9,-2833,-28360,201671,34948
6524.9,-2236,-27936,201729,34973
6526.9,-2056,-27688,201727,34945
6528.9,-2603,-27814,201743,34937
6530.9,-2831,-27696,201885,35056
6532.9,-2466,-27371,201925,35087
6534.9,-2494,-27461,201753,34916
6536.93,-2997,-27845,201657,34809
6538.95,-2904,-27862,201799,34915
6540.98,-2190,-27529,201955,35029
6543.0,-2000,-27410,201963,35016
6545.0,-2479,-27578,201926,34983
6547.0,-2603,-27520,201948,35011
6549.0,-2146,-27073,201994,35033
6551.0,-2002,-26862,201987,34968
6553.0,-2562,-27371,201936,34873
6555.0,-3089,-27931,201982,34909
6557.0,-2883,-27658,202158,35081
6559.0,-2269,-27071,202241,35145
6561.0,-2066,-27235,202110,35003
6563.0,-2369,-27767,202001,34898
6565.0,-2443,-27594,202078,34965
6567.0,-1952,-26963,202185,35038
6569.0,-1569,-26816,202231,35043
6571.0,-1824,-27136,202270,35043
6573.0,-2120,-27378,202220,34965
6575.0,-1775,-27446,202099,34836
6577.0,-1326,-27426,202209,34940
6579.0,-1605,-27358,202555,35259
6581.0,-2164,-27388,202687,35354
6583.0,-2015,-27490,202489,35134
6585.0,-1334,-27392,202396,35033
6587.0,-987,-27031,202613,35241
6589.0,-1041,-26597,202847,35454
6591.0,-1080,-26287,202875,35451
6593.0,-1098,-26249,202793,35341
6595.0,-1084,-26397,202751,35288
6597.0,-901,-26449,202819,35350
6599.0,-898,-26391,202997,35523
6601.0,-1267,-26341,203213,35752
6603.0,-1268,-26110,203363,35924
6605.0,-622,-25748,203374,35934
6607.0,-347,-25773,203271,35807
6609.0,-854,-26139,203200,35715
6611.0,-1197,-26216,203248,35737
6613.0,-1107,-26107,203293,35738
6615.0,-1291,-26344,203247,35666
6617.0,-1475,-26526,203245,35682
6619.0,-884,-26064,203356,35814
6621.0,-237,-25545,203422,35862
6623.0,-606,-25663,203398,35803
6625.0,-1285,-25945,203428,35816
6627.0,-1091,-25833,203472,35862
6629.0,-407,-25635,203354,35731
6631.0,-192,-25621,203179,35514
6633.0,-500,-25622,203195,35486
6635.0,-927,-25694,203314,35589
6637.0,-1124,-25842,203300,35582
6639.0,-746,-25631,203234,35522
6641.0,-40,-25113,203262,35549
6643.0,96,-25032,203225,35507
6645.0,-595,-25469,203039,35316
6647.0,-1375,-25770,202940,35223
6649.0,-1656,-25883,202990,35290
6651.0,-1505,-26096,202991,35280
6653.0,-1223,-26042,203014,35239
6655.0,-1176,-25557,203243,35404
6657.0,-1452,-25340,203420,35565
6659.0,-1561,-25645,203226,35373
6661.0,-1278,-25917,202882,35008
6663.0,-1135,-26077,202715,34825
6665.0,-1273,-26395,202639,34768
6667.0,-1121,-26515,202514,34643
6669.0,-757,-26136,202488,34559
6671.0,-843,-25675,202704,34713
6673.0,-1160,-25420,203017,35019
6675.0,-1101,-25351,203105,35126
6677.03,-1042,-25707,202820,34837
6679.05,-1439,-26383,202426,34430
6681.08,-1741,-26622,202309,34318
6683.1,-1629,-26295,202469,34481
6685.1,-1766,-26156,202606,34596
6687.1,-2315,-26411,202578,34533
6689.1,-2432,-26549,202441,34369
6691.1,-1822,-26438,202287,34192
6693.1,-1266,-26296,202263,34144
6695.1,-1358,-26102,202475,34350
6697.1,-1795,-25878,202758,34657
6699.1,-1949,-25877,202800,34723
6701.1,-1609,-26060,202586,34500
6703.1,-1179,-26066,202460,34335
6705.1,-1083,-25839,202592,34429
6707.1,-1149,-25738,202683,34497
6709.1,-1118,-25913,202522,34313
6711.1,-1243,-26039,202412,34175
6713.1,-1587,-25907,202552,34291
6715.1,-1659,-25844,202606,34331
6717.1,-1458,-26085,202447,34174
6719.1,-1528,-26204,202494,34249
6721.1,-1701,-25894,202806,34601
6723.1,-1475,-25689,202859,34666
6725.1,-1157,-26013,202538,34314
6727.1,-1049,-26277,202280,33996
6729.1,-822,-25924,202249,33892
6731.1,-711,-25491,202320,33887
6733.1,-1181,-25600,202486,34004
6735.1,-1494,-25905,202646,34153
6737.1,-1201,-25933,202625,34135
6739.1,-1469,-25844,202609,34127
6741.1,-2435,-25723,202793,34331
6743.1,-2353,-25426,202850,34416
6745.1,-1197,-25312,202592,34162
6747.1,-880,-25660,202467,33998
6749.1,-1270,-25805,202712,34180
6751.1,-757,-25243,202930,34332
6753.1,-54,-24666,202961,34318
6755.1,-760,-24719,203118,34461
6757.1,-1894,-25090,203326,34673
6759.1,-1797,-25431,203156,34508
6761.1,-1179,-25737,202746,34104
6763.1,-1455,-25839,202614,33984
6765.1,-2291,-25678,202771,34138
6767.1,-2518,-25481,202903,34248
6769.1,-1865,-25165,203017,34346
6771.1,-1114,-24638,203191,34508
6773.1,-1127,-24413,203235,34520
6775.1,-1626,-24665,203116,34360
6777.1,-1432,-24695,203050,34290
6779.1,-511,-24403,203011,34276
6781.1,-326,-24606,202824,34090
6783.1,-1219,-25234,202646,33884
6785.1,-1579,-25258,202695,33916
6787.1,-652,-24633,202786,34032
6789.1,192,-24284,202719,34009
6791.1,-103,-24454,202652,33961
6793.1,-903,-24739,202698,33995
6795.1,-1349,-24974,202710,33996
6797.1,-1275,-25001,202652,33921
6799.1,-847,-24750,202613,33830
6801.1,-555,-24808,202500,33655
6803.1,-765,-25453,202254,33377
6805.1,-963,-25799,202113,33203
6807.1,-813,-25412,202224,33248
6809.1,-1073,-25275,202370,33342
6811.1,-1845,-25838,202353,33323
6813.1,-1866,-26153,202240,33225
6815.1,-970,-25834,202143,33134
6817.13,-627,-25671,202093,33089
6819.15,-1171,-25979,202087,33088
6821.18,-1382,-26222,202060,33067
6823.2,-981,-26164,201973,32988
6825.2,-913,-26070,201931,32945
6827.2,-1445,-26115,202014,33004
6829.2,-1867,-26239,202081,33038
6831.2,-1703,-26328,201966,32888
6833.2,-1283,-26408,201731,32614
6835.2,-1270,-26607,201612,32455
6837.2,-1716,-26791,201754,32576
6839.2,-1882,-26661,202016,32857
6841.2,-1418,-26313,202102,32994
6843.2,-1033,-26103,201976,32898
6845.2,-1326,-26115,201898,32789
6847.2,-1860,-26308,201926,32756
6849.2,-1933,-26591,201844,32622
6851.2,-1491,-26558,201701,32438
6853.2,-1005,-26054,201771,32483
6855.2,-937,-25750,201950,32669
6857.2,-1281,-26106,201918,32647
6859.2,-1584,-26542,201757,32474
6861.2,-1623,-26581,201717,32435
6863.2,-1694,-26568,201742,32474
6865.2,-1902,-26688,201718,32428
6867.2,-1906,-26671,201686,32353
6869.2,-1648,-26593,201612,32280
6871.2,-1478,-26605,201533,32228
6873.2,-1431,-26365,201713,32398
6875.2,-1232,-25834,202080,32728
6877.2,-1003,-25694,202125,32758
6879.2,-1199,-26143,201813,32450
6881.2,-1767,-26461,201700,32334
6883.2,-1970,-26294,201882,32496
6885.2,-1500,-26131,201894,32487
6887.2,-1206,-26245,201725,32316
6889.2,-1774,-26313,201763,32360
6891.2,-2356,-26221,201890,32467
6893.2,-1968,-26297,201724,32256
6895.2,-1228,-26583,201424,31925
6897.2,-1048,-26697,201343,31832
6899.2,-1160,-26610,201356,31836
6901.2,-1271,-26731,201262,31755
6903.2,-1577,-26951,201276,31825
6905.2,-1557,-26603,201601,32209
6907.2,-791,-25828,201976,32591
6909.2,-400,-25723,202040,32608
6911.2,-1120,-26471,201836,32338
6913.2,-1686,-26891,201695,32137
6915.2,-1360,-26603,201719,32118
6917.2,-1302,-26661,201662,32036
6919.2,-1892,-27340,201443,31784
6921.2,-2031,-27589,201343,31605
6923.2,-1759,-27197,201465,31620
6925.2,-2019,-26990,201587,31677
6927.2,-2222,-26881,201701,31808
6929.2,-1404,-26251,201974,32170
6931.2,-480,-25593,202216,32567
6933.2,-490,-25493,202199,32763
6935.2,-658,-25313,202189,32981
6937.2,-233,-24595,202393,33390
6939.2,354,-23902,202531,33718
6941.2,1109,-23416,202503,33879
6943.2,2375,-22845,202589,34174
6945.2,3368,-22505,202746,34592
6947.2,3530,-22529,202708,34882
6949.2,3844,-22188,202615,35178
6951.2,4618,-21452,202619,35629
6953.2,4733,-21190,202436,35897
6955.2,4401,-21200,202032,35803
6957.23,5024,-20552,201821,35667
6959.25,6044,-19642,201836,35533
6961.28,5712,-19535,201718,35068
6963.3,4193,-20265,201412,34263
6965.3,2737,-21459,200966,33308
6967.3,1535,-23013,200248,32223
6969.3,470,-24411,199517,31277
6971.3,-134,-25187,199239,30839
6973.3,-349,-25782,199154,30573
6975.3,-499,-26438,198792,29987
6977.3,-614,-26530,198569,29509
6979.3,-899,-26017,199047,29727
6981.3,-1537,-25801,199805,30250
6983.3,-2036,-26151,200209,30479
6985.3,-1990,-26466,200397,30568
6987.3,-1722,-26494,200712,30837
6989.3,-1541,-26476,201077,31211
6991.3,-1448,-26521,201326,31529
6993.3,-1461,-26576,201398,31653
6995.3,-1466,-26596,201251,31452
6997.3,-1423,-26556,201061,31137
6999.3,-1712,-26524,201136,31101
7001.3,-2240,-26527,201440,31312
7003.3,-2141,-26371,201662,31466
7005.3,-1416,-26064,201714,31529
7007.3,-1240,-26063,201682,31578
7009.3,-1836,-26537,201577,31539
7011.3,-2064,-26902,201450,31440
7013.3,-1584,-26763,201403,31406
7015.3,-1300,-26580,201384,31372
7017.3,-1475,-26662,201362,31283
7019.3,-1452,-26533,201473,31310
7021.3,-1183,-26066,201674,31457
7023.3,-1198,-25929,201709,31464
7025.3,-1329,-26222,201648,31383
7027.3,-1103,-26242,201787,31512
7029.3,-852,-26002,201961,31716
7031.3,-1047,-26207,201787,31607
7033.3,-1271,-26679,201438,31305
7035.3,-1027,-26579,201351,31211
7037.3,-688,-25976,201450,31272
7039.3,-744,-25677,201410,31191
7041.3,-944,-25842,201309,31052
7043.3,-884,-25971,201391,31127
7045.3,-768,-25913,201595,31372
7047.3,-921,-25958,201705,31532
7049.3,-1044,-26129,201659,31507
7051.3,-804,-26124,201563,31422
7053.3,-771,-26008,201573,31448
7055.3,-1522,-26157,201681,31555
7057.3,-2139,-26373,201678,31531
7059.3,-1442,-26038,201555,31383
7061.3,-267,-25319,201604,31399
7063.3,-235,-25074,201806,31561
7065.3,-994,-25471,201745,31475
7067.3,-1175,-25875,201415,31143
7069.3,-907,-25971,201308,31036
7071.3,-1026,-25954,201519,31233
7073.3,-1223,-25906,201636,31335
7075.3,-941,-25826,201524,31221
7077.3,-645,-25860,201442,31135
7079.3,-936,-26026,201518,31202
7081.3,-1422,-26071,201675,31369
7083.3,-1231,-25828,201790,31507
7085.3,-333,-25469,201742,31457
7087.3,73,-25321,201633,31313
7089.3,-859,-25481,201760,31412
7091.3,-2080,-25675,202076,31710
7093.3,-2037,-25615,202170,31773
7095.3,-1022,-25366,201991,31558
7097.33,-386,-25205,201890,31441
7099.35,-327,-25279,201898,31448
7101.38,-290,-25500,201788,31345
7103.4,-488,-25625,201758,31337
7105.4,-1294,-25479,202171,31782
7107.4,-2034,-25194,202732,32365
7109.4,-1754,-25047,202811,32437
7111.4,-575,-25024,202437,32020
7113.4,528,-24889,202163,31697
7115.4,849,-24684,202168,31687
7117.4,514,-24662,202232,31768
7119.4,190,-24749,202305,31851
7121.4,268,-24690,202421,31958
7123.4,430,-24572,202424,31967
7125.4,291,-24590,202299,31861
7127.4,7,-24641,202286,31851
7129.4,-187,-24654,202419,31955
7131.4,-240,-24673,202512,32009
7133.4,124,-24443,202598,32072
7135.4,906,-23851,202795,32256
7137.4,1215,-23525,202955,32395
7139.4,562,-23923,202926,32356
7141.4,-108,-24452,202828,32285
7143.4,49,-24474,202769,32268
7145.4,568,-24227,202704,32226
7147.4,844,-24063,202654,32184
7149.4,924,-23869,202700,32230
7151.4,824,-23594,202828,32325
7153.4,544,-23407,202961,32420
7155.4,439,-23349,203038,32502
7157.4,611,-23419,203000,32482
7159.4,655,-23660,202867,32339
7161.4,451,-23881,202787,32256
7163.4,299,-23869,202833,32332
7165.4,352,-23817,202839,32351
7167.4,660,-23858,202626,32117
7169.4,1236,-23605,202357,31838
7171.4,1616,-22998,202388,31853
7173.4,1191,-22813,202695,32105
7175.4,248,-23406,202865,32230
7177.4,-303,-24013,202732,32124
7179.4,-273,-24117,202576,32023
7181.4,-209,-24113,202594,32058
7183.4,-232,-24168,202633,32101
7185.4,-66,-24037,202546,32042
7187.4,52,-23989,202411,31932
7189.4,-193,-24276,202342,31847
7191.4,-296,-24384,202300,31764
7193.4,176,-24085,202189,31628
7195.4,522,-23965,202071,31502
7197.4,81,-24207,202078,31505
7199.4,-544,-24378,202140,31579
7201.4,-593,-24407,202099,31581
7203.4,-276,-24414,202029,31557
7205.4,-64,-24245,202051,31587
7207.4,37,-24065,202008,31520
7209.4,162,-24207,201778,31265
7211.4,288,-24328,201598,31051
7213.4,289,-24050,201648,31050
7215.4,57,-23822,201775,31136
7217.4,-199,-23937,201857,31219
7219.4,-130,-23920,201926,31328
7221.4,127,-23697,201887,31344
7223.4,75,-23842,201677,31172
7225.4,-315,-24261,201574,31075
7227.4,-566,-24233,201787,31267
7229.4,-402,-23791,202015,31468
7231.4,-12,-23603,201938,31369
7233.4,192,-23784,201738,31163
7235.4,-116,-24051,201715,31146
7237.43,-793,-24419,201793,31214
7239.45,-1039,-24714,201780,31179
7241.48,-269,-24392,201734,31142
7243.5,795,-23671,201778,31224
7245.5,981,-23513,201838,31307
7247.5,501,-23967,201784,31243
7249.5,319,-24202,201635,31075
7251.5,158,-24225,201531,30937
7253.5,-595,-24546,201578,30925
7255.5,-985,-24639,201771,31074
7257.5,-121,-23964,201970,31286
7259.5,834,-23433,201992,31354
7261.5,728,-23777,201826,31222
7263.5,335,-24098,201685,31095
7265.5,373,-23755,201703,31127
7267.5,209,-23582,201733,31169
7269.5,-330,-23996,201652,31063
7271.5,-397,-24088,201634,30983
7273.5,159,-23444,201839,31134
7275.5,547,-22926,202041,31316
7277.5,399,-23152,201952,31220
7279.5,39,-23623,201734,31006
7281.5,-235,-23669,201771,31073
7283.5,-388,-23407,202018,31355
7285.5,-421,-23327,202084,31427
7287.5,-271,-23366,201947,31275
7289.5,11,-23109,201962,31278
7291.5,127,-22751,202153,31450
7293.5,-45,-22851,202165,31425
7295.5,-92,-23186,201976,31204
7297.5,159,-23054,201962,31193
7299.5,145,-22588,202180,31448
7301.5,-257,-22515,202233,31544
7303.5,-197,-22835,201967,31305
7305.5,470,-22911,201771,31120
7307.5,729,-22588,201923,31280
7309.5,420,-22294,202116,31483
7311.5,379,-22280,202011,31376
7313.5,399,-22383,201838,31181
7315.5,-173,-22363,201945,31262
7317.5,-506,-22216,202133,31458
7319.5,208,-22211,202040,31415
7321.5,883,-22492,201755,31191
7323.5,602,-22743,201562,31037
7325.5,203,-22683,201484,30975
7327.5,245,-22621,201437,30936
7329.5,181,-22833,201450,30942
7331.5,44,-22967,201544,31014
7333.5,287,-22841,201647,31097
