t,carotid_880nm,carotid_660nm,brachial_880nm,brachial_660nm
3.9,-12.505,42.782,-49.994,-3.3004
13.7,-14.505,42.782,-48.994,-2.3004
23.6,-18.505,41.782,-47.994,-2.3004
33.5,-20.505,41.782,-50.994,-3.3004
43.4,-25.505,40.782,-50.994,-3.3004
53.3,-24.505,42.782,-49.994,-4.3004
63.2,-24.505,42.782,-48.994,-3.3004
73.1,-18.505,45.782,-42.994,-0.30042
82.9,-18.505,45.782,-32.994,4.6996
92.8,-10.505,46.782,-22.994,8.6996
102.7,-10.505,46.782,-10.994,15.7
112.6,-3.5049,47.782,1.0057,18.7
122.5,-3.5049,47.782,9.0057,23.7
132.4,7.4951,52.782,16.006,23.7
142.3,7.4951,52.782,21.006,25.7
152.1,14.495,53.782,25.006,26.7
162.0,14.495,53.782,27.006,26.7
171.9,20.495,54.782,28.006,27.7
181.8,20.495,54.782,31.006,27.7
191.7,29.495,56.782,33.006,28.7
201.6,29.495,56.782,34.006,28.7
211.5,33.495,58.782,34.006,27.7
221.3,37.495,58.782,35.006,27.7
231.2,37.495,58.782,31.006,26.7
241.1,39.495,57.782,32.006,26.7
251.0,41.495,58.782,30.006,25.7
260.9,43.495,58.782,27.006,23.7
270.8,43.495,61.782,24.006,23.7
280.7,45.495,62.782,24.006,23.7
290.5,43.495,61.782,21.006,20.7
300.4,44.495,62.782,21.006,20.7
310.3,43.495,61.782,14.006,16.7
320.2,42.495,60.782,14.006,16.7
330.1,41.495,59.782,10.006,15.7
340.0,40.495,59.782,10.006,15.7
349.9,42.495,59.782,6.0057,14.7
359.7,41.495,60.782,6.0057,14.7
369.6,41.495,59.782,2.0057,13.7
379.5,43.495,63.782,2.0057,13.7
389.4,42.495,62.782,-1.9943,11.7
399.3,43.495,64.782,-1.9943,11.7
409.2,40.495,62.782,-5.9943,10.7
419.1,40.495,62.782,-5.9943,10.7
428.9,39.495,63.782,-7.9943,8.6996
438.8,38.495,64.782,-7.9943,8.6996
448.7,36.495,63.782,-12.994,6.6996
458.6,34.495,64.782,-12.994,6.6996
468.5,31.495,62.782,-18.994,3.6996
478.4,29.495,59.782,-18.994,3.6996
488.3,26.495,59.782,-21.994,1.6996
498.1,26.495,57.782,-24.994,0.69958
508.0,22.495,59.782,-29.994,-0.30042
517.9,20.495,55.782,-31.994,-1.3004
527.8,17.495,55.782,-34.994,-3.3004
537.7,15.495,54.782,-37.994,-5.3004
547.6,12.495,52.782,-40.994,-5.3004
557.5,9.4951,51.782,-41.994,-7.3004
567.3,7.4951,50.782,-42.994,-7.3004
577.2,5.4951,50.782,-44.994,-9.3004
587.1,0.49506,49.782,-46.994,-7.3004
597.0,-2.5049,47.782,-48.994,-6.3004
606.9,-6.5049,47.782,-49.994,-9.3004
616.8,-11.505,45.782,-49.994,-9.3004
626.7,-13.505,44.782,-52.994,-10.3
636.5,-12.505,46.782,-51.994,-11.3
646.4,-10.505,45.782,-48.994,-8.3004
656.3,-6.5049,45.782,-41.994,-6.3004
666.2,-2.5049,47.782,-35.994,-3.3004
676.1,-0.50494,48.782,-26.994,0.69958
686.0,3.4951,50.782,-17.994,3.6996
695.9,6.4951,50.782,-9.9943,7.6996
705.7,11.495,51.782,-1.9943,10.7
715.6,11.495,49.782,3.0057,11.7
725.5,13.495,46.782,11.006,12.7
735.4,12.495,44.782,13.006,12.7
745.3,10.495,44.782,12.006,11.7
755.2,11.495,39.782,16.006,14.7
765.1,11.495,39.782,19.006,14.7
774.9,10.495,39.782,18.006,13.7
784.8,10.495,37.782,16.006,10.7
794.7,10.495,37.782,14.006,11.7
804.6,9.4951,35.782,13.006,9.6996
814.5,9.4951,35.782,7.0057,8.6996
824.4,10.495,35.782,5.0057,3.6996
834.3,10.495,35.782,0.0057342,1.6996
844.1,7.4951,32.782,-3.9943,2.6996
854.0,7.4951,32.782,-7.9943,-2.3004
863.9,0.49506,29.782,-11.994,-3.3004
873.8,0.49506,29.782,-18.994,-6.3004
883.7,-1.5049,26.782,-21.994,-5.3004
893.6,-1.5049,26.782,-22.994,-8.3004
903.5,-4.5049,24.782,-24.994,-9.3004
913.3,-4.5049,24.782,-28.994,-9.3004
923.2,-9.5049,21.782,-31.994,-10.3
933.1,-9.5049,21.782,-34.994,-11.3
943.0,-9.5049,21.782,-35.994,-10.3
952.9,-11.505,20.782,-37.994,-12.3
962.8,-13.505,20.782,-37.994,-12.3
972.7,-17.505,18.782,-38.994,-12.3
982.5,-20.505,16.782,-37.994,-12.3
992.4,-23.505,15.782,-37.994,-13.3
1002.3,-25.505,12.782,-39.994,-14.3
1012.2,-27.505,12.782,-41.994,-15.3
1022.1,-29.505,10.782,-41.994,-14.3
1032.0,-33.505,9.7815,-42.994,-15.3
1041.8,-36.505,8.7815,-44.994,-16.3
1051.7,-37.505,7.7815,-46.994,-16.3
1061.6,-39.505,7.7815,-47.994,-17.3
1071.5,-45.505,5.7815,-49.994,-18.3
1081.4,-46.505,4.7815,-52.994,-20.3
1091.3,-48.505,2.7815,-52.994,-21.3
1101.2,-52.505,0.78151,-56.994,-22.3
1111.1,-54.505,-1.2185,-57.994,-21.3
1120.9,-58.505,-2.2185,-59.994,-23.3
1130.8,-60.505,-3.2185,-60.994,-22.3
1140.7,-63.505,-3.2185,-62.994,-23.3
1150.6,-66.505,-4.2185,-62.994,-22.3
1160.5,-69.505,-6.2185,-62.994,-22.3
1170.4,-76.505,-9.2185,-64.994,-23.3
1180.2,-81.505,-9.2185,-64.994,-23.3
1190.1,-86.505,-12.218,-67.994,-23.3
1200.0,-87.505,-15.218,-65.994,-24.3
1209.9,-85.505,-14.218,-60.994,-21.3
1219.8,-82.505,-12.218,-55.994,-18.3
1229.7,-78.505,-13.218,-47.994,-15.3
1239.6,-74.505,-11.218,-36.994,-11.3
1249.5,-70.505,-10.218,-25.994,-6.3004
1259.3,-66.505,-8.2185,-16.994,-2.3004
1269.2,-63.505,-8.2185,-6.9943,2.6996
1279.1,-59.505,-9.2185,0.0057342,2.6996
1289.0,-60.505,-12.218,4.0057,4.6996
1298.9,-56.505,-12.218,6.0057,4.6996
1308.8,-55.505,-14.218,10.006,6.6996
1318.6,-51.505,-13.218,11.006,4.6996
1328.5,-51.505,-12.218,11.006,5.6996
1338.4,-46.505,-12.218,13.006,4.6996
1348.3,-46.505,-12.218,11.006,4.6996
1358.2,-44.505,-13.218,10.006,3.6996
1368.1,-43.505,-13.218,8.0057,2.6996
1378.0,-40.505,-13.218,8.0057,2.6996
1387.8,-37.505,-11.218,8.0057,2.6996
1397.7,-37.505,-10.218,1.0057,-1.3004
1407.6,-40.505,-11.218,1.0057,-1.3004
1417.5,-40.505,-13.218,-6.9943,-6.3004
1427.4,-41.505,-14.218,-6.9943,-6.3004
1437.3,-40.505,-13.218,-14.994,-9.3004
1447.2,-38.505,-13.218,-14.994,-9.3004
1457.0,-38.505,-13.218,-20.994,-12.3
1466.9,-44.505,-15.218,-20.994,-12.3
1476.8,-41.505,-15.218,-27.994,-14.3
1486.7,-41.505,-15.218,-27.994,-14.3
1496.6,-41.505,-14.218,-29.994,-16.3
1506.5,-44.505,-15.218,-29.994,-16.3
1516.4,-43.505,-16.218,-34.994,-17.3
1526.2,-43.505,-16.218,-34.994,-17.3
1536.1,-43.505,-17.218,-37.994,-19.3
1546.0,-43.505,-17.218,-37.994,-19.3
1555.9,-44.505,-17.218,-40.994,-18.3
1565.8,-44.505,-17.218,-40.994,-18.3
1575.7,-47.505,-17.218,-42.994,-20.3
1585.6,-47.505,-17.218,-42.994,-20.3
1595.4,-48.505,-17.218,-41.994,-19.3
1605.3,-48.505,-17.218,-43.994,-19.3
1615.2,-52.505,-17.218,-46.994,-20.3
1625.1,-52.505,-17.218,-47.994,-20.3
1635.0,-48.505,-16.218,-48.994,-20.3
1644.9,-48.505,-16.218,-49.994,-21.3
1654.8,-52.505,-16.218,-51.994,-19.3
1664.6,-51.505,-16.218,-51.994,-20.3
1674.5,-52.505,-16.218,-54.994,-21.3
1684.4,-54.505,-17.218,-55.994,-23.3
1694.3,-55.505,-14.218,-56.994,-22.3
1704.2,-55.505,-16.218,-57.994,-23.3
1714.1,-56.505,-14.218,-60.994,-25.3
1724.0,-55.505,-15.218,-59.994,-23.3
1733.8,-56.505,-14.218,-59.994,-24.3
1743.7,-58.505,-15.218,-59.994,-23.3
1753.6,-62.505,-14.218,-59.994,-23.3
1763.5,-61.505,-13.218,-57.994,-21.3
1773.4,-62.505,-12.218,-59.994,-19.3
1783.3,-54.505,-8.2185,-55.994,-18.3
1793.2,-49.505,-6.2185,-47.994,-14.3
1803.0,-43.505,-2.2185,-38.994,-11.3
1812.9,-37.505,0.78151,-27.994,-7.3004
1822.8,-31.505,3.7815,-20.994,-2.3004
1832.7,-26.505,3.7815,-10.994,0.69958
1842.6,-21.505,5.7815,-1.9943,3.6996
1852.5,-17.505,5.7815,4.0057,4.6996
1862.4,-13.505,4.7815,10.006,6.6996
1872.2,-11.505,3.7815,12.006,9.6996
1882.1,-10.505,2.7815,16.006,11.7
1892.0,-9.5049,1.7815,18.006,10.7
1901.9,-6.5049,1.7815,19.006,10.7
1911.8,-3.5049,1.7815,19.006,9.6996
1921.7,1.4951,3.7815,18.006,9.6996
1931.6,2.4951,4.7815,16.006,7.6996
1941.4,7.4951,5.7815,15.006,6.6996
1951.3,6.4951,4.7815,14.006,6.6996
1961.2,7.4951,3.7815,12.006,5.6996
1971.1,6.4951,3.7815,13.006,6.6996
1981.0,8.4951,3.7815,8.0057,3.6996
1990.9,6.4951,4.7815,5.0057,2.6996
2000.8,8.4951,4.7815,0.0057342,0.69958
2010.6,10.495,5.7815,-7.9943,-2.3004
2020.5,11.495,4.7815,-10.994,-4.3004
2030.4,8.4951,5.7815,-13.994,-4.3004
2040.3,7.4951,4.7815,-17.994,-6.3004
2050.2,8.4951,4.7815,-16.994,-5.3004
2060.1,5.4951,3.7815,-18.994,-6.3004
2070.0,6.4951,4.7815,-20.994,-5.3004
2079.8,8.4951,5.7815,-24.994,-7.3004
2089.7,8.4951,3.7815,-26.994,-7.3004
2099.6,6.4951,3.7815,-27.994,-7.3004
2109.5,3.4951,1.7815,-30.994,-9.3004
2119.4,6.4951,3.7815,-31.994,-8.3004
2129.3,3.4951,3.7815,-30.994,-8.3004
2139.2,3.4951,4.7815,-30.994,-7.3004
2149.0,2.4951,4.7815,-32.994,-8.3004
2158.9,0.49506,2.7815,-35.994,-7.3004
2168.8,-0.50494,2.7815,-34.994,-7.3004
2178.7,-2.5049,0.78151,-36.994,-7.3004
2188.6,-5.5049,0.78151,-37.994,-8.3004
2198.5,-6.5049,-0.21849,-37.994,-8.3004
2208.4,-8.5049,-2.2185,-42.994,-10.3
2218.2,-10.505,-1.2185,-44.994,-9.3004
2228.1,-12.505,-4.2185,-46.994,-10.3
2238.0,-12.505,-4.2185,-52.994,-11.3
2247.9,-17.505,-4.2185,-54.994,-11.3
2257.8,-17.505,-4.2185,-53.994,-10.3
2267.7,-20.505,-5.2185,-56.994,-10.3
2277.6,-20.505,-5.2185,-56.994,-10.3
2287.4,-23.505,-6.2185,-57.994,-10.3
2297.3,-23.505,-6.2185,-60.994,-10.3
2307.2,-32.505,-8.2185,-61.994,-10.3
2317.1,-32.505,-8.2185,-63.994,-10.3
2327.0,-36.505,-9.2185,-66.994,-11.3
2336.9,-36.505,-9.2185,-68.994,-10.3
2346.8,-33.505,-5.2185,-67.994,-10.3
2356.6,-33.505,-5.2185,-62.994,-7.3004
2366.5,-24.505,-5.2185,-56.994,-3.3004
2376.4,-24.505,-5.2185,-45.994,1.6996
2386.3,-20.505,-4.2185,-36.994,5.6996
2396.2,-17.505,-4.2185,-27.994,10.7
2406.1,-12.505,-1.2185,-16.994,15.7
2416.0,-6.5049,-0.21849,-9.9943,19.7
2425.8,-0.50494,0.78151,-2.9943,22.7
2435.7,2.4951,-0.21849,-2.9943,22.7
2445.6,5.4951,-0.21849,9.0057,25.7
2455.5,6.4951,-1.2185,9.0057,25.7
2465.4,9.4951,-2.2185,17.006,28.7
2475.3,12.495,-1.2185,17.006,28.7
2485.2,13.495,-1.2185,16.006,27.7
2495.0,15.495,-2.2185,16.006,27.7
2504.9,18.495,-1.2185,14.006,27.7
2514.8,22.495,-1.2185,14.006,27.7
2524.7,25.495,0.78151,10.006,25.7
2534.6,26.495,0.78151,10.006,25.7
2544.5,25.495,-0.21849,0.0057342,23.7
2554.4,27.495,-0.21849,0.0057342,23.7
2564.2,29.495,1.7815,-6.9943,18.7
2574.1,31.495,2.7815,-6.9943,18.7
2584.0,32.495,3.7815,-12.994,15.7
2593.9,32.495,6.7815,-12.994,15.7
2603.8,32.495,3.7815,-21.994,14.7
2613.7,32.495,5.7815,-21.994,14.7
2623.6,33.495,3.7815,-28.994,12.7
2633.4,32.495,3.7815,-28.994,12.7
2643.3,32.495,4.7815,-29.994,11.7
2653.2,33.495,4.7815,-34.994,11.7
2663.1,32.495,3.7815,-34.994,11.7
2673.0,31.495,5.7815,-36.994,10.7
2682.9,28.495,4.7815,-38.994,10.7
2692.8,28.495,2.7815,-40.994,7.6996
2702.6,28.495,3.7815,-43.994,8.6996
2712.5,27.495,2.7815,-46.994,7.6996
2722.4,26.495,2.7815,-49.994,5.6996
2732.3,27.495,3.7815,-52.994,3.6996
2742.2,26.495,3.7815,-57.994,3.6996
2752.1,25.495,5.7815,-56.994,2.6996
2762.0,23.495,3.7815,-58.994,2.6996
2771.8,22.495,4.7815,-61.994,2.6996
2781.7,21.495,4.7815,-61.994,3.6996
2791.6,20.495,3.7815,-64.994,0.69958
2801.5,18.495,4.7815,-68.994,-0.30042
2811.4,19.495,4.7815,-67.994,0.69958
2821.3,19.495,3.7815,-66.994,-1.3004
2831.2,15.495,2.7815,-70.994,-2.3004
2841.0,15.495,4.7815,-72.994,-1.3004
2850.9,14.495,4.7815,-75.994,-3.3004
2860.8,15.495,6.7815,-77.994,-3.3004
2870.7,12.495,7.7815,-81.994,-5.3004
2880.6,11.495,5.7815,-79.994,-5.3004
2890.5,10.495,4.7815,-79.994,-4.3004
2900.4,6.4951,6.7815,-83.994,-7.3004
2910.2,6.4951,7.7815,-85.994,-8.3004
2920.1,9.4951,10.782,-87.994,-7.3004
2930.0,15.495,13.782,-83.994,-6.3004
2939.9,20.495,16.782,-78.994,-3.3004
2949.8,26.495,14.782,-68.994,1.6996
2959.7,27.495,15.782,-59.994,3.6996
2969.6,27.495,15.782,-50.994,9.6996
2979.4,38.495,18.782,-41.994,12.7
2989.3,38.495,18.782,-31.994,15.7
2999.2,50.495,20.782,-25.994,17.7
3009.1,50.495,20.782,-18.994,20.7
3019.0,57.495,22.782,-14.994,19.7
3028.9,57.495,22.782,-12.994,20.7
3038.8,64.495,24.782,-9.9943,20.7
3048.6,64.495,24.782,-6.9943,20.7
3058.5,72.495,26.782,-5.9943,20.7
3068.4,72.495,26.782,-6.9943,19.7
3078.3,75.495,26.782,-6.9943,18.7
3088.2,75.495,26.782,-7.9943,18.7
3098.1,78.495,28.782,-8.9943,18.7
3108.0,82.495,29.782,-10.994,16.7
3117.8,84.495,29.782,-12.994,14.7
3127.7,85.495,29.782,-14.994,11.7
3137.6,88.495,33.782,-17.994,11.7
3147.5,89.495,35.782,-22.994,7.6996
3157.4,88.495,36.782,-27.994,6.6996
3167.3,89.495,36.782,-32.994,5.6996
3177.2,88.495,35.782,-35.994,3.6996
3187.0,86.495,36.782,-39.994,1.6996
3196.9,85.495,34.782,-42.994,-0.30042
3206.8,85.495,34.782,-45.994,-0.30042
3216.7,87.495,36.782,-47.994,-1.3004
3226.6,86.495,36.782,-51.994,-3.3004
3236.5,87.495,37.782,-53.994,-4.3004
3246.4,85.495,36.782,-53.994,-4.3004
3256.2,84.495,37.782,-55.994,-4.3004
3266.1,85.495,39.782,-53.994,-4.3004
3276.0,81.495,37.782,-55.994,-5.3004
3285.9,80.495,37.782,-57.994,-6.3004
3295.8,80.495,37.782,-57.994,-5.3004
3305.7,77.495,37.782,-59.994,-7.3004
3315.6,76.495,38.782,-61.994,-8.3004
3325.4,75.495,39.782,-64.994,-8.3004
3335.3,74.495,38.782,-67.994,-10.3
3345.2,72.495,39.782,-69.994,-11.3
3355.1,72.495,40.782,-74.994,-12.3
3365.0,71.495,41.782,-74.994,-13.3
3374.9,69.495,39.782,-77.994,-14.3
3384.8,67.495,40.782,-77.994,-15.3
3394.6,64.495,37.782,-81.994,-15.3
3404.5,62.495,37.782,-83.994,-16.3
3414.4,60.495,40.782,-85.994,-16.3
3424.3,59.495,38.782,-87.994,-18.3
3434.2,57.495,40.782,-88.994,-19.3
3444.1,58.495,41.782,-93.994,-19.3
3454.0,58.495,41.782,-93.994,-20.3
3463.8,52.495,40.782,-97.994,-22.3
3473.7,48.495,39.782,-100.99,-23.3
3483.6,45.495,39.782,-99.994,-23.3
3493.5,47.495,41.782,-100.99,-22.3
3503.4,50.495,43.782,-95.994,-20.3
3513.3,53.495,45.782,-88.994,-17.3
3523.2,61.495,48.782,-80.994,-13.3
3533.0,61.495,47.782,-71.994,-10.3
3542.9,69.495,50.782,-71.994,-10.3
3552.8,75.495,51.782,-54.994,-1.3004
3562.7,84.495,57.782,-54.994,-1.3004
3572.6,89.495,58.782,-39.994,3.6996
3582.5,94.495,61.782,-39.994,3.6996
3592.4,96.495,62.782,-30.994,5.6996
3602.2,99.495,62.782,-30.994,5.6996
3612.1,104.5,64.782,-25.994,6.6996
3622.0,106.5,64.782,-25.994,6.6996
3631.9,111.5,66.782,-24.994,5.6996
3641.8,113.5,66.782,-24.994,5.6996
3651.7,116.5,66.782,-25.994,4.6996
3661.6,121.5,68.782,-25.994,4.6996
3671.4,123.5,70.782,-28.994,2.6996
3681.3,123.5,70.782,-28.994,2.6996
3691.2,124.5,71.782,-35.994,-0.30042
3701.1,124.5,71.782,-35.994,-0.30042
3711.0,128.5,74.782,-46.994,-7.3004
3720.9,128.5,74.782,-46.994,-7.3004
3730.7,128.5,74.782,-52.994,-10.3
3740.6,128.5,74.782,-52.994,-10.3
3750.5,127.5,74.782,-57.994,-10.3
3760.4,127.5,74.782,-58.994,-11.3
3770.3,127.5,73.782,-58.994,-12.3
3780.2,127.5,73.782,-61.994,-13.3
3790.1,125.5,72.782,-60.994,-13.3
3800.0,125.5,72.782,-62.994,-14.3
3809.8,123.5,72.782,-63.994,-14.3
3819.7,123.5,72.782,-61.994,-14.3
3829.6,122.5,71.782,-66.994,-16.3
3839.5,121.5,71.782,-65.994,-16.3
3849.4,122.5,73.782,-67.994,-15.3
3859.3,118.5,72.782,-67.994,-15.3
3869.1,117.5,72.782,-67.994,-15.3
3879.0,115.5,71.782,-70.994,-15.3
3888.9,113.5,71.782,-71.994,-17.3
3898.8,112.5,71.782,-74.994,-18.3
3908.7,109.5,71.782,-77.994,-19.3
3918.6,105.5,67.782,-79.994,-21.3
3928.5,103.5,69.782,-81.994,-22.3
3938.3,100.5,67.782,-84.994,-24.3
3948.2,98.495,66.782,-85.994,-26.3
3958.1,95.495,62.782,-88.994,-26.3
3968.0,90.495,60.782,-88.994,-28.3
3977.9,87.495,59.782,-94.994,-26.3
3987.8,84.495,57.782,-93.994,-29.3
3997.7,81.495,58.782,-96.994,-29.3
4007.5,80.495,55.782,-101.99,-30.3
4017.4,76.495,55.782,-102.99,-31.3
4027.3,73.495,54.782,-101.99,-33.3
4037.2,66.495,51.782,-104.99,-32.3
4047.1,65.495,49.782,-104.99,-33.3
4057.0,58.495,47.782,-107.99,-33.3
4066.9,56.495,48.782,-104.99,-32.3
4076.7,57.495,47.782,-102.99,-30.3
4086.6,59.495,48.782,-98.994,-28.3
4096.5,60.495,47.782,-90.994,-25.3
4106.4,62.495,48.782,-83.994,-21.3
4116.3,67.495,50.782,-73.994,-16.3
4126.2,71.495,50.782,-63.994,-15.3
4136.1,76.495,49.782,-56.994,-11.3
4145.9,79.495,50.782,-49.994,-8.3004
4155.8,79.495,49.782,-43.994,-6.3004
4165.7,81.495,48.782,-37.994,-4.3004
4175.6,82.495,46.782,-33.994,-4.3004
4185.5,78.495,44.782,-31.994,-3.3004
4195.4,79.495,43.782,-31.994,-3.3004
4205.3,81.495,43.782,-29.994,-3.3004
4215.1,79.495,40.782,-31.994,-5.3004
4225.0,80.495,40.782,-29.994,-5.3004
4234.9,80.495,40.782,-30.994,-5.3004
4244.8,82.495,39.782,-30.994,-5.3004
4254.7,83.495,39.782,-28.994,-5.3004
4264.6,81.495,39.782,-32.994,-6.3004
4274.5,80.495,39.782,-35.994,-8.3004
4284.3,77.495,36.782,-38.994,-9.3004
4294.2,78.495,35.782,-39.994,-11.3
4304.1,76.495,35.782,-43.994,-13.3
4314.0,74.495,34.782,-48.994,-14.3
4323.9,69.495,30.782,-53.994,-17.3
4333.8,67.495,30.782,-55.994,-17.3
4343.7,66.495,30.782,-60.994,-20.3
4353.5,65.495,29.782,-61.994,-20.3
4363.4,64.495,28.782,-62.994,-20.3
4373.3,62.495,27.782,-62.994,-18.3
4383.2,59.495,27.782,-62.994,-19.3
4393.1,59.495,27.782,-64.994,-19.3
4403.0,52.495,21.782,-62.994,-19.3
4412.9,52.495,21.782,-64.994,-19.3
4422.7,46.495,20.782,-63.994,-20.3
4432.6,46.495,20.782,-64.994,-19.3
4442.5,41.495,18.782,-64.994,-20.3
4452.4,41.495,18.782,-62.994,-18.3
4462.3,35.495,12.782,-62.994,-18.3
4472.2,35.495,12.782,-64.994,-18.3
4482.1,30.495,12.782,-65.994,-18.3
4491.9,30.495,12.782,-67.994,-20.3
4501.8,23.495,8.7815,-68.994,-20.3
4511.7,23.495,8.7815,-73.994,-22.3
4521.6,21.495,6.7815,-75.994,-24.3
4531.5,21.495,6.7815,-76.994,-25.3
4541.4,17.495,6.7815,-79.994,-25.3
4551.3,13.495,4.7815,-77.994,-24.3
4561.1,13.495,4.7815,-78.994,-25.3
4571.0,9.4951,4.7815,-78.994,-25.3
4580.9,8.4951,4.7815,-78.994,-25.3
4590.8,5.4951,2.7815,-78.994,-25.3
4600.7,2.4951,1.7815,-79.994,-24.3
4610.6,-3.5049,-2.2185,-79.994,-24.3
4620.5,-5.5049,-1.2185,-85.994,-26.3
4630.3,-5.5049,-1.2185,-85.994,-26.3
4640.2,-6.5049,-1.2185,-79.994,-23.3
4650.1,-3.5049,-0.21849,-79.994,-23.3
4660.0,-0.50494,0.78151,-61.994,-14.3
4669.9,3.4951,3.7815,-61.994,-14.3
4679.8,9.4951,4.7815,-41.994,-6.3004
4689.7,12.495,6.7815,-41.994,-6.3004
4699.5,17.495,7.7815,-26.994,-0.30042
4709.4,20.495,8.7815,-26.994,-0.30042
4719.3,23.495,6.7815,-14.994,2.6996
4729.2,22.495,4.7815,-14.994,2.6996
4739.1,23.495,1.7815,-6.9943,5.6996
4749.0,24.495,1.7815,-6.9943,5.6996
4758.9,27.495,2.7815,-0.99427,5.6996
4768.7,28.495,1.7815,-0.99427,5.6996
4778.6,29.495,2.7815,0.0057342,7.6996
4788.5,33.495,2.7815,0.0057342,7.6996
4798.4,34.495,4.7815,1.0057,9.6996
4808.3,37.495,5.7815,1.0057,6.6996
4818.2,38.495,6.7815,-0.99427,5.6996
4828.1,39.495,5.7815,0.0057342,3.6996
4837.9,42.495,5.7815,-0.99427,4.6996
4847.8,41.495,6.7815,-5.9943,3.6996
4857.7,40.495,6.7815,-5.9943,1.6996
4867.6,40.495,6.7815,-9.9943,-1.3004
4877.5,39.495,6.7815,-17.994,-2.3004
4887.4,38.495,5.7815,-18.994,-4.3004
4897.3,40.495,7.7815,-23.994,-6.3004
4907.1,38.495,7.7815,-24.994,-7.3004
4917.0,39.495,8.7815,-28.994,-8.3004
4926.9,39.495,8.7815,-32.994,-9.3004
4936.8,40.495,8.7815,-34.994,-10.3
4946.7,40.495,9.7815,-36.994,-9.3004
4956.6,39.495,10.782,-34.994,-11.3
4966.5,38.495,8.7815,-38.994,-9.3004
4976.3,35.495,8.7815,-37.994,-11.3
4986.2,34.495,8.7815,-37.994,-11.3
4996.1,36.495,7.7815,-38.994,-10.3
5006.0,36.495,9.7815,-41.994,-12.3
5015.9,35.495,8.7815,-41.994,-13.3
5025.8,34.495,9.7815,-43.994,-13.3
5035.7,34.495,10.782,-42.994,-13.3
5045.5,32.495,9.7815,-45.994,-13.3
5055.4,33.495,12.782,-46.994,-14.3
5065.3,32.495,12.782,-50.994,-15.3
5075.2,29.495,11.782,-51.994,-16.3
5085.1,29.495,11.782,-55.994,-18.3
5095.0,25.495,9.7815,-57.994,-18.3
5104.9,26.495,9.7815,-58.994,-17.3
5114.7,23.495,9.7815,-59.994,-19.3
5124.6,23.495,9.7815,-60.994,-20.3
5134.5,19.495,9.7815,-60.994,-18.3
5144.4,19.495,9.7815,-62.994,-18.3
5154.3,19.495,9.7815,-62.994,-18.3
5164.2,19.495,9.7815,-62.994,-17.3
5174.1,10.495,9.7815,-64.994,-18.3
5183.9,10.495,9.7815,-67.994,-18.3
5193.8,8.4951,8.7815,-68.994,-18.3
5203.7,8.4951,8.7815,-68.994,-18.3
5213.6,16.495,12.782,-62.994,-14.3
5223.5,16.495,12.782,-56.994,-11.3
5233.4,21.495,13.782,-47.994,-8.3004
5243.3,21.495,13.782,-37.994,-4.3004
5253.1,29.495,16.782,-27.994,2.6996
5263.0,29.495,16.782,-16.994,6.6996
5272.9,35.495,18.782,-7.9943,10.7
5282.8,41.495,19.782,1.0057,12.7
5292.7,41.495,18.782,7.0057,14.7
5302.6,40.495,17.782,8.0057,15.7
5312.5,42.495,18.782,11.006,15.7
5322.3,42.495,14.782,12.006,15.7
5332.2,44.495,15.782,11.006,17.7
5342.1,46.495,16.782,12.006,15.7
5352.0,46.495,15.782,12.006,15.7
5361.9,47.495,16.782,12.006,15.7
5371.8,47.495,14.782,10.006,14.7
5381.7,45.495,13.782,9.0057,13.7
5391.5,45.495,13.782,6.0057,13.7
5401.4,45.495,12.782,3.0057,12.7
5411.3,44.495,11.782,1.0057,10.7
5421.2,42.495,11.782,-3.9943,9.6996
5431.1,41.495,10.782,-3.9943,8.6996
5441.0,44.495,13.782,-8.9943,6.6996
5450.9,41.495,12.782,-10.994,5.6996
5460.7,39.495,10.782,-14.994,4.6996
5470.6,35.495,10.782,-18.994,4.6996
5480.5,36.495,7.7815,-20.994,3.6996
5490.4,33.495,8.7815,-21.994,2.6996
5500.3,31.495,7.7815,-22.994,2.6996
5510.2,31.495,8.7815,-25.994,2.6996
5520.1,30.495,7.7815,-24.994,1.6996
5529.9,27.495,6.7815,-27.994,1.6996
5539.8,26.495,6.7815,-30.994,1.6996
5549.7,25.495,4.7815,-30.994,1.6996
5559.6,22.495,4.7815,-31.994,1.6996
5569.5,18.495,3.7815,-31.994,1.6996
5579.4,17.495,1.7815,-33.994,1.6996
5589.3,14.495,2.7815,-32.994,0.69958
5599.1,14.495,1.7815,-34.994,2.6996
5609.0,11.495,1.7815,-35.994,0.69958
5618.9,10.495,-0.21849,-39.994,0.69958
5628.8,8.4951,0.78151,-41.994,-0.30042
5638.7,5.4951,-1.2185,-45.994,-0.30042
5648.6,1.4951,-2.2185,-48.994,-2.3004
5658.5,-0.50494,-3.2185,-48.994,-1.3004
5668.3,-5.5049,-5.2185,-50.994,-1.3004
5678.2,-6.5049,-4.2185,-50.994,-1.3004
5688.1,-6.5049,-6.2185,-56.994,-2.3004
5698.0,-8.5049,-4.2185,-56.994,-2.3004
5707.9,-9.5049,-4.2185,-58.994,-3.3004
5717.8,-12.505,-3.2185,-58.994,-3.3004
5727.7,-14.505,-3.2185,-62.994,-2.3004
5737.5,-15.505,-3.2185,-62.994,-2.3004
5747.4,-19.505,-3.2185,-66.994,-4.3004
5757.3,-23.505,-1.2185,-66.994,-4.3004
5767.2,-22.505,-1.2185,-68.994,-4.3004
5777.1,-15.505,1.7815,-68.994,-4.3004
5787.0,-13.505,4.7815,-54.994,2.6996
5796.9,-10.505,3.7815,-54.994,2.6996
5806.7,-8.5049,1.7815,-33.994,13.7
5816.6,-8.5049,1.7815,-33.994,13.7
5826.5,-4.5049,2.7815,-17.994,20.7
5836.4,-4.5049,2.7815,-17.994,20.7
5846.3,2.4951,4.7815,-0.99427,26.7
5856.2,2.4951,4.7815,-0.99427,26.7
5866.1,6.4951,3.7815,6.0057,29.7
5875.9,6.4951,3.7815,6.0057,29.7
5885.8,9.4951,4.7815,9.0057,29.7
5895.7,9.4951,4.7815,10.006,30.7
5905.6,14.495,2.7815,14.006,29.7
5915.5,14.495,2.7815,14.006,29.7
5925.4,14.495,3.7815,15.006,29.7
5935.3,14.495,3.7815,14.006,27.7
5945.1,16.495,4.7815,13.006,26.7
5955.0,16.495,4.7815,11.006,25.7
5964.9,15.495,5.7815,12.006,26.7
5974.8,15.495,5.7815,10.006,23.7
5984.7,17.495,5.7815,5.0057,23.7
5994.6,15.495,5.7815,3.0057,22.7
6004.5,17.495,6.7815,-1.9943,20.7
6014.3,15.495,6.7815,-2.9943,18.7
6024.2,14.495,5.7815,-6.9943,16.7
6034.1,14.495,5.7815,-9.9943,15.7
6044.0,13.495,5.7815,-12.994,13.7
6053.9,11.495,6.7815,-14.994,13.7
6063.8,9.4951,5.7815,-15.994,12.7
6073.7,10.495,5.7815,-14.994,13.7
6083.5,9.4951,4.7815,-18.994,11.7
6093.4,5.4951,3.7815,-20.994,10.7
6103.3,5.4951,3.7815,-21.994,10.7
6113.2,4.4951,4.7815,-23.994,9.6996
6123.1,2.4951,4.7815,-24.994,7.6996
6133.0,3.4951,5.7815,-23.994,8.6996
6142.9,4.4951,5.7815,-25.994,6.6996
6152.7,0.49506,5.7815,-27.994,6.6996
6162.6,-0.50494,6.7815,-28.994,5.6996
6172.5,-3.5049,6.7815,-26.994,6.6996
6182.4,-4.5049,5.7815,-28.994,5.6996
6192.3,-6.5049,5.7815,-28.994,6.6996
6202.2,-5.5049,7.7815,-31.994,5.6996
6212.1,-9.5049,5.7815,-33.994,3.6996
6221.9,-10.505,6.7815,-36.994,2.6996
6231.8,-13.505,5.7815,-40.994,1.6996
6241.7,-13.505,6.7815,-44.994,-0.30042
6251.6,-15.505,6.7815,-45.994,-1.3004
6261.5,-15.505,6.7815,-46.994,-1.3004
6271.4,-18.505,6.7815,-47.994,-2.3004
6281.2,-19.505,6.7815,-47.994,-4.3004
6291.1,-20.505,6.7815,-50.994,-4.3004
6301.0,-22.505,6.7815,-51.994,-5.3004
6310.9,-28.505,6.7815,-51.994,-5.3004
6320.8,-28.505,7.7815,-51.994,-3.3004
6330.7,-30.505,7.7815,-53.994,-4.3004
6340.6,-28.505,10.782,-52.994,-2.3004
6350.5,-24.505,12.782,-46.994,-0.30042
6360.3,-22.505,13.782,-38.994,3.6996
6370.2,-20.505,13.782,-29.994,7.6996
6380.1,-18.505,14.782,-20.994,11.7
6390.0,-15.505,14.782,-7.9943,15.7
6399.9,-11.505,16.782,1.0057,19.7
6409.8,-7.5049,16.782,5.0057,21.7
6419.6,-2.5049,19.782,12.006,22.7
6429.5,0.49506,18.782,15.006,23.7
6439.4,3.4951,20.782,19.006,23.7
6449.3,4.4951,21.782,19.006,24.7
6459.2,7.4951,21.782,22.006,24.7
6469.1,8.4951,22.782,25.006,25.7
6479.0,11.495,23.782,23.006,23.7
6488.9,13.495,23.782,27.006,25.7
6498.7,13.495,24.782,27.006,23.7
6508.6,16.495,23.782,27.006,24.7
6518.5,16.495,24.782,27.006,23.7
6528.4,18.495,27.782,27.006,22.7
6538.3,19.495,27.782,22.006,20.7
6548.2,19.495,29.782,16.006,17.7
6558.0,20.495,30.782,13.006,15.7
6567.9,20.495,30.782,8.0057,13.7
6577.8,16.495,29.782,2.0057,9.6996
6587.7,16.495,29.782,-0.99427,8.6996
6597.6,15.495,29.782,-8.9943,6.6996
6607.5,15.495,29.782,-12.994,4.6996
6617.4,13.495,29.782,-17.994,3.6996
6627.2,13.495,29.782,-17.994,3.6996
6637.1,10.495,30.782,-19.994,2.6996
6647.0,10.495,30.782,-18.994,2.6996
6656.9,9.4951,32.782,-19.994,2.6996
6666.8,9.4951,32.782,-19.994,3.6996
6676.7,8.4951,33.782,-20.994,3.6996
6686.6,8.4951,33.782,-22.994,2.6996
6696.4,7.4951,35.782,-23.994,2.6996
6706.3,7.4951,35.782,-22.994,2.6996
6716.2,3.4951,34.782,-23.994,2.6996
6726.1,2.4951,34.782,-23.994,2.6996
6736.0,1.4951,35.782,-26.994,0.69958
6745.9,0.49506,37.782,-26.994,0.69958
6755.8,0.49506,37.782,-30.994,-1.3004
6765.6,-1.5049,36.782,-30.994,-1.3004
6775.5,-2.5049,38.782,-35.994,-4.3004
6785.4,-4.5049,38.782,-35.994,-4.3004
6795.3,-6.5049,39.782,-41.994,-6.3004
6805.2,-5.5049,40.782,-41.994,-6.3004
6815.1,-6.5049,40.782,-45.994,-7.3004
6825.0,-7.5049,42.782,-45.994,-7.3004
6834.8,-8.5049,42.782,-49.994,-8.3004
6844.7,-9.5049,45.782,-49.994,-8.3004
6854.6,-10.505,45.782,-49.994,-8.3004
6864.5,-13.505,45.782,-49.994,-8.3004
6874.4,-14.505,45.782,-54.994,-9.3004
6884.3,-20.505,44.782,-54.994,-9.3004
6894.2,-22.505,45.782,-53.994,-8.3004
6904.0,-28.505,45.782,-53.994,-8.3004
6913.9,-22.505,48.782,-44.994,-5.3004
6923.8,-18.505,51.782,-44.994,-5.3004
6933.7,-15.505,51.782,-38.994,-1.3004
6943.6,-16.505,50.782,-26.994,4.6996
6953.5,-16.505,46.782,-16.994,8.6996
6963.4,-15.505,46.782,-5.9943,12.7
6973.2,-12.505,48.782,5.0057,17.7
6983.1,-8.5049,48.782,14.006,20.7
6993.0,-5.5049,49.782,23.006,23.7
7002.9,-1.5049,47.782,28.006,25.7
7012.8,-3.5049,46.782,32.006,25.7
7022.7,-3.5049,43.782,35.006,25.7
7032.6,0.49506,46.782,36.006,27.7
7042.4,1.4951,45.782,40.006,28.7
7052.3,1.4951,43.782,42.006,27.7
7062.2,4.4951,43.782,42.006,27.7
7072.1,4.4951,46.782,43.006,27.7
7082.0,3.4951,44.782,44.006,26.7
7091.9,4.4951,43.782,42.006,26.7
7101.8,5.4951,44.782,42.006,26.7
7111.6,5.4951,44.782,40.006,24.7
7121.5,3.4951,44.782,39.006,24.7
7131.4,4.4951,43.782,36.006,24.7
7141.3,2.4951,42.782,32.006,20.7
7151.2,-1.5049,39.782,30.006,19.7
7161.1,-2.5049,38.782,28.006,19.7
7171.0,-1.5049,39.782,26.006,17.7
7180.8,-4.5049,39.782,25.006,17.7
7190.7,-3.5049,38.782,24.006,16.7
7200.6,-4.5049,38.782,22.006,17.7
7210.5,-3.5049,40.782,21.006,16.7
7220.4,-1.5049,40.782,23.006,17.7
7230.3,-3.5049,40.782,20.006,16.7
7240.2,-7.5049,40.782,17.006,15.7
7250.0,-8.5049,38.782,16.006,14.7
7259.9,-11.505,37.782,14.006,14.7
7269.8,-12.505,36.782,11.006,13.7
7279.7,-13.505,37.782,9.0057,12.7
7289.6,-13.505,36.782,9.0057,11.7
7299.5,-13.505,36.782,5.0057,9.6996
7309.4,-18.505,34.782,3.0057,7.6996
7319.2,-18.505,34.782,-0.99427,6.6996
7329.1,-20.505,34.782,-3.9943,5.6996
7339.0,-20.505,34.782,-4.9943,4.6996
7348.9,-25.505,31.782,-7.9943,1.6996
7358.8,-25.505,31.782,-11.994,0.69958
7368.7,-27.505,31.782,-14.994,-0.30042
7378.6,-27.505,31.782,-18.994,-3.3004
7388.4,-32.505,28.782,-23.994,-3.3004
7398.3,-32.505,28.782,-26.994,-7.3004
7408.2,-40.505,25.782,-27.994,-6.3004
7418.1,-40.505,25.782,-30.994,-8.3004
7428.0,-40.505,24.782,-32.994,-8.3004
7437.9,-44.505,22.782,-32.994,-10.3
7447.8,-50.505,20.782,-35.994,-11.3
7457.6,-53.505,18.782,-40.994,-11.3
7467.5,-59.505,17.782,-42.994,-13.3
7477.4,-61.505,18.782,-43.994,-15.3
7487.3,-60.505,17.782,-42.994,-13.3
7497.2,-58.505,16.782,-37.994,-10.3
7507.1,-55.505,18.782,-28.994,-8.3004
7517.0,-52.505,18.782,-15.994,-2.3004
7526.8,-51.505,18.782,-6.9943,0.69958
7536.7,-46.505,19.782,0.0057342,3.6996
7546.6,-42.505,22.782,6.0057,6.6996
7556.5,-39.505,24.782,11.006,6.6996
7566.4,-34.505,23.782,15.006,7.6996
7576.3,-34.505,22.782,21.006,9.6996
7586.2,-33.505,19.782,25.006,10.7
7596.0,-33.505,19.782,26.006,10.7
7605.9,-31.505,17.782,31.006,12.7
7615.8,-33.505,15.782,31.006,11.7
7625.7,-32.505,16.782,25.006,8.6996
7635.6,-32.505,13.782,26.006,8.6996
7645.5,-32.505,13.782,23.006,6.6996
7655.4,-33.505,12.782,23.006,5.6996
7665.2,-32.505,12.782,21.006,4.6996
7675.1,-32.505,13.782,15.006,1.6996
7685.0,-31.505,14.782,9.0057,-1.3004
7694.9,-31.505,14.782,6.0057,-4.3004
7704.8,-33.505,12.782,-2.9943,-7.3004
7714.7,-32.505,11.782,-9.9943,-11.3
7724.6,-35.505,11.782,-10.994,-11.3
7734.4,-35.505,10.782,-12.994,-13.3
7744.3,-39.505,8.7815,-15.994,-14.3
7754.2,-40.505,7.7815,-15.994,-12.3
7764.1,-43.505,5.7815,-16.994,-13.3
7774.0,-41.505,5.7815,-18.994,-14.3
7783.9,-44.505,5.7815,-22.994,-14.3
7793.8,-45.505,6.7815,-23.994,-14.3
7803.6,-47.505,3.7815,-24.994,-15.3
7813.5,-51.505,3.7815,-24.994,-16.3
7823.4,-52.505,2.7815,-28.994,-17.3
7833.3,-55.505,0.78151,-28.994,-17.3
7843.2,-58.505,-1.2185,-33.994,-20.3
7853.1,-59.505,-2.2185,-33.994,-20.3
7863.0,-62.505,-2.2185,-34.994,-21.3
7872.8,-62.505,-5.2185,-34.994,-21.3
7882.7,-67.505,-7.2185,-40.994,-23.3
7892.6,-70.505,-8.2185,-40.994,-23.3
7902.5,-74.505,-8.2185,-46.994,-26.3
7912.4,-77.505,-10.218,-46.994,-26.3
7922.3,-78.505,-11.218,-46.994,-27.3
7932.2,-81.505,-12.218,-46.994,-27.3
7942.0,-85.505,-13.218,-48.994,-27.3
7951.9,-86.505,-16.218,-48.994,-27.3
7961.8,-89.505,-16.218,-49.994,-26.3
7971.7,-91.505,-18.218,-49.994,-26.3
7981.6,-92.505,-19.218,-52.994,-28.3
7991.5,-97.505,-19.218,-52.994,-28.3
8001.4,-99.505,-20.218,-56.994,-29.3
8011.2,-99.505,-20.218,-56.994,-29.3
8021.1,-106.5,-24.218,-60.994,-30.3
8031.0,-106.5,-24.218,-60.994,-30.3
8040.9,-114.5,-26.218,-61.994,-32.3
8050.8,-114.5,-26.218,-61.994,-33.3
8060.7,-109.5,-24.218,-58.994,-31.3
8070.6,-109.5,-24.218,-52.994,-28.3
8080.4,-101.5,-23.218,-42.994,-22.3
8090.3,-101.5,-23.218,-30.994,-17.3
8100.2,-98.505,-22.218,-20.994,-12.3
8110.1,-98.505,-22.218,-12.994,-8.3004
8120.0,-88.505,-22.218,-2.9943,-4.3004
8129.9,-88.505,-22.218,4.0057,-2.3004
8139.8,-87.505,-24.218,9.0057,-1.3004
8149.6,-87.505,-24.218,15.006,0.69958
8159.5,-84.505,-24.218,16.006,1.6996
8169.4,-83.505,-24.218,18.006,1.6996
8179.3,-82.505,-26.218,21.006,0.69958
8189.2,-80.505,-27.218,21.006,-0.30042
8199.1,-78.505,-26.218,22.006,-0.30042
8209.0,-75.505,-27.218,21.006,-0.30042
8218.8,-75.505,-27.218,18.006,-1.3004
8228.7,-74.505,-27.218,16.006,-3.3004
8238.6,-73.505,-27.218,15.006,-2.3004
8248.5,-72.505,-26.218,15.006,-2.3004
8258.4,-73.505,-27.218,12.006,-3.3004
8268.3,-71.505,-28.218,10.006,-4.3004
8278.2,-73.505,-28.218,6.0057,-7.3004
8288.0,-75.505,-28.218,1.0057,-8.3004
8297.9,-75.505,-29.218,-1.9943,-14.3
8307.8,-73.505,-29.218,-7.9943,-15.3
8317.7,-75.505,-31.218,-9.9943,-15.3
8327.6,-75.505,-32.218,-15.994,-15.3
8337.5,-76.505,-32.218,-16.994,-16.3
8347.4,-78.505,-32.218,-17.994,-16.3
8357.2,-76.505,-32.218,-18.994,-16.3
8367.1,-78.505,-32.218,-17.994,-17.3
8377.0,-77.505,-31.218,-22.994,-18.3
8386.9,-77.505,-31.218,-23.994,-18.3
8396.8,-77.505,-33.218,-24.994,-17.3
8406.7,-79.505,-31.218,-24.994,-16.3
8416.6,-78.505,-32.218,-22.994,-17.3
8426.4,-79.505,-31.218,-23.994,-17.3
8436.3,-79.505,-31.218,-21.994,-18.3
8446.2,-79.505,-32.218,-24.994,-18.3
8456.1,-80.505,-31.218,-27.994,-19.3
8466.0,-81.505,-32.218,-30.994,-21.3
8475.9,-80.505,-30.218,-32.994,-19.3
8485.8,-82.505,-31.218,-36.994,-22.3
8495.6,-81.505,-31.218,-40.994,-24.3
8505.5,-83.505,-30.218,-42.994,-26.3
8515.4,-82.505,-31.218,-44.994,-27.3
8525.3,-81.505,-30.218,-46.994,-27.3
8535.2,-86.505,-30.218,-44.994,-27.3
8545.1,-85.505,-30.218,-43.994,-25.3
8555.0,-84.505,-28.218,-44.994,-24.3
8564.8,-83.505,-28.218,-41.994,-23.3
8574.7,-81.505,-26.218,-43.994,-22.3
8584.6,-87.505,-29.218,-44.994,-23.3
8594.5,-88.505,-27.218,-47.994,-23.3
8604.4,-89.505,-26.218,-49.994,-24.3
8614.3,-87.505,-28.218,-48.994,-24.3
8624.2,-81.505,-21.218,-46.994,-22.3
8634.0,-77.505,-19.218,-40.994,-19.3
8643.9,-70.505,-16.218,-31.994,-14.3
8653.8,-67.505,-15.218,-21.994,-10.3
8663.7,-59.505,-12.218,-12.994,-6.3004
8673.6,-54.505,-12.218,-3.9943,-3.3004
8683.5,-51.505,-10.218,5.0057,0.69958
8693.4,-47.505,-9.2185,11.006,2.6996
8703.2,-44.505,-10.218,15.006,5.6996
8713.1,-43.505,-11.218,13.006,3.6996
8723.0,-39.505,-10.218,18.006,5.6996
8732.9,-37.505,-9.2185,21.006,4.6996
8742.8,-37.505,-9.2185,21.006,4.6996
8752.7,-32.505,-10.218,20.006,3.6996
8762.6,-32.505,-10.218,22.006,4.6996
8772.4,-26.505,-9.2185,21.006,4.6996
8782.3,-26.505,-9.2185,20.006,4.6996
8792.2,-22.505,-6.2185,18.006,3.6996
8802.1,-22.505,-6.2185,17.006,4.6996
8812.0,-17.505,-7.2185,16.006,2.6996
8821.9,-17.505,-7.2185,15.006,1.6996
8831.7,-19.505,-6.2185,9.0057,-0.30042
8841.6,-19.505,-6.2185,5.0057,-3.3004
8851.5,-20.505,-6.2185,1.0057,-3.3004
8861.4,-20.505,-6.2185,-4.9943,-6.3004
8871.3,-22.505,-6.2185,-8.9943,-8.3004
8881.2,-22.505,-6.2185,-8.9943,-8.3004
8891.1,-22.505,-7.2185,-13.994,-9.3004
8901.0,-23.505,-9.2185,-13.994,-9.3004
8910.8,-25.505,-9.2185,-18.994,-9.3004
8920.7,-26.505,-10.218,-18.994,-9.3004
8930.6,-26.505,-9.2185,-21.994,-10.3
8940.5,-28.505,-9.2185,-21.994,-10.3
8950.4,-26.505,-7.2185,-22.994,-11.3
8960.3,-27.505,-8.2185,-22.994,-11.3
8970.1,-29.505,-10.218,-24.994,-10.3
8980.0,-30.505,-10.218,-24.994,-10.3
8989.9,-30.505,-11.218,-24.994,-10.3
8999.8,-33.505,-11.218,-24.994,-10.3
9009.7,-32.505,-12.218,-27.994,-9.3004
9019.6,-35.505,-12.218,-27.994,-9.3004
9029.5,-39.505,-13.218,-33.994,-12.3
9039.4,-39.505,-13.218,-33.994,-12.3
9049.2,-44.505,-16.218,-37.994,-13.3
9059.1,-44.505,-14.218,-37.994,-13.3
9069.0,-43.505,-15.218,-41.994,-15.3
9078.9,-49.505,-17.218,-41.994,-15.3
9088.8,-50.505,-18.218,-46.994,-15.3
9098.7,-53.505,-17.218,-47.994,-15.3
9108.5,-57.505,-20.218,-48.994,-15.3
9118.4,-56.505,-19.218,-48.994,-15.3
9128.3,-60.505,-20.218,-51.994,-15.3
9138.2,-63.505,-22.218,-52.994,-16.3
9148.1,-64.505,-23.218,-54.994,-15.3
9158.0,-69.505,-25.218,-53.994,-16.3
9167.9,-74.505,-26.218,-58.994,-16.3
9177.7,-73.505,-25.218,-61.994,-16.3
9187.6,-72.505,-23.218,-61.994,-16.3
9197.5,-68.505,-21.218,-58.994,-13.3
9207.4,-63.505,-21.218,-50.994,-10.3
9217.3,-61.505,-21.218,-43.994,-6.3004
9227.2,-57.505,-23.218,-34.994,-2.3004
9237.1,-52.505,-20.218,-26.994,1.6996
9246.9,-49.505,-19.218,-15.994,6.6996
9256.8,-45.505,-19.218,-7.9943,8.6996
9266.7,-40.505,-17.218,-0.99427,11.7
9276.6,-36.505,-16.218,1.0057,12.7
9286.5,-33.505,-17.218,5.0057,12.7
9296.4,-29.505,-17.218,7.0057,13.7
9306.3,-27.505,-17.218,10.006,13.7
9316.1,-24.505,-17.218,10.006,14.7
9326.0,-23.505,-19.218,13.006,13.7
9335.9,-21.505,-17.218,11.006,12.7
9345.8,-17.505,-18.218,11.006,9.6996
9355.7,-13.505,-15.218,11.006,12.7
9365.6,-13.505,-15.218,11.006,10.7
9375.5,-8.5049,-13.218,9.0057,10.7
9385.3,-8.5049,-13.218,8.0057,7.6996
9395.2,-7.5049,-12.218,2.0057,4.6996
9405.1,-9.5049,-11.218,-1.9943,3.6996
9415.0,-8.5049,-12.218,-6.9943,0.69958
9424.9,-9.5049,-12.218,-8.9943,-1.3004
9434.8,-9.5049,-12.218,-14.994,-3.3004
9444.7,-9.5049,-12.218,-16.994,-3.3004
9454.5,-9.5049,-12.218,-17.994,-5.3004
9464.4,-10.505,-14.218,-19.994,-6.3004
9474.3,-10.505,-14.218,-21.994,-6.3004
9484.2,-12.505,-14.218,-21.994,-7.3004
9494.1,-12.505,-14.218,-24.994,-8.3004
9504.0,-12.505,-12.218,-25.994,-6.3004
9513.9,-12.505,-12.218,-26.994,-8.3004
9523.7,-13.505,-11.218,-29.994,-9.3004
9533.6,-13.505,-11.218,-28.994,-10.3
9543.5,-14.505,-13.218,-26.994,-10.3
9553.4,-14.505,-13.218,-28.994,-12.3
9563.3,-16.505,-13.218,-28.994,-11.3
9573.2,-16.505,-13.218,-29.994,-12.3
9583.1,-19.505,-12.218,-34.994,-13.3
9592.9,-19.505,-12.218,-36.994,-14.3
9602.8,-21.505,-12.218,-37.994,-14.3
9612.7,-20.505,-12.218,-37.994,-15.3
9622.6,-23.505,-14.218,-39.994,-16.3
9632.5,-25.505,-14.218,-41.994,-17.3
9642.4,-26.505,-14.218,-42.994,-18.3
9652.3,-26.505,-14.218,-44.994,-18.3
9662.1,-29.505,-15.218,-47.994,-19.3
9672.0,-32.505,-16.218,-49.994,-20.3
9681.9,-33.505,-14.218,-50.994,-22.3
9691.8,-32.505,-14.218,-52.994,-22.3
9701.7,-33.505,-12.218,-55.994,-23.3
9711.6,-34.505,-14.218,-54.994,-21.3
9721.5,-36.505,-12.218,-56.994,-22.3
9731.3,-38.505,-13.218,-59.994,-23.3
9741.2,-41.505,-13.218,-61.994,-24.3
9751.1,-43.505,-12.218,-61.994,-25.3
9761.0,-38.505,-11.218,-60.994,-24.3
9770.9,-35.505,-6.2185,-55.994,-22.3
9780.8,-29.505,-3.2185,-48.994,-18.3
9790.7,-24.505,-3.2185,-38.994,-14.3
9800.5,-21.505,-2.2185,-29.994,-11.3
9810.4,-15.505,-2.2185,-19.994,-5.3004
9820.3,-11.505,0.78151,-12.994,-2.3004
9830.2,-4.5049,4.7815,-4.9943,-0.30042
9840.1,3.4951,6.7815,-2.9943,-0.30042
9850.0,7.4951,7.7815,0.0057342,-1.3004
9859.9,14.495,10.782,1.0057,-1.3004
9869.7,18.495,10.782,3.0057,-0.30042
9879.6,21.495,11.782,7.0057,-0.30042
9889.5,25.495,12.782,6.0057,-0.30042
9899.4,28.495,12.782,8.0057,-1.3004
9909.3,31.495,12.782,5.0057,-3.3004
9919.2,33.495,13.782,2.0057,-3.3004
9929.1,35.495,14.782,3.0057,-5.3004
9938.9,38.495,15.782,-1.9943,-5.3004
9948.8,40.495,15.782,-0.99427,-7.3004
9958.7,42.495,16.782,-4.9943,-8.3004
9968.6,42.495,17.782,-4.9943,-8.3004
9978.5,42.495,18.782,-8.9943,-10.3
9988.4,43.495,20.782,-8.9943,-10.3
9998.3,44.495,19.782,-18.994,-16.3
10008.0,41.495,21.782,-18.994,-16.3
10018.0,41.495,21.782,-26.994,-20.3
10028.0,40.495,20.782,-26.994,-20.3
10038.0,40.495,19.782,-29.994,-21.3
10048.0,39.495,20.782,-29.994,-21.3
10058.0,40.495,19.782,-32.994,-21.3
10068.0,37.495,21.782,-32.994,-21.3
10077.0,38.495,22.782,-32.994,-19.3
10087.0,39.495,22.782,-32.994,-19.3
10097.0,38.495,23.782,-33.994,-21.3
10107.0,37.495,23.782,-33.994,-21.3
10117.0,37.495,23.782,-34.994,-21.3
10127.0,36.495,23.782,-34.994,-21.3
10137.0,34.495,23.782,-34.994,-21.3
10147.0,31.495,21.782,-34.994,-21.3
10156.0,29.495,20.782,-33.994,-21.3
10166.0,27.495,19.782,-33.994,-21.3
10176.0,26.495,20.782,-36.994,-20.3
10186.0,26.495,20.782,-36.994,-20.3
10196.0,25.495,18.782,-39.994,-20.3
10206.0,25.495,18.782,-41.994,-22.3
10216.0,19.495,19.782,-41.994,-22.3
10226.0,19.495,19.782,-42.994,-25.3
10236.0,13.495,16.782,-47.994,-25.3
10245.0,13.495,16.782,-50.994,-27.3
10255.0,7.4951,15.782,-54.994,-28.3
10265.0,7.4951,15.782,-57.994,-30.3
10275.0,2.4951,14.782,-59.994,-30.3
10285.0,2.4951,14.782,-61.994,-31.3
10295.0,-3.5049,12.782,-62.994,-31.3
10305.0,-3.5049,12.782,-59.994,-29.3
10315.0,-6.5049,10.782,-62.994,-30.3
10325.0,-11.505,9.7815,-62.994,-30.3
10334.0,-12.505,12.782,-62.994,-28.3
10344.0,-8.5049,13.782,-56.994,-26.3
10354.0,-6.5049,13.782,-47.994,-22.3
10364.0,-4.5049,13.782,-38.994,-17.3
10374.0,-2.5049,13.782,-27.994,-13.3
10384.0,1.4951,12.782,-16.994,-8.3004
10394.0,5.4951,14.782,-4.9943,-4.3004
10404.0,12.495,17.782,1.0057,-1.3004
10414.0,17.495,19.782,9.0057,0.69958
10423.0,23.495,19.782,17.006,2.6996
10433.0,26.495,20.782,20.006,4.6996
10443.0,28.495,20.782,25.006,4.6996
10453.0,29.495,19.782,27.006,6.6996
10463.0,33.495,19.782,29.006,6.6996
10473.0,36.495,19.782,30.006,6.6996
10483.0,38.495,18.782,31.006,5.6996
10493.0,38.495,18.782,29.006,4.6996
10502.0,41.495,17.782,29.006,3.6996
10512.0,43.495,17.782,26.006,2.6996
10522.0,45.495,17.782,25.006,1.6996
10532.0,46.495,18.782,22.006,1.6996
10542.0,47.495,18.782,20.006,-0.30042
10552.0,49.495,21.782,18.006,-1.3004
10562.0,48.495,19.782,11.006,-5.3004
10572.0,46.495,18.782,8.0057,-6.3004
10582.0,47.495,20.782,1.0057,-8.3004
10591.0,47.495,19.782,-1.9943,-10.3
10601.0,45.495,18.782,-4.9943,-11.3
10611.0,47.495,18.782,-7.9943,-13.3
10621.0,45.495,17.782,-9.9943,-15.3
10631.0,43.495,17.782,-12.994,-16.3
10641.0,43.495,17.782,-12.994,-16.3
10651.0,42.495,17.782,-14.994,-16.3
10661.0,42.495,16.782,-15.994,-17.3
10671.0,40.495,17.782,-18.994,-17.3
10680.0,38.495,14.782,-19.994,-17.3
10690.0,35.495,12.782,-19.994,-18.3
10700.0,35.495,11.782,-21.994,-18.3
10710.0,32.495,10.782,-22.994,-19.3
10720.0,30.495,8.7815,-22.994,-20.3
10730.0,25.495,6.7815,-25.994,-21.3
10740.0,24.495,7.7815,-26.994,-22.3
10750.0,25.495,6.7815,-31.994,-23.3
10760.0,22.495,5.7815,-30.994,-23.3
10769.0,18.495,1.7815,-32.994,-25.3
10779.0,14.495,2.7815,-33.994,-24.3
10789.0,12.495,-0.21849,-35.994,-26.3
10799.0,10.495,-0.21849,-37.994,-27.3
10809.0,7.4951,-0.21849,-40.994,-28.3
10819.0,4.4951,-1.2185,-41.994,-29.3
10829.0,3.4951,-2.2185,-41.994,-30.3
10839.0,1.4951,-3.2185,-42.994,-30.3
10848.0,-0.50494,-3.2185,-43.994,-30.3
10858.0,-3.5049,-3.2185,-43.994,-30.3
10868.0,-6.5049,-5.2185,-41.994,-27.3
10878.0,-9.5049,-6.2185,-42.994,-28.3
10888.0,-12.505,-5.2185,-41.994,-27.3
10898.0,-12.505,-5.2185,-43.994,-27.3
10908.0,-13.505,-6.2185,-43.994,-28.3
10918.0,-13.505,-6.2185,-37.994,-25.3
10928.0,-3.5049,-2.2185,-30.994,-22.3
10937.0,-3.5049,-2.2185,-20.994,-19.3
10947.0,4.4951,-1.2185,-12.994,-15.3
10957.0,4.4951,-1.2185,-4.9943,-11.3
10967.0,13.495,1.7815,5.0057,-7.3004
10977.0,13.495,1.7815,12.006,-6.3004
10987.0,19.495,-0.21849,18.006,-4.3004
10997.0,19.495,-0.21849,22.006,-3.3004
11007.0,24.495,-4.2185,27.006,-3.3004
11017.0,24.495,-4.2185,27.006,-3.3004
11026.0,25.495,-5.2185,29.006,-3.3004
11036.0,25.495,-5.2185,29.006,-3.3004
11046.0,29.495,-6.2185,32.006,-3.3004
11056.0,34.495,-5.2185,32.006,-3.3004
11066.0,35.495,-4.2185,33.006,-5.3004
11076.0,37.495,-4.2185,33.006,-5.3004
11086.0,36.495,-5.2185,28.006,-6.3004
11096.0,38.495,-4.2185,28.006,-6.3004
11106.0,39.495,-5.2185,28.006,-8.3004
11115.0,37.495,-5.2185,28.006,-8.3004
11125.0,36.495,-5.2185,17.006,-12.3
11135.0,37.495,-8.2185,17.006,-12.3
11145.0,35.495,-9.2185,8.0057,-17.3
11155.0,34.495,-9.2185,8.0057,-17.3
11165.0,34.495,-11.218,1.0057,-19.3
11175.0,32.495,-11.218,1.0057,-19.3
11185.0,30.495,-13.218,-0.99427,-20.3
11194.0,28.495,-14.218,-0.99427,-20.3
11204.0,29.495,-15.218,-4.9943,-21.3
11214.0,28.495,-12.218,-4.9943,-21.3
11224.0,28.495,-13.218,-4.9943,-22.3
11234.0,27.495,-14.218,-5.9943,-22.3
11244.0,27.495,-13.218,-9.9943,-23.3
11254.0,22.495,-16.218,-9.9943,-24.3
11264.0,19.495,-18.218,-11.994,-24.3
11274.0,17.495,-19.218,-11.994,-25.3
11283.0,18.495,-22.218,-13.994,-25.3
11293.0,15.495,-22.218,-12.994,-25.3
11303.0,13.495,-21.218,-12.994,-26.3
11313.0,12.495,-21.218,-12.994,-26.3
11323.0,10.495,-22.218,-13.994,-25.3
11333.0,10.495,-22.218,-14.994,-27.3
11343.0,8.4951,-22.218,-16.994,-27.3
11353.0,8.4951,-24.218,-18.994,-26.3
11363.0,4.4951,-24.218,-18.994,-25.3
11372.0,0.49506,-28.218,-18.994,-27.3
11382.0,-0.50494,-28.218,-19.994,-27.3
11392.0,-2.5049,-29.218,-21.994,-27.3
11402.0,-4.5049,-30.218,-21.994,-27.3
11412.0,-6.5049,-31.218,-23.994,-29.3
11422.0,-10.505,-31.218,-25.994,-30.3
11432.0,-13.505,-32.218,-30.994,-30.3
11442.0,-15.505,-35.218,-28.994,-31.3
11452.0,-20.505,-33.218,-30.994,-32.3
11461.0,-20.505,-34.218,-31.994,-31.3
11471.0,-22.505,-35.218,-30.994,-30.3
11481.0,-19.505,-35.218,-31.994,-30.3
11491.0,-16.505,-32.218,-24.994,-26.3
11501.0,-9.5049,-31.218,-17.994,-23.3
11511.0,-5.5049,-29.218,-6.9943,-19.3
11521.0,1.4951,-27.218,2.0057,-15.3
11531.0,5.4951,-24.218,13.006,-10.3
11540.0,11.495,-24.218,20.006,-7.3004
11550.0,16.495,-23.218,26.006,-5.3004
11560.0,19.495,-24.218,34.006,-4.3004
11570.0,20.495,-25.218,37.006,-1.3004
11580.0,23.495,-25.218,40.006,-1.3004
11590.0,24.495,-25.218,44.006,-1.3004
11600.0,29.495,-24.218,46.006,0.69958
11610.0,29.495,-24.218,47.006,0.69958
11620.0,38.495,-22.218,49.006,0.69958
11629.0,38.495,-22.218,51.006,0.69958
11639.0,46.495,-16.218,50.006,-0.30042
11649.0,46.495,-16.218,50.006,0.69958
11659.0,51.495,-14.218,48.006,-0.30042
11669.0,51.495,-14.218,47.006,-2.3004
11679.0,54.495,-12.218,45.006,-3.3004
11689.0,54.495,-12.218,42.006,-4.3004
11699.0,54.495,-11.218,38.006,-5.3004
11709.0,54.495,-11.218,34.006,-8.3004
11718.0,58.495,-10.218,29.006,-10.3
11728.0,58.495,-10.218,26.006,-11.3
11738.0,57.495,-9.2185,22.006,-13.3
11748.0,57.495,-9.2185,20.006,-13.3
11758.0,59.495,-8.2185,18.006,-14.3
11768.0,62.495,-6.2185,16.006,-14.3
11778.0,63.495,-6.2185,16.006,-14.3
11788.0,61.495,-5.2185,16.006,-13.3
11797.0,60.495,-5.2185,15.006,-15.3
11807.0,63.495,-5.2185,15.006,-14.3
11817.0,60.495,-5.2185,12.006,-16.3
11827.0,59.495,-4.2185,10.006,-16.3
11837.0,56.495,-5.2185,9.0057,-15.3
11847.0,56.495,-8.2185,7.0057,-17.3
11857.0,55.495,-6.2185,7.0057,-17.3
11867.0,56.495,-6.2185,4.0057,-17.3
11877.0,54.495,-6.2185,4.0057,-16.3
11886.0,51.495,-7.2185,0.0057342,-17.3
11896.0,52.495,-6.2185,-1.9943,-20.3
11906.0,51.495,-6.2185,-3.9943,-20.3
11916.0,48.495,-7.2185,-6.9943,-20.3
11926.0,48.495,-8.2185,-5.9943,-21.3
11936.0,45.495,-8.2185,-8.9943,-23.3
11946.0,44.495,-8.2185,-11.994,-24.3
11956.0,42.495,-9.2185,-14.994,-23.3
11966.0,40.495,-9.2185,-15.994,-24.3
11975.0,38.495,-9.2185,-15.994,-25.3
11985.0,36.495,-10.218,-19.994,-25.3
11995.0,34.495,-10.218,-21.994,-24.3
12005.0,32.495,-11.218,-18.994,-24.3
12015.0,27.495,-14.218,-19.994,-24.3
12025.0,24.495,-14.218,-22.994,-25.3
12035.0,22.495,-14.218,-21.994,-25.3
12045.0,22.495,-14.218,-20.994,-22.3
12055.0,26.495,-11.218,-16.994,-19.3
12064.0,30.495,-8.2185,-5.9943,-15.3
12074.0,36.495,-6.2185,4.0057,-8.3004
12084.0,37.495,-8.2185,13.006,-4.3004
12094.0,42.495,-6.2185,23.006,-0.30042
12104.0,47.495,-5.2185,32.006,3.6996
12114.0,52.495,-5.2185,42.006,6.6996
12124.0,55.495,-2.2185,42.006,6.6996
12134.0,58.495,-3.2185,53.006,11.7
12143.0,57.495,-5.2185,53.006,11.7
12153.0,58.495,-6.2185,58.006,13.7
12163.0,60.495,-9.2185,58.006,13.7
12173.0,60.495,-10.218,62.006,15.7
12183.0,60.495,-11.218,62.006,15.7
12193.0,60.495,-10.218,62.006,15.7
12203.0,61.495,-10.218,62.006,15.7
12213.0,63.495,-10.218,56.006,13.7
12223.0,65.495,-9.2185,56.006,13.7
12232.0,64.495,-11.218,54.006,11.7
12242.0,63.495,-13.218,54.006,11.7
12252.0,60.495,-11.218,48.006,10.7
12262.0,61.495,-12.218,48.006,10.7
12272.0,59.495,-12.218,37.006,5.6996
12282.0,59.495,-12.218,37.006,5.6996
12292.0,57.495,-11.218,26.006,2.6996
12302.0,57.495,-11.218,26.006,2.6996
12312.0,53.495,-14.218,20.006,1.6996
12321.0,51.495,-15.218,20.006,1.6996
12331.0,50.495,-15.218,18.006,0.69958
12341.0,50.495,-15.218,15.006,0.69958
12351.0,50.495,-14.218,12.006,-0.30042
12361.0,50.495,-14.218,11.006,-2.3004
12371.0,47.495,-15.218,7.0057,-1.3004
12381.0,47.495,-15.218,7.0057,-1.3004
12391.0,44.495,-14.218,7.0057,-0.30042
12401.0,44.495,-14.218,4.0057,-0.30042
12410.0,41.495,-15.218,6.0057,0.69958
12420.0,41.495,-15.218,4.0057,0.69958
12430.0,37.495,-15.218,4.0057,0.69958
12440.0,37.495,-15.218,2.0057,1.6996
12450.0,34.495,-15.218,4.0057,3.6996
12460.0,34.495,-15.218,1.0057,2.6996
12470.0,28.495,-17.218,1.0057,1.6996
12480.0,28.495,-17.218,-0.99427,0.69958
12489.0,27.495,-17.218,-3.9943,0.69958
12499.0,24.495,-18.218,-7.9943,-0.30042
12509.0,23.495,-18.218,-7.9943,-0.30042
12519.0,19.495,-19.218,-11.994,-0.30042
12529.0,19.495,-19.218,-10.994,-0.30042
12539.0,17.495,-20.218,-12.994,-1.3004
12549.0,15.495,-22.218,-16.994,-1.3004
12559.0,12.495,-21.218,-17.994,-0.30042
12569.0,9.4951,-21.218,-19.994,-1.3004
12578.0,5.4951,-20.218,-19.994,-0.30042
12588.0,2.4951,-22.218,-19.994,0.69958
12598.0,-1.5049,-24.218,-18.994,-0.30042
12608.0,-4.5049,-24.218,-20.994,1.6996
12618.0,-4.5049,-21.218,-16.994,1.6996
12628.0,-1.5049,-19.218,-16.994,4.6996
12638.0,2.4951,-17.218,-8.9943,6.6996
12648.0,5.4951,-17.218,0.0057342,11.7
12658.0,7.4951,-16.218,10.006,16.7
12667.0,11.495,-17.218,19.006,20.7
12677.0,16.495,-16.218,28.006,24.7
12687.0,21.495,-13.218,39.006,28.7
12697.0,26.495,-11.218,46.006,32.7
12707.0,30.495,-10.218,54.006,33.7
12717.0,31.495,-9.2185,56.006,35.7
12727.0,33.495,-9.2185,62.006,37.7
12737.0,35.495,-11.218,64.006,37.7
12747.0,37.495,-9.2185,66.006,37.7
12756.0,40.495,-10.218,64.006,36.7
12766.0,42.495,-9.2185,65.006,36.7
12776.0,41.495,-10.218,68.006,38.7
12786.0,44.495,-8.2185,69.006,37.7
12796.0,45.495,-9.2185,68.006,35.7
12806.0,45.495,-6.2185,67.006,36.7
12816.0,46.495,-8.2185,63.006,34.7
12826.0,45.495,-6.2185,59.006,31.7
12835.0,43.495,-6.2185,56.006,29.7
12845.0,45.495,-6.2185,50.006,28.7
12855.0,42.495,-7.2185,51.006,25.7
12865.0,41.495,-8.2185,43.006,24.7
12875.0,37.495,-8.2185,37.006,21.7
12885.0,35.495,-10.218,31.006,19.7
12895.0,34.495,-10.218,26.006,17.7
12905.0,32.495,-11.218,24.006,16.7
12915.0,28.495,-12.218,22.006,16.7
12924.0,31.495,-11.218,22.006,15.7
12934.0,29.495,-10.218,22.006,15.7
12944.0,30.495,-9.2185,20.006,15.7
12954.0,29.495,-8.2185,19.006,14.7
12964.0,27.495,-9.2185,16.006,13.7
12974.0,25.495,-9.2185,16.006,13.7
12984.0,23.495,-10.218,14.006,12.7
12994.0,21.495,-11.218,16.006,13.7
13004.0,21.495,-11.218,13.006,12.7
13013.0,19.495,-10.218,14.006,10.7
13023.0,16.495,-10.218,10.006,9.6996
13033.0,13.495,-12.218,5.0057,8.6996
13043.0,11.495,-10.218,4.0057,6.6996
13053.0,11.495,-10.218,-2.9943,4.6996
13063.0,9.4951,-9.2185,-2.9943,3.6996
13073.0,9.4951,-9.2185,-5.9943,3.6996
13083.0,4.4951,-10.218,-4.9943,2.6996
13093.0,4.4951,-10.218,-9.9943,2.6996
13102.0,0.49506,-11.218,-11.994,1.6996
13112.0,0.49506,-11.218,-10.994,0.69958
13122.0,-4.5049,-11.218,-14.994,-0.30042
13132.0,-4.5049,-11.218,-15.994,0.69958
13142.0,-8.5049,-9.2185,-17.994,-1.3004
13152.0,-8.5049,-9.2185,-17.994,-1.3004
13162.0,-14.505,-13.218,-19.994,-2.3004
13172.0,-14.505,-13.218,-19.994,-2.3004
13181.0,-21.505,-12.218,-21.994,-3.3004
13191.0,-21.505,-12.218,-21.994,-3.3004
13201.0,-20.505,-9.2185,-19.994,-1.3004
13211.0,-15.505,-8.2185,-19.994,-1.3004
13221.0,-12.505,-6.2185,-7.9943,3.6996
13231.0,-8.5049,-7.2185,-7.9943,3.6996
13241.0,-5.5049,-7.2185,9.0057,11.7
13251.0,-4.5049,-6.2185,9.0057,11.7
13261.0,-0.50494,-6.2185,29.006,18.7
13270.0,3.4951,-4.2185,29.006,18.7
13280.0,6.4951,-2.2185,40.006,20.7
13290.0,8.4951,-3.2185,40.006,20.7
13300.0,11.495,-3.2185,43.006,22.7
13310.0,12.495,-2.2185,43.006,22.7
13320.0,14.495,-3.2185,49.006,23.7
13330.0,16.495,-2.2185,49.006,23.7
13340.0,18.495,-2.2185,46.006,20.7
13350.0,20.495,-3.2185,46.006,20.7
13359.0,17.495,-5.2185,46.006,21.7
13369.0,20.495,-4.2185,44.006,19.7
13379.0,20.495,-3.2185,42.006,17.7
13389.0,21.495,-3.2185,41.006,15.7
13399.0,20.495,-3.2185,39.006,15.7
13409.0,18.495,-0.21849,34.006,11.7
13419.0,19.495,-1.2185,32.006,11.7
13429.0,17.495,-1.2185,28.006,8.6996
13439.0,16.495,-1.2185,23.006,5.6996
13448.0,14.495,-1.2185,18.006,3.6996
13458.0,10.495,-2.2185,15.006,3.6996
13468.0,10.495,-3.2185,11.006,3.6996
13478.0,8.4951,-3.2185,10.006,2.6996
13488.0,5.4951,-5.2185,8.0057,2.6996
13498.0,3.4951,-4.2185,8.0057,0.69958
13508.0,2.4951,-5.2185,5.0057,0.69958
13518.0,2.4951,-3.2185,2.0057,-0.30042
13527.0,1.4951,-3.2185,-2.9943,-1.3004
13537.0,-0.50494,-3.2185,-1.9943,-2.3004
13547.0,-4.5049,-4.2185,-3.9943,-2.3004
13557.0,-7.5049,-5.2185,-5.9943,-3.3004
13567.0,-10.505,-6.2185,-6.9943,-5.3004
13577.0,-11.505,-8.2185,-7.9943,-4.3004
13587.0,-15.505,-8.2185,-13.994,-7.3004
13597.0,-17.505,-8.2185,-16.994,-9.3004
13607.0,-17.505,-8.2185,-17.994,-9.3004
13616.0,-19.505,-8.2185,-18.994,-12.3
13626.0,-17.505,-7.2185,-20.994,-10.3
13636.0,-20.505,-6.2185,-25.994,-12.3
13646.0,-24.505,-7.2185,-28.994,-12.3
13656.0,-25.505,-6.2185,-30.994,-15.3
13666.0,-26.505,-8.2185,-34.994,-16.3
13676.0,-29.505,-9.2185,-36.994,-17.3
13686.0,-32.505,-9.2185,-38.994,-17.3
13696.0,-37.505,-13.218,-42.994,-19.3
13705.0,-39.505,-12.218,-42.994,-20.3
13715.0,-41.505,-15.218,-44.994,-20.3
13725.0,-44.505,-15.218,-45.994,-21.3
13735.0,-50.505,-17.218,-46.994,-21.3
13745.0,-52.505,-17.218,-49.994,-21.3
13755.0,-58.505,-17.218,-49.994,-21.3
13765.0,-57.505,-15.218,-51.994,-22.3
13775.0,-54.505,-13.218,-51.994,-21.3
13785.0,-54.505,-13.218,-47.994,-19.3
13794.0,-46.505,-11.218,-41.994,-16.3
13804.0,-46.505,-11.218,-31.994,-12.3
13814.0,-40.505,-7.2185,-21.994,-8.3004
13824.0,-40.505,-7.2185,-11.994,-4.3004
13834.0,-29.505,-2.2185,-1.9943,-0.30042
13844.0,-29.505,-2.2185,4.0057,1.6996
13854.0,-19.505,-0.21849,11.006,3.6996
13864.0,-19.505,-0.21849,15.006,4.6996
13873.0,-17.505,-4.2185,19.006,5.6996
13883.0,-17.505,-4.2185,23.006,6.6996
13893.0,-12.505,-6.2185,23.006,6.6996
13903.0,-12.505,-6.2185,24.006,7.6996
13913.0,-12.505,-5.2185,23.006,7.6996
13923.0,-12.505,-5.2185,25.006,6.6996
13933.0,-9.5049,-4.2185,24.006,6.6996
13943.0,-8.5049,-5.2185,21.006,5.6996
13953.0,-6.5049,-3.2185,22.006,4.6996
13962.0,-6.5049,-3.2185,18.006,3.6996
13972.0,-7.5049,-4.2185,17.006,0.69958
13982.0,-9.5049,-5.2185,10.006,-0.30042
13992.0,-7.5049,-4.2185,6.0057,-2.3004
14002.0,-8.5049,-4.2185,-0.99427,-4.3004
14012.0,-9.5049,-5.2185,-2.9943,-5.3004
14022.0,-10.505,-5.2185,-6.9943,-8.3004
14032.0,-10.505,-6.2185,-10.994,-10.3
14042.0,-11.505,-5.2185,-14.994,-10.3
14051.0,-10.505,-6.2185,-18.994,-12.3
14061.0,-13.505,-7.2185,-20.994,-12.3
14071.0,-13.505,-6.2185,-22.994,-14.3
14081.0,-14.505,-7.2185,-23.994,-14.3
14091.0,-14.505,-8.2185,-24.994,-14.3
14101.0,-16.505,-7.2185,-27.994,-15.3
14111.0,-19.505,-8.2185,-28.994,-16.3
14121.0,-19.505,-9.2185,-30.994,-16.3
14131.0,-23.505,-9.2185,-31.994,-17.3
14140.0,-23.505,-11.218,-31.994,-17.3
14150.0,-26.505,-13.218,-31.994,-17.3
14160.0,-28.505,-12.218,-34.994,-17.3
14170.0,-30.505,-13.218,-32.994,-18.3
14180.0,-32.505,-14.218,-37.994,-18.3
14190.0,-31.505,-14.218,-37.994,-20.3
14200.0,-34.505,-15.218,-39.994,-20.3
14210.0,-36.505,-15.218,-41.994,-19.3
14219.0,-37.505,-16.218,-44.994,-22.3
14229.0,-40.505,-16.218,-46.994,-24.3
14239.0,-42.505,-18.218,-47.994,-25.3
14249.0,-42.505,-19.218,-51.994,-26.3
14259.0,-45.505,-19.218,-51.994,-26.3
14269.0,-47.505,-18.218,-57.994,-29.3
14279.0,-48.505,-19.218,-57.994,-29.3
14289.0,-49.505,-17.218,-61.994,-31.3
14299.0,-52.505,-19.218,-61.994,-31.3
14308.0,-54.505,-21.218,-60.994,-31.3
14318.0,-60.505,-23.218,-60.994,-31.3
14328.0,-62.505,-22.218,-63.994,-31.3
14338.0,-64.505,-22.218,-63.994,-31.3
14348.0,-62.505,-23.218,-67.994,-32.3
14358.0,-61.505,-19.218,-67.994,-32.3
14368.0,-58.505,-19.218,-55.994,-28.3
14378.0,-51.505,-17.218,-55.994,-28.3
14388.0,-51.505,-17.218,-35.994,-17.3
14397.0,-46.505,-15.218,-35.994,-17.3
14407.0,-41.505,-15.218,-15.994,-8.3004
14417.0,-38.505,-14.218,-15.994,-8.3004
14427.0,-34.505,-14.218,-1.9943,-5.3004
14437.0,-36.505,-16.218,-1.9943,-5.3004
14447.0,-31.505,-16.218,9.0057,-2.3004
14457.0,-31.505,-16.218,9.0057,-2.3004
14467.0,-29.505,-17.218,10.006,-2.3004
14477.0,-27.505,-17.218,12.006,-3.3004
14486.0,-26.505,-18.218,11.006,-3.3004
14496.0,-26.505,-18.218,12.006,-3.3004
14506.0,-23.505,-18.218,14.006,-3.3004
14516.0,-23.505,-18.218,13.006,-3.3004
14526.0,-21.505,-18.218,13.006,-3.3004
14536.0,-21.505,-18.218,11.006,-4.3004
14546.0,-19.505,-17.218,11.006,-5.3004
14556.0,-19.505,-17.218,7.0057,-6.3004
14565.0,-20.505,-17.218,4.0057,-8.3004
14575.0,-20.505,-17.218,1.0057,-10.3
14585.0,-23.505,-17.218,-1.9943,-12.3
14595.0,-23.505,-17.218,-4.9943,-14.3
14605.0,-21.505,-19.218,-8.9943,-15.3
14615.0,-21.505,-19.218,-11.994,-17.3
14625.0,-25.505,-21.218,-14.994,-18.3
14635.0,-25.505,-21.218,-19.994,-19.3
14645.0,-27.505,-20.218,-19.994,-20.3
14654.0,-26.505,-21.218,-22.994,-20.3
14664.0,-27.505,-21.218,-24.994,-21.3
14674.0,-30.505,-22.218,-23.994,-20.3
14684.0,-29.505,-21.218,-23.994,-21.3
14694.0,-32.505,-24.218,-24.994,-21.3
14704.0,-34.505,-25.218,-27.994,-22.3
14714.0,-34.505,-26.218,-24.994,-21.3
14724.0,-38.505,-27.218,-28.994,-22.3
14734.0,-40.505,-27.218,-27.994,-21.3
14743.0,-42.505,-29.218,-28.994,-21.3
14753.0,-45.505,-29.218,-30.994,-22.3
14763.0,-46.505,-31.218,-29.994,-22.3
14773.0,-48.505,-32.218,-30.994,-23.3
14783.0,-51.505,-32.218,-33.994,-23.3
14793.0,-52.505,-34.218,-33.994,-23.3
14803.0,-53.505,-34.218,-34.994,-25.3
14813.0,-55.505,-36.218,-35.994,-23.3
14823.0,-56.505,-36.218,-35.994,-23.3
14832.0,-59.505,-36.218,-37.994,-25.3
14842.0,-59.505,-37.218,-39.994,-24.3
14852.0,-61.505,-36.218,-40.994,-25.3
14862.0,-63.505,-37.218,-42.994,-26.3
14872.0,-62.505,-35.218,-42.994,-26.3
14882.0,-64.505,-35.218,-44.994,-27.3
14892.0,-68.505,-36.218,-44.994,-26.3
14902.0,-71.505,-39.218,-44.994,-26.3
14911.0,-73.505,-36.218,-47.994,-26.3
14921.0,-72.505,-37.218,-48.994,-26.3
14931.0,-70.505,-33.218,-45.994,-25.3
14941.0,-62.505,-29.218,-39.994,-22.3
14951.0,-60.505,-29.218,-33.994,-17.3
14961.0,-52.505,-23.218,-22.994,-12.3
14971.0,-47.505,-20.218,-11.994,-7.3004
14981.0,-41.505,-20.218,-1.9943,-4.3004
14991.0,-37.505,-17.218,7.0057,-0.30042
15000.0,-33.505,-16.218,12.006,2.6996
15010.0,-28.505,-15.218,18.006,3.6996
15020.0,-26.505,-16.218,24.006,5.6996
15030.0,-26.505,-17.218,26.006,6.6996
15040.0,-23.505,-16.218,29.006,7.6996
15050.0,-20.505,-15.218,33.006,8.6996
15060.0,-17.505,-16.218,34.006,9.6996
15070.0,-14.505,-14.218,36.006,9.6996
15080.0,-12.505,-12.218,35.006,8.6996
15089.0,-7.5049,-11.218,33.006,7.6996
15099.0,-6.5049,-9.2185,33.006,5.6996
15109.0,-5.5049,-10.218,30.006,5.6996
15119.0,-3.5049,-8.2185,31.006,4.6996
15129.0,-5.5049,-9.2185,25.006,2.6996
15139.0,-6.5049,-9.2185,23.006,1.6996
15149.0,-5.5049,-9.2185,19.006,2.6996
15159.0,-6.5049,-10.218,17.006,-0.30042
15169.0,-6.5049,-9.2185,12.006,-0.30042
15178.0,-7.5049,-11.218,7.0057,-4.3004
15188.0,-8.5049,-10.218,4.0057,-5.3004
15198.0,-8.5049,-11.218,0.0057342,-7.3004
15208.0,-8.5049,-11.218,-1.9943,-7.3004
15218.0,-12.505,-12.218,-5.9943,-8.3004
15228.0,-12.505,-12.218,-7.9943,-8.3004
15238.0,-9.5049,-10.218,-10.994,-9.3004
15248.0,-9.5049,-10.218,-10.994,-9.3004
15257.0,-12.505,-12.218,-12.994,-9.3004
15267.0,-12.505,-12.218,-11.994,-8.3004
15277.0,-18.505,-15.218,-10.994,-9.3004
15287.0,-18.505,-15.218,-10.994,-9.3004
15297.0,-22.505,-15.218,-12.994,-7.3004
15307.0,-22.505,-15.218,-12.994,-7.3004
15317.0,-25.505,-17.218,-18.994,-9.3004
15327.0,-25.505,-17.218,-18.994,-9.3004
15337.0,-29.505,-17.218,-19.994,-11.3
15346.0,-29.505,-17.218,-19.994,-11.3
15356.0,-31.505,-18.218,-26.994,-11.3
15366.0,-30.505,-18.218,-26.994,-11.3
15376.0,-30.505,-17.218,-30.994,-13.3
15386.0,-31.505,-18.218,-30.994,-13.3
15396.0,-35.505,-18.218,-32.994,-11.3
15406.0,-35.505,-18.218,-32.994,-11.3
15416.0,-39.505,-20.218,-35.994,-13.3
15426.0,-41.505,-19.218,-35.994,-13.3
15435.0,-44.505,-21.218,-41.994,-13.3
15445.0,-44.505,-20.218,-41.994,-13.3
15455.0,-47.505,-21.218,-44.994,-13.3
15465.0,-49.505,-20.218,-44.994,-13.3
15475.0,-52.505,-23.218,-47.994,-15.3
15485.0,-55.505,-24.218,-47.994,-15.3
15495.0,-57.505,-23.218,-46.994,-15.3
15505.0,-56.505,-22.218,-49.994,-14.3
15515.0,-53.505,-20.218,-52.994,-14.3
15524.0,-50.505,-18.218,-45.994,-13.3
15534.0,-44.505,-18.218,-37.994,-8.3004
15544.0,-44.505,-17.218,-28.994,-3.3004
15554.0,-39.505,-18.218,-20.994,2.6996
15564.0,-35.505,-16.218,-9.9943,6.6996
15574.0,-32.505,-13.218,0.0057342,11.7
15584.0,-27.505,-13.218,8.0057,13.7
15594.0,-23.505,-11.218,12.006,16.7
15603.0,-23.505,-13.218,16.006,16.7
15613.0,-19.505,-13.218,19.006,17.7
15623.0,-18.505,-14.218,21.006,17.7
15633.0,-17.505,-14.218,21.006,18.7
15643.0,-15.505,-14.218,23.006,18.7
15653.0,-12.505,-14.218,24.006,18.7
15663.0,-9.5049,-14.218,21.006,17.7
15673.0,-6.5049,-11.218,20.006,18.7
15683.0,-2.5049,-10.218,20.006,16.7
15692.0,-1.5049,-9.2185,20.006,16.7
15702.0,-2.5049,-10.218,18.006,17.7
15712.0,0.49506,-9.2185,19.006,16.7
15722.0,-0.50494,-10.218,18.006,15.7
15732.0,-2.5049,-10.218,12.006,14.7
15742.0,-2.5049,-10.218,7.0057,11.7
15752.0,-2.5049,-9.2185,4.0057,8.6996
15762.0,-3.5049,-9.2185,0.0057342,9.6996
15772.0,-4.5049,-10.218,-2.9943,7.6996
15781.0,-4.5049,-11.218,-7.9943,6.6996
15791.0,-3.5049,-11.218,-10.994,5.6996
15801.0,-6.5049,-10.218,-15.994,4.6996
15811.0,-5.5049,-10.218,-17.994,4.6996
15821.0,-6.5049,-9.2185,-20.994,2.6996
15831.0,-6.5049,-12.218,-21.994,2.6996
15841.0,-6.5049,-9.2185,-23.994,2.6996
15851.0,-5.5049,-10.218,-27.994,1.6996
15861.0,-7.5049,-9.2185,-26.994,1.6996
15870.0,-6.5049,-9.2185,-27.994,0.69958
15880.0,-10.505,-9.2185,-30.994,-1.3004
15890.0,-12.505,-8.2185,-32.994,-1.3004
15900.0,-12.505,-11.218,-33.994,-1.3004
15910.0,-12.505,-11.218,-34.994,-0.30042
15920.0,-13.505,-10.218,-34.994,-1.3004
15930.0,-16.505,-10.218,-36.994,-1.3004
15940.0,-16.505,-10.218,-36.994,-4.3004
15949.0,-15.505,-9.2185,-39.994,-3.3004
15959.0,-15.505,-9.2185,-38.994,-6.3004
15969.0,-17.505,-9.2185,-43.994,-6.3004
15979.0,-17.505,-9.2185,-46.994,-7.3004
15989.0,-20.505,-9.2185,-48.994,-8.3004
15999.0,-20.505,-9.2185,-47.994,-8.3004
16009.0,-21.505,-7.2185,-51.994,-10.3
16019.0,-21.505,-7.2185,-52.994,-12.3
16029.0,-20.505,-4.2185,-54.994,-11.3
16038.0,-20.505,-4.2185,-56.994,-13.3
16048.0,-22.505,-2.2185,-61.994,-14.3
16058.0,-22.505,-2.2185,-60.994,-13.3
16068.0,-28.505,-3.2185,-62.994,-14.3
16078.0,-28.505,-3.2185,-63.994,-15.3
16088.0,-26.505,-0.21849,-64.994,-15.3
16098.0,-24.505,0.78151,-59.994,-12.3
16108.0,-20.505,3.7815,-55.994,-9.3004
16118.0,-13.505,4.7815,-44.994,-7.3004
16127.0,-13.505,5.7815,-35.994,-3.3004
16137.0,-7.5049,4.7815,-26.994,1.6996
16147.0,-5.5049,6.7815,-14.994,4.6996
16157.0,-1.5049,6.7815,-7.9943,6.6996
16167.0,3.4951,8.7815,-2.9943,7.6996
16177.0,6.4951,8.7815,3.0057,11.7
16187.0,10.495,9.7815,5.0057,11.7
16197.0,12.495,8.7815,6.0057,11.7
16207.0,15.495,10.782,8.0057,12.7
16216.0,19.495,10.782,9.0057,10.7
16226.0,23.495,13.782,12.006,10.7
16236.0,27.495,12.782,13.006,11.7
16246.0,29.495,11.782,12.006,9.6996
16256.0,30.495,13.782,13.006,10.7
16266.0,32.495,12.782,13.006,10.7
16276.0,33.495,12.782,12.006,8.6996
16286.0,33.495,14.782,11.006,7.6996
16295.0,34.495,15.782,8.0057,6.6996
16305.0,38.495,17.782,3.0057,4.6996
16315.0,39.495,18.782,-1.9943,2.6996
16325.0,39.495,19.782,-3.9943,0.69958
16335.0,38.495,20.782,-6.9943,-1.3004
16345.0,36.495,22.782,-10.994,-2.3004
16355.0,39.495,20.782,-10.994,-2.3004
16365.0,38.495,20.782,-15.994,-3.3004
16375.0,39.495,21.782,-15.994,-3.3004
16384.0,36.495,19.782,-19.994,-5.3004
16394.0,37.495,19.782,-19.994,-5.3004
16404.0,36.495,23.782,-21.994,-6.3004
16414.0,35.495,21.782,-21.994,-6.3004
16424.0,33.495,21.782,-22.994,-5.3004
16434.0,31.495,22.782,-22.994,-5.3004
16444.0,31.495,21.782,-26.994,-7.3004
16454.0,32.495,20.782,-26.994,-7.3004
16464.0,28.495,20.782,-30.994,-9.3004
16473.0,29.495,23.782,-30.994,-9.3004
16483.0,28.495,24.782,-34.994,-12.3
16493.0,25.495,23.782,-34.994,-12.3
16503.0,22.495,22.782,-37.994,-12.3
16513.0,22.495,22.782,-37.994,-12.3
16523.0,21.495,21.782,-43.994,-15.3
16533.0,20.495,21.782,-43.994,-15.3
16543.0,16.495,20.782,-46.994,-16.3
16553.0,13.495,19.782,-46.994,-16.3
16562.0,11.495,18.782,-53.994,-18.3
16572.0,8.4951,19.782,-53.994,-18.3
16582.0,5.4951,17.782,-56.994,-22.3
16592.0,4.4951,18.782,-56.994,-22.3
16602.0,2.4951,17.782,-59.994,-23.3
16612.0,-0.50494,17.782,-64.994,-24.3
16622.0,-1.5049,18.782,-67.994,-26.3
16632.0,-2.5049,18.782,-70.994,-27.3
16641.0,-5.5049,17.782,-72.994,-27.3
16651.0,-5.5049,17.782,-72.994,-27.3
16661.0,-12.505,18.782,-73.994,-28.3
16671.0,-12.505,18.782,-73.994,-28.3
16681.0,-7.5049,20.782,-71.994,-25.3
16691.0,-7.5049,20.782,-69.994,-24.3
16701.0,-1.5049,22.782,-63.994,-22.3
16711.0,-1.5049,22.782,-56.994,-17.3
16721.0,3.4951,23.782,-45.994,-14.3
16730.0,3.4951,23.782,-36.994,-9.3004
16740.0,14.495,27.782,-28.994,-6.3004
16750.0,14.495,27.782,-19.994,-3.3004
16760.0,22.495,29.782,-14.994,-2.3004
16770.0,22.495,29.782,-10.994,-0.30042
16780.0,27.495,27.782,-5.9943,1.6996
16790.0,27.495,27.782,-0.99427,2.6996
16800.0,28.495,27.782,0.0057342,3.6996
16810.0,30.495,27.782,4.0057,4.6996
16819.0,33.495,27.782,7.0057,4.6996
16829.0,35.495,26.782,8.0057,5.6996
16839.0,36.495,26.782,8.0057,3.6996
16849.0,38.495,26.782,8.0057,3.6996
16859.0,39.495,29.782,7.0057,3.6996
16869.0,42.495,28.782,9.0057,4.6996
16879.0,43.495,29.782,8.0057,2.6996
16889.0,45.495,30.782,2.0057,3.6996
16898.0,43.495,33.782,-0.99427,1.6996
16908.0,42.495,31.782,-3.9943,0.69958
16918.0,42.495,29.782,-6.9943,-2.3004
16928.0,38.495,27.782,-10.994,-4.3004
16938.0,38.495,28.782,-11.994,-5.3004
16948.0,36.495,26.782,-13.994,-7.3004
16958.0,35.495,25.782,-17.994,-7.3004
16968.0,34.495,25.782,-17.994,-9.3004
16978.0,32.495,23.782,-20.994,-10.3
16987.0,30.495,22.782,-21.994,-9.3004
16997.0,27.495,22.782,-21.994,-9.3004
17007.0,28.495,22.782,-23.994,-9.3004
17017.0,29.495,22.782,-23.994,-9.3004
17027.0,26.495,20.782,-23.994,-10.3
17037.0,27.495,20.782,-23.994,-11.3
17047.0,23.495,19.782,-23.994,-10.3
17057.0,21.495,19.782,-25.994,-9.3004
17067.0,22.495,19.782,-25.994,-10.3
17076.0,18.495,19.782,-26.994,-9.3004
17086.0,19.495,20.782,-26.994,-9.3004
17096.0,20.495,20.782,-31.994,-11.3
17106.0,18.495,19.782,-34.994,-12.3
17116.0,16.495,19.782,-38.994,-14.3
17126.0,15.495,19.782,-41.994,-16.3
17136.0,13.495,18.782,-44.994,-19.3
17146.0,12.495,18.782,-48.994,-19.3
17156.0,11.495,18.782,-52.994,-20.3
17165.0,10.495,16.782,-53.994,-21.3
17175.0,8.4951,16.782,-56.994,-23.3
17185.0,5.4951,15.782,-60.994,-24.3
17195.0,4.4951,14.782,-60.994,-24.3
17205.0,2.4951,15.782,-65.994,-25.3
17215.0,1.4951,13.782,-67.994,-25.3
17225.0,-2.5049,13.782,-69.994,-26.3
17235.0,-6.5049,9.7815,-72.994,-29.3
17244.0,-11.505,10.782,-71.994,-30.3
17254.0,-14.505,8.7815,-73.994,-31.3
17264.0,-14.505,9.7815,-72.994,-28.3
17274.0,-10.505,10.782,-67.994,-27.3
17284.0,-7.5049,10.782,-64.994,-22.3
17294.0,-2.5049,10.782,-55.994,-19.3
17304.0,0.49506,12.782,-44.994,-15.3
17314.0,5.4951,12.782,-36.994,-11.3
17324.0,10.495,14.782,-22.994,-5.3004
17333.0,16.495,15.782,-15.994,-3.3004
17343.0,22.495,15.782,-10.994,-2.3004
17353.0,24.495,15.782,-6.9943,0.69958
17363.0,25.495,14.782,-2.9943,-0.30042
17373.0,28.495,14.782,1.0057,-1.3004
17383.0,28.495,14.782,0.0057342,0.69958
17393.0,36.495,15.782,5.0057,2.6996
17403.0,36.495,15.782,6.0057,1.6996
17413.0,39.495,15.782,8.0057,2.6996
17422.0,39.495,15.782,8.0057,2.6996
17432.0,43.495,14.782,6.0057,1.6996
17442.0,43.495,14.782,6.0057,1.6996
17452.0,46.495,16.782,5.0057,0.69958
17462.0,46.495,16.782,5.0057,0.69958
17472.0,47.495,16.782,-0.99427,-4.3004
17482.0,47.495,16.782,-0.99427,-4.3004
17492.0,45.495,14.782,-7.9943,-6.3004
17502.0,45.495,14.782,-7.9943,-6.3004
17511.0,43.495,13.782,-13.994,-10.3
17521.0,43.495,13.782,-13.994,-10.3
17531.0,41.495,11.782,-21.994,-12.3
17541.0,42.495,9.7815,-21.994,-12.3
17551.0,43.495,9.7815,-25.994,-13.3
17561.0,43.495,9.7815,-25.994,-13.3
17571.0,42.495,9.7815,-25.994,-13.3
17581.0,40.495,8.7815,-25.994,-13.3
17590.0,40.495,8.7815,-26.994,-13.3
17600.0,40.495,7.7815,-26.994,-13.3
17610.0,37.495,6.7815,-31.994,-15.3
17620.0,36.495,6.7815,-31.994,-15.3
17630.0,35.495,5.7815,-33.994,-15.3
17640.0,33.495,6.7815,-35.994,-17.3
17650.0,30.495,4.7815,-35.994,-17.3
17660.0,31.495,2.7815,-34.994,-17.3
17670.0,27.495,0.78151,-36.994,-16.3
17679.0,26.495,0.78151,-38.994,-17.3
17689.0,21.495,-2.2185,-38.994,-18.3
17699.0,19.495,-1.2185,-39.994,-17.3
17709.0,18.495,-3.2185,-43.994,-18.3
17719.0,16.495,-3.2185,-44.994,-20.3
17729.0,13.495,-4.2185,-46.994,-19.3
17739.0,10.495,-7.2185,-48.994,-21.3
17749.0,9.4951,-6.2185,-49.994,-22.3
17759.0,6.4951,-8.2185,-52.994,-22.3
17768.0,4.4951,-9.2185,-53.994,-23.3
17778.0,2.4951,-8.2185,-55.994,-24.3
17788.0,1.4951,-9.2185,-55.994,-23.3
17798.0,-1.5049,-12.218,-56.994,-24.3
17808.0,-4.5049,-13.218,-58.994,-24.3
17818.0,-11.505,-17.218,-61.994,-24.3
17828.0,-13.505,-16.218,-60.994,-26.3
17838.0,-15.505,-18.218,-62.994,-26.3
17848.0,-17.505,-18.218,-61.994,-26.3
17857.0,-14.505,-18.218,-59.994,-23.3
17867.0,-12.505,-16.218,-50.994,-21.3
17877.0,-7.5049,-15.218,-43.994,-16.3
17887.0,-1.5049,-15.218,-33.994,-10.3
17897.0,1.4951,-13.218,-23.994,-8.3004
17907.0,7.4951,-11.218,-16.994,-3.3004
17917.0,12.495,-9.2185,-8.9943,-0.30042
17927.0,17.495,-10.218,-0.99427,0.69958
17936.0,17.495,-10.218,3.0057,1.6996
17946.0,21.495,-13.218,8.0057,3.6996
17956.0,22.495,-13.218,12.006,4.6996
17966.0,25.495,-14.218,15.006,6.6996
17976.0,28.495,-13.218,20.006,5.6996
17986.0,30.495,-12.218,21.006,6.6996
17996.0,34.495,-11.218,21.006,6.6996
18006.0,36.495,-10.218,20.006,5.6996
18016.0,39.495,-10.218,21.006,5.6996
18025.0,40.495,-9.2185,21.006,5.6996
18035.0,43.495,-9.2185,19.006,4.6996
18045.0,44.495,-7.2185,21.006,5.6996
18055.0,43.495,-7.2185,19.006,3.6996
18065.0,45.495,-8.2185,18.006,0.69958
18075.0,45.495,-9.2185,12.006,-1.3004
18085.0,45.495,-7.2185,8.0057,-3.3004
18095.0,45.495,-7.2185,3.0057,-6.3004
18105.0,46.495,-6.2185,2.0057,-6.3004
18114.0,46.495,-6.2185,0.0057342,-8.3004
18124.0,48.495,-2.2185,-2.9943,-8.3004
18134.0,48.495,-2.2185,-2.9943,-7.3004
18144.0,51.495,-2.2185,-0.99427,-5.3004
18154.0,51.495,-2.2185,0.0057342,-5.3004
18164.0,51.495,0.78151,1.0057,-4.3004
18174.0,51.495,0.78151,2.0057,-4.3004
18184.0,50.495,-0.21849,0.0057342,-3.3004
18194.0,50.495,-0.21849,-0.99427,-5.3004
18203.0,44.495,-3.2185,-0.99427,-6.3004
18213.0,44.495,-3.2185,-3.9943,-7.3004
18223.0,43.495,-2.2185,-3.9943,-7.3004
18233.0,43.495,-2.2185,-6.9943,-9.3004
18243.0,43.495,-4.2185,-8.9943,-9.3004
18253.0,40.495,-6.2185,-7.9943,-9.3004
18263.0,39.495,-6.2185,-13.994,-12.3
18273.0,39.495,-6.2185,-15.994,-12.3
18282.0,37.495,-4.2185,-16.994,-12.3
18292.0,36.495,-7.2185,-17.994,-13.3
18302.0,35.495,-7.2185,-16.994,-12.3
18312.0,32.495,-9.2185,-18.994,-15.3
18322.0,29.495,-8.2185,-20.994,-14.3
18332.0,28.495,-9.2185,-22.994,-14.3
18342.0,25.495,-11.218,-24.994,-17.3
18352.0,24.495,-10.218,-25.994,-17.3
18362.0,23.495,-11.218,-27.994,-16.3
18371.0,21.495,-10.218,-31.994,-18.3
18381.0,19.495,-11.218,-34.994,-18.3
18391.0,18.495,-11.218,-37.994,-20.3
18401.0,12.495,-14.218,-39.994,-21.3
18411.0,12.495,-12.218,-42.994,-21.3
18421.0,11.495,-13.218,-37.994,-20.3
18431.0,11.495,-10.218,-34.994,-18.3
18441.0,14.495,-7.2185,-31.994,-16.3
18451.0,21.495,-5.2185,-23.994,-11.3
18460.0,26.495,-4.2185,-13.994,-7.3004
18470.0,30.495,-3.2185,-3.9943,-1.3004
18480.0,36.495,-1.2185,7.0057,1.6996
18490.0,40.495,0.78151,7.0057,1.6996
18500.0,44.495,1.7815,23.006,7.6996
18510.0,48.495,1.7815,23.006,7.6996
18520.0,53.495,2.7815,37.006,11.7
18530.0,53.495,0.78151,37.006,11.7
18540.0,57.495,1.7815,42.006,12.7
18549.0,58.495,1.7815,42.006,12.7
18559.0,59.495,1.7815,46.006,14.7
18569.0,63.495,0.78151,46.006,14.7
18579.0,66.495,2.7815,46.006,14.7
18589.0,68.495,3.7815,46.006,14.7
18599.0,71.495,4.7815,45.006,14.7
18609.0,72.495,3.7815,45.006,14.7
18619.0,73.495,3.7815,42.006,11.7
18628.0,71.495,3.7815,42.006,11.7
18638.0,71.495,5.7815,39.006,10.7
18648.0,72.495,5.7815,39.006,10.7
18658.0,70.495,5.7815,33.006,7.6996
18668.0,71.495,5.7815,33.006,7.6996
18678.0,71.495,5.7815,25.006,4.6996
18688.0,69.495,5.7815,25.006,4.6996
18698.0,69.495,5.7815,14.006,-0.30042
18708.0,68.495,4.7815,14.006,-0.30042
18717.0,65.495,1.7815,14.006,-0.30042
18727.0,64.495,2.7815,10.006,-1.3004
18737.0,64.495,5.7815,8.0057,-1.3004
18747.0,63.495,4.7815,8.0057,-1.3004
18757.0,63.495,3.7815,8.0057,-0.30042
18767.0,60.495,3.7815,7.0057,-3.3004
18777.0,58.495,3.7815,5.0057,-0.30042
18787.0,55.495,2.7815,4.0057,-0.30042
18797.0,53.495,1.7815,2.0057,-1.3004
18806.0,52.495,1.7815,0.0057342,-2.3004
18816.0,50.495,0.78151,-3.9943,-2.3004
18826.0,50.495,0.78151,-4.9943,-2.3004
18836.0,47.495,0.78151,-4.9943,-3.3004
18846.0,47.495,0.78151,-6.9943,-3.3004
18856.0,46.495,-1.2185,-7.9943,-4.3004
18866.0,46.495,-1.2185,-7.9943,-5.3004
18876.0,43.495,-0.21849,-11.994,-6.3004
18886.0,43.495,-0.21849,-13.994,-6.3004
18895.0,39.495,1.7815,-13.994,-4.3004
18905.0,39.495,1.7815,-13.994,-4.3004
18915.0,34.495,-0.21849,-14.994,-4.3004
18925.0,34.495,-0.21849,-17.994,-4.3004
18935.0,30.495,-1.2185,-17.994,-5.3004
18945.0,30.495,-1.2185,-20.994,-4.3004
18955.0,28.495,-0.21849,-19.994,-6.3004
18965.0,26.495,-0.21849,-24.994,-6.3004
18974.0,26.495,-0.21849,-26.994,-7.3004
18984.0,21.495,-3.2185,-27.994,-9.3004
18994.0,18.495,-2.2185,-29.994,-9.3004
19004.0,14.495,-2.2185,-30.994,-8.3004
19014.0,12.495,-2.2185,-32.994,-10.3
19024.0,13.495,0.78151,-29.994,-8.3004
19034.0,19.495,1.7815,-27.994,-7.3004
19044.0,22.495,2.7815,-20.994,-4.3004
19054.0,28.495,2.7815,-7.9943,0.69958
19063.0,30.495,4.7815,-0.99427,4.6996
19073.0,35.495,4.7815,9.0057,9.6996
19083.0,42.495,4.7815,21.006,12.7
19093.0,45.495,7.7815,27.006,16.7
19103.0,46.495,7.7815,34.006,18.7
19113.0,52.495,8.7815,40.006,18.7
19123.0,56.495,8.7815,41.006,19.7
19133.0,57.495,8.7815,43.006,19.7
19143.0,60.495,8.7815,46.006,21.7
19152.0,64.495,9.7815,50.006,22.7
19162.0,65.495,9.7815,52.006,19.7
19172.0,68.495,10.782,52.006,20.7
19182.0,71.495,11.782,48.006,17.7
19192.0,74.495,13.782,46.006,15.7
19202.0,76.495,13.782,44.006,14.7
19212.0,74.495,15.782,41.006,13.7
19222.0,76.495,14.782,38.006,10.7
19232.0,76.495,15.782,33.006,9.6996
19241.0,76.495,16.782,31.006,8.6996
19251.0,75.495,15.782,29.006,6.6996
19261.0,76.495,14.782,24.006,4.6996
19271.0,74.495,16.782,19.006,2.6996
19281.0,74.495,16.782,17.006,0.69958
19291.0,72.495,15.782,18.006,0.69958
19301.0,69.495,13.782,13.006,-1.3004
19311.0,69.495,14.782,12.006,-3.3004
19320.0,69.495,13.782,8.0057,-3.3004
19330.0,67.495,13.782,8.0057,-3.3004
19340.0,68.495,14.782,7.0057,-3.3004
19350.0,64.495,13.782,7.0057,-4.3004
19360.0,62.495,13.782,5.0057,-4.3004
19370.0,62.495,13.782,4.0057,-5.3004
19380.0,59.495,14.782,4.0057,-6.3004
19390.0,59.495,14.782,2.0057,-7.3004
19400.0,58.495,14.782,3.0057,-8.3004
19409.0,55.495,13.782,3.0057,-6.3004
19419.0,55.495,14.782,2.0057,-7.3004
19429.0,53.495,12.782,3.0057,-9.3004
19439.0,50.495,13.782,-1.9943,-9.3004
19449.0,48.495,12.782,-2.9943,-9.3004
19459.0,50.495,13.782,-4.9943,-10.3
19469.0,48.495,14.782,-7.9943,-11.3
19479.0,44.495,16.782,-10.994,-13.3
19489.0,44.495,14.782,-13.994,-13.3
19498.0,40.495,15.782,-14.994,-14.3
19508.0,38.495,13.782,-15.994,-14.3
19518.0,38.495,14.782,-16.994,-16.3
19528.0,36.495,15.782,-17.994,-16.3
19538.0,36.495,15.782,-20.994,-17.3
19548.0,32.495,14.782,-22.994,-18.3
19558.0,32.495,14.782,-22.994,-18.3
19568.0,27.495,12.782,-26.994,-19.3
19578.0,27.495,12.782,-26.994,-19.3
19587.0,20.495,14.782,-30.994,-20.3
19597.0,20.495,14.782,-30.994,-20.3
19607.0,22.495,17.782,-27.994,-18.3
19617.0,22.495,17.782,-27.994,-18.3
19627.0,30.495,21.782,-12.994,-11.3
19637.0,30.495,21.782,-12.994,-11.3
19647.0,35.495,21.782,6.0057,-3.3004
19657.0,35.495,21.782,6.0057,-3.3004
19666.0,44.495,25.782,23.006,2.6996
19676.0,44.495,25.782,23.006,2.6996
19686.0,54.495,28.782,35.006,6.6996
19696.0,57.495,29.782,35.006,6.6996
19706.0,57.495,27.782,40.006,7.6996
19716.0,60.495,29.782,40.006,7.6996
19726.0,61.495,28.782,45.006,7.6996
19736.0,66.495,30.782,45.006,7.6996
19746.0,69.495,29.782,48.006,8.6996
19755.0,69.495,29.782,48.006,8.6996
19765.0,70.495,29.782,49.006,6.6996
19775.0,71.495,30.782,46.006,6.6996
19785.0,74.495,31.782,45.006,4.6996
19795.0,76.495,30.782,45.006,5.6996
19805.0,76.495,32.782,43.006,4.6996
19815.0,76.495,31.782,41.006,2.6996
19825.0,75.495,32.782,38.006,1.6996
19835.0,74.495,33.782,35.006,-0.30042
19844.0,73.495,32.782,31.006,-3.3004
19854.0,70.495,31.782,26.006,-5.3004
19864.0,68.495,28.782,21.006,-7.3004
19874.0,66.495,28.782,15.006,-8.3004
19884.0,62.495,27.782,12.006,-10.3
19894.0,59.495,25.782,11.006,-11.3
19904.0,58.495,26.782,13.006,-10.3
19914.0,56.495,27.782,11.006,-11.3
19924.0,54.495,26.782,9.0057,-11.3
19933.0,53.495,26.782,8.0057,-10.3
19943.0,53.495,26.782,7.0057,-11.3
19953.0,49.495,24.782,3.0057,-12.3
19963.0,48.495,24.782,2.0057,-12.3
19973.0,46.495,21.782,3.0057,-12.3
19983.0,41.495,19.782,2.0057,-14.3
19993.0,37.495,17.782,1.0057,-16.3
20003.0,35.495,18.782,-1.9943,-16.3
20012.0,35.495,19.782,-1.9943,-16.3
20022.0,35.495,19.782,-4.9943,-17.3
20032.0,32.495,19.782,-5.9943,-18.3
20042.0,28.495,18.782,-7.9943,-18.3
20052.0,26.495,17.782,-10.994,-19.3
20062.0,24.495,17.782,-12.994,-19.3
20072.0,21.495,16.782,-15.994,-20.3
20082.0,17.495,15.782,-15.994,-22.3
20092.0,16.495,14.782,-17.994,-22.3
20101.0,14.495,13.782,-21.994,-24.3
20111.0,10.495,13.782,-23.994,-25.3
20121.0,8.4951,11.782,-26.994,-25.3
20131.0,6.4951,10.782,-26.994,-26.3
20141.0,2.4951,8.7815,-26.994,-26.3
20151.0,-0.50494,8.7815,-28.994,-24.3
20161.0,-3.5049,8.7815,-31.994,-26.3
20171.0,-5.5049,6.7815,-33.994,-26.3
20181.0,-9.5049,6.7815,-35.994,-28.3
20190.0,-8.5049,8.7815,-37.994,-27.3
20200.0,-4.5049,10.782,-34.994,-27.3
20210.0,-1.5049,11.782,-31.994,-27.3
20220.0,1.4951,10.782,-25.994,-22.3
20230.0,4.4951,13.782,-12.994,-20.3
20240.0,6.4951,12.782,-4.9943,-14.3
20250.0,14.495,14.782,6.0057,-9.3004
20260.0,17.495,16.782,14.006,-5.3004
20270.0,17.495,16.782,22.006,-4.3004
20279.0,25.495,17.782,28.006,-3.3004
20289.0,25.495,17.782,31.006,-1.3004
20299.0,30.495,15.782,36.006,-0.30042
20309.0,30.495,15.782,37.006,-0.30042
20319.0,33.495,15.782,41.006,1.6996
20329.0,33.495,15.782,47.006,2.6996
20339.0,38.495,14.782,47.006,3.6996
20349.0,38.495,14.782,47.006,2.6996
20358.0,42.495,16.782,46.006,1.6996
20368.0,42.495,16.782,45.006,0.69958
20378.0,44.495,16.782,46.006,-0.30042
20388.0,44.495,16.782,45.006,-0.30042
20398.0,47.495,16.782,40.006,-1.3004
20408.0,46.495,15.782,39.006,-2.3004
20418.0,47.495,15.782,36.006,-5.3004
20428.0,44.495,14.782,30.006,-7.3004
20438.0,43.495,15.782,28.006,-8.3004
20447.0,42.495,12.782,22.006,-10.3
20457.0,41.495,12.782,18.006,-12.3
20467.0,40.495,11.782,14.006,-14.3
20477.0,39.495,11.782,11.006,-17.3
20487.0,39.495,9.7815,9.0057,-15.3
20497.0,36.495,9.7815,7.0057,-17.3
20507.0,36.495,8.7815,6.0057,-16.3
20517.0,34.495,8.7815,6.0057,-16.3
20527.0,33.495,6.7815,3.0057,-16.3
20536.0,34.495,8.7815,5.0057,-17.3
20546.0,33.495,8.7815,2.0057,-19.3
20556.0,28.495,6.7815,2.0057,-17.3
20566.0,26.495,4.7815,2.0057,-17.3
20576.0,25.495,3.7815,1.0057,-18.3
20586.0,24.495,4.7815,-0.99427,-18.3
20596.0,19.495,2.7815,-2.9943,-20.3
20606.0,20.495,1.7815,-5.9943,-21.3
20616.0,17.495,0.78151,-7.9943,-23.3
20625.0,12.495,-1.2185,-7.9943,-23.3
20635.0,10.495,-0.21849,-10.994,-24.3
20645.0,9.4951,-1.2185,-10.994,-24.3
20655.0,6.4951,-1.2185,-11.994,-25.3
20665.0,5.4951,-1.2185,-11.994,-25.3
20675.0,1.4951,-3.2185,-16.994,-27.3
20685.0,0.49506,-5.2185,-16.994,-27.3
20695.0,-3.5049,-8.2185,-17.994,-25.3
20704.0,-6.5049,-9.2185,-17.994,-25.3
20714.0,-8.5049,-10.218,-17.994,-26.3
20724.0,-10.505,-9.2185,-17.994,-26.3
20734.0,-13.505,-9.2185,-22.994,-28.3
20744.0,-14.505,-11.218,-22.994,-28.3
20754.0,-19.505,-13.218,-25.994,-32.3
20764.0,-22.505,-11.218,-25.994,-32.3
20774.0,-24.505,-12.218,-30.994,-32.3
20784.0,-25.505,-14.218,-30.994,-32.3
20793.0,-26.505,-13.218,-22.994,-28.3
20803.0,-22.505,-13.218,-22.994,-28.3
20813.0,-19.505,-11.218,-4.9943,-18.3
20823.0,-12.505,-8.2185,-4.9943,-18.3
20833.0,-8.5049,-7.2185,8.0057,-13.3
20843.0,-4.5049,-6.2185,17.006,-9.3004
20853.0,-0.50494,-5.2185,25.006,-6.3004
20863.0,1.4951,-5.2185,32.006,-5.3004
20873.0,0.49506,-9.2185,34.006,-4.3004
20882.0,3.4951,-10.218,38.006,-4.3004
20892.0,3.4951,-13.218,43.006,-3.3004
20902.0,5.4951,-11.218,46.006,-3.3004
20912.0,7.4951,-11.218,49.006,-1.3004
20922.0,11.495,-9.2185,50.006,-1.3004
20932.0,12.495,-8.2185,52.006,-0.30042
20942.0,13.495,-9.2185,52.006,-0.30042
20952.0,15.495,-9.2185,53.006,0.69958
20962.0,16.495,-10.218,54.006,-1.3004
20971.0,19.495,-9.2185,51.006,-1.3004
20981.0,19.495,-9.2185,52.006,-3.3004
20991.0,17.495,-11.218,47.006,-3.3004
21001.0,17.495,-11.218,44.006,-6.3004
21011.0,15.495,-11.218,40.006,-9.3004
21021.0,15.495,-11.218,34.006,-10.3
21031.0,12.495,-11.218,32.006,-12.3
21041.0,12.495,-11.218,27.006,-14.3
21050.0,12.495,-14.218,22.006,-16.3
21060.0,12.495,-14.218,20.006,-18.3
21070.0,11.495,-15.218,15.006,-20.3
21080.0,11.495,-15.218,14.006,-20.3
21090.0,7.4951,-16.218,14.006,-20.3
21100.0,7.4951,-16.218,13.006,-19.3
21110.0,5.4951,-16.218,13.006,-19.3
21120.0,5.4951,-16.218,14.006,-19.3
21130.0,4.4951,-17.218,13.006,-17.3
21139.0,2.4951,-20.218,12.006,-17.3
21149.0,-1.5049,-19.218,13.006,-19.3
21159.0,-0.50494,-22.218,13.006,-19.3
21169.0,-3.5049,-20.218,9.0057,-21.3
21179.0,-3.5049,-21.218,7.0057,-20.3
21189.0,-6.5049,-21.218,9.0057,-21.3
21199.0,-5.5049,-21.218,8.0057,-20.3
21209.0,-8.5049,-22.218,6.0057,-21.3
21219.0,-11.505,-23.218,6.0057,-21.3
21228.0,-12.505,-25.218,4.0057,-21.3
21238.0,-12.505,-23.218,5.0057,-22.3
21248.0,-14.505,-25.218,4.0057,-22.3
21258.0,-17.505,-26.218,3.0057,-21.3
21268.0,-17.505,-27.218,-0.99427,-23.3
21278.0,-19.505,-26.218,-1.9943,-23.3
21288.0,-20.505,-25.218,-1.9943,-24.3
21298.0,-19.505,-24.218,-2.9943,-24.3
21308.0,-20.505,-24.218,-3.9943,-23.3
21317.0,-22.505,-25.218,-3.9943,-24.3
21327.0,-23.505,-24.218,-4.9943,-23.3
21337.0,-27.505,-26.218,-5.9943,-23.3
21347.0,-30.505,-26.218,-5.9943,-24.3
21357.0,-30.505,-25.218,-6.9943,-25.3
21367.0,-33.505,-25.218,-4.9943,-22.3
21377.0,-28.505,-22.218,-3.9943,-21.3
21387.0,-25.505,-19.218,4.0057,-18.3
21396.0,-19.505,-16.218,12.006,-13.3
21406.0,-12.505,-13.218,21.006,-9.3004
21416.0,-8.5049,-12.218,30.006,-4.3004
21426.0,-4.5049,-11.218,38.006,-2.3004
21436.0,-0.50494,-10.218,47.006,2.6996
21446.0,3.4951,-8.2185,54.006,3.6996
21456.0,9.4951,-7.2185,57.006,5.6996
21466.0,10.495,-9.2185,63.006,6.6996
21476.0,11.495,-9.2185,66.006,8.6996
21485.0,11.495,-9.2185,69.006,8.6996
21495.0,14.495,-9.2185,70.006,7.6996
21505.0,17.495,-8.2185,74.006,9.6996
21515.0,20.495,-8.2185,76.006,11.7
21525.0,24.495,-5.2185,77.006,10.7
21535.0,25.495,-5.2185,77.006,10.7
21545.0,26.495,-3.2185,78.006,11.7
21555.0,29.495,-3.2185,76.006,9.6996
21565.0,29.495,-4.2185,75.006,8.6996
21574.0,31.495,-3.2185,73.006,6.6996
21584.0,30.495,-5.2185,70.006,6.6996
21594.0,28.495,-2.2185,64.006,2.6996
21604.0,27.495,-4.2185,61.006,1.6996
21614.0,26.495,-6.2185,53.006,-0.30042
21624.0,27.495,-5.2185,50.006,-1.3004
21634.0,23.495,-7.2185,49.006,-2.3004
21644.0,20.495,-8.2185,46.006,-4.3004
21654.0,20.495,-9.2185,44.006,-4.3004
21663.0,20.495,-7.2185,42.006,-4.3004
21673.0,19.495,-8.2185,40.006,-4.3004
21683.0,18.495,-9.2185,39.006,-5.3004
21693.0,15.495,-9.2185,39.006,-5.3004
21703.0,15.495,-10.218,35.006,-4.3004
21713.0,15.495,-10.218,35.006,-4.3004
21723.0,11.495,-12.218,34.006,-5.3004
21733.0,11.495,-12.218,34.006,-5.3004
21742.0,7.4951,-15.218,32.006,-4.3004
21752.0,7.4951,-15.218,32.006,-4.3004
21762.0,2.4951,-16.218,26.006,-6.3004
21772.0,2.4951,-16.218,26.006,-6.3004
21782.0,-0.50494,-15.218,24.006,-6.3004
21792.0,-0.50494,-15.218,24.006,-6.3004
21802.0,-4.5049,-17.218,19.006,-5.3004
21812.0,-4.5049,-17.218,19.006,-5.3004
21822.0,-9.5049,-19.218,16.006,-7.3004
21831.0,-9.5049,-19.218,16.006,-7.3004
21841.0,-13.505,-19.218,10.006,-8.3004
21851.0,-13.505,-19.218,10.006,-8.3004
21861.0,-14.505,-21.218,6.0057,-10.3
21871.0,-18.505,-22.218,6.0057,-10.3
21881.0,-21.505,-22.218,1.0057,-11.3
21891.0,-22.505,-21.218,1.0057,-11.3
21901.0,-22.505,-21.218,-0.99427,-10.3
21911.0,-23.505,-21.218,0.0057342,-9.3004
21920.0,-25.505,-21.218,-1.9943,-8.3004
21930.0,-28.505,-21.218,-3.9943,-8.3004
21940.0,-33.505,-23.218,-3.9943,-7.3004
21950.0,-37.505,-23.218,-5.9943,-7.3004
21960.0,-37.505,-21.218,-5.9943,-6.3004
21970.0,-36.505,-21.218,-5.9943,-7.3004
21980.0,-33.505,-19.218,-2.9943,-4.3004
21990.0,-28.505,-17.218,3.0057,0.69958
21999.0,-26.505,-16.218,11.006,4.6996
22009.0,-25.505,-16.218,23.006,9.6996
22019.0,-21.505,-17.218,29.006,14.7
22029.0,-15.505,-15.218,40.006,18.7
22039.0,-14.505,-15.218,46.006,21.7
22049.0,-6.5049,-14.218,51.006,22.7
22059.0,-5.5049,-14.218,56.006,25.7
22069.0,-7.5049,-15.218,59.006,26.7
22079.0,-2.5049,-14.218,61.006,27.7
22088.0,-2.5049,-14.218,64.006,27.7
22098.0,1.4951,-14.218,65.006,27.7
22108.0,1.4951,-14.218,67.006,30.7
22118.0,2.4951,-16.218,68.006,30.7
22128.0,1.4951,-15.218,69.006,31.7
22138.0,4.4951,-14.218,71.006,30.7
22148.0,5.4951,-15.218,71.006,30.7
22158.0,6.4951,-15.218,69.006,31.7
22168.0,4.4951,-16.218,67.006,30.7
22177.0,4.4951,-16.218,64.006,29.7
22187.0,5.4951,-14.218,60.006,28.7
22197.0,5.4951,-14.218,54.006,26.7
22207.0,3.4951,-14.218,52.006,24.7
22217.0,4.4951,-14.218,48.006,22.7
22227.0,3.4951,-15.218,42.006,21.7
22237.0,0.49506,-15.218,36.006,20.7
22247.0,-1.5049,-16.218,31.006,17.7
22257.0,-3.5049,-18.218,30.006,17.7
22266.0,-2.5049,-17.218,28.006,19.7
22276.0,-1.5049,-17.218,27.006,18.7
22286.0,-4.5049,-16.218,25.006,18.7
22296.0,-4.5049,-16.218,25.006,19.7
22306.0,-4.5049,-16.218,23.006,19.7
22316.0,-5.5049,-14.218,23.006,18.7
22326.0,-7.5049,-16.218,19.006,18.7
22336.0,-9.5049,-18.218,18.006,17.7
22345.0,-10.505,-17.218,16.006,16.7
22355.0,-13.505,-17.218,13.006,16.7
22365.0,-15.505,-18.218,12.006,15.7
22375.0,-17.505,-18.218,10.006,15.7
22385.0,-20.505,-19.218,10.006,16.7
22395.0,-20.505,-20.218,5.0057,14.7
22405.0,-23.505,-20.218,5.0057,14.7
22415.0,-26.505,-21.218,4.0057,14.7
22425.0,-27.505,-22.218,3.0057,14.7
22434.0,-28.505,-22.218,1.0057,12.7
22444.0,-28.505,-22.218,0.0057342,14.7
22454.0,-35.505,-23.218,1.0057,14.7
22464.0,-35.505,-23.218,-1.9943,14.7
22474.0,-37.505,-24.218,-2.9943,14.7
22484.0,-37.505,-24.218,-3.9943,13.7
22494.0,-39.505,-24.218,-6.9943,12.7
22504.0,-39.505,-24.218,-8.9943,13.7
22514.0,-42.505,-22.218,-10.994,12.7
22523.0,-42.505,-22.218,-13.994,10.7
22533.0,-51.505,-25.218,-14.994,11.7
22543.0,-51.505,-25.218,-13.994,10.7
22553.0,-53.505,-23.218,-14.994,10.7
22563.0,-53.505,-23.218,-10.994,14.7
22573.0,-49.505,-21.218,-5.9943,15.7
22583.0,-46.505,-20.218,1.0057,19.7
22593.0,-44.505,-20.218,12.006,24.7
22603.0,-44.505,-22.218,22.006,29.7
22612.0,-41.505,-20.218,30.006,33.7
22622.0,-36.505,-18.218,40.006,37.7
22632.0,-29.505,-16.218,49.006,40.7
22642.0,-28.505,-16.218,54.006,42.7
22652.0,-24.505,-15.218,57.006,43.7
22662.0,-21.505,-15.218,61.006,44.7
22672.0,-21.505,-15.218,63.006,44.7
22682.0,-17.505,-15.218,64.006,43.7
22691.0,-14.505,-14.218,66.006,44.7
22701.0,-12.505,-14.218,69.006,44.7
22711.0,-11.505,-14.218,70.006,42.7
22721.0,-9.5049,-14.218,72.006,43.7
22731.0,-8.5049,-14.218,69.006,43.7
22741.0,-6.5049,-12.218,69.006,42.7
22751.0,-4.5049,-13.218,68.006,41.7
22761.0,-2.5049,-11.218,68.006,41.7
22771.0,-2.5049,-12.218,63.006,40.7
22780.0,-3.5049,-8.2185,63.006,40.7
22790.0,-2.5049,-6.2185,55.006,34.7
22800.0,-2.5049,-7.2185,55.006,34.7
22810.0,-3.5049,-10.218,48.006,31.7
22820.0,-2.5049,-9.2185,48.006,31.7
22830.0,-5.5049,-11.218,44.006,27.7
22840.0,-7.5049,-10.218,44.006,27.7
22850.0,-10.505,-10.218,39.006,27.7
22860.0,-13.505,-11.218,39.006,27.7
22869.0,-12.505,-10.218,38.006,27.7
22879.0,-14.505,-11.218,38.006,27.7
22889.0,-14.505,-10.218,39.006,27.7
22899.0,-13.505,-10.218,39.006,27.7
22909.0,-15.505,-10.218,37.006,28.7
22919.0,-17.505,-9.2185,37.006,28.7
22929.0,-16.505,-9.2185,35.006,28.7
22939.0,-17.505,-8.2185,35.006,28.7
22949.0,-20.505,-8.2185,32.006,26.7
22958.0,-21.505,-9.2185,32.006,26.7
22968.0,-23.505,-8.2185,31.006,25.7
22978.0,-25.505,-10.218,28.006,24.7
22988.0,-27.505,-9.2185,25.006,22.7
22998.0,-29.505,-8.2185,24.006,20.7
23008.0,-31.505,-8.2185,19.006,20.7
23018.0,-32.505,-9.2185,17.006,19.7
23028.0,-31.505,-8.2185,18.006,18.7
23037.0,-35.505,-7.2185,15.006,17.7
23047.0,-36.505,-8.2185,13.006,16.7
23057.0,-37.505,-8.2185,10.006,16.7
23067.0,-42.505,-8.2185,6.0057,13.7
23077.0,-41.505,-7.2185,3.0057,11.7
23087.0,-43.505,-7.2185,0.0057342,10.7
23097.0,-46.505,-6.2185,-2.9943,11.7
23107.0,-51.505,-7.2185,-5.9943,7.6996
23117.0,-52.505,-9.2185,-6.9943,7.6996
23126.0,-59.505,-9.2185,-12.994,5.6996
23136.0,-59.505,-7.2185,-18.994,4.6996
23146.0,-60.505,-5.2185,-20.994,3.6996
23156.0,-60.505,-5.2185,-20.994,2.6996
23166.0,-52.505,-1.2185,-17.994,3.6996
23176.0,-52.505,-1.2185,-12.994,6.6996
23186.0,-46.505,-0.21849,-2.9943,9.6996
23196.0,-46.505,-0.21849,7.0057,13.7
23206.0,-40.505,0.78151,15.006,18.7
23215.0,-40.505,0.78151,22.006,21.7
23225.0,-30.505,4.7815,31.006,24.7
23235.0,-30.505,4.7815,39.006,26.7
23245.0,-24.505,6.7815,43.006,29.7
23255.0,-24.505,6.7815,48.006,29.7
23265.0,-19.505,7.7815,51.006,30.7
23275.0,-19.505,7.7815,52.006,29.7
23285.0,-17.505,6.7815,53.006,30.7
23295.0,-17.505,6.7815,54.006,29.7
23304.0,-12.505,6.7815,54.006,30.7
23314.0,-14.505,5.7815,55.006,29.7
23324.0,-13.505,7.7815,55.006,29.7
23334.0,-13.505,4.7815,52.006,28.7
23344.0,-10.505,4.7815,52.006,27.7
23354.0,-10.505,4.7815,48.006,26.7
23364.0,-10.505,5.7815,43.006,23.7
23374.0,-10.505,5.7815,40.006,20.7
23383.0,-12.505,4.7815,35.006,17.7
23393.0,-14.505,3.7815,31.006,17.7
23403.0,-17.505,2.7815,27.006,15.7
23413.0,-19.505,1.7815,25.006,14.7
23423.0,-22.505,-0.21849,25.006,15.7
23433.0,-26.505,-1.2185,23.006,13.7
23443.0,-24.505,-0.21849,21.006,13.7
23453.0,-26.505,-1.2185,17.006,13.7
23463.0,-29.505,-1.2185,15.006,12.7
23472.0,-28.505,-1.2185,14.006,12.7
23482.0,-29.505,-2.2185,15.006,12.7
23492.0,-32.505,-0.21849,12.006,11.7
23502.0,-31.505,-0.21849,13.006,11.7
23512.0,-32.505,-0.21849,13.006,12.7
23522.0,-33.505,-1.2185,13.006,10.7
23532.0,-35.505,-1.2185,11.006,10.7
23542.0,-38.505,-4.2185,11.006,10.7
23552.0,-39.505,-3.2185,12.006,10.7
23561.0,-39.505,-4.2185,10.006,8.6996
23571.0,-41.505,-4.2185,8.0057,8.6996
23581.0,-42.505,-4.2185,3.0057,7.6996
23591.0,-43.505,-5.2185,0.0057342,7.6996
23601.0,-47.505,-6.2185,1.0057,5.6996
23611.0,-48.505,-7.2185,-1.9943,3.6996
23621.0,-52.505,-8.2185,-6.9943,2.6996
23631.0,-53.505,-9.2185,-10.994,0.69958
23641.0,-56.505,-11.218,-10.994,-0.30042
23650.0,-58.505,-12.218,-14.994,-0.30042
23660.0,-59.505,-12.218,-17.994,-2.3004
23670.0,-60.505,-12.218,-19.994,-1.3004
23680.0,-61.505,-13.218,-22.994,-3.3004
23690.0,-64.505,-12.218,-23.994,-4.3004
23700.0,-66.505,-14.218,-26.994,-4.3004
23710.0,-70.505,-15.218,-29.994,-6.3004
23720.0,-75.505,-17.218,-33.994,-8.3004
23729.0,-79.505,-18.218,-37.994,-9.3004
23739.0,-81.505,-20.218,-39.994,-10.3
23749.0,-79.505,-20.218,-37.994,-9.3004
23759.0,-79.505,-21.218,-33.994,-7.3004
23769.0,-77.505,-21.218,-24.994,-3.3004
23779.0,-73.505,-21.218,-15.994,1.6996
23789.0,-71.505,-23.218,-10.994,5.6996
23799.0,-68.505,-22.218,-0.99427,6.6996
23809.0,-62.505,-21.218,9.0057,9.6996
23818.0,-59.505,-22.218,14.006,12.7
23828.0,-56.505,-21.218,20.006,13.7
23838.0,-54.505,-22.218,25.006,14.7
23848.0,-51.505,-21.218,25.006,14.7
23858.0,-49.505,-20.218,33.006,18.7
23868.0,-45.505,-23.218,33.006,18.7
23878.0,-42.505,-21.218,38.006,19.7
23888.0,-42.505,-21.218,38.006,19.7
23898.0,-37.505,-19.218,39.006,19.7
23907.0,-37.505,-19.218,39.006,19.7
23917.0,-32.505,-18.218,40.006,19.7
23927.0,-32.505,-18.218,40.006,19.7
23937.0,-29.505,-17.218,41.006,18.7
23947.0,-29.505,-17.218,41.006,18.7
23957.0,-26.505,-17.218,34.006,15.7
23967.0,-26.505,-17.218,34.006,15.7
23977.0,-28.505,-17.218,23.006,9.6996
23987.0,-28.505,-17.218,23.006,9.6996
23996.0,-31.505,-19.218,14.006,6.6996
24006.0,-31.505,-19.218,14.006,6.6996
24016.0,-32.505,-21.218,8.0057,2.6996
24026.0,-32.505,-24.218,8.0057,2.6996
24036.0,-34.505,-23.218,4.0057,2.6996
24046.0,-34.505,-24.218,3.0057,2.6996
24056.0,-34.505,-24.218,2.0057,0.69958
24066.0,-35.505,-24.218,0.0057342,0.69958
24075.0,-38.505,-24.218,0.0057342,1.6996
24085.0,-36.505,-23.218,-0.99427,0.69958
24095.0,-40.505,-25.218,0.0057342,1.6996
24105.0,-39.505,-25.218,-0.99427,-0.30042
24115.0,-43.505,-26.218,-1.9943,0.69958
24125.0,-46.505,-26.218,-1.9943,0.69958
24135.0,-44.505,-26.218,-2.9943,0.69958
24145.0,-48.505,-26.218,-1.9943,0.69958
24155.0,-48.505,-27.218,-4.9943,0.69958
24164.0,-50.505,-28.218,-5.9943,-1.3004
24174.0,-53.505,-31.218,-7.9943,-1.3004
24184.0,-57.505,-31.218,-9.9943,-2.3004
24194.0,-58.505,-32.218,-11.994,-3.3004
24204.0,-58.505,-33.218,-13.994,-4.3004
24214.0,-64.505,-34.218,-17.994,-6.3004
24224.0,-65.505,-36.218,-17.994,-6.3004
24234.0,-68.505,-35.218,-17.994,-7.3004
24244.0,-70.505,-38.218,-19.994,-7.3004
24253.0,-73.505,-37.218,-20.994,-9.3004
24263.0,-73.505,-38.218,-23.994,-8.3004
24273.0,-77.505,-39.218,-20.994,-9.3004
24283.0,-79.505,-38.218,-19.994,-7.3004
24293.0,-83.505,-40.218,-17.994,-7.3004
24303.0,-86.505,-44.218,-17.994,-7.3004
24313.0,-90.505,-43.218,-13.994,-5.3004
24323.0,-94.505,-45.218,-12.994,-4.3004
24333.0,-95.505,-46.218,-8.9943,-2.3004
24342.0,-93.505,-47.218,-0.99427,1.6996
24352.0,-91.505,-45.218,8.0057,6.6996
24362.0,-90.505,-45.218,19.006,13.7
24372.0,-86.505,-44.218,29.006,18.7
24382.0,-80.505,-44.218,41.006,22.7
24392.0,-74.505,-39.218,49.006,25.7
24402.0,-70.505,-39.218,54.006,28.7
24412.0,-69.505,-40.218,59.006,29.7
24421.0,-68.505,-41.218,67.006,30.7
24431.0,-66.505,-43.218,70.006,31.7
24441.0,-64.505,-43.218,71.006,31.7
24451.0,-61.505,-44.218,76.006,32.7
24461.0,-58.505,-43.218,78.006,33.7
24471.0,-55.505,-44.218,80.006,34.7
24481.0,-55.505,-43.218,79.006,33.7
24491.0,-52.505,-42.218,82.006,34.7
24501.0,-47.505,-41.218,79.006,31.7
24510.0,-45.505,-40.218,80.006,32.7
24520.0,-44.505,-39.218,78.006,31.7
24530.0,-44.505,-40.218,76.006,29.7
24540.0,-42.505,-39.218,75.006,28.7
24550.0,-43.505,-39.218,69.006,27.7
24560.0,-45.505,-42.218,69.006,24.7
24570.0,-44.505,-40.218,63.006,22.7
24580.0,-43.505,-41.218,60.006,20.7
24590.0,-45.505,-41.218,55.006,18.7
24599.0,-45.505,-41.218,53.006,16.7
24609.0,-46.505,-45.218,48.006,16.7
24619.0,-46.505,-45.218,45.006,14.7
24629.0,-48.505,-44.218,44.006,15.7
24639.0,-48.505,-44.218,43.006,14.7
24649.0,-49.505,-43.218,43.006,15.7
24659.0,-49.505,-43.218,42.006,14.7
24669.0,-49.505,-45.218,42.006,14.7
24679.0,-49.505,-45.218,43.006,12.7
24688.0,-49.505,-44.218,40.006,13.7
24698.0,-49.505,-44.218,38.006,12.7
24708.0,-52.505,-44.218,39.006,10.7
24718.0,-52.505,-44.218,38.006,11.7
24728.0,-53.505,-43.218,36.006,10.7
24738.0,-53.505,-43.218,35.006,11.7
24748.0,-54.505,-43.218,36.006,10.7
24758.0,-52.505,-42.218,32.006,9.6996
24767.0,-55.505,-42.218,34.006,11.7
24777.0,-56.505,-44.218,32.006,10.7
24787.0,-57.505,-45.218,30.006,9.6996
24797.0,-57.505,-45.218,27.006,8.6996
24807.0,-60.505,-44.218,26.006,6.6996
24817.0,-61.505,-45.218,25.006,5.6996
24827.0,-59.505,-45.218,23.006,5.6996
24837.0,-60.505,-45.218,22.006,6.6996
24847.0,-62.505,-44.218,21.006,6.6996
24856.0,-64.505,-44.218,19.006,4.6996
24866.0,-67.505,-42.218,14.006,4.6996
24876.0,-66.505,-42.218,12.006,3.6996
24886.0,-68.505,-43.218,11.006,1.6996
24896.0,-72.505,-44.218,11.006,1.6996
24906.0,-71.505,-44.218,6.0057,-1.3004
24916.0,-72.505,-44.218,6.0057,-1.3004
24926.0,-70.505,-41.218,8.0057,0.69958
24936.0,-66.505,-39.218,8.0057,0.69958
24945.0,-58.505,-36.218,24.006,8.6996
24955.0,-57.505,-36.218,24.006,8.6996
24965.0,-54.505,-35.218,48.006,18.7
24975.0,-48.505,-33.218,48.006,18.7
24985.0,-42.505,-33.218,69.006,27.7
24995.0,-38.505,-30.218,69.006,27.7
25005.0,-34.505,-30.218,84.006,32.7
25015.0,-33.505,-32.218,84.006,32.7
25025.0,-33.505,-32.218,96.006,38.7
25034.0,-30.505,-34.218,96.006,38.7
25044.0,-27.505,-33.218,103.01,40.7
25054.0,-22.505,-35.218,103.01,40.7
25064.0,-22.505,-34.218,103.01,39.7
25074.0,-20.505,-33.218,103.01,39.7
25084.0,-17.505,-33.218,100.01,36.7
25094.0,-16.505,-32.218,100.01,36.7
25104.0,-16.505,-35.218,95.006,35.7
25113.0,-15.505,-35.218,93.006,32.7
25123.0,-15.505,-36.218,90.006,32.7
25133.0,-16.505,-35.218,85.006,29.7
25143.0,-14.505,-36.218,83.006,28.7
25153.0,-18.505,-36.218,80.006,24.7
25163.0,-16.505,-34.218,74.006,25.7
25173.0,-16.505,-35.218,71.006,22.7
25183.0,-17.505,-35.218,67.006,23.7
25193.0,-16.505,-36.218,64.006,21.7
25202.0,-16.505,-35.218,63.006,19.7
25212.0,-15.505,-34.218,58.006,19.7
25222.0,-17.505,-34.218,59.006,19.7
25232.0,-15.505,-32.218,55.006,19.7
25242.0,-17.505,-32.218,57.006,18.7
25252.0,-16.505,-32.218,57.006,20.7
25262.0,-18.505,-32.218,56.006,20.7
25272.0,-20.505,-33.218,56.006,20.7
25282.0,-21.505,-34.218,56.006,20.7
25291.0,-21.505,-32.218,56.006,19.7
25301.0,-23.505,-31.218,56.006,22.7
25311.0,-20.505,-30.218,53.006,21.7
25321.0,-21.505,-30.218,55.006,20.7
25331.0,-21.505,-30.218,52.006,20.7
25341.0,-27.505,-32.218,53.006,19.7
25351.0,-27.505,-32.218,50.006,18.7
25361.0,-29.505,-32.218,47.006,19.7
25371.0,-29.505,-32.218,44.006,17.7
25380.0,-33.505,-34.218,38.006,15.7
25390.0,-33.505,-34.218,35.006,15.7
25400.0,-34.505,-34.218,29.006,12.7
25410.0,-34.505,-34.218,26.006,10.7
25420.0,-38.505,-33.218,22.006,10.7
25430.0,-38.505,-33.218,19.006,8.6996
25440.0,-37.505,-31.218,19.006,9.6996
25450.0,-37.505,-31.218,17.006,10.7
25459.0,-41.505,-32.218,17.006,8.6996
25469.0,-42.505,-31.218,13.006,8.6996
25479.0,-44.505,-31.218,8.0057,7.6996
25489.0,-47.505,-32.218,5.0057,6.6996
25499.0,-49.505,-30.218,4.0057,6.6996
25509.0,-47.505,-27.218,5.0057,7.6996
25519.0,-41.505,-24.218,8.0057,9.6996
25529.0,-38.505,-22.218,15.006,14.7
25539.0,-35.505,-23.218,24.006,17.7
25548.0,-33.505,-23.218,34.006,23.7
25558.0,-31.505,-23.218,43.006,27.7
25568.0,-26.505,-22.218,52.006,31.7
25578.0,-19.505,-19.218,61.006,33.7
25588.0,-13.505,-17.218,69.006,36.7
25598.0,-9.5049,-17.218,72.006,38.7
25608.0,-8.5049,-16.218,78.006,39.7
25618.0,-2.5049,-16.218,83.006,42.7
25628.0,-0.50494,-15.218,83.006,42.7
25637.0,3.4951,-17.218,82.006,42.7
25647.0,5.4951,-15.218,82.006,40.7
25657.0,9.4951,-14.218,80.006,40.7
25667.0,11.495,-14.218,79.006,38.7
25677.0,13.495,-14.218,78.006,36.7
25687.0,16.495,-13.218,75.006,36.7
25697.0,17.495,-13.218,77.006,36.7
25707.0,18.495,-13.218,75.006,35.7
25717.0,19.495,-11.218,70.006,34.7
25726.0,19.495,-10.218,64.006,32.7
25736.0,21.495,-10.218,61.006,30.7
25746.0,20.495,-9.2185,58.006,30.7
25756.0,19.495,-10.218,53.006,26.7
25766.0,21.495,-8.2185,51.006,25.7
25776.0,20.495,-8.2185,49.006,24.7
25786.0,20.495,-8.2185,47.006,23.7
25796.0,20.495,-7.2185,43.006,21.7
25805.0,19.495,-8.2185,41.006,20.7
25815.0,20.495,-7.2185,40.006,19.7
25825.0,20.495,-6.2185,37.006,19.7
25835.0,19.495,-7.2185,37.006,19.7
25845.0,18.495,-6.2185,36.006,19.7
25855.0,19.495,-5.2185,36.006,18.7
25865.0,17.495,-5.2185,35.006,16.7
25875.0,17.495,-5.2185,34.006,17.7
25885.0,17.495,-4.2185,32.006,14.7
25894.0,16.495,-3.2185,33.006,15.7
25904.0,15.495,-2.2185,32.006,14.7
25914.0,15.495,-3.2185,28.006,13.7
25924.0,12.495,-2.2185,28.006,13.7
25934.0,11.495,-1.2185,29.006,12.7
25944.0,12.495,-2.2185,26.006,11.7
25954.0,9.4951,-2.2185,26.006,10.7
25964.0,8.4951,0.78151,23.006,8.6996
25974.0,9.4951,-0.21849,20.006,7.6996
25983.0,4.4951,-1.2185,18.006,7.6996
25993.0,5.4951,-1.2185,16.006,5.6996
26003.0,3.4951,-1.2185,16.006,5.6996
26013.0,-0.50494,-0.21849,17.006,7.6996
26023.0,1.4951,1.7815,17.006,7.6996
26033.0,3.4951,1.7815,16.006,6.6996
26043.0,3.4951,1.7815,16.006,6.6996
26053.0,-1.5049,3.7815,11.006,3.6996
26063.0,-1.5049,3.7815,11.006,3.6996
26072.0,-7.5049,3.7815,5.0057,1.6996
26082.0,-7.5049,3.7815,5.0057,1.6996
26092.0,-6.5049,6.7815,3.0057,0.69958
26102.0,-6.5049,6.7815,3.0057,0.69958
26112.0,-0.50494,11.782,10.006,3.6996
26122.0,-0.50494,11.782,10.006,3.6996
26132.0,9.4951,12.782,22.006,11.7
26142.0,9.4951,12.782,22.006,11.7
26151.0,17.495,16.782,38.006,17.7
26161.0,17.495,16.782,38.006,17.7
26171.0,27.495,21.782,54.006,23.7
26181.0,27.495,21.782,54.006,23.7
26191.0,34.495,21.782,59.006,24.7
26201.0,36.495,21.782,63.006,23.7
26211.0,41.495,22.782,67.006,24.7
26221.0,44.495,24.782,68.006,22.7
26231.0,47.495,24.782,67.006,24.7
26240.0,53.495,27.782,67.006,22.7
26250.0,56.495,28.782,67.006,22.7
26260.0,59.495,29.782,65.006,21.7
26270.0,60.495,29.782,62.006,18.7
26280.0,64.495,29.782,62.006,18.7
26290.0,65.495,31.782,62.006,15.7
26300.0,64.495,33.782,57.006,14.7
26310.0,66.495,34.782,52.006,12.7
26320.0,67.495,35.782,48.006,10.7
26329.0,66.495,36.782,44.006,8.6996
26339.0,66.495,36.782,42.006,8.6996
26349.0,65.495,36.782,42.006,8.6996
26359.0,65.495,36.782,40.006,8.6996
26369.0,62.495,36.782,40.006,6.6996
26379.0,60.495,34.782,39.006,7.6996
26389.0,57.495,34.782,38.006,8.6996
26399.0,57.495,35.782,37.006,6.6996
26409.0,56.495,34.782,37.006,7.6996
26418.0,54.495,34.782,36.006,5.6996
26428.0,52.495,34.782,35.006,5.6996
26438.0,52.495,35.782,35.006,6.6996
26448.0,49.495,36.782,33.006,5.6996
26458.0,48.495,34.782,33.006,6.6996
26468.0,44.495,35.782,33.006,6.6996
26478.0,42.495,33.782,32.006,7.6996
26488.0,41.495,31.782,33.006,7.6996
26497.0,38.495,31.782,34.006,8.6996
26507.0,39.495,32.782,34.006,8.6996
26517.0,37.495,33.782,34.006,8.6996
26527.0,34.495,32.782,35.006,9.6996
26537.0,35.495,34.782,36.006,9.6996
26547.0,32.495,34.782,35.006,9.6996
26557.0,31.495,34.782,34.006,9.6996
26567.0,31.495,33.782,31.006,8.6996
26577.0,28.495,33.782,31.006,7.6996
26586.0,24.495,32.782,28.006,6.6996
26596.0,19.495,31.782,25.006,5.6996
26606.0,19.495,31.782,20.006,3.6996
26616.0,15.495,27.782,16.006,2.6996
26626.0,10.495,26.782,10.006,1.6996
26636.0,8.4951,24.782,10.006,-1.3004
26646.0,8.4951,24.782,8.0057,-1.3004
26656.0,0.49506,23.782,9.0057,-2.3004
26666.0,-3.5049,22.782,5.0057,-2.3004
26675.0,-6.5049,21.782,5.0057,-3.3004
26685.0,-3.5049,23.782,5.0057,-1.3004
26695.0,-1.5049,23.782,7.0057,-0.30042
26705.0,1.4951,25.782,12.006,2.6996
26715.0,2.4951,23.782,18.006,5.6996
26725.0,8.4951,26.782,27.006,9.6996
26735.0,12.495,27.782,34.006,14.7
26745.0,16.495,28.782,44.006,15.7
26755.0,22.495,31.782,53.006,19.7
26764.0,26.495,31.782,61.006,21.7
26774.0,26.495,31.782,65.006,23.7
26784.0,30.495,30.782,69.006,24.7
26794.0,30.495,30.782,71.006,24.7
26804.0,33.495,27.782,72.006,24.7
26814.0,33.495,27.782,76.006,26.7
26824.0,34.495,25.782,78.006,27.7
26834.0,34.495,25.782,81.006,27.7
26843.0,40.495,27.782,82.006,27.7
26853.0,40.495,27.782,82.006,27.7
26863.0,41.495,28.782,81.006,25.7
26873.0,41.495,28.782,77.006,24.7
26883.0,43.495,26.782,74.006,23.7
26893.0,43.495,26.782,70.006,21.7
26903.0,42.495,27.782,66.006,19.7
26913.0,43.495,25.782,62.006,16.7
26923.0,40.495,24.782,55.006,15.7
26932.0,35.495,21.782,53.006,13.7
26942.0,31.495,19.782,47.006,9.6996
26952.0,31.495,18.782,42.006,8.6996
26962.0,29.495,17.782,39.006,7.6996
26972.0,27.495,17.782,38.006,6.6996
26982.0,27.495,16.782,36.006,8.6996
26992.0,22.495,13.782,37.006,7.6996
27002.0,22.495,13.782,38.006,8.6996
27012.0,19.495,13.782,39.006,8.6996
27021.0,18.495,14.782,35.006,7.6996
27031.0,16.495,10.782,35.006,7.6996
27041.0,14.495,9.7815,33.006,6.6996
27051.0,12.495,7.7815,33.006,6.6996
27061.0,7.4951,7.7815,30.006,6.6996
27071.0,5.4951,6.7815,30.006,6.6996
27081.0,3.4951,3.7815,30.006,6.6996
27091.0,1.4951,2.7815,30.006,6.6996
27100.0,-3.5049,0.78151,26.006,2.6996
27110.0,-9.5049,-1.2185,26.006,2.6996
27120.0,-11.505,-3.2185,24.006,2.6996
27130.0,-13.505,-3.2185,24.006,2.6996
27140.0,-15.505,-5.2185,20.006,0.69958
27150.0,-21.505,-8.2185,20.006,0.69958
27160.0,-24.505,-9.2185,15.006,-0.30042
27170.0,-30.505,-12.218,15.006,-0.30042
27180.0,-33.505,-13.218,10.006,-2.3004
27189.0,-39.505,-16.218,10.006,-2.3004
27199.0,-42.505,-17.218,8.0057,-3.3004
27209.0,-44.505,-18.218,8.0057,-3.3004
27219.0,-49.505,-21.218,6.0057,-2.3004
27229.0,-54.505,-22.218,6.0057,-2.3004
27239.0,-58.505,-24.218,4.0057,-2.3004
27249.0,-64.505,-26.218,5.0057,-4.3004
27259.0,-66.505,-27.218,3.0057,-5.3004
27269.0,-71.505,-29.218,4.0057,-5.3004
27278.0,-70.505,-30.218,3.0057,-5.3004
27288.0,-67.505,-29.218,8.0057,-4.3004
27298.0,-63.505,-29.218,12.006,-0.30042
27308.0,-61.505,-27.218,22.006,3.6996
27318.0,-55.505,-26.218,35.006,9.6996
27328.0,-52.505,-25.218,41.006,12.7
27338.0,-50.505,-25.218,52.006,17.7
27348.0,-47.505,-26.218,60.006,19.7
27358.0,-44.505,-28.218,69.006,22.7
27367.0,-43.505,-27.218,72.006,21.7
27377.0,-41.505,-28.218,73.006,22.7
27387.0,-40.505,-29.218,76.006,23.7
27397.0,-38.505,-30.218,79.006,22.7
27407.0,-35.505,-30.218,82.006,23.7
27417.0,-32.505,-29.218,82.006,22.7
27427.0,-33.505,-30.218,85.006,23.7
27437.0,-27.505,-29.218,83.006,24.7
27446.0,-27.505,-29.218,84.006,23.7
27456.0,-27.505,-30.218,82.006,22.7
27466.0,-27.505,-29.218,82.006,22.7
27476.0,-27.505,-30.218,79.006,20.7
27486.0,-27.505,-30.218,77.006,17.7
27496.0,-32.505,-32.218,73.006,16.7
27506.0,-32.505,-32.218,68.006,14.7
27516.0,-31.505,-32.218,61.006,10.7
27526.0,-31.505,-32.218,58.006,10.7
27535.0,-33.505,-32.218,54.006,6.6996
27545.0,-33.505,-32.218,53.006,7.6996
27555.0,-34.505,-35.218,52.006,5.6996
27565.0,-34.505,-35.218,51.006,5.6996
27575.0,-36.505,-36.218,52.006,6.6996
27585.0,-36.505,-36.218,48.006,5.6996
27595.0,-38.505,-36.218,48.006,4.6996
27605.0,-38.505,-36.218,47.006,5.6996
27615.0,-42.505,-39.218,46.006,5.6996
27624.0,-42.505,-39.218,45.006,4.6996
27634.0,-43.505,-41.218,45.006,3.6996
27644.0,-44.505,-41.218,44.006,2.6996
27654.0,-46.505,-40.218,43.006,1.6996
27664.0,-49.505,-42.218,44.006,2.6996
27674.0,-50.505,-42.218,42.006,1.6996
27684.0,-52.505,-44.218,42.006,1.6996
27694.0,-50.505,-44.218,43.006,2.6996
27704.0,-55.505,-43.218,43.006,2.6996
27713.0,-53.505,-45.218,41.006,1.6996
27723.0,-55.505,-44.218,37.006,0.69958
27733.0,-59.505,-46.218,36.006,-0.30042
27743.0,-59.505,-47.218,34.006,-1.3004
27753.0,-61.505,-48.218,34.006,-0.30042
27763.0,-64.505,-49.218,31.006,-3.3004
27773.0,-65.505,-49.218,29.006,-3.3004
27783.0,-65.505,-49.218,27.006,-5.3004
27792.0,-63.505,-49.218,25.006,-4.3004
27802.0,-65.505,-48.218,24.006,-4.3004
27812.0,-67.505,-48.218,22.006,-5.3004
27822.0,-69.505,-50.218,18.006,-7.3004
27832.0,-73.505,-51.218,17.006,-7.3004
27842.0,-72.505,-49.218,16.006,-7.3004
27852.0,-70.505,-48.218,17.006,-6.3004
27862.0,-66.505,-45.218,18.006,-3.3004
27872.0,-60.505,-43.218,27.006,-0.30042
27881.0,-54.505,-39.218,35.006,2.6996
27891.0,-49.505,-36.218,43.006,7.6996
27901.0,-42.505,-35.218,53.006,10.7
27911.0,-38.505,-32.218,63.006,14.7
27921.0,-33.505,-32.218,69.006,16.7
27931.0,-30.505,-30.218,72.006,16.7
27941.0,-25.505,-32.218,78.006,17.7
27951.0,-25.505,-32.218,79.006,17.7
27961.0,-22.505,-32.218,83.006,19.7
27970.0,-19.505,-31.218,85.006,20.7
27980.0,-17.505,-31.218,87.006,20.7
27990.0,-12.505,-31.218,87.006,19.7
28000.0,-8.5049,-29.218,87.006,18.7
28010.0,-7.5049,-27.218,88.006,19.7
28020.0,-4.5049,-28.218,90.006,19.7
28030.0,-2.5049,-28.218,88.006,18.7
28040.0,-1.5049,-27.218,88.006,19.7
28050.0,-1.5049,-27.218,87.006,18.7
28059.0,-0.50494,-27.218,84.006,17.7
28069.0,-0.50494,-29.218,80.006,16.7
28079.0,-1.5049,-27.218,79.006,13.7
28089.0,-3.5049,-28.218,74.006,11.7
28099.0,-1.5049,-27.218,70.006,10.7
28109.0,-2.5049,-27.218,64.006,7.6996
28119.0,-2.5049,-27.218,65.006,7.6996
28129.0,-2.5049,-28.218,65.006,8.6996
28138.0,-5.5049,-28.218,65.006,8.6996
28148.0,-3.5049,-27.218,60.006,7.6996
28158.0,-4.5049,-27.218,60.006,7.6996
28168.0,-4.5049,-27.218,56.006,7.6996
28178.0,-7.5049,-27.218,56.006,7.6996
28188.0,-9.5049,-28.218,56.006,7.6996
28198.0,-9.5049,-28.218,56.006,7.6996
28208.0,-8.5049,-26.218,54.006,7.6996
28218.0,-8.5049,-26.218,54.006,7.6996
28227.0,-9.5049,-26.218,51.006,7.6996
28237.0,-9.5049,-26.218,51.006,7.6996
28247.0,-12.505,-26.218,51.006,8.6996
28257.0,-12.505,-26.218,51.006,8.6996
28267.0,-14.505,-28.218,48.006,8.6996
28277.0,-14.505,-28.218,48.006,8.6996
28287.0,-17.505,-26.218,44.006,7.6996
28297.0,-17.505,-26.218,44.006,7.6996
28307.0,-20.505,-28.218,39.006,5.6996
28316.0,-20.505,-28.218,39.006,5.6996
28326.0,-24.505,-29.218,31.006,4.6996
28336.0,-24.505,-29.218,31.006,4.6996
28346.0,-25.505,-28.218,33.006,5.6996
28356.0,-26.505,-28.218,32.006,3.6996
28366.0,-29.505,-28.218,31.006,7.6996
28376.0,-28.505,-29.218,28.006,6.6996
28386.0,-32.505,-27.218,25.006,5.6996
28396.0,-32.505,-27.218,24.006,5.6996
28405.0,-36.505,-27.218,21.006,3.6996
28415.0,-41.505,-29.218,16.006,3.6996
28425.0,-42.505,-28.218,13.006,1.6996
28435.0,-42.505,-28.218,11.006,1.6996
28445.0,-40.505,-25.218,12.006,1.6996
28455.0,-36.505,-23.218,15.006,5.6996
28465.0,-35.505,-23.218,22.006,9.6996
28475.0,-32.505,-24.218,30.006,13.7
28484.0,-29.505,-24.218,38.006,18.7
28494.0,-26.505,-25.218,47.006,22.7
28504.0,-22.505,-22.218,55.006,25.7
28514.0,-16.505,-22.218,63.006,29.7
28524.0,-11.505,-19.218,67.006,29.7
28534.0,-11.505,-20.218,71.006,31.7
28544.0,-9.5049,-20.218,75.006,34.7
28554.0,-6.5049,-19.218,78.006,33.7
28564.0,-5.5049,-19.218,82.006,35.7
28573.0,-1.5049,-18.218,85.006,38.7
28583.0,1.4951,-18.218,87.006,38.7
28593.0,3.4951,-15.218,88.006,39.7
28603.0,8.4951,-13.218,89.006,39.7
28613.0,10.495,-12.218,90.006,41.7
28623.0,16.495,-10.218,91.006,40.7
28633.0,17.495,-6.2185,88.006,38.7
28643.0,18.495,-6.2185,86.006,38.7
28653.0,18.495,-6.2185,82.006,36.7
28662.0,17.495,-4.2185,80.006,33.7
28672.0,15.495,-5.2185,75.006,32.7
28682.0,13.495,-5.2185,70.006,30.7
28692.0,12.495,-6.2185,68.006,29.7
28702.0,10.495,-7.2185,65.006,28.7
28712.0,9.4951,-8.2185,62.006,27.7
28722.0,7.4951,-9.2185,60.006,26.7
28732.0,4.4951,-8.2185,60.006,26.7
28742.0,5.4951,-10.218,59.006,25.7
28751.0,2.4951,-8.2185,58.006,26.7
28761.0,3.4951,-8.2185,57.006,27.7
28771.0,1.4951,-8.2185,53.006,24.7
28781.0,-0.50494,-9.2185,53.006,24.7
28791.0,-1.5049,-8.2185,51.006,24.7
28801.0,-0.50494,-10.218,50.006,23.7
28811.0,-6.5049,-10.218,49.006,21.7
28821.0,-6.5049,-9.2185,46.006,20.7
28830.0,-7.5049,-8.2185,46.006,19.7
28840.0,-10.505,-9.2185,43.006,18.7
28850.0,-10.505,-10.218,42.006,17.7
28860.0,-11.505,-9.2185,41.006,18.7
28870.0,-12.505,-9.2185,42.006,18.7
28880.0,-15.505,-7.2185,40.006,19.7
28890.0,-13.505,-7.2185,39.006,17.7
28900.0,-19.505,-7.2185,37.006,15.7
28910.0,-20.505,-8.2185,33.006,12.7
28919.0,-21.505,-8.2185,27.006,10.7
28929.0,-21.505,-8.2185,22.006,6.6996
28939.0,-23.505,-8.2185,19.006,7.6996
28949.0,-23.505,-8.2185,16.006,4.6996
28959.0,-24.505,-7.2185,12.006,3.6996
28969.0,-24.505,-7.2185,11.006,2.6996
28979.0,-30.505,-9.2185,11.006,2.6996
28989.0,-30.505,-9.2185,10.006,2.6996
28999.0,-36.505,-7.2185,9.0057,1.6996
29008.0,-36.505,-7.2185,8.0057,-0.30042
29018.0,-37.505,-7.2185,7.0057,0.69958
29028.0,-37.505,-7.2185,8.0057,0.69958
29038.0,-29.505,-1.2185,12.006,3.6996
29048.0,-29.505,-1.2185,21.006,7.6996
29058.0,-22.505,1.7815,27.006,10.7
29068.0,-22.505,1.7815,33.006,12.7
29078.0,-20.505,0.78151,43.006,15.7
29088.0,-16.505,2.7815,47.006,17.7
29097.0,-12.505,2.7815,55.006,19.7
29107.0,-8.5049,4.7815,59.006,20.7
29117.0,-5.5049,6.7815,65.006,21.7
29127.0,-1.5049,6.7815,69.006,22.7
29137.0,2.4951,8.7815,73.006,22.7
29147.0,4.4951,10.782,76.006,23.7
29157.0,7.4951,11.782,77.006,23.7
29167.0,11.495,13.782,78.006,25.7
29176.0,11.495,12.782,82.006,25.7
29186.0,13.495,13.782,82.006,25.7
29196.0,14.495,12.782,80.006,23.7
29206.0,15.495,13.782,80.006,23.7
29216.0,16.495,13.782,79.006,22.7
29226.0,21.495,14.782,79.006,22.7
29236.0,18.495,14.782,71.006,17.7
29246.0,20.495,16.782,71.006,17.7
29256.0,17.495,17.782,59.006,10.7
29265.0,18.495,18.782,59.006,10.7
29275.0,15.495,17.782,49.006,6.6996
29285.0,13.495,17.782,49.006,6.6996
29295.0,12.495,15.782,38.006,1.6996
29305.0,7.4951,13.782,38.006,1.6996
29315.0,7.4951,12.782,30.006,-1.3004
29325.0,3.4951,11.782,30.006,-1.3004
29335.0,3.4951,12.782,25.006,-4.3004
29345.0,1.4951,12.782,25.006,-4.3004
29354.0,-0.50494,10.782,23.006,-5.3004
29364.0,-2.5049,11.782,23.006,-5.3004
29374.0,-4.5049,10.782,23.006,-6.3004
29384.0,-8.5049,8.7815,23.006,-6.3004
29394.0,-11.505,8.7815,22.006,-5.3004
29404.0,-12.505,5.7815,24.006,-6.3004
29414.0,-15.505,5.7815,24.006,-4.3004
29424.0,-21.505,2.7815,28.006,-3.3004
29434.0,-24.505,0.78151,31.006,-0.30042
29443.0,-25.505,0.78151,33.006,-1.3004
29453.0,-29.505,0.78151,34.006,-0.30042
29463.0,-32.505,0.78151,32.006,-2.3004
29473.0,-34.505,0.78151,31.006,-3.3004
29483.0,-36.505,-0.21849,31.006,-4.3004
29493.0,-39.505,-0.21849,30.006,-4.3004
29503.0,-43.505,-2.2185,34.006,-3.3004
29513.0,-46.505,-3.2185,39.006,-1.3004
29522.0,-50.505,-3.2185,44.006,0.69958
29532.0,-53.505,-5.2185,44.006,0.69958
29542.0,-57.505,-6.2185,44.006,1.6996
29552.0,-59.505,-6.2185,45.006,3.6996
29562.0,-63.505,-9.2185,44.006,3.6996
29572.0,-67.505,-11.218,43.006,3.6996
29582.0,-72.505,-13.218,44.006,2.6996
29592.0,-79.505,-15.218,39.006,0.69958
29602.0,-84.505,-16.218,36.006,-1.3004
29611.0,-86.505,-15.218,31.006,-2.3004
29621.0,-85.505,-17.218,29.006,-4.3004
29631.0,-83.505,-14.218,29.006,-3.3004
29641.0,-83.505,-14.218,31.006,-0.30042
29651.0,-79.505,-16.218,37.006,2.6996
29661.0,-79.505,-16.218,45.006,6.6996
29671.0,-72.505,-14.218,55.006,9.6996
29681.0,-72.505,-14.218,62.006,13.7
29691.0,-63.505,-11.218,69.006,16.7
29700.0,-63.505,-11.218,76.006,18.7
29710.0,-58.505,-11.218,79.006,17.7
29720.0,-58.505,-11.218,83.006,21.7
29730.0,-56.505,-11.218,87.006,23.7
29740.0,-56.505,-11.218,91.006,22.7
29750.0,-50.505,-13.218,95.006,23.7
29760.0,-50.505,-13.218,100.01,25.7
29770.0,-47.505,-12.218,105.01,25.7
29780.0,-47.505,-12.218,103.01,25.7
29789.0,-46.505,-14.218,100.01,25.7
29799.0,-44.505,-14.218,96.006,25.7
29809.0,-44.505,-12.218,98.006,23.7
29819.0,-42.505,-14.218,96.006,24.7
29829.0,-44.505,-14.218,93.006,22.7
29839.0,-44.505,-15.218,92.006,20.7
29849.0,-44.505,-13.218,86.006,18.7
29859.0,-47.505,-16.218,81.006,13.7
29868.0,-49.505,-17.218,75.006,12.7
29878.0,-52.505,-21.218,69.006,8.6996
29888.0,-53.505,-20.218,66.006,7.6996
29898.0,-55.505,-22.218,64.006,7.6996
29908.0,-59.505,-22.218,61.006,8.6996
29918.0,-58.505,-23.218,61.006,7.6996
29928.0,-58.505,-22.218,58.006,7.6996
29938.0,-59.505,-22.218,56.006,4.6996
29948.0,-60.505,-25.218,56.006,2.6996
29957.0,-61.505,-24.218,51.006,1.6996
29967.0,-63.505,-24.218,51.006,-0.30042
29977.0,-66.505,-26.218,48.006,0.69958
29987.0,-67.505,-26.218,45.006,-0.30042
29997.0,-72.505,-30.218,44.006,-1.3004
