t,lead_I,lead_II,v3,v4
0.6,6893,-12336,51449,69696
2.6,6363,-12442,51815,70065
4.6,6291,-12373,51561,69841
6.6,6284,-12422,51306,69613
8.6,5975,-12802,51683,69982
10.6,5606,-13256,52024,70325
12.6,5595,-13400,51655,70007
14.6,5975,-13200,51041,69450
16.6,6418,-12806,50877,69302
18.6,6634,-12315,51103,69535
20.6,6646,-11998,51263,69745
22.6,6636,-12164,51163,69719
24.6,6588,-12558,50946,69539
26.6,6304,-12679,50899,69466
28.6,5784,-12674,51145,69652
30.6,5338,-12993,51399,69857
32.6,5256,-13396,51273,69729
34.6,5578,-13364,50862,69359
36.6,6174,-13004,50609,69168
38.6,6705,-12736,50670,69275
40.6,6710,-12652,50820,69429
42.6,6195,-12693,50838,69434
44.6,5784,-12802,50687,69306
46.6,5775,-12845,50551,69227
48.6,5755,-12860,50658,69371
50.6,5616,-13042,50824,69580
52.6,5846,-13246,50629,69498
54.6,6382,-13136,50212,69216
56.6,6547,-12808,50115,69163
58.6,6320,-12600,50321,69340
60.6,6305,-12521,50373,69400
62.6,6512,-12460,50222,69294
64.6,6425,-12536,50131,69219
66.6,6017,-12828,50176,69253
68.6,5730,-13111,50331,69417
70.6,5719,-13163,50498,69612
72.6,5778,-13077,50409,69547
74.6,5836,-13045,50071,69233
76.6,6084,-13010,49916,69108
78.6,6531,-12834,50032,69257
80.6,6790,-12623,49971,69242
82.6,6625,-12507,49655,68989
84.6,6331,-12374,49579,68979
86.6,6189,-12252,49909,69373
88.6,6069,-12404,50222,69746
90.6,5912,-12730,50214,69778
92.6,5915,-12834,50040,69599
94.6,6106,-12724,49915,69434
96.6,6342,-12632,49853,69337
98.6,6556,-12496,49822,69304
100.6,6664,-12312,49850,69349
102.6,6686,-12255,49927,69424
104.6,6819,-12215,50012,69483
106.6,6894,-12148,50124,69573
108.6,6495,-12423,50231,69678
110.6,5996,-12866,50210,69663
112.6,6215,-12664,50096,69561
114.6,6912,-11940,50049,69546
116.6,7184,-11732,50039,69578
118.6,7025,-12132,49992,69555
120.6,6987,-12307,50015,69580
122.6,7048,-12106,50060,69629
124.6,6963,-11980,49909,69497
126.6,6842,-11986,49749,69372
128.6,6760,-12022,49905,69583
130.6,6659,-12177,50091,69853
132.6,6656,-12346,49921,69788
134.6,6814,-12318,49672,69651
136.6,6953,-12197,49676,69745
138.6,6989,-12118,49722,69838
140.6,7018,-11975,49631,69767
142.6,7074,-11808,49505,69679
144.6,7113,-11852,49355,69594
146.6,7052,-12033,49245,69551
148.6,6784,-12051,49374,69744
150.6,6421,-11988,49543,69996
152.6,6299,-12164,49357,69898
154.6,6482,-12416,49023,69611
156.6,6650,-12326,49012,69613
158.6,6646,-12035,49199,69827
160.6,6678,-11988,49187,69867
162.6,6812,-12100,48984,69731
164.6,6767,-12054,48814,69642
166.6,6444,-11978,48748,69646
168.6,6196,-12108,48736,69653
170.6,6278,-12326,48675,69574
172.6,6475,-12442,48516,69427
174.6,6534,-12386,48368,69354
176.6,6504,-12137,48300,69388
178.6,6453,-11876,48209,69364
180.6,6342,-11891,48054,69226
182.6,6270,-12109,47939,69113
184.6,6318,-12239,47922,69119
186.6,6285,-12313,47979,69213
188.6,6044,-12507,48030,69316
190.6,5837,-12696,47952,69324
192.6,5850,-12708,47775,69247
194.6,5963,-12653,47680,69220
196.6,6123,-12614,47665,69247
198.6,6375,-12452,47595,69218
200.6,6536,-12181,47505,69170
202.6,6451,-12076,47470,69175
204.6,6311,-12226,47401,69163
206.6,6259,-12407,47305,69124
208.6,6139,-12475,47322,69172
210.6,5943,-12499,47397,69271
212.6,5938,-12508,47332,69256
214.6,6185,-12451,47130,69119
216.6,6424,-12353,46968,69014
218.6,6477,-12286,46951,69047
220.6,6425,-12289,47030,69152
222.6,6398,-12364,47058,69181
224.6,6375,-12427,46970,69096
226.6,6240,-12373,46889,69040
228.6,6004,-12312,46939,69132
230.6,5854,-12488,47058,69310
232.6,5915,-12813,47109,69419
234.6,6107,-12902,47044,69387
236.6,6301,-12668,46949,69317
238.6,6426,-12411,46954,69373
240.6,6418,-12267,47049,69523
242.6,6311,-12125,47063,69553
244.6,6312,-12068,46927,69417
246.6,6491,-12282,46799,69322
248.6,6543,-12579,46828,69405
250.6,6295,-12621,46947,69562
252.6,6151,-12488,46976,69626
254.6,6420,-12463,46888,69596
256.6,6661,-12508,46857,69626
258.6,6510,-12433,46948,69755
260.6,6421,-12283,46956,69800
262.6,6703,-12187,46791,69693
264.6,6829,-12134,46678,69650
266.6,6557,-12140,46716,69753
268.6,6460,-12254,46710,69796
270.6,6693,-12358,46624,69736
272.6,6672,-12295,46628,69758
274.6,6353,-12139,46682,69861
276.6,6350,-12071,46638,69895
278.6,6711,-12114,46559,69876
280.6,6889,-12147,46530,69890
282.6,6747,-12094,46502,69921
284.6,6581,-12026,46474,69964
286.6,6492,-12074,46475,70013
288.6,6379,-12202,46444,69998
290.6,6260,-12227,46380,69944
292.6,6248,-12139,46358,69952
294.6,6382,-12121,46325,69978
296.6,6551,-12170,46214,69929
298.6,6610,-12075,46102,69859
300.6,6585,-11840,46024,69818
302.6,6606,-11719,45945,69791
304.6,6619,-11814,45948,69841
306.6,6477,-11981,46078,69994
308.6,6249,-12096,46190,70120
310.6,6114,-12134,46210,70174
312.6,6109,-12081,46224,70252
314.6,6158,-11980,46260,70365
316.6,6195,-11949,46314,70470
318.6,6244,-11997,46401,70571
320.6,6407,-11985,46398,70587
322.6,6611,-11884,46207,70448
324.6,6570,-11835,46043,70331
326.6,6300,-11877,46116,70404
328.6,6205,-11894,46278,70533
330.6,6379,-11842,46311,70552
332.6,6524,-11758,46221,70495
334.6,6587,-11630,46123,70451
336.6,6674,-11504,46112,70488
338.6,6645,-11497,46195,70628
340.6,6520,-11550,46242,70766
342.6,6621,-11471,46202,70816
344.6,6850,-11311,46190,70846
346.6,6785,-11303,46222,70897
348.6,6536,-11444,46206,70918
350.6,6479,-11499,46184,70937
352.6,6482,-11362,46202,70980
354.6,6353,-11148,46181,70992
356.6,6383,-11007,46169,71041
358.6,6706,-11007,46287,71210
360.6,6927,-11106,46365,71317
362.6,6842,-11146,46207,71199
364.6,6756,-10985,46004,71074
366.6,6849,-10756,45992,71159
368.6,6867,-10792,46065,71324
370.6,6615,-11117,46087,71409
372.6,6341,-11335,46123,71462
374.6,6413,-11254,46151,71483
376.6,6797,-11131,46011,71367
378.6,7074,-11118,45743,71168
380.6,6982,-11145,45583,71072
382.6,6745,-11341,45552,71072
384.6,6683,-11782,45424,70969
386.6,6729,-12093,45175,70778
388.6,6666,-12084,45050,70739
390.6,6596,-12158,45095,70858
392.6,6696,-12475,45089,70870
394.6,6775,-12617,44992,70764
396.6,6620,-12481,44970,70768
398.6,6466,-12476,45017,70878
400.6,6540,-12681,44997,70909
402.6,6642,-12776,44898,70848
404.6,6596,-12719,44766,70758
406.6,6521,-12737,44654,70640
408.6,6455,-12864,44662,70584
410.6,6359,-12973,44761,70669
412.6,6397,-12982,44771,70773
414.6,6607,-12872,44692,70788
416.6,6729,-12724,44671,70781
418.6,6740,-12670,44681,70804
420.6,6886,-12696,44629,70837
422.6,7058,-12717,44577,70885
424.6,6925,-12751,44572,70932
426.6,6574,-12753,44590,70975
428.6,6346,-12618,44649,71054
430.6,6363,-12519,44689,71120
432.6,6529,-12652,44599,71101
434.6,6659,-12695,44506,71119
436.6,6649,-12358,44585,71262
438.6,6696,-12117,44693,71344
440.6,6951,-12433,44660,71269
442.6,7105,-12860,44582,71192
444.6,6900,-12876,44521,71140
446.6,6676,-12748,44418,71038
448.6,6766,-12807,44345,71004
450.6,6944,-12896,44342,71095
452.6,6922,-12975,44248,71094
454.6,6807,-13241,44042,70922
456.6,6799,-13505,43949,70785
458.6,6904,-13415,44081,70819
460.6,7043,-13114,44389,71029
462.6,7184,-12896,44857,71455
464.6,7342,-12651,45469,72105
466.6,7548,-12173,46196,72941
468.6,7821,-11449,47090,73992
470.6,8137,-10415,48189,75269
472.6,8442,-9086,49388,76677
474.6,8816,-7800,50503,78126
476.6,9413,-6719,51351,79526
478.6,10025,-5607,51815,80699
480.6,10127,-4613,51969,81546
482.58,9696,-4339,52003,82153
484.55,9356,-4828,51892,82485
486.53,9416,-5585,51284,82178
488.5,9478,-6561,49883,80938
490.5,9178,-7938,47929,79058
492.5,8605,-9381,45966,77071
494.5,7957,-10561,44183,75080
496.5,7311,-11675,42573,73082
498.5,6704,-12696,41568,71612
500.5,6291,-13095,41545,71114
502.5,6315,-12842,42010,71122
504.5,6680,-12641,42326,71079
506.5,6850,-12869,42661,71190
508.5,6627,-13158,43238,71618
510.5,6475,-13165,43663,71925
512.5,6596,-13050,43795,71972
514.5,6632,-13052,44044,72152
516.5,6573,-13100,44379,72437
518.5,6725,-13008,44363,72444
520.5,6823,-12807,44142,72305
522.5,6532,-12685,44172,72382
524.5,6329,-12710,44330,72545
526.5,6566,-12761,44286,72541
528.5,6672,-12733,44187,72502
530.5,6374,-12661,44267,72587
532.5,6289,-12625,44388,72702
534.5,6566,-12645,44384,72749
536.5,6595,-12706,44342,72764
538.5,6378,-12782,44358,72803
540.5,6481,-12805,44383,72883
542.5,6792,-12740,44353,72941
544.5,6817,-12682,44285,72876
546.5,6661,-12739,44248,72746
548.5,6594,-12828,44298,72739
550.5,6502,-12812,44402,72875
552.5,6388,-12733,44455,72977
554.5,6501,-12699,44421,72978
556.5,6766,-12671,44397,72999
558.5,6882,-12613,44465,73109
560.5,6849,-12626,44556,73214
562.5,6830,-12738,44559,73227
564.5,6815,-12819,44500,73195
566.5,6748,-12818,44492,73222
568.5,6703,-12795,44558,73312
570.5,6744,-12738,44615,73384
572.5,6808,-12645,44611,73402
574.5,6889,-12592,44563,73403
576.5,7093,-12502,44503,73403
578.5,7314,-12259,44460,73401
580.5,7218,-12096,44481,73437
582.5,6830,-12297,44579,73541
584.5,6624,-12637,44682,73670
586.5,6770,-12751,44699,73761
588.5,6900,-12738,44650,73831
590.5,6820,-12807,44643,73917
592.5,6786,-12825,44681,73974
594.5,6956,-12679,44658,73952
596.5,7153,-12554,44596,73945
598.5,7215,-12586,44617,74044
600.5,7188,-12667,44672,74139
602.5,7193,-12685,44623,74116
604.5,7256,-12640,44547,74092
606.5,7276,-12574,44599,74207
608.5,7160,-12554,44731,74394
610.5,6993,-12614,44808,74532
612.5,6970,-12682,44809,74593
614.5,7123,-12670,44779,74596
616.5,7277,-12617,44772,74592
618.5,7333,-12606,44810,74632
620.5,7298,-12617,44849,74681
622.5,7079,-12578,44870,74720
624.5,6727,-12506,44907,74779
626.5,6677,-12457,44931,74812
628.5,7046,-12431,44929,74805
630.5,7229,-12448,44996,74880
632.5,7004,-12530,45104,75024
634.5,7030,-12547,45097,75067
636.5,7431,-12385,45077,75088
638.5,7416,-12242,45245,75279
640.5,6945,-12344,45422,75461
642.5,6870,-12547,45371,75419
644.5,7222,-12629,45265,75345
646.5,7317,-12623,45316,75430
648.5,7206,-12544,45446,75563
650.5,7346,-12264,45586,75700
652.5,7638,-11874,45728,75864
654.5,7823,-11717,45754,75914
656.5,7828,-11933,45703,75853
658.5,7626,-12273,45769,75899
660.5,7531,-12420,45856,75985
662.5,7814,-12354,45782,75902
664.5,7834,-12259,45775,75874
666.5,7110,-12171,46036,76154
668.5,6651,-12019,46247,76441
670.5,7285,-11933,46146,76404
672.5,8079,-12045,45986,76253
674.5,8171,-12132,45995,76267
676.5,8139,-12008,46041,76366
678.5,8333,-11896,46036,76435
680.5,8227,-11943,46063,76510
682.5,7890,-11909,46086,76584
684.5,7887,-11682,46024,76621
686.5,8065,-11491,45947,76659
688.5,8135,-11468,45906,76684
690.5,8294,-11537,45869,76669
692.5,8309,-11697,45960,76794
694.5,7690,-11944,46283,77176
696.5,7031,-12100,46550,77503
698.5,7234,-12057,46458,77469
700.5,7851,-11976,46218,77295
702.5,8023,-12000,46145,77266
704.5,7983,-12032,46128,77239
706.5,8106,-11999,46027,77112
708.5,8004,-12005,46014,77114
710.5,7603,-12045,46126,77282
712.5,7436,-11946,46165,77376
714.5,7529,-11788,46153,77401
716.5,7543,-11867,46228,77489
718.5,7565,-12147,46277,77511
720.5,7551,-12288,46218,77411
722.5,7183,-12210,46209,77402
724.5,6877,-12123,46240,77467
726.5,7237,-12143,46130,77384
728.5,7662,-12247,45969,77259
730.5,7470,-12346,45953,77295
732.5,7294,-12314,45982,77343
734.5,7544,-12215,45973,77301
736.5,7443,-12293,46060,77373
738.5,6954,-12515,46175,77533
740.5,7044,-12580,46095,77504
742.5,7441,-12471,45948,77387
744.5,7092,-12415,45987,77467
746.5,6557,-12410,46058,77586
748.5,6912,-12362,45953,77487
750.5,7472,-12386,45855,77370
752.5,7249,-12526,45920,77460
754.5,6886,-12585,45966,77569
756.5,7103,-12507,45895,77546
758.5,7326,-12455,45882,77570
760.5,7151,-12430,45977,77721
762.5,7130,-12292,45983,77784
764.5,7458,-12090,45836,77672
766.5,7549,-12035,45748,77618
768.5,7215,-12189,45857,77769
770.5,7027,-12440,45981,77918
772.5,7256,-12669,45943,77906
774.5,7339,-12790,45925,77932
776.5,6873,-12731,46128,78148
778.5,6449,-12549,46336,78301
780.5,6723,-12431,46268,78190
782.5,7314,-12441,46043,78021
784.5,7520,-12447,45938,78003
786.5,7382,-12382,46002,78076
788.5,7288,-12311,46112,78142
790.5,7295,-12203,46149,78181
792.5,7272,-12018,46120,78199
794.5,7118,-11978,46207,78316
796.5,6858,-12264,46474,78585
798.5,6822,-12586,46626,78747
800.5,7233,-12585,46459,78610
802.5,7612,-12427,46272,78468
804.5,7414,-12437,46379,78613
806.5,7020,-12444,46553,78779
808.5,7090,-12139,46470,78665
810.5,7391,-11812,46334,78541
812.5,7362,-11980,46466,78730
814.5,7244,-12441,46663,78957
816.5,7487,-12532,46588,78895
818.5,7705,-12226,46444,78797
820.5,7453,-12101,46553,78938
822.5,7220,-12290,46718,79051
824.5,7483,-12354,46665,78941
826.5,7733,-12157,46586,78894
828.5,7448,-12014,46702,79070
830.5,7047,-12047,46866,79235
832.5,7094,-12080,46894,79251
834.5,7419,-12034,46803,79200
836.5,7541,-11980,46674,79128
838.5,7419,-11953,46597,79075
840.5,7401,-11963,46628,79104
842.5,7559,-12047,46699,79156
844.5,7515,-12177,46744,79157
846.5,7161,-12256,46792,79160
848.5,6932,-12253,46844,79206
850.5,6970,-12225,46869,79261
852.5,6938,-12187,46870,79308
854.5,6897,-12111,46816,79314
856.5,7131,-12068,46718,79294
858.5,7288,-12167,46737,79389
860.5,7051,-12321,46903,79591
862.5,6955,-12351,46996,79678
864.5,7325,-12285,46954,79622
866.5,7581,-12270,46957,79611
868.5,7423,-12320,47036,79665
870.5,7278,-12380,47110,79703
872.5,7271,-12374,47202,79777
874.5,7183,-12140,47265,79837
876.5,7147,-11763,47217,79774
878.5,7285,-11711,47236,79790
880.5,7348,-12104,47452,80062
882.5,7289,-12405,47596,80289
884.5,7336,-12321,47517,80241
886.5,7456,-12224,47492,80190
888.5,7517,-12311,47605,80289
890.5,7511,-12294,47636,80335
892.5,7324,-12089,47667,80366
894.5,7012,-11988,47877,80563
896.5,7083,-12111,47977,80673
898.5,7589,-12222,47759,80466
900.5,7717,-12072,47643,80328
902.5,7113,-11718,47923,80588
904.5,6504,-11515,48212,80916
906.5,6474,-11640,48192,80980
908.5,6788,-11772,48066,80929
910.5,7075,-11644,48028,80936
912.5,7179,-11537,48034,80957
914.5,7087,-11697,48085,81007
916.5,7060,-11795,48179,81115
918.5,7319,-11562,48189,81175
920.5,7592,-11294,48102,81147
922.5,7632,-11241,48063,81134
924.5,7656,-11227,48108,81183
926.5,7738,-11192,48146,81252
928.5,7661,-11320,48136,81295
930.5,7557,-11468,48088,81274
932.5,7653,-11318,48018,81216
934.5,7686,-11077,47956,81196
936.5,7457,-11211,47880,81166
938.5,7219,-11639,47752,81022
940.5,7069,-11955,47624,80846
942.5,6964,-12127,47527,80757
944.5,7132,-12355,47401,80696
946.5,7412,-12611,47307,80670
948.5,7172,-12806,47392,80812
950.5,6667,-13028,47519,80986
952.5,6799,-13307,47433,80904
954.5,7286,-13486,47273,80716
956.5,7188,-13457,47306,80747
958.5,6814,-13306,47358,80831
960.5,6914,-13192,47208,80695
962.5,7092,-13206,47083,80562
964.5,6952,-13298,47135,80632
966.5,7059,-13334,47109,80660
968.5,7451,-13298,47006,80594
970.5,7325,-13324,47174,80759
972.5,6828,-13439,47509,81084
974.5,6853,-13492,47566,81128
976.5,7191,-13396,47423,80937
978.5,7087,-13242,47454,80922
980.5,6856,-13167,47545,81044
982.5,7051,-13217,47417,81001
984.5,7249,-13296,47249,80860
986.5,7041,-13284,47293,80856
988.5,6834,-13244,47414,80952
990.5,6918,-13293,47409,80985
992.5,7068,-13337,47327,80942
994.5,7188,-13269,47305,80919
996.5,7297,-13224,47371,80984
998.5,7258,-13258,47448,81086
1000.5,7109,-13198,47452,81102
1002.5,7085,-13055,47398,81035
1004.5,7167,-13051,47344,81004
1006.5,7193,-13170,47286,81006
1008.5,7195,-13260,47231,80965
1010.5,7240,-13428,47213,80892
1012.5,7285,-13763,47180,80818
1014.5,7329,-13988,47139,80752
1016.5,7405,-13886,47292,80801
1018.5,7491,-13695,47739,81085
1020.5,7612,-13651,48302,81574
1022.5,7875,-13507,48857,82175
1024.5,8323,-12892,49508,82909
1026.5,8806,-11852,50397,83900
1028.5,9081,-10674,51563,85239
1030.5,9187,-9459,52852,86790
1032.5,9508,-8200,53909,88253
1034.5,10139,-6980,54511,89498
1036.5,10560,-5904,54781,90570
1038.5,10413,-5203,54876,91378
1040.5,10078,-5274,54806,91808
1042.5,9959,-6134,54542,91883
1044.5,9919,-7204,53867,91416
1046.5,9789,-8125,52446,90054
1048.5,9617,-9181,50431,87981
1050.5,9216,-10565,48464,85829
1052.5,8320,-11965,46905,83881
1054.5,7249,-13082,45735,82167
1056.5,6624,-13841,45105,81015
1058.5,6545,-14158,45176,80656
1060.5,6672,-14090,45652,80743
1062.5,6823,-14009,46114,80871
1064.5,6965,-14148,46487,81027
1066.5,6995,-14289,46851,81260
1068.5,6950,-14180,47158,81469
1070.5,7055,-13933,47355,81603
1072.5,7302,-13805,47493,81707
1074.5,7360,-13857,47638,81806
1076.5,7136,-13967,47774,81888
1078.5,6949,-14003,47832,81922
1080.5,6950,-13911,47782,81867
1082.5,6934,-13718,47675,81755
1084.5,6899,-13504,47594,81685
1086.5,7043,-13369,47586,81715
1088.5,7200,-13358,47657,81813
1090.5,7121,-13370,47774,81920
1092.5,7052,-13292,47889,82016
1094.5,7215,-13228,47978,82108
1096.5,7290,-13338,48022,82188
1098.5,7128,-13491,47997,82205
1100.5,7083,-13462,47899,82129
1102.5,7214,-13326,47786,82027
1104.5,7159,-13293,47770,82022
1106.5,6964,-13345,47879,82123
1108.5,7047,-13400,47979,82198
1110.5,7351,-13513,47988,82209
1112.5,7447,-13649,48020,82278
1114.5,7339,-13626,48109,82380
1116.5,7376,-13457,48095,82346
1118.5,7491,-13368,47994,82245
1120.5,7327,-13400,48021,82301
1122.5,6998,-13406,48155,82437
1124.5,6930,-13384,48195,82438
1126.5,7085,-13430,48175,82388
1128.5,7137,-13471,48219,82454
1130.5,7097,-13426,48267,82561
1132.5,7093,-13424,48283,82623
1134.5,7038,-13555,48347,82705
1136.5,6954,-13662,48411,82791
1138.5,7005,-13620,48363,82781
1140.5,7113,-13502,48253,82685
1142.5,7116,-13397,48203,82614
1144.5,7097,-13327,48266,82659
1146.5,7164,-13327,48413,82803
1148.5,7309,-13390,48504,82878
1150.5,7502,-13434,48465,82826
1152.5,7545,-13448,48492,82872
1154.5,7200,-13505,48719,83117
1156.5,6707,-13590,48892,83267
1158.5,6571,-13600,48798,83147
1160.5,6816,-13530,48646,83006
1162.5,7098,-13506,48622,83021
1164.5,7284,-13603,48608,83055
1166.5,7368,-13722,48564,83070
1168.5,7275,-13697,48630,83178
1170.5,7104,-13463,48722,83273
1172.5,7103,-13136,48619,83155
1174.5,7274,-12975,48434,82972
1176.5,7384,-13188,48490,83037
1178.5,7351,-13675,48763,83321
1180.5,7298,-14084,48925,83513
1182.5,7268,-14192,48894,83528
1184.5,7186,-14080,48904,83566
1186.5,7167,-13901,49002,83665
1188.5,7387,-13722,48998,83659
1190.5,7549,-13631,48947,83630
1192.5,7246,-13702,49080,83806
1194.5,6900,-13830,49253,84012
1196.5,7172,-13833,49202,83959
1198.5,7669,-13737,49132,83883
1200.5,7655,-13702,49283,84062
1202.5,7422,-13721,49372,84185
1204.5,7508,-13668,49221,84016
1206.5,7594,-13554,49192,83925
1208.5,7385,-13497,49438,84132
1210.5,7268,-13525,49658,84345
1212.5,7416,-13565,49753,84425
1214.5,7577,-13505,49819,84467
1216.5,7775,-13297,49746,84391
1218.5,8072,-13074,49581,84243
1220.5,8169,-13004,49647,84312
1222.5,8012,-12999,49891,84532
1224.5,7935,-12895,49966,84578
1226.5,7986,-12829,49955,84553
1228.5,8014,-12982,50105,84700
1230.5,8119,-13133,50242,84837
1232.5,8271,-13010,50220,84826
1234.5,8159,-12804,50272,84911
1236.5,7895,-12808,50419,85103
1238.5,7957,-12878,50373,85085
1240.5,8288,-12772,50231,84950
1242.5,8415,-12639,50350,85064
1244.5,8309,-12722,50588,85294
1246.5,8257,-12899,50570,85272
1248.5,8249,-12945,50403,85128
1250.5,8192,-12914,50377,85166
1252.5,8196,-12957,50418,85280
1254.5,8217,-13035,50421,85319
1256.5,8093,-13059,50488,85387
1258.5,7957,-13063,50558,85457
1260.5,7946,-13095,50484,85397
1262.5,7914,-13131,50416,85330
1264.5,7930,-13145,50445,85341
1266.5,8177,-13118,50373,85252
1268.5,8191,-13033,50297,85162
1270.5,7592,-12947,50531,85361
1272.5,7199,-12982,50795,85580
1274.5,7680,-13165,50643,85397
1276.5,8135,-13353,50398,85131
1278.5,7822,-13390,50480,85195
1280.5,7520,-13286,50561,85277
1282.5,7741,-13173,50360,85090
1284.5,7858,-13133,50202,84928
1286.5,7794,-13128,50205,84899
1288.5,8033,-13103,50117,84781
1290.5,8096,-13049,50047,84727
1292.5,7462,-12995,50219,84982
1294.5,6948,-13018,50367,85242
1296.5,7184,-13186,50226,85187
1298.5,7479,-13363,50003,85020
1300.5,7454,-13283,49904,84958
1302.5,7594,-12975,49883,84931
1304.5,7763,-12817,49950,84948
1306.5,7411,-12968,50121,85087
1308.5,7009,-13146,50206,85194
1310.5,7264,-13130,50092,85105
1312.5,7686,-13040,49975,84981
1314.5,7519,-13020,50066,85072
1316.5,7098,-13068,50283,85329
1318.5,7104,-13168,50391,85468
1320.5,7442,-13278,50317,85380
1322.5,7620,-13310,50196,85246
1324.5,7513,-13277,50170,85255
1326.5,7309,-13275,50250,85388
1328.5,7213,-13332,50359,85513
1330.5,7351,-13420,50396,85546
1332.5,7635,-13494,50347,85512
1334.5,7768,-13474,50354,85538
1336.5,7631,-13347,50484,85664
1338.5,7434,-13229,50603,85766
1340.5,7353,-13211,50644,85798
1342.5,7375,-13262,50673,85834
1344.5,7513,-13307,50641,85827
1346.5,7692,-13274,50512,85738
1348.5,7610,-13172,50495,85750
1350.5,7233,-13131,50665,85924
1352.5,7014,-13216,50775,86025
1354.5,7182,-13295,50750,86002
1356.5,7477,-13285,50773,86044
1358.5,7748,-13296,50809,86110
1360.5,7974,-13343,50758,86084
1362.5,7851,-13276,50805,86142
1364.5,7353,-13102,51006,86352
1366.5,7134,-13028,51079,86450
1368.5,7460,-13092,50997,86394
1370.5,7677,-13136,51045,86435
1372.5,7449,-13123,51179,86552
1374.5,7333,-13136,51151,86550
1376.5,7618,-13131,51073,86529
1378.5,7821,-13072,51157,86644
1380.5,7657,-13076,51237,86734
1382.5,7473,-13128,51130,86658
1384.5,7545,-13019,51028,86596
1386.5,7713,-12803,51112,86697
1388.5,7764,-12797,51225,86820
1390.5,7701,-12992,51223,86845
1392.5,7613,-13081,51250,86894
1394.5,7567,-13028,51389,87035
1396.5,7579,-12996,51471,87125
1398.5,7604,-12959,51428,87098
1400.5,7636,-12896,51388,87068
1402.5,7714,-12923,51359,87052
1404.5,7690,-12971,51296,87019
1406.5,7384,-12865,51326,87086
1408.5,7139,-12749,51458,87249
1410.5,7462,-12829,51479,87298
1412.5,8003,-12983,51407,87243
1414.5,8016,-13070,51445,87282
1416.5,7751,-13173,51477,87316
1418.5,7920,-13277,51340,87187
1420.5,8176,-13245,51280,87130
1422.5,7821,-13165,51459,87321
1424.5,7305,-13211,51594,87482
1426.5,7391,-13305,51533,87427
1428.5,7740,-13283,51502,87363
1430.5,7711,-13167,51587,87418
1432.5,7515,-13111,51643,87467
1434.5,7561,-13179,51652,87467
1436.5,7653,-13238,51696,87508
1438.5,7506,-13118,51763,87600
1440.5,7312,-12897,51827,87686
1442.5,7393,-12780,51877,87737
1444.5,7704,-12718,51861,87737
1446.5,7890,-12568,51793,87714
1448.5,7760,-12476,51782,87738
1450.5,7523,-12616,51871,87846
1452.5,7407,-12837,51995,88010
1454.5,7356,-12930,52108,88175
1456.5,7332,-12890,52200,88281
1458.5,7445,-12769,52257,88309
1460.5,7579,-12642,52290,88310
1462.5,7523,-12609,52324,88338
1464.5,7472,-12592,52322,88360
1466.5,7650,-12410,52242,88335
1468.5,7742,-12137,52169,88340
1470.5,7492,-11987,52240,88482
1472.5,7314,-11933,52401,88673
1474.5,7543,-11854,52472,88725
1476.5,7803,-11840,52477,88681
1478.5,7779,-11973,52587,88733
1480.5,7750,-12074,52740,88847
1482.5,7912,-11957,52752,88859
1484.5,8020,-11746,52700,88838
1486.5,8010,-11704,52725,88884
1488.5,8096,-11854,52729,88885
1490.5,8153,-11972,52680,88844
1492.5,7879,-11933,52757,88970
1494.5,7551,-11883,52913,89191
1496.5,7627,-12003,52885,89205
1498.5,7829,-12243,52726,89068
1500.5,7656,-12401,52688,89049
1502.5,7382,-12433,52718,89080
1504.5,7497,-12524,52630,88961
1506.5,7739,-12770,52481,88781
1508.5,7643,-12976,52402,88701
1510.5,7416,-12943,52378,88677
1512.5,7460,-12818,52343,88608
1514.5,7645,-12871,52262,88508
1516.5,7623,-13033,52153,88452
1518.5,7476,-12971,52066,88446
1520.5,7618,-12652,51985,88396
1522.5,8016,-12525,51918,88332
1524.5,8030,-12869,52013,88451
1526.5,7483,-13270,52232,88697
1528.5,7196,-13267,52287,88737
1530.5,7636,-13131,52163,88585
1532.5,8051,-13236,52155,88566
1534.5,7837,-13241,52257,88665
1536.5,7470,-12881,52263,88664
1538.5,7411,-12738,52276,88679
1540.5,7460,-13216,52432,88852
1542.5,7488,-13777,52580,89011
1544.5,7570,-13966,52623,89050
1546.5,7609,-13960,52618,89042
1548.5,7616,-13792,52502,88939
1550.5,7781,-13369,52290,88745
1552.5,7960,-13104,52227,88690
1554.5,7857,-13269,52361,88829
1556.5,7608,-13406,52458,88945
1558.5,7530,-13282,52445,88959
1560.5,7644,-13318,52444,88975
1562.5,7799,-13575,52479,89015
1564.5,7876,-13607,52509,89036
1566.5,7799,-13427,52543,89039
1568.5,7653,-13431,52596,89055
1570.5,7590,-13617,52687,89137
1572.5,7529,-13742,52805,89275
1574.5,7357,-13793,52837,89303
1576.5,7308,-13831,52701,89110
1578.5,7601,-13867,52550,88869
1580.5,7961,-13927,52626,88840
1582.5,8142,-13899,52980,89067
1584.5,8420,-13615,53464,89430
1586.5,8892,-13248,54035,89938
1588.5,9053,-13056,54862,90768
1590.5,8805,-12769,55995,91951
1592.5,8809,-11956,57186,93240
1594.5,9249,-10762,58253,94454
1596.5,9586,-9546,59277,95700
1598.5,9786,-8231,60209,97050
1600.5,10251,-6785,60739,98276
1602.5,10721,-5736,60773,99106
1604.5,10752,-5453,60598,99561
1606.5,10632,-5663,60419,99794
1608.5,10633,-6222,60003,99662
1610.5,10441,-7403,58925,98742
1612.5,10003,-9062,57131,96953
1614.5,9630,-10574,55099,94824
1616.5,9141,-11748,53292,92820
1618.5,8258,-12796,51755,90929
1620.5,7465,-13619,50541,89260
1622.5,7311,-14030,49998,88289
1624.5,7493,-14193,50237,88152
1626.5,7487,-14267,50859,88419
1628.5,7340,-14211,51475,88736
1630.5,7334,-14111,52004,89042
1632.5,7447,-14079,52445,89278
1634.5,7487,-14035,52791,89417
1636.5,7486,-14030,53079,89561
1638.5,7637,-14200,53295,89726
1640.5,7813,-14287,53435,89842
1642.5,7655,-13972,53558,89910
1644.5,7374,-13564,53608,89903
1646.5,7552,-13561,53522,89802
1648.5,7910,-13829,53496,89790
1650.5,7680,-13892,53659,89959
1652.5,7228,-13719,53745,90053
1654.5,7458,-13699,53643,89979
1656.5,7963,-13998,53690,90047
1658.5,7843,-14315,53992,90329
1660.5,7481,-14362,54194,90492
1662.48,7543,-14277,54178,90465
1664.45,7594,-14270,54171,90487
1666.43,7317,-14192,54206,90556
1668.4,7346,-13871,54163,90513
1670.4,7822,-13551,54103,90424
1672.4,7999,-13512,54127,90417
1674.4,7740,-13624,54207,90477
1676.4,7662,-13650,54302,90555
1678.4,7891,-13639,54369,90608
1680.4,8043,-13690,54361,90596
1682.4,8024,-13712,54351,90590
1684.4,7986,-13641,54427,90665
1686.4,7986,-13574,54477,90711
1688.4,8004,-13558,54403,90641
1690.4,7917,-13532,54368,90613
1692.4,7650,-13518,54538,90768
1694.4,7467,-13601,54756,90950
1696.4,7630,-13721,54778,90953
1698.4,7880,-13718,54672,90857
1700.4,7864,-13618,54679,90856
1702.4,7754,-13600,54791,90921
1704.4,7819,-13671,54821,90913
1706.4,7895,-13643,54782,90859
1708.4,7849,-13475,54790,90824
1710.4,7884,-13369,54788,90756
1712.4,7994,-13446,54774,90718
1714.4,7850,-13558,54917,90881
1716.4,7450,-13557,55178,91149
1718.4,7145,-13518,55333,91295
1720.4,7171,-13528,55365,91341
1722.4,7601,-13499,55342,91345
1724.4,8192,-13412,55224,91239
1726.4,8221,-13439,55169,91189
1728.4,7473,-13608,55380,91420
1730.4,6907,-13697,55610,91678
1732.4,7217,-13649,55569,91645
1734.4,7753,-13638,55459,91514
1736.4,7861,-13687,55494,91516
1738.4,7834,-13692,55524,91519
1740.4,7931,-13709,55482,91460
1742.4,7943,-13777,55480,91464
1744.4,7836,-13769,55530,91545
1746.4,7699,-13689,55655,91697
1748.4,7514,-13687,55876,91906
1750.4,7493,-13716,55975,91970
1752.4,7796,-13660,55841,91810
1754.4,8001,-13624,55771,91714
1756.4,7858,-13671,55909,91815
1758.4,7838,-13683,56015,91878
1760.4,8066,-13619,56031,91852
1762.4,7977,-13490,56138,91906
1764.4,7596,-13236,56260,91979
1766.4,7622,-12992,56230,91926
1768.4,8033,-13032,56163,91857
1770.4,8191,-13237,56205,91899
1772.4,8123,-13256,56299,91993
1774.4,8207,-13161,56405,92113
1776.4,8258,-13210,56555,92301
1778.4,8124,-13275,56696,92483
1780.4,8229,-13180,56760,92552
1782.4,8638,-13092,56798,92544
1784.4,8715,-13111,56891,92585
1786.4,8307,-13075,57045,92726
1788.4,8093,-13015,57190,92874
1790.4,8366,-13094,57266,92921
1792.4,8592,-13174,57305,92917
1794.4,8493,-13058,57352,92966
1796.4,8533,-12895,57373,93014
1798.4,8907,-12867,57389,93020
1800.4,9036,-12914,57538,93131
1802.4,8652,-12978,57782,93371
1804.4,8407,-13017,57854,93468
1806.4,8703,-12889,57703,93327
1808.4,8948,-12673,57628,93248
1810.4,8711,-12708,57787,93413
1812.4,8479,-12978,57953,93596
1814.4,8588,-13062,57938,93614
1816.4,8623,-12864,57867,93601
1818.4,8429,-12724,57863,93650
1820.4,8447,-12812,57853,93649
1822.4,8636,-12981,57843,93609
1824.4,8370,-13072,57952,93681
1826.4,7722,-13029,58068,93760
1828.4,7504,-12929,57982,93637
1830.4,7875,-12954,57837,93463
1832.4,8238,-13113,57849,93451
1834.4,8449,-13187,57857,93429
1836.4,8642,-13109,57749,93284
1838.4,8382,-13029,57805,93310
1840.4,7512,-12975,58078,93556
1842.4,6973,-12914,58159,93615
1844.4,7371,-13007,57932,93370
1846.4,7957,-13265,57726,93137
1848.4,8080,-13352,57667,93024
1850.4,8077,-13172,57642,92922
1852.4,8153,-13087,57676,92894
1854.4,8012,-13218,57815,93012
1856.4,7744,-13248,57937,93140
1858.4,7737,-13105,57950,93157
1860.4,7938,-13086,57878,93089
1862.4,8050,-13272,57811,93019
1864.4,8032,-13452,57822,93002
1866.4,8012,-13526,57831,92974
1868.4,8033,-13526,57716,92850
1870.4,7965,-13460,57633,92780
1872.4,7682,-13382,57785,92943
1874.4,7378,-13392,57982,93169
1876.4,7399,-13498,57958,93207
1878.4,7701,-13636,57817,93122
1880.4,7925,-13759,57748,93059
1882.4,7912,-13828,57764,93044
1884.4,7763,-13839,57876,93106
1886.4,7675,-13855,58023,93197
1888.4,7802,-13880,58009,93146
1890.4,7938,-13799,57879,93014
1892.4,7680,-13586,57896,93039
1894.4,7225,-13408,58012,93144
1896.4,7214,-13396,57963,93073
1898.4,7620,-13508,57795,92899
1900.4,7763,-13634,57764,92868
1902.4,7521,-13702,57877,92963
1904.4,7492,-13690,57936,92988
1906.4,7905,-13658,57856,92878
1908.4,8191,-13676,57800,92794
1910.4,7844,-13733,57987,92937
1912.4,7213,-13798,58329,93225
1914.4,7038,-13885,58496,93350
1916.4,7365,-13992,58450,93276
1918.4,7600,-14080,58452,93243
1920.4,7616,-14096,58509,93257
1922.4,7841,-13994,58421,93132
1924.4,8167,-13850,58297,92969
1926.4,8003,-13823,58367,92995
1928.4,7498,-13863,58498,93091
1930.4,7404,-13759,58431,93015
1932.4,7719,-13612,58279,92868
1934.4,7860,-13738,58325,92898
1936.4,7901,-14057,58536,93059
1938.4,8180,-14197,58666,93131
1940.4,8226,-14145,58708,93151
1942.4,7607,-14174,58854,93305
1944.4,7012,-14277,59027,93454
1946.4,7144,-14270,58934,93305
1948.4,7563,-14207,58638,92989
1950.4,7670,-14231,58509,92882
1952.4,7660,-14233,58595,92963
1954.4,7792,-14036,58655,92984
1956.4,7875,-13766,58687,93000
1958.4,7832,-13690,58819,93120
1960.4,7859,-13798,58929,93160
1962.4,7941,-13861,58888,93029
1964.4,7868,-13833,58846,92953
1966.4,7634,-13852,58913,93030
1968.4,7502,-13908,58959,93086
1970.4,7677,-13867,58906,93043
1972.4,7976,-13754,58870,93012
1974.4,7973,-13674,58948,93062
1976.4,7662,-13591,59076,93149
1978.4,7576,-13505,59103,93158
1980.4,7893,-13587,58990,93030
1982.4,8067,-13881,58901,92907
1984.4,7787,-14165,58952,92934
1986.4,7482,-14294,59012,93002
1988.4,7468,-14345,58956,92971
1990.4,7552,-14318,58876,92925
1992.4,7730,-14091,58850,92935
1994.4,8157,-13754,58841,92936
1996.4,8408,-13577,58907,92962
1998.4,8027,-13622,59133,93116
2000.4,7508,-13736,59396,93297
2002.4,7474,-13855,59499,93335
2004.4,7600,-13988,59456,93262
2006.4,7470,-14037,59386,93182
2008.4,7446,-13952,59318,93086
2010.4,7762,-13836,59260,92982
2012.4,8007,-13707,59277,92966
2014.4,8009,-13489,59362,93028
2016.4,7989,-13306,59436,93064
2018.4,7819,-13352,59552,93132
2020.4,7338,-13530,59807,93344
2022.4,7034,-13620,60024,93524
2024.4,7324,-13625,59977,93444
2026.4,7769,-13622,59827,93267
2028.4,7847,-13595,59814,93243
2030.4,7745,-13553,59799,93248
2032.4,7756,-13521,59690,93177
2034.4,7747,-13435,59744,93241
2036.4,7664,-13286,59984,93454
2038.4,7731,-13176,60078,93523
2040.4,7919,-13111,60022,93458
2042.4,7946,-13042,60069,93505
2044.4,7864,-13060,60119,93592
2046.4,7930,-13216,59975,93530
2048.4,8043,-13327,59828,93438
2050.4,7997,-13273,59862,93451
2052.4,7972,-13215,59913,93464
2054.4,8152,-13262,59857,93425
2056.4,8269,-13280,59813,93419
2058.4,8095,-13224,59854,93462
2060.4,7899,-13284,59900,93478
2062.4,7941,-13552,59841,93392
2064.4,7988,-13870,59680,93206
2066.4,7735,-14075,59581,93068
2068.4,7342,-14167,59620,93064
2070.4,7268,-14248,59596,93020
2072.4,7614,-14413,59392,92814
2074.4,7937,-14586,59228,92644
2076.4,7901,-14577,59227,92648
2078.4,7763,-14457,59220,92674
2080.4,7794,-14548,59171,92645
2082.4,7776,-14854,59219,92657
2084.4,7570,-15049,59283,92672
2086.4,7462,-15113,59222,92599
2088.4,7541,-15250,59159,92536
2090.4,7557,-15324,59216,92589
2092.4,7515,-15145,59271,92668
2094.4,7611,-14966,59253,92688
2096.4,7651,-15010,59266,92699
2098.4,7372,-15075,59362,92754
2100.4,7094,-15068,59439,92787
2102.4,7299,-15141,59380,92682
2104.4,7793,-15195,59194,92452
2106.4,8019,-15050,59041,92286
2108.4,7937,-14859,59030,92291
2110.4,7855,-14746,59061,92336
2112.4,7745,-14622,59039,92328
2114.4,7521,-14661,59051,92372
2116.4,7522,-15069,59145,92495
2118.4,7903,-15426,59209,92554
2120.4,8177,-15257,59187,92515
2122.4,7985,-14946,59177,92510
2124.4,7607,-15078,59256,92596
2126.4,7397,-15467,59360,92672
2128.4,7432,-15659,59368,92643
2130.4,7692,-15676,59288,92549
2132.4,8038,-15674,59263,92502
2134.4,8244,-15620,59328,92504
2136.4,8247,-15604,59364,92454
2138.4,8086,-15773,59364,92362
2140.4,7840,-15946,59489,92357
2142.4,7818,-15885,59820,92517
2144.4,8215,-15720,60318,92865
2146.4,8667,-15612,60918,93386
2148.4,8840,-15351,61541,94018
2150.4,8974,-14712,62241,94810
2152.4,9194,-13826,63220,95930
2154.4,9236,-12896,64445,97305
2156.4,9285,-11897,65566,98630
2158.4,9816,-10792,66366,99835
2160.4,10454,-9730,66853,100995
2162.4,10482,-8903,66979,101913
2164.4,10203,-8414,66763,102405
2166.4,10280,-8385,66426,102622
2168.4,10409,-8979,65945,102503
2170.4,10126,-10138,64896,101553
2172.4,9839,-11474,63116,99631
2174.4,9771,-12658,61030,97291
2176.4,9316,-13736,59103,95054
2178.4,8336,-14818,57487,93051
2180.4,7538,-15743,56352,91486
2182.4,7212,-16318,55976,90679
2184.4,7138,-16570,56248,90512
2186.4,7385,-16535,56639,90498
2188.4,7873,-16277,56938,90502
2190.4,8006,-16137,57403,90758
2192.4,7715,-16359,58023,91186
2194.4,7614,-16614,58422,91432
2196.4,7774,-16503,58611,91525
2198.4,7777,-16214,58908,91718
2200.4,7761,-16109,59191,91882
2202.4,7980,-16127,59202,91820
2204.4,8051,-16080,59182,91756
2206.4,7782,-16018,59334,91819
2208.4,7689,-15982,59382,91758
2210.4,7893,-15903,59284,91601
2212.4,7855,-15821,59381,91680
2214.4,7576,-15843,59582,91868
2216.4,7610,-15955,59518,91812
2218.4,7896,-16076,59383,91683
2220.4,7939,-16124,59537,91789
2222.4,7830,-16026,59732,91917
2224.4,7920,-15869,59630,91789
2226.4,8027,-15852,59435,91588
2228.4,7846,-16017,59425,91557
2230.4,7566,-16230,59501,91630
2232.4,7506,-16384,59519,91682
2234.4,7596,-16428,59544,91728
2236.4,7592,-16349,59633,91805
2238.4,7536,-16196,59696,91861
2240.4,7665,-16027,59652,91816
2242.4,7926,-15934,59548,91694
2244.4,7999,-16030,59473,91593
2246.4,7912,-16177,59470,91566
2248.4,8001,-16066,59549,91606
2250.4,8182,-15826,59648,91672
2252.4,8045,-15936,59659,91699
2254.4,7646,-16376,59625,91698
2256.4,7437,-16630,59688,91744
2258.4,7556,-16517,59744,91757
2260.4,7774,-16299,59604,91604
2262.4,7911,-16151,59431,91433
2264.4,7976,-16069,59496,91469
2266.4,8042,-16053,59673,91594
2268.4,8059,-16064,59707,91584
2270.4,7906,-16049,59630,91478
2272.4,7727,-16043,59573,91403
2274.4,7807,-16036,59566,91382
2276.4,7973,-15963,59614,91415
2278.4,7812,-15922,59668,91466
2280.4,7520,-16067,59660,91468
2282.4,7650,-16250,59651,91451
2284.4,8054,-16251,59695,91457
2286.4,8035,-16224,59711,91434
2288.4,7556,-16381,59689,91387
2290.4,7374,-16482,59700,91368
2292.4,7763,-16304,59707,91332
2294.4,8032,-16157,59705,91296
2296.4,7823,-16279,59773,91362
2298.4,7810,-16346,59798,91408
2300.4,8263,-16168,59670,91284
2302.4,8232,-16102,59652,91221
2304.4,7383,-16303,59905,91402
2306.4,6970,-16431,60055,91495
2308.4,7641,-16348,59864,91282
2310.4,8200,-16276,59686,91127
2312.4,7810,-16270,59783,91282
2314.4,7345,-16238,59928,91469
2316.4,7554,-16247,59922,91442
2318.4,7910,-16336,59877,91328
2320.4,7965,-16351,59918,91300
2322.4,8045,-16231,60015,91347
2324.4,8240,-16115,60096,91387
2326.4,8192,-16127,60149,91409
2328.4,7950,-16267,60226,91474
2330.4,7869,-16388,60332,91573
2332.4,7877,-16301,60401,91618
2334.4,7783,-16083,60427,91610
2336.4,7868,-16024,60440,91616
2338.4,8294,-16115,60404,91615
2340.4,8601,-16085,60365,91611
2342.4,8533,-15942,60461,91686
2344.4,8495,-15937,60621,91800
2346.4,8607,-16067,60669,91850
2348.4,8497,-16142,60680,91879
2350.4,8333,-16149,60775,91923
2352.4,8592,-16152,60855,91930
2354.4,8864,-16112,60917,91991
2356.4,8533,-16025,61088,92191
2358.4,8113,-15999,61239,92310
2360.4,8280,-16064,61172,92189
2362.4,8577,-16107,61028,92031
2364.4,8538,-16030,60977,91956
2366.4,8644,-15884,60939,91855
2368.4,9079,-15793,60888,91773
2370.4,9202,-15796,60921,91826
2372.4,8875,-15844,60997,91888
2374.4,8673,-15914,61025,91843
2376.4,8689,-15994,61034,91785
2378.4,8609,-16007,61027,91748
2380.4,8568,-15949,60973,91671
2382.4,8749,-15931,60905,91591
2384.4,8811,-15911,60836,91539
2386.4,8558,-15747,60740,91460
2388.4,8344,-15613,60685,91376
2390.4,8333,-15823,60744,91374
2392.4,8267,-16192,60858,91436
2394.4,8166,-16259,60890,91453
2396.4,8310,-16062,60783,91368
2398.4,8505,-15996,60649,91266
2400.4,8321,-16110,60645,91270
2402.4,7966,-16185,60713,91317
2404.4,7968,-16212,60651,91222
2406.4,8203,-16300,60473,90999
2408.4,8161,-16425,60368,90837
2410.4,7907,-16489,60368,90796
2412.4,7932,-16445,60352,90783
2414.4,8278,-16319,60278,90716
2416.4,8451,-16251,60224,90627
2418.4,8116,-16390,60295,90630
2420.4,7564,-16669,60431,90717
2422.4,7403,-16880,60409,90677
2424.4,7748,-16993,60205,90464
2426.4,8076,-17103,60052,90311
2428.4,8069,-17083,60004,90283
2430.4,8020,-16806,59920,90211
2432.4,8153,-16573,59833,90098
2434.4,8274,-16679,59823,90049
2436.4,8212,-16820,59812,90019
2438.4,8027,-16657,59817,89999
2440.4,7883,-16499,59906,90035
2442.4,7945,-16699,59940,90015
2444.4,8093,-17049,59876,89911
2446.4,7956,-17259,59929,89918
2448.4,7637,-17296,60041,89994
2450.4,7688,-17131,59914,89872
2452.4,8053,-16847,59675,89644
2454.4,8070,-16747,59664,89602
2456.4,7714,-16878,59796,89681
2458.4,7644,-16937,59832,89684
2460.4,7975,-16829,59822,89673
2462.4,8094,-16743,59865,89748
2464.4,7755,-16789,59910,89850
2466.4,7453,-16976,59909,89887
2468.4,7581,-17249,59831,89781
2470.4,7849,-17379,59688,89569
2472.4,7854,-17240,59634,89462
2474.4,7755,-17082,59739,89541
2476.4,7897,-17104,59849,89646
2478.4,8139,-17120,59896,89705
2480.4,8142,-17009,59962,89774
2482.4,7971,-17013,60016,89788
2484.4,7855,-17215,59979,89712
2486.4,7797,-17299,59917,89657
2488.4,7721,-17109,59881,89615
2490.4,7595,-16926,59867,89520
2492.4,7401,-16927,59917,89477
2494.4,7364,-16907,59950,89498
2496.4,7784,-16768,59810,89404
2498.4,8374,-16762,59647,89258
2500.4,8486,-16997,59716,89313
2502.4,8147,-17199,59877,89484
2504.4,7974,-17211,59874,89510
2506.4,8100,-17213,59809,89443
2508.4,8115,-17296,59846,89450
2510.4,7923,-17332,59890,89490
2512.4,7800,-17332,59852,89473
2514.4,7833,-17410,59794,89422
2516.4,7910,-17427,59759,89379
2518.4,8017,-17211,59756,89375
2520.4,8143,-16999,59806,89404
2522.4,8153,-17095,59870,89412
2524.4,7976,-17316,59895,89390
2526.4,7757,-17302,59844,89341
2528.4,7727,-17098,59682,89197
2530.4,7914,-16982,59503,88994
2532.4,8065,-16970,59504,88935
2534.4,8014,-16915,59661,89058
2536.4,7926,-16890,59763,89170
2538.4,7911,-17072,59773,89195
2540.4,7881,-17336,59760,89187
2542.4,7928,-17379,59658,89111
2544.4,8123,-17235,59519,88984
2546.4,8091,-17187,59564,88971
2548.4,7742,-17227,59714,89042
2550.4,7752,-17123,59651,88962
2552.4,8234,-16937,59479,88804
2554.4,8223,-16933,59604,88902
2556.4,7543,-17087,59938,89186
2558.4,7388,-17163,59995,89215
2560.4,8103,-17088,59745,88949
2562.4,8531,-16954,59624,88805
2564.4,8174,-16866,59726,88883
2566.4,7859,-16885,59741,88872
2568.4,7992,-16969,59613,88719
2570.4,8101,-16995,59567,88662
2572.4,7990,-16950,59617,88713
2574.4,7865,-16958,59653,88740
2576.4,7768,-17020,59719,88779
2578.4,7731,-16946,59820,88851
2580.4,7844,-16711,59845,88852
2582.4,7941,-16583,59852,88832
2584.4,7917,-16686,59936,88883
2586.4,7997,-16776,59953,88859
2588.4,8160,-16745,59827,88704
2590.4,8072,-16808,59745,88623
2592.4,7862,-16912,59738,88641
2594.4,7949,-16699,59670,88576
2596.4,8157,-16304,59640,88506
2598.4,8063,-16270,59760,88581
2600.4,7864,-16540,59843,88637
2602.4,7925,-16591,59803,88562
2604.4,8072,-16424,59814,88535
2606.4,8083,-16399,59860,88592
2608.4,8120,-16433,59769,88550
2610.4,8223,-16317,59620,88428
2612.4,8187,-16266,59567,88380
2614.4,8083,-16443,59578,88404
2616.4,8156,-16569,59602,88438
2618.4,8302,-16501,59612,88453
2620.4,8242,-16536,59524,88397
2622.4,8018,-16864,59362,88277
2624.4,7870,-17250,59232,88140
2626.4,7855,-17422,59093,87967
2628.4,7848,-17431,58919,87794
2630.4,7819,-17477,58817,87715
2632.4,7876,-17597,58759,87662
2634.4,7978,-17684,58657,87569
2636.4,7931,-17741,58621,87563
2638.4,7796,-17875,58673,87619
2640.4,7822,-18090,58612,87521
2642.4,7921,-18252,58462,87334
2644.4,7844,-18248,58419,87282
2646.4,7727,-18094,58399,87268
2648.4,7774,-17949,58290,87177
2650.4,7808,-17965,58258,87168
2652.4,7738,-18089,58339,87247
2654.4,7820,-18165,58310,87190
2656.4,8014,-18181,58184,87054
2658.4,7893,-18174,58188,87067
2660.4,7466,-18112,58309,87164
2662.4,7264,-18079,58354,87156
2664.4,7468,-18208,58253,87039
2666.4,7723,-18351,58066,86869
2668.4,7836,-18280,57903,86684
2670.4,7924,-18127,57877,86596
2672.4,7921,-18112,57968,86648
2674.4,7664,-18096,58016,86686
2676.4,7377,-17923,57942,86587
2678.4,7417,-17804,57846,86450
2680.4,7705,-17937,57836,86405
2682.4,7890,-18135,57879,86410
2684.4,7819,-18193,57906,86394
2686.4,7566,-18227,57936,86394
2688.4,7310,-18391,57953,86383
2690.4,7299,-18544,57855,86245
2692.4,7606,-18489,57714,86071
2694.4,7962,-18342,57741,86094
2696.4,8122,-18394,57879,86239
2698.4,8161,-18655,57893,86220
2700.4,8188,-18803,57841,86063
2702.38,8118,-18648,57977,86038
2704.35,8010,-18404,58323,86229
2706.33,8134,-18369,58765,86571
2708.3,8433,-18436,59334,87100
2710.3,8520,-18141,60105,87902
2712.3,8453,-17259,61057,88968
2714.3,8722,-16132,62105,90185
2716.3,9303,-15166,63143,91434
2718.3,9713,-14279,64071,92702
2720.3,9999,-13182,64765,93968
2722.3,10523,-11996,65030,94980
2724.3,10957,-11169,64841,95533
2726.3,10721,-10950,64532,95817
2728.3,10123,-11299,64242,95939
2730.3,9894,-12174,63505,95428
2732.3,10006,-13520,61974,93913
2734.3,9909,-15028,60022,91783
2736.3,9428,-16338,58082,89561
2738.3,8742,-17450,56192,87366
2740.3,8034,-18545,54587,85428
2742.3,7559,-19464,53835,84266
2744.3,7478,-19910,54013,83970
2746.3,7603,-20014,54542,84043
2748.3,7726,-20041,54989,84111
2750.3,7848,-19878,55427,84246
2752.3,7867,-19488,55972,84560
2754.3,7700,-19314,56449,84879
2756.3,7635,-19498,56652,84970
2758.3,7862,-19513,56680,84891
2760.3,8040,-19175,56765,84882
2762.3,7926,-19012,56892,84946
2764.3,7783,-19187,56906,84904
2766.3,7814,-19250,56869,84787
2768.3,7865,-19147,56919,84753
2770.3,7783,-19296,57006,84785
2772.3,7605,-19636,57069,84807
2774.3,7484,-19699,57154,84847
2776.3,7540,-19494,57221,84886
2778.3,7604,-19416,57190,84862
2780.3,7471,-19481,57134,84815
2782.3,7401,-19376,57128,84785
2784.3,7688,-19098,57110,84719
2786.3,7966,-18983,57060,84629
2788.3,7813,-19145,57044,84587
2790.3,7556,-19309,57063,84581
2792.3,7644,-19266,57062,84546
2794.3,7846,-19085,57010,84479
2796.3,7735,-18883,56961,84449
2798.3,7386,-18760,57040,84548
2800.3,7183,-18857,57233,84726
2802.3,7261,-19119,57311,84782
2804.3,7401,-19288,57182,84660
2806.3,7431,-19334,57027,84520
2808.3,7503,-19434,56939,84420
2810.3,7692,-19531,56877,84335
2812.3,7696,-19479,56918,84359
2814.3,7467,-19371,57042,84448
2816.3,7536,-19254,57003,84347
2818.3,8039,-19072,56831,84122
2820.3,8265,-19023,56862,84120
2822.3,7857,-19262,57069,84298
2824.3,7461,-19457,57112,84314
2826.3,7584,-19344,56973,84165
2828.3,7854,-19174,56869,84069
2830.3,7880,-19087,56804,84013
2832.3,7866,-18876,56719,83928
2834.3,8015,-18643,56719,83917
2836.3,8088,-18783,56857,84028
2838.3,7869,-19241,57020,84155
2840.3,7553,-19549,57086,84200
2842.3,7451,-19550,57018,84134
2844.3,7597,-19500,56883,83997
2846.3,7778,-19547,56822,83910
2848.3,7790,-19573,56871,83931
2850.3,7648,-19507,56900,83952
2852.3,7562,-19479,56821,83868
2854.3,7659,-19570,56732,83761
2856.3,7837,-19611,56736,83755
2858.3,8003,-19468,56758,83779
2860.3,8118,-19323,56697,83701
2862.3,8043,-19400,56623,83589
2864.3,7810,-19546,56637,83570
2866.3,7800,-19439,56662,83580
2868.3,8098,-19136,56613,83530
2870.3,8234,-19000,56556,83480
2872.3,7988,-19124,56536,83462
2874.3,7653,-19277,56533,83441
2876.3,7420,-19329,56613,83487
2878.3,7393,-19304,56764,83593
2880.3,7775,-19165,56783,83559
2882.3,8244,-18957,56678,83395
2884.3,8111,-18919,56724,83385
2886.3,7611,-19095,56886,83507
2888.3,7660,-19207,56836,83444
2890.3,8240,-19092,56624,83233
2892.3,8517,-18896,56616,83222
2894.3,8316,-18808,56851,83439
2896.3,8136,-18892,57050,83601
2898.3,8152,-19039,57093,83590
2900.3,8204,-19023,57086,83544
2902.3,8300,-18874,57120,83573
2904.3,8469,-18922,57159,83607
2906.3,8495,-19151,57153,83573
2908.3,8237,-19109,57189,83584
2910.3,7990,-18782,57334,83707
2912.3,8135,-18696,57418,83743
2914.3,8495,-18948,57346,83617
2916.3,8561,-19107,57340,83605
2918.3,8345,-19058,57476,83768
2920.3,8329,-19032,57494,83792
2922.3,8593,-19024,57374,83657
2924.3,8805,-18891,57378,83658
2926.3,8894,-18685,57418,83706
2928.3,8956,-18531,57236,83518
2930.3,8870,-18478,57038,83300
2932.3,8640,-18529,57132,83398
2934.3,8549,-18600,57343,83666
2936.3,8683,-18605,57366,83764
2938.3,8862,-18596,57215,83646
2940.3,8992,-18610,57059,83477
2942.3,9009,-18570,57017,83417
2944.3,8844,-18489,57068,83457
2946.3,8667,-18510,57029,83387
2948.3,8642,-18657,56860,83172
2950.3,8601,-18792,56802,83086
2952.3,8465,-18826,56904,83187
2954.3,8428,-18824,56895,83174
2956.3,8408,-18893,56746,83014
2958.3,8135,-19027,56707,82975
2960.3,7813,-19099,56753,83028
2962.3,7852,-19037,56669,82919
2964.3,8161,-18944,56470,82672
2966.3,8339,-18938,56304,82485
2968.3,8200,-18970,56228,82429
2970.3,7882,-18931,56223,82444
2972.3,7745,-18886,56151,82377
2974.3,7974,-18980,55897,82137
2976.3,8213,-19125,55679,81947
2978.3,8107,-19093,55765,82061
2980.3,7929,-18973,55932,82249
2982.3,8013,-19081,55808,82142
2984.3,8107,-19351,55531,81879
2986.3,7948,-19441,55454,81812
2988.3,7764,-19410,55509,81866
2990.3,7763,-19544,55420,81773
2992.3,7825,-19668,55259,81619
2994.3,7895,-19470,55271,81643
2996.3,8027,-19184,55412,81770
2998.3,8068,-19166,55464,81784
3000.3,7904,-19246,55403,81689
3002.3,7806,-19178,55321,81587
3004.3,7961,-19131,55241,81496
3006.3,8065,-19224,55183,81432
3008.3,7917,-19266,55168,81405
3010.3,7844,-19236,55132,81345
3012.3,8028,-19323,55057,81253
3014.3,8156,-19409,55035,81226
3016.3,8067,-19272,55074,81257
3018.3,7919,-19170,55120,81280
3020.3,7736,-19439,55183,81310
3022.3,7563,-19786,55185,81269
3024.3,7604,-19791,55021,81061
3026.3,7706,-19658,54876,80892
3028.3,7563,-19693,54936,80958
3030.3,7413,-19689,54982,81017
3032.3,7522,-19516,54855,80885
3034.3,7586,-19480,54800,80803
3036.3,7498,-19627,54879,80852
3038.3,7598,-19611,54850,80801
3040.3,7799,-19426,54757,80694
3042.3,7770,-19325,54775,80707
3044.3,7723,-19227,54752,80685
3046.3,7897,-19049,54621,80545
3048.3,8012,-19090,54623,80516
3050.3,7880,-19432,54763,80621
3052.3,7664,-19665,54816,80660
3054.3,7544,-19562,54801,80654
3056.3,7685,-19360,54780,80658
3058.3,8016,-19281,54674,80574
3060.3,8065,-19350,54591,80478
3062.3,7744,-19526,54684,80525
3064.3,7588,-19673,54759,80574
3066.3,7693,-19646,54639,80460
3068.3,7644,-19516,54487,80315
3070.3,7575,-19463,54448,80272
3072.3,7826,-19510,54490,80323
3074.3,8001,-19579,54596,80437
3076.3,7714,-19645,54662,80480
3078.3,7398,-19701,54574,80355
3080.3,7452,-19681,54517,80279
3082.3,7666,-19548,54652,80404
3084.3,7886,-19403,54713,80447
3086.3,8111,-19423,54543,80259
3088.3,8112,-19621,54434,80137
3090.3,7880,-19733,54488,80180
3092.3,7800,-19556,54435,80117
3094.3,7847,-19320,54286,79962
3096.3,7732,-19393,54285,79957
3098.3,7820,-19624,54292,79958
3100.3,8333,-19556,54118,79776
3102.3,8288,-19270,54099,79732
3104.3,7180,-19242,54443,80043
3106.3,6475,-19410,54638,80217
3108.3,7342,-19317,54310,79870
3110.3,8554,-19066,53929,79439
3112.3,8597,-19101,53955,79400
3114.3,7982,-19314,54119,79534
3116.3,7830,-19309,54096,79520
3118.3,8091,-19132,54020,79439
3120.3,8265,-19026,54017,79394
3122.3,8294,-19017,54021,79352
3124.3,8219,-19098,54066,79379
3126.3,8061,-19221,54135,79445
3128.3,7966,-19159,54037,79350
3130.3,7940,-18909,53840,79172
3132.3,7916,-18855,53837,79191
3134.3,8011,-19114,53980,79332
3136.3,8144,-19326,54037,79373
3138.3,7965,-19279,54074,79412
3140.3,7607,-19116,54160,79520
3142.3,7610,-18939,54122,79506
3144.3,7958,-18742,53974,79381
3146.3,8157,-18625,53953,79384
3148.3,8091,-18660,54042,79486
3150.3,7973,-18714,54059,79498
3152.3,7875,-18676,54017,79451
3154.3,7802,-18646,53984,79423
3156.3,7762,-18722,53951,79395
3158.3,7667,-18840,53965,79410
3160.3,7598,-18898,54001,79463
3162.3,7826,-18851,53886,79384
3164.3,8251,-18706,53655,79174
3166.3,8385,-18565,53593,79104
3168.3,8085,-18538,53758,79255
3170.3,7742,-18573,53889,79388
3172.3,7740,-18585,53824,79338
3174.3,8058,-18659,53659,79203
3176.3,8294,-18840,53551,79129
3178.3,8126,-18973,53541,79126
3180.3,7886,-18994,53494,79055
3182.3,8124,-19057,53274,78812
3184.3,8555,-19210,52983,78515
3186.3,8490,-19333,52859,78379
3188.3,8092,-19429,52903,78409
3190.3,7907,-19621,52911,78420
3192.3,7762,-19909,52817,78327
3194.3,7489,-20200,52721,78208
3196.3,7607,-20416,52658,78118
3198.3,8161,-20436,52571,78026
3200.3,8354,-20203,52474,77931
3202.3,7988,-19959,52435,77879
3204.3,7727,-20000,52418,77848
3206.3,7874,-20188,52314,77735
3208.3,8168,-20188,52145,77551
3210.3,8345,-20091,52067,77455
3212.3,8127,-20222,52116,77497
3214.3,7492,-20443,52153,77528
3216.3,7053,-20389,52106,77467
3218.3,7267,-20215,52035,77392
3220.3,7681,-20365,51973,77337
3222.3,7763,-20725,51928,77277
3224.3,7695,-20771,51952,77257
3226.3,7743,-20453,52017,77285
3228.3,7711,-20261,52004,77262
3230.3,7495,-20378,51916,77175
3232.3,7427,-20428,51860,77106
3234.3,7668,-20202,51847,77054
3236.3,7836,-20026,51833,76991
3238.3,7669,-20130,51820,76955
3240.3,7526,-20238,51785,76925
3242.3,7739,-20132,51705,76855
3244.3,8022,-20014,51648,76795
3246.3,8057,-20009,51629,76771
3248.3,7995,-19946,51576,76716
3250.3,7977,-19877,51526,76660
3252.3,7905,-20082,51543,76674
3254.3,7849,-20469,51488,76623
3256.3,7945,-20680,51258,76384
3258.3,8003,-20723,51081,76160
3260.3,7879,-20847,51194,76178
3262.3,7848,-20989,51474,76336
3264.3,8145,-20909,51740,76494
3266.3,8593,-20613,52093,76795
3268.3,8922,-20263,52677,77372
3270.3,9085,-19863,53421,78145
3272.3,9179,-19217,54292,79105
3274.3,9283,-18184,55417,80381
3276.3,9455,-16902,56700,81854
3278.3,9766,-15653,57737,83198
3280.3,10188,-14511,58311,84334
3282.3,10496,-13455,58561,85340
3284.3,10495,-12789,58630,86111
3286.3,10304,-12877,58533,86518
3288.3,10230,-13533,58184,86522
3290.3,10425,-14289,57288,85858
3292.3,10681,-15159,55650,84305
3294.3,10543,-16443,53610,82228
3296.3,9825,-17961,51612,80095
3298.3,8905,-19227,49729,77924
3300.3,8198,-20136,48166,75913
3302.3,7763,-20820,47451,74690
3304.3,7645,-21194,47587,74343
3306.3,7858,-21225,47967,74291
3308.3,8070,-21153,48322,74297
3310.3,8049,-21088,48797,74521
3312.3,7983,-20957,49321,74844
3314.3,7907,-20889,49715,75051
3316.3,7686,-21011,50011,75204
3318.3,7599,-21082,50229,75324
3320.3,7861,-20952,50339,75334
3322.3,8004,-20894,50436,75328
3324.3,7722,-21020,50534,75358
3326.3,7479,-21052,50478,75276
3328.3,7666,-20915,50297,75081
3330.3,8035,-20798,50182,74959
3332.3,8186,-20672,50172,74946
3334.3,7996,-20480,50228,74982
3336.3,7716,-20456,50348,75067
3338.3,7762,-20653,50421,75119
3340.3,8078,-20716,50349,75032
3342.3,8157,-20557,50271,74914
3344.3,7937,-20536,50296,74878
3346.3,7834,-20770,50276,74808
3348.3,7850,-20919,50148,74654
3350.3,7711,-20767,50075,74573
3352.3,7624,-20500,50084,74577
3354.3,7849,-20411,50055,74533
3356.3,8030,-20566,50055,74517
3358.3,7841,-20785,50196,74668
3360.3,7660,-20874,50318,74802
3362.3,7860,-20821,50242,74698
3364.3,8091,-20713,50081,74497
3366.3,7916,-20597,49969,74387
3368.3,7609,-20562,49848,74287
3370.3,7665,-20684,49730,74153
3372.3,7964,-20820,49743,74133
3374.3,8063,-20710,49827,74210
3376.3,7996,-20404,49821,74213
3378.3,8070,-20295,49798,74180
3380.3,8175,-20589,49886,74242
3382.3,8011,-20953,49971,74291
3384.3,7726,-20956,49945,74214
3386.3,7664,-20705,49928,74142
3388.3,7796,-20636,49957,74139
3390.3,7955,-20776,49874,74044
3392.3,8241,-20739,49690,73843
3394.3,8647,-20441,49617,73758
3396.3,8772,-20230,49712,73853
3398.3,8459,-20278,49845,73966
3400.3,8193,-20381,49913,73987
3402.3,8305,-20425,49885,73935
3404.3,8386,-20549,49803,73876
3406.3,8077,-20762,49769,73868
3408.3,7757,-20833,49769,73873
3410.3,7841,-20701,49699,73803
3412.3,8075,-20598,49608,73707
3414.3,8118,-20630,49629,73713
3416.3,8118,-20635,49742,73818
3418.3,8216,-20570,49843,73920
3420.3,8241,-20597,49869,73936
3422.3,8192,-20725,49772,73815
3424.3,8294,-20778,49604,73629
3426.3,8456,-20729,49527,73542
3428.3,8378,-20689,49565,73570
3430.3,8132,-20682,49584,73577
3432.3,8069,-20657,49562,73538
3434.3,8248,-20612,49584,73538
3436.3,8372,-20575,49651,73585
3438.3,8254,-20572,49723,73625
3440.3,8104,-20584,49783,73637
3442.3,8194,-20557,49780,73600
3444.3,8405,-20534,49680,73510
3446.3,8442,-20564,49560,73410
3448.3,8307,-20516,49528,73365
3450.3,8178,-20313,49599,73401
3452.3,8153,-20189,49675,73444
3454.3,8309,-20268,49665,73392
3456.3,8585,-20282,49651,73311
3458.3,8720,-20118,49749,73337
3460.3,8656,-20062,49839,73394
3462.3,8552,-20216,49812,73363
3464.3,8385,-20341,49839,73368
3466.3,8206,-20365,49980,73461
3468.3,8329,-20417,49987,73438
3470.3,8642,-20445,49870,73321
3472.3,8667,-20337,49956,73398
3474.3,8562,-20184,50185,73591
3476.3,8776,-20097,50197,73580
3478.3,9011,-20034,50058,73450
3480.3,8869,-19989,50047,73462
3482.3,8741,-20015,50093,73515
3484.3,8905,-20042,50069,73486
3486.3,8886,-19997,50105,73529
3488.3,8536,-20011,50185,73644
3490.3,8444,-20138,50104,73604
3492.3,8773,-20149,49935,73450
3494.3,8941,-19954,49895,73403
3496.3,8740,-19808,49871,73382
3498.3,8623,-19778,49673,73208
3500.3,8739,-19634,49487,73039
3502.3,8690,-19469,49552,73111
3504.3,8398,-19631,49698,73269
3506.3,8339,-19969,49620,73200
3508.3,8728,-20040,49367,72926
3510.3,9136,-19908,49204,72731
3512.3,9080,-19913,49202,72734
3514.3,8696,-19969,49224,72782
3516.3,8618,-19829,49152,72727
3518.3,9052,-19626,48988,72586
3520.3,9282,-19620,48850,72494
3522.3,8759,-19770,48879,72545
3524.3,8173,-19872,48999,72641
3526.3,8313,-19839,48962,72575
3528.3,8695,-19774,48759,72352
3530.3,8581,-19848,48664,72222
3532.3,8264,-20063,48756,72296
3534.3,8200,-20221,48815,72388
3536.3,8224,-20255,48702,72319
3538.3,8275,-20294,48490,72116
3540.3,8461,-20349,48319,71939
3542.3,8416,-20334,48295,71917
3544.3,7996,-20357,48365,71962
3546.3,7902,-20528,48303,71842
3548.3,8402,-20668,48056,71564
3550.3,8686,-20584,47893,71425
3552.3,8391,-20366,47960,71519
3554.3,8192,-20180,48052,71600
3556.3,8347,-20101,48002,71530
3558.3,8369,-20167,47916,71443
3560.3,8320,-20255,47897,71430
3562.3,8674,-20156,47892,71416
3564.3,9026,-20004,47891,71386
3566.3,8666,-20141,47963,71415
3568.3,8018,-20455,48056,71465
3570.3,7930,-20526,48000,71390
3572.3,8228,-20393,47775,71172
3574.3,8328,-20383,47577,70983
3576.3,8360,-20389,47571,70978
3578.3,8546,-20163,47690,71101
3580.3,8551,-19967,47735,71144
3582.3,8307,-20083,47597,70987
3584.3,8295,-20220,47406,70778
3586.3,8502,-20138,47414,70785
3588.3,8365,-20142,47617,70983
3590.3,8009,-20361,47669,71014
3592.3,8135,-20415,47436,70769
3594.3,8608,-20228,47267,70607
3596.3,8677,-20220,47387,70721
3598.3,8424,-20472,47503,70799
3600.3,8406,-20614,47412,70669
3602.3,8365,-20596,47349,70611
3604.3,7950,-20648,47423,70721
3606.3,7788,-20653,47420,70723
3608.3,8292,-20396,47330,70569
3610.3,8708,-20138,47339,70493
3612.3,8584,-20194,47365,70484
3614.3,8543,-20332,47242,70366
3616.3,8761,-20232,47122,70232
3618.3,8627,-20072,47202,70285
3620.3,8259,-20140,47330,70437
3622.3,8369,-20326,47258,70434
3624.3,8721,-20383,47067,70289
3626.3,8549,-20303,47059,70270
3628.3,8081,-20213,47233,70400
3630.3,8072,-20134,47235,70352
3632.3,8460,-19992,46997,70061
3634.3,8702,-19817,46897,69916
3636.3,8696,-19838,47054,70037
3638.3,8566,-20178,47134,70076
3640.3,8340,-20530,47054,69954
3642.3,8244,-20524,47058,69924
3644.3,8475,-20315,47097,69929
3646.3,8664,-20284,46984,69783
3648.3,8421,-20348,46900,69691
3650.3,8074,-20236,47018,69816
3652.3,8036,-20128,47106,69887
3654.3,8110,-20330,46986,69730
3656.3,8119,-20619,46838,69570
3658.3,8282,-20588,46813,69558
3660.3,8491,-20328,46845,69589
3662.3,8329,-20221,46845,69570
3664.3,7968,-20339,46802,69505
3666.3,7967,-20431,46756,69442
3668.3,8347,-20305,46752,69433
3670.3,8695,-20035,46759,69458
3672.3,8769,-19879,46773,69497
3674.3,8571,-19961,46885,69613
3676.3,8332,-20108,47038,69752
3678.3,8329,-20165,47041,69734
3680.3,8434,-20223,46948,69608
3682.3,8360,-20319,46957,69572
3684.3,8279,-20296,46966,69555
3686.3,8384,-20158,46818,69425
3688.3,8336,-20098,46701,69357
3690.3,7972,-20108,46788,69473
3692.3,7803,-20042,46880,69539
3694.3,8162,-19928,46787,69391
3696.3,8664,-19820,46633,69209
3698.3,8828,-19674,46594,69174
3700.3,8621,-19581,46663,69231
3702.3,8380,-19628,46703,69245
3704.3,8420,-19596,46617,69157
3706.3,8583,-19349,46482,69027
3708.3,8474,-19189,46495,69010
3710.3,8291,-19305,46668,69141
3712.3,8552,-19459,46760,69228
3714.3,8951,-19522,46676,69155
3716.3,8749,-19576,46646,69107
3718.3,8224,-19478,46797,69233
3720.3,8256,-19168,46858,69307
3722.3,8773,-19054,46622,69095
3724.3,9007,-19352,46354,68826
3726.3,8849,-19617,46340,68810
3728.3,8738,-19512,46422,68913
3730.3,8789,-19328,46344,68861
3732.3,8853,-19353,46175,68712
3734.3,8876,-19430,46086,68659
3736.3,8788,-19416,46066,68684
3738.3,8623,-19514,46008,68630
3740.3,8629,-19872,45830,68403
3742.3,8770,-20236,45585,68115
3744.3,8687,-20311,45442,67980
3746.3,8535,-20254,45368,67931
3748.3,8777,-20400,45178,67727
3750.3,8968,-20697,45046,67545
3752.3,8308,-20908,45266,67724
3754.3,7416,-21071,45549,67982
3756.3,7571,-21246,45433,67847
3758.3,8452,-21236,45111,67536
3760.3,8751,-21013,44981,67464
3762.3,8429,-20881,44958,67503
3764.3,8329,-20924,44883,67440
3766.3,8468,-20916,44843,67375
3768.3,8411,-20883,44811,67329
3770.3,8306,-21010,44700,67234
3772.3,8379,-21125,44650,67218
3774.3,8410,-21004,44734,67314
3776.3,8268,-20909,44785,67323
3778.3,8157,-21106,44740,67195
3780.3,8217,-21325,44671,67067
3782.3,8365,-21292,44578,66971
3784.3,8456,-21183,44480,66892
3786.3,8468,-21146,44445,66862
3788.3,8494,-21069,44448,66862
3790.3,8487,-21001,44468,66884
3792.3,8333,-21097,44545,66958
3794.3,8202,-21214,44598,67002
3796.3,8270,-21184,44550,66952
3798.3,8317,-21148,44499,66908
3800.3,8283,-21212,44456,66865
3802.3,8495,-21244,44300,66679
3804.3,8784,-21215,44168,66484
3806.3,8582,-21239,44271,66530
3808.3,8161,-21314,44366,66610
3810.3,8256,-21446,44110,66359
3812.3,8623,-21713,43725,65951
3814.3,8589,-21967,43659,65817
3816.3,8381,-21943,43908,65974
3818.3,8485,-21725,44210,66179
3820.3,8682,-21577,44549,66435
3822.3,8808,-21441,45045,66903
3824.3,9245,-21048,45661,67590
3826.3,9950,-20267,46375,68466
3828.3,10259,-19157,47373,69629
3830.3,10065,-17963,48704,71083
3832.3,10083,-16928,49982,72570
3834.3,10663,-15888,50804,73868
3836.3,11288,-14579,51186,74977
3838.3,11445,-13428,51316,75855
3840.3,11297,-13139,51272,76379
3842.3,11237,-13540,51105,76554
3844.3,11304,-13996,50665,76289
3846.3,11258,-14701,49536,75269
3848.3,10936,-16192,47707,73536
3850.3,10399,-17958,45729,71569
3852.3,9813,-19042,43847,69502
3854.3,9250,-19625,41966,67247
3856.3,8721,-20507,40545,65352
3858.3,8355,-21507,40247,64523
3860.3,8233,-21817,40788,64531
3862.3,8177,-21515,41319,64656
3864.3,8085,-21400,41609,64704
3866.3,8119,-21691,41967,64840
3868.3,8278,-21913,42456,65040
3870.3,8336,-21822,42825,65166
3872.3,8321,-21636,42942,65187
3874.3,8414,-21530,42964,65172
3876.3,8531,-21457,43064,65204
3878.3,8519,-21369,43170,65251
3880.3,8398,-21306,43158,65232
3882.3,8193,-21340,43118,65192
3884.3,8023,-21473,43129,65172
3886.3,8152,-21567,43075,65083
3888.3,8465,-21495,42932,64933
3890.3,8495,-21381,42859,64865
3892.3,8271,-21413,42888,64887
3894.3,8259,-21503,42921,64891
3896.3,8419,-21476,42912,64853
3898.3,8383,-21393,42852,64785
3900.3,8273,-21381,42774,64707
3902.3,8385,-21389,42792,64722
3904.3,8546,-21357,42907,64840
3906.3,8516,-21336,42937,64874
3908.3,8379,-21339,42828,64749
3910.3,8214,-21328,42735,64636
3912.3,8104,-21329,42744,64648
3914.3,8272,-21393,42793,64708
3916.3,8579,-21486,42843,64753
3918.3,8530,-21499,42884,64793
3920.3,8203,-21350,42851,64772
3922.3,8189,-21122,42702,64603
3924.3,8402,-21060,42550,64389
3926.3,8203,-21292,42553,64357
3928.3,7732,-21599,42647,64482
3930.3,7762,-21600,42612,64495
3932.3,8290,-21216,42499,64369
3934.3,8594,-20811,42561,64336
3936.3,8563,-20731,42733,64385
3938.3,8696,-20918,42742,64305
3940.3,8931,-21158,42645,64171
3942.3,8696,-21365,42658,64169
3944.3,8040,-21427,42712,64209
3946.3,7641,-21254,42684,64171
3948.3,7798,-21062,42640,64118
3950.3,8191,-21096,42590,64054
3952.3,8439,-21226,42496,63947
3954.3,8436,-21302,42484,63929
3956.3,8347,-21459,42585,64028
3958.3,8391,-21680,42603,64042
3960.3,8516,-21695,42506,63954
3962.28,8488,-21530,42483,63956
3964.25,8288,-21479,42567,64060
3966.23,8074,-21534,42660,64152
3968.2,7921,-21486,42717,64205
3970.2,7950,-21384,42669,64165
3972.2,8248,-21347,42501,64005
3974.2,8502,-21275,42398,63898
3976.2,8348,-21147,42459,63955
3978.2,8050,-21141,42539,64035
3980.2,8095,-21242,42529,64017
3982.2,8337,-21223,42466,63934
3984.2,8282,-21137,42381,63840
3986.2,7980,-21230,42336,63794
3988.2,7974,-21387,42380,63815
3990.2,8402,-21281,42430,63819
3992.2,8690,-21000,42473,63829
3994.2,8390,-20910,42612,63969
3996.2,7912,-21050,42731,64103
3998.2,7908,-21175,42612,63983
4000.2,8245,-21195,42389,63739
4002.2,8332,-21173,42326,63647
4004.2,8184,-21132,42363,63660
4006.2,8287,-21079,42350,63645
4008.2,8566,-21048,42383,63682
4010.2,8480,-21057,42557,63823
4012.2,8174,-21107,42726,63914
4014.2,8397,-21151,42732,63843
4016.2,8997,-21106,42680,63731
4018.2,8899,-21053,42789,63776
4020.2,8084,-21167,42995,63917
4022.2,7864,-21314,42986,63878
4024.2,8586,-21173,42755,63646
4026.2,9101,-20829,42654,63539
4028.2,8942,-20656,42764,63642
4030.2,8838,-20658,42836,63705
4032.2,8992,-20533,42842,63669
4034.2,8973,-20280,42924,63681
4036.2,8905,-20166,43006,63734
4038.2,9018,-20273,43020,63786
4040.2,8991,-20447,43074,63882
4042.2,8785,-20519,43112,63922
4044.2,8814,-20420,42984,63776
4046.2,8976,-20214,42829,63609
4048.2,8970,-20040,42823,63601
4050.2,9073,-19959,42841,63636
4052.2,9374,-19962,42784,63614
4054.2,9354,-20041,42757,63611
4056.2,9031,-20153,42759,63588
4058.2,9000,-20225,42675,63442
4060.2,9155,-20257,42557,63283
4062.2,8970,-20298,42504,63239
4064.2,8685,-20346,42461,63215
4066.2,8704,-20361,42368,63112
4068.2,8681,-20348,42304,63022
4070.2,8357,-20376,42329,63030
4072.2,8221,-20472,42353,63041
4074.2,8525,-20518,42255,62936
4076.2,8749,-20415,42110,62795
4078.2,8526,-20327,42106,62774
4080.2,8178,-20466,42190,62806
4082.2,8121,-20705,42112,62692
4084.2,8351,-20755,41880,62468
4086.2,8560,-20621,41728,62331
4088.2,8566,-20531,41699,62291
4090.2,8522,-20605,41682,62253
4092.2,8580,-20768,41684,62239
4094.2,8575,-20842,41709,62254
4096.2,8397,-20723,41643,62199
4098.2,8275,-20556,41468,62052
4100.2,8276,-20523,41311,61912
4102.2,8133,-20541,41261,61866
4104.2,7913,-20533,41293,61907
4106.2,8063,-20692,41307,61931
4108.2,8560,-21041,41251,61870
4110.2,8847,-21258,41223,61839
4112.2,8672,-21272,41301,61924
4114.2,8354,-21320,41349,61966
4116.2,8287,-21323,41237,61832
4118.2,8526,-21023,41085,61672
4120.2,8754,-20672,41056,61637
4122.2,8658,-20716,41115,61663
4124.2,8423,-21022,41126,61650
4126.2,8423,-21159,41030,61593
4128.2,8479,-21099,40935,61566
4130.2,8208,-21068,40967,61626
4132.2,7898,-21077,41024,61675
4134.2,8016,-21030,40940,61582
4136.2,8287,-20962,40831,61451
4138.2,8293,-20930,40851,61441
4140.2,8244,-20938,40883,61473
4142.2,8312,-21038,40845,61463
4144.2,8221,-21228,40854,61463
4146.2,8019,-21302,40877,61426
4148.2,8050,-21146,40806,61313
4150.2,8174,-20965,40760,61274
4152.2,8117,-20908,40796,61318
4154.2,8047,-20837,40776,61292
4156.2,7999,-20735,40764,61295
4158.2,7774,-20767,40883,61438
4160.2,7676,-20860,40923,61452
4162.2,8061,-20829,40759,61215
4164.2,8464,-20810,40653,61055
4166.2,8426,-20958,40708,61070
4168.2,8301,-21068,40719,61008
4170.2,8313,-20983,40686,60901
4172.2,8121,-20889,40741,60941
4174.2,7778,-20912,40776,60986
4176.2,7763,-20918,40684,60878
4178.2,8043,-20811,40582,60765
4180.2,8211,-20650,40570,60766
4182.2,8212,-20553,40617,60806
4184.2,8202,-20599,40665,60817
4186.2,8198,-20719,40655,60796
4188.2,8177,-20776,40621,60784
4190.2,8143,-20760,40630,60827
4192.2,8145,-20713,40583,60827
4194.2,8261,-20631,40421,60694
4196.2,8378,-20600,40368,60599
4198.2,8268,-20690,40496,60657
4200.2,8043,-20721,40512,60662
4202.2,8019,-20599,40349,60527
4204.2,8157,-20611,40305,60483
4206.2,8220,-20884,40420,60589
4208.2,8246,-21032,40432,60581
4210.2,8388,-20806,40288,60357
4212.2,8540,-20551,40157,60140
4214.2,8428,-20592,40160,60177
4216.2,8011,-20740,40306,60423
4218.2,7731,-20740,40420,60559
4220.2,8004,-20707,40319,60426
4222.2,8404,-20781,40192,60307
4224.2,8194,-20768,40332,60438
4226.2,7701,-20519,40534,60542
4228.2,7885,-20297,40430,60349
4230.2,8606,-20347,40154,60105
4232.2,8805,-20446,40081,60129
4234.2,8282,-20342,40229,60326
4236.2,7875,-20208,40342,60427
4238.2,8048,-20239,40282,60320
4240.2,8403,-20272,40128,60085
4242.2,8500,-20185,40052,59927
4244.2,8377,-20127,40117,59962
4246.2,8243,-20123,40210,60076
4248.2,8174,-20003,40239,60108
4250.2,8203,-19833,40236,60050
4252.2,8322,-19841,40235,59962
4254.2,8375,-19939,40234,59882
4256.2,8252,-19879,40225,59836
4258.2,8127,-19732,40179,59808
4260.2,8144,-19720,40103,59771
4262.2,8159,-19797,40083,59738
4264.2,8071,-19797,40130,59729
4266.2,7988,-19743,40164,59748
4268.2,7896,-19712,40178,59819
4270.2,7692,-19680,40223,59925
4272.2,7575,-19661,40241,59969
4274.2,7824,-19709,40137,59882
4276.2,8259,-19738,39962,59710
4278.2,8435,-19667,39865,59585
4280.2,8293,-19635,39883,59600
4282.2,8202,-19758,39881,59664
4284.2,8374,-19846,39764,59605
4286.2,8584,-19735,39626,59455
4288.2,8553,-19626,39571,59375
4290.2,8349,-19733,39541,59349
4292.2,8238,-19951,39462,59248
4294.2,8300,-20161,39318,59069
4296.2,8326,-20445,39120,58908
4298.2,8102,-20774,38993,58834
4300.2,7806,-20927,39018,58802
4302.2,7842,-20863,38982,58663
4304.2,8153,-20805,38754,58447
4306.2,8207,-20902,38646,58421
4308.2,7897,-21052,38812,58595
4310.2,7704,-21115,38903,58643
4312.2,7826,-21134,38776,58518
4314.2,7959,-21214,38689,58448
4316.2,7952,-21302,38669,58415
4318.2,7929,-21310,38577,58315
4320.2,7994,-21314,38502,58241
4322.2,8179,-21350,38462,58162
4324.2,8302,-21289,38345,58004
4326.2,8071,-21164,38317,57973
4328.2,7763,-21154,38428,58068
4330.2,7942,-21176,38320,57909
4332.2,8234,-21107,38033,57621
4334.2,7881,-21196,38065,57724
4336.2,7414,-21505,38287,57988
4338.2,7765,-21562,38160,57850
4340.2,8291,-21256,37917,57600
4342.2,7928,-21133,38082,57759
4344.2,7267,-21351,38392,58036
4346.2,7356,-21499,38404,58018
4348.2,7832,-21557,38297,57911
4350.2,7945,-21751,38298,57920
4352.2,7889,-21775,38255,57883
4354.2,8026,-21373,38105,57723
4356.2,8164,-21064,38014,57586
4358.2,8079,-21276,38051,57569
4360.2,7875,-21586,38099,57611
4362.2,7831,-21554,37976,57518
4364.2,8127,-21451,37663,57207
4366.2,8454,-21640,37454,56962
4368.2,8334,-21962,37582,57036
4370.2,8028,-22080,37848,57229
4372.2,8186,-21920,38055,57353
4374.2,8631,-21571,38379,57621
4376.2,8782,-21099,38941,58178
4378.2,8870,-20535,39614,58914
4380.2,9363,-19816,40433,59903
4382.2,9932,-18793,41536,61265
4384.2,10213,-17523,42726,62735
4386.2,10557,-16293,43695,64051
4388.2,11041,-15194,44448,65368
4390.2,11039,-14116,45037,66695
4392.2,10584,-13304,45251,67565
4394.2,10594,-13224,44979,67734
4396.2,11172,-13825,44444,67487
4398.2,11317,-14661,43706,66911
4400.2,10741,-15625,42454,65677
4402.2,10261,-16857,40589,63755
4404.2,10088,-18183,38525,61562
4406.2,9461,-19327,36687,59395
4408.2,8268,-20319,35270,57449
4410.2,7460,-21192,34510,56140
4412.2,7547,-21709,34506,55656
4414.2,7957,-21812,34868,55593
4416.2,8090,-21861,35185,55593
4418.2,8019,-22040,35521,55747
4420.2,7973,-22037,35990,56056
4422.2,7936,-21703,36383,56239
4424.2,7874,-21423,36571,56258
4426.2,7855,-21464,36698,56320
4428.2,7863,-21596,36836,56445
4430.2,7788,-21648,36935,56531
4432.2,7619,-21767,36984,56557
4434.2,7487,-21938,36946,56471
4436.2,7512,-21914,36810,56267
4438.2,7655,-21700,36726,56141
4440.2,7746,-21544,36804,56213
4442.2,7704,-21506,36940,56330
4444.2,7680,-21446,36998,56341
4446.2,7840,-21320,36955,56270
4448.2,8065,-21235,36889,56208
4450.2,8082,-21297,36937,56251
4452.2,7863,-21482,37071,56359
4454.2,7665,-21596,37029,56298
4456.2,7642,-21467,36763,56026
4458.2,7709,-21242,36586,55861
4460.2,7796,-21216,36638,55960
4462.2,7940,-21327,36717,56086
4464.2,8052,-21259,36723,56091
4466.2,7946,-21058,36761,56107
4468.2,7709,-21072,36832,56177
4470.2,7653,-21328,36830,56157
4472.2,7753,-21549,36747,56021
4474.2,7649,-21630,36668,55919
4476.2,7426,-21579,36638,55922
4478.2,7606,-21319,36573,55889
4480.2,8079,-21001,36424,55728
4482.2,8099,-21021,36355,55627
4484.2,7706,-21355,36503,55735
4486.2,7742,-21479,36667,55856
4488.2,8204,-21236,36666,55819
4490.2,8229,-21098,36662,55779
4492.2,7832,-21330,36729,55806
4494.2,7847,-21579,36665,55716
4496.2,8182,-21552,36480,55543
4498.2,8016,-21433,36438,55532
4500.2,7505,-21393,36546,55639
4502.2,7500,-21306,36590,55649
4504.2,7947,-21122,36552,55602
4506.2,8112,-20990,36543,55631
4508.2,7907,-20988,36581,55696
4510.2,7741,-21093,36640,55736
4512.2,7681,-21274,36673,55761
4514.2,7626,-21401,36610,55720
4516.2,7701,-21349,36480,55569
4518.2,7954,-21189,36367,55385
4520.2,8193,-21012,36281,55272
4522.2,8275,-20805,36225,55258
4524.2,8224,-20653,36245,55299
4526.2,8154,-20672,36324,55346
4528.2,8203,-20756,36383,55390
4530.2,8361,-20784,36372,55394
4532.2,8399,-20805,36307,55312
4534.2,8141,-20790,36305,55269
4536.2,7702,-20715,36426,55392
4538.2,7438,-20799,36463,55471
4540.2,7671,-21070,36249,55285
4542.2,8260,-21104,36031,55082
4544.2,8612,-20790,36086,55152
4546.2,8465,-20629,36264,55308
4548.2,8229,-20801,36327,55317
4550.2,8171,-20894,36313,55282
4552.2,8006,-20851,36312,55296
4554.2,7721,-21056,36307,55273
4556.2,7820,-21336,36302,55221
4558.2,8323,-21110,36308,55225
4560.2,8578,-20569,36308,55271
4562.2,8412,-20473,36313,55293
4564.2,8346,-20824,36345,55288
4566.2,8524,-20967,36418,55308
4568.2,8594,-20814,36546,55387
4570.2,8550,-20799,36639,55442
4572.2,8577,-20938,36636,55423
4574.2,8472,-20941,36679,55473
4576.2,8211,-20844,36807,55623
4578.2,8250,-20791,36797,55647
4580.2,8578,-20705,36650,55520
4582.2,8676,-20572,36632,55487
4584.2,8624,-20497,36690,55521
4586.2,8829,-20438,36617,55440
4588.2,8999,-20365,36588,55395
4590.2,8800,-20400,36749,55537
4592.2,8662,-20482,36831,55633
4594.2,8805,-20425,36705,55550
4596.2,8755,-20335,36621,55474
4598.2,8477,-20402,36645,55477
4600.2,8480,-20515,36622,55464
4602.2,8678,-20532,36577,55472
4604.2,8650,-20508,36588,55526
4606.2,8616,-20423,36570,55499
4608.2,8862,-20200,36487,55364
4610.2,8995,-19974,36418,55246
4612.2,8779,-19892,36367,55184
4614.2,8689,-19924,36289,55129
4616.2,8889,-20096,36259,55110
4618.2,8743,-20468,36399,55215
4620.2,7943,-20820,36643,55402
4622.2,7178,-20873,36706,55433
4624.2,7170,-20703,36423,55179
4626.2,7749,-20580,36058,54880
4628.2,8249,-20586,35937,54797
4630.2,8336,-20650,35971,54805
4632.2,8189,-20701,35932,54715
4634.2,8111,-20653,35887,54652
4636.2,8153,-20497,35941,54700
4638.2,8164,-20423,35950,54666
4640.2,8110,-20593,35832,54480
4642.2,8093,-20830,35713,54329
4644.2,8096,-20861,35657,54281
4646.2,8026,-20747,35601,54227
4648.2,7892,-20698,35533,54142
4650.2,7734,-20677,35494,54115
4652.2,7621,-20612,35500,54167
4654.2,7709,-20664,35507,54206
4656.2,7963,-20859,35461,54157
4658.2,8089,-20909,35416,54102
4660.2,8015,-20757,35457,54135
4662.2,8018,-20719,35476,54138
4664.2,8170,-20830,35326,53985
4666.2,8208,-20762,35156,53826
4668.2,8031,-20531,35169,53829
4670.2,7884,-20468,35251,53887
4672.2,7995,-20546,35230,53872
4674.2,8211,-20548,35153,53823
4676.2,8183,-20609,35096,53779
4678.2,7964,-20826,35066,53751
4680.2,7989,-20903,35084,53775
4682.2,8183,-20795,35113,53799
4684.2,7932,-20910,35102,53779
4686.2,7289,-21259,35139,53821
4688.2,7072,-21360,35207,53898
4690.2,7469,-21133,35092,53782
4692.2,7835,-20969,34839,53516
4694.2,7891,-20987,34781,53423
4696.2,7916,-21003,34946,53533
4698.2,7987,-20983,35027,53584
4700.2,7991,-20960,34961,53528
4702.2,7949,-20888,34959,53530
4704.2,7859,-20868,35044,53603
4706.2,7757,-21019,35007,53594
4708.2,7834,-21109,34842,53486
4710.2,8013,-20918,34827,53459
4712.2,7998,-20724,35009,53548
4714.2,7923,-20839,35021,53492
4716.2,8067,-21042,34791,53265
4718.2,8158,-21008,34773,53259
4720.2,7942,-20816,35020,53509
4722.2,7744,-20671,35012,53541
4724.2,7703,-20647,34745,53323
4726.2,7531,-20807,34708,53278
4728.2,7421,-21061,34801,53345
4730.2,7767,-21113,34654,53217
4732.2,8116,-20929,34532,53115
4734.2,7895,-20818,34688,53246
4736.2,7566,-20874,34738,53277
4738.2,7639,-20921,34535,53100
4740.2,7680,-20969,34483,53065
4742.2,7428,-21114,34628,53190
4744.2,7439,-21199,34632,53179
4746.2,7822,-21054,34527,53086
4748.2,7952,-20815,34537,53088
4750.2,7769,-20696,34563,53045
4752.2,7770,-20677,34491,52872
4754.2,7895,-20583,34467,52789
4756.2,7800,-20407,34556,52883
4758.2,7663,-20388,34613,52955
4760.2,7692,-20615,34574,52907
4762.2,7703,-20752,34548,52857
4764.2,7695,-20551,34562,52841
4766.2,7884,-20303,34494,52735
4768.2,8112,-20287,34336,52544
4770.2,8112,-20283,34276,52470
4772.2,8033,-20097,34342,52544
4774.2,8083,-19971,34331,52557
4776.2,8113,-20093,34263,52498
4778.2,7957,-20311,34380,52582
4780.2,7753,-20460,34607,52778
4782.2,7720,-20467,34656,52839
4784.2,7866,-20259,34598,52790
4786.2,8016,-19951,34643,52808
4788.2,8070,-19886,34673,52842
4790.2,8078,-20169,34539,52766
4792.2,8064,-20389,34401,52648
4794.2,8016,-20122,34407,52613
4796.2,8024,-19574,34473,52670
4798.2,8144,-19368,34490,52721
4800.2,8249,-19680,34462,52670
4802.2,8258,-20031,34458,52587
4804.2,8237,-20060,34508,52606
4806.2,8178,-19955,34500,52630
4808.2,8041,-19960,34347,52506
4810.2,7979,-20035,34196,52370
4812.2,8140,-20071,34161,52376
4814.2,8364,-19968,34145,52416
4816.2,8398,-19672,34135,52440
4818.2,8242,-19411,34236,52543
4820.2,8089,-19487,34342,52624
4822.2,8087,-19714,34280,52526
4824.2,8234,-19675,34152,52380
4826.2,8356,-19487,34132,52374
4828.2,8280,-19510,34194,52457
4830.2,8149,-19555,34208,52481
4832.2,8224,-19295,34124,52401
4834.2,8338,-19073,34043,52325
4836.2,8181,-19318,34091,52371
4838.2,7962,-19698,34163,52431
4840.2,8028,-19816,34084,52351
4842.2,8181,-19999,33952,52236
4844.2,8133,-20490,33858,52162
4846.2,8030,-20805,33644,51952
4848.2,7989,-20675,33332,51624
4850.2,7908,-20561,33199,51463
4852.2,7886,-20711,33193,51443
4854.2,8058,-20789,33066,51331
4856.2,8207,-20688,32913,51205
4858.2,8162,-20653,32906,51202
4860.2,8055,-20727,32933,51210
4862.2,7924,-20855,32928,51193
4864.2,7758,-21089,32943,51209
4866.2,7790,-21235,32867,51117
4868.2,8011,-21048,32685,50902
4870.2,7983,-20856,32651,50858
4872.2,7720,-21079,32761,50978
4874.2,7799,-21404,32704,50906
4876.2,8161,-21362,32542,50696
4878.2,8076,-21162,32613,50729
4880.2,7539,-21157,32827,50922
4882.2,7327,-21202,32829,50892
4884.2,7676,-21149,32624,50656
4886.2,8085,-21196,32433,50476
4888.2,8228,-21359,32331,50405
4890.2,8169,-21360,32324,50400
4892.2,8013,-21182,32403,50464
4894.2,7847,-21064,32457,50533
4896.2,7772,-21043,32434,50540
4898.2,7870,-21043,32423,50532
4900.2,8095,-21165,32458,50547
4902.2,8070,-21416,32488,50558
4904.2,7488,-21540,32535,50578
4906.2,6896,-21454,32583,50586
4908.2,7124,-21381,32474,50463
4910.2,7891,-21388,32182,50199
4912.2,8248,-21344,31951,49992
4914.2,8125,-21341,31904,49919
4916.2,8104,-21524,31835,49789
4918.2,8209,-21703,31639,49530
4920.2,8146,-21734,31598,49397
4922.2,8029,-21787,31899,49564
4924.2,8044,-21787,32303,49858
4926.2,8137,-21410,32627,50156
4928.2,8401,-20800,33061,50613
4930.2,8985,-20269,33775,51372
4932.2,9613,-19515,34738,52446
4934.2,9939,-18267,35944,53827
4936.2,10120,-17047,37256,55342
4938.2,10465,-16181,38283,56716
4940.2,10887,-15167,38861,57935
4942.2,11127,-13948,39187,59063
4944.2,11125,-13382,39309,59846
4946.2,10957,-13754,39120,60093
4948.2,10761,-14325,38661,59945
4950.2,10713,-14767,37836,59309
4952.2,10742,-15612,36392,57887
4954.2,10502,-17042,34491,55885
4956.2,9854,-18503,32595,53782
4958.2,9057,-19634,30880,51686
4960.2,8441,-20571,29461,49739
4962.2,8213,-21335,28687,48429
4964.2,8262,-21775,28680,47941
4966.2,8060,-22005,29182,47991
4968.2,7403,-22197,29904,48308
4970.2,7035,-22230,30502,48600
4972.2,7529,-22074,30676,48563
4974.2,8197,-21993,30649,48371
4976.2,8258,-21992,30854,48450
4978.2,8108,-21758,31189,48708
4980.2,8292,-21342,31311,48763
4982.2,8421,-21152,31282,48642
4984.2,8120,-21274,31301,48582
4986.2,7857,-21440,31299,48566
4988.2,8021,-21515,31195,48472
4990.2,8197,-21517,31113,48364
4992.2,8013,-21384,31153,48355
4994.2,7835,-21103,31226,48397
4996.2,8039,-20906,31222,48365
4998.2,8305,-21022,31189,48292
5000.2,8245,-21304,31218,48294
5002.2,8067,-21434,31240,48316
5004.2,8035,-21422,31163,48244
5006.2,7977,-21454,31061,48144
5008.2,7823,-21409,30993,48090
5010.2,7832,-21153,30909,48034
5012.2,7978,-20966,30853,48004
5014.2,7973,-21024,30885,48042
5016.2,7918,-21004,30871,47997
5018.2,8072,-20767,30752,47810
5020.2,8175,-20719,30727,47725
5022.2,7908,-21003,30856,47841
5024.2,7620,-21167,30920,47890
5026.2,7781,-20985,30823,47713
5028.2,8143,-20844,30713,47504
5030.2,8182,-21011,30711,47466
5032.2,7939,-21192,30779,47527
5034.2,7834,-21099,30784,47501
5036.2,7991,-20905,30683,47381
5038.2,8161,-20891,30629,47352
5040.2,8138,-21011,30726,47453
5042.2,8029,-21060,30800,47473
5044.2,8069,-21012,30709,47327
5046.2,8190,-20965,30593,47198
5048.2,8065,-20930,30580,47189
5050.2,7698,-20852,30602,47201
5052.2,7520,-20755,30582,47160
5054.2,7699,-20736,30501,47071
5056.2,7879,-20807,30393,46972
5058.2,7828,-20830,30379,46960
5060.2,7821,-20688,30449,47011
5062.2,8113,-20519,30393,46941
5064.2,8473,-20570,30213,46758
5066.2,8529,-20779,30171,46675
5068.2,8304,-20839,30264,46679
5070.2,8122,-20725,30267,46610
5072.2,8131,-20706,30214,46533
5074.2,8221,-20760,30203,46509
5076.2,8332,-20641,30107,46393
5078.2,8459,-20491,29963,46234
5080.2,8419,-20633,30031,46285
5082.2,8047,-20898,30247,46462
5084.2,7634,-20920,30282,46457
5086.2,7701,-20759,30125,46287
5088.2,8218,-20635,29994,46159
5090.2,8524,-20586,29929,46072
5092.2,8294,-20648,29880,45974
5094.2,8054,-20756,29877,45954
5096.2,8285,-20629,29909,46031
5098.2,8649,-20310,29897,46059
5100.2,8637,-20247,29818,45951
5102.2,8367,-20481,29757,45830
5104.2,8218,-20610,29788,45835
5106.2,8243,-20607,29833,45890
5108.2,8292,-20722,29785,45847
5110.2,8331,-20803,29733,45772
5112.2,8463,-20607,29782,45779
5114.2,8705,-20346,29807,45758
5116.2,8765,-20294,29754,45670
5118.2,8427,-20359,29809,45689
5120.2,8111,-20384,29951,45780
5122.2,8330,-20383,29933,45723
5124.2,8780,-20360,29815,45604
5126.2,8894,-20284,29818,45605
5128.2,8808,-20219,29828,45565
5130.2,8875,-20203,29690,45374
5132.2,8980,-20179,29591,45276
5134.2,8996,-20174,29670,45372
5136.2,9071,-20266,29753,45433
5138.2,9156,-20309,29713,45358
5140.2,9071,-20107,29614,45259
5142.2,8978,-19843,29507,45183
5144.2,9112,-19830,29402,45120
5146.2,9309,-19945,29343,45098
5148.2,9293,-19904,29379,45146
5150.2,9141,-19821,29501,45265
5152.2,9131,-19918,29581,45372
5154.2,9267,-20042,29491,45324
5156.2,9278,-19989,29313,45149
5158.2,9118,-19866,29198,45012
5160.2,9094,-19797,29111,44934
5162.2,9270,-19723,28978,44818
5164.2,9276,-19639,28876,44687
5166.2,9024,-19639,28849,44614
5168.2,8893,-19737,28814,44562
5170.2,8988,-19859,28745,44486
5172.2,8983,-19923,28685,44409
5174.2,8815,-19924,28647,44365
5176.2,8735,-19980,28612,44340
5178.2,8728,-20162,28558,44290
5180.2,8585,-20322,28499,44231
5182.2,8402,-20327,28474,44217
5184.2,8436,-20246,28399,44156
5186.2,8605,-20180,28173,43941
5188.2,8624,-20167,27955,43733
5190.2,8523,-20235,27925,43704
5192.2,8511,-20295,27925,43695
5194.2,8497,-20175,27798,43567
5196.2,8362,-19950,27677,43453
5198.2,8411,-19856,27592,43365
5200.2,8774,-19838,27405,43168
5202.2,8900,-19670,27211,42986
5204.2,8513,-19484,27169,42983
5206.2,8259,-19617,27160,43024
5208.2,8524,-20003,27091,43006
5210.2,8714,-20248,27056,43014
5212.2,8453,-20226,27020,43004
5214.2,8284,-20176,26895,42899
5216.2,8514,-20265,26789,42829
5218.2,8585,-20429,26775,42862
5220.2,8220,-20586,26754,42863
5222.2,8081,-20664,26669,42775
5224.2,8551,-20552,26529,42644
5226.2,8883,-20331,26382,42532
5228.2,8427,-20235,26379,42568
5230.2,7803,-20220,26505,42729
5232.18,7819,-20081,26463,42718
5234.15,8203,-19970,26210,42464
5236.13,8396,-20063,26065,42294
5238.1,8499,-20041,26075,42329
5240.2,8615,-19784,26013,42345
5242.18,8515,-19811,25919,42279
5244.15,8386,-20186,25925,42244
5246.13,8577,-20201,25917,42231
5248.1,8757,-19791,25848,42220
5250.1,8562,-19717,25846,42250
5252.1,8368,-20068,25861,42243
5254.1,8425,-20243,25798,42166
5256.1,8369,-20240,25787,42167
5258.1,8201,-20380,25850,42233
5260.1,8366,-20399,25765,42167
5262.1,8650,-20110,25554,42016
5264.1,8456,-19975,25496,42010
5266.1,8034,-20146,25594,42108
5268.1,8105,-20140,25604,42115
5270.1,8563,-19883,25496,42054
5272.1,8724,-19840,25412,42037
5274.1,8453,-20004,25365,42036
5276.1,8205,-19976,25295,42001
5278.1,8249,-19833,25195,41950
5280.1,8475,-19873,25059,41872
5282.1,8687,-19933,24911,41781
5284.1,8723,-19797,24856,41783
5286.1,8522,-19690,24921,41904
5288.1,8313,-19785,24950,41991
5290.1,8432,-19874,24869,41964
5292.1,8806,-19856,24826,41954
5294.1,8946,-19873,24897,42041
5296.1,8615,-19896,24937,42112
5298.1,8170,-19770,24867,42100
5300.1,8050,-19542,24783,42073
5302.1,8236,-19389,24723,42047
5304.1,8438,-19385,24620,41972
5306.1,8566,-19466,24476,41873
5308.1,8708,-19493,24355,41806
5310.1,8779,-19464,24303,41788
5312.1,8611,-19552,24332,41838
5314.1,8355,-19695,24341,41884
5316.1,8369,-19617,24180,41785
5318.1,8677,-19447,23951,41613
5320.1,8932,-19538,23905,41613
5322.1,8912,-19658,24001,41759
5324.1,8698,-19424,24023,41829
5326.1,8452,-19198,24003,41842
5328.1,8342,-19419,24068,41939
5330.1,8451,-19682,24140,42061
5332.1,8605,-19554,24143,42111
5334.1,8616,-19360,24113,42119
5336.1,8636,-19344,24036,42085
5338.1,8785,-19242,23932,42012
5340.1,8819,-19055,23905,41992
5342.1,8643,-19063,23898,42022
5344.1,8566,-19128,23808,42032
5346.1,8686,-19052,23764,42081
5348.1,8752,-19049,23814,42165
5350.1,8726,-19120,23747,42128
5352.1,8754,-18966,23579,42019
5354.1,8757,-18837,23586,42064
5356.1,8644,-19169,23747,42231
5358.1,8556,-19537,23809,42324
5360.1,8605,-19345,23727,42311
5362.1,8754,-18918,23563,42227
5364.1,8891,-18721,23365,42115
5366.1,8829,-18571,23291,42120
5368.1,8567,-18396,23398,42265
5370.1,8407,-18465,23479,42370
5372.1,8465,-18591,23451,42398
5374.1,8587,-18423,23424,42448
5376.1,8790,-18261,23368,42463
5378.1,9043,-18444,23255,42433
5380.1,9017,-18592,23235,42504
5382.1,8773,-18358,23279,42613
5384.1,8848,-18066,23171,42560
5386.1,9201,-18049,23000,42470
5388.1,9240,-18158,22996,42550
5390.1,8964,-18234,23035,42656
5392.1,8863,-18359,22899,42603
5394.1,8981,-18561,22680,42479
5396.1,9033,-18738,22546,42391
5398.1,8966,-18887,22486,42327
5400.1,8831,-19087,22441,42299
5402.1,8625,-19293,22392,42314
5404.1,8497,-19377,22299,42292
5406.1,8621,-19329,22148,42197
5408.1,8865,-19284,21999,42104
5410.1,8958,-19349,21900,42080
5412.1,8895,-19469,21833,42095
5414.1,8838,-19505,21771,42109
5416.1,8779,-19437,21730,42141
5418.1,8691,-19389,21688,42176
5420.1,8724,-19452,21585,42134
5422.1,8880,-19572,21470,42055
5424.1,8962,-19567,21425,42043
5426.1,9033,-19243,21349,42029
5428.1,9218,-18734,21197,41963
5430.1,9235,-18560,21191,42041
5432.1,8963,-18912,21370,42301
5434.1,8846,-19276,21412,42436
5436.1,8990,-19290,21264,42382
5438.1,8929,-19298,21235,42434
5440.1,8684,-19510,21320,42605
5442.1,8772,-19565,21248,42642
5444.1,9121,-19369,21092,42585
5446.1,9235,-19289,21077,42646
5448.1,9119,-19369,21130,42795
5450.1,9093,-19357,21137,42928
5452.1,9141,-19321,21152,43047
5454.1,9076,-19396,21141,43099
5456.1,8980,-19366,21004,43035
5458.1,9050,-19127,20846,42972
5460.1,9162,-18992,20832,43031
5462.1,9022,-19141,20922,43165
5464.1,8797,-19383,20971,43257
5466.1,8940,-19538,20897,43224
5468.1,9318,-19549,20722,43072
5470.1,9406,-19415,20599,42956
5472.1,9288,-19327,20680,43004
5474.1,9396,-19494,20894,43136
5476.1,9577,-19687,21104,43276
5478.1,9528,-19538,21400,43592
5480.1,9546,-19129,21944,44244
5482.1,9941,-18644,22712,45156
5484.1,10438,-17874,23638,46261
5486.1,10772,-16722,24751,47609
5488.1,11122,-15528,25940,49087
5490.1,11621,-14422,26951,50474
5492.1,12114,-13155,27702,51798
5494.1,12436,-11855,28265,53133
5496.1,12522,-11054,28571,54217
5498.1,12408,-10879,28523,54768
5500.1,12312,-11071,28219,54869
5502.1,12327,-11647,27637,54557
5504.1,12176,-12742,26450,53540
5506.1,11719,-14113,24569,51761
5508.1,11252,-15454,22456,49664
5510.1,10797,-16797,20594,47646
5512.1,9925,-18094,19137,45864
5514.1,8844,-18955,18209,44565
5516.1,8496,-19195,17943,43953
5518.1,9003,-19145,18186,43860
5520.1,9382,-19151,18646,44029
5522.1,9218,-19225,19178,44363
5524.1,9162,-19262,19643,44684
5526.1,9475,-19244,19915,44827
5528.1,9569,-19199,20131,44965
5530.1,9247,-19149,20447,45267
5532.1,9045,-19093,20707,45517
5534.1,9182,-19026,20788,45580
5536.1,9289,-18960,20853,45666
5538.1,9290,-18844,20927,45811
5540.1,9503,-18602,20847,45809
5542.1,9836,-18357,20721,45747
5544.1,9870,-18355,20768,45854
5546.1,9667,-18550,20886,46036
5548.1,9590,-18621,20929,46154
5550.1,9589,-18473,20985,46315
5552.1,9489,-18343,21055,46522
5554.1,9472,-18403,21038,46634
5556.1,9616,-18571,21034,46726
5558.1,9637,-18700,21123,46904
5560.1,9494,-18731,21124,47007
5562.1,9453,-18673,20984,46958
5564.1,9447,-18596,20954,47006
5566.1,9285,-18596,21126,47278
5568.1,9321,-18631,21263,47539
5570.1,9827,-18539,21252,47616
5572.1,10084,-18338,21298,47695
5574.1,9429,-18261,21521,47953
5576.1,8679,-18333,21678,48187
5578.1,8946,-18306,21531,48135
5580.1,9715,-18163,21264,47955
5582.1,9857,-18144,21183,47975
5584.1,9599,-18203,21271,48159
5586.1,9621,-18093,21380,48315
5588.1,9535,-17912,21519,48481
5590.1,9068,-17875,21654,48694
5592.1,9047,-17853,21654,48805
5594.1,9641,-17785,21603,48826
5596.1,9732,-17936,21705,48985
5598.1,9112,-18244,21887,49275
5600.1,8967,-18234,21926,49441
5602.1,9593,-17941,21838,49436
5604.1,9978,-17887,21810,49475
5606.1,9759,-18079,21898,49675
5608.1,9528,-18104,22021,49925
5610.1,9487,-18009,22111,50104
5612.1,9419,-18074,22156,50221
5614.1,9453,-18127,22171,50331
5616.1,9727,-17997,22171,50434
5618.1,9931,-17984,22176,50518
5620.1,9875,-18205,22211,50633
5622.1,9821,-18271,22276,50810
5624.1,9887,-18043,22359,51016
5626.1,9837,-17852,22489,51241
5628.1,9676,-17844,22656,51490
5630.1,9676,-17844,22757,51692
5632.1,9726,-17816,22751,51779
5634.1,9552,-17830,22741,51822
5636.1,9448,-17829,22774,51920
5638.1,9751,-17774,22797,52078
5640.1,9980,-17731,22853,52286
5642.1,9641,-17684,23019,52552
5644.1,9249,-17586,23197,52813
5646.1,9439,-17515,23261,52992
5648.1,9892,-17550,23283,53127
5650.1,10018,-17659,23378,53309
5652.1,9888,-17803,23515,53543
5654.1,9869,-17921,23609,53750
5656.1,9980,-17880,23652,53870
5658.1,10041,-17662,23686,53953
5660.1,10069,-17446,23756,54111
5662.1,10233,-17359,23878,54367
5664.1,10435,-17379,24044,54648
5666.1,10322,-17497,24247,54920
5668.1,9931,-17660,24474,55201
5670.1,9798,-17680,24695,55476
5672.1,10104,-17507,24862,55692
5674.1,10386,-17398,24919,55798
5676.1,10367,-17496,24879,55821
5678.1,10291,-17527,24897,55913
5680.1,10327,-17285,25064,56157
5682.1,10397,-17029,25240,56406
5684.1,10529,-17015,25325,56558
5686.1,10756,-17073,25466,56770
5688.1,10848,-17072,25731,57122
5690.1,10636,-17205,25935,57422
5692.1,10403,-17423,25978,57565
5694.1,10524,-17317,25986,57681
5696.1,10850,-16936,26041,57838
5698.1,10913,-16824,26084,57946
5700.1,10712,-17016,26100,57998
5702.1,10657,-17022,26193,58148
5704.1,10733,-16835,26420,58478
5706.1,10589,-16809,26630,58817
5708.1,10397,-16800,26630,58951
5710.1,10577,-16592,26530,58986
5712.1,10900,-16565,26601,59187
5714.1,10912,-16899,26796,59496
5716.1,10791,-17028,26874,59666
5718.1,10858,-16748,26865,59729
5720.1,10889,-16647,26925,59853
5722.1,10649,-16906,26993,59996
5724.1,10404,-16999,26997,60085
5726.1,10422,-16826,27028,60194
5728.1,10535,-16809,27109,60334
5730.1,10476,-16960,27196,60468
5732.1,10279,-17038,27328,60650
5734.1,10139,-17175,27469,60861
5736.1,10075,-17448,27488,60974
5738.1,9985,-17536,27452,61032
5740.1,9972,-17370,27517,61158
5742.1,10162,-17295,27617,61289
5744.1,10286,-17366,27681,61392
5746.1,10084,-17365,27808,61598
5748.1,9908,-17358,27954,61856
5750.1,10106,-17484,27974,61988
5752.1,10305,-17585,27983,62080
5754.1,10202,-17573,28099,62248
5756.1,10237,-17581,28112,62308
5758.1,10523,-17589,27992,62259
5760.1,10316,-17489,28135,62487
5762.1,9520,-17399,28587,62997
5764.1,9248,-17419,28809,63233
5766.1,9942,-17448,28616,63055
5768.1,10537,-17479,28504,62998
5770.1,10343,-17601,28726,63308
5772.1,10061,-17712,28916,63602
5774.1,10258,-17695,28883,63680
5776.1,10472,-17608,28911,63806
5778.1,10374,-17482,29112,64071
5780.1,10281,-17345,29249,64247
5782.1,10277,-17403,29272,64318
5784.1,10107,-17693,29364,64478
5786.1,9916,-17855,29519,64693
5788.1,9989,-17714,29622,64824
5790.1,10101,-17597,29737,64960
5792.1,9991,-17703,29929,65211
5794.1,9894,-17794,30117,65493
5796.1,9998,-17747,30274,65732
5798.1,10059,-17770,30422,65951
5800.1,9945,-17912,30532,66170
5802.1,9916,-17941,30616,66376
5804.1,10187,-17782,30682,66502
5806.1,10577,-17613,30688,66507
5808.1,10639,-17607,30790,66613
5810.1,10275,-17759,31132,66986
5812.1,10123,-17825,31379,67276
5814.1,10586,-17542,31256,67231
5816.1,10840,-17206,31223,67305
5818.1,10182,-17450,31622,67765
5820.1,9574,-18061,31966,68109
5822.1,9991,-18112,31985,68144
5824.1,10565,-17597,32138,68355
5826.1,10304,-17442,32536,68798
5828.1,9905,-17746,32751,69030
5830.1,10176,-17757,32770,69085
5832.1,10641,-17469,32858,69221
5834.1,10756,-17489,32913,69297
5836.1,10679,-17742,32925,69315
5838.1,10523,-17785,33195,69607
5840.1,10281,-17724,33611,70046
5842.1,10176,-17817,33738,70196
5844.1,10254,-17923,33683,70199
5846.1,10288,-17875,33832,70432
5848.1,10314,-17726,34059,70711
5850.1,10465,-17554,34099,70750
5852.1,10518,-17500,34157,70791
5854.1,10276,-17722,34437,71068
5856.1,10017,-18043,34674,71326
5858.1,10083,-18092,34670,71357
5860.1,10361,-17875,34669,71379
5862.1,10485,-17720,34853,71576
5864.1,10353,-17734,35052,71824
5866.1,10227,-17781,35126,71995
5868.1,10303,-17822,35167,72123
5870.1,10401,-17900,35302,72296
5872.1,10286,-17968,35558,72582
5874.1,10145,-17982,35813,72888
5876.1,10300,-17973,35866,72990
5878.1,10501,-17965,35801,72963
5880.1,10262,-17966,35962,73163
5882.1,9893,-17992,36349,73565
5884.1,10060,-18029,36608,73803
5886.1,10443,-18047,36718,73916
5888.1,10357,-18041,36909,74175
5890.1,10220,-17997,37098,74419
5892.1,10513,-17938,37193,74494
5894.1,10454,-17936,37455,74717
5896.1,9682,-17939,37893,75164
5898.1,9431,-17810,38079,75378
5900.1,10235,-17640,37940,75247
5902.1,10849,-17649,37900,75201
5904.1,10656,-17751,38130,75431
5906.1,10491,-17723,38423,75716
5908.1,10653,-17671,38636,75910
5910.1,10601,-17794,38797,76065
5912.1,10363,-17919,38996,76288
5914.1,10316,-17783,39266,76614
5916.1,10340,-17532,39458,76887
5918.1,10317,-17481,39483,76987
5920.1,10425,-17616,39560,77107
5922.1,10603,-17684,39842,77401
5924.1,10660,-17632,40128,77685
5926.1,10730,-17624,40314,77858
5928.1,10898,-17642,40537,78065
5930.1,10918,-17467,40734,78270
5932.1,10719,-17185,40754,78317
5934.1,10639,-17177,40780,78350
5936.1,10871,-17387,40980,78529
5938.1,11134,-17367,41156,78689
5940.1,11131,-17196,41198,78744
5942.1,10992,-17390,41302,78896
5944.1,10936,-17876,41539,79198
5946.1,10843,-18163,41760,79457
5948.1,10620,-18305,41898,79584
5950.1,10555,-18578,41959,79630
5952.1,10707,-18792,41947,79634
5954.1,10635,-18816,41949,79654
5956.1,10307,-18926,42018,79725
5958.1,10294,-19137,42077,79790
5960.1,10630,-19187,42112,79847
5962.1,10704,-19184,42193,79948
5964.1,10481,-19276,42263,80029
5966.1,10523,-19207,42282,80051
5968.1,10820,-19017,42427,80178
5970.1,10817,-19209,42762,80480
5972.1,10443,-19704,43041,80741
5974.1,10144,-19855,43146,80845
5976.1,10122,-19702,43269,80956
5978.1,10220,-19866,43480,81141
5980.1,10329,-20251,43611,81268
5982.1,10484,-20228,43655,81345
5984.1,10633,-19878,43798,81513
5986.1,10604,-19806,44063,81732
5988.1,10374,-20021,44317,81878
5990.1,10223,-20089,44528,81988
5992.1,10439,-19986,44674,82088
5994.1,10865,-19939,44683,82077
5996.1,11013,-19929,44669,82036
5998.1,10752,-19922,44878,82214
6000.1,10505,-20036,45260,82571
6002.1,10548,-20183,45540,82833
6004.1,10629,-20181,45676,82972
6006.1,10605,-20164,45820,83144
6008.1,10683,-20280,45982,83336
6010.1,10803,-20327,46090,83453
6012.1,10725,-20210,46143,83492
6014.1,10694,-20198,46171,83493
6016.1,10942,-20380,46265,83564
6018.1,11038,-20514,46527,83811
6020.1,10800,-20562,46818,84079
6022.1,10823,-20744,46893,84096
6024.1,11223,-21005,46816,83931
6026.1,11261,-21062,46872,83876
6028.1,10840,-20919,47176,84046
6030.1,10763,-20815,47697,84427
6032.1,11279,-20784,48393,85016
6034.1,11827,-20698,49175,85737
6036.1,12110,-20511,50048,86577
6038.1,12284,-20091,51181,87725
6040.1,12443,-19215,52581,89222
6042.1,12603,-18039,53975,90777
6044.1,12879,-16966,55182,92203
6046.1,13344,-15950,56216,93619
6048.1,13826,-14722,56993,95016
6050.1,13998,-13614,57338,96093
6052.1,13792,-13173,57311,96683
6054.1,13567,-13359,57145,96909
6056.1,13576,-13963,56772,96719
6058.1,13571,-15077,55791,95772
6060.1,13225,-16570,54141,94074
6062.1,12504,-18063,52342,92163
6064.1,11603,-19542,50711,90314
6066.1,10931,-21012,49095,88380
6068.1,10784,-21979,47773,86693
6070.1,10815,-22259,47510,86002
6072.1,10545,-22421,48227,86229
6074.1,10258,-22704,48957,86541
6076.1,10430,-22662,49368,86692
6078.1,10810,-22266,49914,87021
6080.1,10958,-22107,50595,87433
6082.1,10926,-22320,51031,87642
6084.1,10867,-22389,51336,87830
6086.1,10807,-22067,51748,88154
6088.1,10883,-21723,52053,88348
6090.1,11087,-21710,52133,88336
6092.1,11142,-21896,52254,88394
6094.1,11040,-21973,52500,88584
6096.1,11032,-21942,52688,88733
6098.1,11058,-21979,52818,88858
6100.1,10928,-22031,53030,89068
6102.1,10825,-22000,53296,89317
6104.1,10942,-22037,53507,89514
6106.1,11058,-22178,53675,89667
6108.1,10983,-22164,53892,89838
6110.1,10881,-22013,54162,90039
6112.1,10881,-22087,54359,90184
6114.1,10885,-22371,54422,90214
6116.1,10885,-22474,54474,90227
6118.1,10992,-22355,54623,90321
6120.1,11110,-22294,54815,90450
6122.1,11074,-22333,55007,90572
6124.1,10995,-22369,55251,90737
6126.1,10999,-22467,55537,90945
6128.1,10967,-22645,55750,91086
6130.1,10939,-22749,55818,91074
6132.1,11103,-22740,55834,91002
6134.1,11136,-22723,56002,91097
6136.1,10662,-22729,56317,91373
6138.1,10279,-22774,56500,91551
6140.1,10667,-22906,56498,91556
6142.1,11200,-23002,56636,91694
6144.1,11080,-22912,56994,92029
6146.1,10793,-22844,57217,92209
6148.1,10942,-23069,57160,92121
6150.1,11036,-23379,57116,92081
6152.1,10703,-23444,57290,92266
6154.1,10530,-23389,57550,92502
6156.1,10841,-23425,57722,92622
6158.1,11148,-23377,57797,92646
6160.1,11200,-23106,57865,92659
6162.1,11251,-22844,58001,92731
6164.1,11317,-22806,58245,92930
6166.1,11285,-22968,58569,93226
6168.1,11379,-23240,58819,93440
6170.1,11630,-23458,58900,93500
6172.1,11531,-23469,59009,93619
6174.1,10980,-23464,59305,93908
6176.1,10649,-23729,59534,94090
6178.1,10860,-24045,59497,94022
6180.1,11119,-23988,59502,94013
6182.1,11136,-23658,59773,94223
6184.1,11201,-23495,60063,94408
6186.1,11344,-23600,60237,94492
6188.1,11248,-23746,60470,94638
6190.1,11066,-23805,60713,94771
6192.1,11223,-23838,60786,94764
6194.1,11458,-23926,60862,94812
6196.1,11207,-24045,61129,95059
6198.1,10781,-24097,61369,95285
6200.1,10940,-24056,61389,95331
6202.1,11538,-23978,61396,95348
6204.1,11762,-23884,61589,95463
6206.1,11469,-23831,61867,95629
6208.1,11195,-24026,62099,95811
6210.1,11137,-24543,62311,96015
6212.1,11068,-25042,62508,96177
6214.1,11030,-25074,62605,96216
6216.1,11294,-24660,62646,96201
6218.1,11675,-24320,62845,96344
6220.1,11631,-24390,63240,96681
6222.1,11229,-24572,63514,96925
6224.1,11184,-24468,63505,96904
6226.1,11620,-24263,63552,96900
6228.1,11830,-24338,63926,97177
6230.1,11600,-24571,64347,97531
6232.1,11502,-24673,64530,97698
6234.1,11706,-24716,64631,97764
6236.1,11812,-24769,64799,97841
6238.1,11778,-24655,64917,97868
6240.1,11849,-24447,64991,97887
6242.1,11950,-24458,65192,98041
6244.1,11966,-24636,65480,98272
6246.1,12045,-24692,65680,98413
6248.1,12144,-24672,65816,98472
6250.1,11976,-24763,66032,98580
6252.1,11649,-24854,66296,98758
6254.1,11642,-24788,66448,98894
6256.1,11988,-24688,66462,98932
6258.1,12161,-24704,66503,98977
6260.1,12009,-24762,66649,99097
6262.1,11995,-24721,66776,99191
6264.1,12233,-24597,66855,99246
6266.1,12236,-24544,67034,99415
6268.1,11927,-24652,67271,99658
6270.1,11766,-24798,67343,99739
6272.1,11830,-24854,67243,99637
6274.1,11843,-24940,67139,99510
6276.1,11789,-25194,67123,99446
6278.1,11633,-25431,67279,99534
6280.1,11186,-25404,67587,99777
6282.1,10774,-25246,67769,99913
6284.1,10942,-25251,67717,99821
6286.1,11419,-25437,67751,99798
6288.1,11533,-25656,67997,99991
6290.1,11322,-25877,68142,100118
6292.1,11213,-26086,68072,100050
6294.1,11157,-26203,68050,100016
6296.1,10938,-26254,68175,100111
6298.1,10784,-26326,68279,100175
6300.1,11017,-26353,68281,100124
6302.1,11431,-26286,68306,100092
6304.1,11513,-26275,68495,100244
6306.1,11176,-26395,68759,100492
6308.1,10873,-26472,68837,100538
6310.1,10899,-26438,68725,100357
6312.1,11008,-26490,68738,100284
6314.1,10908,-26713,68950,100441
6316.1,10724,-26883,69090,100566
6318.1,10750,-26789,69048,100525
6320.1,11004,-26555,68991,100461
6322.1,11181,-26513,69074,100525
6324.1,11037,-26801,69348,100760
6326.1,10757,-27158,69684,101050
6328.1,10754,-27279,69817,101159
6330.1,11002,-27230,69757,101080
6332.1,11067,-27252,69816,101081
6334.1,10885,-27347,70018,101210
6336.1,10804,-27405,70092,101244
6338.1,10830,-27494,70032,101156
6340.1,10765,-27632,70046,101118
6342.1,10850,-27636,70143,101185
6344.1,11197,-27499,70284,101341
6346.1,11209,-27488,70518,101571
6348.1,10729,-27636,70737,101731
6350.1,10624,-27669,70791,101707
6352.1,11137,-27598,70812,101660
6354.1,11306,-27721,70941,101726
6356.1,10900,-27962,71024,101763
6358.1,10843,-27970,70977,101693
6360.1,11237,-27822,71022,101713
6362.1,11235,-27857,71277,101925
6364.1,10852,-28008,71539,102136
6366.1,10774,-28025,71647,102183
6368.1,10969,-28008,71659,102131
6370.1,11098,-28132,71649,102081
6372.1,11254,-28266,71644,102067
6374.1,11360,-28233,71725,102144
6376.1,11123,-28065,71928,102338
6378.1,10803,-27888,72150,102557
6380.1,10828,-27824,72310,102713
6382.1,11003,-27929,72440,102829
6384.1,11019,-28131,72548,102927
6386.1,11011,-28355,72589,102961
6388.1,11083,-28574,72594,102928
6390.1,11060,-28721,72647,102894
6392.1,10911,-28752,72757,102900
6394.1,10829,-28739,72897,102965
6396.1,10908,-28709,73066,103097
6398.1,11038,-28647,73233,103246
6400.1,11087,-28674,73355,103338
6402.1,11070,-28816,73437,103375
6404.1,11098,-28791,73474,103363
6406.1,11112,-28515,73455,103310
6408.1,10972,-28431,73492,103327
6410.1,10827,-28788,73663,103470
6412.1,10944,-29152,73794,103552
6414.1,11171,-29135,73765,103463
6416.1,11160,-29023,73789,103443
6418.1,10969,-29160,74027,103657
6420.1,10860,-29351,74288,103891
6422.1,10829,-29357,74389,103954
6424.1,10831,-29362,74379,103921
6426.1,10938,-29527,74337,103879
6428.1,10985,-29653,74346,103873
6430.1,10787,-29594,74493,103969
6432.1,10697,-29487,74660,104075
6434.1,11022,-29436,74692,104056
6436.1,11310,-29416,74709,104040
6438.1,11177,-29445,74831,104160
6440.1,11034,-29518,74929,104275
6442.1,11108,-29519,74991,104330
6444.1,11029,-29444,75181,104476
6446.1,10910,-29436,75377,104630
6448.1,11205,-29506,75359,104569
6450.1,11449,-29476,75329,104473
6452.1,10980,-29311,75586,104677
6454.1,10444,-29260,75938,105011
6456.1,10750,-29501,75998,105048
6458.1,11389,-29821,75831,104844
6460.1,11368,-29930,75837,104833
6462.1,10814,-29917,76096,105074
6464.1,10550,-29999,76266,105181
6466.1,10859,-30035,76223,105067
6468.1,11318,-29832,76292,105106
6470.1,11441,-29618,76549,105346
6472.1,11234,-29662,76605,105376
6474.1,11067,-29754,76414,105175
6476.1,11081,-29590,76416,105178
6478.1,11116,-29318,76702,105421
6480.1,11088,-29314,76947,105604
6482.1,11022,-29647,77092,105730
6484.1,10966,-29982,77216,105878
6486.1,11069,-29987,77220,105891
6488.1,11278,-29792,77170,105830
6490.1,11239,-29807,77275,105941
6492.1,10977,-30002,77418,106082
6494.1,10952,-29949,77430,106029
6496.1,11170,-29654,77463,105972
6498.1,11233,-29566,77561,106048
6500.1,11162,-29730,77548,106072
6502.1,11141,-29841,77514,106019
6504.1,10994,-29980,77612,106021
6506.1,10713,-30405,77624,105982
6508.1,10642,-30894,77421,105820
6510.1,10789,-31082,77255,105692
6512.1,10869,-31079,77227,105653
6514.1,10914,-31186,77177,105604
6516.1,11001,-31388,77129,105574
6518.1,10901,-31532,77195,105619
6520.1,10581,-31666,77291,105679
6522.1,10414,-31905,77331,105727
6524.1,10535,-32194,77343,105757
6526.1,10606,-32393,77329,105715
6528.1,10421,-32457,77294,105632
6530.1,10287,-32405,77281,105586
6532.1,10546,-32269,77285,105554
6534.1,10995,-32146,77310,105552
6536.1,11163,-32156,77399,105655
6538.1,11022,-32290,77517,105789
6540.1,10882,-32449,77619,105863
6542.1,10763,-32619,77760,105980
6544.1,10523,-32836,77930,106177
6546.1,10381,-33009,78009,106275
6548.1,10593,-32970,77967,106194
6550.1,10869,-32772,77889,106066
6552.1,10763,-32718,77873,106019
6554.1,10447,-32944,77977,106075
6556.1,10401,-33203,78139,106157
6558.1,10559,-33299,78209,106157
6560.1,10511,-33351,78216,106121
6562.1,10343,-33393,78312,106184
6564.1,10425,-33304,78462,106293
6566.1,10609,-33228,78521,106311
6568.1,10544,-33386,78516,106288
6570.1,10384,-33555,78528,106316
6572.1,10408,-33450,78512,106317
6574.1,10463,-33314,78453,106235
6576.1,10423,-33451,78472,106200
6578.1,10509,-33706,78626,106295
6580.1,10707,-33885,78777,106361
6582.1,10638,-34068,78786,106231
6584.1,10252,-34259,78779,106063
6586.1,9971,-34345,79011,106153
6588.1,10065,-34344,79472,106501
6590.1,10455,-34221,79951,106902
6592.1,11015,-33820,80438,107358
6594.1,11564,-33219,81129,108070
6596.1,11798,-32596,82153,109173
6598.1,11698,-31755,83449,110605
6600.1,11757,-30514,84734,112078
6602.1,12281,-29251,85732,113371
6604.1,12825,-28328,86515,114672
6606.1,12895,-27577,87173,116059
6608.1,12793,-26936,87346,116982
6610.1,13021,-26771,86887,117119
6612.1,13366,-27123,86302,116946
6614.1,13347,-27691,85714,116576
6616.1,13011,-28627,84510,115357
6618.1,12607,-30179,82599,113251
6620.1,12082,-31844,80589,111011
6622.1,11375,-33039,78700,108905
6624.1,10652,-33980,76998,106907
6626.1,10110,-34863,76099,105578
6628.1,9948,-35261,76278,105264
6630.1,10211,-35124,76851,105401
6632.1,10479,-35081,77307,105521
6634.1,10386,-35255,77797,105735
6636.1,10277,-35163,78317,105981
6638.1,10458,-34873,78660,106060
6640.1,10397,-34870,78982,106182
6642.1,9819,-35043,79442,106514
6644.1,9558,-34991,79791,106745
6646.1,10070,-34844,79852,106684
6648.1,10487,-34860,79807,106574
6650.1,10275,-34864,79806,106576
6652.08,10159,-34711,79816,106588
6654.05,10438,-34651,79836,106581
6656.03,10332,-34813,79932,106675
6658.0,9720,-34930,80104,106876
6660.0,9574,-34848,80256,107023
6662.0,10153,-34788,80312,107023
6664.0,10552,-34897,80293,106947
6666.0,10355,-34985,80237,106862
6668.0,10145,-34941,80146,106758
6670.0,10193,-34955,80095,106696
6672.0,10109,-35071,80165,106750
6674.0,9890,-35058,80274,106832
6676.0,9955,-34967,80364,106893
6678.0,10164,-35150,80541,107057
6680.0,10090,-35549,80732,107267
6682.0,9959,-35724,80704,107276
6684.0,10108,-35631,80606,107185
6686.0,10170,-35583,80759,107291
6688.0,9881,-35577,80968,107445
6690.0,9745,-35437,80888,107344
6692.0,10080,-35312,80723,107165
6694.0,10454,-35349,80771,107165
6696.0,10509,-35352,80860,107197
6698.0,10379,-35224,80847,107156
6700.0,10262,-35203,80939,107230
6702.0,10233,-35358,81151,107400
6704.0,10275,-35465,81212,107419
6706.0,10283,-35462,81121,107320
6708.0,10288,-35492,81115,107316
6710.0,10407,-35563,81197,107369
6712.0,10402,-35611,81239,107369
6714.0,9979,-35681,81310,107434
6716.0,9541,-35765,81475,107610
6718.0,9695,-35777,81553,107657
6720.0,10193,-35775,81451,107487
6722.0,10356,-35837,81405,107397
6724.0,10158,-35853,81557,107542
6726.0,10003,-35750,81696,107657
6728.0,9955,-35647,81685,107572
6730.0,9926,-35609,81660,107457
6732.0,10038,-35624,81687,107428
6734.0,10249,-35764,81723,107455
6736.0,10226,-35953,81829,107576
6738.0,9991,-35892,81944,107699
6740.0,9991,-35596,81840,107575
6742.0,10272,-35477,81632,107323
6744.0,10356,-35632,81672,107327
6746.0,10179,-35760,81874,107520
6748.0,10178,-35823,81918,107566
6750.0,10323,-36007,81895,107529
6752.0,10160,-36149,82007,107607
6754.0,9810,-36002,82126,107695
6756.0,9803,-35784,82146,107701
6758.0,10111,-35775,82163,107707
6760.0,10300,-35816,82181,107685
6762.0,10251,-35766,82179,107609
6764.0,10125,-35828,82241,107598
6766.0,10100,-36002,82309,107632
6768.0,10273,-35972,82292,107616
6770.0,10439,-35798,82374,107714
6772.0,10278,-35889,82664,108009
6774.0,9943,-36226,82889,108196
6776.0,9867,-36433,82864,108086
6778.0,10086,-36417,82786,107930
6780.0,10323,-36303,82828,107950
6782.0,10470,-36115,82935,108067
6784.0,10574,-35949,83032,108161
6786.0,10630,-35934,83133,108238
6788.0,10594,-35968,83273,108332
6790.0,10474,-35929,83413,108406
6792.0,10388,-35863,83492,108427
6794.0,10435,-35764,83562,108480
6796.0,10500,-35640,83682,108612
6798.0,10472,-35692,83754,108690
6800.0,10467,-35879,83786,108721
6802.0,10549,-35810,83953,108884
6804.0,10571,-35495,84141,109044
6806.0,10511,-35448,84086,108923
6808.0,10510,-35780,83965,108714
6810.0,10584,-36044,84036,108691
6812.0,10680,-36017,84069,108649
6814.0,10803,-35906,83914,108467
6816.0,10869,-35849,83859,108431
6818.0,10770,-35795,83973,108555
6820.0,10604,-35760,83996,108556
6822.0,10561,-35792,83942,108480
6824.0,10698,-35790,83933,108485
6826.0,10885,-35663,83876,108462
6828.0,10861,-35573,83830,108434
6830.0,10528,-35706,83961,108548
6832.0,10220,-35897,84057,108622
6834.0,10293,-35851,83907,108472
6836.0,10560,-35616,83769,108316
6838.0,10599,-35488,83821,108298
6840.0,10390,-35580,83833,108242
6842.0,10227,-35764,83714,108140
6844.0,10235,-35909,83652,108142
6846.0,10247,-36015,83674,108181
6848.0,10104,-36112,83663,108144
6850.0,9968,-36124,83602,108090
6852.0,10107,-35994,83500,108026
6854.0,10348,-35892,83367,107908
6856.0,10254,-35966,83303,107842
6858.0,9913,-36063,83346,107909
6860.0,9822,-36079,83399,107973
6862.0,10012,-36186,83421,107920
6864.0,10075,-36412,83468,107845
6866.0,9912,-36547,83541,107864
6868.0,9781,-36594,83554,107912
6870.0,9802,-36684,83471,107869
6872.0,9847,-36695,83386,107771
6874.0,9802,-36534,83377,107714
6876.0,9765,-36422,83332,107637
6878.0,9924,-36473,83158,107479
6880.0,10168,-36494,83033,107392
6882.0,10175,-36408,83117,107471
6884.0,10021,-36351,83244,107544
6886.0,10022,-36353,83257,107514
6888.0,10001,-36346,83248,107515
6890.0,9682,-36376,83268,107566
6892.0,9449,-36499,83237,107542
6894.0,9648,-36640,83197,107483
6896.0,9841,-36716,83239,107512
6898.0,9705,-36711,83296,107571
6900.0,9664,-36593,83277,107538
6902.0,9900,-36400,83226,107450
6904.0,9939,-36376,83227,107441
6906.0,9706,-36628,83263,107504
6908.0,9706,-36799,83214,107452
6910.0,9914,-36602,83075,107252
6912.0,9755,-36371,83059,107182
6914.0,9293,-36473,83219,107330
6916.0,9213,-36639,83260,107370
6918.0,9584,-36549,83115,107221
6920.0,9779,-36423,83114,107228
6922.0,9609,-36497,83314,107425
6924.0,9449,-36607,83403,107484
6926.0,9461,-36626,83326,107384
6928.0,9566,-36645,83257,107319
6930.0,9751,-36688,83207,107270
6932.0,9880,-36728,83178,107226
6934.0,9790,-36782,83216,107244
6936.0,9636,-36815,83210,107201
6938.0,9537,-36803,83144,107070
6940.0,9367,-36789,83192,107085
6942.0,9318,-36693,83299,107218
6944.0,9656,-36436,83285,107207
6946.0,9945,-36232,83273,107111
6948.0,9740,-36285,83347,107095
6950.0,9510,-36431,83321,107055
6952.0,9655,-36473,83226,106993
6954.0,9759,-36419,83264,107050
6956.0,9673,-36290,83303,107087
6958.0,9816,-36174,83228,106987
6960.0,10034,-36285,83283,107003
6962.0,9800,-36514,83502,107216
6964.0,9375,-36446,83593,107335
6966.0,9342,-36132,83548,107304
6968.0,9590,-36053,83556,107310
6970.0,9743,-36227,83551,107307
6972.0,9795,-36274,83445,107181
6974.0,9774,-36210,83340,107024
6976.0,9611,-36301,83263,106933
6978.0,9449,-36456,83210,106928
6980.0,9463,-36473,83278,107041
6982.0,9549,-36409,83404,107167
6984.0,9621,-36333,83383,107109
6986.0,9781,-36245,83248,106920
6988.0,9895,-36261,83204,106837
6990.0,9625,-36339,83267,106912
6992.0,9161,-36225,83298,106982
6994.0,9165,-36009,83227,106922
6996.0,9690,-36026,83121,106784
6998.0,10004,-36121,83103,106707
7000.0,9792,-35956,83167,106707
7002.0,9578,-35787,83187,106687
7004.0,9690,-35952,83190,106658
7006.0,9819,-36123,83313,106705
7008.0,9739,-35973,83487,106773
7010.0,9600,-35824,83520,106753
7012.0,9536,-35930,83429,106664
7014.0,9553,-35992,83401,106628
7016.0,9588,-35877,83511,106734
7018.0,9515,-35891,83627,106891
7020.0,9431,-36032,83572,106866
7022.0,9662,-35869,83432,106668
7024.0,10137,-35362,83498,106652
7026.0,10299,-35013,83768,106916
7028.0,9958,-35075,83899,107089
7030.0,9582,-35278,83764,106959
7032.0,9548,-35364,83551,106707
7034.0,9700,-35308,83394,106512
7036.0,9760,-35120,83353,106436
7038.0,9765,-34894,83466,106511
7040.0,9876,-34826,83585,106619
7042.0,9941,-34878,83586,106656
7044.0,9667,-34830,83624,106750
7046.0,9242,-34764,83739,106905
7048.0,9209,-34908,83674,106866
7050.0,9614,-35028,83421,106633
7052.0,9972,-34765,83288,106500
7054.0,10064,-34409,83335,106509
7056.0,10041,-34481,83366,106493
7058.0,9951,-34834,83361,106480
7060.0,9786,-35037,83423,106559
7062.0,9724,-35209,83503,106635
7064.0,9857,-35563,83448,106566
7066.0,10010,-35734,83222,106351
7068.0,10016,-35470,82987,106108
7070.0,9889,-35292,82888,105939
7072.0,9717,-35618,82799,105807
7074.0,9553,-36044,82609,105669
7076.0,9442,-36120,82514,105619
7078.0,9474,-35961,82585,105626
7080.0,9641,-35773,82506,105475
7082.0,9703,-35627,82243,105235
7084.0,9510,-35718,82168,105204
7086.0,9322,-36081,82266,105295
7088.0,9391,-36361,82177,105212
7090.0,9514,-36394,81987,105067
7092.0,9469,-36432,82007,105091
7094.0,9398,-36545,82106,105145
7096.0,9424,-36521,82036,105064
7098.0,9456,-36385,81935,104984
7100.0,9464,-36339,81990,105030
7102.0,9458,-36360,82105,105125
7104.0,9378,-36329,82103,105132
7106.0,9311,-36269,81961,104974
7108.0,9405,-36213,81810,104748
7110.0,9530,-36127,81765,104636
7112.0,9543,-36028,81774,104620
7114.0,9604,-35971,81757,104584
7116.0,9730,-36008,81774,104592
7118.0,9584,-36164,81848,104700
7120.0,9146,-36351,81914,104804
7122.0,8978,-36447,81982,104875
7124.0,9342,-36489,82035,104918
7126.0,9721,-36519,81965,104827
7128.0,9650,-36394,81857,104655
7130.0,9437,-36108,81851,104596
7132.0,9501,-35996,81795,104555
7134.0,9556,-36229,81601,104386
7136.0,9235,-36503,81546,104313
7138.0,8924,-36569,81673,104443
7140.0,9084,-36566,81636,104447
7142.0,9361,-36603,81435,104216
7144.0,9279,-36568,81440,104077
7146.0,9073,-36479,81712,104193
7148.0,9155,-36452,82059,104426
7150.0,9491,-36389,82483,104738
7152.0,9857,-36123,83087,105256
7154.0,10140,-35641,83908,106097
7156.0,10349,-34850,84944,107259
7158.0,10606,-33631,86061,108565
7160.0,10932,-32296,87085,109841
7162.0,11150,-31278,88031,111144
7164.0,11264,-30370,88879,112518
7166.0,11485,-29218,89353,113676
7168.0,11775,-28285,89307,114305
7170.0,11912,-28237,89003,114493
7172.0,11870,-28867,88606,114415
7174.0,11726,-29715,87790,113814
7176.0,11516,-30904,86225,112297
7178.0,11285,-32456,84138,110053
7180.0,10921,-33864,81985,107670
7182.0,10244,-34933,79942,105429
7184.0,9468,-35922,78264,103489
7186.0,8997,-36763,77568,102382
7188.0,8813,-37182,77972,102320
7190.0,8730,-37234,78614,102588
7192.0,8874,-37043,78858,102560
7194.0,9239,-36670,79063,102520
7196.0,9386,-36401,79528,102753
7198.0,9132,-36387,79876,102920
7200.0,8904,-36317,79950,102850
7202.0,9005,-36080,80103,102846
7204.0,9161,-36031,80402,103015
7206.0,9133,-36234,80558,103139
7208.0,9178,-36318,80511,103101
7210.0,9441,-36196,80435,102960
7212.0,9475,-36081,80458,102845
7214.0,9000,-35961,80594,102866
7216.0,8535,-35751,80689,102902
7218.0,8613,-35624,80603,102808
7220.0,8978,-35693,80510,102772
7222.0,9159,-35773,80604,102951
7224.0,9157,-35777,80698,103067
7226.0,9152,-35827,80584,102909
7228.0,9172,-35860,80393,102696
7230.0,9250,-35714,80272,102597
7232.0,9406,-35551,80206,102550
7234.0,9491,-35588,80212,102562
7236.0,9387,-35678,80284,102634
7238.0,9232,-35668,80294,102623
7240.0,9224,-35661,80234,102548
7242.0,9312,-35610,80229,102598
7244.0,9269,-35378,80279,102740
7246.0,9106,-35194,80272,102767
7248.0,9107,-35279,80186,102665
7250.0,9283,-35356,80084,102567
7252.0,9301,-35178,80013,102516
7254.0,9169,-34982,79984,102488
7256.0,9230,-34994,79988,102510
7258.0,9392,-35094,80042,102593
7260.0,9288,-35120,80114,102642
7262.0,9067,-35055,80106,102571
7264.0,9061,-35024,80056,102489
7266.0,9128,-35193,80091,102507
7268.0,9107,-35432,80111,102483
7270.0,9151,-35444,79978,102326
7272.0,9186,-35366,79890,102255
7274.0,9021,-35522,79980,102349
7276.0,8965,-35631,79978,102341
7278.0,9264,-35286,79794,102187
7280.0,9449,-34875,79734,102142
7282.0,9226,-34911,79837,102176
7284.0,9078,-35058,79846,102097
7286.0,9222,-34874,79795,102029
7288.0,9181,-34670,79850,102099
7290.0,8878,-34779,79870,102100
7292.0,8930,-34904,79714,101898
7294.0,9480,-34802,79541,101684
7296.0,9797,-34702,79549,101659
7298.0,9372,-34730,79732,101827
7300.0,8737,-34720,79892,101997
7302.0,8717,-34682,79824,101928
7304.0,9271,-34761,79623,101678
7306.0,9686,-34850,79553,101534
7308.0,9691,-34761,79575,101519
7310.0,9573,-34592,79503,101458
7312.0,9464,-34548,79446,101405
7314.0,9345,-34616,79537,101454
7316.0,9314,-34681,79638,101503
7318.0,9313,-34734,79680,101525
7320.0,9177,-34755,79747,101582
7322.0,9079,-34648,79769,101573
7324.0,9218,-34465,79688,101457
7326.0,9357,-34386,79668,101407
7328.0,9350,-34399,79752,101429
7330.0,9442,-34340,79769,101359
7332.0,9611,-34254,79720,101268
7334.0,9551,-34228,79760,101310
7336.0,9399,-34100,79855,101381
7338.0,9519,-33819,79877,101353
7340.0,9745,-33703,79862,101336
7342.0,9741,-33846,79928,101441
7344.0,9666,-33912,80070,101572
7346.0,9733,-33807,80166,101587
7348.0,9750,-33795,80177,101509
7350.0,9658,-33847,80211,101482
7352.0,9748,-33708,80288,101544
7354.0,9951,-33509,80279,101586
7356.0,9859,-33511,80211,101593
7358.0,9600,-33572,80245,101641
7360.0,9631,-33505,80338,101665
7362.0,9807,-33493,80330,101577
7364.0,9773,-33598,80258,101469
7366.0,9715,-33518,80218,101438
7368.0,9732,-33234,80200,101444
7370.0,9525,-33126,80207,101456
7372.0,9316,-33189,80229,101462
7374.0,9600,-33077,80157,101384
7376.0,9962,-32957,79995,101223
7378.0,9815,-33178,79896,101116
7380.0,9654,-33372,79899,101130
7382.0,9988,-33098,79899,101189
7384.0,10300,-32772,79811,101170
7386.0,10199,-32848,79643,101039
7388.0,10028,-33013,79523,100944
7390.0,9876,-33017,79545,101000
7392.0,9536,-33100,79545,101040
7394.0,9218,-33234,79399,100921
7396.0,9163,-33166,79289,100803
7398.0,9261,-33064,79252,100735
7400.0,9488,-33107,79046,100525
7402.0,9760,-33030,78769,100283
7404.0,9662,-32760,78780,100297
7406.0,9246,-32605,78903,100379
7408.0,9182,-32600,78713,100175
7410.0,9529,-32517,78369,99857
7412.0,9631,-32418,78233,99743
7414.0,9387,-32470,78235,99776
7416.0,9274,-32609,78229,99827
7418.0,9316,-32745,78269,99887
7420.0,9242,-32861,78289,99862
7422.0,9168,-32886,78191,99740
7424.0,9261,-32845,78098,99696
7426.0,9323,-32916,78043,99709
7428.0,9201,-33100,77921,99626
7430.0,9043,-33189,77850,99555
7432.0,8998,-33098,77925,99592
7434.0,9072,-32910,77879,99500
7436.0,9186,-32724,77581,99199
7438.0,9196,-32638,77368,99001
7440.0,9077,-32685,77415,99020
7442.0,9018,-32738,77457,99001
7444.0,9082,-32700,77358,98860
7446.0,9106,-32638,77288,98768
7448.0,9102,-32589,77256,98735
7450.0,9236,-32515,77101,98624
7452.0,9361,-32494,76925,98500
7454.0,9225,-32608,76964,98544
7456.0,9011,-32726,77101,98674
7458.0,9045,-32692,77044,98649
7460.0,9221,-32609,76870,98486
7462.0,9263,-32626,76841,98387
7464.0,9215,-32651,76883,98368
7466.0,9248,-32508,76848,98364
7468.0,9295,-32255,76873,98446
7470.0,9200,-32105,76994,98562
7472.0,9047,-32125,76948,98486
7474.0,9084,-32182,76723,98263
7476.0,9361,-32157,76587,98146
7478.0,9555,-32107,76560,98119
7480.0,9341,-32164,76530,98070
7482.0,8905,-32314,76580,98096
7484.0,8750,-32368,76670,98176
7486.0,8947,-32238,76580,98099
7488.0,9088,-32086,76403,97928
7490.0,9019,-32074,76417,97901
7492.0,8956,-32186,76536,97955
7494.0,8914,-32338,76523,97914
7496.0,8784,-32398,76416,97815
7498.0,8745,-32208,76347,97736
7500.0,8884,-31877,76341,97675
7502.0,8938,-31721,76382,97643
7504.0,8915,-31775,76400,97618
7506.0,9059,-31853,76346,97573
7508.0,9142,-31963,76320,97602
7510.0,8876,-32092,76357,97707
7512.0,8705,-32038,76317,97687
7514.0,9012,-31875,76184,97495
7516.0,9325,-31886,76113,97337
7518.0,9253,-31940,76108,97302
7520.0,9147,-31804,76085,97316
7522.0,9218,-31734,76078,97352
7524.0,9160,-31898,76101,97382
7526.0,8944,-31934,76080,97331
7528.0,8958,-31711,75993,97195
7530.0,9253,-31588,75854,97012
7532.0,9402,-31634,75714,96839
7534.0,9134,-31589,75732,96815
7536.0,8748,-31494,75917,96951
7538.0,8738,-31518,75958,96994
7540.0,9102,-31508,75713,96819
7542.0,9289,-31335,75488,96670
7544.0,9003,-31212,75544,96754
7546.0,8689,-31318,75712,96912
7548.0,8913,-31522,75687,96868
7550.0,9486,-31626,75453,96624
7552.0,9617,-31607,75310,96475
7554.0,9026,-31592,75444,96596
7556.0,8467,-31657,75586,96731
7558.0,8665,-31681,75451,96627
7560.0,9223,-31524,75250,96488
7562.0,9339,-31317,75274,96549
7564.0,9092,-31281,75373,96634
7566.0,9039,-31327,75360,96578
7568.0,9147,-31184,75350,96530
7570.0,9085,-30868,75386,96561
7572.0,8975,-30672,75347,96547
7574.0,9060,-30751,75261,96476
7576.0,9195,-30955,75223,96423
7578.0,9176,-31048,75183,96367
7580.0,9113,-30926,75115,96309
7582.0,9187,-30697,75095,96299
7584.0,9355,-30571,75133,96321
7586.0,9424,-30616,75181,96348
7588.0,9312,-30675,75227,96393
7590.0,9165,-30617,75241,96411
7592.0,9165,-30489,75182,96337
7594.0,9284,-30341,75082,96228
7596.0,9324,-30156,75017,96200
7598.0,9159,-30017,75025,96249
7600.0,8899,-30022,75044,96252
7602.0,8809,-30043,74954,96121
7604.0,8953,-29891,74774,95955
7606.0,9047,-29658,74690,95936
7608.0,8942,-29598,74741,96030
7610.0,8901,-29731,74725,96012
7612.0,9050,-29809,74566,95856
7614.0,9067,-29688,74473,95790
7616.0,8795,-29548,74587,95914
7618.0,8589,-29621,74718,96038
7620.0,8760,-29788,74612,95961
7622.0,9136,-29741,74324,95727
7624.0,9329,-29507,74135,95543
7626.0,9205,-29421,74145,95489
7628.0,9067,-29610,74141,95420
7630.0,9202,-29860,73967,95210
7632.0,9314,-29970,73750,94957
7634.0,8961,-29956,73647,94814
7636.0,8474,-29948,73598,94739
7638.0,8518,-30043,73466,94581
7640.0,8923,-30214,73248,94322
7642.0,9003,-30347,73092,94133
7644.0,8739,-30393,73115,94152
7646.0,8620,-30433,73204,94265
7648.0,8733,-30565,73150,94241
7650.0,8862,-30742,72986,94084
7652.0,8984,-30789,72872,93950
7654.0,9124,-30639,72757,93816
7656.0,9161,-30471,72581,93642
7658.0,9040,-30466,72550,93602
7660.0,8894,-30543,72705,93722
7662.0,8873,-30550,72714,93704
7664.0,8950,-30542,72498,93493
7666.0,8917,-30598,72397,93407
7668.0,8654,-30628,72501,93522
7670.0,8377,-30555,72538,93566
7672.0,8414,-30438,72403,93436
7674.0,8766,-30338,72194,93245
7676.0,9060,-30306,71975,93071
7678.0,8985,-30376,71834,92971
7680.0,8731,-30408,71825,92963
7682.0,8757,-30265,71837,92956
7684.0,9120,-30136,71813,92928
7686.0,9412,-30190,71817,92948
7688.0,9411,-30180,71812,92951
7690.0,9279,-30009,71760,92895
7692.0,9158,-30076,71776,92927
7694.0,9081,-30439,71831,93029
