t,lead_I,lead_II,v3,v4
0.8,2964,23333,-29447,-19954
2.8,2573,22636,-29714,-20158
4.8,1450,21748,-29332,-19795
6.8,523,21168,-29108,-19609
8.8,664,21257,-29524,-20002
10.8,1515,21718,-29941,-20361
12.8,2408,22269,-29960,-20343
14.8,3216,22989,-29825,-20188
16.8,3809,23636,-29637,-19983
18.8,3761,23660,-29413,-19757
20.8,3135,23235,-29335,-19703
22.8,2433,22939,-29327,-19726
24.8,1712,22597,-29149,-19566
26.8,991,21948,-29001,-19426
28.8,847,21610,-29200,-19625
30.8,1484,22010,-29519,-19938
32.8,2361,22704,-29600,-19996
34.8,3150,23398,-29507,-19866
36.8,3716,24027,-29411,-19758
38.8,3664,24137,-29309,-19688
40.8,3022,23609,-29225,-19635
42.8,2263,22954,-29161,-19577
44.8,1459,22374,-29011,-19458
46.8,783,21972,-28902,-19403
48.8,871,22282,-29114,-19608
50.8,1588,23140,-29482,-19907
52.8,2141,23561,-29591,-19963
54.8,2622,23503,-29492,-19841
56.8,3343,23706,-29499,-19817
58.8,3573,23964,-29535,-19852
60.8,2916,23681,-29367,-19742
62.8,2169,23174,-29112,-19542
64.8,1690,22816,-29001,-19442
66.8,1088,22325,-29082,-19526
68.8,644,21762,-29343,-19790
70.8,941,21726,-29681,-20107
72.8,1740,22334,-29829,-20238
74.8,2529,23098,-29715,-20140
76.8,3070,23567,-29609,-20066
78.8,3077,23557,-29647,-20138
80.8,2493,23163,-29639,-20169
82.8,1747,22662,-29510,-20053
84.8,1124,22193,-29440,-19973
86.8,669,21757,-29543,-20090
88.8,594,21486,-29775,-20341
90.8,952,21542,-30011,-20537
92.8,1504,21911,-30070,-20535
94.8,2179,22457,-29936,-20396
96.8,2840,22954,-29869,-20352
98.8,2986,23112,-29963,-20440
100.8,2489,22849,-29936,-20418
102.8,1844,22382,-29666,-20213
104.8,1340,21952,-29484,-20099
106.8,961,21668,-29637,-20261
108.8,861,21607,-29935,-20521
110.8,1113,21797,-30083,-20628
112.8,1521,22137,-30059,-20573
114.8,2011,22494,-30005,-20502
116.8,2507,22808,-29961,-20457
118.8,2687,22992,-29878,-20379
120.8,2446,22914,-29810,-20310
122.8,2006,22606,-29817,-20313
124.8,1459,22311,-29803,-20301
126.8,955,22148,-29749,-20252
128.8,873,22004,-29837,-20333
130.8,1187,21874,-30055,-20532
132.8,1511,21967,-30132,-20604
134.8,1856,22322,-30026,-20517
136.8,2328,22682,-29923,-20433
138.8,2509,22779,-29846,-20344
140.8,2113,22504,-29750,-20219
142.8,1502,21981,-29707,-20179
144.8,1022,21619,-29724,-20218
146.8,765,21684,-29750,-20215
148.8,907,21906,-29853,-20240
150.8,1421,21976,-30018,-20375
152.8,1914,22114,-30067,-20471
154.8,2222,22527,-29974,-20416
156.8,2458,22844,-29865,-20298
158.8,2496,22706,-29794,-20222
160.8,2161,22325,-29811,-20245
162.8,1616,22036,-29932,-20354
164.8,1128,21874,-29994,-20396
166.8,878,21829,-29926,-20313
168.8,1005,21928,-29912,-20280
170.8,1419,22069,-29990,-20354
172.8,1857,22181,-29997,-20382
174.8,2210,22340,-29955,-20343
176.8,2418,22488,-29949,-20321
178.8,2367,22482,-29899,-20292
180.8,2200,22416,-29837,-20271
182.8,2102,22364,-29890,-20315
184.8,1820,22106,-29922,-20312
186.8,1248,21684,-29828,-20216
188.8,965,21634,-29852,-20249
190.8,1308,22072,-30092,-20474
192.8,1760,22357,-30244,-20629
194.8,1944,22146,-30144,-20564
196.8,2100,21899,-29993,-20426
198.8,2254,22000,-29969,-20393
200.8,2095,22242,-30053,-20493
202.8,1693,22290,-30092,-20569
204.8,1337,22021,-29959,-20456
206.8,1053,21563,-29787,-20283
208.8,924,21334,-29801,-20280
210.8,1213,21652,-29928,-20372
212.8,1794,22250,-29966,-20381
214.8,2182,22651,-29931,-20348
216.8,2205,22748,-29861,-20297
218.8,2091,22673,-29704,-20160
220.8,2007,22588,-29541,-20022
222.8,1900,22744,-29478,-19983
224.8,1638,23089,-29439,-19962
226.8,1250,23101,-29378,-19922
228.8,1029,22641,-29331,-19895
230.8,1224,22319,-29223,-19786
232.83,1682,22500,-29074,-19632
234.85,2049,22831,-29122,-19708
236.88,2186,23037,-29378,-20006
238.9,2152,23191,-29534,-20179
240.9,1978,23193,-29452,-20094
242.9,1676,22876,-29271,-19901
244.9,1374,22507,-29116,-19711
246.9,1257,22470,-29071,-19622
248.9,1376,22740,-29164,-19689
250.9,1654,23069,-29260,-19750
252.9,2036,23348,-29242,-19669
254.9,2408,23482,-29210,-19593
256.9,2512,23341,-29278,-19656
258.9,2295,23048,-29371,-19734
260.9,2086,22924,-29408,-19733
262.9,2080,22994,-29438,-19740
264.9,2056,22971,-29487,-19781
266.9,1874,22752,-29463,-19742
268.9,1723,22505,-29359,-19645
270.9,1724,22345,-29394,-19708
272.9,1822,22296,-29677,-19983
274.9,2005,22342,-29931,-20216
276.9,2219,22348,-29912,-20235
278.9,2249,22233,-29813,-20196
280.9,1978,22115,-29880,-20269
282.9,1575,21975,-30040,-20416
284.9,1317,21662,-30140,-20536
286.9,1303,21371,-30181,-20575
288.9,1402,21401,-30215,-20556
290.9,1504,21561,-30294,-20595
292.9,1683,21602,-30416,-20716
294.9,1956,21742,-30464,-20772
296.9,2096,21998,-30405,-20734
298.9,1961,21883,-30358,-20716
300.9,1726,21374,-30320,-20682
302.9,1581,21085,-30224,-20571
304.9,1494,21181,-30201,-20554
306.9,1413,21228,-30312,-20680
308.9,1377,21113,-30349,-20720
310.9,1412,21131,-30289,-20683
312.9,1540,21390,-30388,-20813
314.9,1806,21743,-30591,-21005
316.9,2111,21959,-30580,-20968
318.9,2224,21837,-30398,-20821
320.9,2045,21504,-30332,-20823
322.9,1707,21331,-30375,-20871
324.9,1431,21358,-30358,-20784
326.9,1367,21377,-30309,-20677
328.9,1475,21426,-30345,-20713
330.9,1545,21531,-30437,-20838
332.9,1528,21452,-30463,-20902
334.9,1647,21270,-30423,-20878
336.9,1961,21405,-30461,-20902
338.9,2101,21722,-30603,-21031
340.9,1796,21631,-30632,-21083
342.9,1372,21154,-30451,-20938
344.9,1306,20817,-30294,-20789
346.9,1520,20677,-30322,-20840
348.9,1591,20430,-30433,-21045
350.9,1476,20124,-30533,-21279
352.9,1516,20022,-30511,-21396
354.9,1847,20185,-30147,-21194
356.9,2263,20636,-29478,-20662
358.9,2561,21383,-28829,-19995
360.9,2635,22143,-28291,-19241
362.9,2415,22651,-27763,-18351
364.9,1991,23197,-27409,-17494
366.9,1625,24176,-27473,-16905
368.9,1492,25424,-27870,-16571
370.9,1547,26567,-28322,-16273
372.9,1597,27567,-28621,-15806
374.9,1473,28461,-28832,-15282
376.9,1208,29149,-29367,-15180
378.9,951,29608,-30477,-15774
380.9,658,29712,-31833,-16881
382.9,179,28984,-33188,-18529
384.9,-332,27232,-34800,-20990
386.9,-559,25077,-36541,-23740
388.9,-488,23320,-37564,-25560
390.9,-327,22254,-37492,-26032
392.9,-118,21836,-36892,-25817
394.9,203,21857,-36226,-25413
396.9,545,21890,-35384,-24769
398.9,740,21700,-34386,-23985
400.9,759,21547,-33583,-23385
402.9,706,21641,-33036,-22973
404.9,685,21756,-32465,-22500
406.9,779,21736,-31845,-21969
408.9,1052,21746,-31429,-21593
410.9,1387,21787,-31248,-21415
412.9,1525,21612,-31126,-21336
414.9,1462,21260,-31027,-21317
416.9,1490,21036,-30937,-21297
418.9,1695,21009,-30780,-21210
420.9,1845,21030,-30680,-21184
422.9,1810,21040,-30800,-21318
424.9,1645,21011,-30928,-21388
426.9,1407,20900,-30815,-21244
428.9,1272,20801,-30639,-21105
430.9,1432,20796,-30615,-21112
432.9,1717,20783,-30636,-21114
434.9,1834,20754,-30630,-21081
436.9,1867,20892,-30658,-21115
438.9,1989,21105,-30666,-21153
440.9,2030,21042,-30608,-21114
442.9,1837,20745,-30574,-21063
444.9,1598,20643,-30569,-21014
446.9,1489,20829,-30540,-20941
448.9,1463,20977,-30540,-20908
450.9,1509,20920,-30559,-20912
452.9,1682,20800,-30512,-20879
454.9,1891,20811,-30467,-20881
456.9,1968,21033,-30502,-20987
458.9,1867,21290,-30514,-21073
460.9,1683,21247,-30467,-21054
462.9,1586,20908,-30438,-20979
464.9,1647,20664,-30376,-20864
466.9,1701,20646,-30260,-20757
468.9,1590,20639,-30239,-20779
470.9,1499,20690,-30339,-20893
472.9,1664,20977,-30444,-20980
474.9,1905,21254,-30566,-21067
476.9,1910,21231,-30685,-21142
478.9,1760,21085,-30641,-21085
481.0,1723,21012,-30488,-20961
483.0,1793,20944,-30446,-20941
485.0,1828,20906,-30456,-20935
487.0,1828,20918,-30355,-20807
489.0,1829,20809,-30259,-20691
491.0,1824,20719,-30309,-20735
493.0,1873,20990,-30402,-20865
495.0,1966,21303,-30412,-20952
497.0,1922,21139,-30351,-20928
499.0,1764,20870,-30283,-20826
501.0,1807,21036,-30284,-20779
503.0,2065,21263,-30331,-20811
505.0,2111,21146,-30305,-20781
507.0,1867,21038,-30245,-20695
509.0,1772,21147,-30278,-20701
511.0,1973,21193,-30292,-20731
513.0,2139,21217,-30148,-20644
515.0,2160,21431,-30034,-20568
517.0,2193,21544,-30118,-20632
519.0,2134,21302,-30214,-20683
521.0,1862,21043,-30166,-20603
523.0,1679,21061,-30084,-20499
525.0,1786,21169,-30047,-20441
527.0,1919,21186,-30019,-20399
529.0,1967,21195,-30007,-20375
531.0,2136,21272,-29984,-20338
533.0,2306,21366,-29861,-20220
535.0,2194,21394,-29720,-20099
537.0,2063,21347,-29758,-20147
539.0,2252,21336,-29928,-20322
541.0,2430,21438,-29971,-20391
543.0,2231,21513,-29814,-20261
545.0,1996,21424,-29644,-20081
547.0,2093,21362,-29577,-19976
549.0,2277,21527,-29528,-19905
551.0,2294,21700,-29478,-19845
553.0,2339,21656,-29531,-19864
555.0,2545,21682,-29646,-19939
557.0,2705,21997,-29643,-19941
559.0,2723,22208,-29510,-19850
561.0,2744,22066,-29391,-19749
563.0,2791,21987,-29319,-19655
565.0,2768,22203,-29232,-19539
567.0,2728,22352,-29138,-19417
569.0,2739,22267,-29104,-19339
571.0,2689,22188,-29181,-19388
573.0,2556,22200,-29327,-19563
575.0,2533,22211,-29387,-19671
577.0,2663,22210,-29298,-19577
579.0,2761,22177,-29210,-19436
581.0,2758,22189,-29205,-19428
583.0,2727,22428,-29190,-19487
585.0,2648,22703,-29143,-19493
587.0,2521,22654,-29109,-19431
589.0,2514,22538,-29054,-19341
591.0,2689,22784,-29024,-19320
593.0,2851,23045,-29113,-19402
595.0,2824,22867,-29183,-19433
597.0,2694,22615,-29092,-19333
599.0,2658,22697,-29002,-19268
601.0,2776,22811,-29033,-19288
603.0,2908,22733,-29041,-19247
605.0,2887,22768,-28993,-19183
607.0,2715,22969,-28983,-19206
609.0,2565,22997,-28960,-19214
611.0,2569,22878,-28939,-19193
613.0,2656,22874,-29068,-19324
615.0,2645,22799,-29223,-19518
617.0,2515,22456,-29186,-19545
619.0,2451,22282,-29124,-19526
621.0,2538,22595,-29201,-19612
623.0,2596,22837,-29213,-19618
625.0,2476,22538,-29101,-19497
627.0,2261,22175,-29117,-19504
629.0,2082,22216,-29268,-19652
631.0,1995,22314,-29350,-19725
633.0,2052,22202,-29391,-19748
635.0,2204,22223,-29505,-19861
637.0,2260,22416,-29621,-19997
639.0,2157,22319,-29666,-20046
641.0,2074,21957,-29642,-20014
643.0,2111,21863,-29549,-19942
645.0,2147,22085,-29467,-19901
647.0,2077,22179,-29489,-19939
649.0,1953,22028,-29550,-20009
651.0,1917,21889,-29567,-20064
653.0,2077,21884,-29567,-20089
655.0,2321,21924,-29582,-20079
657.0,2349,21921,-29643,-20098
659.0,2116,21894,-29758,-20192
661.0,1942,21938,-29796,-20213
663.0,2005,22054,-29690,-20083
665.0,2114,22101,-29628,-20015
667.0,2099,22020,-29696,-20098
669.0,1994,21903,-29706,-20110
671.0,1886,21809,-29618,-19997
673.0,1887,21771,-29607,-19972
675.0,2070,21878,-29675,-20060
677.0,2276,22084,-29676,-20085
679.0,2248,22195,-29624,-20046
681.0,1992,22183,-29642,-20081
683.0,1784,22179,-29743,-20195
685.0,1825,22157,-29805,-20232
687.0,2024,22030,-29733,-20117
689.0,2120,21953,-29624,-20008
691.0,2029,22096,-29621,-20049
693.0,1969,22279,-29661,-20128
695.0,2122,22268,-29658,-20128
697.0,2316,22186,-29676,-20126
699.0,2275,22208,-29681,-20117
701.0,2036,22166,-29568,-20016
703.0,1874,21938,-29504,-19964
705.0,1931,21832,-29641,-20088
707.0,2099,22082,-29748,-20191
709.0,2190,22380,-29666,-20133
711.0,2108,22351,-29597,-20073
713.0,1940,22115,-29651,-20088
715.0,1890,22013,-29708,-20098
717.0,2045,22100,-29728,-20106
719.0,2234,22148,-29736,-20135
721.0,2250,22033,-29734,-20154
723.0,2122,21917,-29786,-20174
725.0,2039,21995,-29863,-20157
727.0,2107,22163,-29812,-20018
729.0,2269,22177,-29679,-19858
731.0,2364,22020,-29647,-19826
733.03,2294,21915,-29695,-19859
735.05,2202,22040,-29741,-19901
737.08,2270,22323,-29820,-19993
739.1,2356,22452,-29871,-20030
741.1,2245,22230,-29814,-19920
743.1,2109,21947,-29763,-19824
745.1,2201,21994,-29771,-19810
747.1,2340,22186,-29736,-19762
749.1,2257,22101,-29727,-19748
751.1,2096,21894,-29851,-19872
753.1,2079,21959,-29954,-19966
755.1,2128,22125,-29923,-19929
757.1,2145,22063,-29896,-19919
759.1,2207,21980,-29910,-19956
761.1,2294,22069,-29858,-19898
763.1,2243,22029,-29764,-19775
765.1,2060,21850,-29719,-19713
767.1,1981,22063,-29754,-19736
769.1,2161,22624,-29838,-19795
771.1,2406,22757,-29812,-19758
773.1,2386,22341,-29576,-19544
775.1,2153,22135,-29342,-19334
777.1,2083,22410,-29307,-19316
779.1,2245,22655,-29339,-19390
781.1,2326,22661,-29333,-19440
783.1,2230,22720,-29338,-19466
785.1,2136,22872,-29271,-19392
787.1,2088,22934,-29128,-19263
789.1,2075,22984,-29163,-19310
791.1,2200,23119,-29335,-19457
793.1,2356,23105,-29285,-19391
795.1,2285,22831,-29090,-19224
797.1,2127,22672,-29122,-19273
799.1,2226,22914,-29289,-19415
801.1,2455,23240,-29287,-19389
803.1,2442,23252,-29158,-19259
805.1,2264,23110,-29040,-19118
807.1,2247,23163,-28927,-18955
809.1,2390,23342,-28908,-18908
811.1,2507,23402,-29058,-19066
813.1,2548,23364,-29199,-19207
815.1,2489,23327,-29185,-19169
817.1,2302,23208,-29152,-19121
819.1,2168,23001,-29233,-19206
821.1,2282,22900,-29335,-19297
823.1,2489,22932,-29338,-19265
825.1,2546,22858,-29298,-19207
827.1,2509,22602,-29325,-19244
829.1,2497,22405,-29358,-19288
831.1,2431,22426,-29326,-19261
833.1,2282,22473,-29388,-19332
835.1,2160,22324,-29657,-19611
837.1,2105,22062,-29885,-19853
839.1,2103,21932,-29869,-19853
841.1,2160,21996,-29807,-19798
843.1,2178,22071,-29899,-19882
845.1,2051,21969,-30026,-19992
847.1,1915,21733,-30043,-19993
849.1,1942,21598,-29997,-19944
851.1,2087,21688,-29997,-19961
853.1,2265,21819,-30093,-20076
855.1,2392,21719,-30210,-20196
857.1,2272,21409,-30227,-20225
859.1,1934,21223,-30193,-20209
861.1,1839,21401,-30207,-20200
863.1,2178,21765,-30182,-20130
865.1,2449,21938,-30094,-20041
867.1,2271,21842,-30121,-20095
869.1,2000,21716,-30239,-20219
871.1,2063,21678,-30241,-20221
873.1,2306,21648,-30209,-20202
875.1,2381,21621,-30313,-20306
877.1,2265,21580,-30393,-20381
879.1,2133,21374,-30299,-20304
881.1,2101,21138,-30196,-20207
883.1,2193,21311,-30205,-20195
885.1,2326,21805,-30228,-20217
887.1,2312,21942,-30190,-20192
889.1,2066,21571,-30117,-20088
891.1,1808,21297,-30115,-20031
893.1,1850,21390,-30259,-20168
895.1,2155,21512,-30398,-20338
897.1,2347,21561,-30363,-20322
899.1,2244,21728,-30317,-20269
901.1,2091,21807,-30390,-20332
903.1,2141,21441,-30403,-20360
905.1,2323,20858,-30342,-20367
907.1,2441,20564,-30397,-20547
909.1,2435,20578,-30402,-20721
911.1,2369,20610,-30075,-20587
913.1,2390,20713,-29533,-20206
915.1,2615,21135,-28922,-19635
917.1,2925,21775,-28207,-18794
919.1,3048,22360,-27594,-17896
921.1,2934,23058,-27313,-17153
923.1,2810,24240,-27196,-16400
925.1,2761,25709,-27170,-15656
927.1,2606,26866,-27451,-15230
929.1,2290,27596,-27890,-14973
931.1,1975,28248,-28151,-14536
933.1,1700,28937,-28493,-14234
935.1,1373,29487,-29339,-14550
937.1,1093,29736,-30553,-15415
939.1,1004,29367,-31925,-16820
941.1,944,28032,-33578,-19072
943.1,727,25999,-35365,-21865
945.1,505,24084,-36692,-24163
947.1,454,22758,-37194,-25325
949.1,490,21924,-37011,-25545
951.1,585,21491,-36429,-25239
953.1,829,21522,-35647,-24661
955.1,1087,21816,-34794,-23983
957.1,1176,21941,-33983,-23325
959.1,1270,21830,-33278,-22715
961.1,1530,21854,-32625,-22099
963.1,1722,22141,-31958,-21475
965.1,1733,22323,-31372,-20964
967.1,1854,22170,-31018,-20686
969.1,2145,21892,-30890,-20624
971.1,2251,21649,-30866,-20656
973.1,2119,21357,-30835,-20667
975.1,2102,21097,-30765,-20623
977.1,2288,21112,-30719,-20595
979.1,2419,21332,-30717,-20605
981.2,2377,21434,-30665,-20567
983.2,2250,21301,-30563,-20468
985.2,2142,21085,-30524,-20402
987.2,2183,20975,-30529,-20399
989.2,2412,21094,-30510,-20444
991.2,2601,21380,-30524,-20531
993.2,2514,21527,-30581,-20596
995.2,2286,21363,-30623,-20619
997.2,2212,21151,-30659,-20665
999.2,2303,21165,-30633,-20647
1001.2,2360,21251,-30479,-20457
1003.2,2347,21217,-30400,-20328
1005.2,2371,21212,-30520,-20419
1007.2,2404,21329,-30540,-20442
1009.2,2377,21370,-30355,-20283
1011.2,2403,21328,-30311,-20253
1013.2,2532,21463,-30471,-20401
1015.2,2548,21691,-30546,-20468
1017.2,2391,21605,-30521,-20470
1019.2,2388,21235,-30506,-20486
1021.2,2643,21047,-30401,-20380
1023.2,2759,21189,-30258,-20218
1025.2,2560,21371,-30256,-20214
1027.2,2419,21445,-30280,-20248
1029.2,2533,21518,-30208,-20169
1031.2,2592,21624,-30219,-20151
1033.2,2480,21670,-30355,-20268
1035.2,2505,21619,-30425,-20357
1037.2,2723,21513,-30413,-20382
1039.2,2804,21447,-30371,-20359
1041.2,2695,21470,-30263,-20243
1043.2,2653,21489,-30205,-20168
1045.2,2668,21428,-30299,-20259
1047.2,2555,21369,-30352,-20314
1049.2,2427,21363,-30269,-20221
1051.2,2444,21334,-30264,-20199
1053.2,2471,21282,-30361,-20295
1055.2,2439,21285,-30367,-20311
1057.2,2529,21344,-30317,-20254
1059.2,2729,21454,-30330,-20249
1061.2,2802,21601,-30330,-20230
1063.2,2751,21666,-30280,-20150
1065.2,2753,21610,-30252,-20094
1067.2,2789,21596,-30236,-20081
1069.2,2776,21676,-30216,-20079
1071.2,2779,21686,-30230,-20091
1073.2,2834,21587,-30212,-20071
1075.2,2868,21557,-30109,-19990
1077.2,2826,21681,-30019,-19926
1079.2,2689,21777,-29988,-19914
1081.2,2538,21647,-29953,-19899
1083.2,2585,21471,-29913,-19859
1085.2,2869,21642,-29891,-19799
1087.2,3090,22057,-29880,-19756
1089.2,3041,22139,-29923,-19797
1091.2,2867,21776,-29973,-19841
1093.2,2741,21473,-29866,-19726
1095.2,2697,21451,-29684,-19563
1097.2,2796,21503,-29690,-19579
1099.2,2995,21620,-29824,-19680
1101.2,3057,21874,-29806,-19640
1103.2,2927,22017,-29644,-19510
1105.2,2890,21904,-29554,-19451
1107.2,3111,21857,-29561,-19445
1109.2,3375,22092,-29515,-19375
1111.2,3420,22331,-29386,-19248
1113.2,3295,22319,-29347,-19219
1115.2,3264,22207,-29461,-19322
1117.2,3417,22239,-29488,-19328
1119.2,3537,22439,-29322,-19143
1121.2,3479,22654,-29217,-19012
1123.2,3412,22709,-29251,-19010
1125.2,3489,22599,-29197,-18911
1127.2,3596,22553,-29084,-18740
1129.2,3584,22709,-29095,-18711
1131.2,3458,22862,-29103,-18735
1133.2,3320,22835,-29034,-18700
1135.2,3299,22801,-29082,-18736
1137.2,3434,22910,-29186,-18806
1139.2,3552,23004,-29127,-18758
1141.2,3489,22964,-29068,-18717
1143.2,3315,22872,-29140,-18756
1145.2,3174,22781,-29087,-18666
1147.2,3142,22753,-28891,-18478
1149.2,3246,22944,-28875,-18476
1151.2,3370,23277,-29034,-18636
1153.2,3348,23411,-29122,-18744
1155.2,3286,23285,-29115,-18765
1157.2,3382,23162,-29056,-18707
1159.2,3494,23132,-28951,-18591
1161.2,3414,23115,-28923,-18560
1163.2,3318,23167,-28995,-18619
1165.2,3387,23296,-29010,-18614
1167.2,3430,23311,-28983,-18599
1169.2,3311,23156,-29034,-18701
1171.2,3252,23024,-29089,-18802
1173.2,3337,23033,-29086,-18808
1175.2,3279,23092,-29114,-18829
1177.2,3004,23102,-29162,-18904
1179.2,2904,23082,-29168,-18963
1181.2,3151,23065,-29187,-18998
1183.2,3317,23024,-29215,-19011
1185.2,3132,22955,-29204,-19012
1187.2,2955,22943,-29232,-19073
1189.2,3027,22990,-29311,-19156
1191.2,3036,22903,-29334,-19162
1193.2,2867,22633,-29352,-19179
1195.2,2828,22461,-29460,-19298
1197.2,2911,22545,-29546,-19398
1199.2,2809,22657,-29563,-19431
1201.2,2633,22641,-29620,-19497
1203.2,2685,22633,-29672,-19562
1205.2,2828,22640,-29622,-19537
1207.2,2818,22515,-29582,-19504
1209.2,2795,22413,-29635,-19535
1211.2,2924,22592,-29700,-19588
1213.2,3049,22826,-29754,-19658
1215.2,2992,22732,-29783,-19704
1217.2,2842,22459,-29704,-19641
1219.2,2772,22393,-29604,-19553
1221.2,2779,22492,-29636,-19572
1223.2,2719,22487,-29694,-19610
1225.2,2591,22395,-29664,-19590
1227.2,2573,22411,-29669,-19609
1229.2,2733,22556,-29729,-19651
1231.2,2945,22673,-29703,-19606
1233.23,3083,22650,-29635,-19577
1235.25,3087,22590,-29658,-19669
1237.28,2919,22624,-29709,-19741
1239.3,2666,22610,-29713,-19704
1241.3,2555,22424,-29722,-19672
1243.3,2702,22375,-29723,-19658
1245.3,2919,22653,-29660,-19566
1247.3,2913,22815,-29620,-19492
1249.3,2712,22590,-29700,-19595
1251.3,2672,22464,-29816,-19780
1253.3,2873,22697,-29827,-19816
1255.3,2953,22804,-29752,-19705
1257.3,2828,22596,-29725,-19630
1259.3,2854,22552,-29732,-19603
1261.3,3057,22805,-29653,-19513
1263.3,3060,22906,-29587,-19464
1265.3,2866,22688,-29716,-19602
1267.3,2797,22437,-29855,-19722
1269.3,2838,22333,-29745,-19616
1271.3,2822,22395,-29612,-19521
1273.3,2836,22647,-29722,-19644
1275.3,2898,22901,-29863,-19758
1277.3,2830,22842,-29814,-19699
1279.3,2661,22540,-29709,-19604
1281.3,2589,22350,-29636,-19519
1283.3,2638,22300,-29580,-19439
1285.3,2740,22204,-29637,-19497
1287.3,2860,22174,-29786,-19664
1289.3,2858,22357,-29827,-19728
1291.3,2646,22501,-29775,-19697
1293.3,2472,22402,-29768,-19694
1295.3,2598,22325,-29774,-19680
1297.3,2830,22497,-29764,-19648
1299.3,2803,22676,-29766,-19651
1301.3,2583,22626,-29707,-19613
1303.3,2561,22533,-29630,-19556
1305.3,2787,22622,-29728,-19653
1307.3,2877,22699,-29898,-19817
1309.3,2691,22475,-29885,-19817
1311.3,2599,22161,-29789,-19741
1313.3,2791,22173,-29767,-19716
1315.3,2929,22387,-29690,-19625
1317.3,2812,22415,-29539,-19486
1319.3,2721,22430,-29510,-19482
1321.3,2822,22791,-29586,-19563
1323.3,2932,23205,-29606,-19566
1325.3,2982,23223,-29538,-19489
1327.3,3045,23040,-29401,-19363
1329.3,3001,22978,-29280,-19261
1331.3,2756,22912,-29305,-19315
1333.3,2558,22782,-29328,-19385
1335.3,2638,22836,-29145,-19238
1337.3,2842,23096,-28989,-19067
1339.3,2921,23274,-29081,-19120
1341.3,2873,23224,-29165,-19195
1343.3,2812,23057,-29111,-19156
1345.3,2763,23000,-29177,-19234
1347.3,2744,23210,-29356,-19423
1349.3,2816,23489,-29377,-19439
1351.3,2912,23473,-29270,-19285
1353.3,2875,23305,-29174,-19147
1355.3,2774,23448,-29056,-19042
1357.3,2862,23806,-28979,-18979
1359.3,3113,23874,-29033,-18985
1361.3,3226,23663,-29068,-18959
1363.3,3124,23592,-29014,-18882
1365.3,3028,23689,-29022,-18883
1367.3,3079,23689,-29099,-18964
1369.3,3213,23573,-29149,-19047
1371.3,3309,23475,-29215,-19133
1373.3,3261,23372,-29267,-19161
1375.3,3076,23199,-29188,-19065
1377.3,2915,23001,-29122,-19011
1379.3,2904,22876,-29270,-19163
1381.3,2981,22870,-29469,-19360
1383.3,3026,22915,-29496,-19415
1385.3,3023,22903,-29500,-19445
1387.3,3040,22836,-29677,-19609
1389.3,3071,22733,-29873,-19788
1391.3,2986,22501,-29880,-19813
1393.3,2766,22153,-29844,-19800
1395.3,2644,21958,-29987,-19931
1397.3,2784,22062,-30160,-20077
1399.3,2976,22232,-30122,-20031
1401.3,2951,22210,-30005,-19925
1403.3,2763,22054,-30017,-19952
1405.3,2648,21945,-30076,-20028
1407.3,2688,21910,-30090,-20061
1409.3,2785,21902,-30118,-20099
1411.3,2832,21940,-30120,-20100
1413.3,2818,22024,-30085,-20059
1415.3,2789,22075,-30157,-20117
1417.3,2786,22033,-30255,-20209
1419.3,2854,21939,-30144,-20136
1421.3,2982,21903,-29987,-20048
1423.3,3021,21971,-30068,-20150
1425.3,2863,21980,-30221,-20265
1427.3,2678,21769,-30246,-20271
1429.3,2709,21584,-30268,-20320
1431.3,2909,21798,-30290,-20351
1433.3,3024,22179,-30195,-20219
1435.3,2964,22195,-30143,-20121
1437.3,2890,21985,-30232,-20180
1439.3,2944,22008,-30234,-20172
1441.3,3035,22076,-30105,-20068
1443.3,3028,21875,-30075,-20081
1445.3,2985,21770,-30157,-20176
1447.3,2970,21978,-30222,-20225
1449.3,2877,22014,-30290,-20299
1451.3,2748,21777,-30351,-20393
1453.3,2838,21795,-30348,-20395
1455.3,3074,21961,-30335,-20367
1457.3,3104,21637,-30328,-20404
1459.3,2993,21031,-30274,-20465
1461.3,3087,20870,-30214,-20542
1463.3,3272,21099,-30091,-20580
1465.3,3240,21254,-29686,-20358
1467.3,3172,21472,-29016,-19770
1469.3,3367,22074,-28318,-18947
1471.3,3643,22889,-27699,-18038
1473.3,3700,23691,-27245,-17152
1475.3,3554,24578,-27072,-16382
1477.3,3280,25537,-27093,-15775
1479.3,2927,26360,-27268,-15421
1481.3,2722,27112,-27741,-15333
1483.3,2748,28004,-28321,-15214
1485.3,2652,28871,-28667,-14919
1487.3,2198,29392,-29093,-14900
1489.3,1685,29536,-30120,-15588
1491.3,1416,29213,-31609,-16988
1493.33,1306,28061,-33295,-19182
1495.35,1227,26158,-35177,-22060
1497.38,1178,24232,-36791,-24615
1499.4,1118,22773,-37432,-25872
1501.4,1069,21741,-37233,-26077
1503.4,1163,21178,-36773,-25877
1505.4,1382,21185,-36120,-25342
1507.4,1571,21459,-35223,-24529
1509.4,1694,21640,-34356,-23803
1511.4,1810,21778,-33647,-23229
1513.4,1967,21987,-32994,-22634
1515.4,2229,22179,-32397,-22063
1517.4,2537,22294,-31843,-21573
1519.4,2683,22317,-31310,-21130
1521.4,2652,22196,-31003,-20897
1523.4,2666,21988,-30993,-20942
1525.4,2759,21795,-30917,-20938
1527.4,2777,21582,-30632,-20740
1529.4,2723,21322,-30505,-20671
1531.4,2727,21134,-30648,-20828
1533.4,2844,21121,-30671,-20849
1535.4,3046,21286,-30469,-20645
1537.4,3151,21555,-30415,-20567
1539.4,2972,21764,-30590,-20691
1541.4,2720,21835,-30608,-20684
1543.4,2774,21823,-30393,-20495
1545.4,3004,21659,-30329,-20457
1547.4,3041,21308,-30481,-20599
1549.4,3009,21092,-30498,-20621
1551.4,3125,21236,-30355,-20513
1553.4,3132,21420,-30345,-20494
1555.4,2934,21393,-30436,-20525
1557.4,2936,21381,-30412,-20472
1559.4,3148,21506,-30327,-20398
1561.4,3084,21560,-30287,-20352
1563.4,2822,21520,-30274,-20318
1565.4,2871,21544,-30332,-20371
1567.4,3097,21572,-30451,-20496
1569.4,3067,21476,-30478,-20532
1571.4,2977,21352,-30429,-20498
1573.4,3135,21333,-30415,-20485
1575.4,3262,21395,-30348,-20398
1577.4,3128,21489,-30219,-20244
1579.4,3004,21610,-30205,-20212
1581.4,3042,21673,-30254,-20259
1583.4,3057,21589,-30227,-20258
1585.4,3022,21541,-30294,-20351
1587.4,3057,21783,-30512,-20570
1589.4,3129,22088,-30578,-20644
1591.4,3200,22002,-30436,-20531
1593.4,3286,21699,-30355,-20446
1595.4,3271,21714,-30350,-20392
1597.4,3118,21901,-30255,-20271
1599.4,3079,21753,-30108,-20160
1601.4,3281,21470,-30027,-20136
1603.4,3455,21559,-30066,-20200
1605.4,3385,21826,-30195,-20326
1607.4,3203,21816,-30236,-20369
1609.4,3111,21655,-30115,-20265
1611.4,3155,21622,-30066,-20225
1613.4,3232,21603,-30173,-20331
1615.4,3218,21517,-30211,-20373
1617.4,3179,21550,-30172,-20318
1619.4,3278,21706,-30207,-20299
1621.4,3418,21793,-30219,-20263
1623.4,3372,21857,-30185,-20216
1625.4,3246,21989,-30281,-20295
1627.4,3283,21985,-30357,-20344
1629.4,3421,21776,-30192,-20184
1631.4,3494,21714,-30074,-20087
1633.4,3523,21880,-30189,-20194
1635.4,3509,21870,-30171,-20173
1637.4,3411,21690,-29957,-19985
1639.4,3371,21844,-29946,-19978
1641.4,3508,22224,-30090,-20088
1643.4,3622,22141,-30042,-20014
1645.4,3542,21664,-29919,-19887
1647.4,3428,21545,-29945,-19915
1649.4,3439,21831,-29971,-19962
1651.4,3520,21941,-29911,-19933
1653.4,3643,21868,-29877,-19892
1655.4,3817,21990,-29806,-19788
1657.4,3868,22142,-29651,-19612
1659.4,3683,22024,-29596,-19551
1661.4,3510,21911,-29688,-19638
1663.4,3599,22068,-29717,-19669
1665.4,3813,22209,-29637,-19580
1667.4,3920,22141,-29610,-19511
1669.4,3961,22141,-29653,-19508
1671.4,4025,22349,-29623,-19465
1673.4,4042,22549,-29502,-19346
1675.4,4013,22648,-29454,-19274
1677.4,4047,22733,-29516,-19287
1679.4,4091,22764,-29509,-19233
1681.4,4034,22706,-29372,-19069
1683.4,4018,22734,-29290,-18985
1685.4,4196,22933,-29330,-19040
1687.4,4351,23100,-29355,-19068
1689.4,4242,23098,-29318,-19012
1691.4,4030,23072,-29266,-18955
1693.4,4007,23121,-29209,-18921
1695.4,4191,23135,-29226,-18949
1697.4,4404,23141,-29359,-19055
1699.4,4445,23333,-29416,-19081
1701.4,4216,23571,-29267,-18934
1703.4,3940,23469,-29110,-18806
1705.4,3972,23175,-29100,-18837
1707.4,4232,23209,-29149,-18922
1709.4,4271,23492,-29193,-18974
1711.4,4008,23501,-29224,-18986
1713.4,3831,23279,-29182,-18920
1715.4,3939,23251,-29122,-18836
1717.4,4134,23385,-29164,-18873
1719.4,4222,23442,-29226,-18986
1721.4,4165,23480,-29194,-19027
1723.4,3954,23492,-29160,-19021
1725.4,3698,23294,-29215,-19089
1727.4,3638,23058,-29293,-19225
1729.4,3759,23113,-29329,-19315
1731.4,3738,23279,-29322,-19286
1733.4,3515,23189,-29303,-19225
1735.4,3451,22982,-29338,-19265
1737.4,3664,22960,-29401,-19352
1739.4,3804,22990,-29389,-19374
1741.4,3680,22864,-29374,-19427
1743.4,3524,22767,-29482,-19598
1745.4,3498,22874,-29599,-19732
1747.4,3521,22947,-29597,-19728
1749.4,3529,22796,-29584,-19718
1751.4,3524,22677,-29641,-19774
1753.43,3501,22834,-29686,-19838
1755.45,3524,23033,-29663,-19864
1757.48,3627,22945,-29581,-19807
1759.5,3668,22667,-29514,-19719
1761.5,3548,22535,-29602,-19784
1763.5,3412,22616,-29773,-19941
1765.5,3396,22661,-29771,-19908
1767.5,3444,22534,-29645,-19762
1769.5,3484,22432,-29648,-19788
1771.5,3525,22527,-29720,-19901
1773.5,3524,22653,-29715,-19928
1775.5,3396,22621,-29756,-20005
1777.5,3231,22569,-29860,-20139
1779.5,3252,22650,-29860,-20135
1781.5,3457,22755,-29823,-20077
1783.5,3553,22768,-29847,-20105
1785.5,3417,22731,-29779,-20063
1787.5,3318,22660,-29638,-19939
1789.5,3421,22589,-29640,-19949
1791.5,3496,22612,-29711,-20021
1793.5,3378,22653,-29703,-19995
1795.5,3261,22603,-29751,-20023
1797.5,3298,22613,-29844,-20144
1799.5,3362,22716,-29788,-20143
1801.5,3387,22638,-29727,-20077
1803.5,3465,22493,-29833,-20108
1805.5,3539,22746,-29838,-20059
1807.5,3428,23165,-29625,-19852
1809.5,3237,23096,-29558,-19807
1811.5,3272,22709,-29738,-20007
1813.5,3488,22584,-29812,-20121
1815.5,3505,22612,-29705,-20066
1817.5,3289,22517,-29694,-20074
1819.5,3257,22540,-29793,-20150
1821.5,3494,22753,-29766,-20099
1823.5,3554,22811,-29647,-19988
1825.5,3284,22686,-29691,-20043
1827.5,3126,22652,-29869,-20187
1829.5,3343,22710,-29885,-20163
1831.5,3621,22757,-29729,-20035
1833.5,3626,22806,-29696,-20058
1835.5,3435,22770,-29818,-20179
1837.5,3319,22627,-29864,-20198
1839.5,3423,22636,-29831,-20189
1841.5,3633,22840,-29832,-20231
1843.5,3712,22906,-29793,-20180
1845.5,3622,22794,-29723,-20088
1847.5,3544,22845,-29791,-20178
1849.5,3511,23041,-29895,-20314
1851.5,3428,23004,-29797,-20209
1853.5,3369,22729,-29630,-20026
1855.5,3412,22556,-29670,-20079
1857.5,3408,22558,-29859,-20305
1859.5,3354,22585,-29954,-20436
1861.5,3476,22631,-29876,-20381
1863.5,3679,22710,-29759,-20266
1865.5,3637,22771,-29782,-20267
1867.5,3461,22881,-29870,-20345
1869.5,3475,23044,-29756,-20272
1871.5,3580,23047,-29511,-20092
1873.5,3568,22928,-29469,-20081
1875.5,3543,23028,-29566,-20178
1877.5,3547,23281,-29471,-20104
1879.5,3436,23293,-29271,-19940
1881.5,3318,23147,-29245,-19923
1883.5,3415,23196,-29304,-19973
1885.5,3591,23360,-29271,-19946
1887.5,3585,23438,-29239,-19916
1889.5,3458,23558,-29294,-19967
1891.5,3448,23764,-29358,-20052
1893.5,3634,23844,-29358,-20095
1895.5,3874,23793,-29284,-20039
1897.5,3920,23791,-29194,-19925
1899.5,3689,23829,-29187,-19897
1901.5,3434,23850,-29245,-19983
1903.5,3433,23908,-29252,-20057
1905.5,3576,23936,-29204,-20040
1907.5,3571,23833,-29150,-19935
1909.5,3454,23769,-29093,-19806
1911.5,3505,23909,-29091,-19775
1913.5,3734,24095,-29180,-19841
1915.5,3850,24134,-29247,-19870
1917.5,3741,24027,-29275,-19901
1919.5,3608,23822,-29393,-20072
1921.5,3630,23627,-29536,-20234
1923.5,3777,23618,-29523,-20191
1925.5,3897,23721,-29426,-20084
1927.5,3873,23660,-29388,-20067
1929.5,3755,23434,-29370,-20049
1931.5,3700,23282,-29383,-20040
1933.5,3737,23264,-29509,-20167
1935.5,3778,23269,-29659,-20348
1937.5,3814,23224,-29733,-20458
1939.5,3827,23090,-29819,-20578
1941.5,3710,22899,-29949,-20739
1943.5,3526,22761,-30033,-20835
1945.5,3505,22695,-30059,-20852
1947.5,3621,22637,-30068,-20859
1949.5,3622,22623,-30101,-20907
1951.5,3495,22692,-30243,-21071
1953.5,3460,22727,-30420,-21264
1955.5,3569,22644,-30380,-21223
1957.5,3684,22563,-30180,-21001
1959.5,3700,22592,-30166,-20972
1961.5,3594,22607,-30326,-21154
1963.5,3419,22482,-30330,-21200
1965.5,3316,22343,-30203,-21085
1967.5,3377,22344,-30219,-21082
1969.5,3514,22385,-30301,-21166
1971.5,3557,22380,-30212,-21120
1973.5,3473,22484,-30096,-21048
1975.5,3420,22656,-30231,-21185
1977.5,3523,22576,-30475,-21401
1979.5,3669,22313,-30496,-21419
1981.5,3668,22273,-30361,-21310
1983.5,3545,22384,-30339,-21300
1985.5,3460,22285,-30371,-21318
1987.5,3475,22151,-30291,-21232
1989.5,3549,22293,-30233,-21180
1991.5,3575,22437,-30291,-21238
1993.5,3427,22299,-30312,-21254
1995.5,3200,22181,-30322,-21258
1997.5,3196,22291,-30473,-21392
1999.5,3423,22338,-30586,-21491
2001.5,3557,22237,-30483,-21398
2003.5,3548,22313,-30414,-21337
2005.5,3627,22497,-30496,-21428
2007.5,3766,22311,-30443,-21453
2009.5,3802,21807,-30237,-21390
2011.6,3795,21550,-30152,-21453
2013.6,3768,21648,-30097,-21559
2015.6,3633,21764,-29757,-21411
2017.6,3572,21926,-29136,-20896
2019.6,3792,22398,-28415,-20082
2021.6,4061,23091,-27739,-19152
2023.6,4121,23864,-27305,-18318
2025.6,4086,24853,-27174,-17584
2027.6,4025,26002,-27222,-16918
2029.6,3822,26976,-27484,-16541
2031.6,3543,27705,-28022,-16492
2033.6,3289,28349,-28549,-16378
2035.6,2946,28924,-28889,-16101
2037.6,2546,29482,-29402,-16125
2039.6,2346,30023,-30404,-16748
2041.6,2319,29980,-31792,-18030
2043.6,2188,28715,-33481,-20211
2045.6,1980,26581,-35397,-23160
2047.6,1941,24587,-37041,-25853
2049.6,2043,23214,-37828,-27324
2051.6,2085,22338,-37734,-27596
2053.6,2106,21837,-37167,-27234
2055.6,2272,21669,-36429,-26612
2057.6,2503,21744,-35593,-25877
2059.6,2604,21980,-34738,-25171
2061.6,2640,22260,-34031,-24611
2063.6,2798,22411,-33477,-24129
2065.6,3015,22425,-32844,-23526
2067.6,3102,22452,-32114,-22860
2069.6,3087,22512,-31581,-22427
2071.6,3140,22498,-31312,-22240
2073.6,3340,22414,-31077,-22047
2075.6,3623,22387,-30877,-21868
2077.6,3799,22422,-30862,-21887
2079.6,3716,22352,-30914,-21995
2081.6,3517,22109,-30886,-22013
2083.6,3477,21914,-30859,-22001
2085.6,3598,21957,-30834,-21983
2087.6,3664,22065,-30695,-21860
2089.6,3610,22038,-30549,-21714
2091.6,3579,22066,-30603,-21733
2093.6,3663,22313,-30767,-21860
2095.6,3746,22457,-30797,-21889
2097.6,3692,22199,-30690,-21828
2099.6,3599,21852,-30628,-21851
2101.6,3633,21849,-30637,-21938
2103.6,3740,22079,-30582,-21889
2105.6,3800,22200,-30485,-21726
2107.6,3844,22172,-30506,-21674
2109.6,3847,22117,-30572,-21708
2111.6,3685,22054,-30497,-21639
2113.6,3488,22008,-30399,-21565
2115.6,3497,22050,-30480,-21676
2117.6,3611,22091,-30634,-21842
2119.6,3596,21978,-30680,-21875
2121.6,3534,21821,-30631,-21796
2123.6,3608,21899,-30537,-21676
2125.6,3758,22216,-30475,-21603
2127.6,3864,22466,-30549,-21679
2129.6,3911,22497,-30648,-21772
2131.6,3871,22500,-30584,-21699
2133.6,3753,22572,-30469,-21584
2135.6,3690,22474,-30450,-21573
2137.6,3731,22117,-30431,-21559
2139.6,3766,21883,-30417,-21553
2141.6,3768,22025,-30510,-21656
2143.6,3833,22243,-30531,-21690
2145.6,3966,22264,-30370,-21546
2147.6,4058,22281,-30318,-21506
2149.6,4039,22410,-30457,-21647
2151.6,3920,22407,-30465,-21663
2153.6,3782,22220,-30331,-21550
2155.6,3749,22156,-30357,-21595
2157.6,3863,22309,-30505,-21748
2159.6,3988,22432,-30535,-21775
2161.6,3947,22431,-30482,-21695
2163.6,3775,22439,-30465,-21617
2165.6,3713,22482,-30462,-21548
2167.6,3856,22484,-30445,-21500
2169.6,3999,22480,-30414,-21470
2171.6,3991,22489,-30365,-21426
2173.6,3935,22406,-30349,-21410
2175.6,3886,22238,-30370,-21438
2177.6,3795,22194,-30352,-21432
2179.6,3783,22341,-30300,-21375
2181.6,3920,22444,-30251,-21306
2183.6,3967,22356,-30185,-21224
2185.6,3870,22289,-30164,-21173
2187.6,3976,22464,-30236,-21189
2189.6,4337,22780,-30254,-21165
2191.6,4534,22996,-30167,-21092
2193.6,4415,23033,-30180,-21135
2195.6,4249,22956,-30290,-21245
2197.6,4195,22835,-30239,-21181
2199.6,4226,22710,-30060,-20990
2201.6,4310,22611,-30004,-20917
2203.6,4326,22547,-30054,-20959
2205.6,4202,22542,-30034,-20943
2207.6,4120,22643,-29944,-20849
2209.6,4211,22805,-29872,-20781
2211.6,4329,22836,-29855,-20794
2213.6,4363,22700,-29879,-20817
2215.6,4381,22681,-29881,-20742
2217.6,4432,22940,-29831,-20619
2219.6,4532,23222,-29785,-20573
2221.6,4684,23309,-29748,-20562
2223.6,4735,23278,-29696,-20495
2225.6,4572,23173,-29675,-20432
2227.6,4400,23019,-29660,-20372
2229.6,4454,23043,-29561,-20232
2231.6,4629,23313,-29493,-20134
2233.6,4733,23530,-29593,-20217
2235.6,4775,23578,-29669,-20284
2237.6,4779,23677,-29536,-20169
2239.6,4719,23830,-29421,-20100
2241.6,4697,23805,-29553,-20246
2243.6,4762,23636,-29734,-20387
2245.6,4721,23562,-29702,-20325
2247.6,4545,23630,-29568,-20193
2249.6,4564,23708,-29543,-20147
2251.6,4844,23710,-29542,-20114
2253.6,4985,23686,-29426,-20019
2255.6,4872,23751,-29363,-20001
2257.6,4817,23908,-29532,-20148
2259.6,4818,23983,-29702,-20253
2261.6,4645,23901,-29640,-20168
2263.6,4525,23880,-29550,-20097
2265.6,4714,24110,-29626,-20190
2267.6,4845,24380,-29685,-20264
2269.6,4637,24346,-29605,-20193
2271.7,4485,24094,-29515,-20097
2273.7,4596,24005,-29474,-20078
2275.7,4545,24069,-29481,-20168
2277.7,4195,23938,-29607,-20374
2279.7,4012,23649,-29752,-20545
2281.7,4193,23560,-29738,-20542
2283.7,4387,23654,-29671,-20524
2285.7,4389,23669,-29717,-20628
2287.7,4344,23656,-29765,-20687
2289.7,4291,23730,-29724,-20611
2291.7,4095,23732,-29717,-20576
2293.7,3865,23603,-29778,-20650
2295.7,3883,23516,-29811,-20701
2297.7,4060,23502,-29838,-20702
2299.7,4047,23538,-29933,-20768
2301.7,3924,23753,-30062,-20930
2303.7,4059,23999,-30119,-21046
2305.7,4285,23820,-30037,-20975
2307.7,4155,23307,-29902,-20824
2309.7,3829,23126,-29906,-20819
2311.7,3753,23371,-30026,-20903
2313.7,3854,23438,-30056,-20883
2315.7,3866,23198,-30046,-20882
2317.7,3869,23128,-30170,-21056
2319.7,3927,23278,-30263,-21167
2321.7,3912,23268,-30146,-21048
2323.7,3894,23155,-30043,-20958
2325.7,3968,23233,-30103,-21011
2327.7,3929,23327,-30125,-21002
2329.7,3727,23190,-30067,-20960
2331.7,3694,23061,-30107,-21058
2333.7,3926,23187,-30187,-21159
2335.7,4128,23394,-30171,-21117
2337.7,4187,23489,-30147,-21085
2339.7,4201,23480,-30168,-21123
2341.7,4116,23362,-30159,-21113
2343.7,3933,23211,-30182,-21118
2345.7,3907,23279,-30281,-21208
2347.7,4099,23552,-30296,-21212
2349.7,4173,23597,-30177,-21067
2351.7,3969,23246,-30089,-20959
2353.7,3795,22972,-30087,-20967
2355.7,3901,23173,-30124,-21029
2357.7,4098,23529,-30229,-21153
2359.7,4136,23548,-30357,-21275
2361.7,4056,23323,-30399,-21281
2363.7,3953,23235,-30419,-21259
2365.7,3807,23267,-30475,-21295
2367.7,3732,23194,-30389,-21198
2369.7,3921,23138,-30132,-20916
2371.7,4217,23327,-30010,-20781
2373.7,4228,23555,-30120,-20908
2375.7,3929,23479,-30179,-20977
2377.7,3728,23240,-30117,-20905
2379.7,3865,23230,-30172,-20963
2381.7,4090,23445,-30323,-21134
2383.7,4111,23591,-30313,-21126
2385.7,4052,23576,-30202,-21000
2387.7,4154,23474,-30239,-21039
2389.7,4254,23319,-30349,-21161
2391.7,4070,23213,-30312,-21105
2393.7,3814,23303,-30205,-20946
2395.7,3860,23497,-30212,-20919
2397.7,4059,23541,-30298,-21035
2399.7,4072,23427,-30375,-21187
2401.7,3994,23350,-30416,-21289
2403.7,4022,23338,-30359,-21241
2405.7,4030,23286,-30258,-21119
2407.7,3963,23262,-30319,-21159
2409.7,4026,23385,-30491,-21318
2411.7,4184,23565,-30481,-21290
2413.7,4174,23701,-30296,-21082
2415.7,4050,23847,-30176,-20957
2417.7,4068,23924,-30098,-20913
2419.7,4156,23752,-29966,-20826
2421.7,4072,23509,-29902,-20782
2423.7,3872,23524,-29932,-20826
2425.7,3791,23701,-29906,-20840
2427.7,3898,23813,-29851,-20821
2429.7,4089,23983,-29851,-20822
2431.7,4200,24247,-29789,-20756
2433.7,4125,24296,-29646,-20609
2435.7,3971,24128,-29615,-20539
2437.7,3974,24135,-29705,-20588
2439.7,4143,24316,-29730,-20636
2441.7,4251,24291,-29686,-20642
2443.7,4203,24109,-29713,-20658
2445.7,4128,24155,-29818,-20716
2447.7,4097,24397,-29875,-20767
2449.7,4067,24489,-29783,-20686
2451.7,4059,24425,-29628,-20497
2453.7,4133,24446,-29614,-20439
2455.7,4243,24531,-29729,-20566
2457.7,4281,24498,-29750,-20613
2459.7,4239,24402,-29673,-20513
2461.7,4225,24409,-29676,-20472
2463.7,4331,24458,-29732,-20510
2465.7,4477,24378,-29756,-20527
2467.7,4467,24235,-29849,-20596
2469.7,4322,24234,-30003,-20735
2471.7,4308,24325,-30054,-20797
2473.7,4467,24236,-30032,-20779
2475.7,4510,23954,-30048,-20770
2477.7,4346,23799,-30041,-20739
2479.7,4211,23896,-30033,-20746
2481.7,4187,23965,-30159,-20933
2483.7,4141,23788,-30326,-21164
2485.7,4038,23482,-30382,-21228
2487.7,3913,23225,-30441,-21242
2489.7,3801,23131,-30591,-21352
2491.7,3868,23267,-30681,-21433
2493.7,4135,23475,-30673,-21407
2495.7,4218,23451,-30682,-21400
2497.7,3932,23182,-30699,-21450
2499.7,3669,22904,-30669,-21470
2501.7,3707,22739,-30668,-21460
2503.7,3860,22781,-30758,-21510
2505.7,4019,23104,-30887,-21644
2507.7,4196,23383,-30946,-21736
2509.7,4179,23215,-30867,-21666
2511.7,3943,22878,-30760,-21541
2513.7,3874,22893,-30799,-21551
2515.7,4031,23068,-30880,-21597
2517.7,4047,22983,-30798,-21492
2519.7,3935,22863,-30713,-21392
2521.7,4004,22996,-30863,-21510
2523.73,4123,23069,-31050,-21679
2525.75,4013,22885,-31024,-21697
2527.78,3845,22816,-30963,-21692
2529.8,3864,23001,-31037,-21746
2531.8,3962,23084,-31028,-21663
2533.8,3974,23008,-30835,-21427
2535.8,3950,23078,-30761,-21349
2537.8,3992,23231,-30923,-21513
2539.8,4056,23113,-31016,-21611
2541.8,3991,22759,-30920,-21525
2543.8,3821,22556,-30909,-21514
2545.8,3831,22670,-31048,-21662
2547.8,4083,22866,-31089,-21719
2549.8,4213,22842,-31002,-21612
2551.8,4102,22618,-30972,-21546
2553.8,4098,22460,-30957,-21585
2555.8,4261,22398,-30855,-21645
2557.8,4263,22211,-30753,-21722
2559.8,4144,21973,-30608,-21748
2561.8,4193,22051,-30191,-21505
2563.8,4298,22526,-29525,-20920
2565.8,4310,23151,-28858,-20135
2567.8,4468,23851,-28321,-19285
2569.8,4743,24796,-28006,-18472
2571.8,4655,26012,-28013,-17781
2573.8,4197,27178,-28248,-17224
2575.8,3909,27931,-28612,-16824
2577.8,3881,28385,-29161,-16600
2579.8,3731,29030,-29784,-16431
2581.8,3414,29892,-30293,-16267
2583.8,3165,30444,-30914,-16362
2585.8,2983,30511,-31944,-16953
2587.8,2845,30271,-33257,-18160
2589.8,2878,29394,-34768,-20257
2591.8,2982,27485,-36565,-23201
2593.8,2867,25188,-38194,-25980
2595.8,2584,23525,-38887,-27487
2597.8,2455,22644,-38639,-27743
2599.8,2626,22261,-38023,-27413
2601.8,3006,22366,-37256,-26801
2603.8,3367,22692,-36301,-25990
2605.8,3448,22726,-35322,-25173
2607.8,3322,22670,-34480,-24430
2609.8,3387,23069,-33769,-23744
2611.8,3687,23594,-33187,-23187
2613.8,3851,23573,-32716,-22756
2615.8,3865,23226,-32294,-22354
2617.8,4040,23118,-31948,-22039
2619.8,4251,23113,-31742,-21929
2621.8,4210,22889,-31681,-21988
2623.8,4144,22645,-31718,-22094
2625.8,4257,22582,-31730,-22132
2627.8,4200,22494,-31617,-22053
2629.8,3886,22309,-31497,-21956
2631.8,3863,22288,-31485,-21912
2633.8,4236,22488,-31447,-21817
2635.8,4394,22660,-31338,-21692
2637.8,4156,22706,-31340,-21724
2639.8,4006,22727,-31445,-21855
2641.8,4108,22723,-31487,-21892
2643.8,4209,22673,-31529,-21923
2645.8,4304,22694,-31622,-22025
2647.8,4465,22790,-31571,-21985
2649.8,4438,22760,-31374,-21774
2651.8,4163,22607,-31280,-21650
2653.8,4064,22588,-31290,-21638
2655.8,4274,22745,-31236,-21561
2657.8,4321,22853,-31174,-21470
2659.8,4041,22879,-31216,-21498
2661.8,3944,22995,-31319,-21595
2663.8,4245,23160,-31427,-21695
2665.8,4429,23137,-31492,-21775
2667.8,4216,22916,-31419,-21757
2669.8,4029,22748,-31255,-21631
2671.8,4131,22754,-31169,-21526
2673.8,4225,22798,-31173,-21491
2675.8,4169,22804,-31166,-21472
2677.8,4184,22860,-31187,-21497
2679.8,4306,22952,-31299,-21607
2681.8,4380,22973,-31368,-21676
2683.8,4411,22950,-31245,-21581
2685.8,4403,22934,-31081,-21467
2687.8,4287,22870,-31133,-21544
2689.8,4196,22831,-31313,-21696
2691.8,4270,23000,-31319,-21667
2693.8,4360,23273,-31186,-21537
2695.8,4376,23389,-31180,-21548
2697.8,4430,23344,-31268,-21630
2699.8,4430,23246,-31244,-21583
2701.8,4219,23120,-31162,-21477
2703.8,4075,23099,-31172,-21476
2705.8,4291,23290,-31252,-21565
2707.8,4576,23453,-31339,-21657
2709.8,4540,23352,-31373,-21665
2711.8,4345,23150,-31262,-21513
2713.8,4342,23087,-31073,-21313
2715.8,4511,23178,-31017,-21277
2717.8,4622,23326,-31101,-21373
2719.8,4591,23371,-31132,-21387
2721.8,4499,23225,-31062,-21286
2723.8,4448,23092,-31011,-21235
2725.8,4467,23163,-31059,-21328
2727.8,4515,23255,-31141,-21461
2729.8,4535,23194,-31127,-21458
2731.8,4478,23140,-31024,-21332
2733.8,4361,23207,-30976,-21254
2735.8,4319,23295,-30976,-21216
2737.8,4471,23401,-30897,-21108
2739.8,4701,23559,-30814,-21039
2741.8,4754,23607,-30838,-21123
2743.8,4588,23430,-30839,-21190
2745.8,4469,23223,-30771,-21144
2747.8,4597,23233,-30773,-21115
2749.8,4788,23435,-30762,-21057
2751.8,4764,23604,-30605,-20864
2753.8,4627,23623,-30528,-20756
2755.8,4654,23609,-30648,-20850
2757.8,4801,23705,-30633,-20837
2759.8,4860,23859,-30396,-20612
2761.8,4870,23940,-30290,-20477
2763.8,4929,23929,-30387,-20515
2765.8,4952,23893,-30437,-20541
2767.8,4921,23882,-30419,-20542
2769.8,4949,23928,-30423,-20543
2771.8,4989,24043,-30403,-20479
2773.83,4950,24184,-30361,-20394
2775.85,4945,24263,-30318,-20327
2777.88,5056,24282,-30209,-20198
2779.9,5145,24382,-30130,-20102
2781.9,5115,24604,-30216,-20195
2783.9,5040,24720,-30301,-20301
2785.9,5003,24656,-30270,-20276
2787.9,5059,24720,-30319,-20324
2789.9,5198,24946,-30411,-20440
2791.9,5259,24859,-30278,-20325
2793.9,5134,24467,-30071,-20086
2795.9,5005,24466,-30114,-20084
2797.9,5067,24930,-30218,-20191
2799.9,5209,25071,-30111,-20111
2801.9,5201,24706,-30041,-20038
2803.9,5038,24517,-30236,-20215
2805.9,4900,24648,-30409,-20391
2807.9,4877,24565,-30325,-20318
2809.9,4903,24320,-30231,-20215
2811.9,4926,24473,-30322,-20286
2813.9,4962,24885,-30353,-20317
2815.9,4992,24957,-30161,-20137
2817.9,4997,24782,-30053,-20027
2819.9,5019,24873,-30272,-20229
2821.9,5010,25095,-30534,-20503
2823.9,4850,24974,-30549,-20574
2825.9,4628,24662,-30481,-20554
2827.9,4554,24597,-30529,-20620
2829.9,4597,24668,-30598,-20709
2831.9,4604,24611,-30591,-20725
2833.9,4611,24648,-30565,-20687
2835.9,4658,24916,-30566,-20667
2837.9,4608,24965,-30609,-20725
2839.9,4449,24566,-30678,-20833
2841.9,4412,24222,-30709,-20888
2843.9,4553,24291,-30718,-20917
2845.9,4610,24432,-30772,-20990
2847.9,4443,24342,-30811,-21026
2849.9,4305,24216,-30801,-21004
2851.9,4410,24229,-30856,-21074
2853.9,4529,24271,-30951,-21197
2855.9,4393,24289,-30929,-21174
2857.9,4210,24339,-30873,-21099
2859.9,4273,24321,-30950,-21175
2861.9,4431,24121,-31049,-21288
2863.9,4450,23936,-31066,-21299
2865.9,4415,24042,-31130,-21328
2867.9,4407,24315,-31237,-21407
2869.9,4352,24406,-31212,-21372
2871.9,4318,24291,-31075,-21222
2873.9,4370,24216,-30986,-21111
2875.9,4312,24210,-30994,-21115
2877.9,4089,24117,-31084,-21219
2879.9,4027,24019,-31175,-21315
2881.9,4285,24129,-31139,-21263
2883.9,4545,24316,-31041,-21150
2885.9,4486,24248,-31064,-21185
2887.9,4205,24006,-31154,-21307
2889.9,4060,24048,-31132,-21306
2891.9,4216,24439,-31032,-21204
2893.9,4443,24681,-30987,-21144
2895.9,4458,24520,-31036,-21172
2897.9,4354,24320,-31145,-21255
2899.9,4369,24387,-31204,-21312
2901.9,4467,24543,-31156,-21299
2903.9,4502,24558,-31152,-21318
2905.9,4493,24476,-31252,-21399
2907.9,4451,24396,-31254,-21377
2909.9,4333,24337,-31114,-21236
2911.9,4246,24295,-31038,-21149
2913.9,4294,24241,-31032,-21119
2915.9,4365,24183,-30980,-21065
2917.9,4353,24220,-30996,-21093
2919.9,4318,24326,-31147,-21236
2921.9,4276,24324,-31256,-21316
2923.9,4187,24207,-31277,-21306
2925.9,4138,24168,-31310,-21324
2927.9,4166,24232,-31308,-21341
2929.9,4137,24263,-31241,-21315
2931.9,4076,24272,-31223,-21310
2933.9,4211,24367,-31239,-21303
2935.9,4486,24516,-31195,-21240
2937.9,4517,24616,-31175,-21200
2939.9,4211,24607,-31227,-21224
2941.9,3952,24476,-31264,-21258
2943.9,4029,24361,-31317,-21349
2945.9,4286,24432,-31421,-21487
2947.9,4433,24530,-31408,-21483
2949.9,4410,24389,-31248,-21320
2951.9,4321,24225,-31187,-21240
2953.9,4264,24350,-31265,-21269
2955.9,4296,24503,-31223,-21180
2957.9,4406,24440,-31039,-20979
2959.9,4468,24536,-30990,-20934
2961.9,4366,24954,-31109,-21073
2963.9,4185,25178,-31093,-21103
2965.9,4127,24996,-30858,-20927
2967.9,4240,24845,-30704,-20801
2969.9,4390,24955,-30760,-20843
2971.9,4474,25163,-30785,-20844
2973.9,4464,25374,-30673,-20723
2975.9,4332,25490,-30591,-20635
2977.9,4131,25404,-30589,-20630
2979.9,4054,25305,-30637,-20695
2981.9,4186,25358,-30783,-20875
2983.9,4340,25362,-30865,-20977
2985.9,4335,25222,-30686,-20795
2987.9,4268,25145,-30536,-20632
2989.9,4282,25152,-30707,-20786
2991.9,4291,25147,-30861,-20916
2993.9,4218,25325,-30752,-20779
2995.9,4248,25752,-30715,-20703
2997.9,4510,26011,-30833,-20769
2999.9,4761,25881,-30800,-20693
3001.9,4699,25710,-30744,-20618
3003.9,4424,25700,-30937,-20819
3005.9,4313,25622,-31118,-21016
3007.9,4509,25471,-31081,-20977
3009.9,4729,25477,-31088,-20959
3011.9,4667,25470,-31182,-21038
3013.9,4451,25142,-31128,-20987
3015.9,4394,24743,-31024,-20876
3017.9,4455,24672,-31079,-20922
3019.9,4432,24789,-31191,-21053
3021.9,4415,24799,-31261,-21149
3023.93,4478,24728,-31364,-21265
3025.95,4411,24622,-31503,-21441
3027.98,4227,24455,-31647,-21641
3030.0,4271,24382,-31766,-21774
3032.0,4492,24470,-31762,-21746
3034.0,4455,24486,-31685,-21665
3036.0,4165,24361,-31729,-21728
3038.0,4011,24308,-31830,-21834
3040.0,4039,24323,-31813,-21815
3042.0,4041,24228,-31815,-21821
3044.0,4023,24085,-31952,-21962
3046.0,4066,24037,-32029,-22040
3048.0,4127,24029,-31981,-22001
3050.0,4209,24021,-31995,-22019
3052.0,4326,24066,-32061,-22059
3054.0,4342,24137,-32029,-21979
3056.0,4191,24187,-31944,-21857
3058.0,4037,24216,-31908,-21818
3060.0,4008,24170,-31919,-21834
3062.0,4055,24041,-31980,-21872
3064.0,4125,23951,-32082,-21947
3066.0,4184,23923,-32170,-22050
3068.0,4162,23851,-32235,-22151
3070.0,4055,23759,-32263,-22182
3072.0,3967,23750,-32229,-22119
3074.0,3968,23787,-32212,-22064
3076.0,4054,23853,-32244,-22050
3078.0,4172,24038,-32192,-21979
3080.0,4182,24263,-32084,-21910
3082.0,4018,24323,-32131,-22008
3084.0,3893,24211,-32279,-22163
3086.0,4023,24042,-32285,-22166
3088.0,4250,23841,-32180,-22086
3090.0,4275,23662,-32145,-22067
3092.0,4129,23585,-32186,-22084
3094.0,4090,23523,-32230,-22126
3096.0,4257,23374,-32259,-22232
3098.0,4440,23246,-32204,-22319
3100.0,4420,23198,-31962,-22262
3102.0,4230,23129,-31518,-22045
3104.0,4156,23164,-30953,-21670
3106.0,4376,23620,-30372,-21105
3108.0,4669,24435,-29837,-20369
3110.0,4718,25242,-29425,-19583
3112.0,4600,26012,-29250,-18836
3114.0,4596,26982,-29271,-18071
3116.0,4648,28022,-29395,-17324
3118.0,4490,28807,-29796,-16897
3120.0,4179,29454,-30554,-16846
3122.0,3957,30228,-31262,-16754
3124.0,3790,30961,-31783,-16555
3126.0,3559,31474,-32637,-16793
3128.0,3365,31875,-33962,-17664
3130.0,3241,31781,-35290,-18985
3132.0,3010,30397,-36644,-21022
3134.0,2720,28008,-38305,-23854
3136.0,2662,25981,-39733,-26442
3138.0,2849,24909,-40194,-27747
3140.0,3020,24227,-39806,-27887
3142.0,3078,23648,-39000,-27411
3144.0,3106,23464,-37972,-26624
3146.0,3152,23625,-36987,-25856
3148.0,3251,23798,-36203,-25261
3150.0,3416,24007,-35432,-24610
3152.0,3547,24324,-34644,-23889
3154.0,3597,24483,-34035,-23349
3156.0,3681,24347,-33537,-22950
3158.0,3854,24174,-33076,-22590
3160.0,3999,24127,-32862,-22454
3162.0,4052,24087,-32886,-22543
3164.0,4055,23979,-32858,-22572
3166.0,4017,23802,-32763,-22512
3168.0,3986,23514,-32766,-22531
3170.0,4081,23280,-32811,-22586
3172.0,4244,23372,-32765,-22538
3174.0,4237,23619,-32619,-22374
3176.0,4084,23618,-32447,-22197
3178.0,4100,23492,-32421,-22186
3180.0,4335,23626,-32596,-22365
3182.0,4471,23857,-32734,-22487
3184.0,4384,23803,-32702,-22448
3186.0,4319,23614,-32675,-22438
3188.0,4419,23608,-32692,-22485
3190.0,4517,23687,-32628,-22451
3192.0,4450,23695,-32563,-22396
3194.0,4271,23728,-32566,-22381
3196.0,4129,23792,-32497,-22280
3198.0,4124,23796,-32397,-22157
3200.0,4222,23860,-32466,-22220
3202.0,4287,24066,-32626,-22386
3204.0,4290,24204,-32691,-22465
3206.0,4308,24131,-32706,-22496
3208.0,4277,23950,-32706,-22521
3210.0,4098,23723,-32629,-22471
3212.0,3976,23562,-32547,-22385
3214.0,4146,23732,-32540,-22343
3216.0,4388,24114,-32539,-22305
3218.0,4392,24175,-32508,-22251
3220.0,4299,23897,-32467,-22207
3222.0,4336,23778,-32399,-22163
3224.0,4366,23825,-32372,-22166
3226.0,4258,23693,-32450,-22251
3228.0,4197,23606,-32495,-22303
3230.0,4290,23915,-32430,-22266
3232.0,4394,24216,-32412,-22260
3234.0,4378,24026,-32485,-22298
3236.0,4234,23676,-32494,-22262
3238.0,4077,23697,-32434,-22187
3240.0,4134,23989,-32429,-22187
3242.0,4438,24150,-32447,-22215
3244.0,4631,24107,-32398,-22179
3246.0,4466,24029,-32352,-22157
3248.0,4206,23949,-32442,-22272
3250.0,4203,23784,-32592,-22434
3252.0,4405,23679,-32594,-22417
3254.0,4520,23911,-32475,-22256
3256.0,4411,24327,-32448,-22194
3258.0,4225,24403,-32441,-22183
3260.0,4182,24073,-32285,-22035
3262.0,4308,23840,-32204,-21948
3264.0,4429,23961,-32370,-22109
3266.0,4407,24145,-32438,-22210
3268.0,4260,24102,-32262,-22085
3270.0,4129,23894,-32223,-22043
3272.0,4173,23761,-32339,-22098
3274.03,4393,23876,-32223,-21928
3276.05,4594,24162,-31975,-21669
3278.08,4630,24333,-31944,-21653
3280.1,4602,24271,-31998,-21735
3282.1,4664,24195,-31944,-21699
3284.1,4786,24269,-31908,-21657
3286.1,4802,24311,-31910,-21663
3288.1,4620,24157,-31859,-21643
3290.1,4368,24013,-31833,-21625
3292.1,4309,24116,-31812,-21580
3294.1,4539,24379,-31680,-21447
3296.1,4834,24644,-31589,-21382
3298.1,4899,24849,-31641,-21425
3300.1,4714,24825,-31592,-21344
3302.1,4522,24507,-31416,-21174
3304.1,4542,24313,-31395,-21183
3306.1,4745,24575,-31495,-21280
3308.1,4892,24890,-31489,-21237
3310.1,4835,24847,-31437,-21158
3312.1,4736,24795,-31443,-21161
3314.1,4800,25073,-31424,-21140
3316.1,4900,25307,-31372,-21061
3318.1,4791,25171,-31323,-20972
3320.1,4581,24975,-31233,-20874
3322.1,4592,25041,-31175,-20845
3324.1,4814,25224,-31233,-20931
3326.1,4945,25265,-31270,-20982
3328.1,4897,25159,-31218,-20950
3330.1,4855,25102,-31203,-20950
3332.1,4913,25230,-31204,-20930
3334.1,4992,25416,-31141,-20812
3336.1,5010,25451,-31130,-20745
3338.1,4938,25389,-31204,-20801
3340.1,4815,25436,-31217,-20831
3342.1,4743,25598,-31204,-20830
3344.1,4722,25700,-31267,-20891
3346.1,4666,25641,-31318,-20957
3348.1,4670,25508,-31326,-20993
3350.1,4852,25484,-31383,-21050
3352.1,4965,25581,-31410,-21049
3354.1,4781,25587,-31312,-20930
3356.1,4621,25455,-31206,-20807
3358.1,4784,25423,-31160,-20741
3360.1,4899,25521,-31152,-20738
3362.1,4616,25473,-31281,-20899
3364.1,4318,25281,-31539,-21172
3366.1,4417,25254,-31674,-21299
3368.1,4668,25401,-31626,-21248
3370.1,4704,25454,-31597,-21229
3372.1,4573,25383,-31632,-21272
3374.1,4456,25326,-31641,-21282
3376.1,4429,25291,-31653,-21279
3378.1,4533,25283,-31707,-21310
3380.1,4679,25345,-31765,-21358
3382.1,4669,25342,-31823,-21422
3384.1,4506,25133,-31898,-21503
3386.1,4408,24908,-31978,-21590
3388.1,4452,24929,-32056,-21691
3390.1,4486,25107,-32108,-21772
3392.1,4407,25189,-32095,-21765
3394.1,4309,25147,-32023,-21669
3396.1,4312,25094,-31927,-21559
3398.1,4375,25042,-31901,-21547
3400.1,4376,24975,-32049,-21701
3402.1,4292,24932,-32249,-21885
3404.1,4185,24890,-32279,-21920
3406.1,4112,24823,-32214,-21902
3408.1,4150,24866,-32236,-21966
3410.1,4350,25075,-32228,-21964
3412.1,4560,25177,-32087,-21811
3414.1,4541,24997,-31993,-21706
3416.1,4330,24852,-32021,-21719
3418.1,4198,25001,-32062,-21742
3420.1,4230,25145,-32144,-21802
3422.1,4269,25001,-32251,-21894
3424.1,4257,24838,-32214,-21863
3426.1,4297,24942,-32115,-21769
3428.1,4401,25126,-32168,-21798
3430.1,4471,25155,-32240,-21842
3432.1,4483,25113,-32143,-21748
3434.1,4438,25113,-32032,-21640
3436.1,4285,25098,-32044,-21630
3438.1,4109,25060,-32106,-21673
3440.1,4158,25115,-32207,-21778
3442.1,4436,25262,-32332,-21907
3444.1,4605,25309,-32337,-21904
3446.1,4478,25136,-32235,-21800
3448.1,4274,24905,-32198,-21778
3450.1,4243,24859,-32233,-21824
3452.1,4353,24984,-32230,-21795
3454.1,4416,25058,-32165,-21688
3456.1,4359,25001,-32081,-21606
3458.1,4341,24974,-32069,-21632
3460.1,4482,25089,-32159,-21724
3462.1,4581,25189,-32208,-21742
3464.1,4426,25080,-32155,-21692
3466.1,4217,24868,-32160,-21734
3468.1,4207,24820,-32241,-21828
3470.1,4264,24963,-32236,-21817
3472.1,4232,25094,-32197,-21782
3474.1,4215,25095,-32221,-21807
3476.1,4234,25016,-32171,-21756
3478.1,4176,24979,-32053,-21647
3480.1,4136,25071,-32082,-21665
3482.1,4241,25185,-32199,-21744
3484.1,4358,25137,-32222,-21752
3486.1,4376,25030,-32235,-21784
3488.1,4396,25096,-32280,-21836
3490.1,4438,25219,-32203,-21745
3492.1,4435,25197,-32063,-21598
3494.1,4449,25237,-32010,-21554
3496.1,4489,25485,-31948,-21512
3498.1,4410,25553,-31819,-21408
3500.1,4256,25281,-31746,-21351
3502.1,4297,25244,-31715,-21341
3504.1,4528,25789,-31683,-21358
3506.1,4639,26325,-31716,-21437
3508.1,4522,26219,-31672,-21393
3510.1,4358,25721,-31385,-21100
3512.1,4245,25499,-31164,-20911
3514.13,4179,25773,-31290,-21068
3516.15,4244,26171,-31471,-21230
3518.18,4442,26197,-31419,-21145
3520.2,4564,25806,-31299,-21015
3522.2,4514,25515,-31274,-20986
3524.2,4468,25738,-31339,-21037
3526.2,4515,26178,-31502,-21195
3528.2,4505,26302,-31613,-21304
3530.2,4380,26110,-31455,-21118
3532.2,4280,25947,-31207,-20829
3534.2,4309,25917,-31202,-20798
3536.2,4463,25946,-31347,-20909
3538.2,4649,26071,-31389,-20887
3540.2,4667,26239,-31400,-20871
3542.2,4470,26216,-31544,-21058
3544.2,4347,25958,-31679,-21225
3546.2,4499,25745,-31622,-21126
3548.2,4688,25756,-31537,-20994
3550.2,4658,25832,-31689,-21147
3552.2,4534,25780,-31936,-21389
3554.2,4528,25676,-31928,-21349
3556.2,4642,25695,-31726,-21142
3558.2,4750,25788,-31689,-21133
3560.2,4680,25725,-31867,-21330
3562.2,4384,25458,-32039,-21516
3564.2,4146,25185,-32121,-21633
3566.2,4232,25029,-32164,-21726
3568.2,4386,24924,-32251,-21850
3570.2,4267,24873,-32440,-22032
3572.2,4120,24957,-32571,-22113
3574.2,4270,25040,-32469,-21962
3576.2,4400,24873,-32329,-21800
3578.2,4170,24553,-32365,-21836
3580.2,3973,24459,-32403,-21903
3582.2,4190,24626,-32363,-21910
3584.2,4417,24693,-32452,-22020
3586.2,4277,24560,-32601,-22164
3588.2,4126,24538,-32565,-22155
3590.2,4216,24695,-32480,-22117
3592.2,4167,24688,-32526,-22151
3594.2,3838,24413,-32544,-22103
3596.2,3677,24226,-32484,-21996
3598.2,3864,24359,-32500,-21994
3600.2,4085,24610,-32539,-22010
3602.2,4198,24708,-32500,-21947
3604.2,4267,24598,-32471,-21926
3606.2,4186,24358,-32479,-21976
3608.2,3928,24142,-32503,-22039
3610.2,3787,24134,-32622,-22148
3612.2,3937,24374,-32734,-22211
3614.2,4155,24673,-32631,-22085
3616.2,4174,24802,-32468,-21955
3618.2,4011,24723,-32488,-22026
3620.2,3905,24591,-32565,-22126
3622.2,4012,24524,-32546,-22103
3624.2,4137,24430,-32512,-22071
3626.2,4001,24206,-32485,-22079
3628.2,3804,24023,-32483,-22103
3630.2,3977,24067,-32609,-22205
3632.2,4364,24124,-32738,-22319
3634.2,4477,23931,-32689,-22343
3636.2,4384,23674,-32634,-22426
3638.2,4425,23610,-32636,-22592
3640.2,4430,23599,-32331,-22507
3642.2,4229,23570,-31634,-22038
3644.2,4268,23883,-30940,-21424
3646.2,4775,24665,-30415,-20759
3648.2,5138,25496,-29955,-19976
3650.2,4933,26189,-29634,-19142
3652.2,4581,27083,-29560,-18342
3654.2,4461,28242,-29744,-17662
3656.2,4346,29273,-30232,-17265
3658.2,4080,30099,-30858,-17047
3660.2,3900,31005,-31304,-16692
3662.2,3912,31940,-31751,-16374
3664.2,3853,32574,-32686,-16595
3666.2,3461,32763,-33986,-17355
3668.2,2855,32402,-35200,-18449
3670.2,2507,31281,-36460,-20216
3672.2,2682,29501,-38076,-22886
3674.2,3003,27557,-39590,-25594
3676.2,2990,25931,-40200,-27110
3678.2,2818,24945,-39818,-27258
3680.2,2906,24657,-39028,-26799
3682.2,3133,24700,-38200,-26255
3684.2,3180,24683,-37293,-25616
3686.2,3176,24696,-36364,-24932
3688.2,3357,24904,-35598,-24367
3690.2,3583,25116,-34960,-23854
3692.2,3690,25174,-34383,-23332
3694.2,3814,25161,-33958,-22944
3696.2,4019,25051,-33626,-22674
3698.2,4109,24818,-33283,-22402
3700.2,4023,24685,-33152,-22315
3702.2,3988,24669,-33310,-22508
3704.2,4125,24491,-33322,-22592
3706.2,4292,24234,-33075,-22424
3708.2,4340,24192,-33000,-22373
3710.2,4272,24108,-33087,-22437
3712.2,4186,23716,-32916,-22250
3714.2,4211,23604,-32632,-21962
3716.2,4357,24242,-32637,-21962
3718.2,4437,24835,-32769,-22095
3720.2,4325,24502,-32749,-22079
3722.2,4166,23776,-32712,-22027
3724.2,4135,23656,-32771,-22076
3726.2,4205,23996,-32813,-22140
3728.2,4273,24073,-32792,-22159
3730.2,4279,23905,-32734,-22130
3732.2,4200,23948,-32638,-22039
3734.2,4140,24160,-32536,-21910
3736.2,4248,24223,-32459,-21798
3738.2,4445,24183,-32462,-21812
3740.2,4519,24253,-32630,-22026
3742.2,4443,24339,-32809,-22230
3744.2,4337,24218,-32755,-22174
3746.2,4303,23965,-32624,-22048
3748.2,4409,23868,-32650,-22083
3750.2,4561,23981,-32641,-22063
3752.2,4511,24103,-32472,-21873
3754.2,4292,24169,-32419,-21802
3756.2,4275,24259,-32507,-21879
3758.2,4504,24294,-32484,-21846
3760.2,4600,24210,-32440,-21794
3762.2,4474,24215,-32546,-21910
3764.23,4413,24347,-32609,-22033
3766.25,4454,24268,-32542,-22051
3768.28,4411,23968,-32541,-22090
3770.3,4343,23917,-32581,-22112
3772.3,4379,24182,-32498,-22002
3774.3,4408,24328,-32368,-21841
3776.3,4375,24292,-32300,-21732
3778.3,4420,24334,-32295,-21717
3780.3,4516,24390,-32380,-21849
3782.3,4474,24322,-32475,-21998
3784.3,4347,24294,-32453,-21990
3786.3,4365,24355,-32442,-21971
3788.3,4552,24390,-32539,-22068
3790.3,4707,24489,-32511,-22048
3792.3,4671,24657,-32278,-21819
3794.3,4461,24601,-32118,-21662
3796.3,4276,24373,-32149,-21701
3798.3,4324,24398,-32222,-21766
3800.3,4556,24632,-32261,-21752
3802.3,4697,24670,-32237,-21665
3804.3,4622,24551,-32154,-21576
3806.3,4502,24530,-32163,-21614
3808.3,4511,24511,-32258,-21706
3810.3,4589,24414,-32194,-21616
3812.3,4578,24443,-31985,-21413
3814.3,4460,24598,-31929,-21376
3816.3,4368,24633,-32037,-21470
3818.3,4439,24579,-32058,-21470
3820.3,4656,24642,-31945,-21381
3822.3,4839,24727,-31858,-21345
3824.3,4848,24673,-31853,-21365
3826.3,4755,24652,-31826,-21349
3828.3,4720,24840,-31728,-21289
3830.3,4793,25044,-31683,-21276
3832.3,4922,25059,-31758,-21318
3834.3,4988,25016,-31760,-21261
3836.3,4878,25061,-31577,-21067
3838.3,4693,25086,-31418,-20921
3840.3,4712,25018,-31420,-20918
3842.3,4984,24983,-31469,-20973
3844.3,5214,25040,-31478,-21010
3846.3,5190,25097,-31393,-20931
3848.3,5043,25106,-31187,-20713
3850.3,5006,25127,-31071,-20609
3852.3,5129,25212,-31182,-20731
3854.3,5274,25376,-31224,-20758
3856.3,5311,25571,-31044,-20578
3858.3,5269,25697,-30947,-20503
3860.3,5204,25685,-31001,-20559
3862.3,5099,25558,-30959,-20491
3864.3,5020,25442,-30885,-20410
3866.3,5102,25488,-30939,-20481
3868.3,5239,25662,-30951,-20510
3870.3,5203,25758,-30883,-20443
3872.3,5073,25750,-30924,-20467
3874.3,5072,25815,-30969,-20491
3876.3,5127,25932,-30851,-20369
3878.3,5097,25922,-30786,-20307
3880.3,5124,25878,-30900,-20415
3882.3,5294,25990,-30974,-20482
3884.3,5346,26103,-30937,-20449
3886.3,5097,25984,-30918,-20431
3888.3,4769,25745,-30927,-20427
3890.3,4666,25639,-30957,-20441
3892.3,4819,25720,-31035,-20502
3894.3,5046,25875,-31066,-20515
3896.3,5161,25978,-31007,-20458
3898.3,5082,26004,-30982,-20474
3900.3,4881,26052,-31022,-20556
3902.3,4736,26154,-31093,-20614
3904.3,4739,26175,-31258,-20715
3906.3,4777,26013,-31430,-20840
3908.3,4697,25719,-31425,-20838
3910.3,4574,25430,-31354,-20778
3912.3,4603,25322,-31403,-20818
3914.3,4735,25409,-31460,-20859
3916.3,4723,25427,-31442,-20826
3918.3,4553,25291,-31489,-20862
3920.3,4474,25314,-31593,-20982
3922.3,4555,25546,-31619,-21055
3924.3,4621,25562,-31617,-21099
3926.3,4626,25312,-31661,-21168
3928.3,4666,25218,-31706,-21211
3930.3,4659,25275,-31748,-21212
3932.3,4486,25128,-31771,-21184
3934.3,4346,24926,-31719,-21134
3936.3,4465,25040,-31704,-21167
3938.3,4639,25280,-31829,-21325
3940.3,4572,25315,-31896,-21403
3942.3,4413,25300,-31773,-21296
3944.3,4469,25412,-31696,-21227
3946.3,4662,25425,-31834,-21363
3948.3,4708,25190,-31998,-21553
3950.3,4566,24947,-32001,-21578
3952.3,4420,24925,-31902,-21441
3954.3,4428,25090,-31839,-21317
3956.3,4574,25295,-31805,-21266
3958.3,4659,25352,-31729,-21177
3960.3,4555,25170,-31711,-21110
3962.3,4452,24991,-31884,-21263
3964.3,4537,25115,-32048,-21485
3966.3,4627,25363,-31966,-21466
3968.3,4501,25363,-31847,-21351
3970.3,4340,25234,-31926,-21408
3972.3,4414,25298,-31988,-21477
3974.3,4603,25446,-31870,-21385
3976.3,4663,25491,-31765,-21285
3978.3,4641,25593,-31751,-21253
3980.3,4677,25733,-31732,-21231
3982.3,4655,25543,-31759,-21275
3984.3,4437,25091,-31844,-21364
3986.3,4242,24957,-31866,-21374
3988.3,4374,25295,-31860,-21372
3990.3,4689,25632,-31902,-21418
3992.3,4792,25630,-31870,-21346
3994.3,4646,25442,-31751,-21160
3996.3,4568,25373,-31711,-21090
3998.3,4679,25516,-31728,-21127
4000.3,4741,25655,-31704,-21133
4002.3,4589,25553,-31736,-21170
4004.3,4418,25337,-31832,-21260
4006.3,4485,25332,-31855,-21271
4008.3,4677,25511,-31832,-21223
4010.3,4669,25553,-31837,-21200
4012.3,4476,25395,-31792,-21163
4014.33,4415,25302,-31707,-21132
4016.35,4505,25363,-31678,-21154
4018.38,4481,25367,-31652,-21133
4020.4,4374,25281,-31612,-21068
4022.4,4429,25379,-31668,-21114
4024.4,4565,25666,-31742,-21213
4026.4,4575,25740,-31698,-21215
4028.4,4592,25507,-31680,-21234
4030.4,4736,25372,-31775,-21346
4032.4,4765,25479,-31808,-21373
4034.4,4586,25530,-31747,-21289
4036.4,4519,25484,-31722,-21233
4038.4,4684,25569,-31655,-21152
4040.4,4788,25726,-31477,-20976
4042.4,4708,25790,-31364,-20866
4044.4,4631,25878,-31382,-20891
4046.4,4614,26021,-31362,-20894
4048.4,4562,26044,-31243,-20806
4050.4,4527,26071,-31131,-20719
4052.4,4601,26349,-31079,-20676
4054.4,4691,26636,-31054,-20628
4056.4,4676,26635,-30999,-20554
4058.4,4606,26572,-30945,-20532
4060.4,4549,26594,-31004,-20637
4062.4,4503,26431,-31124,-20756
4064.4,4504,26139,-31133,-20748
4066.4,4598,26144,-31097,-20736
4068.4,4722,26434,-31191,-20844
4070.4,4823,26703,-31279,-20888
4072.4,4927,26946,-31172,-20740
4074.4,4922,27092,-30998,-20568
4076.4,4672,26867,-30905,-20467
4078.4,4424,26527,-30879,-20383
4080.4,4525,26636,-30972,-20405
4082.4,4813,26998,-31172,-20573
4084.4,4928,26959,-31263,-20677
4086.4,4937,26552,-31218,-20651
4088.4,5011,26316,-31253,-20682
4090.4,5022,26372,-31333,-20764
4092.4,4925,26479,-31255,-20710
4094.4,4879,26528,-31145,-20589
4096.4,4848,26496,-31237,-20617
4098.4,4743,26329,-31410,-20741
4100.4,4729,26089,-31431,-20773
4102.4,4854,25928,-31387,-20755
4104.4,4895,25908,-31493,-20869
4106.4,4847,25988,-31681,-21079
4108.4,4882,26024,-31758,-21200
4110.4,4859,25810,-31802,-21271
4112.4,4602,25361,-31974,-21431
4114.4,4403,25009,-32092,-21516
4116.4,4522,24980,-31954,-21357
4118.4,4673,25151,-31830,-21241
4120.4,4592,25339,-31984,-21428
4122.4,4550,25462,-32160,-21633
4124.4,4759,25432,-32107,-21582
4126.4,4889,25292,-32019,-21498
4128.4,4657,25222,-32061,-21592
4130.4,4333,25146,-32116,-21709
4132.4,4259,24931,-32116,-21703
4134.4,4405,24928,-32108,-21625
4136.4,4601,25405,-32097,-21557
4138.4,4742,25781,-32079,-21530
4140.4,4716,25527,-32041,-21498
4142.4,4548,25118,-31982,-21432
4144.4,4446,25077,-32005,-21454
4146.4,4455,25121,-32132,-21602
4148.4,4440,25022,-32190,-21701
4150.4,4423,25062,-32174,-21715
4152.4,4506,25244,-32245,-21771
4154.4,4611,25267,-32288,-21752
4156.4,4658,25249,-32142,-21557
4158.4,4692,25421,-32027,-21458
4160.4,4668,25534,-32081,-21566
4162.4,4502,25364,-32093,-21590
4164.4,4336,25201,-32078,-21520
4166.4,4357,25270,-32222,-21616
4168.4,4496,25331,-32329,-21740
4170.4,4577,25189,-32216,-21657
4172.4,4561,25038,-32147,-21566
4174.4,4513,25042,-32231,-21631
4176.4,4523,25011,-32235,-21703
4178.4,4659,24736,-32203,-21797
4180.4,4846,24364,-32291,-22015
4182.4,4916,24172,-32230,-22123
4184.4,4837,24256,-31740,-21856
4186.4,4772,24629,-30995,-21258
4188.4,4891,25317,-30281,-20486
4190.4,5170,26190,-29739,-19704
4192.4,5343,27070,-29438,-19027
4194.4,5164,27954,-29290,-18316
4196.4,4799,28859,-29238,-17494
4198.4,4659,29750,-29476,-16879
4200.4,4754,30781,-30000,-16610
4202.4,4674,32036,-30444,-16335
4204.4,4283,33081,-30807,-15984
4206.4,3896,33541,-31517,-15950
4208.4,3733,33762,-32590,-16364
4210.4,3655,33972,-33718,-17197
4212.4,3456,33443,-35051,-18860
4214.4,3139,31592,-36821,-21538
4216.4,2894,29195,-38522,-24333
4218.4,2859,27434,-39363,-26065
4220.4,2925,26479,-39218,-26523
4222.4,2941,25926,-38557,-26280
4224.4,2996,25708,-37745,-25767
4226.4,3221,25788,-36843,-25080
4228.4,3494,25835,-35919,-24348
4230.4,3694,25807,-35134,-23747
4232.4,3920,26003,-34490,-23253
4234.4,4186,26315,-33879,-22760
4236.4,4296,26313,-33380,-22368
4238.4,4233,26061,-33108,-22173
4240.4,4272,25941,-32899,-22013
4242.4,4492,25891,-32597,-21775
4244.4,4625,25629,-32399,-21657
4246.4,4539,25256,-32469,-21777
4248.4,4487,25051,-32585,-21901
4250.4,4664,25058,-32515,-21831
4252.4,4883,25182,-32376,-21698
4254.4,4896,25321,-32353,-21665
4256.4,4734,25395,-32369,-21646
4258.4,4585,25441,-32274,-21526
4260.4,4582,25490,-32182,-21450
4262.4,4752,25430,-32273,-21568
4264.43,4948,25296,-32389,-21686
4266.45,4908,25284,-32304,-21601
4268.48,4604,25293,-32185,-21511
4270.5,4356,25111,-32252,-21594
4272.5,4441,24996,-32334,-21633
4274.5,4732,25220,-32258,-21482
4276.5,4877,25434,-32148,-21329
4278.5,4742,25352,-32088,-21279
4280.5,4555,25375,-32085,-21319
4282.5,4571,25736,-32236,-21505
4284.5,4716,25960,-32432,-21697
4286.5,4768,25756,-32367,-21613
4288.5,4737,25467,-32107,-21383
4290.5,4777,25363,-31991,-21328
4292.5,4875,25387,-32030,-21368
4294.5,4909,25544,-32046,-21314
4296.5,4861,25750,-32013,-21230
4298.5,4799,25727,-31934,-21139
4300.5,4799,25586,-31865,-21026
4302.5,4870,25743,-31965,-21060
4304.5,4882,26020,-32140,-21246
4306.5,4778,25927,-32145,-21334
4308.5,4758,25720,-32077,-21313
4310.5,4903,25886,-32107,-21314
4312.5,4945,26056,-32053,-21228
4314.5,4776,25774,-31859,-21025
4316.5,4676,25533,-31796,-20947
4318.5,4718,25774,-31901,-21045
4320.5,4657,25984,-31974,-21144
4322.5,4536,25789,-31995,-21194
4324.5,4650,25663,-31976,-21178
4326.5,4915,25859,-31882,-21077
4328.5,4960,25965,-31872,-21072
4330.5,4741,25850,-32010,-21217
4332.5,4556,25828,-32016,-21236
4334.5,4591,25945,-31810,-21056
4336.5,4756,26051,-31669,-20940
4338.5,4859,26167,-31649,-20929
4340.5,4835,26221,-31600,-20865
4342.5,4797,26074,-31578,-20812
4344.5,4860,25962,-31643,-20851
4346.5,4965,26138,-31689,-20884
4348.5,4981,26290,-31697,-20888
4350.5,4868,26092,-31687,-20897
4352.5,4691,25832,-31585,-20826
4354.5,4591,25894,-31466,-20683
4356.5,4730,26202,-31478,-20624
4358.5,5063,26501,-31511,-20644
4360.5,5245,26638,-31430,-20620
4362.5,5061,26562,-31351,-20549
4364.5,4814,26431,-31333,-20472
4366.5,4882,26436,-31285,-20412
4368.5,5100,26440,-31268,-20451
4370.5,5093,26286,-31346,-20551
4372.5,4964,26280,-31328,-20493
4374.5,5032,26659,-31113,-20246
4376.5,5197,27016,-30917,-20057
4378.5,5196,26958,-30894,-20034
4380.5,5103,26762,-30901,-20017
4382.5,5089,26762,-30832,-19936
4384.5,5104,26830,-30806,-19927
4386.5,5114,26901,-30884,-20022
4388.5,5200,27142,-30905,-20039
4390.5,5310,27379,-30768,-19894
4392.5,5311,27268,-30630,-19744
4394.5,5231,27032,-30611,-19701
4396.5,5178,27132,-30618,-19692
4398.5,5188,27460,-30580,-19659
4400.5,5222,27584,-30537,-19612
4402.5,5188,27433,-30480,-19540
4404.5,5111,27281,-30423,-19496
4406.5,5217,27362,-30424,-19513
4408.5,5527,27634,-30407,-19451
4410.5,5662,27796,-30309,-19294
4412.5,5464,27710,-30298,-19293
4414.5,5286,27650,-30414,-19450
4416.5,5324,27797,-30429,-19442
4418.5,5367,27918,-30347,-19296
4420.5,5343,27888,-30404,-19332
4422.5,5397,27936,-30518,-19470
4424.5,5447,28088,-30455,-19418
4426.5,5321,28082,-30328,-19275
4428.5,5145,27946,-30347,-19264
4430.5,5145,27990,-30446,-19323
4432.5,5256,28203,-30503,-19342
4434.5,5258,28257,-30524,-19347
4436.5,5146,28103,-30505,-19344
4438.5,5145,28044,-30439,-19309
4440.5,5327,28191,-30370,-19269
4442.5,5436,28272,-30331,-19246
4444.5,5284,28114,-30343,-19261
4446.5,5049,27914,-30396,-19322
4448.5,4966,27942,-30444,-19384
4450.5,5017,28185,-30517,-19453
4452.5,5081,28384,-30660,-19570
4454.5,5067,28308,-30749,-19637
4456.5,4949,28000,-30688,-19567
4458.5,4848,27741,-30628,-19498
4460.5,4899,27710,-30671,-19543
4462.5,5001,27815,-30701,-19599
4464.5,4974,27895,-30711,-19633
4466.5,4832,27882,-30793,-19715
4468.5,4710,27760,-30859,-19767
4470.5,4711,27582,-30843,-19737
4472.5,4827,27501,-30884,-19756
4474.5,4879,27568,-30978,-19835
4476.5,4710,27599,-30978,-19839
4478.5,4503,27486,-30959,-19826
4480.5,4565,27453,-31039,-19905
4482.5,4837,27679,-31093,-19963
4484.5,4984,27878,-31039,-19911
4486.5,4890,27744,-30998,-19847
4488.5,4745,27538,-31030,-19834
4490.5,4721,27627,-31088,-19865
4492.5,4791,27831,-31122,-19916
4494.5,4857,27852,-31057,-19898
4496.5,4874,27825,-30953,-19825
4498.5,4812,27889,-31014,-19869
4500.5,4714,27871,-31139,-19962
4502.5,4770,27764,-31022,-19853
4504.5,5028,27811,-30798,-19672
4506.5,5162,28000,-30821,-19716
4508.5,4943,28067,-30965,-19837
4510.5,4654,27940,-30940,-19777
4512.5,4621,27769,-30852,-19661
4514.53,4724,27691,-30833,-19630
4516.55,4746,27739,-30795,-19585
4518.58,4738,27851,-30779,-19542
4520.6,4797,27989,-30872,-19596
4522.6,4874,28172,-30921,-19641
4524.6,4878,28278,-30856,-19614
4526.6,4813,28150,-30864,-19649
4528.6,4773,27962,-30945,-19732
4530.6,4794,27994,-30891,-19683
4532.6,4807,28153,-30757,-19551
4534.6,4846,28237,-30760,-19530
4536.6,5004,28311,-30839,-19584
4538.6,5088,28377,-30796,-19554
4540.6,4878,28231,-30679,-19460
4542.6,4660,27973,-30667,-19416
4544.6,4798,28000,-30760,-19444
4546.6,5056,28302,-30820,-19501
4548.6,5044,28435,-30765,-19520
4550.6,4856,28235,-30639,-19431
4552.6,4743,28009,-30578,-19323
4554.6,4732,28029,-30680,-19381
4556.6,4790,28233,-30795,-19507
4558.6,4864,28384,-30722,-19453
4560.6,4829,28328,-30643,-19379
4562.6,4729,28153,-30826,-19573
4564.6,4750,28063,-31009,-19749
4566.6,4840,28113,-30832,-19541
4568.6,4832,28229,-30592,-19307
4570.6,4837,28414,-30680,-19432
4572.6,5004,28625,-30821,-19573
4574.6,5151,28636,-30716,-19447
4576.6,5108,28409,-30632,-19380
4578.6,5034,28231,-30742,-19503
4580.6,5018,28212,-30803,-19522
4582.6,4911,28172,-30764,-19439
4584.6,4749,28152,-30792,-19467
4586.6,4748,28325,-30814,-19500
4588.6,4848,28498,-30715,-19401
4590.6,4828,28445,-30604,-19301
4592.6,4727,28385,-30542,-19263
4594.6,4709,28539,-30467,-19198
4596.6,4799,28745,-30405,-19119
4598.6,4954,28870,-30368,-19058
4600.6,5055,28950,-30297,-18991
4602.6,4930,28958,-30219,-18961
4604.6,4695,28959,-30162,-18954
4606.6,4699,29111,-30056,-18854
4608.6,4937,29295,-29932,-18715
4610.6,5043,29361,-29884,-18690
4612.6,4947,29521,-29867,-18724
4614.6,4926,29809,-29841,-18715
4616.6,5018,29778,-29867,-18712
4618.6,4997,29370,-29902,-18729
4620.6,4887,29177,-29901,-18733
4622.6,4914,29402,-29981,-18795
4624.6,4988,29576,-30125,-18901
4626.6,4855,29506,-30120,-18889
4628.6,4691,29525,-29979,-18760
4630.6,4883,29777,-29880,-18627
4632.6,5263,29990,-29785,-18470
4634.6,5304,29971,-29648,-18313
4636.6,4978,29836,-29628,-18310
4638.6,4771,29776,-29738,-18427
4640.6,4930,29811,-29806,-18482
4642.6,5211,29808,-29825,-18496
4644.6,5292,29667,-29881,-18554
4646.6,5139,29424,-29932,-18582
4648.6,4988,29217,-29971,-18557
4650.6,5027,29178,-30038,-18577
4652.6,5154,29295,-30053,-18631
4654.6,5185,29421,-29993,-18650
4656.6,5108,29458,-30027,-18715
4658.6,5001,29422,-30210,-18905
4660.6,4908,29298,-30370,-19111
4662.6,4897,29056,-30419,-19194
4664.6,4949,28788,-30453,-19181
4666.6,4906,28623,-30505,-19169
4668.6,4741,28580,-30494,-19180
4670.6,4662,28587,-30457,-19207
4672.6,4757,28564,-30544,-19294
4674.6,4837,28486,-30722,-19424
4676.6,4739,28433,-30769,-19469
4678.6,4538,28470,-30678,-19414
4680.6,4404,28503,-30677,-19411
4682.6,4404,28408,-30770,-19495
4684.6,4495,28273,-30744,-19525
4686.6,4636,28343,-30618,-19460
4688.6,4769,28658,-30572,-19385
4690.6,4755,28873,-30590,-19341
4692.6,4584,28677,-30583,-19338
4694.6,4504,28297,-30592,-19380
4696.6,4659,28221,-30628,-19406
4698.6,4815,28441,-30617,-19375
4700.6,4744,28488,-30558,-19347
4702.6,4565,28205,-30509,-19360
4704.6,4504,28003,-30503,-19391
4706.6,4605,28226,-30541,-19415
4708.6,4727,28632,-30547,-19380
4710.6,4720,28780,-30474,-19282
4712.6,4652,28725,-30461,-19262
4714.6,4750,28817,-30599,-19369
4716.6,4975,28921,-30686,-19418
4718.6,4982,28595,-30564,-19327
4720.6,4691,28064,-30433,-19296
4722.6,4471,28067,-30494,-19436
4724.6,4576,28603,-30618,-19562
4726.6,4785,28809,-30596,-19509
4728.6,4801,28280,-30468,-19386
4730.6,4704,27626,-30417,-19422
4732.6,4724,27425,-30478,-19626
4734.6,4828,27488,-30454,-19755
4736.6,4865,27524,-30184,-19639
4738.6,4919,27740,-29712,-19296
4740.6,5093,28267,-29081,-18687
4742.6,5249,28809,-28315,-17779
4744.6,5300,29355,-27689,-16858
4746.6,5352,30344,-27475,-16193
4748.6,5342,31711,-27518,-15603
4750.6,5089,32839,-27626,-14951
4752.6,4726,33655,-27932,-14464
4754.6,4496,34595,-28375,-14133
4756.6,4331,35576,-28691,-13711
4758.6,4113,36255,-29148,-13477
4760.6,3906,36849,-30185,-13891
4762.6,3678,37395,-31500,-14801
4764.63,3331,37009,-32696,-16091
4766.65,3014,35180,-34134,-18236
4768.68,2880,32820,-35959,-21111
4770.7,2797,31026,-37327,-23437
4772.7,2690,29949,-37536,-24306
4774.7,2736,29403,-36914,-24114
4776.7,3020,29330,-36077,-23595
4778.7,3382,29403,-35243,-22998
4780.7,3610,29256,-34403,-22345
4782.7,3595,29007,-33546,-21683
4784.7,3500,28920,-32714,-21049
4786.7,3651,28995,-32029,-20492
4788.7,3999,29112,-31566,-20063
4790.7,4158,29122,-31260,-19773
4792.7,4100,28922,-31024,-19609
4794.7,4129,28663,-30825,-19526
4796.7,4254,28491,-30680,-19476
4798.7,4321,28265,-30637,-19464
4800.7,4413,28060,-30661,-19485
4802.7,4539,28225,-30624,-19467
4804.7,4491,28525,-30499,-19394
4806.7,4349,28360,-30390,-19315
4808.7,4440,27957,-30320,-19223
4810.7,4681,27990,-30225,-19093
4812.7,4684,28251,-30141,-19008
4814.7,4467,28173,-30173,-19052
4816.7,4387,28025,-30282,-19147
4818.7,4485,28207,-30287,-19133
4820.7,4517,28308,-30164,-19028
4822.7,4465,28013,-30141,-19028
4824.7,4477,27843,-30289,-19165
4826.7,4483,28109,-30326,-19187
4828.7,4418,28326,-30104,-18986
4830.7,4494,28216,-29889,-18777
4832.7,4739,28118,-29882,-18725
4834.7,4752,28151,-29969,-18772
4836.7,4411,28102,-30032,-18851
4838.7,4208,28069,-30052,-18920
4840.7,4427,28218,-30002,-18916
4842.7,4689,28293,-29950,-18889
4844.7,4633,28122,-30001,-18927
4846.7,4430,28031,-30076,-18961
4848.7,4383,28225,-30048,-18912
4850.7,4493,28410,-29947,-18839
4852.7,4574,28326,-29846,-18793
4854.7,4530,28130,-29803,-18767
4856.7,4425,28092,-29849,-18768
4858.7,4361,28238,-29881,-18758
4860.7,4361,28383,-29832,-18734
4862.7,4384,28420,-29860,-18808
4864.7,4383,28432,-29998,-18927
4866.7,4339,28443,-29981,-18860
4868.7,4304,28336,-29783,-18667
4870.7,4359,28160,-29692,-18619
4872.7,4472,28140,-29710,-18644
4874.7,4492,28236,-29623,-18542
4876.7,4371,28193,-29533,-18462
4878.7,4267,28036,-29583,-18535
4880.7,4335,28045,-29612,-18572
4882.7,4518,28290,-29565,-18523
4884.7,4625,28569,-29629,-18581
4886.7,4582,28647,-29740,-18682
4888.7,4481,28447,-29667,-18601
4890.7,4423,28213,-29508,-18434
4892.7,4440,28300,-29491,-18408
4894.7,4543,28628,-29536,-18462
4896.7,4642,28736,-29459,-18428
4898.7,4534,28504,-29332,-18356
4900.7,4230,28270,-29343,-18392
4902.7,4093,28250,-29475,-18510
4904.7,4303,28356,-29516,-18527
4906.7,4546,28472,-29386,-18404
4908.7,4553,28546,-29271,-18320
4910.7,4515,28597,-29274,-18323
4912.7,4631,28702,-29221,-18226
4914.7,4755,28835,-29055,-18032
4916.7,4720,28886,-28997,-17980
4918.7,4580,28857,-29085,-18077
4920.7,4478,28796,-29105,-18111
4922.7,4545,28683,-29017,-18063
4924.7,4803,28609,-28957,-18041
4926.7,5018,28732,-28941,-18016
4928.7,4936,28948,-28927,-17958
4930.7,4660,28992,-28880,-17880
4932.7,4519,28866,-28720,-17721
4934.7,4636,28817,-28499,-17520
4936.7,4833,28956,-28420,-17455
4938.7,4873,29112,-28471,-17502
4940.7,4732,29063,-28463,-17479
4942.7,4634,28881,-28403,-17410
4944.7,4724,28875,-28375,-17390
4946.7,4860,29105,-28318,-17337
4948.7,4872,29305,-28242,-17222
4950.7,4821,29388,-28241,-17161
4952.7,4829,29497,-28213,-17140
4954.7,4907,29590,-28049,-17042
4956.7,5039,29554,-27923,-16941
4958.7,5184,29551,-27986,-16966
4960.7,5218,29691,-28064,-17039
4962.7,5075,29739,-28015,-17032
4964.7,4882,29571,-27980,-17000
4966.7,4817,29447,-28028,-16984
4968.7,4879,29556,-27957,-16875
4970.7,4918,29746,-27732,-16690
4972.7,4861,29843,-27655,-16654
4974.7,4806,29852,-27801,-16777
4976.7,4856,29853,-27868,-16813
4978.7,4958,29956,-27816,-16790
4980.7,4956,30182,-27908,-16919
4982.7,4783,30271,-28034,-17034
4984.7,4608,30005,-27919,-16905
4986.7,4677,29698,-27765,-16775
4988.7,4892,29773,-27810,-16835
4990.7,4863,29995,-27806,-16814
4992.7,4586,29901,-27655,-16654
4994.7,4505,29690,-27673,-16678
4996.7,4677,29773,-27883,-16884
4998.7,4639,29913,-27987,-16984
5000.7,4324,29750,-27998,-17001
5002.7,4220,29589,-28051,-17053
5004.7,4458,29776,-28036,-17032
5006.7,4632,29994,-27939,-16954
5008.7,4570,29900,-27947,-17007
5010.7,4486,29729,-28054,-17155
5012.7,4440,29751,-28116,-17236
5014.73,4307,29808,-28134,-17265
5016.75,4148,29683,-28142,-17290
5018.78,4132,29441,-28124,-17294
5020.8,4222,29269,-28127,-17314
5022.8,4241,29246,-28180,-17384
5024.8,4142,29291,-28228,-17464
5026.8,4035,29294,-28243,-17518
5028.8,4022,29281,-28221,-17516
5030.8,4087,29285,-28142,-17443
5032.8,4126,29195,-28063,-17396
5034.8,4048,28981,-28062,-17456
5036.8,3894,28847,-28123,-17553
5038.8,3859,28948,-28215,-17619
5040.8,4041,29182,-28302,-17666
5042.8,4204,29300,-28291,-17668
5044.8,4084,29132,-28211,-17620
5046.8,3854,28878,-28207,-17593
5048.8,3859,28951,-28247,-17570
5050.8,4007,29258,-28189,-17478
5052.8,3967,29242,-28107,-17394
5054.8,3808,28935,-28121,-17396
5056.8,3854,28941,-28150,-17404
5058.8,4104,29288,-28139,-17393
5060.8,4277,29438,-28154,-17431
5062.8,4222,29281,-28174,-17474
5064.8,4009,29081,-28153,-17456
5066.8,3817,28904,-28126,-17427
5068.8,3786,28788,-28072,-17400
5070.8,3888,28895,-27993,-17350
5072.8,4007,29160,-28023,-17338
5074.8,4092,29316,-28108,-17334
5076.8,4093,29261,-28012,-17216
5078.8,3979,29103,-27855,-17109
5080.8,3930,29013,-27935,-17206
5082.8,4099,29089,-28063,-17311
5084.8,4226,29216,-27909,-17176
5086.8,4038,29208,-27733,-17045
5088.8,3804,29113,-27895,-17209
5090.8,3854,29090,-28116,-17400
5092.8,3951,29107,-28001,-17259
5094.8,3812,29053,-27777,-17016
5096.8,3695,28975,-27827,-17063
5098.8,3841,28957,-27954,-17228
5100.8,3976,28963,-27835,-17158
5102.8,3911,28967,-27717,-17061
5104.8,3908,28996,-27897,-17245
5106.8,4041,29000,-28029,-17397
5108.8,4001,28946,-27808,-17231
5110.8,3793,28983,-27652,-17141
5112.8,3802,29178,-27855,-17367
5114.8,4041,29273,-27997,-17474
5116.8,4122,29104,-27838,-17272
5118.8,3970,28911,-27718,-17147
5120.8,3846,28843,-27776,-17214
5122.8,3796,28722,-27820,-17244
5124.8,3708,28571,-27833,-17238
5126.8,3668,28618,-27856,-17268
5128.8,3780,28725,-27804,-17239
5130.8,3885,28640,-27749,-17198
5132.8,3817,28570,-27797,-17253
5134.8,3689,28735,-27786,-17264
5136.8,3712,28919,-27640,-17142
5138.8,3883,28985,-27564,-17073
5140.8,3996,29022,-27618,-17137
5142.8,3939,28932,-27646,-17198
5144.8,3851,28722,-27647,-17233
5146.8,3882,28766,-27722,-17309
5148.8,3947,29041,-27826,-17383
5150.8,3896,28983,-27839,-17374
5152.8,3762,28608,-27736,-17289
5154.8,3678,28549,-27614,-17196
5156.8,3703,28870,-27567,-17135
5158.8,3798,29043,-27525,-17051
5160.8,3822,28957,-27387,-16912
5162.8,3704,28935,-27266,-16828
5164.8,3649,29082,-27279,-16854
5166.8,3842,29262,-27273,-16844
5168.8,4027,29361,-27132,-16723
5170.8,3881,29309,-26982,-16605
5172.8,3585,29180,-26892,-16536
5174.8,3544,29254,-26804,-16485
5176.8,3763,29637,-26750,-16482
5178.8,3926,29986,-26746,-16508
5180.8,3858,29920,-26724,-16483
5182.8,3702,29583,-26729,-16472
5184.8,3677,29417,-26808,-16544
5186.8,3756,29501,-26841,-16582
5188.8,3771,29576,-26822,-16545
5190.8,3775,29624,-26889,-16556
5192.8,3898,29802,-26931,-16567
5194.8,3954,29952,-26774,-16443
5196.8,3753,29896,-26612,-16301
5198.8,3581,29889,-26629,-16288
5200.8,3751,30125,-26636,-16274
5202.8,4048,30268,-26521,-16162
5204.8,4120,30075,-26501,-16114
5206.8,4030,29842,-26648,-16222
5208.8,4028,29811,-26764,-16335
5210.8,4131,29829,-26767,-16337
5212.8,4174,29788,-26736,-16288
5214.8,4085,29761,-26713,-16269
5216.8,3983,29694,-26697,-16275
5218.8,4006,29506,-26704,-16293
5220.8,4116,29376,-26776,-16386
5222.8,4140,29440,-26937,-16588
5224.8,3962,29429,-27107,-16774
5226.8,3643,29063,-27197,-16859
5228.8,3424,28575,-27271,-16951
5230.8,3502,28373,-27380,-17080
5232.8,3711,28411,-27389,-17069
5234.8,3704,28404,-27260,-16930
5236.8,3504,28373,-27222,-16930
5238.8,3458,28465,-27376,-17121
5240.8,3629,28536,-27516,-17255
5242.8,3716,28410,-27495,-17225
5244.8,3589,28183,-27445,-17200
5246.8,3470,28027,-27500,-17306
5248.8,3546,28026,-27546,-17406
5250.8,3717,28194,-27445,-17333
5252.8,3801,28346,-27349,-17213
5254.8,3757,28234,-27460,-17259
5256.8,3619,27964,-27599,-17343
5258.8,3435,27840,-27524,-17244
5260.8,3357,27876,-27401,-17119
5262.8,3494,27927,-27431,-17171
5264.83,3644,27993,-27476,-17256
5266.85,3557,28019,-27460,-17253
5268.88,3388,27873,-27477,-17253
5270.9,3434,27737,-27454,-17234
5272.9,3616,27942,-27372,-17167
5274.9,3691,28325,-27429,-17198
5276.9,3671,28363,-27528,-17256
5278.9,3662,27999,-27390,-17134
5280.9,3653,27751,-27218,-17013
5282.9,3649,27873,-27327,-17139
5284.9,3681,28023,-27492,-17290
5286.9,3663,27942,-27463,-17266
5288.9,3547,27831,-27415,-17229
5290.9,3452,27829,-27443,-17240
5292.9,3477,27733,-27455,-17221
5294.9,3559,27467,-27515,-17295
5296.9,3603,27257,-27638,-17515
5298.9,3610,27187,-27635,-17657
5300.9,3649,27053,-27429,-17601
5302.9,3762,26824,-27068,-17418
5304.9,3911,26871,-26534,-17070
5306.9,4005,27440,-25872,-16466
5308.9,3971,28182,-25197,-15639
5310.9,3869,28724,-24592,-14727
5312.9,3910,29445,-24212,-13894
5314.9,4164,30814,-24150,-13186
5316.9,4319,32316,-24241,-12525
5318.9,4095,33215,-24400,-11968
5320.9,3696,33847,-24736,-11604
5322.9,3428,34816,-25143,-11289
5324.9,3217,35751,-25557,-11047
5326.9,2922,36157,-26342,-11302
5328.9,2596,36289,-27663,-12261
5330.9,2236,36070,-29185,-13828
5332.9,1857,34736,-30822,-16117
5334.9,1697,32405,-32623,-18943
5336.9,1752,30288,-34002,-21268
5338.9,1651,28987,-34377,-22329
5340.9,1406,28191,-34045,-22476
5342.9,1472,27806,-33435,-22173
5344.9,1874,27843,-32515,-21440
5346.9,2185,27846,-31444,-20558
5348.9,2289,27641,-30641,-19971
5350.9,2340,27702,-30074,-19543
5352.9,2374,28100,-29444,-18957
5354.9,2496,28297,-28808,-18367
5356.9,2849,28186,-28362,-18002
5358.9,3215,28102,-28083,-17776
5360.9,3290,28010,-27903,-17624
5362.9,3229,27735,-27789,-17573
5364.9,3314,27484,-27636,-17506
5366.9,3432,27423,-27442,-17362
5368.9,3418,27378,-27398,-17337
5370.9,3418,27299,-27525,-17480
5372.9,3513,27324,-27554,-17507
5374.9,3518,27348,-27388,-17332
5376.9,3405,27195,-27294,-17247
5378.9,3386,27045,-27374,-17332
5380.9,3436,27108,-27365,-17314
5382.9,3325,27173,-27210,-17184
5384.9,3159,27049,-27212,-17237
5386.9,3252,27008,-27403,-17444
5388.9,3488,27195,-27461,-17489
5390.9,3493,27180,-27317,-17359
5392.9,3324,26805,-27183,-17239
5394.9,3342,26667,-27112,-17140
5396.9,3533,27038,-27050,-17047
5398.9,3597,27321,-27030,-17029
5400.9,3489,27208,-27048,-17049
5402.9,3386,27165,-27096,-17073
5404.9,3356,27357,-27223,-17175
5406.9,3398,27378,-27321,-17273
5408.9,3502,27190,-27232,-17223
5410.9,3543,27135,-27097,-17146
5412.9,3416,27121,-27068,-17149
5414.9,3252,26853,-26995,-17060
5416.9,3248,26569,-26838,-16872
5418.9,3379,26642,-26819,-16846
5420.9,3495,26885,-26925,-16984
5422.9,3545,26985,-26972,-17080
5424.9,3560,27073,-27000,-17147
5426.9,3550,27245,-27059,-17219
5428.9,3569,27241,-27039,-17191
5430.9,3667,27049,-26982,-17109
5432.9,3715,27014,-26981,-17076
5434.9,3539,27102,-26908,-16987
5436.9,3274,26973,-26734,-16819
5438.9,3232,26775,-26659,-16749
5440.9,3407,26883,-26711,-16793
5442.9,3508,27117,-26762,-16833
5444.9,3435,27102,-26820,-16888
5446.9,3338,26939,-26869,-16938
5448.9,3333,26874,-26813,-16895
5450.9,3408,26878,-26738,-16849
5452.9,3486,26942,-26735,-16869
5454.9,3504,27168,-26695,-16821
5456.9,3505,27423,-26594,-16689
5458.9,3531,27419,-26533,-16611
5460.9,3479,27167,-26490,-16577
5462.9,3374,26954,-26481,-16575
5464.9,3460,26925,-26579,-16668
5466.9,3715,26964,-26611,-16712
5468.9,3795,26997,-26457,-16600
5470.9,3687,27118,-26398,-16574
5472.9,3693,27329,-26532,-16694
5474.9,3744,27402,-26522,-16629
5476.9,3603,27248,-26328,-16372
5478.9,3496,27132,-26271,-16287
5480.9,3689,27231,-26344,-16388
5482.9,3884,27343,-26343,-16432
5484.9,3746,27304,-26322,-16431
5486.9,3506,27241,-26325,-16440
5488.9,3517,27235,-26243,-16354
5490.9,3720,27217,-26106,-16181
5492.9,3851,27206,-26012,-16037
5494.9,3824,27271,-25931,-15939
5496.9,3767,27368,-25887,-15892
5498.9,3796,27481,-25917,-15897
5500.9,3869,27624,-25929,-15876
5502.9,3917,27680,-25911,-15833
5504.9,3947,27575,-25939,-15835
5506.9,3939,27480,-25907,-15794
5508.9,3878,27539,-25743,-15650
5510.9,3917,27661,-25638,-15550
5512.9,4091,27723,-25646,-15537
5514.93,4093,27713,-25576,-15470
5516.95,3801,27693,-25462,-15379
5518.98,3633,27784,-25494,-15407
5521.0,3874,28009,-25579,-15469
5523.0,4186,28161,-25517,-15395
5525.0,4223,28139,-25391,-15250
5527.0,4163,28166,-25369,-15201
5529.0,4241,28351,-25389,-15235
5531.0,4315,28460,-25314,-15197
5533.0,4244,28400,-25215,-15087
5535.0,4201,28410,-25259,-15083
5537.0,4267,28538,-25379,-15211
5539.0,4196,28553,-25381,-15276
5541.0,3921,28457,-25313,-15243
5543.0,3816,28498,-25334,-15253
5545.0,4061,28635,-25365,-15280
5547.0,4266,28614,-25313,-15221
5549.0,4104,28480,-25298,-15157
5551.0,3810,28464,-25332,-15148
5553.0,3734,28511,-25279,-15114
5555.0,3871,28418,-25217,-15081
5557.0,4006,28246,-25273,-15122
5559.0,4007,28180,-25332,-15165
5561.0,3907,28226,-25305,-15160
5563.0,3850,28293,-25287,-15168
5565.0,3909,28326,-25299,-15200
5567.0,3947,28278,-25321,-15253
5569.0,3810,28195,-25420,-15371
5571.0,3564,28184,-25536,-15478
5573.0,3424,28174,-25534,-15476
5575.0,3516,28072,-25489,-15448
5577.0,3727,28018,-25504,-15471
5579.0,3761,28055,-25514,-15488
5581.0,3506,27960,-25539,-15538
5583.0,3236,27759,-25670,-15683
5585.0,3189,27698,-25783,-15783
5587.0,3212,27650,-25754,-15758
5589.0,3167,27464,-25727,-15763
5591.0,3218,27481,-25785,-15840
5593.0,3371,27771,-25803,-15857
5595.0,3353,27766,-25773,-15843
5597.0,3202,27393,-25795,-15905
5599.0,3235,27251,-25827,-15978
5601.0,3371,27372,-25805,-15974
5603.0,3313,27290,-25810,-15963
5605.0,3191,27151,-25898,-16021
5607.0,3234,27313,-25985,-16104
5609.0,3254,27499,-25950,-16085
5611.0,3133,27414,-25818,-15955
5613.0,3101,27286,-25796,-15919
5615.0,3138,27256,-25950,-16070
5617.0,3031,27238,-26027,-16148
5619.0,3017,27339,-25914,-16023
5621.0,3316,27535,-25849,-15945
5623.0,3480,27483,-25890,-15994
5625.0,3221,27277,-25836,-15963
5627.0,3043,27415,-25772,-15911
5629.0,3220,27753,-25881,-16010
5631.0,3287,27664,-25962,-16083
5633.0,3091,27242,-25856,-15981
5635.0,3056,27136,-25772,-15897
5637.0,3193,27353,-25774,-15884
5639.0,3142,27354,-25728,-15822
5641.0,3026,27097,-25723,-15813
5643.0,3124,27009,-25823,-15924
5645.0,3220,27157,-25842,-15957
5647.0,3141,27232,-25759,-15864
5649.0,3140,27160,-25723,-15800
5651.0,3249,27115,-25696,-15757
5653.0,3182,27138,-25664,-15716
5655.0,3006,27151,-25754,-15784
5657.0,3000,27168,-25859,-15889
5659.0,3087,27233,-25816,-15900
5661.0,3089,27324,-25790,-15918
5663.0,3090,27380,-25874,-15985
5665.0,3130,27323,-25841,-15916
5667.0,3094,27117,-25663,-15725
5669.0,3024,26909,-25589,-15643
5671.0,3042,26949,-25676,-15722
5673.0,3094,27298,-25801,-15861
5675.0,3098,27669,-25907,-15994
5677.0,3087,27663,-25921,-16023
5679.0,3067,27203,-25779,-15878
5681.0,3020,26675,-25573,-15673
5683.0,3027,26522,-25480,-15604
5685.0,3129,26776,-25590,-15747
5687.0,3177,27058,-25800,-15968
5689.0,3044,27027,-25867,-16033
5691.0,2884,26794,-25742,-15924
5693.0,2907,26753,-25662,-15863
5695.0,3009,26918,-25737,-15921
5697.0,2943,26898,-25823,-15973
5699.0,2790,26699,-25839,-15972
5701.0,2821,26744,-25769,-15911
5703.0,2992,26965,-25594,-15754
5705.0,3035,26916,-25488,-15654
5707.0,2943,26723,-25610,-15768
5709.0,2902,26739,-25731,-15906
5711.0,2920,26760,-25652,-15882
5713.0,2957,26662,-25608,-15864
5715.0,3102,26852,-25746,-15970
5717.0,3296,27245,-25828,-16026
5719.0,3272,27166,-25747,-15967
5721.0,3001,26709,-25700,-15945
5723.0,2796,26606,-25768,-16012
5725.0,2829,26787,-25831,-16070
5727.0,2958,26705,-25812,-16043
5729.0,3034,26574,-25756,-15960
5731.0,3035,26798,-25737,-15901
5733.0,2960,27022,-25711,-15854
5735.0,2881,26892,-25570,-15738
5737.0,2938,26743,-25382,-15608
5739.0,3075,26846,-25295,-15566
5741.0,3038,26999,-25236,-15524
5743.0,2802,27086,-25112,-15410
5745.0,2694,27205,-25039,-15343
5747.0,2877,27329,-25044,-15353
5749.0,3055,27424,-25019,-15341
5751.0,2968,27545,-25044,-15379
5753.0,2814,27598,-25165,-15500
5755.0,2864,27454,-25168,-15510
5757.0,3011,27301,-25061,-15434
5759.0,3036,27378,-25127,-15523
5761.0,2977,27551,-25270,-15652
5763.1,2927,27565,-25181,-15517
5765.1,2859,27507,-25012,-15292
5767.1,2854,27647,-25024,-15262
5769.1,3060,27943,-25071,-15294
5771.1,3345,28075,-24997,-15213
5773.1,3441,27980,-24911,-15122
5775.1,3390,27919,-24869,-15095
5777.1,3369,27933,-24869,-15119
5779.1,3328,27789,-24979,-15220
5781.1,3222,27548,-25133,-15340
5783.1,3190,27483,-25172,-15365
5785.1,3220,27482,-25120,-15320
5787.1,3137,27320,-25088,-15294
5789.1,3021,27181,-25132,-15349
5791.1,3109,27188,-25256,-15484
5793.1,3290,27055,-25340,-15563
5795.1,3255,26760,-25287,-15507
5797.1,3034,26682,-25286,-15524
5799.1,2896,26789,-25486,-15745
5801.1,2897,26714,-25692,-15962
5803.1,2894,26567,-25766,-16058
5805.1,2844,26631,-25822,-16149
5807.1,2818,26664,-25875,-16221
5809.1,2843,26415,-25829,-16182
5811.1,2878,26183,-25733,-16101
5813.1,2842,26150,-25681,-16065
5815.1,2690,26034,-25737,-16122
5817.1,2559,25854,-25929,-16320
5819.1,2641,25986,-26078,-16498
5821.1,2836,26282,-25999,-16436
5823.1,2875,26261,-25864,-16283
5825.1,2782,26040,-25868,-16272
5827.1,2785,25995,-25877,-16298
5829.1,2885,26001,-25808,-16244
5831.1,2921,25873,-25779,-16210
5833.1,2841,25802,-25779,-16206
5835.1,2688,25827,-25775,-16187
5837.1,2574,25758,-25875,-16231
5839.1,2657,25729,-26004,-16317
5841.1,2856,25895,-25974,-16330
5843.1,2879,25971,-25875,-16323
5845.1,2725,25816,-25851,-16340
5847.1,2699,25791,-25826,-16283
5849.1,2828,25989,-25771,-16179
5851.1,2842,26040,-25766,-16162
5853.1,2724,25914,-25811,-16220
5855.1,2699,25905,-25919,-16321
5857.1,2761,25906,-26085,-16471
5859.1,2755,25706,-26125,-16553
5861.1,2780,25624,-25993,-16500
5863.1,2977,25871,-25920,-16443
5865.1,3103,25889,-25928,-16430
5867.1,2899,25293,-25839,-16406
5869.1,2660,24694,-25737,-16452
5871.1,2793,24692,-25719,-16575
5873.1,3085,24937,-25562,-16579
5875.1,3107,25006,-25159,-16369
5877.1,2980,25245,-24659,-15942
5879.1,3069,25966,-24055,-15182
5881.1,3343,26803,-23325,-14122
5883.1,3546,27540,-22739,-13059
5885.1,3557,28526,-22481,-12158
5887.1,3361,29746,-22444,-11447
5889.1,3066,30639,-22616,-11047
5891.1,2885,31183,-23036,-10889
5893.1,2815,31943,-23495,-10673
5895.1,2634,32947,-23851,-10422
5897.1,2310,33707,-24366,-10515
5899.1,1982,33983,-25373,-11222
5901.1,1638,33533,-26903,-12725
5903.1,1269,31965,-28751,-15137
5905.1,1062,29707,-30603,-18018
5907.1,1065,27885,-32079,-20440
5909.1,1036,26772,-32849,-21783
5911.1,914,25791,-32816,-22099
5913.1,981,24977,-32238,-21770
5915.1,1346,24797,-31498,-21161
5917.1,1695,24977,-30721,-20467
5919.1,1766,25012,-29907,-19781
5921.1,1738,25100,-29228,-19216
5923.1,1883,25447,-28723,-18744
5925.1,2124,25666,-28122,-18158
5927.1,2237,25624,-27398,-17480
5929.1,2231,25718,-26903,-17049
5931.1,2240,25906,-26722,-16964
5933.1,2313,25716,-26591,-16952
5935.1,2462,25302,-26432,-16850
5937.1,2631,25222,-26358,-16771
5939.1,2649,25303,-26337,-16776
5941.1,2513,25031,-26268,-16762
5943.1,2499,24676,-26158,-16655
5945.1,2700,24768,-26052,-16543
5947.1,2829,25034,-25977,-16529
5949.1,2703,24978,-25938,-16544
5951.1,2554,24838,-25936,-16510
5953.1,2644,25013,-25996,-16532
5955.1,2878,25264,-26083,-16643
5957.1,2961,25188,-26076,-16667
5959.1,2790,24906,-25987,-16586
5961.1,2574,24808,-25939,-16562
5963.1,2566,24988,-25916,-16568
5965.1,2772,25210,-25876,-16506
5967.1,2979,25279,-25893,-16461
5969.1,2996,25260,-25932,-16454
5971.1,2845,25257,-25877,-16379
5973.1,2721,25220,-25819,-16313
5975.1,2746,25129,-25854,-16361
5977.1,2836,25089,-25869,-16411
5979.1,2861,25096,-25842,-16403
5981.1,2803,25047,-25844,-16392
5983.1,2695,24972,-25781,-16317
5985.1,2614,24959,-25668,-16207
5987.1,2649,24995,-25735,-16257
5989.1,2742,25066,-25897,-16392
5991.1,2742,25156,-25861,-16378
5993.1,2692,25167,-25742,-16319
5995.1,2732,25076,-25778,-16375
5997.1,2817,25011,-25838,-16410
5999.1,2881,25034,-25802,-16365
6001.1,3011,25082,-25772,-16349
6003.1,3153,25141,-25725,-16294
6005.13,3123,25235,-25628,-16174
6007.15,3036,25344,-25636,-16201
6009.18,3112,25397,-25739,-16354
6011.2,3152,25296,-25734,-16365
6013.2,2899,25059,-25647,-16248
6015.2,2626,24919,-25617,-16217
6017.2,2688,25040,-25625,-16290
6019.2,2906,25236,-25669,-16405
6021.2,2932,25250,-25745,-16500
6023.2,2836,25149,-25705,-16452
6025.2,2881,25162,-25571,-16312
6027.2,3016,25263,-25552,-16280
6029.2,2985,25215,-25588,-16305
6031.2,2819,25011,-25513,-16237
6033.2,2807,24947,-25465,-16187
6035.2,2986,25120,-25539,-16232
6037.2,3122,25246,-25542,-16211
6039.2,3144,25169,-25442,-16105
6041.2,3138,25110,-25430,-16082
6043.2,3049,25187,-25506,-16146
6045.2,2883,25199,-25535,-16178
6047.2,2868,25071,-25502,-16134
6049.2,3067,25031,-25428,-16032
6051.2,3231,25180,-25347,-15938
6053.2,3232,25314,-25320,-15919
6055.2,3181,25282,-25306,-15914
6057.2,3156,25215,-25248,-15864
6059.2,3148,25264,-25205,-15837
6061.2,3154,25357,-25197,-15838
6063.2,3157,25355,-25179,-15801
6065.2,3173,25312,-25181,-15751
6067.2,3277,25413,-25171,-15682
6069.2,3457,25656,-25048,-15535
6071.2,3603,25795,-24950,-15456
6073.2,3659,25719,-25046,-15561
6075.2,3611,25618,-25124,-15622
6077.2,3460,25616,-24982,-15484
6079.2,3344,25568,-24847,-15373
6081.2,3446,25463,-24902,-15413
6083.2,3694,25553,-24963,-15421
6085.2,3829,25849,-24908,-15320
6087.2,3781,26059,-24859,-15227
6089.2,3723,26094,-24875,-15185
6091.2,3769,26126,-24863,-15147
6093.2,3856,26177,-24765,-15070
6095.2,3881,26166,-24679,-14983
6097.2,3819,26163,-24737,-14994
6099.2,3742,26244,-24851,-15077
6101.2,3769,26363,-24826,-15067
6103.2,3905,26474,-24732,-14985
6105.2,3937,26516,-24758,-14995
6107.2,3723,26400,-24807,-15025
6109.2,3530,26277,-24721,-14939
6111.2,3631,26412,-24615,-14868
6113.2,3782,26628,-24583,-14910
6115.2,3690,26526,-24549,-14935
6117.2,3609,26286,-24531,-14915
6119.2,3757,26372,-24597,-14954
6121.2,3819,26630,-24642,-14996
6123.2,3631,26624,-24586,-14944
6125.2,3524,26482,-24515,-14862
6127.2,3599,26503,-24499,-14851
6129.2,3602,26522,-24506,-14908
6131.2,3524,26403,-24489,-14971
6133.2,3503,26405,-24466,-15024
6135.2,3460,26605,-24548,-15155
6137.2,3392,26722,-24743,-15373
6139.2,3452,26657,-24814,-15482
6141.2,3524,26498,-24677,-15414
6143.2,3400,26248,-24616,-15402
6145.2,3255,26022,-24730,-15530
6147.2,3331,26025,-24769,-15600
6149.2,3428,26095,-24702,-15575
6151.2,3252,25963,-24716,-15592
6153.2,2949,25798,-24757,-15631
6155.2,2846,25811,-24740,-15670
6157.2,2951,25829,-24806,-15789
6159.2,3030,25772,-24958,-15918
6161.2,2987,25797,-25015,-15939
6163.2,2864,25789,-24999,-15940
6165.2,2727,25587,-24999,-15970
6167.2,2718,25459,-24947,-15917
6169.2,2897,25573,-24873,-15841
6171.2,3022,25664,-24917,-15908
6173.2,2903,25674,-25050,-16059
6175.2,2787,25804,-25169,-16161
6177.2,2903,25885,-25259,-16211
6179.2,3025,25674,-25265,-16196
6181.2,2931,25405,-25186,-16130
6183.2,2768,25328,-25165,-16126
6185.2,2706,25351,-25215,-16189
6187.2,2752,25447,-25205,-16213
6189.2,2901,25649,-25159,-16203
6191.2,3017,25759,-25137,-16185
6193.2,2892,25715,-25077,-16119
6195.2,2691,25725,-25033,-16088
6197.2,2765,25735,-25109,-16165
6199.2,2985,25545,-25169,-16215
6201.2,2994,25411,-25126,-16203
6203.2,2893,25601,-25130,-16262
6205.2,2915,25726,-25155,-16307
6207.2,2905,25446,-25039,-16195
6209.2,2759,25212,-24920,-16098
6211.2,2752,25449,-24961,-16143
6213.2,2964,25765,-25005,-16170
6215.2,3087,25723,-24967,-16174
6217.2,3021,25568,-24953,-16271
6219.2,2983,25618,-24937,-16328
6221.2,3011,25712,-24923,-16296
6223.2,2945,25639,-25058,-16372
6225.2,2792,25465,-25209,-16480
6227.2,2703,25355,-25122,-16376
6229.2,2768,25447,-24987,-16248
6231.2,2959,25703,-25051,-16331
6233.2,3121,25805,-25113,-16389
6235.2,3093,25635,-25015,-16259
6237.2,2959,25547,-24968,-16179
6239.2,2961,25692,-25048,-16245
6241.2,3072,25723,-25075,-16278
6243.2,3057,25553,-25020,-16264
6245.2,2934,25533,-25014,-16315
6247.2,2914,25669,-25065,-16396
6249.2,2953,25608,-25088,-16435
6251.2,2928,25381,-25062,-16447
6253.2,2980,25300,-25033,-16436
6255.23,3161,25350,-25026,-16378
6257.25,3176,25362,-25034,-16326
6259.28,2957,25418,-25069,-16366
6261.3,2867,25602,-25110,-16448
6263.3,2996,25719,-25076,-16443
6265.3,3006,25584,-25022,-16426
6267.3,2850,25319,-25116,-16544
6269.3,2840,25197,-25243,-16636
6271.3,3009,25299,-25157,-16488
6273.3,3067,25451,-25016,-16336
6275.3,2904,25457,-25111,-16455
6277.3,2704,25324,-25262,-16605
6279.3,2662,25198,-25196,-16516
6281.3,2802,25201,-25067,-16387
6283.3,2978,25343,-25098,-16439
6285.3,3008,25497,-25246,-16606
6287.3,2881,25538,-25415,-16778
6289.3,2779,25530,-25498,-16856
6291.3,2836,25601,-25386,-16734
6293.3,2942,25664,-25185,-16524
6295.3,2918,25612,-25099,-16441
6297.3,2798,25561,-25103,-16467
6299.3,2751,25579,-25079,-16469
6301.3,2816,25560,-25031,-16432
6303.3,2919,25599,-24979,-16378
6305.3,3054,25901,-24919,-16333
6307.3,3185,26223,-24837,-16300
6309.3,3177,26152,-24659,-16184
6311.3,3025,25866,-24433,-15991
6313.3,2915,25854,-24381,-15936
6315.3,2932,26080,-24487,-16036
6317.3,2947,26139,-24508,-16072
6319.3,2840,25977,-24495,-16086
6321.3,2701,25904,-24629,-16250
6323.3,2744,26086,-24746,-16393
6325.3,3004,26365,-24688,-16335
6327.3,3192,26533,-24613,-16220
6329.3,3088,26597,-24578,-16139
6331.3,2919,26686,-24491,-16018
6333.3,2972,26752,-24443,-15928
6335.3,3108,26660,-24475,-15914
6337.3,3098,26551,-24441,-15863
6339.3,3060,26638,-24381,-15806
6341.3,3135,26750,-24418,-15839
6343.3,3196,26635,-24461,-15892
6345.3,3165,26467,-24545,-16006
6347.3,3111,26399,-24814,-16281
6349.3,2986,26155,-24988,-16424
6351.3,2812,25707,-24798,-16210
6353.3,2869,25635,-24646,-16053
6355.3,3177,26094,-24840,-16247
6357.3,3286,26350,-24982,-16409
6359.3,3062,26023,-24852,-16310
6361.3,2955,25723,-24838,-16285
6363.3,3136,25823,-25071,-16483
6365.3,3224,25802,-25231,-16667
6367.3,3071,25401,-25225,-16740
6369.3,2931,25129,-25246,-16812
6371.3,2866,25169,-25347,-16908
6373.3,2781,25109,-25419,-16955
6375.3,2805,24955,-25389,-16901
6377.3,2986,25077,-25316,-16827
6379.3,3036,25283,-25339,-16903
6381.3,2837,25163,-25469,-17098
6383.3,2659,24896,-25539,-17177
6385.3,2667,24761,-25480,-17099
6387.3,2757,24661,-25434,-17071
6389.3,2868,24652,-25505,-17176
6391.3,2939,24915,-25593,-17257
6393.3,2827,25130,-25532,-17167
6395.3,2644,24971,-25371,-16994
6397.3,2726,24855,-25365,-16984
6399.3,3005,25143,-25560,-17174
6401.3,3058,25373,-25662,-17284
6403.3,2854,25163,-25558,-17204
6405.3,2737,24905,-25505,-17181
6407.3,2770,24895,-25612,-17310
6409.3,2767,24861,-25675,-17361
6411.3,2720,24703,-25583,-17223
6413.3,2672,24665,-25439,-17050
6415.3,2589,24718,-25364,-16993
6417.3,2596,24689,-25419,-17070
6419.3,2810,24753,-25543,-17187
6421.3,2976,24975,-25592,-17223
6423.3,2857,24969,-25579,-17214
6425.3,2679,24657,-25622,-17261
6427.3,2709,24508,-25675,-17304
6429.3,2855,24636,-25662,-17264
6431.3,2964,24642,-25641,-17225
6433.3,3032,24457,-25609,-17249
6435.3,3020,24320,-25505,-17298
6437.3,2921,24143,-25386,-17363
6439.3,2862,23823,-25220,-17369
6441.3,2894,23695,-24821,-17139
6443.3,2939,24036,-24217,-16627
6445.3,3052,24721,-23586,-15910
6447.3,3339,25617,-22943,-15031
6449.3,3651,26668,-22355,-14109
6451.3,3701,27645,-22058,-13301
6453.3,3442,28367,-22043,-12592
6455.3,3068,28956,-22185,-12022
6457.3,2760,29644,-22617,-11793
6459.3,2584,30517,-23298,-11786
6461.3,2501,31416,-23796,-11630
6463.3,2390,32064,-24108,-11447
6465.3,2133,32411,-24820,-11776
6467.3,1749,32456,-26168,-12889
6469.3,1415,31737,-27866,-14822
6471.3,1310,29896,-29716,-17520
6473.3,1408,27671,-31521,-20379
6475.3,1477,26128,-32761,-22420
6477.3,1391,25272,-33054,-23202
6479.3,1382,24609,-32595,-23052
6481.3,1679,24248,-31865,-22504
6483.3,2032,24331,-31137,-21887
6485.3,2056,24429,-30375,-21259
6487.3,1905,24369,-29541,-20574
6489.3,1986,24517,-28790,-19908
6491.3,2221,24887,-28211,-19349
6493.3,2295,25082,-27695,-18863
6495.3,2303,25071,-27223,-18465
6497.3,2485,25083,-26857,-18189
6499.3,2719,25068,-26531,-17951
6501.3,2827,24907,-26292,-17801
6503.3,2906,24668,-26311,-17885
6505.33,3009,24409,-26378,-17975
6507.35,3011,24214,-26165,-17771
6509.38,2914,24274,-25916,-17560
6511.4,2861,24478,-25976,-17667
6513.4,2905,24443,-26079,-17778
6515.4,2988,24221,-25949,-17611
6517.4,3030,24224,-25826,-17448
6519.4,2988,24429,-25860,-17468
6521.4,2921,24501,-25855,-17481
6523.4,2913,24476,-25795,-17470
6525.4,2923,24488,-25827,-17559
6527.4,2865,24359,-25877,-17636
6529.4,2765,24121,-25840,-17571
6531.4,2720,24193,-25801,-17472
6533.4,2810,24568,-25791,-17417
6535.4,2998,24712,-25713,-17347
6537.4,3067,24469,-25597,-17290
6539.4,2886,24226,-25611,-17356
6541.4,2685,24213,-25769,-17504
6543.4,2747,24314,-25866,-17549
6545.4,2958,24385,-25793,-17450
6547.4,3021,24337,-25721,-17378
6549.4,2921,24222,-25784,-17425
6551.4,2852,24261,-25836,-17456
6553.4,2878,24468,-25753,-17368
6555.4,2936,24568,-25645,-17252
6557.4,2988,24501,-25611,-17211
6559.4,3034,24460,-25612,-17252
6561.4,3060,24441,-25639,-17340
6563.4,3070,24387,-25699,-17428
6565.4,3071,24436,-25753,-17488
6567.4,3042,24521,-25780,-17524
6569.4,2992,24401,-25745,-17488
6571.4,2989,24301,-25631,-17368
6573.4,3071,24552,-25549,-17296
6575.4,3175,24797,-25568,-17311
6577.4,3247,24659,-25551,-17266
6579.4,3294,24541,-25484,-17185
6581.4,3273,24756,-25540,-17245
6583.4,3107,24815,-25655,-17370
6585.4,2891,24440,-25650,-17405
6587.4,2861,24138,-25645,-17450
6589.4,3049,24251,-25735,-17519
6591.4,3205,24486,-25702,-17410
6593.4,3170,24579,-25529,-17204
6595.4,3079,24589,-25492,-17156
6597.4,3075,24585,-25569,-17176
6599.4,3106,24576,-25539,-17094
6601.4,3110,24605,-25486,-17062
6603.4,3128,24634,-25544,-17151
6605.4,3169,24601,-25596,-17185
6607.4,3215,24627,-25582,-17152
6609.4,3292,24825,-25580,-17162
6611.4,3376,25003,-25571,-17157
6613.4,3384,24925,-25519,-17097
6615.4,3344,24717,-25469,-17060
6617.4,3355,24646,-25426,-17039
6619.4,3409,24712,-25386,-16996
6621.4,3455,24763,-25386,-16978
6623.4,3489,24777,-25387,-16989
6625.4,3487,24819,-25367,-17015
6627.4,3444,24909,-25395,-17076
6629.4,3422,24960,-25404,-17054
6631.4,3444,24866,-25283,-16851
6633.4,3493,24784,-25179,-16681
6635.4,3607,25016,-25208,-16713
6637.4,3735,25387,-25184,-16740
6639.4,3702,25359,-25033,-16617
6641.4,3524,24958,-24948,-16501
6643.4,3474,24774,-24961,-16452
6645.4,3666,25004,-24965,-16398
6647.4,3872,25350,-24996,-16387
6649.4,3869,25630,-25047,-16406
6651.4,3759,25745,-24994,-16316
6653.4,3784,25581,-24898,-16164
6655.4,3927,25364,-24881,-16092
6657.4,3970,25448,-24846,-16033
6659.4,3926,25695,-24738,-15920
6661.4,4006,25779,-24707,-15877
6663.4,4174,25779,-24792,-15942
6665.4,4206,25846,-24834,-15971
6667.4,4138,25860,-24764,-15906
6669.4,4154,25791,-24660,-15828
6671.4,4205,25798,-24603,-15775
6673.4,4168,25919,-24609,-15723
6675.4,4121,26109,-24636,-15673
6677.4,4128,26303,-24650,-15659
6679.4,4068,26265,-24667,-15691
6681.4,3928,25942,-24686,-15734
6683.4,3911,25799,-24707,-15782
6685.4,4037,26120,-24785,-15870
6687.4,4048,26435,-24897,-15955
6689.4,3888,26318,-24908,-15941
6691.4,3821,26072,-24786,-15826
6693.4,3904,26074,-24660,-15711
6695.4,3895,26185,-24651,-15701
6697.4,3769,26174,-24781,-15834
6699.4,3712,26108,-24934,-15983
6701.4,3688,26120,-24952,-15985
6703.4,3607,26230,-24883,-15926
6705.4,3644,26350,-24894,-15989
6707.4,3821,26301,-24937,-16093
6709.4,3809,26019,-24893,-16111
6711.4,3560,25758,-24862,-16156
6713.4,3420,25753,-24905,-16264
6715.4,3448,25862,-24891,-16272
6717.4,3407,25885,-24851,-16237
6719.4,3333,25898,-24938,-16347
6721.4,3360,25926,-25047,-16485
6723.4,3330,25790,-25030,-16472
6725.4,3175,25573,-25024,-16453
6727.4,3151,25599,-25133,-16559
6729.4,3313,25810,-25211,-16654
6731.4,3347,25838,-25203,-16666
6733.4,3153,25633,-25209,-16683
6735.4,3018,25434,-25228,-16713
6737.4,3101,25357,-25243,-16728
6739.4,3212,25411,-25327,-16791
6741.4,3193,25495,-25435,-16867
6743.4,3151,25358,-25413,-16831
6745.4,3203,25057,-25317,-16751
6747.4,3256,25039,-25354,-16813
6749.4,3192,25339,-25503,-16958
6751.4,3075,25443,-25532,-16949
6753.4,3018,25250,-25397,-16779
6755.4,3048,25204,-25311,-16696
6757.4,3151,25423,-25368,-16780
6759.4,3272,25578,-25394,-16818
6761.4,3270,25550,-25320,-16738
6763.4,3132,25527,-25327,-16749
6765.43,3102,25631,-25437,-16879
6767.45,3313,25772,-25436,-16871
6769.48,3509,25775,-25324,-16710
6771.5,3416,25629,-25310,-16657
6773.5,3190,25585,-25379,-16735
6775.5,3168,25799,-25406,-16759
6777.5,3364,26044,-25410,-16722
6779.5,3462,26058,-25372,-16682
6781.5,3326,25908,-25251,-16621
6783.5,3206,25779,-25214,-16609
6785.5,3310,25690,-25326,-16673
6787.5,3465,25578,-25348,-16663
6789.5,3468,25471,-25254,-16582
6791.5,3419,25473,-25285,-16612
6793.5,3410,25608,-25380,-16691
6795.5,3314,25723,-25335,-16650
6797.5,3126,25630,-25283,-16583
6799.5,3045,25403,-25330,-16582
6801.5,3121,25338,-25319,-16554
6803.5,3236,25521,-25275,-16540
6805.5,3357,25694,-25361,-16638
6807.5,3468,25696,-25446,-16705
6809.5,3479,25709,-25379,-16644
6811.5,3401,25824,-25321,-16606
6813.5,3348,25817,-25371,-16624
6815.5,3334,25652,-25387,-16566
6817.5,3327,25643,-25330,-16466
6819.5,3386,25856,-25300,-16442
6821.5,3488,25949,-25320,-16465
6823.5,3459,25796,-25356,-16476
6825.5,3284,25659,-25394,-16508
6827.5,3213,25665,-25444,-16591
6829.5,3376,25694,-25515,-16690
6831.5,3597,25734,-25568,-16730
6833.5,3661,25827,-25534,-16675
6835.5,3535,25826,-25428,-16566
6837.5,3355,25642,-25338,-16468
6839.5,3338,25561,-25339,-16446
6841.5,3531,25829,-25442,-16556
6843.5,3622,26106,-25549,-16706
6845.5,3391,25889,-25536,-16708
6847.5,3177,25374,-25482,-16609
6849.5,3333,25225,-25548,-16633
6851.5,3569,25531,-25672,-16755
6853.5,3509,25769,-25685,-16778
6855.5,3367,25768,-25583,-16676
6857.5,3410,25854,-25436,-16542
6859.5,3450,26080,-25303,-16440
6861.5,3394,26157,-25280,-16436
6863.5,3465,26108,-25328,-16482
6865.5,3562,26167,-25266,-16412
6867.5,3352,26232,-25117,-16269
6869.5,3054,26139,-25054,-16237
6871.5,3158,26114,-25040,-16260
6873.5,3510,26324,-24963,-16190
6875.5,3609,26484,-24901,-16099
6877.5,3447,26418,-24892,-16052
6879.5,3347,26374,-24828,-15965
6881.5,3377,26485,-24754,-15879
6883.5,3421,26558,-24812,-15944
6885.5,3425,26510,-24962,-16110
6887.5,3381,26469,-25068,-16227
6889.5,3319,26523,-25083,-16252
6891.5,3330,26670,-25029,-16210
6893.5,3432,26867,-24985,-16144
6895.5,3548,27013,-24996,-16086
6897.5,3618,27049,-24960,-15984
6899.5,3620,27006,-24838,-15825
6901.5,3594,26934,-24788,-15742
6903.5,3634,26908,-24863,-15794
6905.5,3728,26982,-24937,-15891
6907.5,3716,27029,-25019,-16023
6909.5,3561,26886,-25160,-16178
6911.5,3468,26689,-25208,-16207
6913.5,3599,26672,-25114,-16100
6915.5,3820,26754,-25101,-16055
6917.5,3861,26707,-25219,-16110
6919.5,3664,26548,-25271,-16142
6921.5,3453,26420,-25231,-16166
6923.5,3414,26301,-25260,-16255
6925.5,3457,26117,-25399,-16370
6927.5,3426,25936,-25571,-16492
6929.5,3354,25863,-25702,-16620
6931.5,3368,25850,-25745,-16688
6933.5,3442,25733,-25743,-16694
6935.5,3423,25522,-25784,-16722
6937.5,3280,25453,-25821,-16744
6939.5,3190,25594,-25762,-16678
6941.5,3266,25673,-25700,-16627
6943.5,3378,25568,-25808,-16755
6945.5,3402,25533,-26035,-16984
6947.5,3393,25639,-26153,-17107
6949.5,3386,25573,-26128,-17122
6951.5,3311,25291,-26134,-17162
6953.5,3209,25177,-26162,-17154
6955.5,3203,25368,-26052,-16980
6957.5,3269,25549,-25931,-16848
6959.5,3295,25528,-26017,-16965
6961.5,3271,25479,-26128,-17085
6963.5,3281,25550,-26051,-16992
6965.5,3376,25614,-25989,-16928
6967.5,3467,25494,-26095,-17053
6969.5,3395,25248,-26164,-17147
6971.5,3194,25103,-26122,-17115
6973.5,3100,25171,-26085,-17074
6975.5,3191,25321,-26020,-17003
6977.5,3325,25414,-25940,-16906
6979.5,3423,25488,-26000,-16912
6981.5,3457,25563,-26071,-16932
6983.5,3373,25501,-25949,-16819
6985.5,3289,25301,-25873,-16784
6987.5,3377,25217,-26057,-16979
6989.5,3471,25280,-26214,-17122
6991.5,3317,25212,-26151,-17052
6993.5,3106,24999,-26099,-17001
6995.5,3173,24908,-26145,-17064
6997.5,3395,24903,-26134,-17107
6999.5,3460,24768,-26080,-17140
7001.5,3393,24593,-26029,-17210
7003.5,3393,24543,-25799,-17172
7005.5,3496,24596,-25291,-16889
7007.5,3669,24859,-24630,-16348
7009.5,3903,25467,-23926,-15566
7011.5,4092,26225,-23285,-14667
7013.5,4102,27009,-22899,-13829
7015.5,3978,28028,-22818,-13063
7017.5,3840,29181,-22924,-12345
7019.5,3716,30043,-23219,-11832
7021.5,3593,30717,-23729,-11553
7023.6,3457,31597,-24231,-11250
7025.6,3233,32468,-24586,-10894
7027.6,2931,32979,-25129,-10889
7029.6,2716,33336,-26215,-11516
7031.6,2602,33478,-27671,-12737
7033.6,2383,32601,-29203,-14647
7035.6,2061,30464,-30873,-17361
7037.6,1906,28062,-32607,-20304
7039.6,1975,26413,-33781,-22382
7041.6,2070,25614,-33931,-23084
7043.6,2146,25268,-33354,-22841
7045.6,2265,25043,-32546,-22229
7047.6,2374,24864,-31601,-21438
7049.6,2484,24944,-30564,-20592
7051.6,2696,25360,-29700,-19898
7053.6,2872,25748,-29076,-19359
7055.6,2876,25823,-28464,-18803
7057.6,2952,25806,-27803,-18235
7059.6,3234,25880,-27277,-17827
7061.6,3369,25844,-26972,-17635
7063.6,3248,25612,-26823,-17575
7065.6,3275,25424,-26733,-17523
7067.6,3515,25362,-26618,-17407
7069.6,3569,25235,-26511,-17321
7071.6,3457,25023,-26528,-17390
7073.6,3508,24914,-26589,-17479
7075.6,3587,24940,-26502,-17368
7077.6,3448,24960,-26331,-17148
7079.6,3341,24929,-26253,-17035
7081.6,3496,24927,-26241,-17028
7083.6,3671,25045,-26271,-17085
7085.6,3671,25294,-26428,-17238
7087.6,3621,25482,-26583,-17357
7089.6,3606,25346,-26487,-17269
7091.6,3590,24975,-26257,-17113
7093.6,3580,24796,-26207,-17109
7095.6,3555,24956,-26287,-17154
7097.6,3484,25153,-26239,-17057
7099.6,3467,25176,-26104,-16916
7101.6,3555,25189,-26105,-16926
7103.6,3569,25354,-26207,-17027
7105.6,3415,25532,-26234,-17069
7107.6,3323,25484,-26211,-17081
7109.6,3482,25228,-26212,-17119
7111.6,3708,25073,-26174,-17111
7113.6,3748,25211,-26131,-17079
7115.6,3638,25424,-26217,-17145
7117.6,3528,25445,-26314,-17210
7119.6,3463,25380,-26229,-17101
7121.6,3482,25401,-26094,-16955
7123.6,3597,25340,-26074,-16948
7125.6,3618,25073,-26065,-16981
7127.6,3437,24922,-26071,-17010
7129.6,3323,25127,-26230,-17146
7131.6,3477,25366,-26375,-17266
7133.6,3628,25309,-26287,-17177
7135.6,3590,25209,-26147,-17026
7137.6,3645,25436,-26139,-16999
7139.6,3859,25786,-26137,-17005
7141.6,3841,25793,-26080,-16974
7143.6,3572,25493,-26037,-16947
7145.6,3567,25337,-25955,-16883
7147.6,3874,25426,-25861,-16811
7149.6,3941,25407,-25918,-16868
7151.6,3650,25172,-26025,-16971
7153.6,3489,25057,-25970,-16940
7155.6,3635,25253,-25877,-16866
7157.6,3746,25550,-25902,-16865
7159.6,3671,25704,-25895,-16822
7161.6,3611,25677,-25795,-16717
7163.6,3650,25552,-25771,-16709
7165.6,3675,25457,-25844,-16791
7167.6,3656,25417,-25901,-16843
7169.6,3615,25317,-25946,-16874
7171.6,3546,25183,-25976,-16905
7173.6,3547,25237,-25924,-16865
7175.6,3708,25508,-25829,-16753
7177.6,3873,25739,-25744,-16618
7179.6,3873,25763,-25638,-16490
7181.6,3806,25650,-25544,-16417
7183.6,3752,25525,-25523,-16397
7185.6,3656,25503,-25526,-16368
7187.6,3636,25631,-25542,-16380
7189.6,3849,25781,-25598,-16474
7191.6,4084,25835,-25583,-16478
7193.6,4117,25893,-25459,-16329
7195.6,4113,26055,-25400,-16256
7197.6,4178,26167,-25404,-16286
7199.6,4133,26100,-25257,-16158
7201.6,4023,26026,-25044,-15912
7203.6,4083,26099,-25029,-15857
7205.6,4204,26152,-25128,-15967
7207.6,4180,26048,-25118,-15995
7209.6,4150,26011,-25062,-15947
7211.6,4234,26183,-25061,-15941
7213.6,4266,26291,-25018,-15914
7215.6,4207,26185,-24910,-15804
7217.6,4218,26174,-24855,-15695
7219.6,4282,26414,-24867,-15650
7221.6,4279,26621,-24859,-15622
7223.6,4239,26638,-24830,-15575
7225.6,4228,26620,-24808,-15526
7227.6,4261,26656,-24761,-15487
7229.6,4367,26736,-24723,-15480
7231.6,4458,26845,-24795,-15553
7233.6,4346,26836,-24906,-15655
7235.6,4115,26657,-24838,-15615
7237.6,4091,26599,-24628,-15426
7239.6,4350,26855,-24546,-15307
7241.6,4619,27141,-24625,-15340
7243.6,4659,27149,-24672,-15390
7245.6,4463,26969,-24688,-15427
7247.6,4191,26876,-24772,-15511
7249.6,4062,26961,-24825,-15561
7251.6,4150,27086,-24771,-15505
7253.6,4279,27144,-24723,-15444
7255.6,4252,27247,-24734,-15442
7257.6,4141,27399,-24759,-15459
7259.6,4138,27345,-24812,-15490
7261.6,4233,27102,-24869,-15522
7263.6,4253,27045,-24868,-15531
7265.6,4157,27200,-24882,-15586
7267.6,4062,27243,-24975,-15733
7269.6,4033,27207,-25048,-15868
7271.6,4054,27277,-25061,-15926
7273.6,4086,27260,-25069,-15939
7275.6,4048,27027,-25040,-15904
7277.6,3897,26850,-24981,-15858
7279.6,3790,26864,-25017,-15912
7281.6,3882,26916,-25134,-16049
7283.7,4035,26989,-25211,-16162
7285.7,4004,27046,-25267,-16241
7287.7,3799,26814,-25320,-16283
7289.7,3622,26361,-25290,-16258
7291.7,3610,26255,-25248,-16262
7293.7,3740,26620,-25309,-16361
7295.7,3839,26824,-25382,-16437
7297.7,3749,26554,-25383,-16442
7299.7,3577,26296,-25391,-16457
7301.7,3553,26386,-25410,-16466
7303.7,3651,26532,-25426,-16466
7305.7,3671,26532,-25521,-16567
7307.7,3580,26530,-25624,-16683
7309.7,3480,26508,-25583,-16634
7311.7,3427,26376,-25542,-16562
7313.7,3445,26283,-25645,-16637
7315.7,3523,26242,-25659,-16659
7317.7,3578,26088,-25484,-16501
7319.7,3582,26044,-25409,-16403
7321.7,3605,26372,-25519,-16471
7323.7,3668,26663,-25580,-16519
7325.7,3724,26534,-25559,-16499
7327.7,3725,26371,-25599,-16523
7329.7,3615,26492,-25664,-16587
7331.7,3453,26597,-25663,-16608
7333.7,3455,26550,-25608,-16555
7335.7,3676,26581,-25546,-16481
7337.7,3869,26623,-25548,-16503
7339.7,3855,26487,-25614,-16602
7341.7,3707,26380,-25610,-16604
7343.7,3574,26484,-25530,-16520
7345.7,3572,26578,-25539,-16529
7347.7,3679,26515,-25618,-16596
7349.7,3664,26446,-25615,-16598
7351.7,3452,26453,-25587,-16608
7353.7,3362,26479,-25608,-16643
7355.7,3571,26542,-25578,-16570
7357.7,3759,26649,-25521,-16480
7359.7,3661,26670,-25560,-16540
7361.7,3483,26543,-25584,-16587
7363.7,3477,26428,-25489,-16487
7365.7,3589,26478,-25472,-16467
7367.7,3675,26610,-25600,-16603
7369.7,3697,26647,-25630,-16650
7371.7,3642,26551,-25527,-16584
7373.7,3492,26383,-25537,-16612
7375.7,3363,26204,-25641,-16668
7377.7,3432,26166,-25598,-16552
7379.7,3641,26414,-25450,-16381
7381.7,3706,26756,-25454,-16387
7383.7,3567,26827,-25585,-16504
7385.7,3487,26651,-25577,-16515
7387.7,3584,26584,-25443,-16436
7389.7,3670,26697,-25480,-16474
7391.7,3633,26699,-25713,-16657
7393.7,3570,26493,-25828,-16774
7395.7,3569,26349,-25714,-16712
7397.7,3647,26467,-25581,-16580
7399.7,3746,26658,-25543,-16505
7401.7,3718,26642,-25545,-16506
7403.7,3533,26517,-25565,-16545
7405.7,3403,26589,-25593,-16573
7407.7,3493,26779,-25606,-16587
7409.7,3668,26730,-25649,-16640
7411.7,3727,26478,-25712,-16707
7413.7,3662,26403,-25712,-16715
7415.7,3619,26570,-25692,-16701
7417.7,3678,26700,-25713,-16703
7419.7,3761,26685,-25668,-16635
7421.7,3753,26671,-25513,-16481
7423.7,3665,26716,-25399,-16383
7425.7,3596,26728,-25370,-16390
7427.7,3626,26715,-25323,-16403
7429.7,3756,26827,-25272,-16388
7431.7,3840,27053,-25261,-16374
7433.7,3702,27144,-25212,-16336
7435.7,3473,27071,-25089,-16243
7437.7,3459,27152,-24981,-16131
7439.7,3588,27421,-24940,-16077
7441.7,3533,27480,-24934,-16100
7443.7,3347,27299,-24913,-16112
7445.7,3347,27367,-24893,-16085
7447.7,3542,27733,-24968,-16151
7449.7,3721,27818,-25098,-16298
7451.7,3812,27493,-25070,-16283
7453.7,3804,27328,-24905,-16114
7455.7,3669,27517,-24887,-16078
7457.7,3509,27567,-24966,-16114
7459.7,3460,27380,-24850,-15960
7461.7,3523,27515,-24676,-15785
7463.7,3666,28046,-24733,-15835
7465.7,3832,28297,-24849,-15903
7467.7,3896,28041,-24841,-15864
7469.7,3891,27835,-24904,-15950
7471.7,4024,27897,-25056,-16115
7473.7,4226,27790,-25079,-16106
7475.7,4168,27410,-25057,-16063
7477.7,3880,27234,-25141,-16159
7479.7,3752,27433,-25148,-16159
7481.7,3857,27603,-25020,-15997
7483.7,3878,27453,-25015,-15986
7485.7,3728,27149,-25188,-16180
7487.7,3655,26943,-25326,-16312
7489.7,3740,26869,-25363,-16327
7491.7,3757,26805,-25413,-16396
7493.7,3599,26674,-25588,-16617
7495.7,3450,26528,-25838,-16887
7497.7,3433,26428,-25911,-16956
7499.7,3480,26370,-25737,-16779
7501.7,3582,26397,-25657,-16683
7503.7,3763,26523,-25816,-16815
7505.7,3804,26535,-25901,-16893
7507.7,3540,26300,-25825,-16834
7509.7,3276,26111,-25864,-16888
7511.7,3347,26194,-25994,-17033
7513.7,3551,26269,-25995,-17054
7515.7,3544,26129,-25969,-17023
7517.7,3418,26047,-26041,-17056
7519.7,3435,26187,-26032,-17025
7521.7,3564,26328,-25896,-16907
7523.7,3645,26382,-25860,-16888
7525.7,3667,26448,-25961,-16979
7527.7,3657,26404,-26001,-17011
7529.7,3555,26138,-25948,-16974
7531.7,3411,25917,-25961,-17017
