t,carotid_880nm,carotid_660nm,brachial_880nm,brachial_660nm
3.5,-78.008,-66.918,-153.42,-148.97
13.4,-82.008,-67.918,-157.42,-150.97
23.2,-84.008,-68.918,-161.42,-150.97
33.1,-83.008,-67.918,-165.42,-149.97
43.0,-84.008,-64.918,-167.42,-149.97
52.9,-91.008,-70.918,-174.42,-149.97
62.8,-103.01,-77.918,-176.42,-150.97
72.7,-112.01,-81.918,-180.42,-149.97
82.6,-104.01,-79.918,-184.42,-148.97
92.4,-94.008,-77.918,-188.42,-149.97
102.3,-84.008,-76.918,-192.42,-152.97
112.2,-77.008,-76.918,-198.42,-158.97
122.1,-67.008,-74.918,-200.42,-160.97
132.0,-56.008,-70.918,-196.42,-160.97
141.9,-44.008,-64.918,-191.42,-161.97
151.8,-35.008,-63.918,-186.42,-160.97
161.6,-31.008,-59.918,-181.42,-160.97
171.5,-24.008,-59.918,-173.42,-159.97
181.4,-20.008,-57.918,-169.42,-157.97
191.3,-18.008,-56.918,-164.42,-157.97
201.2,-12.008,-54.918,-156.42,-153.97
211.1,-9.0077,-54.918,-149.42,-152.97
221.0,-4.0077,-52.918,-141.42,-148.97
230.8,1.9923,-49.918,-135.42,-148.97
240.7,3.9923,-46.918,-129.42,-144.97
250.6,3.9923,-46.918,-127.42,-142.97
260.5,3.9923,-47.918,-122.42,-140.97
270.4,5.9923,-45.918,-121.42,-138.97
280.3,5.9923,-44.918,-119.42,-138.97
290.2,5.9923,-42.918,-118.42,-135.97
300.0,6.9923,-41.918,-118.42,-134.97
309.9,6.9923,-42.918,-117.42,-133.97
319.8,6.9923,-42.918,-119.42,-134.97
329.7,8.9923,-41.918,-121.42,-133.97
339.6,11.992,-39.918,-123.42,-133.97
349.5,12.992,-38.918,-127.42,-135.97
359.4,13.992,-37.918,-131.42,-134.97
369.2,13.992,-37.918,-131.42,-134.97
379.1,14.992,-36.918,-135.42,-137.97
389.0,14.992,-36.918,-135.42,-137.97
398.9,13.992,-35.918,-142.42,-137.97
408.8,13.992,-35.918,-142.42,-137.97
418.7,9.9923,-36.918,-150.42,-139.97
428.6,9.9923,-36.918,-150.42,-139.97
438.4,8.9923,-35.918,-159.42,-142.97
448.3,8.9923,-35.918,-159.42,-142.97
458.2,8.9923,-35.918,-163.42,-144.97
468.1,8.9923,-35.918,-163.42,-144.97
478.0,4.9923,-35.918,-172.42,-145.97
487.9,4.9923,-35.918,-172.42,-145.97
497.8,2.9923,-36.918,-176.42,-144.97
507.6,-2.0077,-38.918,-176.42,-144.97
517.5,-0.0077116,-38.918,-182.42,-146.97
527.4,-4.0077,-39.918,-182.42,-146.97
537.3,-4.0077,-39.918,-186.42,-145.97
547.2,-7.0077,-39.918,-188.42,-146.97
557.1,-9.0077,-40.918,-192.42,-146.97
567.0,-11.008,-39.918,-196.42,-148.97
576.8,-10.008,-39.918,-201.42,-148.97
586.7,-16.008,-41.918,-204.42,-147.97
596.6,-28.008,-48.918,-207.42,-148.97
606.5,-42.008,-57.918,-213.42,-149.97
616.4,-45.008,-62.918,-215.42,-147.97
626.3,-40.008,-59.918,-219.42,-148.97
636.2,-33.008,-58.918,-223.42,-147.97
646.0,-26.008,-61.918,-228.42,-150.97
655.9,-19.008,-61.918,-234.42,-155.97
665.8,-11.008,-60.918,-230.42,-158.97
675.7,-0.0077116,-54.918,-230.42,-157.97
685.6,6.9923,-53.918,-224.42,-156.97
695.5,14.992,-51.918,-221.42,-157.97
705.4,19.992,-50.918,-216.42,-156.97
715.2,22.992,-47.918,-209.42,-154.97
725.1,25.992,-48.918,-204.42,-153.97
735.0,26.992,-48.918,-199.42,-152.97
744.9,30.992,-46.918,-194.42,-151.97
754.8,36.992,-45.918,-186.42,-149.97
764.7,39.992,-43.918,-181.42,-147.97
774.6,40.992,-43.918,-175.42,-145.97
784.4,38.992,-45.918,-172.42,-143.97
794.3,35.992,-46.918,-168.42,-140.97
804.2,36.992,-47.918,-163.42,-138.97
814.1,34.992,-46.918,-162.42,-136.97
824.0,35.992,-45.918,-159.42,-134.97
833.9,34.992,-47.918,-159.42,-134.97
843.8,35.992,-47.918,-161.42,-134.97
853.6,38.992,-46.918,-162.42,-132.97
863.5,40.992,-44.918,-163.42,-133.97
873.4,39.992,-43.918,-167.42,-134.97
883.3,41.992,-43.918,-171.42,-135.97
893.2,44.992,-43.918,-173.42,-136.97
903.1,42.992,-41.918,-177.42,-137.97
913.0,44.992,-42.918,-180.42,-138.97
922.8,41.992,-42.918,-181.42,-138.97
932.7,43.992,-43.918,-185.42,-139.97
942.6,41.992,-42.918,-186.42,-140.97
952.5,40.992,-43.918,-189.42,-139.97
962.4,38.992,-42.918,-192.42,-140.97
972.3,38.992,-43.918,-194.42,-142.97
982.2,37.992,-42.918,-197.42,-143.97
992.0,35.992,-41.918,-202.42,-143.97
1001.9,35.992,-41.918,-204.42,-142.97
1011.8,35.992,-42.918,-206.42,-143.97
1021.7,32.992,-40.918,-209.42,-145.97
1031.6,29.992,-43.918,-213.42,-145.97
1041.5,27.992,-43.918,-215.42,-145.97
1051.4,25.992,-44.918,-216.42,-145.97
1061.2,20.992,-43.918,-218.42,-145.97
1071.1,21.992,-42.918,-221.42,-145.97
1081.0,21.992,-42.918,-220.42,-146.97
1090.9,20.992,-39.918,-226.42,-146.97
1100.8,20.992,-39.918,-226.42,-149.97
1110.7,16.992,-35.918,-230.42,-149.97
1120.6,16.992,-35.918,-232.42,-149.97
1130.4,-2.0077,-44.918,-237.42,-151.97
1140.3,-2.0077,-44.918,-240.42,-150.97
1150.2,-16.008,-50.918,-242.42,-150.97
1160.1,-16.008,-50.918,-247.42,-152.97
1170.0,-13.008,-52.918,-251.42,-152.97
1179.9,-13.008,-52.918,-256.42,-155.97
1189.8,-7.0077,-56.918,-259.42,-159.97
1199.6,-7.0077,-56.918,-262.42,-159.97
1209.5,3.9923,-51.918,-256.42,-160.97
1219.4,3.9923,-51.918,-252.42,-158.97
1229.3,8.9923,-49.918,-246.42,-157.97
1239.2,9.9923,-48.918,-240.42,-154.97
1249.1,10.992,-49.918,-233.42,-153.97
1259.0,8.9923,-50.918,-227.42,-151.97
1268.8,6.9923,-52.918,-222.42,-149.97
1278.7,4.9923,-52.918,-216.42,-146.97
1288.6,2.9923,-53.918,-210.42,-144.97
1298.5,2.9923,-52.918,-206.42,-143.97
1308.4,-0.0077116,-53.918,-200.42,-141.97
1318.3,-5.0077,-55.918,-195.42,-139.97
1328.2,-10.008,-57.918,-193.42,-137.97
1338.0,-13.008,-59.918,-189.42,-134.97
1347.9,-14.008,-57.918,-184.42,-132.97
1357.8,-16.008,-57.918,-183.42,-131.97
1367.7,-20.008,-59.918,-184.42,-129.97
1377.6,-21.008,-60.918,-184.42,-129.97
1387.5,-26.008,-61.918,-183.42,-129.97
1397.4,-28.008,-62.918,-183.42,-129.97
1407.2,-29.008,-62.918,-184.42,-128.97
1417.1,-31.008,-61.918,-184.42,-128.97
1427.0,-33.008,-63.918,-187.42,-128.97
1436.9,-33.008,-62.918,-187.42,-128.97
1446.8,-36.008,-63.918,-192.42,-128.97
1456.7,-40.008,-63.918,-192.42,-128.97
1466.5,-43.008,-65.918,-198.42,-129.97
1476.4,-49.008,-67.918,-198.42,-129.97
1486.3,-53.008,-68.918,-199.42,-129.97
1496.2,-58.008,-69.918,-199.42,-129.97
1506.1,-61.008,-68.918,-205.42,-129.97
1516.0,-64.008,-69.918,-205.42,-129.97
1525.9,-68.008,-70.918,-209.42,-129.97
1535.8,-72.008,-69.918,-209.42,-129.97
1545.6,-74.008,-71.918,-215.42,-131.97
1555.5,-78.008,-71.918,-215.42,-131.97
1565.4,-79.008,-70.918,-216.42,-131.97
1575.3,-81.008,-69.918,-216.42,-131.97
1585.2,-83.008,-70.918,-218.42,-131.97
1595.1,-89.008,-71.918,-220.42,-131.97
1604.9,-91.008,-71.918,-223.42,-131.97
1614.8,-94.008,-72.918,-225.42,-131.97
1624.7,-100.01,-72.918,-226.42,-130.97
1634.6,-105.01,-73.918,-228.42,-129.97
1644.5,-109.01,-74.918,-231.42,-131.97
1654.4,-119.01,-79.918,-235.42,-130.97
1664.3,-130.01,-86.918,-236.42,-129.97
1674.2,-141.01,-90.918,-240.42,-129.97
1684.0,-143.01,-92.918,-240.42,-128.97
1693.9,-137.01,-88.918,-243.42,-129.97
1703.8,-133.01,-90.918,-245.42,-128.97
1713.7,-129.01,-90.918,-249.42,-129.97
1723.6,-122.01,-89.918,-252.42,-132.97
1733.5,-112.01,-86.918,-253.42,-135.97
1743.3,-107.01,-83.918,-251.42,-138.97
1753.2,-101.01,-81.918,-243.42,-136.97
1763.1,-100.01,-79.918,-240.42,-136.97
1773.0,-99.008,-79.918,-234.42,-135.97
1782.9,-99.008,-79.918,-227.42,-133.97
1792.8,-99.008,-79.918,-221.42,-131.97
1802.7,-104.01,-80.918,-213.42,-129.97
1812.5,-104.01,-80.918,-204.42,-125.97
1822.4,-102.01,-77.918,-197.42,-123.97
1832.3,-102.01,-77.918,-190.42,-121.97
1842.2,-107.01,-79.918,-184.42,-119.97
1852.1,-107.01,-79.918,-179.42,-117.97
1862.0,-117.01,-82.918,-173.42,-114.97
1871.9,-117.01,-82.918,-167.42,-108.97
1881.7,-120.01,-82.918,-164.42,-107.97
1891.6,-120.01,-82.918,-160.42,-105.97
1901.5,-127.01,-86.918,-158.42,-102.97
1911.4,-127.01,-86.918,-157.42,-101.97
1921.3,-130.01,-85.918,-155.42,-98.971
1931.2,-130.01,-85.918,-154.42,-97.971
1941.1,-132.01,-84.918,-154.42,-96.971
1950.9,-133.01,-85.918,-153.42,-96.971
1960.8,-136.01,-86.918,-153.42,-94.971
1970.7,-138.01,-86.918,-155.42,-94.971
1980.6,-140.01,-86.918,-156.42,-93.971
1990.5,-144.01,-87.918,-156.42,-93.971
2000.4,-147.01,-88.918,-158.42,-93.971
2010.3,-151.01,-89.918,-160.42,-94.971
2020.1,-159.01,-92.918,-164.42,-94.971
2030.0,-163.01,-94.918,-163.42,-93.971
2039.9,-169.01,-97.918,-165.42,-93.971
2049.8,-175.01,-99.918,-165.42,-94.971
2059.7,-180.01,-101.92,-169.42,-92.971
2069.6,-187.01,-104.92,-168.42,-91.971
2079.5,-192.01,-106.92,-168.42,-90.971
2089.3,-197.01,-106.92,-172.42,-90.971
2099.2,-203.01,-112.92,-170.42,-87.971
2109.1,-208.01,-113.92,-172.42,-89.971
2119.0,-212.01,-114.92,-174.42,-88.971
2128.9,-217.01,-115.92,-175.42,-86.971
2138.8,-221.01,-117.92,-178.42,-85.971
2148.7,-227.01,-117.92,-177.42,-86.971
2158.5,-230.01,-119.92,-181.42,-85.971
2168.4,-235.01,-119.92,-180.42,-84.971
2178.3,-239.01,-121.92,-181.42,-85.971
2188.2,-252.01,-127.92,-182.42,-83.971
2198.1,-261.01,-133.92,-184.42,-82.971
2208.0,-266.01,-133.92,-185.42,-81.971
2217.9,-262.01,-132.92,-186.42,-81.971
2227.7,-260.01,-133.92,-191.42,-81.971
2237.6,-254.01,-135.92,-195.42,-85.971
2247.5,-247.01,-134.92,-198.42,-88.971
2257.4,-235.01,-129.92,-198.42,-91.971
2267.3,-225.01,-125.92,-192.42,-89.971
2277.2,-219.01,-122.92,-184.42,-91.971
2287.1,-217.01,-119.92,-180.42,-87.971
2296.9,-217.01,-120.92,-170.42,-85.971
2306.8,-219.01,-122.92,-164.42,-82.971
2316.7,-220.01,-123.92,-155.42,-81.971
2326.6,-221.01,-125.92,-150.42,-78.971
2336.5,-223.01,-126.92,-140.42,-74.971
2346.4,-223.01,-124.92,-132.42,-71.971
2356.3,-222.01,-123.92,-125.42,-67.971
2366.1,-224.01,-124.92,-116.42,-63.971
2376.0,-227.01,-127.92,-110.42,-60.971
2385.9,-228.01,-125.92,-103.42,-57.971
2395.8,-228.01,-123.92,-97.419,-53.971
2405.7,-227.01,-120.92,-92.419,-50.971
2415.6,-227.01,-122.92,-91.419,-48.971
2425.5,-228.01,-120.92,-88.419,-45.971
2435.3,-227.01,-121.92,-85.419,-42.971
2445.2,-229.01,-119.92,-86.419,-40.971
2455.1,-227.01,-118.92,-84.419,-39.971
2465.0,-227.01,-119.92,-84.419,-39.971
2474.9,-228.01,-117.92,-84.419,-37.971
2484.8,-226.01,-116.92,-84.419,-37.971
2494.7,-228.01,-116.92,-82.419,-34.971
2504.5,-228.01,-116.92,-82.419,-34.971
2514.4,-232.01,-114.92,-87.419,-34.971
2524.3,-232.01,-114.92,-87.419,-34.971
2534.2,-235.01,-116.92,-89.419,-33.971
2544.1,-235.01,-116.92,-89.419,-33.971
2554.0,-241.01,-116.92,-93.419,-33.971
2563.9,-241.01,-116.92,-93.419,-33.971
2573.7,-245.01,-117.92,-94.419,-33.971
2583.6,-245.01,-117.92,-94.419,-33.971
2593.5,-252.01,-118.92,-95.419,-32.971
2603.4,-252.01,-118.92,-95.419,-32.971
2613.3,-257.01,-119.92,-98.419,-31.971
2623.2,-257.01,-119.92,-98.419,-31.971
2633.1,-259.01,-119.92,-99.419,-30.971
2642.9,-259.01,-119.92,-99.419,-30.971
2652.8,-260.01,-119.92,-101.42,-31.971
2662.7,-263.01,-118.92,-102.42,-31.971
2672.6,-264.01,-118.92,-105.42,-31.971
2682.5,-265.01,-116.92,-104.42,-30.971
2692.4,-267.01,-113.92,-107.42,-30.971
2702.3,-277.01,-120.92,-108.42,-30.971
2712.1,-285.01,-125.92,-109.42,-28.971
2722.0,-293.01,-130.92,-108.42,-28.971
2731.9,-293.01,-129.92,-108.42,-26.971
2741.8,-286.01,-129.92,-108.42,-27.971
2751.7,-284.01,-131.92,-111.42,-27.971
2761.6,-277.01,-132.92,-118.42,-32.971
2771.5,-265.01,-130.92,-116.42,-36.971
2781.3,-255.01,-126.92,-115.42,-37.971
2791.2,-245.01,-122.92,-109.42,-39.971
2801.1,-241.01,-122.92,-101.42,-37.971
2811.0,-238.01,-121.92,-96.419,-36.971
2820.9,-237.01,-121.92,-88.419,-35.971
2830.8,-235.01,-121.92,-79.419,-34.971
2840.7,-232.01,-119.92,-70.419,-31.971
2850.5,-229.01,-118.92,-62.419,-28.971
2860.4,-226.01,-116.92,-56.419,-29.971
2870.3,-223.01,-116.92,-48.419,-26.971
2880.2,-220.01,-116.92,-41.419,-23.971
2890.1,-217.01,-114.92,-33.419,-20.971
2900.0,-219.01,-115.92,-27.419,-16.971
2909.9,-219.01,-114.92,-18.419,-13.971
2919.7,-219.01,-114.92,-13.419,-11.971
2929.6,-218.01,-114.92,-8.4187,-7.9711
2939.5,-217.01,-110.92,-5.4187,-6.9711
2949.4,-216.01,-112.92,-5.4187,-4.9711
2959.3,-216.01,-112.92,-3.4187,-4.9711
2969.2,-211.01,-110.92,-4.4187,-3.9711
2979.1,-209.01,-107.92,-3.4187,-2.9711
2988.9,-206.01,-103.92,-6.4187,-3.9711
2998.8,-201.01,-100.92,-6.4187,-3.9711
3008.7,-197.01,-96.918,-9.4187,-3.9711
3018.6,-194.01,-95.918,-12.419,-3.9711
3028.5,-190.01,-92.918,-17.419,-5.9711
3038.4,-189.01,-89.918,-20.419,-7.9711
3048.3,-188.01,-87.918,-24.419,-8.9711
3058.1,-186.01,-86.918,-30.419,-9.9711
3068.0,-184.01,-84.918,-32.419,-10.971
3077.9,-185.01,-82.918,-38.419,-13.971
3087.8,-185.01,-83.918,-38.419,-13.971
3097.7,-186.01,-83.918,-42.419,-14.971
3107.6,-188.01,-83.918,-45.419,-16.971
3117.5,-188.01,-82.918,-50.419,-18.971
3127.3,-189.01,-81.918,-53.419,-17.971
3137.2,-192.01,-82.918,-55.419,-18.971
3147.1,-192.01,-83.918,-58.419,-20.971
3157.0,-194.01,-82.918,-63.419,-22.971
3166.9,-194.01,-82.918,-66.419,-23.971
3176.8,-196.01,-81.918,-68.419,-24.971
3186.7,-198.01,-81.918,-72.419,-25.971
3196.5,-200.01,-82.918,-76.419,-25.971
3206.4,-205.01,-84.918,-79.419,-26.971
3216.3,-216.01,-92.918,-85.419,-27.971
3226.2,-232.01,-101.92,-86.419,-28.971
3236.1,-232.01,-101.92,-88.419,-29.971
3246.0,-227.01,-101.92,-93.419,-30.971
3255.9,-227.01,-101.92,-97.419,-31.971
3265.7,-210.01,-100.92,-104.42,-36.971
3275.6,-210.01,-100.92,-110.42,-42.971
3285.5,-187.01,-94.918,-112.42,-47.971
3295.4,-187.01,-94.918,-110.42,-48.971
3305.3,-164.01,-84.918,-103.42,-49.971
3315.2,-164.01,-84.918,-98.419,-48.971
3325.1,-151.01,-77.918,-94.419,-49.971
3334.9,-151.01,-77.918,-89.419,-49.971
3344.8,-142.01,-76.918,-81.419,-46.971
3354.7,-142.01,-76.918,-74.419,-45.971
3364.6,-136.01,-72.918,-65.419,-43.971
3374.5,-130.01,-70.918,-55.419,-40.971
3384.4,-125.01,-68.918,-48.419,-39.971
3394.3,-122.01,-68.918,-42.419,-35.971
3404.1,-119.01,-64.918,-31.419,-32.971
3414.0,-114.01,-62.918,-25.419,-29.971
3423.9,-111.01,-61.918,-18.419,-25.971
3433.8,-109.01,-61.918,-13.419,-23.971
3443.7,-110.01,-60.918,-7.4187,-20.971
3453.6,-109.01,-59.918,-7.4187,-19.971
3463.5,-109.01,-58.918,-4.4187,-16.971
3473.3,-106.01,-54.918,-4.4187,-16.971
3483.2,-108.01,-56.918,-4.4187,-14.971
3493.1,-106.01,-55.918,-4.4187,-14.971
3503.0,-105.01,-54.918,-8.4187,-15.971
3512.9,-104.01,-53.918,-8.4187,-15.971
3522.8,-103.01,-53.918,-14.419,-16.971
3532.7,-102.01,-52.918,-14.419,-16.971
3542.5,-101.01,-51.918,-20.419,-17.971
3552.4,-101.01,-49.918,-20.419,-17.971
3562.3,-99.008,-49.918,-27.419,-19.971
3572.2,-102.01,-49.918,-27.419,-19.971
3582.1,-105.01,-49.918,-35.419,-21.971
3592.0,-106.01,-50.918,-35.419,-21.971
3601.9,-108.01,-52.918,-42.419,-24.971
3611.7,-108.01,-50.918,-42.419,-24.971
3621.6,-110.01,-50.918,-49.419,-26.971
3631.5,-110.01,-49.918,-49.419,-26.971
3641.4,-111.01,-49.918,-54.419,-27.971
3651.3,-112.01,-50.918,-54.419,-27.971
3661.2,-116.01,-50.918,-60.419,-29.971
3671.1,-116.01,-50.918,-60.419,-29.971
3680.9,-118.01,-50.918,-64.419,-30.971
3690.8,-120.01,-51.918,-66.419,-32.971
3700.7,-121.01,-50.918,-69.419,-31.971
3710.6,-124.01,-51.918,-71.419,-33.971
3720.5,-124.01,-50.918,-73.419,-32.971
3730.4,-134.01,-55.918,-78.419,-34.971
3740.3,-146.01,-65.918,-82.419,-34.971
3750.1,-153.01,-69.918,-85.419,-34.971
3760.0,-146.01,-66.918,-88.419,-34.971
3769.9,-136.01,-64.918,-91.419,-35.971
3779.8,-126.01,-63.918,-98.419,-36.971
3789.7,-119.01,-61.918,-103.42,-42.971
3799.6,-111.01,-61.918,-106.42,-46.971
3809.5,-97.008,-56.918,-104.42,-50.971
3819.3,-87.008,-52.918,-99.419,-48.971
3829.2,-78.008,-49.918,-89.419,-48.971
3839.1,-70.008,-46.918,-84.419,-46.971
3849.0,-66.008,-45.918,-74.419,-46.971
3858.9,-58.008,-44.918,-68.419,-45.971
3868.8,-52.008,-41.918,-60.419,-42.971
3878.7,-45.008,-37.918,-51.419,-42.971
3888.5,-36.008,-35.918,-42.419,-38.971
3898.4,-32.008,-33.918,-34.419,-36.971
3908.3,-30.008,-33.918,-25.419,-34.971
3918.2,-25.008,-29.918,-20.419,-33.971
3928.1,-20.008,-28.918,-13.419,-29.971
3938.0,-18.008,-26.918,-6.4187,-28.971
3947.9,-18.008,-26.918,-3.4187,-24.971
3957.7,-19.008,-25.918,1.5813,-23.971
3967.6,-19.008,-25.918,5.5813,-20.971
3977.5,-13.008,-23.918,9.5813,-18.971
3987.4,-13.008,-23.918,10.581,-17.971
3997.3,-14.008,-21.918,10.581,-16.971
4007.2,-14.008,-21.918,9.5813,-15.971
4017.1,-13.008,-21.918,6.5813,-16.971
4026.9,-13.008,-21.918,3.5813,-15.971
4036.8,-9.0077,-18.918,-2.4187,-18.971
4046.7,-9.0077,-18.918,-8.4187,-19.971
4056.6,-8.0077,-17.918,-13.419,-22.971
4066.5,-8.0077,-17.918,-19.419,-23.971
4076.4,-9.0077,-19.918,-24.419,-24.971
4086.3,-9.0077,-19.918,-27.419,-26.971
4096.1,-10.008,-18.918,-34.419,-28.971
4106.0,-8.0077,-16.918,-37.419,-31.971
4115.9,-10.008,-17.918,-40.419,-32.971
4125.8,-12.008,-17.918,-44.419,-33.971
4135.7,-14.008,-17.918,-46.419,-34.971
4145.6,-15.008,-17.918,-49.419,-35.971
4155.4,-15.008,-17.918,-53.419,-37.971
4165.3,-17.008,-17.918,-54.419,-37.971
4175.2,-18.008,-15.918,-60.419,-39.971
4185.1,-18.008,-16.918,-65.419,-40.971
4195.0,-19.008,-15.918,-70.419,-42.971
4204.9,-21.008,-15.918,-75.419,-44.971
4214.8,-23.008,-15.918,-82.419,-45.971
4224.7,-24.008,-15.918,-85.419,-47.971
4234.5,-25.008,-15.918,-91.419,-48.971
4244.4,-29.008,-15.918,-96.419,-52.971
4254.3,-34.008,-22.918,-101.42,-51.971
4264.2,-46.008,-26.918,-105.42,-51.971
4274.1,-49.008,-30.918,-109.42,-51.971
4284.0,-42.008,-26.918,-112.42,-52.971
4293.8,-30.008,-23.918,-117.42,-53.971
4303.7,-22.008,-24.918,-124.42,-57.971
4313.6,-11.008,-22.918,-128.42,-62.971
4323.5,-2.0077,-20.918,-128.42,-64.971
4333.4,11.992,-16.918,-124.42,-65.971
4343.3,20.992,-12.918,-119.42,-64.971
4353.2,30.992,-10.918,-110.42,-65.971
4363.0,38.992,-5.9175,-104.42,-62.971
4372.9,44.992,-4.9175,-98.419,-62.971
4382.8,53.992,-0.91755,-88.419,-61.971
4392.7,61.992,1.0825,-80.419,-58.971
4402.6,68.992,2.0825,-72.419,-55.971
4412.5,76.992,8.0825,-62.419,-54.971
4422.4,80.992,8.0825,-57.419,-52.971
4432.2,84.992,10.082,-50.419,-49.971
4442.1,90.992,13.082,-43.419,-48.971
4452.0,94.992,14.082,-39.419,-47.971
4461.9,96.992,17.082,-36.419,-46.971
4471.8,96.992,17.082,-34.419,-42.971
4481.7,99.992,18.082,-31.419,-41.971
4491.6,100.99,20.082,-27.419,-40.971
4501.4,102.99,21.082,-27.419,-39.971
4511.3,105.99,21.082,-29.419,-38.971
4521.2,108.99,24.082,-29.419,-38.971
4531.1,111.99,24.082,-31.419,-39.971
4541.0,113.99,26.082,-31.419,-39.971
4550.9,117.99,28.082,-37.419,-41.971
4560.8,117.99,31.082,-37.419,-41.971
4570.6,120.99,31.082,-48.419,-44.971
4580.5,120.99,32.082,-48.419,-44.971
4590.4,119.99,31.082,-57.419,-46.971
4600.3,121.99,30.082,-57.419,-46.971
4610.2,120.99,31.082,-64.419,-50.971
4620.1,118.99,31.082,-64.419,-50.971
4630.0,120.99,32.082,-72.419,-53.971
4639.8,119.99,33.082,-72.419,-53.971
4649.7,119.99,33.082,-78.419,-56.971
4659.6,119.99,33.082,-78.419,-56.971
4669.5,119.99,33.082,-85.419,-58.971
4679.4,119.99,33.082,-85.419,-58.971
4689.3,119.99,35.082,-89.419,-61.971
4699.2,119.99,35.082,-89.419,-61.971
4709.0,119.99,37.082,-97.419,-64.971
4718.9,119.99,37.082,-97.419,-64.971
4728.8,120.99,38.082,-103.42,-67.971
4738.7,120.99,38.082,-103.42,-67.971
4748.6,120.99,40.082,-106.42,-68.971
4758.5,120.99,40.082,-110.42,-70.971
4768.4,119.99,40.082,-113.42,-72.971
4778.2,119.99,40.082,-119.42,-73.971
4788.1,102.99,31.082,-121.42,-73.971
4798.0,102.99,31.082,-125.42,-73.971
4807.9,98.992,26.082,-129.42,-73.971
4817.8,101.99,27.082,-131.42,-73.971
4827.7,108.99,30.082,-135.42,-75.971
4837.6,120.99,31.082,-141.42,-76.971
4847.4,129.99,32.082,-146.42,-79.971
4857.3,138.99,34.082,-148.42,-82.971
4867.2,150.99,38.082,-143.42,-83.971
4877.1,162.99,42.082,-139.42,-83.971
4887.0,169.99,45.082,-134.42,-81.971
4896.9,176.99,47.082,-129.42,-81.971
4906.8,181.99,48.082,-122.42,-79.971
4916.6,187.99,49.082,-115.42,-77.971
4926.5,191.99,50.082,-108.42,-74.971
4936.4,197.99,52.082,-102.42,-72.971
4946.3,205.99,55.082,-95.419,-69.971
4956.2,211.99,55.082,-87.419,-68.971
4966.1,213.99,57.082,-85.419,-66.971
4976.0,217.99,60.082,-78.419,-63.971
4985.8,219.99,60.082,-70.419,-61.971
4995.7,220.99,61.082,-68.419,-57.971
5005.6,220.99,61.082,-62.419,-54.971
5015.5,220.99,61.082,-61.419,-54.971
5025.4,221.99,61.082,-59.419,-52.971
5035.3,222.99,62.082,-58.419,-51.971
5045.2,225.99,63.082,-58.419,-50.971
5055.0,225.99,63.082,-60.419,-50.971
5064.9,227.99,64.082,-63.419,-51.971
5074.8,227.99,65.082,-65.419,-51.971
5084.7,229.99,66.082,-67.419,-51.971
5094.6,230.99,68.082,-72.419,-53.971
5104.5,232.99,66.082,-74.419,-54.971
5114.4,230.99,66.082,-75.419,-55.971
5124.2,231.99,67.082,-78.419,-54.971
5134.1,229.99,66.082,-82.419,-57.971
5144.0,227.99,66.082,-87.419,-58.971
5153.9,227.99,65.082,-90.419,-59.971
5163.8,225.99,64.082,-91.419,-59.971
5173.7,223.99,64.082,-95.419,-62.971
5183.6,221.99,63.082,-97.419,-61.971
5193.4,219.99,62.082,-101.42,-63.971
5203.3,218.99,63.082,-102.42,-63.971
5213.2,217.99,62.082,-107.42,-65.971
5223.1,214.99,63.082,-108.42,-65.971
5233.0,213.99,61.082,-109.42,-67.971
5242.9,209.99,61.082,-112.42,-68.971
5252.8,208.99,60.082,-114.42,-70.971
5262.6,206.99,60.082,-116.42,-71.971
5272.5,205.99,61.082,-119.42,-72.971
5282.4,200.99,58.082,-122.42,-76.971
5292.3,198.99,58.082,-127.42,-78.971
5302.2,196.99,57.082,-130.42,-79.971
5312.1,194.99,57.082,-134.42,-83.971
5322.0,195.99,57.082,-134.42,-84.971
5331.8,186.99,56.082,-138.42,-85.971
5341.7,176.99,48.082,-141.42,-88.971
5351.6,164.99,40.082,-146.42,-91.971
5361.5,165.99,40.082,-150.42,-93.971
5371.4,172.99,41.082,-152.42,-94.971
5381.3,179.99,41.082,-157.42,-97.971
5391.2,179.99,41.082,-163.42,-103.97
5401.0,192.99,40.082,-165.42,-108.97
5410.9,192.99,40.082,-162.42,-109.97
5420.8,210.99,45.082,-157.42,-110.97
5430.7,210.99,45.082,-151.42,-111.97
5440.6,221.99,49.082,-143.42,-108.97
5450.5,221.99,49.082,-135.42,-107.97
5460.4,228.99,50.082,-130.42,-106.97
5470.2,228.99,50.082,-124.42,-104.97
5480.1,238.99,53.082,-116.42,-101.97
5490.0,238.99,53.082,-109.42,-97.971
5499.9,242.99,53.082,-103.42,-95.971
5509.8,242.99,53.082,-96.419,-91.971
5519.7,245.99,55.082,-94.419,-90.971
5529.6,245.99,54.082,-88.419,-86.971
5539.4,244.99,52.082,-85.419,-82.971
5549.3,244.99,51.082,-85.419,-82.971
5559.2,240.99,51.082,-79.419,-76.971
5569.1,240.99,50.082,-79.419,-76.971
5579.0,239.99,49.082,-75.419,-73.971
5588.9,236.99,48.082,-75.419,-73.971
5598.8,236.99,47.082,-78.419,-70.971
5608.6,237.99,47.082,-78.419,-70.971
5618.5,235.99,45.082,-84.419,-71.971
5628.4,235.99,45.082,-84.419,-71.971
5638.3,233.99,45.082,-91.419,-72.971
5648.2,237.99,45.082,-91.419,-72.971
5658.1,236.99,46.082,-97.419,-74.971
5668.0,234.99,45.082,-97.419,-74.971
5677.8,233.99,44.082,-103.42,-75.971
5687.7,232.99,46.082,-103.42,-75.971
5697.6,232.99,42.082,-108.42,-74.971
5707.5,232.99,44.082,-108.42,-74.971
5717.4,232.99,45.082,-115.42,-75.971
5727.3,233.99,46.082,-115.42,-75.971
5737.2,233.99,47.082,-123.42,-76.971
5747.0,232.99,46.082,-123.42,-76.971
5756.9,233.99,46.082,-127.42,-76.971
5766.8,232.99,48.082,-134.42,-79.971
5776.7,230.99,47.082,-138.42,-80.971
5786.6,232.99,49.082,-140.42,-81.971
5796.5,232.99,49.082,-146.42,-82.971
5806.4,234.99,49.082,-148.42,-81.971
5816.2,234.99,49.082,-150.42,-82.971
5826.1,236.99,50.082,-152.42,-82.971
5836.0,234.99,51.082,-156.42,-84.971
5845.9,236.99,52.082,-157.42,-85.971
5855.8,236.99,53.082,-159.42,-86.971
5865.7,235.99,54.082,-160.42,-89.971
5875.6,234.99,57.082,-163.42,-88.971
5885.4,234.99,59.082,-166.42,-91.971
5895.3,231.99,61.082,-172.42,-92.971
5905.2,223.99,57.082,-175.42,-95.971
5915.1,207.99,50.082,-178.42,-96.971
5925.0,196.99,45.082,-182.42,-99.971
5934.9,192.99,43.082,-183.42,-100.97
5944.8,193.99,42.082,-188.42,-102.97
5954.6,195.99,40.082,-190.42,-103.97
5964.5,197.99,40.082,-197.42,-108.97
5974.4,201.99,39.082,-198.42,-110.97
5984.3,206.99,41.082,-196.42,-111.97
5994.2,207.99,42.082,-191.42,-111.97
6004.1,207.99,41.082,-183.42,-109.97
6014.0,206.99,42.082,-180.42,-108.97
6023.8,203.99,39.082,-174.42,-106.97
6033.7,196.99,34.082,-165.42,-102.97
6043.6,191.99,32.082,-159.42,-98.971
6053.5,187.99,28.082,-150.42,-93.971
6063.4,183.99,27.082,-139.42,-90.971
6073.3,182.99,27.082,-131.42,-87.971
6083.2,180.99,26.082,-124.42,-83.971
6093.0,175.99,24.082,-118.42,-82.971
6102.9,175.99,24.082,-113.42,-80.971
6112.8,162.99,17.082,-108.42,-77.971
6122.7,162.99,17.082,-104.42,-76.971
6132.6,149.99,12.082,-102.42,-74.971
6142.5,149.99,12.082,-101.42,-72.971
6152.4,137.99,6.0825,-99.419,-72.971
6162.2,137.99,6.0825,-98.419,-71.971
6172.1,130.99,2.0825,-100.42,-71.971
6182.0,130.99,2.0825,-100.42,-72.971
6191.9,129.99,2.0825,-103.42,-72.971
6201.8,129.99,2.0825,-105.42,-74.971
6211.7,125.99,2.0825,-108.42,-75.971
6221.6,125.99,2.0825,-110.42,-76.971
6231.4,120.99,0.082455,-112.42,-76.971
6241.3,120.99,0.082455,-114.42,-78.971
6251.2,117.99,-0.91755,-114.42,-79.971
6261.1,112.99,-0.91755,-119.42,-80.971
6271.0,109.99,-1.9175,-120.42,-83.971
6280.9,104.99,-3.9175,-125.42,-85.971
6290.8,99.992,-5.9175,-125.42,-85.971
6300.6,93.992,-6.9175,-127.42,-86.971
6310.5,87.992,-6.9175,-128.42,-87.971
6320.4,83.992,-9.9175,-130.42,-89.971
6330.3,77.992,-11.918,-134.42,-91.971
6340.2,70.992,-12.918,-134.42,-93.971
6350.1,65.992,-15.918,-136.42,-92.971
6360.0,57.992,-17.918,-138.42,-94.971
6369.8,51.992,-19.918,-142.42,-95.971
6379.7,46.992,-21.918,-145.42,-96.971
6389.6,41.992,-22.918,-145.42,-96.971
6399.5,37.992,-22.918,-145.42,-95.971
6409.4,32.992,-24.918,-148.42,-99.971
6419.3,25.992,-25.918,-147.42,-98.971
6429.2,20.992,-29.918,-152.42,-101.97
6439.0,13.992,-29.918,-151.42,-100.97
6448.9,9.9923,-30.918,-153.42,-100.97
6458.8,2.9923,-30.918,-154.42,-100.97
6468.7,-4.0077,-34.918,-157.42,-102.97
6478.6,-19.008,-40.918,-160.42,-102.97
6488.5,-33.008,-49.918,-164.42,-104.97
6498.4,-42.008,-53.918,-162.42,-103.97
6508.2,-42.008,-55.918,-167.42,-104.97
6518.1,-40.008,-55.918,-168.42,-105.97
6528.0,-37.008,-56.918,-172.42,-108.97
6537.9,-35.008,-61.918,-175.42,-113.97
6547.8,-30.008,-59.918,-174.42,-115.97
6557.7,-25.008,-59.918,-172.42,-117.97
6567.6,-22.008,-57.918,-164.42,-115.97
6577.4,-20.008,-57.918,-160.42,-115.97
6587.3,-20.008,-56.918,-152.42,-114.97
6597.2,-20.008,-55.918,-146.42,-114.97
6607.1,-23.008,-56.918,-140.42,-112.97
6617.0,-26.008,-58.918,-140.42,-112.97
6626.9,-26.008,-58.918,-123.42,-108.97
6636.8,-28.008,-60.918,-123.42,-108.97
6646.6,-27.008,-58.918,-108.42,-102.97
6656.5,-30.008,-60.918,-108.42,-102.97
6666.4,-35.008,-62.918,-93.419,-97.971
6676.3,-40.008,-63.918,-93.419,-97.971
6686.2,-43.008,-66.918,-82.419,-91.971
6696.1,-46.008,-65.918,-82.419,-91.971
6705.9,-49.008,-64.918,-71.419,-88.971
6715.8,-53.008,-66.918,-71.419,-88.971
6725.7,-52.008,-69.918,-68.419,-85.971
6735.6,-57.008,-68.918,-68.419,-85.971
6745.5,-58.008,-68.918,-71.419,-84.971
6755.4,-62.008,-68.918,-71.419,-84.971
6765.3,-63.008,-69.918,-72.419,-85.971
6775.2,-66.008,-70.918,-72.419,-85.971
6785.0,-69.008,-70.918,-77.419,-87.971
6794.9,-72.008,-71.918,-77.419,-87.971
6804.8,-76.008,-75.918,-83.419,-88.971
6814.7,-76.008,-75.918,-83.419,-88.971
6824.6,-86.008,-77.918,-86.419,-89.971
6834.5,-86.008,-77.918,-86.419,-90.971
6844.3,-96.008,-80.918,-91.419,-90.971
6854.2,-96.008,-80.918,-93.419,-91.971
6864.1,-107.01,-83.918,-97.419,-91.971
6874.0,-107.01,-83.918,-99.419,-91.971
6883.9,-114.01,-85.918,-101.42,-91.971
6893.8,-114.01,-85.918,-103.42,-92.971
6903.7,-123.01,-88.918,-103.42,-91.971
6913.6,-123.01,-88.918,-105.42,-92.971
6923.4,-135.01,-93.918,-107.42,-93.971
6933.3,-135.01,-93.918,-109.42,-93.971
6943.2,-143.01,-94.918,-110.42,-93.971
6953.1,-143.01,-94.918,-110.42,-92.971
6963.0,-149.01,-96.918,-112.42,-92.971
6972.9,-152.01,-98.918,-113.42,-95.971
6982.7,-158.01,-98.918,-116.42,-94.971
6992.6,-161.01,-99.918,-119.42,-94.971
7002.5,-166.01,-100.92,-119.42,-94.971
7012.4,-168.01,-100.92,-122.42,-94.971
7022.3,-176.01,-102.92,-122.42,-95.971
7032.2,-188.01,-109.92,-124.42,-95.971
7042.1,-196.01,-114.92,-124.42,-96.971
7051.9,-205.01,-117.92,-125.42,-94.971
7061.8,-205.01,-118.92,-125.42,-97.971
7071.7,-202.01,-118.92,-127.42,-96.971
7081.6,-198.01,-120.92,-131.42,-98.971
7091.5,-191.01,-120.92,-133.42,-103.97
7101.4,-183.01,-117.92,-134.42,-106.97
7111.3,-175.01,-114.92,-127.42,-107.97
7121.1,-168.01,-112.92,-120.42,-107.97
7131.0,-166.01,-111.92,-112.42,-105.97
7140.9,-163.01,-110.92,-102.42,-104.97
7150.8,-164.01,-110.92,-94.419,-102.97
7160.7,-163.01,-111.92,-89.419,-100.97
7170.6,-165.01,-111.92,-80.419,-99.971
7180.5,-163.01,-111.92,-72.419,-97.971
7190.3,-162.01,-109.92,-64.419,-93.971
7200.2,-161.01,-109.92,-57.419,-92.971
7210.1,-157.01,-106.92,-49.419,-89.971
7220.0,-159.01,-107.92,-43.419,-85.971
7229.9,-161.01,-107.92,-34.419,-83.971
7239.8,-162.01,-109.92,-26.419,-79.971
7249.7,-163.01,-107.92,-23.419,-76.971
7259.5,-163.01,-107.92,-17.419,-71.971
7269.4,-165.01,-106.92,-14.419,-67.971
7279.3,-165.01,-106.92,-10.419,-66.971
7289.2,-167.01,-108.92,-7.4187,-64.971
7299.1,-167.01,-107.92,-4.4187,-61.971
7309.0,-167.01,-106.92,-4.4187,-58.971
7318.9,-168.01,-106.92,-1.4187,-56.971
7328.7,-168.01,-106.92,0.58127,-56.971
7338.6,-171.01,-106.92,-0.41873,-54.971
7348.5,-172.01,-107.92,-4.4187,-53.971
7358.4,-175.01,-107.92,-4.4187,-52.971
7368.3,-177.01,-108.92,-5.4187,-52.971
7378.2,-181.01,-108.92,-7.4187,-51.971
7388.1,-180.01,-107.92,-8.4187,-51.971
7397.9,-182.01,-107.92,-10.419,-50.971
7407.8,-185.01,-106.92,-11.419,-49.971
7417.7,-185.01,-108.92,-11.419,-48.971
7427.6,-188.01,-109.92,-13.419,-47.971
7437.5,-191.01,-108.92,-14.419,-47.971
7447.4,-193.01,-108.92,-15.419,-44.971
7457.3,-191.01,-107.92,-15.419,-44.971
7467.1,-193.01,-105.92,-16.419,-41.971
7477.0,-193.01,-104.92,-16.419,-42.971
7486.9,-193.01,-103.92,-17.419,-40.971
7496.8,-193.01,-102.92,-16.419,-38.971
7506.7,-195.01,-102.92,-17.419,-37.971
7516.6,-195.01,-102.92,-18.419,-36.971
7526.5,-195.01,-102.92,-20.419,-35.971
7536.3,-199.01,-101.92,-20.419,-34.971
7546.2,-199.01,-101.92,-20.419,-32.971
7556.1,-198.01,-96.918,-19.419,-31.971
7566.0,-198.01,-96.918,-24.419,-30.971
7575.9,-212.01,-104.92,-25.419,-29.971
7585.8,-212.01,-104.92,-26.419,-28.971
7595.7,-216.01,-106.92,-28.419,-26.971
7605.5,-216.01,-106.92,-28.419,-25.971
7615.4,-205.01,-104.92,-29.419,-25.971
7625.3,-205.01,-104.92,-29.419,-25.971
7635.2,-185.01,-99.918,-32.419,-30.971
7645.1,-185.01,-99.918,-32.419,-30.971
7655.0,-163.01,-91.918,-19.419,-29.971
7664.9,-163.01,-91.918,-19.419,-29.971
7674.7,-157.01,-87.918,0.58127,-25.971
7684.6,-154.01,-87.918,0.58127,-25.971
7694.5,-152.01,-87.918,21.581,-20.971
7704.4,-149.01,-86.918,21.581,-20.971
7714.3,-148.01,-85.918,42.581,-13.971
7724.2,-144.01,-84.918,42.581,-13.971
7734.1,-141.01,-82.918,62.581,-6.9711
7743.9,-138.01,-81.918,62.581,-6.9711
7753.8,-135.01,-79.918,80.581,0.028869
7763.7,-131.01,-78.918,80.581,0.028869
7773.6,-129.01,-76.918,97.581,8.0289
7783.5,-131.01,-77.918,97.581,8.0289
7793.4,-131.01,-78.918,114.58,17.029
7803.3,-132.01,-75.918,114.58,17.029
7813.1,-131.01,-74.918,124.58,23.029
7823.0,-133.01,-74.918,124.58,23.029
7832.9,-137.01,-76.918,128.58,26.029
7842.8,-135.01,-75.918,130.58,27.029
7852.7,-136.01,-73.918,131.58,29.029
7862.6,-137.01,-74.918,132.58,32.029
7872.5,-136.01,-73.918,130.58,33.029
7882.3,-138.01,-71.918,129.58,33.029
7892.2,-137.01,-71.918,127.58,33.029
7902.1,-139.01,-71.918,124.58,33.029
7912.0,-139.01,-73.918,121.58,33.029
7921.9,-141.01,-73.918,118.58,32.029
7931.8,-143.01,-72.918,115.58,32.029
7941.7,-145.01,-71.918,111.58,31.029
7951.5,-144.01,-72.918,108.58,31.029
7961.4,-148.01,-72.918,106.58,31.029
7971.3,-150.01,-70.918,101.58,30.029
7981.2,-153.01,-73.918,99.581,29.029
7991.1,-157.01,-72.918,96.581,29.029
8001.0,-158.01,-71.918,94.581,28.029
8010.9,-159.01,-71.918,93.581,28.029
8020.7,-160.01,-71.918,90.581,28.029
8030.6,-163.01,-71.918,88.581,28.029
8040.5,-165.01,-73.918,86.581,29.029
8050.4,-167.01,-72.918,85.581,27.029
8060.3,-170.01,-71.918,84.581,29.029
8070.2,-173.01,-72.918,81.581,28.029
8080.1,-174.01,-71.918,78.581,28.029
8089.9,-177.01,-72.918,77.581,30.029
8099.8,-181.01,-73.918,76.581,29.029
8109.7,-191.01,-79.918,74.581,29.029
8119.6,-200.01,-85.918,71.581,29.029
8129.5,-205.01,-88.918,71.581,31.029
8139.4,-198.01,-85.918,71.581,32.029
8149.3,-193.01,-84.918,68.581,32.029
8159.1,-186.01,-86.918,61.581,31.029
8169.0,-177.01,-83.918,60.581,28.029
8178.9,-164.01,-79.918,58.581,24.029
8188.8,-150.01,-73.918,60.581,23.029
8198.7,-143.01,-71.918,68.581,23.029
8208.6,-137.01,-69.918,73.581,23.029
8218.5,-134.01,-68.918,78.581,25.029
8228.3,-130.01,-67.918,86.581,27.029
8238.2,-125.01,-65.918,94.581,26.029
8248.1,-119.01,-62.918,103.58,31.029
8258.0,-119.01,-62.918,112.58,33.029
8267.9,-109.01,-57.918,121.58,37.029
8277.8,-109.01,-57.918,131.58,38.029
8287.7,-101.01,-53.918,139.58,42.029
8297.5,-101.01,-53.918,147.58,47.029
8307.4,-95.008,-50.918,154.58,49.029
8317.3,-95.008,-50.918,165.58,52.029
8327.2,-94.008,-49.918,170.58,55.029
8337.1,-94.008,-49.918,176.58,58.029
8347.0,-95.008,-47.918,178.58,60.029
8356.9,-95.008,-47.918,183.58,62.029
8366.7,-96.008,-45.918,185.58,64.029
8376.6,-96.008,-45.918,184.58,65.029
8386.5,-94.008,-43.918,184.58,66.029
8396.4,-94.008,-43.918,185.58,66.029
8406.3,-92.008,-42.918,183.58,66.029
8416.2,-91.008,-43.918,180.58,66.029
8426.1,-91.008,-41.918,177.58,66.029
8435.9,-93.008,-41.918,175.58,64.029
8445.8,-92.008,-40.918,171.58,63.029
8455.7,-91.008,-39.918,167.58,61.029
8465.6,-94.008,-39.918,162.58,59.029
8475.5,-95.008,-38.918,159.58,59.029
8485.4,-95.008,-38.918,155.58,57.029
8495.3,-99.008,-38.918,154.58,57.029
8505.1,-100.01,-39.918,152.58,57.029
8515.0,-103.01,-41.918,148.58,56.029
8524.9,-103.01,-40.918,147.58,55.029
8534.8,-103.01,-39.918,142.58,54.029
8544.7,-103.01,-39.918,138.58,52.029
8554.6,-104.01,-38.918,139.58,52.029
8564.5,-107.01,-40.918,135.58,52.029
8574.3,-108.01,-39.918,132.58,52.029
8584.2,-109.01,-38.918,127.58,51.029
8594.1,-109.01,-38.918,125.58,51.029
8604.0,-111.01,-38.918,123.58,49.029
8613.9,-112.01,-36.918,119.58,49.029
8623.8,-112.01,-35.918,119.58,50.029
8633.7,-113.01,-34.918,115.58,50.029
8643.5,-123.01,-41.918,110.58,49.029
8653.4,-133.01,-47.918,108.58,49.029
8663.3,-140.01,-53.918,105.58,49.029
8673.2,-135.01,-50.918,105.58,49.029
8683.1,-126.01,-48.918,100.58,48.029
8693.0,-122.01,-51.918,100.58,48.029
8702.9,-113.01,-49.918,88.581,40.029
8712.7,-100.01,-45.918,88.581,40.029
8722.6,-87.008,-39.918,90.581,35.029
8732.5,-75.008,-35.918,90.581,35.029
8742.4,-67.008,-31.918,98.581,35.029
8752.3,-60.008,-30.918,98.581,35.029
8762.2,-58.008,-29.918,109.58,37.029
8772.1,-53.008,-27.918,109.58,37.029
8781.9,-48.008,-27.918,122.58,39.029
8791.8,-42.008,-24.918,122.58,39.029
8801.7,-37.008,-22.918,136.58,43.029
8811.6,-32.008,-21.918,136.58,43.029
8821.5,-27.008,-19.918,151.58,48.029
8831.4,-21.008,-15.918,151.58,48.029
8841.3,-14.008,-12.918,164.58,53.029
8851.1,-13.008,-10.918,164.58,53.029
8861.0,-10.008,-9.9175,174.58,60.029
8870.9,-9.0077,-6.9175,174.58,60.029
8880.8,-10.008,-7.9175,179.58,62.029
8890.7,-8.0077,-5.9175,179.58,62.029
8900.6,-5.0077,-2.9175,181.58,66.029
8910.5,-5.0077,-1.9175,181.58,65.029
8920.3,-1.0077,-0.91755,179.58,67.029
8930.2,1.9923,4.0825,179.58,66.029
8940.1,6.9923,6.0825,179.58,67.029
8950.0,6.9923,7.0825,174.58,64.029
8959.9,8.9923,9.0825,171.58,65.029
8969.8,8.9923,9.0825,167.58,65.029
8979.7,10.992,10.082,164.58,65.029
8989.5,10.992,10.082,160.58,62.029
8999.4,8.9923,13.082,155.58,62.029
9009.3,8.9923,13.082,153.58,61.029
9019.2,7.9923,13.082,151.58,60.029
9029.1,7.9923,13.082,146.58,59.029
9039.0,3.9923,12.082,142.58,58.029
9048.9,3.9923,12.082,141.58,57.029
9058.7,0.99229,12.082,137.58,57.029
9068.6,0.99229,12.082,135.58,55.029
9078.5,-1.0077,14.082,131.58,55.029
9088.4,-1.0077,14.082,128.58,54.029
9098.3,-3.0077,14.082,126.58,54.029
9108.2,-3.0077,14.082,123.58,54.029
9118.1,-3.0077,16.082,118.58,53.029
9127.9,-3.0077,16.082,117.58,53.029
9137.8,-6.0077,18.082,113.58,52.029
9147.7,-7.0077,17.082,110.58,54.029
9157.6,-8.0077,18.082,107.58,53.029
9167.5,-9.0077,20.082,104.58,54.029
9177.4,-17.008,15.082,101.58,53.029
9187.3,-25.008,9.0825,99.581,54.029
9197.1,-34.008,3.0825,96.581,53.029
9207.0,-31.008,5.0825,94.581,52.029
9216.9,-23.008,7.0825,87.581,53.029
9226.8,-14.008,9.0825,80.581,49.029
9236.7,-5.0077,10.082,77.581,44.029
9246.6,4.9923,13.082,74.581,40.029
9256.4,20.992,17.082,77.581,38.029
9266.3,28.992,22.082,83.581,39.029
9276.2,38.992,26.082,90.581,39.029
9286.1,45.992,27.082,95.581,39.029
9296.0,48.992,29.082,102.58,39.029
9305.9,55.992,29.082,109.58,40.029
9315.8,61.992,32.082,118.58,41.029
9325.7,66.992,34.082,125.58,43.029
9335.5,73.992,37.082,133.58,46.029
9345.4,77.992,38.082,142.58,49.029
9355.3,82.992,40.082,150.58,50.029
9365.2,87.992,44.082,156.58,55.029
9375.1,92.992,46.082,163.58,57.029
9385.0,93.992,48.082,171.58,59.029
9394.8,95.992,49.082,175.58,61.029
9404.7,96.992,51.082,178.58,63.029
9414.6,96.992,52.082,179.58,65.029
9424.5,96.992,52.082,182.58,66.029
9434.4,98.992,53.082,182.58,68.029
9444.3,98.992,53.082,181.58,68.029
9454.2,99.992,54.082,176.58,67.029
9464.1,102.99,58.082,173.58,65.029
9473.9,103.99,57.082,170.58,65.029
9483.8,106.99,60.082,166.58,64.029
9493.7,108.99,61.082,163.58,63.029
9503.6,112.99,65.082,156.58,61.029
9513.5,112.99,65.082,152.58,60.029
9523.4,113.99,65.082,145.58,58.029
9533.2,114.99,66.082,140.58,54.029
9543.1,113.99,69.082,135.58,53.029
9553.0,113.99,68.082,128.58,51.029
9562.9,113.99,69.082,125.58,50.029
9572.8,114.99,71.082,119.58,47.029
9582.7,112.99,71.082,117.58,47.029
9592.6,116.99,73.082,111.58,47.029
9602.4,114.99,73.082,108.58,45.029
9612.3,116.99,76.082,102.58,43.029
9622.2,115.99,76.082,99.581,42.029
9632.1,116.99,78.082,96.581,42.029
9642.0,114.99,79.082,92.581,41.029
9651.9,112.99,78.082,87.581,40.029
9661.8,113.99,80.082,81.581,38.029
9671.6,112.99,80.082,78.581,38.029
9681.5,111.99,81.082,74.581,37.029
9691.4,109.99,80.082,70.581,37.029
9701.3,109.99,80.082,70.581,37.029
9711.2,98.992,77.082,62.581,36.029
9721.1,98.992,77.082,62.581,36.029
9731.0,85.992,69.082,49.581,33.029
9740.8,85.992,69.082,49.581,33.029
9750.7,104.99,73.082,41.581,31.029
9760.6,104.99,73.082,41.581,31.029
9770.5,122.99,74.082,30.581,22.029
9780.4,122.99,74.082,30.581,22.029
9790.3,144.99,82.082,29.581,16.029
9800.2,144.99,82.082,29.581,16.029
9810.0,163.99,90.082,39.581,15.029
9819.9,163.99,90.082,39.581,15.029
9829.8,170.99,92.082,54.581,16.029
9839.7,176.99,93.082,54.581,16.029
9849.6,184.99,94.082,67.581,18.029
9859.5,190.99,98.082,67.581,18.029
9869.4,201.99,102.08,85.581,20.029
9879.2,206.99,106.08,85.581,20.029
9889.1,215.99,108.08,100.58,24.029
9899.0,219.99,110.08,100.58,24.029
9908.9,223.99,113.08,107.58,27.029
9918.8,227.99,115.08,113.58,28.029
9928.7,230.99,116.08,115.58,29.029
9938.6,231.99,117.08,119.58,31.029
9948.4,232.99,118.08,125.58,32.029
9958.3,235.99,121.08,124.58,32.029
9968.2,238.99,124.08,125.58,34.029
9978.1,241.99,124.08,126.58,35.029
9988.0,244.99,127.08,124.58,37.029
9997.9,248.99,130.08,123.58,35.029
10008.0,249.99,131.08,118.58,34.029
10018.0,252.99,133.08,115.58,35.029
10028.0,255.99,135.08,112.58,32.029
10037.0,259.99,136.08,106.58,30.029
10047.0,259.99,138.08,101.58,29.029
10057.0,263.99,140.08,98.581,26.029
10067.0,264.99,142.08,92.581,25.029
10077.0,265.99,142.08,87.581,23.029
10087.0,265.99,142.08,82.581,21.029
10097.0,263.99,144.08,77.581,20.029
10107.0,263.99,144.08,70.581,17.029
10117.0,263.99,144.08,64.581,15.029
10126.0,264.99,146.08,60.581,13.029
10136.0,264.99,146.08,55.581,12.029
10146.0,262.99,147.08,50.581,8.0289
10156.0,262.99,147.08,47.581,9.0289
10166.0,263.99,149.08,43.581,6.0289
10176.0,263.99,149.08,37.581,6.0289
10186.0,265.99,151.08,34.581,6.0289
10196.0,265.99,151.08,29.581,6.0289
10206.0,263.99,153.08,24.581,4.0289
10215.0,264.99,152.08,19.581,3.0289
10225.0,263.99,154.08,14.581,3.0289
10235.0,261.99,152.08,8.5813,3.0289
10245.0,259.99,154.08,4.5813,2.0289
10255.0,258.99,153.08,-0.41873,2.0289
10265.0,250.99,148.08,-4.4187,1.0289
10275.0,239.99,141.08,-13.419,0.028869
10285.0,234.99,135.08,-18.419,-0.97113
10294.0,238.99,138.08,-24.419,-2.9711
10304.0,245.99,139.08,-31.419,-4.9711
10314.0,255.99,141.08,-36.419,-7.9711
10324.0,265.99,142.08,-41.419,-11.971
10334.0,273.99,144.08,-45.419,-15.971
10344.0,283.99,146.08,-44.419,-20.971
10354.0,292.99,150.08,-42.419,-22.971
10364.0,298.99,153.08,-36.419,-22.971
10374.0,303.99,154.08,-32.419,-21.971
10383.0,307.99,155.08,-25.419,-22.971
10393.0,313.99,156.08,-20.419,-21.971
10403.0,319.99,157.08,-13.419,-20.971
10413.0,319.99,157.08,-4.4187,-18.971
10423.0,330.99,162.08,1.5813,-18.971
10433.0,330.99,162.08,7.5813,-17.971
10443.0,339.99,164.08,14.581,-15.971
10453.0,339.99,164.08,20.581,-14.971
10463.0,346.99,170.08,24.581,-11.971
10472.0,346.99,170.08,28.581,-12.971
10482.0,348.99,173.08,31.581,-9.9711
10492.0,348.99,173.08,31.581,-8.9711
10502.0,349.99,175.08,33.581,-9.9711
10512.0,349.99,175.08,32.581,-8.9711
10522.0,350.99,175.08,30.581,-9.9711
10532.0,350.99,175.08,30.581,-8.9711
10542.0,353.99,176.08,28.581,-10.971
10552.0,353.99,176.08,25.581,-12.971
10561.0,353.99,175.08,20.581,-14.971
10571.0,355.99,175.08,16.581,-15.971
10581.0,356.99,178.08,12.581,-16.971
10591.0,358.99,180.08,7.5813,-18.971
10601.0,360.99,180.08,-0.41873,-22.971
10611.0,361.99,182.08,-4.4187,-23.971
10621.0,361.99,182.08,-9.4187,-25.971
10631.0,360.99,182.08,-14.419,-28.971
10640.0,358.99,183.08,-18.419,-28.971
10650.0,360.99,182.08,-24.419,-32.971
10660.0,357.99,182.08,-28.419,-34.971
10670.0,354.99,181.08,-30.419,-35.971
10680.0,354.99,182.08,-32.419,-37.971
10690.0,350.99,181.08,-37.419,-36.971
10700.0,349.99,180.08,-39.419,-39.971
10710.0,349.99,180.08,-43.419,-39.971
10720.0,346.99,180.08,-47.419,-40.971
10729.0,346.99,181.08,-50.419,-41.971
10739.0,345.99,180.08,-53.419,-43.971
10749.0,343.99,181.08,-53.419,-43.971
10759.0,342.99,181.08,-61.419,-43.971
10769.0,339.99,180.08,-61.419,-43.971
10779.0,338.99,180.08,-68.419,-42.971
10789.0,336.99,180.08,-68.419,-42.971
10799.0,334.99,180.08,-76.419,-42.971
10809.0,332.99,179.08,-76.419,-42.971
10818.0,331.99,180.08,-84.419,-41.971
10828.0,324.99,176.08,-84.419,-41.971
10838.0,313.99,170.08,-93.419,-41.971
10848.0,300.99,161.08,-93.419,-41.971
10858.0,298.99,158.08,-101.42,-40.971
10868.0,300.99,158.08,-101.42,-40.971
10878.0,306.99,159.08,-109.42,-43.971
10888.0,311.99,156.08,-109.42,-43.971
10898.0,317.99,155.08,-118.42,-50.971
10907.0,323.99,156.08,-118.42,-50.971
10917.0,333.99,161.08,-111.42,-53.971
10927.0,339.99,162.08,-111.42,-53.971
10937.0,344.99,165.08,-101.42,-53.971
10947.0,348.99,165.08,-101.42,-53.971
10957.0,349.99,164.08,-98.419,-53.971
10967.0,349.99,164.08,-91.419,-53.971
10977.0,351.99,162.08,-87.419,-50.971
10986.0,353.99,163.08,-78.419,-50.971
10996.0,358.99,164.08,-72.419,-48.971
11006.0,360.99,165.08,-63.419,-47.971
11016.0,361.99,165.08,-57.419,-44.971
11026.0,360.99,164.08,-52.419,-44.971
11036.0,358.99,163.08,-47.419,-43.971
11046.0,354.99,161.08,-46.419,-42.971
11056.0,352.99,160.08,-42.419,-39.971
11066.0,351.99,159.08,-40.419,-40.971
11075.0,349.99,158.08,-40.419,-39.971
11085.0,346.99,155.08,-39.419,-39.971
11095.0,343.99,153.08,-41.419,-40.971
11105.0,342.99,153.08,-43.419,-40.971
11115.0,344.99,154.08,-45.419,-41.971
11125.0,344.99,154.08,-50.419,-43.971
11135.0,342.99,152.08,-54.419,-44.971
11145.0,342.99,152.08,-59.419,-46.971
11155.0,341.99,151.08,-61.419,-46.971
11164.0,341.99,151.08,-66.419,-50.971
11174.0,338.99,149.08,-69.419,-52.971
11184.0,338.99,149.08,-72.419,-54.971
11194.0,331.99,145.08,-76.419,-53.971
11204.0,331.99,145.08,-78.419,-55.971
11214.0,327.99,144.08,-81.419,-57.971
11224.0,327.99,144.08,-86.419,-57.971
11234.0,325.99,142.08,-87.419,-59.971
11244.0,325.99,142.08,-91.419,-61.971
11253.0,323.99,142.08,-93.419,-60.971
11263.0,323.99,142.08,-97.419,-63.971
11273.0,325.99,144.08,-101.42,-65.971
11283.0,324.99,146.08,-105.42,-67.971
11293.0,326.99,146.08,-108.42,-67.971
11303.0,326.99,148.08,-112.42,-68.971
11313.0,327.99,148.08,-117.42,-70.971
11323.0,326.99,150.08,-119.42,-69.971
11332.0,324.99,151.08,-122.42,-70.971
11342.0,322.99,150.08,-124.42,-69.971
11352.0,320.99,150.08,-127.42,-69.971
11362.0,316.99,150.08,-130.42,-68.971
11372.0,312.99,150.08,-133.42,-68.971
11382.0,308.99,150.08,-134.42,-65.971
11392.0,304.99,149.08,-136.42,-65.971
11402.0,298.99,148.08,-139.42,-64.971
11412.0,284.99,140.08,-142.42,-62.971
11421.0,265.99,130.08,-146.42,-62.971
11431.0,251.99,122.08,-150.42,-61.971
11441.0,243.99,117.08,-155.42,-61.971
11451.0,240.99,114.08,-160.42,-62.971
11461.0,239.99,110.08,-166.42,-67.971
11471.0,237.99,105.08,-172.42,-71.971
11481.0,238.99,103.08,-174.42,-74.971
11491.0,240.99,102.08,-170.42,-75.971
11501.0,238.99,101.08,-166.42,-74.971
11510.0,236.99,100.08,-157.42,-74.971
11520.0,233.99,98.082,-152.42,-73.971
11530.0,228.99,95.082,-146.42,-72.971
11540.0,221.99,91.082,-139.42,-70.971
11550.0,214.99,86.082,-131.42,-70.971
11560.0,210.99,81.082,-125.42,-67.971
11570.0,206.99,82.082,-118.42,-65.971
11580.0,204.99,80.082,-110.42,-62.971
11590.0,201.99,80.082,-103.42,-61.971
11599.0,196.99,77.082,-98.419,-58.971
11609.0,192.99,74.082,-92.419,-56.971
11619.0,187.99,72.082,-88.419,-53.971
11629.0,183.99,72.082,-84.419,-51.971
11639.0,181.99,71.082,-81.419,-49.971
11649.0,174.99,68.082,-77.419,-48.971
11659.0,168.99,65.082,-77.419,-46.971
11669.0,164.99,63.082,-80.419,-46.971
11678.0,163.99,63.082,-78.419,-44.971
11688.0,159.99,61.082,-78.419,-43.971
11698.0,156.99,60.082,-78.419,-43.971
11708.0,154.99,59.082,-82.419,-44.971
11718.0,151.99,60.082,-84.419,-45.971
11728.0,146.99,57.082,-88.419,-45.971
11738.0,144.99,57.082,-90.419,-46.971
11748.0,141.99,55.082,-92.419,-45.971
11758.0,134.99,52.082,-96.419,-47.971
11767.0,128.99,51.082,-100.42,-47.971
11777.0,123.99,50.082,-103.42,-48.971
11787.0,118.99,49.082,-105.42,-48.971
11797.0,112.99,46.082,-109.42,-48.971
11807.0,106.99,44.082,-112.42,-49.971
11817.0,101.99,42.082,-112.42,-49.971
11827.0,94.992,39.082,-117.42,-49.971
11837.0,88.992,37.082,-117.42,-49.971
11847.0,84.992,35.082,-121.42,-50.971
11856.0,84.992,35.082,-121.42,-50.971
11866.0,72.992,31.082,-123.42,-48.971
11876.0,72.992,31.082,-123.42,-48.971
11886.0,62.992,28.082,-130.42,-48.971
11896.0,62.992,28.082,-130.42,-48.971
11906.0,51.992,24.082,-135.42,-49.971
11916.0,51.992,24.082,-135.42,-49.971
11926.0,41.992,23.082,-142.42,-49.971
11936.0,41.992,23.082,-142.42,-49.971
11945.0,31.992,21.082,-145.42,-49.971
11955.0,31.992,21.082,-145.42,-49.971
11965.0,21.992,18.082,-148.42,-48.971
11975.0,21.992,18.082,-148.42,-48.971
11985.0,5.9923,10.082,-152.42,-49.971
11995.0,-6.0077,2.0825,-155.42,-50.971
12005.0,-15.008,-2.9175,-156.42,-48.971
12015.0,-15.008,-1.9175,-160.42,-50.971
12024.0,-12.008,-3.9175,-162.42,-49.971
12034.0,-12.008,-7.9175,-165.42,-53.971
12044.0,-10.008,-8.9175,-170.42,-55.971
12054.0,-5.0077,-7.9175,-173.42,-59.971
12064.0,1.9923,-5.9175,-170.42,-62.971
12074.0,5.9923,-2.9175,-165.42,-62.971
12084.0,9.9923,-1.9175,-159.42,-61.971
12094.0,7.9923,-1.9175,-154.42,-62.971
12104.0,6.9923,-4.9175,-147.42,-60.971
12113.0,3.9923,-5.9175,-142.42,-58.971
12123.0,0.99229,-6.9175,-136.42,-57.971
12133.0,1.9923,-7.9175,-128.42,-55.971
12143.0,0.99229,-6.9175,-122.42,-52.971
12153.0,1.9923,-4.9175,-115.42,-49.971
12163.0,-0.0077116,-7.9175,-108.42,-46.971
12173.0,-6.0077,-8.9175,-100.42,-44.971
12183.0,-12.008,-10.918,-92.419,-40.971
12193.0,-15.008,-12.918,-87.419,-37.971
12202.0,-17.008,-12.918,-82.419,-34.971
12212.0,-21.008,-13.918,-80.419,-31.971
12222.0,-25.008,-15.918,-79.419,-31.971
12232.0,-28.008,-17.918,-78.419,-28.971
12242.0,-30.008,-17.918,-78.419,-28.971
12252.0,-33.008,-17.918,-76.419,-25.971
12262.0,-33.008,-18.918,-75.419,-24.971
12272.0,-34.008,-17.918,-76.419,-23.971
12282.0,-34.008,-17.918,-78.419,-24.971
12291.0,-37.008,-19.918,-78.419,-22.971
12301.0,-40.008,-20.918,-81.419,-21.971
12311.0,-42.008,-19.918,-84.419,-21.971
12321.0,-46.008,-20.918,-86.419,-20.971
12331.0,-50.008,-21.918,-87.419,-21.971
12341.0,-54.008,-23.918,-90.419,-20.971
12351.0,-57.008,-22.918,-92.419,-21.971
12361.0,-63.008,-23.918,-93.419,-19.971
12370.0,-69.008,-26.918,-96.419,-19.971
12380.0,-72.008,-29.918,-99.419,-18.971
12390.0,-79.008,-30.918,-99.419,-17.971
12400.0,-83.008,-33.918,-100.42,-17.971
12410.0,-88.008,-33.918,-100.42,-16.971
12420.0,-93.008,-35.918,-102.42,-14.971
12430.0,-98.008,-36.918,-103.42,-17.971
12440.0,-102.01,-39.918,-103.42,-16.971
12450.0,-106.01,-39.918,-105.42,-15.971
12459.0,-110.01,-41.918,-105.42,-14.971
12469.0,-116.01,-42.918,-108.42,-14.971
12479.0,-119.01,-43.918,-109.42,-13.971
12489.0,-125.01,-44.918,-109.42,-12.971
12499.0,-129.01,-46.918,-110.42,-13.971
12509.0,-136.01,-48.918,-112.42,-12.971
12519.0,-141.01,-50.918,-114.42,-11.971
12529.0,-153.01,-58.918,-113.42,-11.971
12539.0,-165.01,-63.918,-116.42,-10.971
12548.0,-175.01,-69.918,-115.42,-10.971
12558.0,-177.01,-70.918,-116.42,-9.9711
12568.0,-177.01,-70.918,-118.42,-10.971
12578.0,-175.01,-75.918,-121.42,-10.971
12588.0,-175.01,-75.918,-122.42,-11.971
12598.0,-164.01,-74.918,-125.42,-15.971
12608.0,-164.01,-74.918,-124.42,-18.971
12618.0,-144.01,-68.918,-121.42,-20.971
12628.0,-144.01,-68.918,-114.42,-19.971
12637.0,-138.01,-66.918,-106.42,-19.971
12647.0,-138.01,-66.918,-100.42,-16.971
12657.0,-138.01,-67.918,-90.419,-15.971
12667.0,-138.01,-67.918,-82.419,-11.971
12677.0,-141.01,-69.918,-74.419,-10.971
12687.0,-141.01,-69.918,-64.419,-7.9711
12697.0,-136.01,-67.918,-57.419,-5.9711
12707.0,-136.01,-67.918,-48.419,-2.9711
12716.0,-137.01,-66.918,-40.419,1.0289
12726.0,-138.01,-68.918,-30.419,4.0289
12736.0,-140.01,-70.918,-25.419,8.0289
12746.0,-142.01,-69.918,-17.419,12.029
12756.0,-143.01,-69.918,-9.4187,15.029
12766.0,-144.01,-68.918,-5.4187,17.029
12776.0,-147.01,-68.918,-2.4187,21.029
12786.0,-146.01,-68.918,1.5813,23.029
12796.0,-149.01,-70.918,1.5813,24.029
12805.0,-150.01,-69.918,3.5813,26.029
12815.0,-150.01,-69.918,4.5813,27.029
12825.0,-150.01,-68.918,4.5813,27.029
12835.0,-148.01,-66.918,7.5813,29.029
12845.0,-148.01,-66.918,7.5813,29.029
12855.0,-151.01,-65.918,5.5813,31.029
12865.0,-150.01,-65.918,5.5813,31.029
12875.0,-152.01,-65.918,6.5813,31.029
12885.0,-152.01,-64.918,6.5813,31.029
12894.0,-153.01,-62.918,4.5813,31.029
12904.0,-157.01,-62.918,4.5813,31.029
12914.0,-158.01,-62.918,5.5813,33.029
12924.0,-159.01,-62.918,5.5813,33.029
12934.0,-161.01,-60.918,4.5813,33.029
12944.0,-163.01,-60.918,4.5813,33.029
12954.0,-164.01,-61.918,5.5813,35.029
12964.0,-166.01,-61.918,5.5813,35.029
12974.0,-170.01,-61.918,5.5813,37.029
12983.0,-171.01,-62.918,5.5813,37.029
12993.0,-174.01,-62.918,5.5813,37.029
13003.0,-177.01,-63.918,5.5813,37.029
13013.0,-178.01,-64.918,3.5813,39.029
13023.0,-180.01,-64.918,3.5813,39.029
13033.0,-184.01,-63.918,5.5813,38.029
13043.0,-186.01,-64.918,3.5813,40.029
13053.0,-190.01,-64.918,5.5813,41.029
13062.0,-192.01,-62.918,5.5813,41.029
13072.0,-198.01,-65.918,5.5813,43.029
13082.0,-206.01,-71.918,3.5813,43.029
13092.0,-216.01,-76.918,4.5813,44.029
13102.0,-221.01,-81.918,3.5813,44.029
13112.0,-217.01,-79.918,4.5813,44.029
13122.0,-212.01,-81.918,4.5813,46.029
13132.0,-206.01,-81.918,1.5813,45.029
13142.0,-199.01,-81.918,-2.4187,43.029
13151.0,-186.01,-77.918,-3.4187,40.029
13161.0,-175.01,-72.918,-0.41873,37.029
13171.0,-167.01,-71.918,5.5813,38.029
13181.0,-162.01,-67.918,14.581,38.029
13191.0,-157.01,-67.918,21.581,40.029
13201.0,-153.01,-66.918,30.581,41.029
13211.0,-151.01,-64.918,39.581,43.029
13221.0,-148.01,-66.918,47.581,46.029
13231.0,-146.01,-63.918,56.581,48.029
13240.0,-141.01,-60.918,63.581,51.029
13250.0,-139.01,-59.918,71.581,53.029
13260.0,-136.01,-58.918,81.581,56.029
13270.0,-132.01,-58.918,90.581,59.029
13280.0,-132.01,-58.918,97.581,63.029
13290.0,-125.01,-52.918,104.58,66.029
13300.0,-125.01,-52.918,109.58,69.029
13310.0,-121.01,-49.918,117.58,72.029
13320.0,-121.01,-49.918,120.58,75.029
13329.0,-115.01,-45.918,123.58,76.029
13339.0,-115.01,-45.918,125.58,78.029
13349.0,-109.01,-42.918,126.58,79.029
13359.0,-109.01,-42.918,125.58,78.029
13369.0,-103.01,-35.918,125.58,80.029
13379.0,-103.01,-35.918,124.58,80.029
13389.0,-96.008,-31.918,121.58,79.029
13399.0,-96.008,-31.918,119.58,80.029
13408.0,-91.008,-28.918,119.58,78.029
13418.0,-91.008,-28.918,112.58,79.029
13428.0,-88.008,-25.918,111.58,78.029
13438.0,-88.008,-24.918,108.58,77.029
13448.0,-83.008,-22.918,105.58,76.029
13458.0,-83.008,-20.918,102.58,74.029
13468.0,-83.008,-16.918,100.58,73.029
13478.0,-82.008,-17.918,97.581,72.029
13488.0,-82.008,-14.918,95.581,71.029
13497.0,-81.008,-13.918,93.581,71.029
13507.0,-79.008,-13.918,89.581,71.029
13517.0,-80.008,-12.918,87.581,68.029
13527.0,-84.008,-11.918,86.581,69.029
13537.0,-81.008,-11.918,80.581,68.029
13547.0,-80.008,-9.9175,78.581,66.029
13557.0,-82.008,-8.9175,74.581,65.029
13567.0,-80.008,-6.9175,72.581,63.029
13577.0,-80.008,-5.9175,68.581,63.029
13586.0,-80.008,-5.9175,63.581,61.029
13596.0,-81.008,-1.9175,63.581,61.029
13606.0,-81.008,-2.9175,58.581,60.029
13616.0,-87.008,-6.9175,53.581,58.029
13626.0,-98.008,-14.918,51.581,59.029
13636.0,-111.01,-21.918,48.581,57.029
13646.0,-109.01,-21.918,45.581,58.029
13656.0,-101.01,-19.918,44.581,59.029
13666.0,-95.008,-19.918,36.581,56.029
13675.0,-87.008,-19.918,31.581,49.029
13685.0,-78.008,-16.918,29.581,46.029
13695.0,-63.008,-12.918,30.581,43.029
13705.0,-52.008,-7.9175,34.581,44.029
13715.0,-41.008,-2.9175,39.581,42.029
13725.0,-34.008,-0.91755,43.581,41.029
13735.0,-27.008,0.082455,48.581,44.029
13745.0,-26.008,1.0825,55.581,45.029
13754.0,-21.008,1.0825,61.581,45.029
13764.0,-16.008,3.0825,72.581,47.029
13774.0,-11.008,6.0825,77.581,50.029
13784.0,-4.0077,9.0825,86.581,52.029
13794.0,-2.0077,10.082,93.581,56.029
13804.0,-0.0077116,10.082,101.58,58.029
13814.0,4.9923,12.082,107.58,60.029
13824.0,7.9923,14.082,114.58,62.029
13834.0,7.9923,15.082,119.58,64.029
13843.0,8.9923,16.082,122.58,67.029
13853.0,12.992,18.082,127.58,68.029
13863.0,14.992,20.082,130.58,70.029
13873.0,15.992,21.082,129.58,70.029
13883.0,16.992,21.082,128.58,71.029
13893.0,18.992,22.082,128.58,71.029
13903.0,18.992,22.082,126.58,72.029
13913.0,19.992,24.082,126.58,72.029
13923.0,20.992,25.082,120.58,71.029
13932.0,23.992,28.082,120.58,71.029
13942.0,23.992,28.082,114.58,68.029
13952.0,25.992,29.082,114.58,68.029
13962.0,24.992,28.082,107.58,66.029
13972.0,24.992,29.082,107.58,66.029
13982.0,24.992,30.082,100.58,64.029
13992.0,24.992,31.082,100.58,64.029
14002.0,26.992,34.082,92.581,59.029
14012.0,26.992,34.082,92.581,59.029
14021.0,24.992,32.082,85.581,58.029
14031.0,24.992,32.082,85.581,58.029
14041.0,25.992,34.082,79.581,56.029
14051.0,25.992,34.082,79.581,56.029
14061.0,25.992,36.082,71.581,54.029
14071.0,25.992,36.082,71.581,54.029
14081.0,24.992,37.082,65.581,51.029
14091.0,24.992,37.082,65.581,51.029
14100.0,22.992,40.082,60.581,51.029
14110.0,22.992,40.082,57.581,50.029
14120.0,22.992,40.082,52.581,50.029
14130.0,22.992,40.082,51.581,49.029
14140.0,21.992,42.082,48.581,49.029
14150.0,20.992,41.082,46.581,48.029
14160.0,12.992,36.082,41.581,49.029
14170.0,3.9923,30.082,36.581,48.029
14180.0,-0.0077116,27.082,33.581,48.029
14189.0,5.9923,29.082,29.581,48.029
14199.0,14.992,30.082,24.581,46.029
14209.0,20.992,31.082,20.581,42.029
14219.0,30.992,31.082,15.581,39.029
14229.0,41.992,35.082,16.581,35.029
14239.0,53.992,39.082,16.581,33.029
14249.0,64.992,42.082,20.581,32.029
14259.0,71.992,46.082,27.581,34.029
14269.0,78.992,48.082,32.581,35.029
14278.0,83.992,50.082,40.581,35.029
14288.0,89.992,51.082,48.581,37.029
14298.0,94.992,53.082,54.581,37.029
14308.0,101.99,56.082,63.581,40.029
14318.0,107.99,57.082,72.581,41.029
14328.0,112.99,60.082,79.581,44.029
14338.0,115.99,61.082,85.581,45.029
14348.0,120.99,64.082,91.581,47.029
14358.0,122.99,67.082,100.58,50.029
14367.0,123.99,65.082,104.58,52.029
14377.0,127.99,69.082,109.58,53.029
14387.0,125.99,68.082,111.58,55.029
14397.0,128.99,71.082,114.58,57.029
14407.0,129.99,72.082,117.58,59.029
14417.0,131.99,72.082,120.58,59.029
14427.0,133.99,74.082,117.58,59.029
14437.0,136.99,75.082,113.58,59.029
14446.0,137.99,75.082,114.58,59.029
14456.0,138.99,77.082,110.58,58.029
14466.0,140.99,77.082,105.58,56.029
14476.0,142.99,78.082,100.58,55.029
14486.0,143.99,79.082,97.581,54.029
14496.0,143.99,80.082,94.581,53.029
14506.0,141.99,80.082,89.581,49.029
14516.0,143.99,80.082,86.581,49.029
14526.0,140.99,81.082,80.581,46.029
14535.0,141.99,81.082,74.581,43.029
14545.0,143.99,82.082,70.581,41.029
14555.0,142.99,83.082,64.581,39.029
14565.0,143.99,83.082,60.581,37.029
14575.0,141.99,85.082,56.581,36.029
14585.0,144.99,86.082,52.581,34.029
14595.0,144.99,86.082,49.581,33.029
14605.0,143.99,87.082,46.581,31.029
14615.0,144.99,88.082,42.581,31.029
14624.0,142.99,89.082,39.581,31.029
14634.0,145.99,90.082,33.581,28.029
14644.0,144.99,91.082,29.581,28.029
14654.0,145.99,91.082,25.581,27.029
14664.0,143.99,92.082,23.581,27.029
14674.0,145.99,95.082,18.581,26.029
14684.0,139.99,91.082,12.581,25.029
14694.0,132.99,88.082,9.5813,23.029
14704.0,127.99,84.082,2.5813,25.029
14713.0,128.99,83.082,-0.41873,23.029
14723.0,128.99,83.082,-6.4187,22.029
14733.0,142.99,85.082,-9.4187,21.029
14743.0,142.99,85.082,-15.419,17.029
14753.0,158.99,86.082,-21.419,14.029
14763.0,158.99,86.082,-19.419,12.029
14773.0,179.99,94.082,-15.419,11.029
14783.0,179.99,94.082,-11.419,10.029
14792.0,195.99,100.08,-7.4187,10.029
14802.0,195.99,100.08,0.58127,12.029
14812.0,203.99,102.08,7.5813,14.029
14822.0,203.99,102.08,14.581,15.029
14832.0,217.99,109.08,23.581,16.029
14842.0,217.99,109.08,30.581,17.029
14852.0,227.99,113.08,37.581,19.029
14862.0,227.99,113.08,44.581,20.029
14872.0,231.99,113.08,51.581,23.029
14881.0,235.99,115.08,56.581,25.029
14891.0,238.99,117.08,63.581,26.029
14901.0,238.99,116.08,63.581,26.029
14911.0,239.99,119.08,68.581,28.029
14921.0,241.99,118.08,68.581,28.029
14931.0,242.99,120.08,72.581,30.029
14941.0,244.99,121.08,72.581,30.029
14951.0,245.99,122.08,71.581,32.029
14961.0,245.99,122.08,71.581,32.029
14970.0,248.99,123.08,68.581,31.029
14980.0,250.99,125.08,68.581,31.029
14990.0,253.99,126.08,64.581,30.029
15000.0,253.99,127.08,64.581,30.029
15010.0,254.99,127.08,59.581,28.029
15020.0,258.99,130.08,59.581,28.029
15030.0,258.99,130.08,53.581,26.029
15040.0,259.99,131.08,53.581,26.029
15049.0,259.99,133.08,41.581,21.029
15059.0,260.99,133.08,41.581,21.029
15069.0,259.99,133.08,32.581,17.029
15079.0,258.99,134.08,32.581,17.029
15089.0,257.99,134.08,24.581,14.029
15099.0,256.99,134.08,24.581,14.029
15109.0,256.99,134.08,19.581,12.029
15119.0,253.99,133.08,14.581,11.029
15129.0,249.99,132.08,12.581,9.0289
15138.0,250.99,131.08,7.5813,6.0289
15148.0,245.99,131.08,2.5813,5.0289
15158.0,242.99,129.08,0.58127,1.0289
15168.0,241.99,127.08,-4.4187,-0.97113
15178.0,234.99,126.08,-8.4187,-2.9711
15188.0,233.99,126.08,-12.419,-3.9711
15198.0,231.99,125.08,-16.419,-5.9711
15208.0,226.99,125.08,-19.419,-7.9711
15218.0,226.99,126.08,-22.419,-9.9711
15227.0,220.99,122.08,-23.419,-10.971
15237.0,209.99,116.08,-25.419,-11.971
15247.0,198.99,109.08,-28.419,-11.971
15257.0,194.99,105.08,-30.419,-13.971
15267.0,196.99,104.08,-33.419,-14.971
15277.0,199.99,105.08,-41.419,-15.971
15287.0,208.99,105.08,-44.419,-17.971
15297.0,214.99,105.08,-49.419,-21.971
15307.0,224.99,107.08,-52.419,-25.971
15316.0,233.99,111.08,-50.419,-27.971
15326.0,240.99,114.08,-45.419,-26.971
15336.0,244.99,116.08,-42.419,-24.971
15346.0,249.99,118.08,-39.419,-24.971
15356.0,253.99,119.08,-35.419,-23.971
15366.0,256.99,119.08,-29.419,-20.971
15376.0,259.99,120.08,-24.419,-17.971
15386.0,263.99,122.08,-17.419,-15.971
15395.0,269.99,123.08,-9.4187,-9.9711
15405.0,272.99,125.08,-4.4187,-6.9711
15415.0,278.99,127.08,1.5813,-3.9711
15425.0,280.99,128.08,6.5813,-0.97113
15435.0,280.99,128.08,14.581,1.0289
15445.0,282.99,129.08,17.581,6.0289
15455.0,282.99,129.08,20.581,9.0289
15465.0,285.99,132.08,26.581,11.029
15475.0,285.99,132.08,26.581,13.029
15484.0,288.99,133.08,29.581,16.029
15494.0,288.99,133.08,26.581,18.029
15504.0,291.99,135.08,26.581,17.029
15514.0,291.99,135.08,27.581,17.029
15524.0,295.99,137.08,23.581,19.029
15534.0,295.99,137.08,20.581,17.029
15544.0,302.99,141.08,16.581,15.029
15554.0,302.99,141.08,11.581,15.029
15564.0,305.99,141.08,8.5813,15.029
15573.0,305.99,141.08,3.5813,14.029
15583.0,305.99,143.08,1.5813,12.029
15593.0,308.99,144.08,-1.4187,10.029
15603.0,307.99,145.08,-6.4187,11.029
15613.0,309.99,145.08,-10.419,8.0289
15623.0,311.99,148.08,-13.419,7.0289
15633.0,312.99,148.08,-17.419,5.0289
15643.0,314.99,148.08,-20.419,4.0289
15653.0,314.99,149.08,-25.419,2.0289
15662.0,313.99,150.08,-27.419,0.028869
15672.0,316.99,151.08,-31.419,-0.97113
15682.0,314.99,150.08,-32.419,-2.9711
15692.0,315.99,148.08,-34.419,-4.9711
15702.0,312.99,149.08,-38.419,-6.9711
15712.0,311.99,148.08,-40.419,-8.9711
15722.0,310.99,147.08,-42.419,-9.9711
15732.0,309.99,146.08,-47.419,-12.971
15741.0,309.99,146.08,-50.419,-15.971
15751.0,309.99,148.08,-53.419,-18.971
15761.0,306.99,147.08,-59.419,-21.971
15771.0,304.99,146.08,-60.419,-23.971
15781.0,303.99,147.08,-64.419,-26.971
15791.0,299.99,145.08,-68.419,-27.971
15801.0,290.99,141.08,-73.419,-30.971
15811.0,279.99,132.08,-75.419,-31.971
15821.0,276.99,130.08,-78.419,-31.971
15830.0,274.99,129.08,-79.419,-32.971
15840.0,276.99,127.08,-84.419,-36.971
15850.0,281.99,126.08,-89.419,-38.971
15860.0,284.99,123.08,-94.419,-42.971
15870.0,290.99,124.08,-97.419,-45.971
15880.0,298.99,127.08,-91.419,-46.971
15890.0,305.99,130.08,-88.419,-43.971
15900.0,309.99,131.08,-81.419,-41.971
15910.0,312.99,133.08,-78.419,-42.971
15919.0,313.99,134.08,-72.419,-39.971
15929.0,311.99,133.08,-67.419,-36.971
15939.0,311.99,133.08,-63.419,-34.971
15949.0,310.99,134.08,-54.419,-30.971
15959.0,308.99,132.08,-48.419,-27.971
15969.0,307.99,134.08,-48.419,-27.971
15979.0,308.99,135.08,-38.419,-21.971
15989.0,302.99,134.08,-38.419,-21.971
15999.0,295.99,130.08,-28.419,-16.971
16008.0,288.99,126.08,-28.419,-16.971
16018.0,283.99,125.08,-22.419,-11.971
16028.0,277.99,123.08,-22.419,-11.971
16038.0,271.99,120.08,-20.419,-6.9711
16048.0,263.99,116.08,-20.419,-6.9711
16058.0,257.99,112.08,-22.419,-5.9711
16068.0,249.99,108.08,-22.419,-5.9711
16078.0,239.99,104.08,-27.419,-6.9711
16087.0,232.99,100.08,-27.419,-6.9711
16097.0,226.99,96.082,-29.419,-7.9711
16107.0,221.99,95.082,-29.419,-7.9711
16117.0,215.99,94.082,-36.419,-8.9711
16127.0,209.99,91.082,-36.419,-8.9711
16137.0,203.99,90.082,-44.419,-9.9711
16147.0,198.99,88.082,-44.419,-9.9711
16157.0,191.99,85.082,-48.419,-12.971
16167.0,191.99,85.082,-48.419,-12.971
16176.0,179.99,81.082,-50.419,-13.971
16186.0,179.99,81.082,-54.419,-13.971
16196.0,161.99,73.082,-55.419,-15.971
16206.0,161.99,73.082,-58.419,-16.971
16216.0,146.99,67.082,-61.419,-17.971
16226.0,146.99,67.082,-62.419,-20.971
16236.0,132.99,62.082,-67.419,-20.971
16246.0,132.99,62.082,-71.419,-22.971
16256.0,122.99,57.082,-70.419,-22.971
16265.0,122.99,57.082,-75.419,-24.971
16275.0,111.99,54.082,-78.419,-24.971
16285.0,111.99,54.082,-81.419,-26.971
16295.0,107.99,52.082,-84.419,-27.971
16305.0,101.99,49.082,-87.419,-29.971
16315.0,96.992,47.082,-92.419,-29.971
16325.0,90.992,46.082,-95.419,-30.971
16335.0,84.992,46.082,-100.42,-31.971
16345.0,79.992,45.082,-103.42,-31.971
16354.0,76.992,44.082,-108.42,-33.971
16364.0,63.992,36.082,-114.42,-35.971
16374.0,50.992,30.082,-118.42,-35.971
16384.0,36.992,21.082,-122.42,-36.971
16394.0,29.992,18.082,-123.42,-36.971
16404.0,29.992,18.082,-128.42,-36.971
16414.0,31.992,15.082,-130.42,-39.971
16424.0,29.992,12.082,-135.42,-43.971
16433.0,32.992,9.0825,-141.42,-48.971
16443.0,35.992,10.082,-140.42,-50.971
16453.0,41.992,12.082,-135.42,-52.971
16463.0,44.992,13.082,-130.42,-53.971
16473.0,44.992,13.082,-124.42,-53.971
16483.0,45.992,13.082,-117.42,-53.971
16493.0,40.992,11.082,-111.42,-53.971
16503.0,37.992,10.082,-107.42,-51.971
16513.0,34.992,7.0825,-101.42,-51.971
16522.0,32.992,6.0825,-93.419,-49.971
16532.0,30.992,6.0825,-86.419,-48.971
16542.0,30.992,8.0825,-80.419,-46.971
16552.0,26.992,5.0825,-74.419,-45.971
16562.0,20.992,2.0825,-70.419,-43.971
16572.0,15.992,1.0825,-63.419,-41.971
16582.0,10.992,0.082455,-60.419,-39.971
16592.0,7.9923,0.082455,-54.419,-38.971
16602.0,3.9923,-4.9175,-52.419,-37.971
16611.0,-0.0077116,-5.9175,-51.419,-35.971
16621.0,-5.0077,-8.9175,-50.419,-34.971
16631.0,-8.0077,-7.9175,-51.419,-35.971
16641.0,-9.0077,-9.9175,-51.419,-34.971
16651.0,-12.008,-9.9175,-52.419,-35.971
16661.0,-15.008,-9.9175,-53.419,-36.971
16671.0,-18.008,-11.918,-55.419,-37.971
16681.0,-21.008,-12.918,-55.419,-37.971
16691.0,-25.008,-13.918,-57.419,-39.971
16700.0,-30.008,-16.918,-58.419,-40.971
16710.0,-34.008,-18.918,-60.419,-40.971
16720.0,-39.008,-18.918,-63.419,-42.971
16730.0,-44.008,-20.918,-66.419,-43.971
16740.0,-48.008,-21.918,-67.419,-42.971
16750.0,-54.008,-24.918,-68.419,-43.971
16760.0,-58.008,-23.918,-69.419,-43.971
16770.0,-63.008,-26.918,-72.419,-44.971
16779.0,-67.008,-28.918,-74.419,-44.971
16789.0,-72.008,-30.918,-74.419,-45.971
16799.0,-77.008,-32.918,-76.419,-45.971
16809.0,-83.008,-34.918,-78.419,-47.971
16819.0,-87.008,-35.918,-78.419,-46.971
16829.0,-91.008,-36.918,-78.419,-47.971
16839.0,-97.008,-38.918,-79.419,-47.971
16849.0,-103.01,-39.918,-81.419,-46.971
16859.0,-107.01,-42.918,-82.419,-46.971
16868.0,-111.01,-43.918,-84.419,-49.971
16878.0,-111.01,-43.918,-86.419,-48.971
16888.0,-119.01,-45.918,-86.419,-48.971
16898.0,-119.01,-45.918,-90.419,-49.971
16908.0,-130.01,-48.918,-87.419,-48.971
16918.0,-130.01,-48.918,-88.419,-48.971
16928.0,-154.01,-61.918,-90.419,-48.971
16938.0,-154.01,-61.918,-91.419,-49.971
16948.0,-167.01,-68.918,-92.419,-50.971
16957.0,-167.01,-68.918,-94.419,-50.971
16967.0,-162.01,-70.918,-96.419,-50.971
16977.0,-162.01,-70.918,-101.42,-54.971
16987.0,-152.01,-71.918,-103.42,-59.971
16997.0,-152.01,-71.918,-103.42,-59.971
17007.0,-138.01,-66.918,-100.42,-64.971
17017.0,-138.01,-66.918,-100.42,-64.971
17027.0,-135.01,-64.918,-88.419,-61.971
17037.0,-133.01,-64.918,-88.419,-61.971
17046.0,-134.01,-64.918,-72.419,-59.971
17056.0,-135.01,-65.918,-72.419,-59.971
17066.0,-136.01,-68.918,-58.419,-56.971
17076.0,-139.01,-69.918,-58.419,-56.971
17086.0,-139.01,-68.918,-41.419,-48.971
17096.0,-139.01,-67.918,-41.419,-48.971
17106.0,-140.01,-67.918,-27.419,-43.971
17116.0,-143.01,-69.918,-27.419,-43.971
17125.0,-146.01,-70.918,-10.419,-32.971
17135.0,-150.01,-70.918,-10.419,-32.971
17145.0,-152.01,-71.918,-1.4187,-26.971
17155.0,-155.01,-71.918,-1.4187,-26.971
17165.0,-158.01,-73.918,9.5813,-21.971
17175.0,-162.01,-75.918,9.5813,-21.971
17185.0,-165.01,-78.918,10.581,-16.971
17195.0,-167.01,-79.918,10.581,-16.971
17205.0,-169.01,-80.918,12.581,-13.971
17214.0,-172.01,-79.918,10.581,-13.971
17224.0,-173.01,-80.918,10.581,-12.971
17234.0,-176.01,-81.918,10.581,-12.971
17244.0,-176.01,-83.918,9.5813,-11.971
17254.0,-181.01,-84.918,7.5813,-10.971
17264.0,-185.01,-86.918,6.5813,-8.9711
17274.0,-189.01,-87.918,5.5813,-10.971
17284.0,-193.01,-89.918,0.58127,-8.9711
17294.0,-196.01,-90.918,0.58127,-7.9711
17303.0,-203.01,-92.918,-0.41873,-7.9711
17313.0,-207.01,-92.918,-3.4187,-6.9711
17323.0,-209.01,-95.918,-3.4187,-6.9711
17333.0,-211.01,-96.918,-3.4187,-4.9711
17343.0,-215.01,-97.918,-3.4187,-2.9711
17353.0,-218.01,-96.918,-6.4187,-1.9711
17363.0,-219.01,-97.918,-7.4187,-1.9711
17373.0,-221.01,-96.918,-6.4187,0.028869
17383.0,-221.01,-95.918,-7.4187,1.0289
17392.0,-221.01,-93.918,-9.4187,2.0289
17402.0,-223.01,-94.918,-12.419,3.0289
17412.0,-223.01,-93.918,-13.419,5.0289
17422.0,-224.01,-91.918,-13.419,5.0289
17432.0,-227.01,-90.918,-13.419,7.0289
17442.0,-226.01,-91.918,-14.419,6.0289
17452.0,-229.01,-90.918,-14.419,8.0289
17462.0,-239.01,-96.918,-16.419,8.0289
17471.0,-247.01,-100.92,-18.419,11.029
17481.0,-254.01,-104.92,-20.419,10.029
17491.0,-259.01,-107.92,-18.419,13.029
17501.0,-255.01,-107.92,-20.419,14.029
17511.0,-251.01,-107.92,-22.419,15.029
17521.0,-244.01,-108.92,-25.419,14.029
17531.0,-235.01,-106.92,-30.419,9.0289
17541.0,-223.01,-101.92,-32.419,6.0289
17551.0,-214.01,-98.918,-28.419,5.0289
17560.0,-205.01,-95.918,-21.419,5.0289
17570.0,-202.01,-92.918,-15.419,6.0289
17580.0,-197.01,-90.918,-7.4187,7.0289
17590.0,-194.01,-89.918,-1.4187,9.0289
17600.0,-194.01,-88.918,6.5813,11.029
17610.0,-194.01,-88.918,16.581,14.029
17620.0,-186.01,-87.918,26.581,16.029
17630.0,-186.01,-87.918,34.581,18.029
17640.0,-180.01,-82.918,41.581,21.029
17649.0,-180.01,-82.918,50.581,24.029
17659.0,-177.01,-80.918,58.581,29.029
17669.0,-177.01,-80.918,66.581,31.029
17679.0,-179.01,-80.918,75.581,35.029
17689.0,-179.01,-80.918,81.581,38.029
17699.0,-178.01,-78.918,88.581,40.029
17709.0,-178.01,-78.918,92.581,44.029
17719.0,-178.01,-79.918,95.581,47.029
17729.0,-178.01,-79.918,97.581,47.029
17738.0,-178.01,-77.918,96.581,50.029
17748.0,-175.01,-76.918,100.58,53.029
17758.0,-177.01,-76.918,100.58,52.029
17768.0,-176.01,-76.918,100.58,53.029
17778.0,-174.01,-72.918,100.58,53.029
17788.0,-176.01,-73.918,97.581,53.029
17798.0,-176.01,-71.918,96.581,53.029
17808.0,-174.01,-70.918,93.581,54.029
17817.0,-176.01,-70.918,92.581,53.029
17827.0,-176.01,-69.918,90.581,54.029
17837.0,-177.01,-68.918,86.581,52.029
17847.0,-178.01,-68.918,84.581,52.029
17857.0,-181.01,-69.918,82.581,51.029
17867.0,-183.01,-70.918,79.581,52.029
17877.0,-183.01,-69.918,78.581,51.029
17887.0,-184.01,-69.918,76.581,52.029
17897.0,-185.01,-69.918,76.581,51.029
17906.0,-187.01,-67.918,74.581,51.029
17916.0,-188.01,-69.918,73.581,51.029
17926.0,-190.01,-68.918,70.581,52.029
17936.0,-190.01,-67.918,68.581,51.029
17946.0,-190.01,-66.918,65.581,51.029
17956.0,-191.01,-66.918,64.581,51.029
17966.0,-191.01,-64.918,61.581,50.029
17976.0,-194.01,-65.918,61.581,51.029
17986.0,-196.01,-63.918,59.581,51.029
17995.0,-200.01,-66.918,57.581,51.029
18005.0,-206.01,-70.918,55.581,51.029
18015.0,-215.01,-74.918,52.581,52.029
18025.0,-220.01,-79.918,52.581,52.029
18035.0,-214.01,-77.918,49.581,52.029
18045.0,-207.01,-77.918,45.581,49.029
18055.0,-203.01,-77.918,38.581,46.029
18065.0,-195.01,-77.918,38.581,46.029
18075.0,-183.01,-72.918,31.581,39.029
18084.0,-168.01,-68.918,31.581,39.029
18094.0,-160.01,-64.918,40.581,38.029
18104.0,-153.01,-60.918,40.581,38.029
18114.0,-146.01,-58.918,50.581,40.029
18124.0,-139.01,-57.918,50.581,40.029
18134.0,-134.01,-54.918,63.581,44.029
18144.0,-129.01,-52.918,63.581,44.029
18154.0,-123.01,-48.918,81.581,49.029
18163.0,-114.01,-46.918,81.581,49.029
18173.0,-111.01,-45.918,95.581,53.029
18183.0,-104.01,-43.918,95.581,53.029
18193.0,-100.01,-40.918,112.58,61.029
18203.0,-96.008,-37.918,112.58,61.029
18213.0,-93.008,-34.918,124.58,65.029
18223.0,-90.008,-33.918,124.58,65.029
18233.0,-88.008,-30.918,132.58,71.029
18243.0,-86.008,-29.918,132.58,71.029
18252.0,-85.008,-28.918,136.58,75.029
18262.0,-85.008,-28.918,136.58,75.029
18272.0,-83.008,-28.918,136.58,75.029
18282.0,-81.008,-26.918,137.58,77.029
18292.0,-82.008,-26.918,135.58,75.029
18302.0,-79.008,-24.918,132.58,76.029
18312.0,-78.008,-24.918,130.58,77.029
18322.0,-78.008,-24.918,128.58,75.029
18332.0,-75.008,-21.918,123.58,75.029
18341.0,-75.008,-21.918,120.58,73.029
18351.0,-73.008,-19.918,114.58,73.029
18361.0,-73.008,-19.918,109.58,71.029
18371.0,-71.008,-17.918,105.58,70.029
18381.0,-71.008,-17.918,103.58,69.029
18391.0,-72.008,-16.918,97.581,67.029
18401.0,-72.008,-16.918,95.581,66.029
18411.0,-73.008,-14.918,89.581,65.029
18421.0,-73.008,-14.918,87.581,63.029
18430.0,-72.008,-12.918,83.581,63.029
18440.0,-72.008,-12.918,77.581,62.029
18450.0,-75.008,-11.918,75.581,59.029
18460.0,-75.008,-11.918,71.581,59.029
18470.0,-74.008,-10.918,64.581,57.029
18480.0,-75.008,-11.918,62.581,57.029
18490.0,-77.008,-8.9175,61.581,56.029
18500.0,-78.008,-10.918,55.581,55.029
18509.0,-79.008,-9.9175,55.581,54.029
18519.0,-80.008,-9.9175,48.581,54.029
18529.0,-82.008,-9.9175,47.581,52.029
18539.0,-92.008,-15.918,42.581,52.029
18549.0,-103.01,-22.918,36.581,51.029
18559.0,-107.01,-25.918,33.581,51.029
18569.0,-105.01,-23.918,28.581,50.029
18579.0,-98.008,-23.918,25.581,49.029
18589.0,-92.008,-23.918,19.581,44.029
18598.0,-82.008,-23.918,12.581,39.029
18608.0,-71.008,-21.918,8.5813,35.029
18618.0,-59.008,-14.918,10.581,36.029
18628.0,-47.008,-11.918,16.581,33.029
18638.0,-38.008,-7.9175,23.581,33.029
18648.0,-33.008,-4.9175,25.581,35.029
18658.0,-28.008,-4.9175,31.581,36.029
18668.0,-23.008,-2.9175,36.581,37.029
18678.0,-19.008,-1.9175,47.581,38.029
18687.0,-13.008,0.082455,55.581,41.029
18697.0,-8.0077,2.0825,62.581,42.029
18707.0,-3.0077,3.0825,69.581,45.029
18717.0,-0.0077116,3.0825,73.581,46.029
18727.0,3.9923,6.0825,81.581,50.029
18737.0,7.9923,9.0825,86.581,52.029
18747.0,11.992,10.082,91.581,53.029
18757.0,13.992,11.082,97.581,57.029
18767.0,14.992,13.082,98.581,58.029
18776.0,15.992,14.082,102.58,60.029
18786.0,16.992,15.082,102.58,61.029
18796.0,17.992,16.082,102.58,62.029
18806.0,18.992,17.082,102.58,61.029
18816.0,19.992,17.082,100.58,63.029
18826.0,20.992,18.082,98.581,63.029
18836.0,21.992,20.082,94.581,62.029
18846.0,23.992,19.082,92.581,60.029
18855.0,22.992,20.082,88.581,60.029
18865.0,22.992,21.082,82.581,59.029
18875.0,23.992,23.082,79.581,56.029
18885.0,23.992,22.082,71.581,54.029
18895.0,22.992,24.082,67.581,53.029
18905.0,22.992,22.082,64.581,50.029
18915.0,23.992,24.082,58.581,49.029
18925.0,21.992,24.082,54.581,47.029
18935.0,23.992,25.082,51.581,46.029
18944.0,20.992,24.082,45.581,44.029
18954.0,20.992,25.082,41.581,43.029
18964.0,18.992,26.082,39.581,41.029
18974.0,17.992,25.082,33.581,39.029
18984.0,16.992,26.082,30.581,38.029
18994.0,16.992,26.082,24.581,36.029
19004.0,14.992,26.082,19.581,34.029
19014.0,14.992,26.082,16.581,35.029
19024.0,13.992,27.082,11.581,34.029
19033.0,13.992,27.082,7.5813,33.029
19043.0,9.9923,28.082,4.5813,30.029
19053.0,9.9923,28.082,0.58127,30.029
19063.0,2.9923,23.082,-4.4187,28.029
19073.0,2.9923,23.082,-4.4187,28.029
19083.0,-13.008,12.082,-15.419,27.029
19093.0,-13.008,12.082,-15.419,27.029
19103.0,-4.0077,14.082,-26.419,23.029
19113.0,-4.0077,14.082,-26.419,23.029
19122.0,12.992,17.082,-37.419,17.029
19132.0,12.992,17.082,-37.419,17.029
19142.0,34.992,25.082,-42.419,7.0289
19152.0,34.992,25.082,-42.419,7.0289
19162.0,55.992,31.082,-35.419,8.0289
19172.0,55.992,31.082,-35.419,8.0289
19182.0,64.992,35.082,-22.419,9.0289
19192.0,69.992,36.082,-22.419,9.0289
19201.0,74.992,39.082,-8.4187,10.029
19211.0,82.992,41.082,-8.4187,10.029
19221.0,92.992,46.082,6.5813,14.029
19231.0,99.992,50.082,6.5813,14.029
19241.0,106.99,52.082,20.581,18.029
19251.0,111.99,54.082,20.581,18.029
19261.0,117.99,56.082,33.581,20.029
19271.0,122.99,60.082,33.581,20.029
19281.0,122.99,61.082,39.581,23.029
19290.0,124.99,62.082,44.581,25.029
19300.0,127.99,63.082,49.581,28.029
19310.0,127.99,66.082,52.581,29.029
19320.0,130.99,68.082,55.581,31.029
19330.0,132.99,69.082,54.581,32.029
19340.0,134.99,69.082,55.581,33.029
19350.0,135.99,69.082,52.581,32.029
19360.0,137.99,70.082,52.581,32.029
19370.0,138.99,72.082,48.581,31.029
19379.0,139.99,71.082,44.581,31.029
19389.0,141.99,73.082,42.581,30.029
19399.0,142.99,75.082,38.581,29.029
19409.0,144.99,78.082,37.581,28.029
19419.0,143.99,78.082,32.581,27.029
19429.0,146.99,79.082,28.581,24.029
19439.0,147.99,80.082,24.581,24.029
19449.0,146.99,82.082,19.581,22.029
19459.0,148.99,82.082,13.581,20.029
19468.0,149.99,83.082,11.581,18.029
19478.0,145.99,82.082,8.5813,17.029
19488.0,147.99,83.082,2.5813,15.029
19498.0,146.99,84.082,0.58127,14.029
19508.0,146.99,85.082,-1.4187,13.029
19518.0,146.99,85.082,-6.4187,11.029
19528.0,148.99,86.082,-8.4187,12.029
19538.0,145.99,88.082,-11.419,11.029
19547.0,145.99,88.082,-15.419,11.029
19557.0,146.99,88.082,-18.419,9.0289
19567.0,146.99,90.082,-21.419,11.029
19577.0,145.99,90.082,-25.419,10.029
19587.0,143.99,91.082,-28.419,9.0289
19597.0,144.99,93.082,-32.419,7.0289
19607.0,140.99,88.082,-33.419,8.0289
19617.0,133.99,84.082,-37.419,8.0289
19627.0,124.99,79.082,-41.419,7.0289
19636.0,123.99,77.082,-44.419,9.0289
19646.0,129.99,80.082,-47.419,6.0289
19656.0,136.99,80.082,-54.419,6.0289
19666.0,143.99,79.082,-56.419,4.0289
19676.0,149.99,79.082,-62.419,-0.97113
19686.0,161.99,83.082,-61.419,-2.9711
19696.0,173.99,87.082,-57.419,-4.9711
19706.0,180.99,91.082,-53.419,-5.9711
19716.0,189.99,93.082,-47.419,-4.9711
19725.0,196.99,95.082,-39.419,-4.9711
19735.0,201.99,97.082,-34.419,-4.9711
19745.0,209.99,100.08,-28.419,-4.9711
19755.0,214.99,103.08,-20.419,-1.9711
19765.0,214.99,103.08,-11.419,-0.97113
19775.0,229.99,109.08,-5.4187,2.0289
19785.0,229.99,109.08,3.5813,5.0289
19795.0,238.99,112.08,11.581,6.0289
19805.0,238.99,112.08,17.581,8.0289
19814.0,246.99,117.08,22.581,10.029
19824.0,246.99,117.08,30.581,12.029
19834.0,249.99,119.08,32.581,13.029
19844.0,249.99,119.08,36.581,14.029
19854.0,254.99,122.08,37.581,16.029
19864.0,254.99,122.08,39.581,18.029
19874.0,255.99,124.08,41.581,17.029
19884.0,255.99,124.08,38.581,17.029
19893.0,258.99,124.08,39.581,19.029
19903.0,259.99,124.08,38.581,18.029
19913.0,262.99,125.08,35.581,16.029
19923.0,263.99,126.08,32.581,17.029
19933.0,267.99,129.08,30.581,14.029
19943.0,269.99,131.08,25.581,14.029
19953.0,271.99,132.08,24.581,14.029
19963.0,273.99,132.08,19.581,11.029
19973.0,274.99,135.08,15.581,9.0289
19982.0,273.99,134.08,10.581,8.0289
19992.0,274.99,136.08,9.5813,8.0289
20002.0,273.99,135.08,3.5813,6.0289
20012.0,271.99,134.08,-0.41873,2.0289
20022.0,269.99,133.08,-4.4187,1.0289
20032.0,268.99,135.08,-9.4187,0.028869
20042.0,269.99,136.08,-10.419,-0.97113
20052.0,268.99,135.08,-16.419,-1.9711
20062.0,268.99,135.08,-18.419,-3.9711
20071.0,266.99,134.08,-22.419,-3.9711
20081.0,266.99,135.08,-25.419,-4.9711
20091.0,266.99,135.08,-27.419,-2.9711
20101.0,266.99,137.08,-27.419,-2.9711
20111.0,265.99,138.08,-30.419,-3.9711
20121.0,264.99,138.08,-30.419,-3.9711
20131.0,263.99,139.08,-40.419,-3.9711
20141.0,263.99,141.08,-40.419,-3.9711
20150.0,263.99,147.08,-45.419,-2.9711
20160.0,264.99,150.08,-45.419,-2.9711
20170.0,253.99,145.08,-52.419,-1.9711
20180.0,234.99,135.08,-52.419,-1.9711
20190.0,210.99,120.08,-60.419,-1.9711
20200.0,191.99,110.08,-60.419,-1.9711
20210.0,180.99,103.08,-68.419,-1.9711
20220.0,174.99,98.082,-68.419,-1.9711
20230.0,172.99,93.082,-77.419,-6.9711
20239.0,169.99,90.082,-77.419,-6.9711
20249.0,171.99,87.082,-74.419,-11.971
20259.0,173.99,86.082,-74.419,-11.971
20269.0,172.99,86.082,-64.419,-10.971
20279.0,174.99,85.082,-64.419,-10.971
20289.0,174.99,85.082,-52.419,-9.9711
20299.0,173.99,83.082,-52.419,-9.9711
20309.0,175.99,82.082,-47.419,-9.9711
20319.0,180.99,81.082,-41.419,-7.9711
20328.0,180.99,83.082,-25.419,-3.9711
20338.0,186.99,85.082,-25.419,-3.9711
20348.0,190.99,87.082,-19.419,-4.9711
20358.0,196.99,89.082,-13.419,-1.9711
20368.0,199.99,91.082,-4.4187,1.0289
20378.0,201.99,91.082,0.58127,2.0289
20388.0,201.99,92.082,7.5813,5.0289
20398.0,202.99,92.082,10.581,6.0289
20408.0,205.99,93.082,13.581,8.0289
20417.0,205.99,94.082,13.581,9.0289
20427.0,208.99,94.082,15.581,9.0289
20437.0,210.99,94.082,17.581,10.029
20447.0,212.99,97.082,15.581,10.029
20457.0,218.99,99.082,17.581,10.029
20467.0,221.99,100.08,13.581,10.029
20477.0,221.99,100.08,11.581,9.0289
20487.0,230.99,104.08,8.5813,7.0289
20496.0,230.99,104.08,4.5813,7.0289
20506.0,234.99,107.08,2.5813,5.0289
20516.0,234.99,107.08,-2.4187,3.0289
20526.0,237.99,106.08,-4.4187,1.0289
20536.0,237.99,106.08,-9.4187,-0.97113
20546.0,240.99,106.08,-11.419,-0.97113
20556.0,240.99,106.08,-15.419,-1.9711
20566.0,244.99,107.08,-17.419,-3.9711
20576.0,244.99,107.08,-19.419,-2.9711
20585.0,250.99,109.08,-20.419,-3.9711
20595.0,250.99,109.08,-24.419,-4.9711
20605.0,252.99,111.08,-26.419,-6.9711
20615.0,252.99,111.08,-29.419,-6.9711
20625.0,255.99,110.08,-31.419,-8.9711
20635.0,255.99,110.08,-35.419,-8.9711
20645.0,258.99,112.08,-37.419,-9.9711
20655.0,257.99,113.08,-41.419,-11.971
20665.0,260.99,113.08,-45.419,-12.971
20674.0,260.99,113.08,-47.419,-12.971
20684.0,259.99,113.08,-52.419,-12.971
20694.0,258.99,115.08,-54.419,-12.971
20704.0,257.99,114.08,-56.419,-13.971
20714.0,257.99,114.08,-60.419,-13.971
20724.0,259.99,117.08,-64.419,-12.971
20734.0,259.99,120.08,-64.419,-11.971
20744.0,261.99,123.08,-68.419,-11.971
20754.0,257.99,120.08,-72.419,-10.971
20763.0,247.99,115.08,-75.419,-9.9711
20773.0,241.99,112.08,-78.419,-10.971
20783.0,241.99,110.08,-81.419,-9.9711
20793.0,243.99,111.08,-83.419,-9.9711
20803.0,248.99,111.08,-88.419,-11.971
20813.0,251.99,110.08,-92.419,-14.971
20823.0,255.99,108.08,-90.419,-16.971
20833.0,259.99,112.08,-88.419,-18.971
20842.0,264.99,114.08,-85.419,-16.971
20852.0,266.99,115.08,-77.419,-16.971
20862.0,269.99,117.08,-76.419,-16.971
20872.0,269.99,119.08,-69.419,-16.971
20882.0,268.99,119.08,-64.419,-15.971
20892.0,265.99,117.08,-58.419,-14.971
20902.0,264.99,119.08,-53.419,-12.971
20912.0,261.99,117.08,-46.419,-11.971
20922.0,258.99,117.08,-40.419,-9.9711
20931.0,255.99,117.08,-33.419,-7.9711
20941.0,249.99,116.08,-26.419,-4.9711
20951.0,241.99,112.08,-21.419,-2.9711
20961.0,233.99,109.08,-16.419,0.028869
20971.0,227.99,107.08,-13.419,2.0289
20981.0,217.99,104.08,-12.419,2.0289
20991.0,210.99,100.08,-7.4187,5.0289
21001.0,202.99,96.082,-6.4187,3.0289
21011.0,196.99,93.082,-7.4187,5.0289
21020.0,188.99,89.082,-10.419,5.0289
21030.0,180.99,85.082,-12.419,4.0289
21040.0,174.99,82.082,-14.419,3.0289
21050.0,168.99,81.082,-17.419,2.0289
21060.0,163.99,77.082,-19.419,2.0289
21070.0,159.99,75.082,-22.419,-0.97113
21080.0,153.99,74.082,-26.419,-2.9711
21090.0,147.99,73.082,-27.419,-3.9711
21100.0,140.99,69.082,-33.419,-5.9711
21109.0,134.99,67.082,-34.419,-6.9711
21119.0,127.99,65.082,-39.419,-9.9711
21129.0,120.99,62.082,-44.419,-11.971
21139.0,113.99,59.082,-46.419,-13.971
21149.0,107.99,57.082,-49.419,-14.971
21159.0,100.99,55.082,-53.419,-15.971
21169.0,94.992,52.082,-53.419,-15.971
21179.0,86.992,49.082,-59.419,-16.971
21188.0,86.992,49.082,-59.419,-16.971
21198.0,75.992,45.082,-65.419,-19.971
21208.0,75.992,45.082,-65.419,-19.971
21218.0,62.992,40.082,-69.419,-20.971
21228.0,62.992,40.082,-69.419,-20.971
21238.0,51.992,36.082,-75.419,-19.971
21248.0,51.992,36.082,-75.419,-19.971
21258.0,41.992,33.082,-81.419,-20.971
21268.0,41.992,33.082,-81.419,-20.971
21277.0,30.992,30.082,-87.419,-21.971
21287.0,30.992,30.082,-87.419,-21.971
21297.0,20.992,29.082,-92.419,-20.971
21307.0,20.992,29.082,-92.419,-20.971
21317.0,9.9923,27.082,-98.419,-19.971
21327.0,9.9923,27.082,-98.419,-19.971
21337.0,-2.0077,20.082,-105.42,-19.971
21347.0,-12.008,13.082,-105.42,-19.971
21357.0,-19.008,10.082,-108.42,-18.971
21366.0,-23.008,7.0825,-111.42,-19.971
21376.0,-21.008,8.0825,-115.42,-19.971
21386.0,-18.008,5.0825,-117.42,-22.971
21396.0,-16.008,4.0825,-122.42,-25.971
21406.0,-10.008,5.0825,-124.42,-27.971
21416.0,-5.0077,7.0825,-121.42,-29.971
21426.0,-1.0077,8.0825,-117.42,-30.971
21436.0,0.99229,11.082,-109.42,-28.971
21446.0,2.9923,10.082,-103.42,-27.971
21455.0,-0.0077116,10.082,-99.419,-25.971
21465.0,-3.0077,6.0825,-91.419,-23.971
21475.0,-9.0077,3.0825,-83.419,-22.971
21485.0,-12.008,3.0825,-75.419,-19.971
21495.0,-15.008,1.0825,-68.419,-17.971
21505.0,-15.008,1.0825,-62.419,-14.971
21515.0,-17.008,1.0825,-54.419,-8.9711
21525.0,-23.008,-1.9175,-47.419,-8.9711
21534.0,-29.008,-4.9175,-39.419,-4.9711
21544.0,-36.008,-7.9175,-33.419,-1.9711
21554.0,-39.008,-8.9175,-28.419,1.0289
21564.0,-42.008,-7.9175,-27.419,4.0289
21574.0,-47.008,-10.918,-25.419,4.0289
21584.0,-49.008,-12.918,-21.419,9.0289
21594.0,-53.008,-13.918,-20.419,8.0289
21604.0,-56.008,-13.918,-20.419,10.029
21614.0,-56.008,-14.918,-20.419,9.0289
21623.0,-60.008,-14.918,-22.419,10.029
21633.0,-62.008,-14.918,-21.419,10.029
21643.0,-65.008,-16.918,-23.419,10.029
21653.0,-68.008,-17.918,-24.419,12.029
21663.0,-74.008,-17.918,-24.419,12.029
21673.0,-75.008,-18.918,-26.419,12.029
21683.0,-79.008,-20.918,-28.419,11.029
21693.0,-83.008,-21.918,-30.419,12.029
21703.0,-85.008,-20.918,-32.419,12.029
21712.0,-91.008,-22.918,-33.419,11.029
21722.0,-97.008,-24.918,-33.419,13.029
21732.0,-100.01,-25.918,-34.419,13.029
21742.0,-104.01,-27.918,-34.419,14.029
21752.0,-110.01,-28.918,-35.419,14.029
21762.0,-114.01,-29.918,-38.419,15.029
21772.0,-118.01,-31.918,-36.419,16.029
21782.0,-122.01,-31.918,-37.419,16.029
21792.0,-127.01,-34.918,-41.419,16.029
21801.0,-132.01,-35.918,-43.419,15.029
21811.0,-136.01,-35.918,-46.419,16.029
21821.0,-139.01,-37.918,-47.419,15.029
21831.0,-145.01,-39.918,-48.419,15.029
21841.0,-151.01,-40.918,-51.419,14.029
21851.0,-154.01,-43.918,-53.419,16.029
21861.0,-161.01,-43.918,-52.419,15.029
21871.0,-163.01,-43.918,-54.419,16.029
21880.0,-168.01,-44.918,-53.419,17.029
21890.0,-179.01,-51.918,-55.419,18.029
21900.0,-189.01,-55.918,-57.419,16.029
21910.0,-197.01,-61.918,-58.419,18.029
21920.0,-197.01,-61.918,-60.419,18.029
21930.0,-202.01,-64.918,-62.419,17.029
21940.0,-202.01,-64.918,-64.419,17.029
21950.0,-196.01,-68.918,-67.419,15.029
21960.0,-196.01,-68.918,-70.419,12.029
21969.0,-181.01,-65.918,-70.419,9.0289
21979.0,-181.01,-65.918,-67.419,8.0289
21989.0,-170.01,-61.918,-60.419,8.0289
21999.0,-170.01,-61.918,-55.419,9.0289
22009.0,-172.01,-64.918,-47.419,9.0289
22019.0,-172.01,-64.918,-44.419,11.029
22029.0,-175.01,-66.918,-35.419,14.029
22039.0,-175.01,-66.918,-26.419,17.029
22049.0,-178.01,-66.918,-20.419,18.029
22058.0,-178.01,-66.918,-13.419,23.029
22068.0,-178.01,-66.918,-5.4187,24.029
22078.0,-178.01,-66.918,2.5813,28.029
22088.0,-179.01,-67.918,8.5813,31.029
22098.0,-181.01,-69.918,15.581,35.029
22108.0,-185.01,-69.918,23.581,39.029
22118.0,-189.01,-70.918,31.581,43.029
22128.0,-190.01,-71.918,34.581,46.029
22138.0,-192.01,-70.918,37.581,48.029
22147.0,-195.01,-71.918,42.581,50.029
22157.0,-198.01,-73.918,42.581,53.029
22167.0,-198.01,-73.918,45.581,54.029
22177.0,-202.01,-74.918,45.581,54.029
22187.0,-202.01,-74.918,44.581,57.029
22197.0,-205.01,-74.918,44.581,57.029
22207.0,-205.01,-75.918,44.581,58.029
22217.0,-207.01,-75.918,44.581,58.029
22226.0,-210.01,-77.918,41.581,59.029
22236.0,-214.01,-77.918,41.581,59.029
22246.0,-216.01,-78.918,38.581,58.029
22256.0,-220.01,-79.918,38.581,58.029
22266.0,-224.01,-81.918,34.581,58.029
22276.0,-229.01,-82.918,34.581,58.029
22286.0,-235.01,-84.918,32.581,60.029
22296.0,-240.01,-86.918,32.581,60.029
22306.0,-243.01,-87.918,32.581,61.029
22315.0,-248.01,-89.918,32.581,61.029
22325.0,-252.01,-90.918,32.581,62.029
22335.0,-255.01,-91.918,32.581,62.029
22345.0,-258.01,-91.918,31.581,63.029
22355.0,-259.01,-92.918,31.581,63.029
22365.0,-262.01,-93.918,29.581,64.029
22375.0,-265.01,-93.918,29.581,64.029
22385.0,-268.01,-94.918,26.581,63.029
22395.0,-272.01,-95.918,27.581,64.029
22404.0,-275.01,-94.918,23.581,65.029
22414.0,-274.01,-94.918,25.581,64.029
22424.0,-280.01,-95.918,22.581,64.029
22434.0,-282.01,-94.918,21.581,65.029
22444.0,-290.01,-98.918,22.581,66.029
22454.0,-298.01,-102.92,20.581,66.029
22464.0,-305.01,-106.92,19.581,66.029
22474.0,-308.01,-109.92,19.581,66.029
22484.0,-306.01,-109.92,16.581,66.029
22493.0,-302.01,-109.92,14.581,65.029
22503.0,-297.01,-111.92,10.581,64.029
22513.0,-291.01,-111.92,8.5813,63.029
22523.0,-279.01,-106.92,6.5813,60.029
22533.0,-267.01,-102.92,7.5813,57.029
22543.0,-258.01,-98.918,10.581,55.029
22553.0,-254.01,-96.918,16.581,55.029
22563.0,-247.01,-95.918,21.581,57.029
22572.0,-249.01,-95.918,27.581,58.029
22582.0,-247.01,-94.918,36.581,61.029
22592.0,-247.01,-94.918,44.581,62.029
22602.0,-245.01,-94.918,53.581,65.029
22612.0,-240.01,-91.918,62.581,69.029
22622.0,-239.01,-91.918,71.581,70.029
22632.0,-239.01,-91.918,79.581,75.029
22642.0,-235.01,-88.918,88.581,78.029
22652.0,-235.01,-88.918,97.581,81.029
22661.0,-237.01,-89.918,105.58,83.029
22671.0,-237.01,-89.918,113.58,89.029
22681.0,-240.01,-89.918,120.58,92.029
22691.0,-240.01,-89.918,125.58,95.029
22701.0,-241.01,-91.918,129.58,98.029
22711.0,-241.01,-91.918,132.58,100.03
22721.0,-242.01,-90.918,133.58,101.03
22731.0,-242.01,-90.918,134.58,102.03
22741.0,-239.01,-88.918,134.58,104.03
22750.0,-239.01,-88.918,136.58,104.03
22760.0,-237.01,-84.918,134.58,105.03
22770.0,-237.01,-84.918,133.58,105.03
22780.0,-237.01,-84.918,132.58,104.03
22790.0,-238.01,-85.918,128.58,103.03
22800.0,-238.01,-83.918,125.58,104.03
22810.0,-238.01,-83.918,126.58,104.03
22820.0,-240.01,-83.918,122.58,103.03
22830.0,-242.01,-84.918,122.58,102.03
22839.0,-243.01,-84.918,117.58,102.03
22849.0,-244.01,-83.918,115.58,100.03
22859.0,-247.01,-83.918,112.58,101.03
22869.0,-249.01,-84.918,112.58,101.03
22879.0,-251.01,-83.918,110.58,100.03
22889.0,-252.01,-83.918,109.58,100.03
22899.0,-253.01,-84.918,107.58,99.029
22909.0,-256.01,-84.918,104.58,97.029
22918.0,-256.01,-85.918,101.58,98.029
22928.0,-257.01,-84.918,99.581,97.029
22938.0,-257.01,-82.918,97.581,96.029
22948.0,-257.01,-81.918,93.581,95.029
22958.0,-259.01,-80.918,92.581,95.029
22968.0,-258.01,-79.918,91.581,95.029
22978.0,-257.01,-78.918,88.581,94.029
22988.0,-259.01,-76.918,85.581,93.029
22998.0,-265.01,-79.918,82.581,92.029
23007.0,-273.01,-85.918,80.581,91.029
23017.0,-281.01,-88.918,78.581,91.029
23027.0,-286.01,-93.918,73.581,91.029
23037.0,-283.01,-93.918,69.581,88.029
23047.0,-277.01,-92.918,67.581,86.029
23057.0,-271.01,-92.918,61.581,84.029
23067.0,-263.01,-91.918,56.581,80.029
23077.0,-248.01,-86.918,55.581,76.029
23087.0,-236.01,-81.918,58.581,76.029
23096.0,-227.01,-76.918,61.581,74.029
23106.0,-218.01,-74.918,64.581,74.029
23116.0,-213.01,-71.918,72.581,74.029
23126.0,-207.01,-68.918,77.581,76.029
23136.0,-204.01,-68.918,84.581,76.029
23146.0,-199.01,-65.918,93.581,79.029
23156.0,-193.01,-63.918,99.581,81.029
23166.0,-186.01,-59.918,107.58,84.029
23176.0,-182.01,-58.918,115.58,87.029
23185.0,-179.01,-55.918,121.58,89.029
23195.0,-173.01,-51.918,128.58,92.029
23205.0,-170.01,-50.918,137.58,95.029
23215.0,-169.01,-51.918,143.58,98.029
23225.0,-167.01,-48.918,146.58,101.03
23235.0,-166.01,-46.918,149.58,102.03
23245.0,-163.01,-45.918,149.58,102.03
23255.0,-163.01,-43.918,154.58,106.03
23264.0,-160.01,-43.918,154.58,106.03
23274.0,-160.01,-41.918,155.58,106.03
23284.0,-157.01,-39.918,155.58,106.03
23294.0,-154.01,-37.918,151.58,108.03
23304.0,-153.01,-37.918,151.58,108.03
23314.0,-153.01,-35.918,146.58,106.03
23324.0,-150.01,-34.918,146.58,106.03
23334.0,-147.01,-30.918,140.58,105.03
23344.0,-147.01,-30.918,140.58,105.03
23353.0,-142.01,-27.918,135.58,102.03
23363.0,-142.01,-27.918,135.58,102.03
23373.0,-140.01,-25.918,130.58,101.03
23383.0,-140.01,-25.918,130.58,101.03
23393.0,-142.01,-22.918,124.58,99.029
23403.0,-142.01,-22.918,124.58,99.029
23413.0,-142.01,-21.918,118.58,99.029
23423.0,-142.01,-21.918,118.58,99.029
23433.0,-142.01,-20.918,113.58,96.029
23442.0,-142.01,-20.918,113.58,96.029
23452.0,-144.01,-19.918,111.58,95.029
23462.0,-144.01,-19.918,108.58,93.029
23472.0,-145.01,-19.918,104.58,92.029
23482.0,-145.01,-19.918,100.58,91.029
23492.0,-147.01,-19.918,98.581,89.029
23502.0,-148.01,-18.918,93.581,88.029
23512.0,-149.01,-17.918,90.581,88.029
23522.0,-150.01,-18.918,87.581,87.029
23531.0,-151.01,-17.918,87.581,87.029
23541.0,-154.01,-20.918,83.581,86.029
23551.0,-164.01,-25.918,79.581,85.029
23561.0,-173.01,-30.918,75.581,83.029
23571.0,-184.01,-38.918,73.581,84.029
23581.0,-181.01,-37.918,66.581,84.029
23591.0,-174.01,-37.918,65.581,83.029
23601.0,-171.01,-36.918,58.581,81.029
23610.0,-162.01,-38.918,54.581,76.029
23620.0,-154.01,-34.918,51.581,73.029
23630.0,-138.01,-29.918,52.581,70.029
23640.0,-126.01,-23.918,54.581,69.029
23650.0,-119.01,-21.918,59.581,67.029
23660.0,-111.01,-18.918,62.581,68.029
23670.0,-106.01,-16.918,65.581,68.029
23680.0,-102.01,-16.918,72.581,70.029
23690.0,-100.01,-14.918,81.581,71.029
23699.0,-94.008,-12.918,86.581,73.029
23709.0,-90.008,-12.918,93.581,74.029
23719.0,-87.008,-11.918,99.581,77.029
23729.0,-84.008,-9.9175,108.58,80.029
23739.0,-78.008,-6.9175,116.58,82.029
23749.0,-75.008,-4.9175,121.58,85.029
23759.0,-72.008,-2.9175,128.58,87.029
23769.0,-73.008,-1.9175,135.58,89.029
23779.0,-71.008,-0.91755,138.58,91.029
23788.0,-71.008,0.082455,142.58,92.029
23798.0,-70.008,-1.9175,143.58,95.029
23808.0,-69.008,1.0825,142.58,95.029
23818.0,-68.008,0.082455,142.58,96.029
23828.0,-69.008,0.082455,141.58,97.029
23838.0,-67.008,1.0825,139.58,95.029
23848.0,-66.008,3.0825,137.58,96.029
23858.0,-66.008,5.0825,134.58,95.029
23868.0,-64.008,5.0825,131.58,94.029
23877.0,-62.008,8.0825,127.58,91.029
23887.0,-63.008,7.0825,125.58,92.029
23897.0,-63.008,8.0825,118.58,91.029
23907.0,-63.008,8.0825,115.58,88.029
23917.0,-66.008,8.0825,114.58,87.029
23927.0,-67.008,7.0825,109.58,85.029
23937.0,-68.008,7.0825,103.58,85.029
23947.0,-69.008,7.0825,100.58,83.029
23956.0,-71.008,7.0825,97.581,81.029
23966.0,-72.008,6.0825,92.581,81.029
23976.0,-73.008,7.0825,89.581,78.029
23986.0,-77.008,7.0825,85.581,77.029
23996.0,-77.008,8.0825,83.581,76.029
24006.0,-77.008,7.0825,79.581,75.029
24016.0,-79.008,7.0825,75.581,72.029
24026.0,-79.008,9.0825,72.581,72.029
24036.0,-81.008,8.0825,67.581,70.029
24045.0,-82.008,8.0825,65.581,69.029
24055.0,-82.008,8.0825,61.581,68.029
24065.0,-86.008,9.0825,58.581,68.029
24075.0,-86.008,9.0825,54.581,67.029
24085.0,-98.008,2.0825,50.581,65.029
24095.0,-98.008,2.0825,43.581,63.029
24105.0,-112.01,-7.9175,38.581,63.029
24115.0,-112.01,-7.9175,35.581,63.029
24125.0,-99.008,-3.9175,29.581,61.029
24134.0,-99.008,-3.9175,25.581,59.029
24144.0,-81.008,-0.91755,20.581,56.029
24154.0,-81.008,-0.91755,19.581,52.029
24164.0,-58.008,7.0825,19.581,50.029
24174.0,-58.008,7.0825,20.581,48.029
24184.0,-42.008,15.082,26.581,48.029
24194.0,-42.008,15.082,31.581,50.029
24204.0,-33.008,16.082,37.581,49.029
24214.0,-28.008,17.082,43.581,51.029
24223.0,-28.008,17.082,50.581,52.029
24233.0,-23.008,18.082,61.581,55.029
24243.0,-18.008,21.082,69.581,56.029
24253.0,-12.008,22.082,69.581,56.029
24263.0,-5.0077,25.082,85.581,61.029
24273.0,-3.0077,25.082,85.581,61.029
24283.0,3.9923,29.082,97.581,65.029
24293.0,5.9923,32.082,97.581,65.029
24302.0,10.992,33.082,107.58,68.029
24312.0,11.992,34.082,107.58,68.029
24322.0,10.992,35.082,113.58,72.029
24332.0,11.992,35.082,113.58,72.029
24342.0,14.992,37.082,114.58,74.029
24352.0,14.992,38.082,114.58,74.029
24362.0,13.992,37.082,111.58,74.029
24372.0,16.992,39.082,111.58,74.029
24382.0,19.992,41.082,108.58,73.029
24391.0,18.992,42.082,108.58,73.029
24401.0,23.992,44.082,104.58,72.029
24411.0,25.992,45.082,104.58,72.029
24421.0,26.992,47.082,98.581,69.029
24431.0,27.992,47.082,98.581,69.029
24441.0,28.992,48.082,95.581,68.029
24451.0,29.992,49.082,95.581,68.029
24461.0,26.992,49.082,90.581,66.029
24471.0,26.992,51.082,87.581,64.029
24480.0,25.992,50.082,82.581,63.029
24490.0,25.992,48.082,79.581,62.029
24500.0,24.992,50.082,77.581,60.029
24510.0,25.992,50.082,74.581,58.029
24520.0,22.992,52.082,69.581,58.029
24530.0,22.992,52.082,67.581,56.029
24540.0,22.992,53.082,63.581,55.029
24550.0,22.992,53.082,60.581,54.029
24560.0,21.992,53.082,58.581,55.029
24569.0,21.992,54.082,55.581,53.029
24579.0,21.992,56.082,52.581,53.029
24589.0,19.992,55.082,50.581,52.029
24599.0,16.992,54.082,45.581,53.029
24609.0,16.992,56.082,41.581,52.029
24619.0,12.992,53.082,37.581,51.029
24629.0,4.9923,48.082,33.581,52.029
24639.0,-4.0077,42.082,29.581,50.029
24648.0,-6.0077,41.082,27.581,50.029
24658.0,-0.0077116,42.082,22.581,51.029
24668.0,6.9923,42.082,17.581,51.029
24678.0,14.992,44.082,14.581,48.029
24688.0,24.992,45.082,10.581,45.029
24698.0,36.992,49.082,8.5813,43.029
24708.0,45.992,54.082,10.581,42.029
24718.0,53.992,57.082,16.581,41.029
24728.0,61.992,59.082,21.581,43.029
24737.0,64.992,60.082,29.581,44.029
24747.0,70.992,62.082,35.581,43.029
24757.0,72.992,61.082,40.581,44.029
24767.0,77.992,63.082,47.581,47.029
24777.0,82.992,65.082,55.581,47.029
24787.0,82.992,65.082,61.581,49.029
24797.0,91.992,69.082,70.581,53.029
24807.0,91.992,69.082,76.581,54.029
24817.0,97.992,72.082,82.581,55.029
24826.0,97.992,72.082,88.581,58.029
24836.0,99.992,74.082,93.581,59.029
24846.0,99.992,74.082,98.581,60.029
24856.0,97.992,73.082,101.58,62.029
24866.0,97.992,73.082,103.58,62.029
24876.0,98.992,73.082,103.58,64.029
24886.0,98.992,73.082,101.58,64.029
24896.0,96.992,72.082,103.58,63.029
24906.0,96.992,72.082,100.58,63.029
24915.0,98.992,73.082,98.581,64.029
24925.0,98.992,73.082,94.581,61.029
24935.0,99.992,73.082,91.581,60.029
24945.0,98.992,73.082,89.581,59.029
24955.0,98.992,75.082,84.581,58.029
24965.0,96.992,74.082,83.581,58.029
24975.0,96.992,75.082,80.581,56.029
24985.0,95.992,77.082,78.581,55.029
24994.0,93.992,73.082,74.581,54.029
25004.0,92.992,74.082,73.581,53.029
25014.0,88.992,73.082,69.581,52.029
25024.0,86.992,72.082,66.581,50.029
25034.0,83.992,70.082,63.581,49.029
25044.0,82.992,72.082,58.581,46.029
25054.0,79.992,69.082,55.581,43.029
25064.0,78.992,70.082,49.581,40.029
25074.0,76.992,70.082,48.581,38.029
25083.0,76.992,70.082,40.581,35.029
25093.0,75.992,70.082,36.581,32.029
25103.0,72.992,70.082,34.581,31.029
25113.0,69.992,69.082,28.581,28.029
25123.0,66.992,66.082,22.581,27.029
25133.0,65.992,66.082,19.581,24.029
25143.0,62.992,65.082,14.581,23.029
25153.0,61.992,66.082,10.581,21.029
25163.0,60.992,67.082,8.5813,21.029
25172.0,52.992,64.082,5.5813,21.029
25182.0,45.992,59.082,0.58127,21.029
25192.0,40.992,56.082,-5.4187,20.029
25202.0,39.992,54.082,-7.4187,21.029
25212.0,42.992,55.082,-12.419,21.029
25222.0,50.992,53.082,-18.419,19.029
25232.0,57.992,55.082,-21.419,16.029
25242.0,65.992,56.082,-24.419,14.029
25251.0,72.992,59.082,-22.419,13.029
25261.0,82.992,63.082,-21.419,13.029
25271.0,91.992,67.082,-17.419,14.029
25281.0,96.992,70.082,-13.419,14.029
25291.0,103.99,71.082,-9.4187,15.029
25301.0,108.99,72.082,-4.4187,16.029
25311.0,109.99,72.082,0.58127,18.029
25321.0,114.99,74.082,0.58127,18.029
25331.0,120.99,77.082,13.581,22.029
25340.0,124.99,80.082,13.581,22.029
25350.0,131.99,81.082,28.581,27.029
25360.0,134.99,82.082,28.581,27.029
25370.0,132.99,81.082,39.581,32.029
25380.0,134.99,83.082,39.581,32.029
25390.0,137.99,85.082,46.581,35.029
25400.0,139.99,85.082,46.581,35.029
25410.0,139.99,87.082,48.581,37.029
25420.0,140.99,88.082,48.581,37.029
25429.0,139.99,87.082,45.581,37.029
25439.0,142.99,89.082,45.581,37.029
25449.0,142.99,88.082,44.581,38.029
25459.0,144.99,91.082,44.581,38.029
25469.0,145.99,90.082,38.581,36.029
25479.0,149.99,92.082,38.581,36.029
25489.0,147.99,92.082,31.581,34.029
25499.0,147.99,92.082,31.581,34.029
25509.0,150.99,93.082,27.581,31.029
25518.0,150.99,93.082,27.581,31.029
25528.0,151.99,93.082,24.581,30.029
25538.0,151.99,93.082,22.581,29.029
25548.0,151.99,96.082,19.581,28.029
25558.0,151.99,96.082,15.581,27.029
25568.0,150.99,95.082,13.581,25.029
25578.0,150.99,95.082,9.5813,23.029
25588.0,148.99,95.082,6.5813,21.029
25597.0,148.99,95.082,4.5813,19.029
25607.0,145.99,93.082,2.5813,19.029
25617.0,145.99,93.082,-0.41873,15.029
25627.0,146.99,95.082,-2.4187,15.029
25637.0,145.99,92.082,-3.4187,13.029
25647.0,143.99,95.082,-6.4187,11.029
25657.0,143.99,93.082,-9.4187,9.0289
25667.0,141.99,93.082,-11.419,6.0289
25677.0,141.99,94.082,-13.419,4.0289
25686.0,140.99,94.082,-17.419,2.0289
25696.0,140.99,95.082,-20.419,2.0289
25706.0,139.99,95.082,-22.419,-1.9711
25716.0,142.99,96.082,-25.419,-3.9711
25726.0,137.99,94.082,-28.419,-5.9711
25736.0,131.99,90.082,-31.419,-5.9711
25746.0,123.99,84.082,-35.419,-8.9711
25756.0,119.99,81.082,-39.419,-8.9711
25766.0,118.99,78.082,-42.419,-10.971
25775.0,120.99,77.082,-43.419,-11.971
25785.0,128.99,78.082,-49.419,-12.971
25795.0,133.99,78.082,-52.419,-15.971
25805.0,142.99,77.082,-52.419,-15.971
25815.0,153.99,82.082,-51.419,-16.971
25825.0,161.99,84.082,-47.419,-15.971
25835.0,169.99,89.082,-39.419,-12.971
25845.0,176.99,91.082,-34.419,-10.971
25855.0,181.99,92.082,-28.419,-7.9711
25864.0,183.99,93.082,-22.419,-3.9711
25874.0,188.99,94.082,-17.419,-0.97113
25884.0,191.99,96.082,-11.419,1.0289
25894.0,198.99,99.082,-3.4187,5.0289
25904.0,202.99,100.08,2.5813,9.0289
25914.0,205.99,101.08,9.5813,11.029
25924.0,207.99,102.08,14.581,16.029
25934.0,207.99,103.08,19.581,18.029
25943.0,208.99,104.08,22.581,23.029
25953.0,208.99,106.08,27.581,23.029
25963.0,209.99,106.08,31.581,26.029
25973.0,210.99,108.08,30.581,28.029
25983.0,211.99,108.08,32.581,29.029
25993.0,212.99,110.08,30.581,29.029
26003.0,213.99,112.08,28.581,30.029
26013.0,215.99,112.08,25.581,29.029
26023.0,213.99,112.08,23.581,28.029
26032.0,209.99,112.08,20.581,28.029
26042.0,204.99,109.08,16.581,27.029
26052.0,199.99,107.08,15.581,26.029
26062.0,191.99,103.08,11.581,26.029
26072.0,183.99,99.082,9.5813,25.029
26082.0,176.99,94.082,7.5813,23.029
26092.0,169.99,92.082,4.5813,22.029
26102.0,162.99,87.082,3.5813,23.029
26112.0,154.99,86.082,0.58127,23.029
26121.0,150.99,83.082,-0.41873,22.029
26131.0,146.99,81.082,-0.41873,21.029
26141.0,139.99,81.082,-3.4187,19.029
26151.0,132.99,78.082,-5.4187,18.029
26161.0,125.99,75.082,-6.4187,15.029
26171.0,117.99,73.082,-8.4187,14.029
26181.0,111.99,70.082,-10.419,12.029
26191.0,105.99,65.082,-13.419,11.029
26201.0,97.992,63.082,-17.419,8.0289
26210.0,97.992,63.082,-20.419,4.0289
26220.0,82.992,56.082,-22.419,3.0289
26230.0,82.992,56.082,-26.419,2.0289
26240.0,67.992,51.082,-29.419,0.028869
26250.0,67.992,51.082,-33.419,-0.97113
26260.0,52.992,43.082,-37.419,-1.9711
26270.0,52.992,43.082,-42.419,-2.9711
26280.0,36.992,37.082,-45.419,-3.9711
26289.0,36.992,37.082,-49.419,-4.9711
26299.0,11.992,22.082,-56.419,-5.9711
26309.0,11.992,22.082,-57.419,-7.9711
26319.0,-7.0077,12.082,-61.419,-7.9711
26329.0,-7.0077,12.082,-63.419,-6.9711
26339.0,-6.0077,6.0825,-69.419,-8.9711
26349.0,-6.0077,6.0825,-69.419,-8.9711
26359.0,-4.0077,4.0825,-74.419,-13.971
26369.0,-2.0077,1.0825,-74.419,-13.971
26378.0,2.9923,2.0825,-73.419,-16.971
26388.0,6.9923,3.0825,-73.419,-16.971
26398.0,8.9923,5.0825,-59.419,-17.971
26408.0,11.992,5.0825,-59.419,-17.971
26418.0,11.992,5.0825,-50.419,-17.971
26428.0,8.9923,3.0825,-50.419,-17.971
26438.0,5.9923,1.0825,-41.419,-16.971
26448.0,0.99229,-0.91755,-41.419,-16.971
26458.0,0.99229,-1.9175,-27.419,-13.971
26467.0,-0.0077116,-1.9175,-27.419,-13.971
26477.0,3.9923,0.082455,-15.419,-10.971
26487.0,-2.0077,-1.9175,-15.419,-10.971
26497.0,-7.0077,-3.9175,-5.4187,-7.9711
26507.0,-10.008,-4.9175,-5.4187,-7.9711
26517.0,-14.008,-6.9175,4.5813,-3.9711
26527.0,-16.008,-6.9175,4.5813,-3.9711
26537.0,-18.008,-7.9175,5.5813,-3.9711
26547.0,-21.008,-7.9175,5.5813,-3.9711
26556.0,-24.008,-8.9175,6.5813,-2.9711
26566.0,-25.008,-11.918,7.5813,-0.97113
26576.0,-28.008,-11.918,7.5813,-0.97113
26586.0,-30.008,-11.918,5.5813,-2.9711
26596.0,-32.008,-11.918,1.5813,-3.9711
26606.0,-33.008,-11.918,1.5813,-2.9711
26616.0,-35.008,-9.9175,-0.41873,-4.9711
26626.0,-36.008,-11.918,-2.4187,-6.9711
26635.0,-38.008,-10.918,-3.4187,-5.9711
26645.0,-41.008,-11.918,-5.4187,-4.9711
26655.0,-44.008,-10.918,-6.4187,-4.9711
26665.0,-47.008,-12.918,-9.4187,-6.9711
26675.0,-48.008,-12.918,-10.419,-7.9711
26685.0,-54.008,-14.918,-12.419,-7.9711
26695.0,-57.008,-15.918,-13.419,-8.9711
26705.0,-64.008,-17.918,-16.419,-8.9711
26715.0,-68.008,-19.918,-17.419,-8.9711
26724.0,-74.008,-20.918,-18.419,-8.9711
26734.0,-78.008,-23.918,-19.419,-9.9711
26744.0,-83.008,-25.918,-19.419,-9.9711
26754.0,-86.008,-26.918,-23.419,-10.971
26764.0,-92.008,-27.918,-23.419,-11.971
26774.0,-97.008,-30.918,-26.419,-13.971
26784.0,-100.01,-32.918,-27.419,-13.971
26794.0,-104.01,-33.918,-32.419,-16.971
26804.0,-111.01,-35.918,-32.419,-15.971
26813.0,-115.01,-36.918,-36.419,-16.971
26823.0,-120.01,-37.918,-38.419,-16.971
26833.0,-125.01,-40.918,-39.419,-17.971
26843.0,-133.01,-42.918,-41.419,-15.971
26853.0,-142.01,-47.918,-41.419,-16.971
26863.0,-150.01,-52.918,-41.419,-16.971
26873.0,-157.01,-56.918,-44.419,-15.971
26883.0,-157.01,-58.918,-44.419,-15.971
26893.0,-153.01,-57.918,-45.419,-14.971
26902.0,-150.01,-59.918,-48.419,-15.971
26912.0,-144.01,-60.918,-53.419,-18.971
26922.0,-144.01,-60.918,-53.419,-21.971
26932.0,-131.01,-55.918,-52.419,-23.971
26942.0,-131.01,-55.918,-47.419,-22.971
26952.0,-126.01,-54.918,-42.419,-20.971
26962.0,-126.01,-54.918,-36.419,-20.971
26972.0,-127.01,-55.918,-28.419,-19.971
26981.0,-127.01,-55.918,-23.419,-16.971
26991.0,-132.01,-55.918,-15.419,-13.971
27001.0,-132.01,-55.918,-7.4187,-12.971
27011.0,-133.01,-57.918,-1.4187,-7.9711
27021.0,-133.01,-57.918,6.5813,-4.9711
27031.0,-135.01,-56.918,13.581,-1.9711
27041.0,-135.01,-56.918,20.581,1.0289
27051.0,-142.01,-59.918,27.581,6.0289
27061.0,-142.01,-59.918,32.581,9.0289
27070.0,-146.01,-60.918,38.581,14.029
27080.0,-150.01,-63.918,43.581,18.029
27090.0,-151.01,-63.918,47.581,19.029
27100.0,-157.01,-66.918,49.581,23.029
27110.0,-159.01,-69.918,50.581,26.029
27120.0,-160.01,-68.918,51.581,28.029
27130.0,-163.01,-70.918,52.581,30.029
27140.0,-164.01,-71.918,52.581,32.029
27150.0,-167.01,-71.918,52.581,34.029
27159.0,-169.01,-72.918,52.581,36.029
27169.0,-172.01,-74.918,52.581,38.029
27179.0,-174.01,-74.918,49.581,39.029
27189.0,-179.01,-76.918,49.581,38.029
27199.0,-181.01,-77.918,49.581,41.029
27209.0,-184.01,-77.918,50.581,41.029
27219.0,-188.01,-79.918,48.581,42.029
27229.0,-191.01,-79.918,47.581,43.029
27239.0,-194.01,-80.918,45.581,44.029
27248.0,-198.01,-81.918,44.581,45.029
27258.0,-201.01,-83.918,43.581,47.029
27268.0,-204.01,-84.918,42.581,48.029
27278.0,-208.01,-86.918,43.581,48.029
27288.0,-211.01,-86.918,41.581,50.029
27298.0,-216.01,-87.918,40.581,51.029
27308.0,-218.01,-88.918,39.581,52.029
27318.0,-222.01,-90.918,37.581,52.029
27327.0,-224.01,-90.918,38.581,54.029
27337.0,-228.01,-90.918,36.581,55.029
27347.0,-230.01,-89.918,33.581,55.029
27357.0,-235.01,-92.918,33.581,57.029
27367.0,-239.01,-93.918,31.581,57.029
27377.0,-240.01,-94.918,30.581,60.029
27387.0,-251.01,-97.918,32.581,60.029
27397.0,-259.01,-103.92,31.581,61.029
27407.0,-266.01,-106.92,30.581,63.029
27416.0,-271.01,-109.92,30.581,63.029
27426.0,-270.01,-111.92,28.581,66.029
27436.0,-267.01,-111.92,28.581,66.029
27446.0,-262.01,-113.92,23.581,64.029
27456.0,-255.01,-110.92,23.581,64.029
27466.0,-244.01,-107.92,24.581,58.029
27476.0,-235.01,-104.92,24.581,58.029
27486.0,-229.01,-104.92,34.581,59.029
27496.0,-225.01,-101.92,34.581,59.029
27505.0,-220.01,-101.92,51.581,64.029
27515.0,-220.01,-99.918,51.581,64.029
27525.0,-219.01,-99.918,66.581,67.029
27535.0,-218.01,-99.918,66.581,67.029
27545.0,-216.01,-99.918,85.581,73.029
27555.0,-216.01,-98.918,85.581,73.029
27565.0,-213.01,-95.918,102.58,78.029
27575.0,-210.01,-95.918,102.58,78.029
27585.0,-211.01,-96.918,118.58,86.029
27594.0,-214.01,-97.918,118.58,86.029
27604.0,-215.01,-97.918,129.58,92.029
27614.0,-215.01,-97.918,129.58,92.029
27624.0,-217.01,-97.918,136.58,94.029
27634.0,-217.01,-97.918,141.58,98.029
27644.0,-221.01,-98.918,144.58,102.03
27654.0,-221.01,-98.918,150.58,102.03
27664.0,-222.01,-98.918,152.58,106.03
27673.0,-222.01,-98.918,154.58,106.03
27683.0,-222.01,-97.918,155.58,108.03
27693.0,-222.01,-97.918,158.58,110.03
27703.0,-225.01,-99.918,157.58,110.03
27713.0,-225.01,-99.918,156.58,111.03
27723.0,-227.01,-98.918,154.58,111.03
27733.0,-227.01,-98.918,154.58,113.03
27743.0,-232.01,-100.92,155.58,113.03
27753.0,-232.01,-100.92,153.58,113.03
27762.0,-238.01,-102.92,152.58,114.03
27772.0,-238.01,-102.92,152.58,113.03
27782.0,-239.01,-101.92,152.58,113.03
27792.0,-244.01,-104.92,150.58,114.03
27802.0,-246.01,-104.92,149.58,114.03
27812.0,-248.01,-106.92,149.58,115.03
27822.0,-251.01,-105.92,148.58,115.03
27832.0,-253.01,-106.92,146.58,116.03
27842.0,-255.01,-107.92,148.58,116.03
27851.0,-257.01,-107.92,146.58,116.03
27861.0,-259.01,-107.92,147.58,115.03
27871.0,-261.01,-106.92,146.58,118.03
27881.0,-264.01,-106.92,145.58,118.03
27891.0,-267.01,-107.92,146.58,118.03
27901.0,-269.01,-107.92,147.58,119.03
27911.0,-272.01,-106.92,147.58,121.03
27921.0,-277.01,-108.92,148.58,121.03
27931.0,-283.01,-112.92,147.58,122.03
27940.0,-287.01,-114.92,149.58,123.03
27950.0,-292.01,-116.92,147.58,125.03
27960.0,-287.01,-114.92,147.58,125.03
27970.0,-280.01,-113.92,146.58,124.03
27980.0,-274.01,-114.92,143.58,124.03
27990.0,-264.01,-110.92,140.58,120.03
28000.0,-252.01,-107.92,141.58,116.03
28010.0,-242.01,-104.92,143.58,116.03
28019.0,-232.01,-101.92,148.58,116.03
28029.0,-230.01,-100.92,157.58,117.03
28039.0,-225.01,-98.918,162.58,117.03
28049.0,-222.01,-97.918,168.58,119.03
28059.0,-220.01,-96.918,176.58,121.03
28069.0,-216.01,-96.918,186.58,124.03
28079.0,-213.01,-93.918,193.58,126.03
28089.0,-209.01,-93.918,204.58,128.03
28099.0,-206.01,-91.918,213.58,133.03
28108.0,-204.01,-92.918,222.58,136.03
28118.0,-201.01,-90.918,230.58,96.029
28128.0,-199.01,-90.918,238.58,101.03
28138.0,-200.01,-91.918,246.58,103.03
28148.0,-202.01,-91.918,254.58,108.03
28158.0,-206.01,-93.918,258.58,110.03
28168.0,-206.01,-93.918,264.58,112.03
28178.0,-209.01,-93.918,267.58,115.03
28188.0,-210.01,-95.918,269.58,117.03
28197.0,-211.01,-94.918,272.58,119.03
28207.0,-208.01,-93.918,274.58,121.03
28217.0,-208.01,-94.918,272.58,122.03
28227.0,-207.01,-94.918,271.58,122.03
28237.0,-209.01,-94.918,272.58,122.03
28247.0,-209.01,-94.918,268.58,124.03
28257.0,-210.01,-94.918,268.58,123.03
28267.0,-209.01,-95.918,264.58,122.03
28277.0,-210.01,-92.918,262.58,121.03
28286.0,-212.01,-92.918,259.58,122.03
28296.0,-211.01,-94.918,257.58,120.03
28306.0,-211.01,-92.918,255.58,122.03
28316.0,-211.01,-90.918,253.58,121.03
28326.0,-209.01,-88.918,250.58,120.03
28336.0,-208.01,-85.918,247.58,118.03
28346.0,-207.01,-84.918,246.58,119.03
28356.0,-205.01,-83.918,242.58,118.03
28365.0,-205.01,-83.918,240.58,116.03
28375.0,-206.01,-80.918,237.58,117.03
28385.0,-206.01,-80.918,236.58,115.03
28395.0,-206.01,-80.918,233.58,115.03
28405.0,-206.01,-80.918,229.58,112.03
28415.0,-204.01,-75.918,226.58,112.03
28425.0,-204.01,-75.918,226.58,112.03
28435.0,-204.01,-72.918,224.58,110.03
28445.0,-204.01,-72.918,224.58,110.03
28454.0,-218.01,-81.918,218.58,108.03
28464.0,-218.01,-81.918,218.58,108.03
28474.0,-233.01,-91.918,212.58,107.03
28484.0,-233.01,-91.918,212.58,107.03
28494.0,-226.01,-88.918,204.58,104.03
28504.0,-219.01,-87.918,204.58,104.03
28514.0,-211.01,-89.918,197.58,98.029
28524.0,-206.01,-87.918,197.58,98.029
28534.0,-193.01,-84.918,200.58,93.029
28543.0,-183.01,-80.918,200.58,93.029
28553.0,-172.01,-76.918,207.58,91.029
28563.0,-166.01,-74.918,207.58,91.029
28573.0,-159.01,-72.918,216.58,91.029
28583.0,-152.01,-70.918,216.58,91.029
28593.0,-146.01,-69.918,234.58,94.029
28603.0,-140.01,-65.918,234.58,94.029
28613.0,-134.01,-63.918,249.58,98.029
28623.0,-128.01,-61.918,249.58,98.029
28632.0,-123.01,-60.918,257.58,100.03
28642.0,-117.01,-58.918,267.58,103.03
28652.0,-112.01,-54.918,273.58,107.03
28662.0,-107.01,-50.918,280.58,107.03
28672.0,-104.01,-52.918,287.58,110.03
28682.0,-103.01,-48.918,293.58,113.03
28692.0,-102.01,-47.918,296.58,114.03
28702.0,-101.01,-45.918,298.58,116.03
28711.0,-100.01,-45.918,301.58,118.03
28721.0,-98.008,-44.918,303.58,120.03
28731.0,-97.008,-44.918,303.58,119.03
28741.0,-97.008,-43.918,303.58,120.03
28751.0,-95.008,-41.918,301.58,119.03
28761.0,-91.008,-39.918,298.58,120.03
28771.0,-91.008,-38.918,297.58,120.03
28781.0,-91.008,-37.918,295.58,118.03
28791.0,-87.008,-36.918,290.58,118.03
28800.0,-88.008,-35.918,286.58,116.03
28810.0,-89.008,-34.918,281.58,116.03
28820.0,-90.008,-35.918,280.58,114.03
28830.0,-90.008,-34.918,274.58,113.03
28840.0,-90.008,-34.918,270.58,111.03
28850.0,-89.008,-32.918,266.58,109.03
28860.0,-90.008,-32.918,262.58,108.03
28870.0,-92.008,-32.918,260.58,106.03
28880.0,-91.008,-32.918,254.58,106.03
28889.0,-93.008,-32.918,253.58,104.03
28899.0,-93.008,-30.918,250.58,102.03
28909.0,-92.008,-30.918,245.58,100.03
28919.0,-96.008,-31.918,243.58,101.03
28929.0,-98.008,-30.918,238.58,99.029
28939.0,-100.01,-31.918,235.58,99.029
28949.0,-101.01,-30.918,232.58,98.029
28959.0,-101.01,-29.918,229.58,95.029
28969.0,-105.01,-31.918,226.58,95.029
28978.0,-115.01,-37.918,222.58,96.029
28988.0,-122.01,-42.918,219.58,94.029
28998.0,-127.01,-47.918,214.58,93.029
29008.0,-126.01,-46.918,212.58,92.029
29018.0,-119.01,-45.918,208.58,92.029
29028.0,-110.01,-43.918,204.58,90.029
29038.0,-103.01,-43.918,200.58,85.029
29048.0,-91.008,-40.918,196.58,82.029
29057.0,-81.008,-37.918,195.58,77.029
29067.0,-69.008,-31.918,199.58,78.029
29077.0,-69.008,-31.918,204.58,76.029
29087.0,-52.008,-26.918,208.58,77.029
29097.0,-52.008,-26.918,215.58,77.029
29107.0,-40.008,-20.918,221.58,78.029
29117.0,-40.008,-20.918,228.58,79.029
29127.0,-24.008,-15.918,238.58,81.029
29137.0,-24.008,-15.918,246.58,83.029
29146.0,-15.008,-14.918,255.58,86.029
29156.0,-15.008,-14.918,265.58,87.029
29166.0,-9.0077,-11.918,270.58,91.029
29176.0,-9.0077,-11.918,278.58,92.029
29186.0,-0.0077116,-6.9175,285.58,94.029
29196.0,-0.0077116,-6.9175,290.58,96.029
29206.0,0.99229,-6.9175,295.58,98.029
29216.0,0.99229,-6.9175,298.58,101.03
29226.0,0.99229,-5.9175,299.58,103.03
29235.0,4.9923,-3.9175,301.58,103.03
29245.0,2.9923,-2.9175,301.58,103.03
29255.0,1.9923,-4.9175,297.58,102.03
29265.0,0.99229,-3.9175,297.58,103.03
29275.0,-0.0077116,-3.9175,295.58,102.03
29285.0,-0.0077116,-4.9175,292.58,100.03
29295.0,0.99229,-3.9175,286.58,99.029
29305.0,-1.0077,-3.9175,282.58,98.029
29315.0,-0.0077116,-2.9175,278.58,98.029
29324.0,-1.0077,-3.9175,273.58,94.029
29334.0,-2.0077,-5.9175,267.58,93.029
29344.0,-5.0077,-3.9175,263.58,92.029
29354.0,-7.0077,-4.9175,259.58,89.029
29364.0,-11.008,-4.9175,254.58,86.029
29374.0,-10.008,-6.9175,249.58,84.029
29384.0,-14.008,-9.9175,243.58,82.029
29394.0,-19.008,-10.918,237.58,80.029
29403.0,-23.008,-12.918,233.58,77.029
29413.0,-26.008,-12.918,227.58,74.029
29423.0,-29.008,-14.918,224.58,72.029
29433.0,-34.008,-14.918,218.58,71.029
29443.0,-35.008,-16.918,214.58,70.029
29453.0,-35.008,-16.918,214.58,70.029
29463.0,-39.008,-16.918,209.58,69.029
29473.0,-40.008,-16.918,209.58,69.029
29483.0,-46.008,-18.918,205.58,68.029
29492.0,-47.008,-19.918,205.58,68.029
29502.0,-55.008,-22.918,198.58,68.029
29512.0,-64.008,-30.918,198.58,68.029
29522.0,-73.008,-35.918,191.58,67.029
29532.0,-76.008,-38.918,191.58,67.029
29542.0,-71.008,-37.918,184.58,67.029
29552.0,-62.008,-36.918,184.58,67.029
29562.0,-52.008,-36.918,175.58,61.029
29572.0,-46.008,-35.918,175.58,61.029
29581.0,-35.008,-30.918,177.58,57.029
29591.0,-25.008,-28.918,177.58,57.029
29601.0,-15.008,-22.918,188.58,57.029
29611.0,-5.0077,-18.918,188.58,57.029
29621.0,3.9923,-18.918,199.58,58.029
29631.0,10.992,-15.918,199.58,58.029
29641.0,19.992,-11.918,216.58,62.029
29651.0,24.992,-8.9175,216.58,62.029
29661.0,31.992,-5.9175,235.58,67.029
29670.0,38.992,-5.9175,235.58,67.029
29680.0,40.992,-4.9175,254.58,72.029
29690.0,43.992,-4.9175,254.58,72.029
29700.0,48.992,-2.9175,261.58,75.029
29710.0,53.992,-0.91755,271.58,77.029
29720.0,54.992,1.0825,279.58,80.029
29730.0,52.992,1.0825,284.58,82.029
29740.0,52.992,0.082455,287.58,84.029
29749.0,51.992,1.0825,289.58,85.029
29759.0,53.992,3.0825,292.58,86.029
29769.0,52.992,1.0825,293.58,87.029
29779.0,51.992,0.082455,293.58,88.029
29789.0,51.992,0.082455,293.58,88.029
29799.0,49.992,-0.91755,291.58,87.029
29809.0,49.992,-0.91755,288.58,87.029
29819.0,52.992,1.0825,287.58,88.029
29829.0,52.992,1.0825,284.58,85.029
29838.0,52.992,3.0825,280.58,82.029
29848.0,52.992,3.0825,276.58,80.029
29858.0,54.992,3.0825,270.58,80.029
29868.0,54.992,3.0825,264.58,77.029
29878.0,51.992,3.0825,260.58,74.029
29888.0,51.992,3.0825,255.58,73.029
29898.0,47.992,0.082455,253.58,70.029
29908.0,47.992,0.082455,247.58,69.029
29918.0,45.992,0.082455,244.58,67.029
29927.0,45.992,1.0825,239.58,65.029
29937.0,42.992,-0.91755,238.58,63.029
29947.0,42.992,-0.91755,233.58,62.029
29957.0,42.992,0.082455,228.58,59.029
29967.0,40.992,-0.91755,225.58,59.029
29977.0,39.992,-0.91755,219.58,57.029
29987.0,36.992,-0.91755,216.58,56.029
29997.0,35.992,-2.9175,213.58,56.029
