t,lead_I,lead_II,v3,v4
1.6,-17502,-130748,5231,11573
3.6,-17278,-130645,5168,11534
5.6,-17042,-130627,5169,11542
7.6,-16569,-130585,5122,11525
9.6,-16304,-130555,4995,11440
11.6,-16637,-130603,4977,11397
13.6,-17015,-130628,5066,11383
15.6,-16988,-130613,5024,11266
17.6,-17098,-130694,4924,11185
19.6,-17575,-130795,5058,11390
21.6,-17630,-130687,5297,11696
23.6,-17022,-130460,5328,11776
25.6,-16616,-130362,5274,11749
27.6,-16731,-130330,5344,11840
29.6,-16739,-130209,5369,11884
31.6,-16535,-130129,5252,11743
33.6,-16593,-130198,5191,11618
35.6,-16803,-130231,5204,11606
37.6,-16810,-130132,5167,11586
39.6,-16859,-130064,5215,11604
41.6,-17151,-130080,5453,11779
43.6,-17308,-130045,5649,11982
45.6,-17108,-129953,5651,12024
47.6,-16747,-129904,5564,11914
49.6,-16335,-129868,5427,11752
51.6,-15976,-129807,5231,11612
53.6,-15963,-129814,5112,11548
55.6,-16318,-129904,5154,11562
57.6,-16720,-129911,5266,11663
59.6,-17006,-129751,5413,11883
61.6,-17109,-129531,5599,12145
63.6,-16804,-129328,5709,12274
65.6,-16187,-129142,5666,12246
67.6,-15839,-129030,5596,12201
69.6,-16004,-129036,5613,12202
71.6,-16276,-129087,5658,12190
73.6,-16411,-129111,5682,12170
75.6,-16635,-129128,5757,12219
77.6,-16900,-129155,5851,12308
79.6,-16771,-129160,5803,12312
81.6,-16305,-129126,5672,12272
83.6,-16112,-129051,5735,12384
85.6,-16346,-128980,5968,12615
87.6,-16532,-129008,6029,12686
89.6,-16458,-129109,5901,12558
91.6,-16361,-129096,5915,12516
93.6,-16362,-128930,6117,12648
95.6,-16430,-128866,6221,12728
97.6,-16615,-129066,6145,12635
99.6,-16817,-129315,6063,12507
101.6,-16782,-129355,6069,12477
103.6,-16587,-129260,6120,12528
105.6,-16588,-129240,6172,12586
107.6,-16848,-129314,6197,12594
109.6,-17083,-129415,6161,12515
111.6,-17060,-129547,6022,12330
113.6,-16768,-129649,5799,12088
115.6,-16454,-129614,5629,11911
117.6,-16534,-129552,5636,11887
119.6,-17048,-129651,5765,11966
121.6,-17414,-129796,5869,12020
123.6,-17227,-129807,5864,11967
125.6,-16893,-129833,5750,11831
127.6,-16820,-130023,5597,11711
129.6,-16734,-130147,5499,11673
131.6,-16448,-130027,5477,11692
133.6,-16356,-129892,5478,11732
135.6,-16562,-129922,5452,11770
137.6,-16706,-129985,5403,11760
139.6,-16867,-130012,5405,11748
141.6,-17244,-130082,5512,11825
143.6,-17250,-130119,5590,11866
145.6,-16574,-130018,5519,11717
147.6,-16244,-129902,5498,11614
149.6,-16884,-129868,5694,11804
151.6,-17415,-129799,5829,11999
153.6,-17182,-129745,5703,11916
155.6,-17193,-129934,5605,11831
157.6,-17723,-130228,5670,11918
159.6,-17469,-130231,5580,11842
161.6,-16304,-130006,5296,11543
163.6,-15826,-129953,5216,11462
165.6,-16394,-130034,5426,11698
167.6,-16667,-129915,5605,11875
169.6,-16327,-129695,5631,11873
171.6,-16372,-129716,5620,11862
173.6,-16854,-129909,5602,11848
175.6,-16936,-129988,5543,11735
177.6,-16728,-129990,5480,11576
179.6,-16934,-130065,5489,11518
181.6,-17316,-130091,5605,11630
183.6,-17214,-129961,5724,11804
185.6,-16828,-129868,5671,11840
187.6,-16709,-129960,5501,11736
189.6,-16776,-130076,5446,11691
191.6,-16725,-130025,5544,11772
193.6,-16639,-129863,5628,11845
195.6,-16679,-129797,5605,11808
197.6,-16740,-129910,5492,11661
199.6,-16687,-130050,5356,11495
201.6,-16654,-130120,5319,11460
203.6,-16957,-130347,5390,11568
205.6,-17489,-130774,5431,11655
207.6,-17493,-130825,5444,11690
209.6,-16680,-130162,5566,11799
211.6,-16042,-129517,5718,11929
213.6,-16399,-129652,5678,11878
215.6,-17017,-130115,5504,11693
217.6,-16960,-130098,5457,11621
219.6,-16636,-129812,5540,11674
221.6,-16740,-129906,5532,11623
223.6,-17001,-130199,5447,11477
225.6,-16936,-130096,5515,11498
227.6,-16617,-129734,5664,11655
229.6,-16230,-129695,5566,11601
231.6,-15922,-129958,5276,11356
233.6,-16016,-130048,5220,11346
235.6,-16520,-129913,5441,11592
237.6,-16941,-129909,5557,11684
239.6,-17097,-130122,5481,11575
241.6,-17218,-130307,5457,11556
243.6,-17152,-130311,5488,11600
245.6,-16635,-130210,5413,11509
247.6,-16164,-130138,5305,11406
249.6,-16334,-130139,5306,11463
251.6,-16761,-130148,5357,11556
253.6,-16760,-130092,5355,11533
255.6,-16487,-130042,5295,11425
257.6,-16473,-130109,5210,11309
259.6,-16683,-130218,5184,11260
261.6,-16780,-130243,5257,11300
263.6,-16800,-130278,5316,11333
265.6,-16947,-130421,5323,11349
267.6,-17031,-130420,5438,11505
269.6,-16706,-130048,5674,11767
271.6,-16200,-129600,5799,11880
273.6,-16125,-129501,5753,11828
275.6,-16447,-129664,5689,11804
277.6,-16471,-129743,5640,11789
279.6,-16087,-129700,5574,11673
281.6,-15973,-129681,5592,11592
283.6,-16317,-129677,5718,11678
285.6,-16592,-129652,5795,11791
287.6,-16699,-129707,5772,11810
289.6,-16933,-129844,5765,11806
291.6,-17044,-129859,5803,11813
293.6,-16775,-129684,5837,11795
295.6,-16663,-129527,5888,11818
297.6,-16966,-129510,5972,11931
299.6,-17006,-129504,6010,12003
301.6,-16622,-129411,6005,11987
303.63,-16579,-129278,6089,12070
305.65,-16906,-129137,6238,12281
307.68,-16823,-129042,6204,12312
309.7,-16444,-129124,5944,12045
311.7,-16480,-129291,5775,11832
313.7,-16637,-129227,5866,11906
315.7,-16316,-128949,5984,12010
317.7,-16031,-128899,5949,11921
319.7,-16347,-129218,5871,11801
321.7,-16677,-129481,5852,11819
323.7,-16541,-129435,5875,11899
325.7,-16427,-129379,5932,11923
327.7,-16509,-129520,5954,11845
329.7,-16362,-129634,5882,11725
331.7,-16209,-129616,5843,11723
333.7,-16466,-129671,5883,11827
335.7,-16600,-129828,5782,11780
337.7,-16326,-129937,5527,11583
339.7,-16456,-130046,5442,11549
341.7,-17015,-130219,5537,11632
343.7,-16877,-130334,5456,11437
345.7,-16194,-130414,5203,11027
347.7,-16232,-130609,5115,10862
349.7,-16744,-130807,5156,10957
351.7,-16677,-130889,5028,10942
353.7,-16461,-131040,4790,10785
355.7,-16700,-131228,4719,10732
357.7,-16627,-131076,4811,10811
359.7,-16077,-130656,4903,10919
361.7,-16184,-130504,4993,11063
363.7,-16895,-130692,5081,11197
365.7,-16954,-130838,5045,11173
367.7,-16523,-130899,4902,11037
369.7,-16676,-131045,4871,10981
371.7,-17114,-131124,5000,10984
373.7,-17068,-131007,5071,10875
375.7,-16886,-130944,4964,10689
377.7,-16929,-131049,4811,10608
379.7,-16841,-131089,4739,10650
381.7,-16711,-131059,4734,10711
383.7,-16895,-131201,4740,10757
385.7,-16934,-131408,4741,10785
387.7,-16473,-131418,4756,10764
389.7,-16173,-131424,4807,10702
391.7,-16333,-131679,4859,10619
393.7,-16281,-131923,4890,10529
395.7,-15931,-131865,5039,10564
397.7,-15982,-131664,5466,10893
399.7,-16334,-131430,6065,11475
401.7,-16243,-130940,6644,12166
403.7,-15810,-130146,7277,13015
405.7,-15673,-129265,8068,14109
407.7,-15792,-128371,8731,15249
409.7,-15758,-127435,8895,16151
411.7,-15621,-126581,8632,16795
413.7,-15689,-125886,8240,17312
415.7,-15998,-125234,7759,17694
417.7,-16280,-124574,7053,17785
419.7,-16298,-124059,6119,17444
421.7,-16296,-123831,5018,16633
423.7,-16854,-123829,3744,15411
425.7,-18013,-123875,2350,13867
427.7,-19083,-123960,1007,12171
429.7,-19603,-124325,-110,10639
431.7,-19733,-125125,-865,9554
433.7,-19622,-126175,-1150,8920
435.7,-19263,-127139,-932,8600
437.7,-18891,-127845,-325,8554
439.7,-18689,-128386,409,8687
441.7,-18433,-129004,1001,8782
443.7,-18001,-129708,1432,8844
445.7,-17658,-130160,1924,9108
447.7,-17527,-130242,2547,9541
449.7,-17479,-130362,3098,9849
451.7,-17457,-130727,3480,9995
453.7,-17299,-130948,3824,10164
455.7,-16770,-130865,4136,10311
457.7,-16207,-130931,4266,10273
459.7,-16214,-131310,4279,10177
461.7,-16576,-131528,4419,10268
463.7,-16591,-131378,4657,10482
465.7,-16338,-131261,4753,10605
467.7,-16406,-131399,4722,10652
469.7,-16683,-131545,4777,10742
471.7,-16589,-131559,4868,10783
473.7,-16242,-131569,4824,10688
475.7,-16322,-131599,4783,10642
477.7,-16788,-131576,4894,10743
479.7,-16816,-131546,4936,10748
481.7,-16301,-131547,4794,10574
483.7,-16168,-131527,4772,10510
485.7,-16616,-131549,4922,10583
487.7,-16605,-131719,4853,10453
489.7,-15821,-131875,4535,10158
491.7,-15346,-131774,4437,10131
493.7,-15719,-131532,4664,10376
495.7,-16200,-131445,4848,10499
497.7,-16352,-131505,4891,10474
499.7,-16499,-131508,4995,10569
501.7,-16611,-131465,5111,10721
503.7,-16373,-131529,5047,10679
505.7,-16078,-131663,4918,10561
507.7,-16139,-131692,4959,10636
509.7,-16254,-131576,5101,10823
511.7,-16098,-131445,5142,10878
513.7,-16044,-131444,5101,10841
515.7,-16381,-131585,5099,10872
517.7,-16683,-131738,5106,10910
519.7,-16608,-131801,5059,10844
521.7,-16438,-131776,5021,10764
523.7,-16348,-131646,5071,10788
525.7,-16104,-131395,5188,10884
527.7,-15779,-131177,5293,10954
529.7,-15798,-131198,5298,10926
531.7,-16104,-131391,5191,10781
533.7,-16204,-131483,5097,10636
535.7,-16087,-131396,5147,10657
537.7,-16213,-131366,5254,10806
539.7,-16611,-131572,5247,10869
541.7,-16754,-131768,5176,10809
543.7,-16393,-131608,5205,10805
545.7,-15952,-131305,5288,10895
547.7,-15881,-131345,5282,10924
549.7,-16031,-131573,5263,10894
551.7,-16088,-131522,5354,10953
553.7,-16176,-131425,5430,11039
555.7,-16428,-131661,5360,10974
557.7,-16485,-131747,5312,10902
559.7,-16184,-131266,5441,11068
561.7,-16020,-130901,5547,11291
563.7,-16194,-131195,5443,11251
565.7,-16159,-131498,5337,11100
567.7,-15729,-131259,5444,11151
569.7,-15508,-131005,5584,11254
571.7,-15707,-131154,5539,11131
573.7,-15752,-131295,5427,10925
575.7,-15521,-131250,5388,10859
577.7,-15685,-131458,5345,10842
579.7,-16314,-131881,5304,10819
581.7,-16498,-131848,5415,10930
583.7,-15962,-131288,5632,11156
585.7,-15611,-130886,5765,11318
587.7,-15888,-130909,5810,11403
589.7,-16117,-130990,5838,11457
591.7,-15895,-130980,5803,11418
593.7,-15620,-131017,5698,11324
595.7,-15558,-131040,5647,11325
597.7,-15642,-130973,5706,11432
599.7,-15882,-130967,5796,11522
601.7,-16100,-131067,5825,11531
603.7,-15930,-131096,5763,11475
605.7,-15538,-131027,5685,11431
607.7,-15472,-130987,5694,11485
609.7,-15744,-130984,5747,11583
611.7,-15930,-130915,5760,11626
613.7,-15947,-130748,5806,11676
615.7,-15957,-130559,5934,11777
617.7,-15889,-130466,5992,11794
619.7,-15685,-130481,5921,11710
621.7,-15602,-130502,5878,11710
623.7,-15781,-130505,5900,11792
625.7,-15905,-130539,5855,11773
627.7,-15725,-130509,5788,11703
629.7,-15479,-130294,5853,11759
631.7,-15424,-130046,5971,11864
633.7,-15444,-129986,5967,11867
635.7,-15375,-130042,5877,11840
637.7,-15273,-130038,5831,11862
639.7,-15277,-129999,5866,11887
641.7,-15536,-129993,6006,11961
643.7,-16014,-129961,6223,12142
645.7,-16200,-129894,6312,12226
647.7,-15649,-129876,6142,12035
649.7,-14879,-129900,5949,11816
651.7,-14894,-129887,6038,11904
653.7,-15722,-129866,6332,12205
655.7,-16285,-129885,6514,12368
657.7,-15978,-129870,6478,12294
659.7,-15507,-129790,6412,12187
661.7,-15644,-129785,6477,12223
663.7,-16033,-129925,6608,12349
665.7,-16010,-130074,6652,12383
667.7,-15704,-130142,6577,12255
669.7,-15453,-130198,6442,12058
671.7,-15246,-130275,6322,11921
673.7,-15294,-130331,6315,11913
675.7,-15868,-130383,6459,12017
677.7,-16430,-130441,6604,12106
679.7,-16324,-130447,6564,12041
681.7,-15902,-130417,6378,11854
683.7,-15760,-130447,6235,11708
685.7,-15769,-130514,6214,11672
687.7,-15728,-130526,6253,11680
689.7,-15843,-130516,6295,11690
691.7,-16087,-130567,6322,11704
693.7,-16151,-130662,6305,11688
695.7,-16074,-130749,6229,11618
697.7,-16103,-130814,6136,11552
699.7,-16202,-130832,6090,11541
701.7,-16263,-130819,6119,11579
703.7,-16353,-130851,6206,11676
705.7,-16457,-130920,6292,11811
707.7,-16411,-130911,6310,11871
709.7,-16203,-130803,6277,11814
711.7,-16038,-130722,6255,11758
713.7,-16109,-130772,6240,11749
715.7,-16363,-130923,6195,11693
717.7,-16502,-131048,6142,11580
719.7,-16313,-131040,6100,11510
721.7,-16011,-130930,6055,11503
723.7,-15886,-130859,6029,11492
725.7,-15820,-130892,6049,11456
727.7,-15686,-130946,6089,11444
729.7,-15771,-130941,6170,11527
731.7,-16131,-130892,6280,11653
733.7,-16270,-130848,6274,11664
735.7,-16078,-130828,6149,11582
737.7,-16023,-130826,6121,11581
739.7,-16072,-130847,6174,11597
741.7,-15807,-130868,6077,11457
743.7,-15579,-130844,5964,11363
745.7,-15954,-130762,6137,11567
747.7,-16458,-130691,6419,11826
749.7,-16393,-130707,6447,11822
751.7,-16074,-130808,6304,11679
753.7,-16026,-130913,6233,11596
755.7,-16084,-130948,6215,11546
757.7,-16060,-130934,6187,11534
759.7,-16140,-130949,6207,11609
761.7,-16287,-130978,6270,11697
763.7,-16251,-130934,6316,11754
765.7,-16067,-130831,6325,11818
767.7,-15962,-130777,6295,11857
769.7,-16048,-130807,6283,11864
771.7,-16236,-130878,6337,11883
773.7,-16235,-130953,6344,11811
775.7,-15978,-130994,6225,11588
777.7,-15929,-131010,6141,11447
779.7,-16279,-131070,6206,11539
781.7,-16403,-131141,6274,11649
783.7,-15954,-131063,6253,11629
785.7,-15568,-130867,6223,11597
787.7,-15728,-130838,6166,11551
789.7,-16035,-131084,6014,11370
791.7,-16100,-131303,5903,11193
793.7,-16082,-131192,6002,11268
795.7,-16130,-130903,6205,11516
797.7,-16140,-130813,6290,11669
799.7,-16051,-130937,6266,11686
801.7,-15937,-131001,6272,11687
803.7,-15935,-131030,6290,11658
805.7,-16096,-131239,6221,11555
807.7,-16193,-131421,6130,11500
809.7,-16012,-131249,6125,11568
811.7,-15784,-130987,6138,11613
813.7,-15853,-131032,6107,11575
815.7,-16164,-131165,6149,11616
817.7,-16450,-131054,6304,11751
819.7,-16489,-130886,6368,11761
821.7,-16109,-130861,6238,11600
823.7,-15560,-130832,6125,11503
825.7,-15537,-130785,6226,11591
827.7,-16131,-130882,6409,11705
829.7,-16510,-130980,6462,11710
831.7,-16261,-130826,6443,11688
833.7,-15932,-130552,6501,11733
835.7,-15807,-130430,6525,11724
837.7,-15548,-130455,6369,11560
839.7,-15375,-130499,6281,11492
841.7,-15958,-130548,6561,11784
843.7,-16897,-130616,6958,12173
845.7,-16997,-130642,7001,12218
847.7,-16217,-130581,6749,12000
849.7,-15704,-130467,6608,11896
851.7,-15854,-130385,6651,11924
853.7,-15987,-130376,6678,11894
855.7,-15905,-130354,6703,11886
857.7,-16100,-130206,6873,12069
859.7,-16429,-129998,7066,12304
861.7,-16235,-129946,6996,12296
863.7,-15697,-130075,6688,12054
865.7,-15567,-130148,6499,11887
867.7,-15855,-130068,6597,11941
869.7,-16013,-130038,6731,12012
871.7,-15971,-130148,6677,11933
873.7,-15992,-130236,6572,11846
875.7,-16054,-130255,6586,11883
877.7,-16023,-130337,6624,11934
879.7,-15920,-130469,6575,11917
881.7,-15776,-130550,6524,11915
883.7,-15627,-130620,6555,11945
885.7,-15621,-130741,6597,11919
887.7,-15806,-130846,6583,11840
889.7,-15974,-130848,6566,11802
891.7,-15928,-130777,6575,11807
893.7,-15752,-130807,6493,11726
895.7,-15645,-131075,6225,11483
897.7,-15669,-131394,5949,11240
899.7,-15834,-131461,5932,11240
901.7,-16138,-131395,6085,11407
903.7,-16342,-131532,6062,11390
905.7,-16181,-131795,5825,11116
907.7,-15948,-131872,5695,10910
909.7,-16160,-131795,5797,10946
911.7,-16594,-131772,5886,11016
913.7,-16587,-131811,5776,10925
915.7,-16165,-131839,5592,10763
917.7,-15905,-131860,5535,10699
919.7,-15938,-131896,5611,10748
921.7,-15932,-131969,5664,10780
923.7,-15809,-132036,5633,10738
925.7,-15854,-131973,5656,10756
927.7,-16223,-131862,5789,10908
929.7,-16636,-131970,5821,10993
931.7,-16706,-132187,5672,10898
933.7,-16472,-132090,5617,10867
935.7,-16186,-131748,5740,10987
937.7,-15821,-131676,5695,10931
939.7,-15444,-131940,5414,10631
941.7,-15512,-132133,5329,10510
943.7,-16007,-132206,5553,10670
945.7,-16243,-132451,5701,10722
947.7,-16080,-132804,5696,10613
949.7,-15996,-132919,5871,10689
951.7,-15892,-132756,6257,10959
953.7,-15420,-132478,6637,11233
955.7,-15084,-132038,7106,11728
957.7,-15425,-131346,7858,12690
959.7,-15912,-130511,8712,13844
961.7,-15916,-129599,9352,14893
963.7,-15735,-128532,9688,15949
965.7,-15782,-127395,9748,17057
967.7,-15877,-126415,9536,17952
969.7,-15906,-125655,9070,18530
971.7,-16163,-125043,8409,18937
973.7,-16677,-124575,7616,19128
975.7,-17042,-124272,6679,18818
977.7,-17175,-124141,5414,17773
979.7,-17523,-124227,3692,15948
981.7,-18248,-124512,1775,13604
983.7,-18907,-124921,156,11354
985.7,-19141,-125533,-855,9764
987.7,-19073,-126468,-1166,8938
989.7,-18882,-127555,-786,8651
991.7,-18577,-128463,7,8648
993.73,-18178,-129121,755,8718
995.75,-17745,-129701,1310,8770
997.78,-17355,-130287,1886,8900
999.8,-17089,-130800,2550,9186
1001.8,-16894,-131163,3138,9506
1003.8,-16671,-131394,3647,9758
1005.8,-16538,-131572,4182,9997
1007.8,-16573,-131761,4642,10235
1009.8,-16581,-131958,4924,10409
1011.8,-16502,-132127,5164,10560
1013.8,-16436,-132245,5406,10710
1015.8,-16204,-132298,5476,10740
1017.8,-15820,-132302,5430,10686
1019.8,-15911,-132333,5564,10780
1021.8,-16549,-132453,5828,10996
1023.8,-16800,-132584,5896,11028
1025.8,-16377,-132606,5771,10843
1027.8,-16058,-132541,5695,10680
1029.8,-15988,-132510,5635,10565
1031.8,-15633,-132542,5478,10392
1033.8,-15328,-132562,5388,10285
1035.8,-15740,-132544,5516,10392
1037.8,-16411,-132538,5700,10578
1039.8,-16536,-132560,5759,10657
1041.8,-16260,-132566,5748,10683
1043.8,-16106,-132565,5775,10766
1045.8,-16166,-132605,5830,10858
1047.8,-16322,-132630,5864,10880
1049.8,-16366,-132539,5858,10862
1051.8,-16049,-132403,5797,10831
1053.8,-15577,-132397,5696,10727
1055.8,-15547,-132499,5660,10592
1057.8,-15971,-132529,5754,10588
1059.8,-16137,-132459,5839,10678
1061.8,-15793,-132427,5789,10655
1063.8,-15605,-132475,5759,10588
1065.8,-15965,-132510,5911,10720
1067.8,-16310,-132479,6063,10948
1069.8,-16184,-132417,6033,11005
1071.8,-15988,-132363,5986,10970
1073.8,-16064,-132333,6043,11020
1075.8,-16086,-132336,6015,11031
1077.8,-15879,-132353,5863,10933
1079.8,-15835,-132338,5867,10961
1081.8,-16089,-132291,6071,11158
1083.8,-16223,-132280,6158,11217
1085.8,-16063,-132318,6047,11077
1087.8,-15972,-132303,6030,11050
1089.8,-16147,-132225,6182,11206
1091.8,-16285,-132236,6223,11253
1093.8,-16173,-132382,6066,11109
1095.8,-16021,-132476,5959,11017
1097.8,-15961,-132394,6009,11046
1099.8,-15821,-132240,6060,11039
1101.8,-15603,-132123,6060,11005
1103.8,-15560,-132048,6099,11049
1105.8,-15720,-132052,6160,11103
1107.8,-15907,-132159,6181,11084
1109.8,-16023,-132243,6180,11058
1111.8,-15897,-132175,6142,11026
1113.8,-15526,-132022,6082,10962
1115.8,-15441,-131931,6140,11007
1117.8,-15821,-131937,6284,11164
1119.8,-15949,-132008,6259,11163
1121.8,-15748,-132108,6155,11056
1123.8,-16172,-132171,6347,11236
1125.8,-16861,-132174,6633,11530
1127.8,-16188,-132153,6440,11339
1129.8,-14647,-132116,5967,10841
1131.8,-14595,-132068,5941,10818
1133.8,-16002,-132082,6319,11240
1135.8,-16501,-132149,6464,11365
1137.8,-15738,-132126,6348,11104
1139.8,-15518,-131995,6392,11024
1141.8,-16088,-131924,6528,11233
1143.8,-16135,-131936,6462,11370
1145.8,-15626,-131896,6356,11395
1147.8,-15467,-131811,6437,11487
1149.8,-15547,-131815,6497,11544
1151.8,-15485,-131908,6398,11463
1153.8,-15719,-131970,6404,11447
1155.8,-16273,-131938,6609,11591
1157.8,-16299,-131810,6717,11668
1159.8,-15667,-131649,6620,11577
1161.8,-15217,-131564,6539,11490
1163.8,-15246,-131573,6558,11496
1165.8,-15334,-131589,6576,11534
1167.8,-15373,-131586,6577,11573
1169.8,-15566,-131588,6607,11596
1171.8,-15826,-131548,6643,11597
1173.8,-15905,-131447,6654,11626
1175.8,-15771,-131377,6624,11676
1177.8,-15597,-131343,6564,11687
1179.8,-15515,-131236,6556,11713
1181.8,-15506,-131095,6649,11817
1183.8,-15554,-131055,6770,11925
1185.8,-15695,-131054,6839,11986
1187.8,-15790,-130976,6820,12018
1189.8,-15661,-130930,6695,11956
1191.8,-15489,-130989,6573,11803
1193.8,-15518,-130959,6621,11751
1195.8,-15552,-130765,6755,11847
1197.8,-15405,-130649,6765,11911
1199.8,-15367,-130716,6731,11945
1201.8,-15599,-130778,6846,12089
1203.8,-15745,-130760,6984,12202
1205.8,-15623,-130771,6959,12093
1207.8,-15577,-130798,6900,11953
1209.8,-15774,-130754,6962,12018
1211.8,-15908,-130690,7046,12165
1213.8,-15866,-130669,7100,12260
1215.8,-15964,-130664,7238,12404
1217.8,-16209,-130673,7383,12562
1219.8,-16147,-130714,7333,12530
1221.8,-15718,-130745,7164,12356
1223.8,-15406,-130751,7098,12257
1225.8,-15460,-130765,7131,12229
1227.8,-15729,-130773,7164,12192
1229.8,-16059,-130777,7215,12202
1231.8,-16247,-130861,7236,12218
1233.8,-16116,-131030,7117,12104
1235.8,-15890,-131136,6958,11957
1237.8,-15875,-131116,6929,11961
1239.8,-16032,-131085,6986,12053
1241.8,-16240,-131131,7002,12080
1243.8,-16284,-131203,6924,11993
1245.8,-15788,-131253,6716,11760
1247.8,-15090,-131284,6502,11481
1249.8,-15200,-131287,6552,11455
1251.8,-16038,-131269,6808,11705
1253.8,-16370,-131295,6874,11847
1255.8,-16011,-131374,6723,11760
1257.8,-15943,-131404,6728,11754
1259.8,-16237,-131334,6900,11892
1261.8,-16107,-131253,6882,11891
1263.8,-15687,-131229,6689,11758
1265.8,-15774,-131233,6657,11771
1267.8,-16268,-131235,6791,11909
1269.8,-16428,-131220,6845,11932
1271.8,-16182,-131172,6788,11833
1273.8,-16078,-131141,6744,11762
1275.8,-16268,-131181,6751,11755
1277.8,-16350,-131226,6799,11771
1279.8,-16110,-131216,6850,11758
1281.8,-15839,-131216,6831,11681
1283.8,-15836,-131248,6781,11626
1285.8,-15971,-131220,6794,11693
1287.8,-15992,-131138,6821,11794
1289.8,-16029,-131108,6813,11847
1291.8,-16312,-131120,6881,11926
1293.8,-16493,-131084,6989,11966
1295.8,-16113,-131033,6928,11771
1297.8,-15644,-131071,6770,11496
1299.8,-15862,-131207,6761,11482
1301.8,-16372,-131318,6823,11654
1303.8,-16325,-131271,6776,11752
1305.8,-16090,-131116,6790,11859
1307.8,-16361,-131047,6971,12068
1309.8,-16557,-131111,7025,12121
1311.8,-16060,-131153,6828,11910
1313.8,-15693,-131139,6723,11784
1315.8,-16190,-131200,6894,11962
1317.8,-16761,-131306,7077,12176
1319.8,-16577,-131311,7051,12138
1321.8,-16053,-131257,6908,11921
1323.8,-15806,-131274,6796,11758
1325.8,-15798,-131316,6754,11735
1327.8,-15900,-131295,6769,11793
1329.8,-16111,-131245,6818,11875
1331.8,-16219,-131189,6882,11945
1333.8,-16053,-131110,6925,11935
1335.8,-15835,-131082,6885,11817
1337.8,-15838,-131136,6794,11722
1339.8,-16028,-131151,6782,11762
1341.8,-16222,-131107,6872,11842
1343.8,-16315,-131147,6924,11841
1345.8,-16310,-131267,6876,11822
1347.8,-16277,-131307,6808,11862
1349.8,-16251,-131278,6761,11893
1351.8,-16164,-131288,6731,11888
1353.8,-15965,-131247,6763,11941
1355.8,-15741,-131092,6848,12035
1357.8,-15655,-131052,6845,12013
1359.8,-15810,-131246,6741,11879
1361.8,-16133,-131371,6744,11843
1363.8,-16399,-131226,6915,11967
1365.8,-16465,-131048,7022,12047
1367.8,-16418,-131029,6964,11972
1369.8,-16344,-131030,6913,11869
1371.8,-16166,-130984,6922,11819
1373.8,-15944,-131014,6880,11778
1375.8,-15964,-131090,6848,11788
1377.8,-16256,-131055,6960,11908
1379.8,-16477,-130929,7116,12044
1381.8,-16495,-130821,7192,12119
1383.8,-16506,-130721,7250,12196
1385.8,-16444,-130608,7296,12249
1387.8,-16073,-130532,7227,12158
1389.8,-15692,-130517,7120,11996
1391.8,-15856,-130556,7140,11967
1393.8,-16363,-130634,7220,12048
1395.8,-16434,-130679,7181,12032
1397.8,-15988,-130614,7077,11921
1399.8,-15822,-130489,7125,11968
1401.8,-16259,-130395,7342,12231
1403.8,-16570,-130317,7485,12393
1405.8,-16305,-130185,7470,12312
1407.8,-16109,-130007,7525,12332
1409.8,-16395,-129874,7707,12622
1411.8,-16505,-129846,7712,12795
1413.8,-16116,-129872,7485,12660
1415.8,-15948,-129867,7384,12572
1417.8,-16198,-129841,7458,12631
1419.8,-16118,-129871,7380,12520
1421.8,-15678,-129940,7202,12288
1423.8,-15630,-129968,7248,12269
1425.8,-15897,-129958,7391,12353
1427.8,-15887,-129993,7349,12279
1429.8,-15860,-130100,7301,12232
1431.8,-16169,-130199,7450,12388
1433.8,-16258,-130215,7561,12515
1435.8,-15881,-130191,7478,12479
1437.8,-15760,-130246,7411,12457
1439.8,-16085,-130415,7438,12469
1441.8,-16178,-130610,7362,12366
1443.8,-16065,-130780,7186,12220
1445.8,-16354,-130971,7091,12165
1447.8,-16672,-131183,7022,12070
1449.8,-16269,-131336,6789,11798
1451.8,-15670,-131434,6474,11512
1453.8,-15770,-131556,6314,11413
1455.8,-16175,-131674,6322,11439
1457.8,-16144,-131692,6353,11435
1459.8,-15999,-131623,6397,11394
1461.8,-16214,-131572,6487,11347
1463.8,-16434,-131587,6517,11270
1465.8,-16400,-131636,6442,11204
1467.8,-16429,-131673,6404,11228
1469.8,-16507,-131677,6432,11253
1471.8,-16305,-131664,6399,11153
1473.8,-16102,-131663,6368,11078
1475.8,-16369,-131669,6492,11218
1477.8,-16777,-131674,6613,11421
1479.8,-16779,-131671,6516,11471
1481.8,-16555,-131610,6385,11479
1483.8,-16437,-131495,6437,11556
1485.8,-16299,-131444,6509,11553
1487.8,-16144,-131507,6463,11455
1489.8,-16293,-131582,6453,11481
1491.8,-16582,-131668,6491,11591
1493.8,-16485,-131894,6390,11507
1495.8,-16099,-132208,6216,11260
1497.8,-15922,-132400,6201,11116
1499.8,-15936,-132489,6314,11078
1501.8,-15881,-132619,6424,11005
1503.8,-15849,-132646,6631,11037
1505.8,-15877,-132307,7046,11401
1507.8,-15748,-131664,7593,12043
1509.8,-15582,-130937,8268,12824
1511.8,-15696,-130096,9149,13828
1513.8,-15901,-129066,10017,15100
1515.8,-15891,-128025,10477,16386
1517.8,-15884,-127088,10518,17483
1519.8,-16058,-126078,10404,18470
1521.8,-16131,-125038,10107,19310
1523.8,-16105,-124381,9445,19721
1525.8,-16324,-124174,8522,19617
1527.8,-16567,-123961,7445,19091
1529.8,-16495,-123584,6061,18050
1531.8,-16742,-123412,4424,16416
1533.8,-17887,-123626,2873,14466
1535.8,-19068,-124062,1535,12570
1537.8,-19269,-124750,477,10987
1539.8,-18904,-125800,50,9962
1541.8,-18678,-126878,374,9552
1543.8,-18358,-127548,1036,9495
1545.8,-17813,-127969,1726,9570
1547.8,-17612,-128625,2448,9724
1549.8,-17803,-129505,3101,9859
1551.8,-17710,-130139,3585,9934
1553.8,-17279,-130410,4049,10073
1555.8,-17193,-130721,4552,10295
1557.8,-17524,-131226,4966,10501
1559.8,-17539,-131522,5296,10710
1561.8,-16962,-131420,5598,10920
1563.8,-16417,-131333,5801,11002
1565.8,-16383,-131530,5950,11007
1567.8,-16490,-131706,6152,11101
1569.8,-16254,-131638,6263,11200
1571.8,-15923,-131566,6186,11171
1573.8,-16007,-131673,6165,11152
1575.8,-16388,-131818,6320,11248
1577.8,-16560,-131884,6399,11293
1579.8,-16458,-131901,6308,11196
1581.8,-16391,-131867,6260,11119
1583.8,-16401,-131789,6319,11142
1585.8,-16365,-131795,6336,11135
1587.8,-16436,-131947,6296,11032
1589.8,-16693,-132097,6306,10945
1591.8,-16767,-132092,6341,10962
1593.8,-16421,-131993,6305,11013
1595.8,-16052,-131936,6248,11038
1597.8,-16092,-131909,6301,11105
1599.8,-16366,-131856,6441,11229
1601.8,-16417,-131831,6486,11254
1603.8,-16160,-131881,6367,11113
1605.8,-15961,-131932,6240,10978
1607.8,-16133,-131947,6253,10996
1609.8,-16459,-131973,6357,11091
1611.8,-16504,-131980,6441,11154
1613.8,-16319,-131922,6475,11194
1615.8,-16262,-131883,6488,11203
1617.8,-16290,-131930,6479,11117
1619.8,-16194,-131982,6431,10974
1621.8,-16215,-131992,6375,10926
1623.8,-16530,-131990,6382,11020
1625.8,-16673,-131916,6449,11099
1627.8,-16362,-131751,6483,11038
1629.8,-16163,-131710,6448,10933
1631.8,-16475,-131922,6417,10922
1633.8,-16729,-132069,6459,10994
1635.8,-16394,-131824,6584,11102
1637.8,-15893,-131416,6720,11254
1639.8,-15859,-131314,6745,11383
1641.8,-16222,-131528,6686,11408
1643.8,-16519,-131690,6711,11399
1645.8,-16529,-131638,6804,11436
1647.8,-16303,-131516,6774,11449
1649.8,-16020,-131432,6661,11414
1651.8,-15929,-131401,6679,11433
1653.8,-16113,-131459,6793,11516
1655.8,-16349,-131548,6833,11568
1657.8,-16353,-131515,6798,11547
1659.8,-16098,-131393,6708,11440
1661.8,-15850,-131369,6551,11272
1663.8,-15906,-131426,6487,11206
1665.8,-16228,-131384,6645,11333
1667.8,-16445,-131271,6816,11467
1669.8,-16431,-131279,6819,11472
1671.8,-16478,-131417,6826,11489
1673.8,-16603,-131494,6942,11584
1675.8,-16433,-131409,6984,11591
1677.8,-16080,-131249,6932,11512
1679.8,-16097,-131147,7002,11543
1681.8,-16359,-131143,7142,11629
1683.8,-16276,-131219,7060,11510
1685.8,-16064,-131358,6823,11267
1687.8,-16360,-131481,6822,11254
1689.8,-16819,-131427,7071,11476
1691.8,-16593,-131206,7134,11542
1693.8,-15869,-131085,6882,11334
1695.8,-15550,-131193,6709,11168
1697.8,-15806,-131290,6834,11224
1699.8,-16073,-131185,7023,11335
1701.8,-16173,-131049,7113,11435
1703.83,-16374,-131060,7201,11624
1705.85,-16572,-131107,7270,11786
1707.88,-16397,-131064,7205,11733
1709.9,-16018,-130984,7115,11607
1711.9,-15945,-130908,7155,11631
1713.9,-16135,-130801,7241,11710
1715.9,-16167,-130724,7246,11693
1717.9,-16075,-130771,7208,11670
1719.9,-16105,-130853,7176,11712
1721.9,-16061,-130802,7151,11704
1723.9,-15773,-130638,7152,11614
1725.9,-15628,-130517,7177,11580
1727.9,-15848,-130476,7194,11678
1729.9,-16029,-130438,7210,11816
1731.9,-15978,-130406,7242,11902
1733.9,-16084,-130442,7280,11949
1735.9,-16404,-130476,7328,12003
1737.9,-16389,-130365,7359,12014
1739.9,-15929,-130158,7317,11923
1741.9,-15688,-130053,7258,11837
1743.9,-16028,-130094,7304,11889
1745.9,-16437,-130145,7403,11984
1747.9,-16376,-130126,7415,11966
1749.9,-16030,-130067,7371,11899
1751.9,-15865,-129971,7417,11942
1753.9,-15939,-129844,7575,12090
1755.9,-16025,-129794,7727,12228
1757.9,-16053,-129888,7776,12291
1759.9,-16102,-129995,7759,12307
1761.9,-16189,-129954,7806,12365
1763.9,-16255,-129822,7929,12484
1765.9,-16241,-129772,7967,12537
1767.9,-16132,-129831,7866,12452
1769.9,-16068,-129890,7805,12356
1771.9,-16216,-129919,7884,12365
1773.9,-16439,-129954,7946,12407
1775.9,-16445,-129962,7867,12387
1777.9,-16302,-129942,7746,12319
1779.9,-16255,-130008,7673,12216
1781.9,-16216,-130183,7590,12064
1783.9,-16152,-130297,7519,11956
1785.9,-16397,-130232,7605,12013
1787.9,-16716,-130077,7758,12104
1789.9,-16294,-129965,7671,11972
1791.9,-15551,-129951,7410,11748
1793.9,-15891,-130050,7395,11830
1795.9,-17000,-130215,7600,12128
1797.9,-17210,-130330,7594,12163
1799.9,-16622,-130348,7424,11962
1801.9,-16462,-130325,7405,11871
1803.9,-16241,-130327,7306,11729
1805.9,-15300,-130351,6932,11358
1807.9,-15183,-130355,6850,11277
1809.9,-16752,-130353,7325,11738
1811.9,-17843,-130409,7585,12003
1813.9,-16967,-130494,7208,11631
1815.9,-15883,-130488,6879,11275
1817.9,-16071,-130398,7026,11407
1819.9,-16460,-130367,7193,11630
1821.9,-16241,-130406,7161,11690
1823.9,-16290,-130399,7275,11858
1825.9,-16868,-130342,7534,12140
1827.9,-17028,-130329,7566,12197
1829.9,-16605,-130349,7380,12025
1831.9,-16417,-130351,7294,11934
1833.9,-16659,-130350,7360,11999
1835.9,-16790,-130340,7408,12030
1837.9,-16598,-130270,7402,11950
1839.9,-16352,-130191,7382,11862
1841.9,-16317,-130208,7334,11844
1843.9,-16509,-130284,7284,11885
1845.9,-16674,-130294,7312,11937
1847.9,-16591,-130245,7374,11952
1849.9,-16452,-130230,7364,11910
1851.9,-16491,-130231,7318,11854
1853.9,-16508,-130192,7306,11803
1855.9,-16344,-130179,7284,11732
1857.9,-16282,-130240,7255,11697
1859.9,-16451,-130268,7320,11786
1861.9,-16564,-130202,7438,11911
1863.9,-16490,-130153,7449,11921
1865.9,-16402,-130179,7387,11876
1867.9,-16447,-130188,7411,11927
1869.9,-16691,-130170,7502,12033
1871.9,-16950,-130215,7509,12028
1873.9,-16788,-130281,7383,11849
1875.9,-16309,-130270,7232,11632
1877.9,-16264,-130228,7219,11602
1879.9,-16717,-130223,7354,11774
1881.9,-16835,-130207,7419,11865
1883.9,-16458,-130168,7290,11737
1885.9,-16303,-130171,7171,11633
1887.9,-16484,-130191,7238,11709
1889.9,-16424,-130157,7342,11773
1891.9,-16111,-130109,7328,11715
1893.9,-16049,-130105,7287,11688
1895.9,-16297,-130125,7304,11752
1897.9,-16546,-130166,7336,11802
1899.9,-16698,-130250,7365,11826
1901.9,-16788,-130332,7419,11866
1903.9,-16700,-130358,7441,11855
1905.9,-16363,-130361,7361,11731
1907.9,-16058,-130385,7229,11576
1909.9,-16162,-130392,7203,11538
1911.9,-16580,-130344,7333,11652
1913.9,-16797,-130288,7451,11751
1915.9,-16634,-130271,7410,11683
1917.9,-16444,-130261,7340,11563
1919.9,-16442,-130205,7381,11560
1921.9,-16477,-130121,7427,11624
1923.9,-16506,-130051,7433,11706
1925.9,-16634,-130000,7536,11884
1927.9,-16761,-129968,7690,12085
1929.9,-16729,-129929,7701,12143
1931.9,-16612,-129816,7656,12152
1933.9,-16542,-129645,7748,12245
1935.9,-16540,-129553,7875,12291
1937.9,-16601,-129594,7876,12210
1939.9,-16675,-129662,7810,12150
1941.9,-16650,-129696,7760,12147
1943.9,-16537,-129734,7738,12114
1945.9,-16458,-129756,7770,12110
1947.9,-16457,-129707,7818,12186
1949.9,-16534,-129631,7815,12241
1951.9,-16690,-129573,7832,12245
1953.9,-16781,-129479,7909,12263
1955.9,-16668,-129338,7938,12275
1957.9,-16506,-129228,7913,12281
1959.9,-16516,-129159,7930,12340
1961.9,-16604,-129072,7934,12391
1963.9,-16601,-128996,7857,12344
1965.9,-16583,-129013,7808,12277
1967.9,-16625,-129098,7821,12261
1969.9,-16593,-129151,7784,12234
1971.9,-16449,-129141,7734,12203
1973.9,-16386,-129112,7795,12250
1975.9,-16437,-129106,7868,12296
1977.9,-16388,-129151,7806,12212
1979.9,-16242,-129265,7699,12080
1981.9,-16190,-129409,7695,12053
1983.9,-16134,-129503,7721,12069
1985.9,-15968,-129535,7679,12004
1987.9,-16021,-129594,7654,11948
1989.9,-16372,-129744,7668,11980
1991.9,-16501,-129960,7549,11921
1993.9,-16451,-130198,7327,11720
1995.9,-16843,-130400,7272,11642
1997.9,-17246,-130479,7316,11681
1999.9,-16733,-130457,7129,11488
2001.9,-16006,-130500,6852,11140
2003.9,-16305,-130669,6858,11077
2005.9,-17022,-130801,6983,11235
2007.9,-16999,-130796,6929,11231
2009.9,-16677,-130782,6875,11102
2011.9,-16760,-130854,6936,11052
2013.9,-16801,-130900,6861,10998
2015.9,-16509,-130849,6657,10922
2017.9,-16383,-130817,6599,10958
2019.9,-16543,-130884,6656,11035
2021.9,-16660,-130948,6686,11038
2023.9,-16757,-130929,6753,11070
2025.9,-16899,-130894,6826,11143
2027.9,-16870,-130901,6781,11120
2029.9,-16752,-130912,6757,11058
2031.9,-16843,-130907,6867,11101
2033.9,-16965,-130917,6901,11156
2035.9,-16794,-130928,6765,11095
2037.9,-16593,-130905,6684,11010
2039.9,-16717,-130902,6737,11020
2041.9,-16843,-131032,6718,11041
2043.9,-16566,-131311,6536,10914
2045.9,-16190,-131606,6377,10673
2047.9,-16123,-131775,6418,10540
2049.9,-16172,-131825,6593,10598
2051.9,-16122,-131834,6767,10718
2053.9,-16253,-131734,7061,10943
2055.9,-16676,-131368,7710,11533
2057.9,-16935,-130746,8598,12442
2059.9,-16716,-129987,9369,13345
2061.9,-16341,-129082,9962,14246
2063.9,-16212,-127997,10517,15367
2065.9,-16219,-126862,10888,16539
2067.9,-16044,-125832,10819,17430
2069.9,-15836,-124913,10429,18099
2071.9,-15995,-124103,10006,18715
2073.9,-16376,-123472,9513,19078
2075.9,-16523,-123046,8679,18879
2077.9,-16571,-122811,7416,18052
2079.9,-16988,-122757,5907,16697
2081.9,-17781,-122839,4414,15036
2083.9,-18730,-123081,3115,13406
2085.9,-19661,-123658,2081,11992
2087.9,-20083,-124610,1363,10774
2089.9,-19657,-125629,1090,9851
2091.9,-18962,-126425,1349,9423
2093.9,-18620,-127061,1985,9432
2095.9,-18346,-127692,2672,9571
2097.9,-17902,-128300,3244,9691
2099.9,-17772,-128828,3805,9872
2101.9,-18023,-129289,4412,10122
2103.9,-17978,-129667,4908,10300
2105.9,-17552,-129960,5211,10363
2107.9,-17415,-130249,5480,10441
2109.9,-17638,-130535,5800,10573
2111.9,-17601,-130699,6032,10639
2113.9,-17221,-130757,6122,10618
2115.9,-17030,-130887,6201,10628
2117.9,-17152,-131103,6312,10686
2119.9,-17185,-131238,6367,10717
2121.9,-17018,-131260,6376,10747
2123.9,-17007,-131285,6451,10851
2125.9,-17299,-131355,6587,10962
2127.9,-17499,-131437,6630,10924
2129.9,-17238,-131467,6527,10722
2131.9,-16730,-131350,6429,10518
2133.9,-16399,-131152,6424,10425
2135.9,-16299,-131095,6397,10387
2137.9,-16360,-131167,6340,10425
2139.9,-16709,-131159,6435,10667
2141.9,-17213,-131145,6621,10977
2143.9,-17366,-131313,6625,11033
2145.9,-17074,-131453,6507,10891
2147.9,-16768,-131322,6519,10852
2149.9,-16603,-131157,6561,10857
2151.9,-16431,-131208,6451,10713
2153.9,-16396,-131282,6390,10607
2155.9,-16670,-131235,6519,10710
2157.9,-16945,-131288,6572,10773
2159.9,-16935,-131500,6432,10646
2161.9,-16845,-131563,6382,10587
2163.9,-16876,-131346,6535,10734
2165.9,-16885,-131112,6669,10877
2167.9,-16795,-131063,6674,10881
2169.9,-16724,-131099,6642,10828
2171.9,-16632,-131121,6576,10755
2173.9,-16437,-131162,6452,10647
2175.9,-16381,-131177,6436,10612
2177.9,-16738,-131069,6647,10759
2179.9,-17228,-130949,6862,10936
2181.9,-17277,-130985,6799,10886
2183.9,-16818,-131061,6578,10660
2185.9,-16347,-130968,6530,10567
2187.9,-16249,-130800,6658,10694
2189.9,-16499,-130807,6718,10828
2191.9,-16874,-130998,6678,10853
2193.9,-17059,-131146,6662,10828
2195.9,-16845,-131110,6636,10771
2197.9,-16496,-130991,6554,10696
2199.9,-16450,-130958,6527,10702
2201.9,-16663,-131007,6603,10791
2203.9,-16817,-131020,6681,10872
2205.9,-16896,-130974,6741,10946
2207.9,-16951,-130914,6830,11026
2209.9,-16867,-130840,6906,11035
2211.9,-16798,-130776,6925,10987
2213.9,-16995,-130788,6929,10974
2215.9,-17136,-130845,6902,10933
2217.9,-16830,-130862,6797,10788
2219.9,-16479,-130856,6685,10661
2221.9,-16547,-130878,6640,10631
2223.9,-16680,-130907,6642,10593
2225.9,-16523,-130909,6686,10555
2227.9,-16443,-130877,6790,10656
2229.9,-16677,-130802,6888,10872
2231.9,-16875,-130721,6947,11068
2233.9,-16887,-130698,7019,11203
2235.9,-16871,-130709,7052,11229
2237.9,-16684,-130688,6935,11080
2239.9,-16216,-130643,6747,10880
2241.9,-15921,-130596,6700,10844
2243.9,-16167,-130547,6834,10981
2245.9,-16585,-130535,6992,11116
2247.9,-16668,-130577,7029,11137
2249.9,-16486,-130584,6984,11095
2251.9,-16462,-130524,7026,11120
2253.9,-16737,-130504,7176,11229
2255.9,-16919,-130545,7226,11266
2257.9,-16661,-130506,7124,11195
2259.9,-16304,-130356,7108,11207
2261.9,-16334,-130263,7242,11334
2263.9,-16457,-130310,7264,11330
2265.9,-16245,-130355,7116,11158
2267.9,-16144,-130255,7093,11132
2269.9,-16560,-130057,7283,11363
2271.9,-16838,-129882,7406,11560
2273.9,-16492,-129793,7314,11522
2275.9,-16234,-129816,7186,11401
2277.9,-16515,-129917,7162,11362
2279.9,-16632,-129943,7181,11372
2281.9,-16277,-129791,7226,11414
2283.9,-16150,-129593,7352,11539
2285.9,-16400,-129544,7461,11650
2287.9,-16376,-129600,7421,11611
2289.9,-16081,-129576,7359,11533
2291.9,-16015,-129478,7403,11547
2293.9,-16024,-129487,7367,11495
2295.9,-15910,-129625,7191,11338
2297.9,-16129,-129665,7228,11402
2299.9,-16694,-129478,7575,11755
2301.9,-16885,-129270,7802,11975
2303.9,-16644,-129270,7728,11910
2305.9,-16581,-129372,7673,11874
2307.9,-16652,-129358,7772,11969
2309.9,-16472,-129271,7825,11994
2311.9,-16328,-129286,7786,11933
2313.9,-16553,-129386,7750,11895
2315.9,-16811,-129451,7714,11841
2317.9,-16820,-129474,7694,11757
2319.9,-16774,-129520,7729,11718
2321.9,-16729,-129586,7721,11692
2323.9,-16565,-129630,7607,11618
2325.9,-16469,-129659,7516,11565
2327.9,-16632,-129738,7504,11560
2329.9,-16824,-129890,7455,11506
2331.9,-16791,-129959,7360,11415
2333.9,-16591,-129739,7366,11440
2335.9,-16376,-129376,7464,11585
2337.9,-16369,-129324,7480,11662
2339.9,-16747,-129660,7389,11589
2341.9,-17144,-129924,7330,11492
2343.9,-17043,-129905,7320,11452
2345.9,-16681,-129922,7237,11394
2347.9,-16532,-130068,7097,11284
2349.9,-16483,-130031,7063,11239
2351.9,-16567,-129866,7170,11317
2353.9,-17171,-129994,7261,11375
2355.9,-17786,-130332,7204,11261
2357.9,-17507,-130404,7039,11045
2359.9,-16869,-130256,6905,10922
2361.9,-16905,-130263,6889,10947
2363.9,-17130,-130298,6959,11025
2365.9,-16748,-130037,7048,11100
2367.9,-16368,-129720,7136,11168
2369.9,-16550,-129758,7165,11147
2371.9,-16617,-129986,7059,10986
2373.9,-16291,-130009,6926,10889
2375.9,-16353,-129866,6993,11088
2377.9,-16934,-129846,7193,11409
2379.9,-17181,-129981,7216,11478
2381.9,-16843,-130076,7052,11316
2383.9,-16501,-130038,6985,11237
2385.9,-16487,-129999,7061,11264
2387.9,-16728,-130117,7101,11216
2389.9,-17065,-130272,7105,11149
2391.9,-17159,-130186,7162,11194
2393.9,-16872,-129914,7211,11262
2395.9,-16687,-129804,7213,11268
2397.9,-16916,-129877,7232,11288
2399.9,-17129,-129844,7262,11332
2401.9,-17034,-129731,7248,11308
2403.93,-16906,-129767,7216,11219
2405.95,-16770,-129845,7177,11128
2407.98,-16407,-129790,7096,11051
2410.0,-16110,-129776,6994,10987
2412.0,-16246,-129923,6927,10956
2414.0,-16529,-129995,6933,10987
2416.0,-16583,-129899,7014,11060
2418.0,-16524,-129866,7080,11068
2420.0,-16565,-129963,7070,10979
2422.0,-16772,-130013,7130,10967
2424.0,-17113,-129997,7324,11097
2426.0,-17266,-130028,7369,11144
2428.0,-16922,-130078,7107,11011
2430.0,-16488,-130078,6875,10925
2432.0,-16575,-130075,6962,10991
2434.0,-16930,-130086,7155,11046
2436.0,-16954,-130049,7174,11025
2438.0,-16772,-129989,7077,11025
2440.0,-16785,-129982,7027,11071
2442.0,-16863,-130021,7018,11104
2444.0,-16774,-130074,6975,11089
2446.0,-16712,-130127,6943,11058
2448.0,-16900,-130133,7051,11122
2450.0,-17211,-130077,7266,11284
2452.0,-17307,-130049,7337,11325
2454.0,-16980,-130094,7143,11113
2456.0,-16489,-130130,6892,10864
2458.0,-16321,-130105,6808,10797
2460.0,-16444,-130072,6837,10835
2462.0,-16457,-130096,6835,10826
2464.0,-16456,-130173,6809,10799
2466.0,-16751,-130183,6882,10866
2468.0,-17035,-129977,7096,11044
2470.0,-16896,-129670,7298,11199
2472.0,-16599,-129581,7305,11184
2474.0,-16530,-129711,7197,11078
2476.0,-16621,-129718,7237,11108
2478.0,-16691,-129519,7429,11273
2480.0,-16601,-129367,7502,11328
2482.0,-16290,-129337,7390,11217
2484.0,-16133,-129339,7318,11146
2486.0,-16500,-129456,7366,11178
2488.0,-16919,-129708,7347,11124
2490.0,-16818,-129812,7232,10942
2492.0,-16644,-129633,7248,10885
2494.0,-16938,-129446,7430,11061
2496.0,-17234,-129444,7511,11206
2498.0,-17076,-129439,7454,11156
2500.0,-16877,-129251,7554,11138
2502.0,-16890,-128996,7802,11276
2504.0,-16770,-128876,7800,11332
2506.0,-16535,-128924,7517,11209
2508.0,-16563,-129026,7344,11130
2510.0,-16712,-129085,7359,11161
2512.0,-16700,-129097,7348,11164
2514.0,-16749,-129085,7370,11180
2516.0,-16957,-129060,7533,11265
2518.0,-16932,-129041,7621,11267
2520.0,-16635,-129051,7511,11156
2522.0,-16517,-129117,7383,11108
2524.0,-16627,-129254,7301,11113
2526.0,-16626,-129389,7209,11070
2528.0,-16498,-129407,7211,11070
2530.0,-16443,-129362,7316,11156
2532.0,-16456,-129440,7338,11162
2534.0,-16519,-129628,7277,11058
2536.0,-16675,-129738,7275,10973
2538.0,-16793,-129776,7228,10880
2540.0,-16782,-129929,6997,10673
2542.0,-16776,-130191,6728,10415
2544.0,-16801,-130384,6594,10231
2546.0,-16769,-130515,6549,10167
2548.0,-16814,-130713,6508,10200
2550.0,-17023,-130876,6486,10263
2552.0,-17150,-130818,6524,10297
2554.0,-17135,-130674,6600,10311
2556.0,-17193,-130693,6620,10295
2558.0,-17185,-130789,6528,10208
2560.0,-16877,-130761,6398,10090
2562.0,-16630,-130702,6315,10006
2564.0,-16778,-130742,6292,9956
2566.0,-16978,-130805,6321,9920
2568.0,-16986,-130887,6356,9882
2570.0,-17032,-131010,6336,9836
2572.0,-17055,-130946,6334,9857
2574.0,-16829,-130616,6449,10001
2576.0,-16682,-130442,6532,10111
2578.0,-16906,-130686,6403,10004
2580.0,-17100,-130957,6231,9795
2582.0,-16959,-130873,6281,9750
2584.0,-16740,-130625,6458,9885
2586.0,-16604,-130582,6476,9957
2588.0,-16544,-130835,6319,9831
2590.0,-16723,-131261,6208,9646
2592.0,-16978,-131677,6197,9525
2594.0,-16760,-131911,6143,9366
2596.0,-16181,-131887,6106,9185
2598.0,-16047,-131668,6371,9296
2600.0,-16525,-131377,6966,9820
2602.0,-16900,-131025,7628,10494
2604.0,-16714,-130427,8285,11196
2606.0,-16180,-129470,9025,12065
2608.0,-15642,-128360,9678,13067
2610.0,-15354,-127376,10013,14046
2612.0,-15435,-126525,10069,15016
2614.0,-15634,-125686,9873,15894
2616.0,-15630,-124904,9375,16430
2618.0,-15617,-124280,8785,16643
2620.0,-15940,-123796,8262,16691
2622.0,-16390,-123434,7471,16357
2624.0,-16699,-123227,6175,15387
2626.0,-17255,-123124,4782,14056
2628.0,-18396,-123098,3677,12772
2630.0,-19552,-123369,2719,11535
2632.0,-19982,-124159,1801,10256
2634.0,-19779,-125237,1201,9157
2636.0,-19445,-126140,1150,8530
2638.0,-19142,-126771,1558,8358
2640.0,-18817,-127367,2185,8381
2642.0,-18510,-127987,2819,8413
2644.0,-18290,-128500,3388,8484
2646.0,-18191,-128913,3924,8652
2648.0,-18125,-129302,4395,8828
2650.0,-17899,-129611,4744,8941
2652.0,-17596,-129824,5055,9047
2654.0,-17582,-130078,5415,9167
2656.0,-17785,-130409,5729,9230
2658.0,-17663,-130663,5878,9226
2660.0,-17170,-130768,5916,9207
2662.0,-16806,-130822,5940,9179
2664.0,-16677,-130903,5945,9127
2666.0,-16590,-130994,5937,9109
2668.0,-16754,-131078,6023,9196
2670.0,-17227,-131162,6196,9315
2672.0,-17358,-131243,6233,9268
2674.0,-16890,-131288,6070,9060
2676.0,-16593,-131274,5994,8986
2678.0,-16890,-131239,6131,9139
2680.0,-17152,-131233,6197,9207
2682.0,-17023,-131259,6085,9084
2684.0,-16978,-131315,6044,9055
2686.0,-17154,-131412,6126,9151
2688.0,-17070,-131455,6152,9091
2690.0,-16672,-131325,6148,8929
2692.0,-16421,-131119,6178,8923
2694.0,-16468,-131042,6151,8993
2696.0,-16605,-131106,6113,8953
2698.0,-16677,-131197,6148,8864
2700.0,-16629,-131280,6095,8823
2702.0,-16647,-131321,5979,8894
2704.0,-17014,-131251,6131,9162
2706.0,-17367,-131126,6420,9441
2708.0,-16998,-131057,6351,9397
2710.0,-16271,-131019,6065,9169
2712.0,-16244,-130967,6088,9145
2714.0,-16781,-130970,6307,9245
2716.0,-16849,-131031,6306,9170
2718.0,-16467,-131036,6165,9002
2720.0,-16459,-130992,6128,8937
2722.0,-16814,-131029,6141,8930
2724.0,-16964,-131115,6153,8932
2726.0,-16917,-131080,6221,8994
2728.0,-16903,-130921,6276,9066
2730.0,-16799,-130826,6234,9059
2732.0,-16585,-130894,6170,9002
2734.0,-16508,-131012,6155,8963
2736.0,-16578,-131042,6162,8961
2738.0,-16588,-130973,6182,8991
2740.0,-16531,-130894,6206,9024
2742.0,-16529,-130867,6201,9021
2744.0,-16580,-130865,6191,9008
2746.0,-16626,-130848,6232,9026
2748.0,-16634,-130845,6306,9037
2750.0,-16598,-130890,6338,8980
2752.0,-16571,-130943,6326,8901
2754.0,-16596,-130947,6320,8896
2756.0,-16555,-130896,6300,8952
2758.0,-16370,-130815,6236,8981
2760.0,-16280,-130748,6238,9022
2762.0,-16497,-130745,6393,9150
2764.0,-16736,-130797,6508,9228
2766.0,-16647,-130839,6405,9127
2768.0,-16459,-130847,6288,9036
2770.0,-16508,-130861,6359,9094
2772.0,-16523,-130876,6429,9092
2774.0,-16245,-130812,6357,8949
2776.0,-16156,-130660,6364,8957
2778.0,-16628,-130553,6542,9178
2780.0,-17055,-130564,6637,9281
2782.0,-16826,-130607,6528,9127
2784.0,-16388,-130660,6371,8931
2786.0,-16371,-130798,6282,8844
2788.0,-16519,-130893,6296,8890
2790.0,-16369,-130692,6444,9080
2792.0,-16165,-130288,6648,9309
2794.0,-16256,-130048,6758,9394
2796.0,-16380,-130061,6738,9312
2798.0,-16255,-130124,6690,9207
2800.0,-16116,-130161,6684,9178
2802.0,-16142,-130228,6676,9197
2804.0,-16092,-130248,6617,9200
2806.0,-15904,-130122,6589,9215
2808.0,-15916,-129985,6688,9292
2810.0,-16187,-129988,6789,9367
2812.0,-16301,-130020,6736,9363
2814.0,-16096,-129961,6628,9331
2816.0,-15970,-129936,6622,9315
2818.0,-16186,-129999,6676,9303
2820.0,-16450,-129928,6728,9366
2822.0,-16473,-129662,6800,9537
2824.0,-16412,-129475,6849,9651
2826.0,-16413,-129477,6822,9621
2828.0,-16296,-129478,6771,9576
2830.0,-15988,-129405,6742,9553
2832.0,-15744,-129349,6747,9499
2834.0,-15741,-129289,6849,9525
2836.0,-15927,-129203,7027,9704
2838.0,-16195,-129176,7147,9837
2840.0,-16353,-129178,7165,9807
2842.0,-16280,-129096,7152,9767
2844.0,-16211,-128996,7147,9821
2846.0,-16309,-128998,7163,9885
2848.0,-16229,-129055,7163,9864
2850.0,-15826,-129113,7073,9736
2852.0,-15652,-129192,6997,9609
2854.0,-15990,-129207,7138,9652
2856.0,-16285,-129069,7371,9820
2858.0,-16156,-128913,7396,9882
2860.0,-15937,-128918,7258,9805
2862.0,-15873,-129046,7176,9732
2864.0,-15838,-129189,7133,9672
2866.0,-15862,-129306,7068,9592
2868.0,-16031,-129347,7059,9568
2870.0,-16128,-129296,7081,9590
2872.0,-16081,-129275,7050,9562
2874.0,-16222,-129386,7041,9529
2876.0,-16563,-129550,7074,9530
2878.0,-16611,-129619,6987,9437
2880.0,-16246,-129570,6783,9227
2882.0,-15950,-129514,6666,9084
2884.0,-15949,-129542,6667,9059
2886.0,-15971,-129607,6658,8996
2888.0,-15896,-129626,6627,8851
2890.0,-15947,-129630,6637,8774
2892.0,-16245,-129688,6684,8863
2894.0,-16577,-129738,6718,8996
2896.0,-16605,-129702,6668,8982
2898.0,-16312,-129651,6528,8841
2900.0,-16153,-129683,6435,8778
2902.0,-16429,-129728,6498,8849
2904.0,-16755,-129689,6606,8905
2906.0,-16697,-129639,6593,8876
2908.0,-16454,-129691,6501,8837
2910.0,-16359,-129777,6470,8832
2912.0,-16307,-129773,6506,8830
2914.0,-16160,-129717,6510,8799
2916.0,-16103,-129719,6470,8754
2918.0,-16254,-129754,6468,8751
2920.0,-16421,-129730,6498,8789
2922.0,-16428,-129670,6471,8785
2924.0,-16335,-129642,6412,8749
2926.0,-16268,-129643,6417,8787
2928.0,-16259,-129646,6456,8873
2930.0,-16279,-129659,6471,8895
2932.0,-16295,-129671,6497,8877
2934.0,-16269,-129639,6532,8870
2936.0,-16214,-129568,6508,8827
2938.0,-16192,-129518,6453,8760
2940.0,-16226,-129517,6445,8755
2942.0,-16286,-129520,6475,8785
2944.0,-16322,-129493,6505,8773
2946.0,-16267,-129487,6519,8737
2948.0,-16180,-129551,6494,8742
2950.0,-16286,-129612,6486,8830
2952.0,-16589,-129592,6555,8974
2954.0,-16685,-129544,6578,9022
2956.0,-16397,-129519,6459,8906
2958.0,-16161,-129495,6379,8812
2960.0,-16258,-129514,6426,8815
2962.0,-16274,-129621,6383,8722
2964.0,-15947,-129673,6225,8544
2966.0,-15772,-129562,6233,8567
2968.0,-16067,-129474,6415,8765
2970.0,-16297,-129547,6474,8803
2972.0,-16055,-129604,6367,8648
2974.0,-15794,-129528,6313,8542
2976.0,-15907,-129454,6370,8538
2978.0,-16062,-129436,6425,8524
2980.0,-15996,-129408,6414,8485
2982.0,-15963,-129426,6336,8452
2984.0,-16051,-129539,6227,8407
2986.0,-16028,-129610,6150,8341
2988.0,-15940,-129569,6140,8307
2990.0,-16027,-129521,6216,8396
2992.0,-16219,-129516,6366,8609
2994.0,-16283,-129509,6478,8768
2996.0,-16182,-129505,6441,8741
2998.0,-16009,-129511,6317,8641
3000.0,-15903,-129485,6237,8610
3002.0,-16019,-129454,6248,8625
3004.0,-16280,-129466,6335,8657
3006.0,-16376,-129453,6434,8721
3008.0,-16214,-129365,6455,8751
3010.0,-16066,-129296,6424,8706
3012.0,-16093,-129295,6431,8658
3014.0,-16096,-129263,6447,8649
3016.0,-15937,-129160,6432,8644
3018.0,-15826,-129085,6478,8657
3020.0,-15933,-129054,6595,8686
3022.0,-16055,-128955,6636,8650
3024.0,-15976,-128813,6570,8537
3026.0,-15894,-128796,6542,8474
3028.0,-16098,-128920,6607,8556
3030.0,-16430,-129030,6675,8717
3032.0,-16541,-129067,6684,8826
3034.0,-16475,-129047,6687,8872
3036.0,-16396,-128906,6728,8923
3038.0,-16053,-128646,6718,8921
3040.0,-15368,-128450,6600,8805
3042.0,-15063,-128417,6535,8743
3044.0,-15553,-128418,6640,8859
3046.0,-15998,-128339,6716,8934
3048.0,-15719,-128231,6625,8834
3050.0,-15390,-128184,6560,8790
3052.0,-15617,-128226,6607,8884
3054.0,-15856,-128302,6595,8901
3056.0,-15722,-128317,6527,8836
3058.0,-15666,-128260,6576,8869
3060.0,-15830,-128214,6702,8953
3062.0,-15873,-128211,6770,8983
3064.0,-15857,-128246,6794,9017
3066.0,-15950,-128356,6774,9014
3068.0,-15876,-128521,6677,8861
3070.0,-15555,-128619,6595,8692
3072.0,-15374,-128620,6606,8686
3074.0,-15422,-128651,6596,8742
3076.0,-15462,-128777,6478,8711
3078.0,-15568,-128920,6338,8646
3080.0,-15833,-129003,6250,8598
3082.0,-15932,-129065,6168,8471
3084.0,-15731,-129174,6043,8224
3086.0,-15624,-129315,5908,8002
3088.0,-15799,-129431,5822,7947
3090.0,-15963,-129546,5774,7997
3092.0,-15942,-129700,5703,7962
3094.0,-15824,-129808,5606,7803
3096.0,-15713,-129776,5560,7670
3098.0,-15780,-129704,5594,7678
3100.0,-16047,-129719,5619,7748
3102.0,-16154,-129755,5552,7747
3104.03,-16011,-129716,5485,7685
3106.05,-16103,-129672,5567,7686
3108.08,-16408,-129702,5711,7732
3110.1,-16233,-129740,5679,7666
3112.1,-15708,-129719,5537,7537
3114.1,-15744,-129678,5575,7580
3116.1,-16251,-129674,5717,7749
3118.1,-16341,-129690,5651,7777
3120.1,-16061,-129678,5493,7715
3122.1,-15980,-129660,5523,7769
3124.1,-15908,-129709,5565,7813
3126.1,-15627,-129794,5425,7725
3128.1,-15569,-129810,5353,7708
3130.1,-15760,-129792,5448,7763
3132.1,-15642,-129908,5399,7595
3134.1,-15229,-130178,5189,7269
3136.1,-14912,-130414,5128,7097
3138.1,-14643,-130473,5237,7055
3140.1,-14458,-130342,5439,7100
3142.1,-14706,-130039,5910,7512
3144.1,-15123,-129604,6641,8304
3146.1,-15105,-129077,7357,9108
3148.1,-14838,-128389,8024,9891
3150.1,-14773,-127456,8673,10870
3152.1,-14648,-126387,9018,11879
3154.1,-14248,-125401,8933,12662
3156.1,-14077,-124558,8709,13337
3158.1,-14393,-123780,8467,13984
3160.1,-14736,-123082,8021,14354
3162.1,-14840,-122567,7323,14259
3164.1,-14968,-122261,6399,13713
3166.1,-15326,-122106,5167,12740
3168.1,-16011,-122040,3778,11465
3170.1,-17171,-122070,2622,10179
3172.1,-18531,-122335,1796,9047
3174.1,-19274,-122994,1109,8020
3176.1,-18959,-123925,584,7106
3178.1,-18156,-124786,478,6468
3180.1,-17741,-125444,859,6213
3182.1,-17799,-126023,1488,6247
3184.1,-17649,-126522,2097,6374
3186.1,-16982,-126873,2601,6473
3188.1,-16399,-127246,3057,6564
3190.1,-16411,-127764,3506,6724
3192.1,-16594,-128179,3927,6950
3194.1,-16418,-128339,4292,7119
3196.1,-16138,-128527,4581,7145
3198.1,-16129,-128903,4784,7110
3200.1,-16142,-129198,4903,7129
3202.1,-15883,-129265,4957,7159
3204.1,-15558,-129309,4983,7121
3206.1,-15437,-129427,5020,7093
3208.1,-15483,-129503,5083,7169
3210.1,-15489,-129548,5151,7275
3212.1,-15274,-129639,5173,7293
3214.1,-15001,-129683,5158,7247
3216.1,-15190,-129604,5222,7268
3218.1,-15805,-129518,5400,7371
3220.1,-15969,-129525,5462,7383
3222.1,-15445,-129557,5262,7239
3224.1,-15244,-129537,5107,7189
3226.1,-15793,-129493,5256,7378
3228.1,-16066,-129481,5399,7493
3230.1,-15508,-129495,5254,7315
3232.1,-15052,-129462,5151,7174
3234.1,-15320,-129360,5354,7316
3236.1,-15625,-129290,5521,7450
3238.1,-15452,-129337,5406,7363
3240.1,-15254,-129439,5273,7262
3242.1,-15361,-129506,5283,7250
3244.1,-15499,-129530,5290,7209
3246.1,-15533,-129501,5294,7203
3248.1,-15605,-129406,5398,7336
3250.1,-15679,-129349,5504,7452
3252.1,-15654,-129395,5517,7440
3254.1,-15559,-129402,5504,7420
3256.1,-15358,-129286,5466,7412
3258.1,-15051,-129212,5357,7318
3260.1,-14905,-129270,5284,7227
3262.1,-15078,-129292,5345,7283
3264.1,-15303,-129211,5439,7386
3266.1,-15327,-129195,5448,7364
3268.1,-15187,-129255,5390,7237
3270.1,-14977,-129211,5349,7132
3272.1,-14810,-129091,5363,7119
3274.1,-14888,-129078,5403,7204
3276.1,-15169,-129117,5447,7344
3278.1,-15258,-129049,5499,7429
3280.1,-14968,-128974,5490,7353
3282.1,-14644,-129037,5369,7197
3284.1,-14675,-129108,5307,7204
3286.1,-14951,-129039,5445,7416
3288.1,-15102,-128925,5584,7566
3290.1,-15066,-128861,5540,7509
3292.1,-15036,-128794,5494,7414
3294.1,-15023,-128735,5559,7391
3296.1,-14968,-128779,5561,7379
3298.1,-15075,-128863,5515,7434
3300.1,-15384,-128837,5614,7611
3302.1,-15385,-128732,5731,7686
3304.1,-14803,-128695,5624,7516
3306.1,-14278,-128731,5457,7375
3308.1,-14421,-128721,5483,7505
3310.1,-14776,-128642,5576,7698
3312.1,-14656,-128572,5543,7686
3314.1,-14388,-128526,5522,7607
3316.1,-14657,-128459,5692,7718
3318.1,-15207,-128396,5910,7933
3320.1,-15349,-128419,5940,7969
3322.1,-15161,-128485,5841,7841
3324.1,-15127,-128456,5839,7816
3326.1,-15164,-128342,5934,7933
3328.1,-14944,-128295,5948,7971
3330.1,-14565,-128335,5861,7874
3332.1,-14286,-128331,5810,7804
3334.1,-14156,-128244,5832,7820
3336.1,-14189,-128157,5864,7856
3338.1,-14389,-128102,5896,7891
3340.1,-14578,-128048,5944,7934
3342.1,-14615,-127969,5988,7963
3344.1,-14604,-127870,6009,7981
3346.1,-14617,-127809,5981,7968
3348.1,-14508,-127843,5889,7866
3350.1,-14229,-127881,5815,7764
3352.1,-14014,-127775,5868,7844
3354.1,-14048,-127589,6002,8037
3356.1,-14224,-127506,6085,8078
3358.1,-14372,-127504,6115,7978
3360.1,-14450,-127435,6169,8004
3362.1,-14440,-127323,6219,8198
3364.1,-14340,-127264,6196,8354
3366.1,-14241,-127211,6155,8416
3368.1,-14179,-127117,6200,8491
3370.1,-14097,-127069,6298,8557
3372.1,-14079,-127083,6348,8536
3374.1,-14203,-127019,6359,8512
3376.1,-14236,-126848,6385,8567
3378.1,-14002,-126722,6394,8608
3380.1,-13849,-126707,6370,8591
3382.1,-14054,-126697,6397,8622
3384.1,-14229,-126651,6477,8690
3386.1,-14061,-126634,6532,8686
3388.1,-13979,-126653,6600,8692
3390.1,-14259,-126655,6724,8811
3392.1,-14355,-126641,6758,8879
3394.1,-13982,-126634,6655,8794
3396.1,-13795,-126616,6641,8792
3398.1,-14132,-126595,6790,8960
3400.1,-14320,-126607,6839,9015
3402.1,-13959,-126643,6683,8835
3404.1,-13592,-126681,6522,8648
3406.1,-13589,-126731,6483,8584
3408.1,-13694,-126777,6523,8589
3410.1,-13872,-126773,6627,8673
3412.1,-14321,-126754,6758,8811
3414.1,-14753,-126812,6824,8851
3416.1,-14719,-126930,6777,8730
3418.1,-14338,-127001,6612,8527
3420.1,-14072,-127003,6384,8311
3422.1,-14149,-127013,6269,8167
3424.1,-14443,-127062,6343,8169
3426.1,-14606,-127107,6398,8233
3428.1,-14435,-127111,6307,8247
3430.1,-14203,-127086,6240,8263
3432.1,-14269,-127080,6304,8344
3434.1,-14517,-127130,6366,8405
3436.1,-14580,-127200,6343,8326
3438.1,-14387,-127210,6274,8107
3440.1,-14179,-127163,6175,7897
3442.1,-14180,-127156,6082,7865
3444.1,-14370,-127216,6078,7974
3446.1,-14493,-127254,6139,8029
3448.1,-14379,-127217,6155,7985
3450.1,-14210,-127180,6116,7966
3452.1,-14250,-127197,6114,7996
3454.1,-14407,-127214,6179,8020
3456.1,-14391,-127178,6222,8056
3458.1,-14224,-127121,6173,8114
3460.1,-14218,-127096,6120,8155
3462.1,-14406,-127095,6158,8193
3464.1,-14440,-127076,6201,8240
3466.1,-14242,-127036,6188,8256
3468.1,-14155,-127023,6233,8253
3470.1,-14262,-127060,6341,8267
3472.1,-14260,-127075,6332,8258
3474.1,-14140,-127006,6251,8227
3476.1,-14167,-126921,6307,8256
3478.1,-14252,-126909,6411,8312
3480.1,-14167,-126943,6348,8268
3482.1,-14091,-126975,6231,8155
3484.1,-14204,-127029,6237,8099
3486.1,-14296,-127089,6277,8127
3488.1,-14267,-127068,6297,8212
3490.1,-14304,-126973,6395,8331
3492.1,-14337,-126910,6489,8383
3494.1,-14155,-126910,6392,8285
3496.1,-13914,-126907,6190,8130
3498.1,-13824,-126875,6101,8060
3500.1,-13804,-126839,6162,8084
3502.1,-13912,-126805,6309,8163
3504.1,-14341,-126765,6479,8282
3506.1,-14756,-126740,6531,8355
3508.1,-14635,-126764,6392,8287
3510.1,-14188,-126849,6231,8147
3512.1,-13971,-126948,6222,8087
3514.1,-13971,-126978,6289,8119
3516.1,-13926,-126921,6300,8155
3518.1,-13908,-126864,6266,8166
3520.1,-14020,-126863,6249,8191
3522.1,-14186,-126856,6280,8263
3524.1,-14394,-126803,6371,8378
3526.1,-14507,-126774,6427,8433
3528.1,-14187,-126792,6310,8303
3530.1,-13590,-126769,6118,8073
3532.1,-13389,-126685,6111,7983
3534.1,-13750,-126662,6261,8054
3536.1,-14157,-126732,6316,8082
3538.1,-14333,-126768,6275,8023
3540.1,-14397,-126705,6306,7999
3542.1,-14336,-126642,6358,8000
3544.1,-14115,-126641,6304,7954
3546.1,-13933,-126634,6228,7943
3548.1,-13916,-126585,6245,8065
3550.1,-13960,-126543,6324,8254
3552.1,-13950,-126521,6403,8403
3554.1,-13828,-126465,6452,8473
3556.1,-13676,-126347,6493,8509
3558.1,-13775,-126200,6626,8613
3560.1,-14136,-126101,6827,8752
3562.1,-14323,-126123,6881,8753
3564.1,-14166,-126223,6760,8628
3566.1,-13974,-126263,6696,8575
3568.1,-13826,-126226,6709,8565
3570.1,-13587,-126262,6629,8438
3572.1,-13489,-126406,6542,8318
3574.1,-13723,-126468,6624,8375
3576.1,-13981,-126349,6783,8488
3578.1,-14094,-126192,6883,8544
3580.1,-14179,-126106,6921,8609
3582.1,-14000,-125994,6857,8631
3584.1,-13444,-125787,6740,8559
3586.1,-13208,-125594,6796,8602
3588.1,-13675,-125521,6998,8820
3590.1,-14075,-125536,7022,8908
3592.1,-13898,-125569,6854,8757
3594.1,-13716,-125589,6776,8629
3596.1,-13909,-125596,6827,8640
3598.1,-14127,-125609,6879,8683
3600.1,-14172,-125633,6952,8739
3602.1,-14038,-125630,6998,8783
3604.1,-13564,-125606,6847,8698
3606.1,-13043,-125664,6601,8553
3608.1,-13147,-125833,6553,8564
3610.1,-13667,-125983,6681,8696
3612.1,-13684,-126031,6704,8699
3614.1,-13156,-126053,6573,8532
3616.1,-12890,-126111,6500,8401
3618.1,-13101,-126202,6543,8385
3620.1,-13340,-126364,6511,8338
3622.1,-13490,-126565,6332,8195
3624.1,-13739,-126644,6208,8116
3626.1,-14015,-126612,6242,8160
3628.1,-14125,-126701,6241,8123
3630.1,-14049,-126943,6084,7898
3632.1,-13872,-127095,5903,7676
3634.1,-13738,-127073,5814,7606
3636.1,-13752,-127026,5786,7603
3638.1,-13788,-127012,5793,7581
3640.1,-13745,-126992,5829,7578
3642.1,-13848,-127019,5862,7609
3644.1,-14145,-127134,5876,7602
3646.1,-14203,-127241,5827,7499
3648.1,-13910,-127291,5687,7385
3650.1,-13802,-127352,5607,7426
3652.1,-14057,-127427,5729,7634
3654.1,-14156,-127410,5895,7806
3656.1,-13931,-127298,5905,7836
3658.1,-13804,-127226,5872,7833
3660.1,-13869,-127242,5920,7850
3662.1,-13872,-127239,5933,7813
3664.1,-13875,-127164,5875,7741
3666.1,-13939,-127124,5873,7699
3668.1,-13797,-127230,5872,7606
3670.1,-13526,-127463,5733,7412
3672.1,-13564,-127716,5601,7255
3674.1,-13761,-127914,5654,7210
3676.1,-13631,-128064,5726,7162
3678.1,-13387,-128139,5694,7129
3680.1,-13421,-128032,5833,7322
3682.1,-13409,-127740,6298,7753
3684.1,-13050,-127421,6813,8213
3686.1,-12769,-127052,7272,8736
3688.1,-12814,-126350,7955,9587
3690.1,-12740,-125254,8801,10714
3692.1,-12327,-124099,9307,11733
3694.1,-12003,-123164,9333,12497
3696.1,-12026,-122415,9146,13139
3698.1,-12110,-121717,8772,13657
3700.1,-12085,-121017,8139,13943
3702.1,-12261,-120377,7479,14018
3704.1,-12885,-119958,6860,13812
3706.1,-13738,-119807,5938,13102
3708.1,-14524,-119739,4657,11936
3710.1,-15294,-119660,3450,10675
3712.1,-16120,-119808,2537,9514
3714.1,-16643,-120443,1752,8373
3716.1,-16519,-121453,1109,7306
3718.1,-16165,-122453,926,6617
3720.1,-16244,-123180,1339,6479
3722.1,-16455,-123693,2019,6612
3724.1,-15982,-124198,2527,6583
3726.1,-15114,-124751,2851,6424
3728.1,-14885,-125241,3297,6508
3730.1,-15179,-125612,3846,6817
3732.1,-15034,-125928,4210,6986
3734.1,-14533,-126225,4460,7042
3736.1,-14424,-126444,4867,7257
3738.1,-14473,-126566,5263,7467
3740.1,-14118,-126710,5344,7387
3742.1,-13768,-126971,5287,7226
3744.1,-13905,-127220,5389,7271
3746.1,-14090,-127268,5568,7375
3748.1,-13918,-127161,5664,7370
3750.1,-13656,-127097,5701,7356
3752.1,-13504,-127145,5668,7373
3754.1,-13399,-127235,5568,7370
3756.1,-13485,-127301,5580,7432
3758.1,-13785,-127293,5752,7558
3760.1,-13883,-127225,5837,7526
3762.1,-13634,-127210,5723,7313
3764.1,-13473,-127283,5624,7206
3766.1,-13552,-127299,5662,7314
3768.1,-13504,-127217,5701,7426
3770.1,-13309,-127233,5668,7403
3772.1,-13349,-127403,5648,7314
3774.1,-13586,-127462,5691,7271
3776.1,-13716,-127283,5783,7342
3778.1,-13829,-127146,5897,7490
3780.1,-13953,-127240,5942,7540
3782.1,-13720,-127312,5859,7435
3784.1,-13246,-127193,5765,7373
3786.1,-13127,-127143,5751,7440
3788.1,-13270,-127303,5710,7453
3790.1,-13191,-127372,5655,7414
3792.1,-13218,-127186,5811,7581
3794.13,-13742,-127022,6127,7885
3796.15,-14146,-127061,6222,7926
3798.18,-13914,-127126,6030,7694
3800.2,-13527,-127086,5880,7559
3802.2,-13352,-127044,5871,7575
3804.2,-13220,-127073,5837,7527
3806.2,-13266,-127108,5829,7489
3808.2,-13637,-127109,5970,7627
3810.2,-13875,-127110,6100,7773
3812.2,-13778,-127132,6088,7768
3814.2,-13747,-127119,6074,7750
3816.2,-13726,-127020,6085,7746
3818.2,-13321,-126914,5959,7605
3820.2,-12914,-126911,5773,7423
3822.2,-13024,-126945,5761,7425
3824.2,-13241,-126881,5876,7529
3826.2,-13147,-126772,5925,7568
3828.2,-13176,-126760,5942,7615
3830.2,-13540,-126803,6025,7704
3832.2,-13690,-126785,6100,7689
3834.2,-13409,-126746,6080,7567
3836.2,-13144,-126774,6012,7486
3838.2,-13134,-126824,5984,7480
3840.2,-13243,-126803,6032,7524
3842.2,-13325,-126707,6094,7629
3844.2,-13221,-126614,6055,7722
3846.2,-12953,-126608,5961,7743
3848.2,-12950,-126698,6008,7813
3850.2,-13350,-126779,6193,7995
3852.2,-13580,-126756,6286,8096
3854.2,-13275,-126679,6203,7984
3856.2,-12801,-126645,6076,7779
3858.2,-12548,-126641,5990,7615
3860.2,-12639,-126617,5981,7550
3862.2,-13160,-126590,6118,7639
3864.2,-13746,-126583,6297,7788
3866.2,-13675,-126573,6271,7759
3868.2,-13066,-126554,6086,7575
3870.2,-12822,-126539,6064,7553
3872.2,-13084,-126504,6247,7763
3874.2,-13195,-126427,6370,7940
3876.2,-13080,-126339,6397,8007
3878.2,-13085,-126254,6497,8123
3880.2,-13032,-126152,6591,8256
3882.2,-12788,-126087,6508,8268
3884.2,-12818,-126135,6412,8274
3886.2,-13161,-126196,6519,8406
3888.2,-13137,-126104,6669,8513
3890.2,-12662,-125908,6660,8490
3892.2,-12460,-125796,6612,8491
3894.2,-12727,-125770,6661,8591
3896.2,-12919,-125689,6694,8655
3898.2,-12807,-125568,6636,8622
3900.2,-12654,-125524,6582,8554
3902.2,-12556,-125534,6575,8464
3904.2,-12477,-125518,6580,8388
3906.2,-12642,-125513,6635,8448
3908.2,-13133,-125532,6781,8676
3910.2,-13403,-125454,6916,8892
3912.2,-13005,-125284,6891,8897
3914.2,-12522,-125218,6756,8737
3916.2,-12732,-125260,6740,8674
3918.2,-13188,-125174,6889,8798
3920.2,-12959,-124973,6943,8857
3922.2,-12350,-124951,6780,8694
3924.2,-12304,-125101,6679,8571
3926.2,-12708,-125089,6845,8727
3928.2,-12823,-124905,7052,8955
3930.2,-12660,-124881,7069,8987
3932.2,-12645,-125040,7030,8920
3934.2,-12726,-125060,7122,8952
3936.2,-12664,-124892,7254,9016
3938.2,-12542,-124830,7262,8964
3940.2,-12576,-124971,7176,8850
3942.2,-12776,-125074,7126,8828
3944.2,-12899,-125003,7125,8886
3946.2,-12745,-124926,7080,8858
3948.2,-12548,-125003,6995,8699
3950.2,-12656,-125133,6975,8564
3952.2,-12909,-125161,7024,8566
3954.2,-12955,-125138,7035,8615
3956.2,-12900,-125201,6971,8566
3958.2,-12958,-125332,6885,8408
3960.2,-12967,-125399,6852,8263
3962.2,-12856,-125381,6919,8257
3964.2,-12910,-125415,6987,8358
3966.2,-13157,-125588,6867,8383
3968.2,-13267,-125782,6620,8268
3970.2,-13206,-125833,6541,8165
3972.2,-13198,-125750,6656,8166
3974.2,-13158,-125649,6707,8180
3976.2,-12965,-125572,6668,8198
3978.2,-12932,-125528,6716,8328
3980.2,-13268,-125570,6807,8498
3982.2,-13561,-125680,6790,8538
3984.2,-13445,-125735,6742,8480
3986.2,-13176,-125690,6766,8449
3988.2,-13090,-125643,6766,8418
3990.2,-13125,-125652,6701,8337
3992.2,-13091,-125650,6667,8253
3994.2,-12945,-125616,6651,8183
3996.2,-12830,-125624,6596,8129
3998.2,-12970,-125686,6605,8161
4000.2,-13253,-125708,6710,8237
4002.2,-13218,-125653,6714,8175
4004.2,-12882,-125595,6570,8003
4006.2,-12804,-125605,6511,7954
4008.2,-13013,-125672,6588,8033
4010.2,-13042,-125756,6598,8051
4012.2,-12983,-125809,6559,8021
4014.2,-13134,-125792,6636,8058
4016.2,-13139,-125723,6697,8064
4018.2,-12854,-125653,6591,7984
4020.2,-12974,-125594,6552,8028
4022.2,-13631,-125554,6731,8252
4024.2,-13918,-125547,6821,8354
4026.2,-13526,-125543,6671,8186
4028.2,-13089,-125496,6562,7971
4030.2,-12813,-125462,6566,7850
4032.2,-12526,-125514,6466,7775
4034.2,-12607,-125578,6391,7835
4036.2,-13224,-125546,6618,8105
4038.2,-13550,-125472,6883,8311
4040.2,-13104,-125477,6785,8226
4042.2,-12660,-125527,6541,8091
4044.2,-12847,-125506,6542,8162
4046.2,-13164,-125442,6666,8266
4048.2,-13096,-125470,6637,8206
4050.2,-12916,-125585,6546,8110
4052.2,-12925,-125627,6563,8125
4054.2,-12974,-125546,6635,8175
4056.2,-12980,-125466,6681,8184
4058.2,-13075,-125458,6702,8178
4060.2,-13179,-125470,6668,8142
4062.2,-13097,-125483,6561,8016
4064.2,-12930,-125520,6466,7843
4066.2,-12896,-125544,6458,7751
4068.2,-12949,-125517,6512,7790
4070.2,-12955,-125484,6570,7886
4072.2,-13019,-125497,6613,7968
4074.2,-13261,-125546,6636,8045
4076.2,-13471,-125600,6632,8105
4078.2,-13383,-125618,6599,8085
4080.2,-13168,-125571,6570,8011
4082.2,-13174,-125512,6585,7972
4084.2,-13295,-125523,6615,7953
4086.2,-13159,-125561,6585,7879
4088.2,-12858,-125506,6511,7806
4090.2,-12767,-125343,6509,7851
4092.2,-12806,-125184,6604,7970
4094.2,-12639,-125114,6661,8009
4096.2,-12441,-125111,6629,7944
4098.2,-12690,-125095,6668,7951
4100.2,-13324,-125029,6893,8144
4102.2,-13713,-124953,7117,8338
4104.2,-13458,-124916,7098,8282
4106.2,-12859,-124908,6891,8061
4108.2,-12516,-124910,6734,7954
4110.2,-12605,-124941,6714,7990
4112.2,-12810,-124978,6765,8031
4114.2,-12931,-124936,6836,8095
4116.2,-13072,-124801,6897,8242
4118.2,-13177,-124660,6929,8351
4120.2,-13011,-124546,6959,8320
4122.2,-12724,-124421,7011,8257
4124.2,-12709,-124286,7069,8286
4126.2,-12876,-124184,7104,8365
4128.2,-12865,-124122,7081,8386
4130.2,-12803,-124103,7007,8342
4132.2,-12959,-124150,6961,8297
4134.2,-13100,-124239,6964,8264
4136.2,-13011,-124300,6957,8230
4138.2,-12916,-124299,6939,8225
4140.2,-12814,-124260,6928,8229
4142.2,-12501,-124245,6880,8179
4144.2,-12340,-124302,6837,8130
4146.2,-12671,-124414,6894,8144
4148.2,-12937,-124520,6948,8099
4150.2,-12733,-124612,6889,7962
4152.2,-12603,-124699,6850,7946
4154.2,-12750,-124739,6874,8051
4156.2,-12607,-124741,6776,7978
4158.2,-12271,-124801,6591,7740
4160.2,-12470,-124961,6540,7658
4162.2,-13064,-125117,6549,7739
4164.2,-13362,-125197,6458,7755
4166.2,-13424,-125271,6391,7716
4168.2,-13528,-125426,6385,7672
4170.2,-13374,-125634,6220,7473
4172.2,-12866,-125810,5934,7150
4174.2,-12531,-125900,5816,6965
4176.2,-12554,-125877,5845,6944
4178.2,-12602,-125756,5811,6917
4180.2,-12722,-125651,5773,6904
4182.2,-13177,-125678,5842,6964
4184.2,-13520,-125770,5856,6947
4186.2,-13142,-125773,5717,6783
4188.2,-12506,-125701,5625,6700
4190.2,-12563,-125675,5738,6864
4192.2,-13202,-125682,5935,7113
4194.2,-13530,-125639,6056,7211
4196.2,-13309,-125598,6063,7134
4198.2,-12994,-125638,5954,7003
4200.2,-12820,-125686,5776,6916
4202.2,-12796,-125661,5691,6933
4204.2,-12996,-125629,5804,7061
4206.2,-13223,-125685,5957,7185
4208.2,-13075,-125837,5905,7134
4210.2,-12643,-126049,5663,6901
4212.2,-12439,-126276,5477,6664
4214.2,-12567,-126448,5488,6541
4216.2,-12654,-126522,5631,6482
4218.2,-12549,-126505,5835,6481
4220.2,-12450,-126373,6119,6665
4222.2,-12371,-126069,6487,7075
4224.2,-12111,-125588,6949,7633
4226.2,-11805,-124962,7603,8367
4228.2,-11764,-124193,8415,9320
4230.2,-11785,-123290,9028,10272
4232.2,-11479,-122335,9153,10983
4234.2,-11165,-121400,9001,11606
4236.2,-11382,-120522,8872,12362
4238.2,-11857,-119787,8616,13017
4240.2,-12008,-119250,8016,13217
4242.2,-11967,-118818,7243,13011
4244.2,-12218,-118408,6430,12543
4246.2,-12890,-118109,5389,11702
4248.2,-13897,-118011,4129,10504
4250.2,-15049,-118101,3006,9278
4252.2,-15908,-118463,2141,8185
4254.2,-16140,-119239,1395,7117
4256.2,-15839,-120278,867,6144
4258.2,-15270,-121185,801,5535
4260.2,-14706,-121786,1183,5352
4262.2,-14403,-122235,1801,5420
4264.2,-14271,-122703,2430,5549
4266.2,-14015,-123204,2896,5638
4268.2,-13754,-123667,3238,5719
4270.2,-13734,-124016,3639,5854
4272.2,-13684,-124254,4063,5962
4274.2,-13347,-124473,4343,5981
4276.2,-13051,-124736,4562,6049
4278.2,-13005,-125014,4846,6199
4280.2,-12956,-125267,5081,6251
4282.2,-12896,-125457,5193,6217
4284.2,-13061,-125531,5294,6306
4286.2,-13301,-125525,5391,6455
4288.2,-13313,-125563,5406,6439
4290.2,-13087,-125673,5377,6295
4292.2,-12745,-125760,5347,6193
4294.2,-12586,-125777,5334,6202
4296.2,-12970,-125752,5442,6369
4298.2,-13546,-125702,5627,6596
4300.2,-13507,-125684,5614,6605
4302.2,-12962,-125765,5392,6396
4304.2,-12699,-125854,5281,6290
4306.2,-12768,-125828,5357,6352
4308.2,-12774,-125773,5404,6369
4310.2,-12867,-125824,5387,6332
4312.2,-13090,-125886,5384,6328
4314.2,-12982,-125825,5351,6282
4316.2,-12663,-125730,5308,6184
4318.2,-12720,-125703,5343,6128
4320.2,-12909,-125660,5366,6054
4322.2,-12747,-125571,5298,5931
4324.2,-12663,-125571,5274,5922
4326.2,-12919,-125674,5310,6007
4328.2,-12848,-125700,5245,5977
4330.2,-12404,-125603,5164,5925
4332.2,-12436,-125518,5279,6086
4334.2,-12894,-125484,5483,6304
4336.2,-12959,-125452,5529,6300
4338.2,-12736,-125463,5456,6165
4340.2,-12770,-125508,5422,6136
4342.2,-12816,-125448,5435,6219
4344.2,-12650,-125331,5428,6280
4346.2,-12676,-125393,5371,6236
4348.2,-12861,-125571,5290,6130
4350.2,-12720,-125545,5276,6110
4352.2,-12400,-125322,5348,6201
4354.2,-12336,-125200,5382,6231
4356.2,-12436,-125216,5348,6165
4358.2,-12554,-125193,5377,6174
4360.2,-12681,-125149,5432,6215
4362.2,-12561,-125181,5329,6063
4364.2,-12349,-125219,5183,5852
4366.2,-12750,-125208,5271,5926
4368.2,-13451,-125223,5475,6163
4370.2,-13241,-125245,5458,6158
4372.2,-12326,-125179,5288,5982
4374.2,-12023,-125072,5262,5994
4376.2,-12340,-125023,5361,6172
4378.2,-12466,-124999,5432,6299
4380.2,-12555,-124975,5493,6372
4382.2,-12714,-125029,5454,6332
4384.2,-12281,-125150,5182,6052
4386.2,-11612,-125154,4995,5840
4388.2,-11915,-124969,5274,6095
4390.2,-12853,-124788,5707,6520
4392.2,-13119,-124776,5784,6596
4394.2,-12765,-124835,5621,6422
4396.2,-12530,-124835,5518,6304
4398.2,-12364,-124857,5406,6188
4400.2,-12254,-124978,5278,6068
4402.2,-12551,-125055,5340,6116
4404.2,-12837,-124956,5501,6226
4406.2,-12473,-124754,5512,6191
4408.2,-11969,-124580,5460,6141
4410.2,-12032,-124486,5524,6208
4412.2,-12274,-124472,5602,6265
4414.2,-12194,-124490,5597,6286
4416.2,-12102,-124487,5576,6370
4418.2,-12236,-124489,5543,6425
4420.2,-12321,-124515,5487,6367
4422.2,-12290,-124470,5503,6350
4424.2,-12296,-124301,5610,6440
4426.2,-12214,-124126,5680,6482
4428.2,-11984,-124065,5673,6434
4430.2,-11876,-124063,5669,6417
4432.2,-11952,-124033,5691,6454
4434.2,-12013,-123989,5696,6488
4436.2,-12101,-123940,5691,6533
4438.2,-12260,-123806,5701,6591
4440.2,-12172,-123585,5689,6580
4442.2,-11758,-123426,5620,6474
4444.2,-11498,-123402,5569,6400
4446.2,-11627,-123408,5616,6464
4448.2,-11845,-123388,5692,6608
4450.2,-12013,-123386,5724,6758
4452.2,-12248,-123362,5799,6922
4454.2,-12366,-123266,5921,7011
4456.2,-12139,-123208,5896,6879
4458.2,-11889,-123252,5754,6697
4460.2,-11983,-123242,5784,6777
4462.2,-12109,-123118,5947,6970
4464.2,-11851,-123084,5898,6892
4466.2,-11509,-123203,5693,6672
4468.2,-11556,-123242,5708,6720
4470.2,-11807,-123103,5946,6973
4472.2,-11878,-122973,6114,7103
4474.2,-11874,-122961,6150,7112
4476.2,-11969,-122981,6131,7128
4478.2,-11963,-123011,6045,7076
4480.2,-11796,-123083,5952,6948
4482.2,-11845,-123130,5965,6905
4484.2,-12213,-123089,6038,6956
4486.2,-12361,-123027,6046,6928
4488.2,-11995,-123029,5982,6779
4490.2,-11685,-123133,5907,6659
4492.2,-11955,-123355,5840,6654
4494.2,-12375,-123576,5779,6677
4496.2,-12352,-123573,5757,6662
4498.2,-12124,-123329,5824,6683
4500.2,-12156,-123133,5914,6747
4502.2,-12339,-123205,5867,6713
4504.2,-12432,-123422,5698,6570
4506.2,-12452,-123541,5605,6492
4508.2,-12349,-123502,5596,6483
4510.2,-12113,-123422,5510,6398
4512.2,-12019,-123403,5397,6282
4514.2,-12134,-123444,5390,6244
4516.2,-12151,-123501,5385,6189
4518.2,-12052,-123557,5285,6057
4520.2,-12120,-123610,5219,5987
4522.2,-12292,-123644,5246,6006
4524.2,-12326,-123663,5253,5982
4526.2,-12338,-123687,5241,5941
4528.2,-12460,-123696,5293,5987
4530.2,-12498,-123637,5342,6040
4532.2,-12372,-123521,5300,6002
4534.23,-12292,-123456,5230,5947
4536.25,-12276,-123485,5203,5935
4538.28,-12172,-123518,5189,5922
4540.3,-12097,-123489,5175,5917
4542.3,-12176,-123466,5183,5962
4544.3,-12216,-123499,5200,6001
4546.3,-12241,-123524,5223,5999
4548.3,-12602,-123509,5290,6035
4550.3,-13037,-123523,5340,6087
4552.3,-12793,-123575,5232,5984
4554.3,-12071,-123580,5030,5783
4556.3,-11847,-123535,4998,5774
4558.3,-12109,-123516,5133,5940
4560.3,-11999,-123502,5140,5953
4562.3,-11596,-123424,5005,5825
4564.3,-11723,-123343,5024,5883
4566.3,-12328,-123363,5174,6073
4568.3,-12657,-123437,5167,6059
4570.3,-12564,-123445,5060,5896
4572.3,-12423,-123399,5100,5862
4574.3,-12305,-123376,5169,5903
4576.3,-12123,-123373,5063,5863
4578.3,-12008,-123361,4949,5843
4580.3,-12057,-123373,5034,5913
4582.3,-12149,-123395,5187,5967
4584.3,-12167,-123358,5213,5980
4586.3,-12099,-123318,5110,5987
4588.3,-12019,-123400,4996,5944
4590.3,-12075,-123539,4975,5881
4592.3,-12288,-123564,5033,5895
4594.3,-12459,-123493,5062,5934
4596.3,-12417,-123447,5031,5911
4598.3,-12166,-123406,4966,5846
4600.3,-11845,-123335,4842,5754
4602.3,-11752,-123310,4742,5689
4604.3,-12027,-123344,4815,5762
4606.3,-12239,-123347,4900,5858
4608.3,-11980,-123337,4755,5749
4610.3,-11715,-123382,4599,5590
4612.3,-12055,-123408,4735,5688
4614.3,-12594,-123324,4940,5891
4616.3,-12635,-123202,4922,5890
4618.3,-12382,-123140,4852,5792
4620.3,-12307,-123121,4920,5811
4622.3,-12231,-123090,4983,5869
4624.3,-12003,-123011,4977,5884
4626.3,-12010,-122881,5032,5941
4628.3,-12242,-122764,5110,6008
4630.3,-12116,-122698,5050,5953
4632.3,-11697,-122636,4935,5847
4634.3,-11656,-122587,4960,5841
4636.3,-11903,-122643,5055,5866
4638.3,-11865,-122789,5031,5802
4640.3,-11796,-122903,4942,5745
4642.3,-12112,-122940,4944,5801
4644.3,-12275,-122892,4985,5857
4646.3,-11887,-122712,4983,5837
4648.3,-11596,-122468,5033,5858
4650.3,-11780,-122343,5142,5941
4652.3,-11970,-122343,5166,5962
4654.3,-12066,-122280,5178,5996
4656.3,-12340,-122111,5323,6175
4658.3,-12414,-122005,5364,6279
4660.3,-11960,-122044,5078,6067
4662.3,-11664,-122132,4813,5796
4664.3,-12022,-122190,4904,5788
4666.3,-12336,-122223,5055,5894
4668.3,-12047,-122199,4982,5906
4670.3,-11734,-122098,4939,5963
4672.3,-11886,-122023,5079,6111
4674.3,-11988,-122075,5094,6090
4676.3,-11624,-122211,4873,5851
4678.3,-11305,-122354,4735,5688
4680.3,-11493,-122473,4822,5736
4682.3,-11783,-122528,4913,5824
4684.3,-11706,-122521,4872,5830
4686.3,-11543,-122571,4804,5804
4688.3,-11714,-122752,4760,5780
4690.3,-12030,-122965,4652,5693
4692.3,-12080,-123122,4459,5512
4694.3,-11882,-123248,4290,5312
4696.3,-11755,-123356,4207,5185
4698.3,-11823,-123424,4146,5129
4700.3,-11908,-123489,4056,5074
4702.3,-11888,-123576,3973,4982
4704.3,-11979,-123614,3962,4910
4706.3,-12365,-123563,4052,4940
4708.3,-12667,-123502,4144,5000
4710.3,-12381,-123488,4050,4897
4712.3,-11773,-123453,3809,4676
4714.3,-11589,-123368,3709,4630
4716.3,-11950,-123341,3816,4796
4718.3,-12318,-123447,3896,4909
4720.3,-12367,-123568,3876,4897
4722.3,-12184,-123562,3872,4905
4724.3,-11917,-123458,3868,4928
4726.3,-11747,-123371,3823,4926
4728.3,-11831,-123364,3809,4964
4730.3,-12039,-123444,3794,4989
4732.3,-12122,-123547,3719,4916
4734.3,-12087,-123586,3705,4882
4736.3,-12006,-123598,3753,4918
4738.3,-11820,-123698,3659,4806
4740.3,-11659,-123888,3488,4571
4742.3,-11750,-124105,3490,4473
4744.3,-11875,-124318,3570,4452
4746.3,-11670,-124424,3575,4351
4748.3,-11344,-124310,3716,4378
4750.3,-11220,-124050,4122,4711
4752.3,-11065,-123718,4608,5209
4754.3,-10767,-123198,5174,5862
4756.3,-10779,-122479,5959,6798
4758.3,-11158,-121732,6735,7849
4760.3,-11334,-120935,7164,8782
4762.3,-11162,-119969,7242,9616
4764.3,-10911,-119019,7029,10281
4766.3,-10571,-118325,6482,10587
4768.3,-10340,-117773,5805,10690
4770.3,-10782,-117221,5269,10823
4772.3,-11580,-116806,4661,10672
4774.3,-11820,-116585,3609,9820
4776.3,-11874,-116363,2285,8531
4778.3,-12851,-116116,1156,7354
4780.3,-14349,-116147,259,6315
4782.3,-15085,-116672,-613,5180
4784.3,-15035,-117576,-1309,4082
4786.3,-14828,-118578,-1545,3313
4788.3,-14291,-119431,-1423,2865
4790.3,-13342,-120036,-1135,2649
4792.3,-12765,-120511,-633,2741
4794.3,-12902,-121043,36,3073
4796.3,-13158,-121612,632,3383
4798.3,-13214,-122040,1156,3622
4800.3,-13247,-122283,1734,3901
4802.3,-13115,-122465,2183,4115
4804.3,-12635,-122660,2334,4143
4806.3,-12164,-122864,2434,4146
4808.3,-12034,-123091,2678,4253
4810.3,-12013,-123303,2889,4329
4812.3,-11881,-123402,2952,4314
4814.3,-11860,-123425,2998,4323
4816.3,-12083,-123514,3074,4365
4818.3,-12212,-123661,3110,4346
4820.3,-11972,-123731,3114,4277
4822.3,-11643,-123702,3111,4212
4824.3,-11593,-123657,3101,4166
4826.3,-11711,-123621,3123,4164
4828.3,-11746,-123577,3176,4226
4830.3,-11803,-123559,3186,4302
4832.3,-12005,-123640,3144,4322
4834.3,-12090,-123799,3091,4265
4836.3,-11843,-123860,3049,4203
4838.3,-11518,-123724,3038,4224
4840.3,-11420,-123595,3064,4278
4842.3,-11478,-123668,3081,4257
4844.3,-11572,-123805,3099,4232
4846.3,-11823,-123849,3158,4307
4848.3,-12163,-123882,3187,4350
4850.3,-12136,-123892,3127,4254
4852.3,-11611,-123714,3079,4172
4854.3,-11178,-123490,3108,4195
4856.3,-11258,-123524,3094,4188
4858.3,-11433,-123716,2970,4110
4860.3,-11292,-123741,2877,4100
4862.3,-11225,-123616,2969,4217
4864.3,-11584,-123554,3185,4349
4866.3,-11876,-123525,3289,4358
4868.3,-11670,-123412,3196,4235
4870.3,-11447,-123328,3088,4129
4872.3,-11695,-123437,3081,4126
4874.3,-11985,-123620,3051,4127
4876.3,-11710,-123627,2951,4072
4878.3,-11076,-123492,2906,4045
4880.3,-10718,-123450,2926,4066
4882.3,-10841,-123478,2958,4126
4884.3,-11116,-123368,3056,4283
4886.3,-11187,-123212,3146,4423
4888.3,-11073,-123251,3073,4359
4890.3,-11101,-123352,3008,4279
4892.3,-11368,-123246,3191,4458
4894.3,-11527,-123067,3395,4661
4896.3,-11418,-123090,3344,4586
4898.3,-11396,-123244,3239,4466
4900.3,-11591,-123322,3280,4535
4902.3,-11571,-123323,3294,4576
4904.3,-11251,-123307,3206,4479
4906.3,-11192,-123260,3203,4469
4908.3,-11523,-123213,3290,4568
4910.3,-11730,-123217,3303,4585
4912.3,-11700,-123246,3256,4556
4914.3,-11734,-123267,3227,4595
4916.3,-11694,-123294,3167,4605
4918.3,-11389,-123310,3086,4530
4920.3,-11228,-123275,3111,4508
4922.3,-11378,-123185,3228,4565
4924.3,-11277,-123057,3246,4548
4926.3,-10823,-122939,3119,4437
4928.3,-10731,-122917,3047,4395
4930.3,-11162,-122990,3143,4487
4932.3,-11427,-123031,3249,4586
4934.3,-11267,-123013,3232,4582
4936.3,-11123,-123053,3200,4512
4938.3,-11154,-123114,3238,4464
4940.3,-11095,-123022,3252,4479
4942.3,-10981,-122894,3211,4545
4944.3,-11135,-123040,3212,4591
4946.3,-11459,-123292,3255,4547
4948.3,-11381,-123139,3251,4478
4950.3,-10773,-122647,3195,4499
4952.3,-10326,-122412,3144,4591
4954.3,-10541,-122530,3152,4698
4956.3,-10973,-122555,3261,4850
4958.3,-11069,-122424,3404,5020
4960.3,-10985,-122431,3461,5087
4962.3,-10954,-122522,3446,5053
4964.3,-10794,-122451,3435,5020
4966.3,-10563,-122309,3418,5023
4968.3,-10644,-122281,3393,5050
4970.3,-10904,-122306,3381,5055
4972.3,-10860,-122271,3330,4965
4974.3,-10647,-122175,3260,4864
4976.3,-10731,-122054,3313,4951
4978.3,-10941,-121968,3449,5135
4980.3,-10828,-121937,3470,5167
4982.3,-10592,-121884,3424,5129
4984.3,-10696,-121800,3486,5252
4986.3,-10992,-121798,3563,5423
4988.3,-11033,-121872,3512,5455
4990.3,-10886,-121882,3486,5479
4992.3,-10925,-121823,3633,5610
4994.3,-11060,-121784,3785,5663
4996.3,-10898,-121760,3747,5498
4998.3,-10573,-121770,3579,5260
5000.3,-10615,-121902,3456,5156
5002.3,-10972,-122061,3460,5233
5004.3,-11077,-121993,3590,5422
5006.3,-10890,-121714,3816,5646
5008.3,-10881,-121551,4032,5816
5010.3,-11037,-121649,4061,5801
5012.3,-10972,-121801,3884,5577
5014.3,-10813,-121845,3736,5363
5016.3,-10923,-121862,3761,5337
5018.3,-11119,-121921,3799,5364
5020.3,-11087,-121979,3726,5297
5022.3,-11026,-122049,3670,5241
5024.3,-11167,-122175,3706,5265
5026.3,-11290,-122277,3737,5247
5028.3,-11192,-122271,3707,5146
5030.3,-11041,-122260,3610,5034
5032.3,-11042,-122403,3417,4917
5034.3,-11166,-122660,3215,4806
5036.3,-11231,-122799,3154,4789
5038.3,-11130,-122677,3226,4886
5040.3,-11062,-122465,3341,5023
5042.3,-11310,-122421,3466,5133
5044.3,-11624,-122513,3532,5142
5046.3,-11466,-122507,3450,5016
5048.3,-11022,-122428,3302,4855
5050.3,-10973,-122491,3226,4756
5052.3,-11228,-122656,3182,4667
5054.3,-11211,-122720,3084,4558
5056.3,-11167,-122706,3027,4544
5058.3,-11552,-122742,3104,4650
5060.3,-11714,-122741,3161,4682
5062.3,-11078,-122634,3032,4537
5064.3,-10613,-122581,2891,4432
5066.3,-11165,-122667,2991,4556
5068.3,-11783,-122729,3178,4695
5070.3,-11493,-122679,3119,4565
5072.3,-10975,-122635,2901,4324
5074.3,-11055,-122639,2848,4311
5076.3,-11363,-122613,2943,4490
5078.3,-11419,-122565,2970,4609
5080.3,-11430,-122563,2966,4643
5082.3,-11534,-122588,3025,4655
5084.3,-11506,-122601,3017,4570
5086.3,-11309,-122616,2892,4414
5088.3,-11190,-122622,2849,4389
5090.3,-11271,-122571,2971,4525
5092.3,-11401,-122486,3085,4638
5094.3,-11394,-122451,3083,4655
5096.3,-11295,-122498,3032,4645
5098.3,-11281,-122583,3003,4639
5100.3,-11325,-122652,2996,4636
5102.3,-11273,-122666,2990,4651
5104.3,-11196,-122622,2983,4675
5106.3,-11243,-122569,2983,4700
5108.3,-11297,-122578,2964,4701
5110.3,-11247,-122645,2914,4638
5112.3,-11300,-122675,2923,4583
5114.3,-11542,-122631,3025,4639
5116.3,-11592,-122614,3036,4684
5118.3,-11220,-122689,2861,4573
5120.3,-10859,-122756,2739,4480
5122.3,-10956,-122749,2817,4573
5124.3,-11277,-122746,2899,4675
5126.3,-11401,-122767,2886,4662
5128.3,-11377,-122722,2911,4665
5130.3,-11401,-122628,2940,4682
5132.3,-11397,-122588,2852,4578
5134.3,-11338,-122596,2760,4443
5136.3,-11366,-122596,2759,4418
5138.3,-11426,-122601,2732,4431
5140.3,-11320,-122612,2674,4442
5142.3,-11113,-122581,2733,4525
5144.3,-10981,-122506,2870,4632
5146.3,-10933,-122411,2935,4671
5148.3,-11002,-122311,2944,4701
5150.3,-11263,-122255,2972,4763
5152.3,-11475,-122258,2994,4785
5154.3,-11302,-122220,2973,4745
5156.3,-10956,-122123,2941,4697
5158.3,-10974,-122115,2956,4649
5160.3,-11379,-122224,3047,4598
5162.3,-11645,-122270,3136,4581
5164.3,-11485,-122207,3112,4601
5166.3,-11187,-122206,3006,4603
5168.3,-11110,-122278,2938,4586
5170.3,-11215,-122188,2959,4669
5172.3,-11231,-121897,3039,4899
5174.3,-11103,-121696,3116,5075
5176.3,-11069,-121729,3149,5046
5178.3,-11219,-121771,3173,4991
5180.3,-11227,-121648,3182,5040
5182.3,-10883,-121511,3083,4993
5184.3,-10628,-121514,2960,4821
5186.3,-10927,-121579,3034,4815
5188.3,-11450,-121613,3220,4957
5190.3,-11655,-121663,3234,4924
5192.3,-11586,-121720,3084,4727
5194.3,-11342,-121705,2931,4586
5196.3,-10785,-121656,2763,4479
5198.3,-10326,-121688,2635,4408
5200.3,-10646,-121785,2730,4555
5202.3,-11361,-121862,2962,4831
5204.3,-11467,-121907,3059,4946
5206.3,-11010,-121927,3024,4924
5208.3,-10862,-121948,3032,4969
5210.3,-11211,-122099,3061,5026
5212.3,-11499,-122445,2961,4913
5214.3,-11464,-122781,2716,4658
5216.3,-11322,-122900,2475,4440
5218.3,-11243,-122903,2348,4332
5220.3,-11217,-122973,2265,4241
5222.3,-11260,-123080,2151,4111
5224.3,-11355,-123152,2071,4013
5226.3,-11352,-123220,2024,3941
5228.3,-11216,-123272,1907,3797
5230.3,-11135,-123258,1774,3639
5232.3,-11170,-123245,1752,3593
5234.3,-11264,-123289,1809,3632
5236.3,-11532,-123325,1902,3715
5238.3,-11967,-123376,2019,3830
5240.3,-12139,-123541,1995,3824
5242.3,-11871,-123687,1807,3658
5244.3,-11626,-123600,1755,3603
5246.3,-11636,-123394,1905,3733
5248.3,-11479,-123293,1927,3751
5250.3,-10982,-123266,1748,3564
5252.3,-10672,-123260,1618,3404
5254.33,-10930,-123359,1604,3368
5256.35,-11414,-123466,1652,3427
5258.38,-11676,-123451,1777,3564
5260.4,-11728,-123533,1830,3620
5262.4,-11629,-123839,1652,3465
5264.4,-11247,-124038,1442,3273
5266.4,-10799,-124028,1436,3203
5268.4,-10772,-124146,1571,3179
5270.4,-11005,-124338,1798,3244
5272.4,-10950,-124200,2195,3550
5274.4,-10731,-123828,2680,4023
5276.4,-10696,-123482,3162,4565
5278.4,-10552,-122913,3779,5308
5280.4,-10180,-121963,4577,6312
5282.4,-10131,-121009,5260,7388
5284.4,-10463,-120242,5508,8343
5286.4,-10615,-119483,5305,9092
5288.4,-10663,-118738,4873,9642
5290.4,-11016,-118061,4394,10099
5292.4,-11322,-117281,3846,10458
5294.4,-11216,-116506,3116,10483
5296.4,-11229,-116175,2146,9946
5298.4,-11775,-116254,877,8805
5300.4,-12414,-116267,-660,7160
5302.4,-12895,-116201,-2177,5294
5304.4,-13583,-116515,-3350,3609
5306.4,-14367,-117334,-4135,2338
5308.4,-14527,-118361,-4580,1452
5310.4,-14018,-119393,-4612,882
5312.4,-13625,-120321,-4208,653
5314.4,-13631,-120942,-3505,783
5316.4,-13523,-121249,-2705,1122
5318.4,-13073,-121554,-2017,1418
5320.4,-12610,-122042,-1523,1597
5322.4,-12334,-122574,-1084,1800
5324.4,-12179,-122968,-584,2071
5326.4,-12085,-123145,-105,2305
5328.4,-11956,-123154,270,2489
5330.4,-11773,-123211,568,2656
5332.4,-11719,-123455,791,2739
5334.4,-11788,-123710,923,2729
5336.4,-11688,-123813,979,2710
5338.4,-11432,-123879,962,2678
5340.4,-11306,-123945,922,2640
5342.4,-11262,-123864,990,2733
5344.4,-11173,-123716,1172,2950
5346.4,-11291,-123790,1304,3059
5348.4,-11644,-124057,1303,2974
5350.4,-11694,-124190,1214,2838
5352.4,-11324,-124110,1107,2750
5354.4,-11184,-124075,1065,2727
5356.4,-11496,-124199,1116,2774
5358.4,-11629,-124272,1168,2838
5360.4,-11336,-124147,1191,2885
5362.4,-11183,-124005,1273,2948
5364.4,-11338,-124024,1340,2965
5366.4,-11255,-124077,1226,2817
5368.4,-10885,-124014,1049,2603
5370.4,-10847,-123949,1049,2502
5372.4,-11190,-123991,1145,2460
5374.4,-11311,-124024,1129,2377
5376.4,-11136,-123974,1040,2338
5378.4,-11128,-123959,1014,2414
5380.4,-11256,-124032,1037,2516
5382.4,-11088,-124112,1038,2554
5384.4,-10776,-124163,1040,2558
5386.4,-10905,-124180,1134,2638
5388.4,-11427,-124121,1316,2821
5390.4,-11632,-124026,1397,2916
5392.4,-11282,-123998,1263,2784
5394.4,-10934,-124006,1124,2627
5396.4,-10913,-123957,1153,2644
5398.4,-10892,-123897,1197,2693
5400.4,-10796,-123906,1172,2691
5402.4,-11018,-123961,1235,2796
5404.4,-11419,-124032,1341,2943
5406.4,-11355,-124107,1286,2875
5408.4,-10911,-124124,1172,2682
5410.4,-10805,-124071,1210,2629
5412.4,-11097,-124025,1292,2657
5414.4,-11207,-123991,1257,2605
5416.4,-11031,-123919,1182,2545
5418.4,-10950,-123880,1164,2571
5420.4,-11047,-123949,1186,2634
5422.4,-11124,-124008,1247,2687
5424.4,-11164,-123937,1342,2734
5426.4,-11180,-123820,1399,2758
5428.4,-11016,-123773,1364,2742
5430.4,-10716,-123777,1277,2703
5432.4,-10678,-123805,1244,2698
5434.4,-11078,-123878,1321,2762
5436.4,-11504,-123934,1423,2829
5438.4,-11505,-123900,1447,2815
5440.4,-11217,-123857,1409,2751
5442.4,-11061,-123918,1340,2693
5444.4,-11054,-124001,1251,2642
5446.4,-10972,-123968,1236,2635
5448.4,-10947,-123870,1349,2720
5450.4,-11216,-123837,1447,2808
5452.4,-11435,-123856,1383,2767
5454.4,-11136,-123835,1223,2621
5456.4,-10654,-123763,1136,2535
5458.4,-10631,-123670,1199,2615
5460.4,-10865,-123579,1321,2754
5462.4,-10741,-123535,1343,2772
5464.4,-10430,-123564,1290,2714
5466.4,-10530,-123609,1345,2783
5468.4,-10950,-123600,1489,2940
5470.4,-11186,-123550,1521,2971
5472.4,-11148,-123506,1423,2872
5474.4,-10984,-123455,1336,2760
5476.4,-10735,-123368,1309,2652
5478.4,-10566,-123295,1334,2595
5480.4,-10577,-123304,1376,2652
5482.4,-10537,-123332,1347,2733
5484.4,-10422,-123262,1308,2791
5486.4,-10541,-123130,1403,2903
5488.4,-10697,-123051,1481,2957
5490.4,-10432,-122992,1350,2827
5492.4,-10165,-122847,1281,2792
5494.4,-10516,-122701,1508,3057
5496.4,-10932,-122720,1661,3228
5498.4,-10664,-122842,1441,3000
5500.4,-10262,-122879,1210,2749
5502.4,-10494,-122844,1286,2806
5504.4,-10904,-122869,1421,2908
5506.4,-10814,-122897,1385,2802
5508.4,-10529,-122786,1328,2674
5510.4,-10550,-122587,1387,2744
5512.4,-10727,-122475,1472,2926
5514.4,-10740,-122485,1460,3008
5516.4,-10608,-122523,1367,2968
5518.4,-10509,-122520,1361,3002
5520.4,-10531,-122468,1543,3212
5522.4,-10587,-122413,1738,3394
5524.4,-10548,-122437,1743,3363
5526.4,-10557,-122575,1656,3255
5528.4,-10815,-122708,1669,3245
5530.4,-11051,-122668,1751,3273
5532.4,-10911,-122494,1776,3219
5534.4,-10652,-122395,1707,3083
5536.4,-10631,-122425,1581,2926
5538.4,-10653,-122441,1494,2828
5540.4,-10627,-122403,1567,2875
5542.4,-10922,-122423,1795,3032
5544.4,-11400,-122525,1963,3124
5546.4,-11359,-122644,1855,3002
5548.4,-10884,-122756,1551,2751
5550.4,-10791,-122849,1370,2612
5552.4,-11088,-122876,1413,2628
5554.4,-11060,-122852,1419,2571
5556.4,-10713,-122827,1277,2389
5558.4,-10676,-122811,1231,2334
5560.4,-10995,-122830,1349,2468
5562.4,-11222,-122920,1385,2548
5564.4,-11233,-123028,1289,2496
5566.4,-11147,-123098,1228,2459
5568.4,-10984,-123165,1179,2436
5570.4,-10816,-123233,1060,2345
5572.4,-10776,-123228,978,2241
5574.4,-10878,-123185,982,2168
5576.4,-11085,-123210,963,2078
5578.4,-11304,-123281,919,1983
5580.4,-11316,-123313,905,1927
5582.4,-11160,-123325,889,1902
5584.4,-11221,-123345,892,1936
5586.4,-11515,-123334,968,2044
5588.4,-11583,-123289,1044,2132
5590.4,-11344,-123257,1033,2139
5592.4,-11140,-123238,971,2104
5594.4,-10987,-123218,892,2043
5596.4,-10784,-123210,820,2000
5598.4,-10819,-123197,824,2044
5600.4,-11140,-123151,856,2071
5602.4,-11213,-123121,781,1926
5604.4,-10944,-123163,670,1753
5606.4,-10923,-123222,718,1795
5608.4,-11215,-123213,870,1957
5610.4,-11221,-123167,891,1969
5612.4,-10948,-123168,777,1859
5614.4,-11027,-123201,763,1873
5616.4,-11463,-123193,912,2035
5618.4,-11618,-123152,992,2107
5620.4,-11352,-123140,876,1994
5622.4,-11109,-123161,751,1876
5624.4,-11067,-123181,743,1853
5626.4,-11068,-123189,744,1835
5628.4,-11106,-123203,705,1805
5630.4,-11205,-123239,689,1798
5632.4,-11185,-123286,647,1726
5634.4,-11049,-123293,568,1602
5636.4,-11101,-123262,589,1597
5638.4,-11376,-123288,673,1658
5640.4,-11522,-123391,627,1574
5642.4,-11366,-123433,518,1434
5644.4,-11061,-123317,515,1429
5646.4,-10789,-123147,540,1463
5648.4,-10707,-123083,493,1429
5650.4,-10873,-123154,455,1425
5652.4,-11081,-123271,439,1453
5654.4,-11169,-123344,395,1430
5656.4,-11246,-123347,380,1413
5658.4,-11261,-123292,376,1399
5660.4,-10996,-123184,300,1296
5662.4,-10646,-123040,286,1239
5664.4,-10597,-122930,441,1390
5666.4,-10767,-122911,568,1580
5668.4,-10961,-122946,583,1658
5670.4,-11317,-122937,683,1769
5672.4,-11729,-122834,853,1936
5674.4,-11703,-122688,858,1955
5676.4,-11237,-122591,736,1814
5678.4,-10911,-122583,660,1699
5680.4,-10948,-122641,593,1668
5682.4,-11027,-122736,499,1668
5684.4,-10956,-122815,479,1676
5686.4,-10867,-122787,541,1682
5688.4,-10881,-122658,610,1706
5690.4,-10977,-122557,678,1751
5692.4,-11106,-122533,740,1766
5694.4,-11197,-122485,765,1749
5696.4,-11123,-122380,748,1735
5698.4,-10882,-122303,678,1671
5700.4,-10760,-122268,608,1581
5702.4,-10967,-122228,648,1625
5704.4,-11206,-122214,705,1734
5706.4,-11146,-122265,588,1661
5708.4,-11100,-122313,451,1512
5710.4,-11446,-122319,556,1570
5712.4,-11702,-122340,678,1648
5714.4,-11248,-122380,477,1431
5716.4,-10597,-122362,202,1162
5718.4,-10657,-122314,257,1232
5720.4,-11157,-122361,458,1451
5722.4,-11225,-122505,422,1441
5724.4,-10926,-122618,243,1278
5726.4,-10842,-122645,201,1209
5728.4,-10891,-122648,252,1200
5730.4,-10822,-122711,230,1159
5732.4,-10878,-122877,139,1124
5734.4,-11110,-123126,-21,1049
5736.4,-11169,-123352,-283,830
5738.4,-11103,-123463,-502,591
5740.4,-11200,-123490,-532,509
5742.4,-11273,-123559,-532,475
5744.4,-11127,-123726,-680,316
5746.4,-11100,-123888,-835,143
5748.4,-11387,-123923,-833,122
5750.4,-11645,-123898,-818,169
5752.4,-11614,-123960,-936,132
5754.4,-11450,-124070,-1073,20
5756.4,-11389,-124123,-1121,-91
5758.4,-11464,-124181,-1170,-186
5760.4,-11509,-124284,-1259,-228
5762.4,-11461,-124296,-1258,-146
5764.4,-11552,-124211,-1101,54
5766.4,-11773,-124183,-933,224
5768.4,-11587,-124140,-931,205
5770.4,-10944,-123913,-1037,72
5772.4,-10718,-123681,-1047,53
5774.4,-11193,-123715,-986,120
5776.4,-11450,-123909,-1085,27
5778.4,-11152,-124028,-1293,-185
5780.4,-11102,-124102,-1327,-233
5782.4,-11408,-124256,-1266,-188
5784.4,-11253,-124492,-1410,-346
5786.4,-10713,-124748,-1620,-591
5788.4,-10538,-124925,-1564,-650
5790.4,-10591,-124935,-1330,-607
5792.4,-10515,-124821,-1084,-523
5794.4,-10718,-124648,-662,-158
5796.4,-11168,-124325,-23,500
5798.4,-11059,-123774,594,1183
5800.4,-10484,-123065,1164,1927
5802.4,-10363,-122185,1823,2986
5804.4,-10693,-121038,2442,4267
5806.4,-10792,-119795,2748,5435
5808.4,-10634,-118812,2613,6291
5810.4,-10531,-118116,2069,6819
5812.4,-10466,-117443,1320,7125
5814.4,-10518,-116784,587,7284
5816.4,-10900,-116413,-242,7089
5818.4,-11459,-116388,-1460,6223
5820.4,-12002,-116490,-3034,4668
5822.4,-12770,-116620,-4648,2741
5824.4,-13804,-116894,-6051,869
5826.4,-14439,-117404,-7098,-612
5828.4,-14232,-118172,-7695,-1650
5830.4,-13709,-119143,-7809,-2359
5832.4,-13430,-120040,-7455,-2714
5834.4,-13115,-120581,-6767,-2691
5836.4,-12566,-120932,-6006,-2503
5838.4,-12408,-121505,-5318,-2313
5840.4,-12863,-122296,-4707,-2074
5842.4,-12997,-122884,-4252,-1848
5844.4,-12270,-123065,-3947,-1736
5846.4,-11536,-123082,-3568,-1601
5848.4,-11471,-123242,-3098,-1394
5850.4,-11508,-123551,-2816,-1348
5852.4,-11228,-123832,-2756,-1480
5854.4,-11205,-124051,-2680,-1506
5856.4,-11671,-124274,-2555,-1378
5858.4,-11904,-124398,-2480,-1267
5860.4,-11595,-124338,-2393,-1167
5862.4,-11337,-124318,-2281,-1061
5864.4,-11370,-124486,-2281,-1080
5866.4,-11269,-124579,-2369,-1206
5868.4,-10975,-124432,-2388,-1267
5870.4,-10844,-124304,-2364,-1269
5872.4,-10836,-124354,-2418,-1323
5874.4,-10779,-124425,-2496,-1393
5876.4,-10927,-124461,-2471,-1385
5878.4,-11344,-124556,-2380,-1319
5880.4,-11509,-124648,-2364,-1273
5882.4,-11209,-124633,-2434,-1263
5884.4,-10935,-124568,-2451,-1236
5886.4,-11008,-124516,-2376,-1153
5888.4,-11206,-124462,-2344,-1050
5890.4,-11302,-124454,-2408,-1005
5892.4,-11296,-124544,-2479,-1054
5894.4,-11240,-124642,-2514,-1156
5896.4,-11191,-124631,-2543,-1209
5898.4,-11123,-124533,-2562,-1199
5900.4,-10952,-124443,-2575,-1237
5902.4,-10822,-124388,-2605,-1335
5904.4,-10992,-124361,-2602,-1345
5906.4,-11345,-124376,-2538,-1258
5908.4,-11480,-124391,-2494,-1251
5910.4,-11313,-124340,-2538,-1358
5912.4,-11179,-124304,-2627,-1445
5914.4,-11304,-124386,-2687,-1475
5916.4,-11411,-124445,-2700,-1509
5918.4,-11116,-124311,-2716,-1552
5920.4,-10715,-124152,-2735,-1538
5922.4,-10870,-124206,-2657,-1415
5924.4,-11351,-124379,-2527,-1284
5926.4,-11258,-124470,-2592,-1351
5928.4,-10706,-124471,-2828,-1560
5930.4,-10698,-124424,-2864,-1591
5932.4,-11215,-124318,-2662,-1438
5934.4,-11334,-124225,-2602,-1429
5936.4,-11078,-124221,-2744,-1570
5938.4,-11093,-124221,-2808,-1582
5940.4,-11104,-124146,-2806,-1516
5942.4,-10684,-124091,-2906,-1573
5944.4,-10512,-124138,-2939,-1611
5946.4,-11041,-124178,-2744,-1482
5948.4,-11356,-124104,-2602,-1414
5950.4,-10852,-124000,-2767,-1572
5952.4,-10387,-123970,-3000,-1710
5954.4,-10649,-123983,-2986,-1602
5956.4,-11078,-124026,-2831,-1404
5958.4,-11160,-124156,-2810,-1360
5960.4,-11210,-124300,-2878,-1422
5962.4,-11377,-124288,-2814,-1397
5964.43,-11298,-124164,-2674,-1309
5966.45,-11019,-124136,-2687,-1309
5968.48,-11048,-124227,-2806,-1352
5970.5,-11344,-124266,-2842,-1335
5972.5,-11331,-124179,-2839,-1371
5974.5,-10963,-124043,-2883,-1504
5976.5,-10775,-123949,-2888,-1540
5978.5,-10909,-123954,-2859,-1446
5980.5,-11010,-124012,-2896,-1409
5982.5,-10929,-124008,-2906,-1423
5984.5,-10828,-123959,-2831,-1379
5986.5,-10805,-123975,-2832,-1357
5988.5,-10826,-123958,-2889,-1387
5990.5,-10785,-123766,-2821,-1361
5992.5,-10607,-123605,-2781,-1374
5994.5,-10435,-123704,-2973,-1529
5996.5,-10475,-123817,-3148,-1610
5998.5,-10630,-123651,-3073,-1485
6000.5,-10680,-123414,-2954,-1370
6002.5,-10659,-123380,-2924,-1346
6004.5,-10679,-123417,-2864,-1279
6006.5,-10678,-123366,-2846,-1231
6008.5,-10624,-123352,-3009,-1323
6010.5,-10635,-123430,-3160,-1404
6012.5,-10732,-123440,-3108,-1360
6014.5,-10762,-123331,-3021,-1337
6016.5,-10648,-123238,-3063,-1412
6018.5,-10527,-123223,-3151,-1478
6020.5,-10521,-123223,-3205,-1484
6022.5,-10568,-123173,-3240,-1454
6024.5,-10621,-123065,-3215,-1373
6026.5,-10745,-122954,-3096,-1258
6028.5,-10898,-122909,-2978,-1183
6030.5,-10939,-122907,-2957,-1157
6032.5,-10895,-122867,-3012,-1143
6034.5,-10864,-122814,-3094,-1168
6036.5,-10801,-122828,-3181,-1252
6038.5,-10694,-122830,-3195,-1293
6040.5,-10643,-122732,-3103,-1216
6042.5,-10616,-122664,-3049,-1181
6044.5,-10491,-122730,-3126,-1327
6046.5,-10361,-122746,-3153,-1460
6048.5,-10481,-122631,-2994,-1355
6050.5,-10928,-122636,-2835,-1142
6052.5,-11369,-122798,-2816,-1032
6054.5,-11349,-122788,-2814,-978
6056.5,-10978,-122618,-2796,-945
6058.5,-10865,-122708,-2899,-1042
6060.5,-11125,-123025,-3051,-1198
6062.5,-11215,-123082,-3043,-1197
6064.5,-10945,-122850,-2942,-1093
6066.5,-10691,-122748,-2960,-1117
6068.5,-10624,-122817,-3060,-1244
6070.5,-10702,-122785,-3069,-1250
6072.5,-11038,-122750,-3014,-1134
6074.5,-11491,-122956,-3071,-1128
6076.5,-11570,-123214,-3250,-1296
6078.5,-11243,-123198,-3360,-1439
6080.5,-11003,-123046,-3346,-1456
6082.5,-11014,-123083,-3403,-1499
6084.5,-11067,-123271,-3592,-1623
6086.5,-11149,-123372,-3671,-1656
6088.5,-11284,-123362,-3561,-1591
6090.5,-11292,-123358,-3517,-1637
6092.5,-11242,-123372,-3640,-1780
6094.5,-11422,-123370,-3739,-1818
6096.5,-11693,-123395,-3769,-1781
6098.5,-11691,-123473,-3851,-1815
6100.5,-11480,-123537,-3937,-1843
6102.5,-11241,-123493,-3919,-1782
6104.5,-10914,-123366,-3862,-1741
6106.5,-10709,-123315,-3843,-1751
6108.5,-10964,-123422,-3840,-1732
6110.5,-11291,-123535,-3877,-1755
6112.5,-11143,-123511,-3963,-1887
6114.5,-10952,-123477,-3991,-1973
6116.5,-11283,-123562,-3934,-1911
6118.5,-11580,-123584,-3917,-1831
6120.5,-11228,-123361,-3950,-1800
6122.5,-10807,-123094,-3921,-1729
6124.5,-10949,-123068,-3850,-1657
6126.5,-11189,-123190,-3870,-1719
6128.5,-11059,-123213,-3973,-1863
6130.5,-10998,-123183,-4043,-1934
6132.5,-11297,-123278,-4061,-1929
6134.5,-11500,-123419,-4081,-1922
6136.5,-11424,-123414,-4064,-1864
6138.5,-11502,-123328,-3951,-1717
6140.5,-11746,-123346,-3841,-1619
6142.5,-11602,-123421,-3904,-1708
6144.5,-11035,-123376,-4093,-1871
6146.5,-10708,-123229,-4192,-1897
6148.5,-10905,-123173,-4149,-1801
6150.5,-11159,-123275,-4118,-1771
6152.5,-11097,-123368,-4147,-1838
6154.5,-10961,-123296,-4133,-1875
6156.5,-11066,-123158,-4084,-1853
6158.5,-11296,-123166,-4099,-1847
6160.5,-11408,-123302,-4137,-1854
6162.5,-11406,-123365,-4110,-1828
6164.5,-11389,-123353,-4121,-1824
6166.5,-11376,-123451,-4281,-1901
6168.5,-11430,-123638,-4438,-1976
6170.5,-11596,-123687,-4394,-1939
6172.5,-11713,-123580,-4254,-1847
6174.5,-11590,-123499,-4260,-1844
6176.5,-11310,-123440,-4373,-1919
6178.5,-11120,-123275,-4366,-1913
6180.5,-11132,-123138,-4258,-1832
6182.5,-11223,-123223,-4278,-1867
6184.5,-11205,-123335,-4395,-2001
6186.5,-11113,-123216,-4352,-1976
6188.5,-11164,-123044,-4154,-1764
6190.5,-11360,-123049,-4047,-1607
6192.5,-11481,-123057,-4053,-1558
6194.5,-11501,-122910,-4004,-1461
6196.5,-11524,-122781,-3916,-1344
6198.5,-11454,-122766,-3936,-1373
6200.5,-11242,-122760,-4057,-1518
6202.5,-11133,-122802,-4153,-1612
6204.5,-11235,-122953,-4162,-1595
6206.5,-11296,-123052,-4138,-1556
6208.5,-11238,-123018,-4160,-1584
6210.5,-11304,-122986,-4212,-1635
6212.5,-11480,-122932,-4204,-1606
6214.5,-11448,-122707,-4142,-1519
6216.5,-11192,-122434,-4092,-1472
6218.5,-11053,-122334,-4052,-1444
6220.5,-11130,-122359,-4035,-1408
6222.5,-11213,-122386,-4105,-1452
6224.5,-11309,-122456,-4181,-1553
6226.5,-11632,-122542,-4119,-1544
6228.5,-11958,-122507,-4047,-1463
6230.5,-11714,-122392,-4208,-1537
6232.5,-10975,-122369,-4495,-1739
6234.5,-10552,-122418,-4577,-1794
6236.5,-10793,-122443,-4437,-1672
6238.5,-11146,-122557,-4368,-1632
6240.5,-11167,-122820,-4469,-1745
6242.5,-11081,-122971,-4515,-1751
6244.5,-11188,-122907,-4403,-1557
6246.5,-11414,-122980,-4350,-1464
6248.5,-11500,-123309,-4489,-1658
6250.5,-11327,-123447,-4634,-1879
6252.5,-11128,-123246,-4663,-1907
6254.5,-11224,-123204,-4735,-1932
6256.5,-11442,-123519,-4948,-2126
6258.5,-11359,-123767,-5177,-2342
6260.5,-11122,-123766,-5334,-2431
6262.5,-11183,-123827,-5439,-2448
6264.5,-11442,-124036,-5471,-2449
6266.5,-11556,-124138,-5417,-2409
6268.5,-11636,-124077,-5348,-2340
6270.5,-11816,-124045,-5349,-2315
6272.5,-11826,-124117,-5477,-2413
6274.5,-11639,-124228,-5691,-2604
6276.5,-11681,-124333,-5815,-2715
6278.5,-11931,-124413,-5795,-2680
6280.5,-11894,-124460,-5798,-2654
6282.5,-11684,-124498,-5844,-2700
6284.5,-11816,-124489,-5749,-2656
6286.5,-11958,-124311,-5587,-2514
6288.5,-11516,-124029,-5623,-2480
6290.5,-11099,-123964,-5782,-2582
6292.5,-11554,-124233,-5815,-2670
6294.5,-12226,-124498,-5787,-2719
6296.5,-12085,-124469,-5861,-2765
6298.5,-11544,-124319,-5954,-2754
6300.5,-11482,-124341,-5967,-2675
6302.5,-11759,-124548,-5956,-2611
6304.5,-11863,-124814,-5957,-2619
6306.5,-11667,-125072,-5997,-2745
6308.5,-11164,-125265,-6113,-2984
6310.5,-10644,-125332,-6140,-3121
6312.5,-10676,-125242,-5816,-2900
6314.5,-11112,-124962,-5196,-2364
6316.5,-11175,-124488,-4548,-1725
6318.5,-10869,-123869,-3883,-984
6320.5,-10801,-123077,-3080,-10
6322.5,-10819,-122051,-2330,1125
6324.5,-10449,-120925,-1969,2176
6326.5,-10085,-119906,-1979,3056
6328.5,-10263,-119010,-2141,3849
6330.5,-10572,-118209,-2496,4485
6332.5,-10524,-117620,-3176,4739
6334.5,-10511,-117265,-4069,4551
6336.5,-10960,-117011,-5073,3988
6338.5,-11604,-116826,-6303,2994
6340.5,-12257,-116757,-7714,1603
6342.5,-13128,-116757,-9035,111
6344.5,-13951,-116939,-10216,-1322
6346.5,-14138,-117616,-11280,-2761
6348.5,-13927,-118733,-11880,-3992
6350.5,-13990,-119748,-11735,-4593
6352.5,-14158,-120386,-11155,-4599
6354.5,-13915,-120943,-10570,-4437
6356.5,-13494,-121632,-10015,-4286
6358.5,-13283,-122262,-9448,-4068
6360.5,-13088,-122710,-8960,-3821
6362.5,-12774,-123109,-8534,-3644
6364.5,-12566,-123481,-8103,-3512
6366.5,-12483,-123733,-7727,-3364
6368.5,-12437,-123965,-7436,-3211
6370.5,-12491,-124278,-7184,-3109
6372.5,-12422,-124463,-7007,-3090
6374.5,-11947,-124380,-6925,-3103
6376.5,-11493,-124309,-6828,-3073
6378.5,-11597,-124463,-6689,-3016
6380.5,-11884,-124643,-6645,-2999
6382.5,-11785,-124732,-6745,-3046
6384.5,-11563,-124912,-6857,-3128
6386.5,-11678,-125135,-6840,-3169
6388.5,-11927,-125118,-6707,-3111
6390.5,-11914,-124920,-6636,-3057
6392.5,-11733,-124839,-6711,-3110
6394.5,-11736,-124877,-6759,-3144
6396.5,-11990,-124917,-6688,-3068
6398.5,-12237,-125071,-6704,-3071
6400.5,-12239,-125297,-6853,-3210
6402.5,-11979,-125268,-6864,-3246
6404.5,-11573,-125019,-6750,-3164
6406.5,-11229,-124974,-6840,-3222
6408.5,-11244,-125130,-7030,-3329
6410.5,-11666,-125085,-6909,-3189
6412.5,-12026,-124901,-6637,-2998
6414.5,-11915,-124964,-6705,-3130
6416.5,-11617,-125172,-6998,-3376
6418.5,-11558,-125183,-7054,-3318
6420.5,-11606,-125108,-6913,-3077
6422.5,-11627,-125187,-6857,-2962
6424.5,-11866,-125259,-6811,-2905
6426.5,-12133,-125141,-6688,-2809
6428.5,-11864,-125019,-6708,-2861
6430.5,-11377,-125059,-6897,-3074
6432.5,-11462,-125132,-6973,-3186
6434.5,-11839,-125124,-6921,-3173
6436.5,-11814,-125076,-6944,-3201
6438.5,-11685,-125011,-6956,-3182
6440.5,-11819,-124950,-6853,-3037
6442.5,-11744,-124977,-6859,-3009
6444.5,-11443,-125077,-7023,-3126
6446.5,-11650,-125112,-7014,-3043
6448.5,-12151,-125050,-6822,-2792
6450.5,-12030,-125008,-6824,-2806
6452.5,-11570,-125032,-6992,-3039
6454.5,-11638,-125044,-6984,-3068
6456.5,-11852,-124987,-6895,-2955
6458.5,-11551,-124892,-6991,-3003
6460.5,-11364,-124854,-7078,-3049
6462.5,-11855,-124915,-6929,-2857
6464.5,-12199,-124952,-6765,-2651
6466.5,-11783,-124836,-6789,-2636
6468.5,-11361,-124717,-6872,-2688
6470.5,-11522,-124809,-6921,-2730
6472.5,-11803,-125001,-6961,-2814
6474.5,-11835,-125038,-6966,-2886
6476.5,-11801,-124949,-6955,-2913
6478.5,-11753,-124892,-6970,-2942
6480.5,-11702,-124882,-6916,-2902
6482.5,-11863,-124926,-6780,-2743
6484.5,-12101,-125053,-6760,-2645
6486.5,-11978,-125096,-6867,-2687
6488.5,-11620,-124903,-6866,-2653
6490.5,-11538,-124673,-6720,-2469
6492.5,-11660,-124654,-6660,-2375
6494.5,-11539,-124722,-6778,-2500
6496.5,-11272,-124682,-6916,-2649
6498.5,-11299,-124625,-6919,-2646
6500.5,-11503,-124682,-6860,-2585
6502.5,-11392,-124775,-6921,-2632
6504.5,-11071,-124812,-7064,-2719
6506.5,-11127,-124833,-7029,-2658
6508.5,-11545,-124845,-6785,-2476
6510.5,-11735,-124779,-6603,-2361
6512.5,-11654,-124654,-6582,-2335
6514.5,-11791,-124578,-6566,-2283
6516.5,-12099,-124565,-6521,-2218
6518.5,-12063,-124533,-6572,-2238
6520.5,-11684,-124469,-6709,-2343
6522.5,-11438,-124451,-6789,-2440
6524.5,-11467,-124487,-6737,-2438
6526.5,-11474,-124460,-6635,-2344
6528.5,-11258,-124303,-6614,-2273
6530.5,-11028,-124136,-6668,-2271
6532.5,-11079,-124123,-6696,-2270
6534.5,-11303,-124227,-6711,-2266
6536.5,-11398,-124241,-6755,-2272
6538.5,-11464,-124088,-6720,-2184
6540.5,-11724,-123935,-6573,-2009
6542.5,-11903,-123904,-6477,-1958
6544.5,-11708,-123901,-6479,-2042
6546.5,-11468,-123876,-6480,-2064
6548.5,-11524,-123930,-6513,-2030
6550.5,-11614,-123989,-6605,-2046
6552.5,-11424,-123828,-6603,-2007
6554.5,-11154,-123554,-6489,-1860
6556.5,-11143,-123534,-6443,-1776
6558.5,-11365,-123753,-6463,-1806
6560.5,-11502,-123863,-6416,-1835
6562.5,-11440,-123799,-6334,-1848
6564.5,-11410,-123780,-6279,-1865
6566.5,-11467,-123837,-6238,-1868
6568.5,-11345,-123836,-6266,-1906
6570.5,-11147,-123773,-6372,-1953
6572.5,-11322,-123709,-6397,-1828
6574.5,-11714,-123645,-6309,-1572
6576.5,-11744,-123596,-6262,-1469
6578.5,-11510,-123625,-6284,-1561
6580.5,-11467,-123744,-6326,-1658
6582.5,-11461,-123881,-6439,-1746
6584.5,-11297,-123972,-6571,-1864
6586.5,-11410,-124046,-6542,-1890
6588.5,-11924,-124149,-6422,-1807
6590.5,-12181,-124229,-6454,-1789
6592.5,-11956,-124203,-6595,-1848
6594.5,-11838,-124160,-6626,-1841
6596.5,-11971,-124245,-6624,-1834
6598.5,-11856,-124400,-6794,-1990
6600.5,-11550,-124445,-6994,-2171
6602.5,-11591,-124385,-6967,-2144
6604.5,-11853,-124368,-6840,-2030
6606.5,-11865,-124424,-6881,-2071
6608.5,-11776,-124463,-7002,-2180
6610.5,-11843,-124455,-6999,-2181
6612.5,-11794,-124449,-6972,-2184
6614.5,-11579,-124473,-7047,-2283
6616.5,-11613,-124507,-7105,-2329
6618.5,-11873,-124532,-7091,-2281
6620.5,-11954,-124557,-7102,-2279
6622.5,-11930,-124602,-7105,-2304
6624.5,-12064,-124642,-7023,-2239
6626.5,-12230,-124617,-6949,-2150
6628.5,-12254,-124548,-6958,-2142
6630.5,-12098,-124544,-7029,-2228
6632.5,-11668,-124600,-7182,-2397
6634.5,-11235,-124585,-7338,-2527
6636.5,-11369,-124524,-7306,-2457
6638.5,-11909,-124579,-7150,-2285
6640.5,-12092,-124703,-7107,-2218
6642.5,-11900,-124701,-7134,-2195
6644.5,-11908,-124617,-7088,-2131
6646.5,-12029,-124619,-7090,-2163
6648.5,-11829,-124654,-7216,-2306
6650.5,-11618,-124638,-7266,-2349
6652.5,-11911,-124686,-7171,-2269
6654.53,-12328,-124802,-7127,-2237
6656.55,-12189,-124778,-7192,-2269
6658.58,-11746,-124628,-7202,-2285
6660.6,-11766,-124610,-7109,-2298
6662.6,-12137,-124710,-7071,-2349
6664.6,-12027,-124666,-7163,-2428
6666.6,-11409,-124461,-7244,-2475
6668.6,-11146,-124313,-7189,-2396
6670.6,-11465,-124278,-7104,-2211
6672.6,-11714,-124271,-7124,-2093
6674.6,-11694,-124305,-7159,-2083
6676.6,-11853,-124431,-7117,-2043
6678.6,-12198,-124585,-7102,-1959
6680.6,-12325,-124664,-7143,-1937
6682.6,-12253,-124662,-7127,-1960
6684.6,-12170,-124652,-7098,-1987
6686.6,-11972,-124665,-7180,-2060
6688.6,-11732,-124653,-7254,-2135
6690.6,-11757,-124598,-7201,-2125
6692.6,-11910,-124578,-7174,-2115
6694.6,-11872,-124653,-7246,-2186
6696.6,-11823,-124766,-7258,-2236
6698.6,-11913,-124817,-7221,-2232
6700.6,-11833,-124776,-7280,-2269
6702.6,-11589,-124671,-7325,-2298
6704.6,-11547,-124549,-7232,-2218
6706.6,-11556,-124441,-7186,-2138
6708.6,-11406,-124371,-7265,-2125
6710.6,-11592,-124354,-7201,-2008
6712.6,-12286,-124347,-6931,-1748
6714.6,-12680,-124292,-6759,-1585
6716.6,-12350,-124233,-6825,-1653
6718.6,-11797,-124244,-6972,-1826
6720.6,-11311,-124256,-7109,-1974
6722.6,-10879,-124197,-7212,-2044
6724.6,-10927,-124179,-7160,-1983
6726.6,-11693,-124301,-6936,-1803
6728.6,-12492,-124398,-6725,-1629
6730.6,-12621,-124278,-6658,-1571
6732.6,-12215,-124049,-6722,-1638
6734.6,-11798,-123938,-6877,-1763
6736.6,-11683,-123955,-7003,-1822
6738.6,-11845,-123947,-6948,-1736
6740.6,-11986,-123879,-6800,-1596
6742.6,-11917,-123821,-6783,-1556
6744.6,-11807,-123791,-6886,-1630
6746.6,-11781,-123775,-6975,-1751
6748.6,-11745,-123809,-7070,-1895
6750.6,-11797,-123869,-7140,-1995
6752.6,-12048,-123849,-7058,-1983
6754.6,-12100,-123754,-6985,-1983
6756.6,-11704,-123692,-7154,-2095
6758.6,-11451,-123670,-7276,-2071
6760.6,-11711,-123653,-7039,-1757
6762.6,-11847,-123743,-6831,-1517
6764.6,-11529,-123983,-7016,-1605
6766.6,-11406,-124189,-7199,-1699
6768.6,-11675,-124246,-7086,-1617
6770.6,-11719,-124297,-7043,-1647
6772.6,-11570,-124422,-7201,-1821
6774.6,-11810,-124518,-7234,-1875
6776.6,-12153,-124605,-7252,-1953
6778.6,-11975,-124824,-7612,-2331
6780.6,-11641,-125099,-8030,-2718
6782.6,-11766,-125225,-8058,-2742
6784.6,-12095,-125251,-7911,-2606
6786.6,-12168,-125351,-7950,-2607
6788.6,-12067,-125468,-8049,-2649
6790.6,-11999,-125465,-8040,-2597
6792.6,-12025,-125441,-8038,-2537
6794.6,-12156,-125535,-8101,-2545
6796.6,-12225,-125630,-8147,-2593
6798.6,-12094,-125573,-8184,-2641
6800.6,-12032,-125484,-8222,-2647
6802.6,-12222,-125522,-8200,-2606
6804.6,-12382,-125616,-8144,-2568
6806.6,-12407,-125660,-8115,-2532
6808.6,-12485,-125680,-8066,-2482
6810.6,-12396,-125693,-8034,-2537
6812.6,-11942,-125673,-8196,-2771
6814.6,-11733,-125655,-8443,-2970
6816.6,-12166,-125633,-8408,-2908
6818.6,-12524,-125540,-8138,-2737
6820.6,-12320,-125492,-8088,-2741
6822.6,-12136,-125674,-8321,-2871
6824.6,-12229,-125961,-8472,-2915
6826.6,-12008,-126081,-8459,-2924
6828.6,-11427,-126081,-8479,-3031
6830.6,-11173,-126188,-8488,-3136
6832.6,-11351,-126389,-8337,-3100
6834.6,-11501,-126480,-8056,-2942
6836.6,-11554,-126332,-7628,-2605
6838.6,-11653,-125932,-6976,-1979
6840.6,-11653,-125343,-6256,-1174
6842.6,-11512,-124627,-5633,-339
6844.6,-11394,-123765,-5044,593
6846.6,-11195,-122774,-4574,1592
6848.6,-10725,-121815,-4534,2397
6850.6,-10217,-120992,-4904,2952
6852.6,-10064,-120234,-5338,3457
6854.6,-10371,-119515,-5704,3924
6856.6,-11005,-118956,-6147,4125
6858.6,-11683,-118621,-6854,3836
6860.6,-12095,-118434,-8005,2934
6862.6,-12360,-118304,-9523,1554
6864.6,-13015,-118226,-10939,151
6866.6,-14204,-118331,-11913,-973
6868.6,-15282,-118845,-12590,-1968
6870.6,-15553,-119808,-13144,-2971
6872.6,-15029,-120894,-13439,-3787
6874.6,-14225,-121701,-13342,-4211
6876.6,-13614,-122192,-12933,-4277
6878.6,-13458,-122662,-12329,-4125
6880.6,-13696,-123255,-11638,-3889
6882.6,-13878,-123772,-11008,-3681
6884.6,-13701,-124058,-10506,-3501
6886.6,-13443,-124276,-10074,-3292
6888.6,-13340,-124587,-9710,-3120
6890.6,-13134,-124913,-9462,-3091
6892.6,-12820,-125186,-9242,-3117
6894.6,-12825,-125495,-8966,-3052
6896.6,-12969,-125827,-8808,-2992
6898.6,-12630,-126009,-8909,-3093
6900.6,-12137,-126016,-9010,-3171
6902.6,-12269,-126039,-8858,-3005
6904.6,-12562,-126173,-8712,-2853
6906.6,-12093,-126277,-8869,-3048
6908.6,-11434,-126234,-9052,-3300
6910.6,-11730,-126146,-8890,-3153
6912.6,-12550,-126144,-8608,-2828
6914.6,-12715,-126208,-8617,-2828
6916.6,-12362,-126284,-8838,-3066
6918.6,-12315,-126352,-8949,-3134
6920.6,-12453,-126334,-8905,-3019
6922.6,-12309,-126209,-8851,-2953
6924.6,-12121,-126124,-8836,-2943
6926.6,-12161,-126188,-8834,-2893
6928.6,-12244,-126309,-8799,-2829
6930.6,-12328,-126397,-8715,-2783
6932.6,-12407,-126442,-8683,-2777
6934.6,-12189,-126396,-8786,-2877
6936.6,-11859,-126284,-8885,-3050
6938.6,-12054,-126262,-8836,-3130
6940.6,-12497,-126353,-8769,-3085
6942.6,-12350,-126394,-8835,-3081
6944.6,-11891,-126358,-8930,-3193
6946.6,-11944,-126366,-8925,-3292
6948.6,-12280,-126377,-8871,-3251
6950.6,-12308,-126280,-8822,-3094
6952.6,-12180,-126155,-8780,-2946
6954.6,-12104,-126130,-8788,-2893
6956.6,-12023,-126143,-8812,-2866
6958.6,-12175,-126095,-8731,-2759
6960.6,-12594,-126029,-8604,-2637
6962.6,-12777,-126012,-8596,-2601
6964.6,-12765,-126023,-8606,-2545
6966.6,-12934,-126032,-8481,-2405
6968.6,-12690,-126033,-8483,-2442
6970.6,-11592,-126010,-8849,-2803
6972.6,-10911,-125975,-9193,-3088
6974.6,-11625,-125985,-9084,-2957
6976.6,-12542,-126057,-8780,-2711
6978.6,-12499,-126128,-8703,-2711
6980.6,-12199,-126133,-8738,-2781
6982.6,-12333,-126075,-8670,-2706
6984.6,-12333,-126011,-8648,-2662
6986.6,-11911,-125989,-8778,-2753
6988.6,-11681,-125998,-8884,-2773
6990.6,-11884,-125995,-8869,-2657
6992.6,-12059,-125966,-8816,-2588
6994.6,-11985,-125928,-8765,-2609
6996.6,-11926,-125919,-8746,-2620
6998.6,-12032,-125963,-8807,-2633
7000.6,-12085,-126011,-8875,-2683
7002.6,-11895,-125980,-8845,-2687
7004.6,-11754,-125916,-8742,-2579
7006.6,-12045,-125943,-8625,-2438
7008.6,-12478,-126033,-8543,-2408
7010.6,-12519,-126034,-8568,-2512
7012.6,-12436,-125946,-8607,-2562
7014.6,-12679,-125911,-8507,-2437
7016.6,-12726,-125941,-8447,-2355
7018.6,-12113,-125936,-8655,-2514
7020.6,-11598,-125879,-8866,-2689
7022.6,-11679,-125804,-8809,-2680
7024.6,-11627,-125705,-8753,-2672
7026.6,-11387,-125641,-8824,-2693
7028.6,-12018,-125710,-8638,-2471
7030.6,-13212,-125853,-8217,-2124
7032.6,-13267,-125872,-8149,-2103
7034.6,-12081,-125690,-8499,-2346
7036.6,-11258,-125419,-8693,-2381
7038.6,-11367,-125230,-8575,-2160
7040.6,-11612,-125217,-8501,-2003
7042.6,-11611,-125317,-8570,-2005
7044.6,-11586,-125353,-8579,-2014
7046.6,-11639,-125273,-8474,-1942
7048.6,-11785,-125193,-8357,-1813
7050.6,-11913,-125165,-8303,-1738
7052.6,-11807,-125143,-8329,-1788
7054.6,-11700,-125128,-8344,-1831
7056.6,-12013,-125117,-8245,-1721
7058.6,-12392,-125037,-8130,-1593
7060.6,-12245,-124917,-8171,-1647
7062.6,-11859,-124895,-8305,-1793
7064.6,-11769,-124939,-8349,-1834
7066.6,-11812,-124897,-8301,-1787
7068.6,-11768,-124793,-8268,-1762
7070.6,-11832,-124750,-8255,-1757
7072.6,-11936,-124735,-8234,-1733
7074.6,-11787,-124673,-8220,-1709
7076.6,-11572,-124607,-8182,-1677
7078.6,-11596,-124566,-8080,-1596
7080.6,-11661,-124515,-7999,-1488
7082.6,-11631,-124505,-8026,-1399
7084.6,-11809,-124582,-8054,-1305
7086.6,-12214,-124627,-7958,-1192
7088.6,-12390,-124550,-7805,-1121
7090.6,-12195,-124473,-7712,-1128
7092.6,-11975,-124500,-7689,-1176
7094.6,-11949,-124568,-7747,-1261
7096.6,-11989,-124623,-7891,-1382
7098.6,-11912,-124669,-7998,-1452
7100.6,-11765,-124669,-7964,-1440
7102.6,-11823,-124659,-7888,-1474
7104.6,-12139,-124763,-7934,-1640
7106.6,-12272,-124914,-8115,-1821
7108.6,-11992,-124923,-8299,-1860
7110.6,-11825,-124875,-8349,-1748
7112.6,-12186,-124994,-8245,-1594
7114.6,-12627,-125168,-8112,-1486
7116.6,-12634,-125148,-8081,-1437
7118.6,-12407,-125014,-8160,-1442
7120.6,-12297,-124997,-8277,-1515
7122.6,-12271,-125089,-8361,-1625
7124.6,-12233,-125171,-8363,-1686
7126.6,-12213,-125222,-8325,-1703
7128.6,-12179,-125229,-8339,-1765
7130.6,-12127,-125178,-8399,-1850
7132.6,-12149,-125151,-8449,-1881
7134.6,-12221,-125209,-8517,-1906
7136.6,-12265,-125298,-8584,-1977
7138.6,-12363,-125366,-8543,-2026
7140.6,-12466,-125409,-8469,-2055
7142.6,-12349,-125407,-8569,-2152
7144.6,-12202,-125390,-8747,-2203
7146.6,-12506,-125449,-8699,-2035
7148.6,-13020,-125533,-8451,-1778
7150.6,-13024,-125480,-8300,-1671
7152.6,-12637,-125328,-8320,-1674
7154.6,-12545,-125281,-8380,-1661
7156.6,-12639,-125355,-8452,-1690
7158.6,-12392,-125392,-8545,-1791
7160.6,-12125,-125374,-8550,-1825
7162.6,-12386,-125375,-8407,-1719
7164.6,-12741,-125357,-8278,-1620
7166.6,-12541,-125305,-8368,-1687
7168.6,-12123,-125322,-8629,-1889
7170.6,-12074,-125404,-8805,-2065
7172.6,-12180,-125402,-8777,-2134
7174.6,-12106,-125313,-8675,-2128
7176.6,-12219,-125292,-8603,-2035
7178.6,-12798,-125371,-8517,-1816
7180.6,-13250,-125436,-8431,-1605
7182.6,-12964,-125434,-8455,-1590
7184.6,-12307,-125391,-8567,-1698
7186.6,-12110,-125360,-8596,-1714
7188.6,-12521,-125399,-8479,-1614
7190.6,-12912,-125488,-8358,-1551
7192.6,-12796,-125530,-8383,-1607
7194.6,-12399,-125526,-8523,-1735
7196.6,-12196,-125560,-8637,-1835
7198.6,-12279,-125596,-8654,-1831
7200.6,-12476,-125521,-8590,-1726
7202.6,-12671,-125386,-8482,-1612
7204.6,-12691,-125338,-8425,-1602
7206.6,-12341,-125377,-8525,-1727
7208.6,-11804,-125399,-8715,-1884
7210.6,-11599,-125390,-8776,-1909
7212.6,-12065,-125417,-8621,-1731
7214.6,-12958,-125496,-8381,-1464
7216.6,-13475,-125568,-8262,-1373
7218.6,-13016,-125574,-8404,-1606
7220.6,-12153,-125526,-8715,-1936
7222.6,-11998,-125477,-8859,-1973
7224.6,-12503,-125454,-8675,-1750
7226.6,-12686,-125442,-8427,-1667
7228.6,-12457,-125420,-8363,-1798
7230.6,-12546,-125401,-8378,-1818
7232.6,-12907,-125401,-8361,-1659
7234.6,-12905,-125387,-8401,-1584
7236.6,-12649,-125293,-8472,-1630
7238.6,-12627,-125142,-8407,-1602
7240.6,-12677,-125025,-8250,-1488
7242.6,-12465,-124958,-8197,-1418
7244.6,-12242,-124886,-8247,-1396
7246.6,-12260,-124818,-8262,-1365
7248.6,-12259,-124801,-8241,-1330
7250.6,-12118,-124839,-8269,-1311
7252.6,-12174,-124925,-8312,-1300
7254.6,-12489,-125048,-8276,-1295
7256.6,-12635,-125119,-8196,-1313
7258.6,-12460,-125044,-8174,-1363
7260.6,-12292,-124866,-8190,-1410
7262.6,-12294,-124707,-8160,-1397
7264.6,-12279,-124605,-8116,-1347
7266.6,-12209,-124509,-8112,-1309
7268.6,-12327,-124402,-8063,-1209
7270.6,-12702,-124349,-7931,-1010
7272.6,-12920,-124378,-7910,-936
7274.6,-12590,-124419,-8123,-1148
7276.6,-12097,-124436,-8355,-1403
7278.6,-12167,-124480,-8369,-1426
7280.6,-12666,-124548,-8251,-1337
7282.6,-12865,-124549,-8180,-1335
7284.6,-12700,-124468,-8147,-1341
7286.6,-12485,-124389,-8143,-1297
7288.6,-12039,-124383,-8293,-1387
7290.6,-11429,-124502,-8548,-1625
7292.6,-11447,-124739,-8608,-1690
7294.6,-12195,-124942,-8392,-1457
7296.6,-12689,-124986,-8220,-1231
7298.6,-12528,-124967,-8285,-1230
7300.6,-12346,-125011,-8387,-1286
7302.6,-12460,-125105,-8380,-1260
7304.6,-12550,-125221,-8414,-1290
7306.6,-12476,-125364,-8577,-1462
7308.6,-12370,-125473,-8747,-1658
7310.6,-12335,-125527,-8864,-1796
7312.6,-12489,-125637,-8962,-1889
7314.6,-12796,-125831,-9004,-1937
7316.6,-12966,-125969,-8991,-1979
7318.6,-12913,-125989,-9016,-2066
7320.6,-12862,-125999,-9080,-2138
7322.6,-12824,-126038,-9117,-2159
7324.6,-12673,-126054,-9165,-2226
7326.6,-12642,-126079,-9236,-2317
7328.6,-12939,-126171,-9243,-2275
7330.6,-13141,-126240,-9221,-2187
7332.6,-12865,-126211,-9292,-2287
7334.6,-12545,-126200,-9371,-2458
7336.6,-12690,-126290,-9308,-2408
7338.6,-13004,-126335,-9197,-2185
7340.6,-13023,-126243,-9193,-2043
7342.6,-12847,-126155,-9253,-2022
7344.6,-12666,-126144,-9291,-2040
7346.6,-12439,-126091,-9322,-2072
7348.6,-12309,-126008,-9350,-2093
7350.6,-12493,-126061,-9337,-2080
7352.6,-12868,-126268,-9283,-2077
7354.6,-13159,-126522,-9260,-2141
7356.6,-13142,-126800,-9381,-2319
7358.6,-12683,-127055,-9601,-2589
7360.6,-12185,-127137,-9595,-2711
