t,carotid_880nm,carotid_660nm,brachial_880nm,brachial_660nm
3.8,-92.426,-31.855,67.849,83.124
13.7,-92.426,-31.855,66.849,83.124
23.5,-96.426,-32.855,63.849,82.124
33.4,-96.426,-32.855,62.849,83.124
43.3,-95.426,-31.855,60.849,82.124
53.2,-95.426,-31.855,60.849,82.124
63.1,-99.426,-31.855,57.849,81.124
73.0,-99.426,-31.855,57.849,81.124
82.9,-97.426,-27.855,52.849,78.124
92.7,-97.426,-27.855,52.849,78.124
102.6,-88.426,-23.855,45.849,77.124
112.5,-88.426,-23.855,45.849,77.124
122.4,-81.426,-21.855,51.849,77.124
132.3,-81.426,-21.855,51.849,77.124
142.2,-76.426,-21.855,58.849,77.124
152.1,-75.426,-21.855,58.849,77.124
161.9,-71.426,-19.855,64.849,78.124
171.8,-71.426,-21.855,64.849,78.124
181.7,-69.426,-20.855,71.849,80.124
191.6,-68.426,-19.855,71.849,80.124
201.5,-67.426,-19.855,79.849,82.124
211.4,-66.426,-19.855,79.849,82.124
221.3,-67.426,-19.855,83.849,83.124
231.1,-67.426,-21.855,83.849,83.124
241.0,-68.426,-20.855,86.849,83.124
250.9,-68.426,-19.855,86.849,83.124
260.8,-69.426,-20.855,85.849,84.124
270.7,-69.426,-19.855,87.849,84.124
280.6,-69.426,-20.855,83.849,84.124
290.5,-68.426,-19.855,83.849,83.124
300.3,-69.426,-20.855,81.849,83.124
310.2,-69.426,-19.855,82.849,82.124
320.1,-68.426,-20.855,83.849,81.124
330.0,-70.426,-20.855,82.849,82.124
339.9,-69.426,-19.855,80.849,82.124
349.8,-70.426,-21.855,81.849,83.124
359.6,-70.426,-19.855,79.849,83.124
369.5,-69.426,-19.855,79.849,83.124
379.4,-68.426,-19.855,79.849,83.124
389.3,-69.426,-19.855,79.849,83.124
399.2,-70.426,-18.855,79.849,83.124
409.1,-70.426,-20.855,79.849,83.124
419.0,-71.426,-20.855,80.849,84.124
428.9,-72.426,-20.855,79.849,82.124
438.7,-72.426,-21.855,80.849,84.124
448.6,-72.426,-20.855,80.849,84.124
458.5,-73.426,-21.855,80.849,83.124
468.4,-73.426,-20.855,83.849,83.124
478.3,-74.426,-22.855,81.849,83.124
488.2,-78.426,-22.855,81.849,84.124
498.0,-78.426,-22.855,82.849,84.124
507.9,-79.426,-23.855,81.849,84.124
517.8,-79.426,-23.855,81.849,84.124
527.7,-81.426,-24.855,81.849,85.124
537.6,-81.426,-24.855,81.849,84.124
547.5,-84.426,-25.855,82.849,85.124
557.4,-84.426,-24.855,80.849,85.124
567.3,-86.426,-24.855,78.849,84.124
577.1,-86.426,-25.855,78.849,83.124
587.0,-86.426,-26.855,79.849,84.124
596.9,-86.426,-25.855,78.849,85.124
606.8,-87.426,-25.855,78.849,85.124
616.7,-89.426,-25.855,76.849,84.124
626.6,-90.426,-27.855,76.849,85.124
636.4,-90.426,-25.855,77.849,83.124
646.3,-90.426,-24.855,73.849,84.124
656.2,-93.426,-25.855,74.849,84.124
666.1,-90.426,-22.855,71.849,84.124
676.0,-89.426,-21.855,70.849,82.124
685.9,-87.426,-19.855,64.849,81.124
695.8,-83.426,-19.855,61.849,79.124
705.6,-83.426,-19.855,62.849,79.124
715.5,-77.426,-14.855,61.849,78.124
725.4,-77.426,-14.855,65.849,78.124
735.3,-71.426,-14.855,67.849,78.124
745.2,-71.426,-14.855,73.849,78.124
755.1,-64.426,-14.855,73.849,79.124
765.0,-64.426,-14.855,78.849,78.124
774.8,-63.426,-12.855,82.849,79.124
784.7,-63.426,-12.855,83.849,79.124
794.6,-60.426,-12.855,88.849,81.124
804.5,-60.426,-12.855,92.849,83.124
814.4,-60.426,-13.855,92.849,82.124
824.3,-60.426,-13.855,94.849,83.124
834.2,-59.426,-13.855,95.849,84.124
844.0,-59.426,-13.855,94.849,83.124
853.9,-59.426,-12.855,94.849,84.124
863.8,-60.426,-12.855,94.849,84.124
873.7,-60.426,-12.855,92.849,85.124
883.6,-59.426,-11.855,92.849,83.124
893.5,-61.426,-11.855,89.849,82.124
903.4,-60.426,-11.855,91.849,83.124
913.2,-60.426,-11.855,89.849,83.124
923.1,-60.426,-10.855,87.849,83.124
933.0,-60.426,-10.855,86.849,82.124
942.9,-61.426,-10.855,86.849,82.124
952.8,-59.426,-10.855,84.849,82.124
962.7,-60.426,-9.8549,85.849,82.124
972.6,-60.426,-9.8549,85.849,80.124
982.4,-59.426,-8.8549,83.849,83.124
992.3,-59.426,-8.8549,83.849,80.124
1002.2,-58.426,-9.8549,83.849,82.124
1012.1,-61.426,-10.855,84.849,81.124
1022.0,-61.426,-10.855,83.849,82.124
1031.9,-62.426,-9.8549,84.849,82.124
1041.8,-60.426,-9.8549,85.849,82.124
1051.6,-62.426,-10.855,86.849,82.124
1061.5,-62.426,-9.8549,85.849,82.124
1071.4,-65.426,-9.8549,86.849,83.124
1081.3,-64.426,-9.8549,84.849,81.124
1091.2,-64.426,-9.8549,85.849,81.124
1101.1,-66.426,-10.855,84.849,81.124
1111.0,-68.426,-11.855,83.849,82.124
1120.8,-68.426,-11.855,83.849,82.124
1130.7,-68.426,-11.855,83.849,82.124
1140.6,-70.426,-10.855,81.849,82.124
1150.5,-72.426,-11.855,82.849,80.124
1160.4,-72.426,-11.855,82.849,80.124
1170.3,-74.426,-12.855,81.849,82.124
1180.2,-75.426,-12.855,81.849,82.124
1190.0,-76.426,-13.855,78.849,80.124
1199.9,-76.426,-13.855,78.849,80.124
1209.8,-76.426,-14.855,75.849,79.124
1219.7,-77.426,-12.855,75.849,79.124
1229.6,-78.426,-15.855,74.849,80.124
1239.5,-80.426,-13.855,74.849,80.124
1249.4,-78.426,-12.855,72.849,79.124
1259.2,-79.426,-12.855,72.849,79.124
1269.1,-78.426,-10.855,67.849,78.124
1279.0,-80.426,-10.855,67.849,78.124
1288.9,-78.426,-9.8549,59.849,76.124
1298.8,-74.426,-6.8549,59.849,76.124
1308.7,-70.426,-6.8549,62.849,75.124
1318.6,-66.426,-5.8549,62.849,75.124
1328.4,-64.426,-3.8549,66.849,75.124
1338.3,-59.426,-3.8549,66.849,75.124
1348.2,-57.426,-2.8549,70.849,75.124
1358.1,-55.426,-2.8549,73.849,74.124
1368.0,-53.426,-1.8549,72.849,74.124
1377.9,-52.426,-1.8549,77.849,76.124
1387.8,-49.426,-2.8549,78.849,75.124
1397.6,-50.426,-2.8549,83.849,75.124
1407.5,-50.426,-1.8549,85.849,75.124
1417.4,-50.426,-1.8549,87.849,76.124
1427.3,-48.426,-0.85486,90.849,78.124
1437.2,-48.426,-0.85486,91.849,78.124
1447.1,-51.426,-1.8549,92.849,80.124
1457.0,-51.426,-1.8549,90.849,79.124
1466.8,-52.426,-0.85486,90.849,80.124
1476.7,-52.426,-0.85486,89.849,80.124
1486.6,-53.426,-0.85486,87.849,79.124
1496.5,-53.426,-0.85486,87.849,79.124
1506.4,-52.426,-1.8549,86.849,79.124
1516.3,-52.426,-1.8549,86.849,79.124
1526.2,-51.426,0.14514,86.849,79.124
1536.0,-51.426,0.14514,87.849,78.124
1545.9,-50.426,0.14514,85.849,79.124
1555.8,-50.426,1.1451,82.849,79.124
1565.7,-50.426,0.14514,83.849,78.124
1575.6,-52.426,0.14514,83.849,79.124
1585.5,-51.426,0.14514,81.849,78.124
1595.4,-52.426,1.1451,80.849,78.124
1605.2,-52.426,0.14514,80.849,77.124
1615.1,-51.426,1.1451,81.849,77.124
1625.0,-53.426,-0.85486,81.849,78.124
1634.9,-52.426,1.1451,83.849,78.124
1644.8,-52.426,0.14514,83.849,79.124
1654.7,-54.426,0.14514,83.849,78.124
1664.6,-55.426,0.14514,84.849,79.124
1674.4,-57.426,-0.85486,85.849,78.124
1684.3,-58.426,0.14514,83.849,79.124
1694.2,-60.426,-0.85486,82.849,79.124
1704.1,-58.426,-0.85486,83.849,79.124
1714.0,-59.426,-1.8549,82.849,78.124
1723.9,-59.426,-0.85486,82.849,78.124
1733.8,-59.426,1.1451,81.849,79.124
1743.6,-60.426,0.14514,80.849,77.124
1753.5,-61.426,-1.8549,81.849,79.124
1763.4,-60.426,-0.85486,80.849,78.124
1773.3,-63.426,-2.8549,79.849,79.124
1783.2,-65.426,-2.8549,77.849,78.124
1793.1,-65.426,-1.8549,76.849,79.124
1803.0,-66.426,-2.8549,76.849,78.124
1812.8,-68.426,-3.8549,74.849,77.124
1822.7,-68.426,-3.8549,73.849,76.124
1832.6,-69.426,-2.8549,73.849,76.124
1842.5,-69.426,-1.8549,72.849,77.124
1852.4,-68.426,-0.85486,72.849,78.124
1862.3,-68.426,-0.85486,70.849,77.124
1872.2,-72.426,1.1451,69.849,77.124
1882.0,-68.426,1.1451,64.849,75.124
1891.9,-65.426,2.1451,60.849,75.124
1901.8,-63.426,3.1451,57.849,72.124
1911.7,-59.426,5.1451,60.849,72.124
1921.6,-56.426,5.1451,61.849,71.124
1931.5,-54.426,6.1451,63.849,72.124
1941.4,-50.426,6.1451,68.849,72.124
1951.2,-48.426,7.1451,69.849,72.124
1961.1,-45.426,9.1451,70.849,72.124
1971.0,-44.426,7.1451,74.849,72.124
1980.9,-42.426,7.1451,76.849,71.124
1990.8,-41.426,8.1451,79.849,73.124
2000.7,-41.426,9.1451,81.849,73.124
2010.6,-42.426,8.1451,84.849,74.124
2020.4,-42.426,8.1451,86.849,75.124
2030.3,-41.426,7.1451,85.849,76.124
2040.2,-42.426,6.1451,87.849,76.124
2050.1,-41.426,9.1451,86.849,77.124
2060.0,-43.426,8.1451,82.849,75.124
2069.9,-44.426,8.1451,81.849,75.124
2079.8,-44.426,10.145,78.849,75.124
2089.6,-44.426,9.1451,77.849,75.124
2099.5,-43.426,10.145,77.849,74.124
2109.4,-46.426,9.1451,78.849,74.124
2119.3,-44.426,10.145,77.849,74.124
2129.2,-44.426,10.145,77.849,74.124
2139.1,-45.426,12.145,76.849,74.124
2149.0,-45.426,12.145,76.849,74.124
2158.8,-43.426,10.145,73.849,73.124
2168.7,-43.426,10.145,73.849,73.124
2178.6,-43.426,10.145,73.849,72.124
2188.5,-43.426,10.145,73.849,72.124
2198.4,-44.426,10.145,71.849,72.124
2208.3,-44.426,10.145,71.849,72.124
2218.2,-44.426,11.145,73.849,73.124
2228.0,-44.426,11.145,73.849,73.124
2237.9,-47.426,9.1451,73.849,73.124
2247.8,-47.426,9.1451,73.849,73.124
2257.7,-46.426,9.1451,73.849,73.124
2267.6,-49.426,9.1451,73.849,73.124
2277.5,-50.426,9.1451,74.849,72.124
2287.4,-50.426,9.1451,74.849,72.124
2297.2,-50.426,9.1451,72.849,71.124
2307.1,-53.426,9.1451,72.849,71.124
2317.0,-52.426,8.1451,73.849,72.124
2326.9,-53.426,8.1451,71.849,72.124
2336.8,-54.426,8.1451,70.849,72.124
2346.7,-55.426,8.1451,70.849,72.124
2356.6,-56.426,6.1451,70.849,71.124
2366.4,-57.426,6.1451,69.849,70.124
2376.3,-58.426,7.1451,69.849,71.124
2386.2,-59.426,6.1451,69.849,69.124
2396.1,-59.426,7.1451,68.849,72.124
2406.0,-62.426,5.1451,64.849,71.124
2415.9,-60.426,6.1451,64.849,72.124
2425.8,-62.426,4.1451,62.849,71.124
2435.6,-63.426,5.1451,61.849,71.124
2445.5,-62.426,6.1451,60.849,70.124
2455.4,-62.426,6.1451,58.849,70.124
2465.3,-63.426,9.1451,58.849,68.124
2475.2,-62.426,8.1451,57.849,69.124
2485.1,-61.426,10.145,54.849,69.124
2495.0,-60.426,12.145,49.849,67.124
2504.8,-56.426,13.145,46.849,66.124
2514.7,-55.426,13.145,48.849,67.124
2524.6,-49.426,15.145,51.849,66.124
2534.5,-48.426,14.145,54.849,66.124
2544.4,-44.426,15.145,57.849,65.124
2554.3,-44.426,15.145,59.849,66.124
2564.2,-40.426,15.145,60.849,65.124
2574.0,-38.426,15.145,65.849,65.124
2583.9,-37.426,14.145,68.849,65.124
2593.8,-36.426,16.145,67.849,67.124
2603.7,-36.426,16.145,72.849,67.124
2613.6,-38.426,13.145,75.849,68.124
2623.5,-36.426,16.145,75.849,69.124
2633.4,-35.426,15.145,75.849,68.124
2643.2,-36.426,16.145,72.849,69.124
2653.1,-37.426,15.145,73.849,69.124
2663.0,-38.426,16.145,74.849,70.124
2672.9,-37.426,16.145,69.849,69.124
2682.8,-37.426,17.145,70.849,69.124
2692.7,-36.426,17.145,68.849,69.124
2702.6,-38.426,17.145,71.849,68.124
2712.4,-36.426,18.145,70.849,68.124
2722.3,-36.426,19.145,64.849,67.124
2732.2,-37.426,18.145,65.849,67.124
2742.1,-35.426,17.145,65.849,67.124
2752.0,-35.426,18.145,64.849,67.124
2761.9,-33.426,17.145,62.849,66.124
2771.8,-35.426,19.145,64.849,68.124
2781.6,-34.426,17.145,63.849,67.124
2791.5,-34.426,18.145,64.849,69.124
2801.4,-35.426,19.145,64.849,67.124
2811.3,-36.426,18.145,63.849,67.124
2821.2,-37.426,18.145,64.849,68.124
2831.1,-39.426,18.145,65.849,67.124
2841.0,-38.426,19.145,65.849,67.124
2850.8,-39.426,19.145,65.849,67.124
2860.7,-39.426,19.145,64.849,68.124
2870.6,-38.426,18.145,65.849,66.124
2880.5,-38.426,18.145,64.849,67.124
2890.4,-41.426,17.145,64.849,66.124
2900.3,-41.426,17.145,64.849,67.124
2910.1,-43.426,16.145,63.849,66.124
2920.0,-43.426,16.145,63.849,66.124
2929.9,-45.426,17.145,61.849,67.124
2939.8,-45.426,17.145,63.849,67.124
2949.7,-49.426,15.145,63.849,67.124
2959.6,-49.426,15.145,61.849,67.124
2969.5,-49.426,15.145,60.849,66.124
2979.4,-49.426,15.145,60.849,69.124
2989.2,-50.426,15.145,60.849,67.124
2999.1,-50.426,15.145,60.849,66.124
3009.0,-52.426,14.145,58.849,69.124
3018.9,-54.426,13.145,56.849,67.124
3028.8,-54.426,13.145,56.849,66.124
3038.7,-54.426,15.145,54.849,67.124
3048.5,-53.426,16.145,54.849,66.124
3058.4,-55.426,16.145,53.849,67.124
3068.3,-54.426,17.145,52.849,66.124
3078.2,-54.426,18.145,47.849,66.124
3088.1,-51.426,19.145,41.849,64.124
3098.0,-47.426,19.145,39.849,62.124
3107.9,-46.426,22.145,39.849,61.124
3117.8,-43.426,21.145,42.849,61.124
3127.6,-39.426,22.145,43.849,61.124
3137.5,-35.426,23.145,43.849,61.124
3147.4,-35.426,22.145,46.849,60.124
3157.3,-31.426,24.145,46.849,60.124
3167.2,-29.426,25.145,51.849,60.124
3177.1,-27.426,23.145,51.849,60.124
3186.9,-28.426,25.145,55.849,60.124
3196.8,-25.426,24.145,55.849,60.124
3206.7,-26.426,24.145,61.849,60.124
3216.6,-25.426,24.145,61.849,60.124
3226.5,-27.426,24.145,60.849,62.124
3236.4,-25.426,25.145,60.849,62.124
3246.3,-25.426,25.145,60.849,61.124
3256.1,-25.426,25.145,60.849,61.124
3266.0,-29.426,25.145,55.849,62.124
3275.9,-29.426,25.145,55.849,62.124
3285.8,-27.426,25.145,54.849,61.124
3295.7,-29.426,24.145,54.849,61.124
3305.6,-28.426,25.145,52.849,60.124
3315.5,-28.426,26.145,52.849,60.124
3325.3,-27.426,25.145,50.849,58.124
3335.2,-26.426,27.145,50.849,58.124
3345.1,-25.426,26.145,49.849,59.124
3355.0,-26.426,27.145,51.849,59.124
3364.9,-26.426,24.145,48.849,59.124
3374.8,-24.426,26.145,48.849,59.124
3384.7,-25.426,25.145,48.849,60.124
3394.5,-26.426,26.145,48.849,59.124
3404.4,-25.426,26.145,48.849,59.124
3414.3,-25.426,26.145,49.849,58.124
3424.2,-27.426,26.145,47.849,57.124
3434.1,-26.426,27.145,47.849,57.124
3444.0,-29.426,26.145,47.849,58.124
3453.9,-28.426,25.145,47.849,57.124
3463.7,-29.426,25.145,46.849,57.124
3473.6,-31.426,24.145,47.849,57.124
3483.5,-31.426,25.145,47.849,56.124
3493.4,-30.426,24.145,46.849,56.124
3503.3,-32.426,25.145,44.849,57.124
3513.2,-32.426,24.145,45.849,57.124
3523.1,-33.426,25.145,45.849,57.124
3532.9,-32.426,26.145,45.849,56.124
3542.8,-32.426,24.145,45.849,58.124
3552.7,-35.426,24.145,45.849,58.124
3562.6,-36.426,23.145,43.849,57.124
3572.5,-36.426,23.145,42.849,58.124
3582.4,-36.426,23.145,40.849,56.124
3592.3,-36.426,23.145,40.849,56.124
3602.1,-39.426,23.145,39.849,56.124
3612.0,-39.426,23.145,39.849,57.124
3621.9,-39.426,24.145,36.849,58.124
3631.8,-39.426,24.145,36.849,57.124
3641.7,-41.426,24.145,37.849,57.124
3651.6,-41.426,24.145,34.849,57.124
3661.5,-39.426,28.145,33.849,56.124
3671.3,-39.426,28.145,30.849,54.124
3681.2,-34.426,30.145,25.849,53.124
3691.1,-34.426,30.145,23.849,53.124
3701.0,-27.426,32.145,23.849,52.124
3710.9,-27.426,32.145,25.849,51.124
3720.8,-26.426,33.145,29.849,51.124
3730.7,-21.426,33.145,29.849,52.124
3740.5,-17.426,34.145,33.849,51.124
3750.4,-15.426,34.145,36.849,52.124
3760.3,-12.426,33.145,38.849,52.124
3770.2,-10.426,35.145,41.849,53.124
3780.1,-9.426,34.145,44.849,53.124
3790.0,-10.426,35.145,47.849,55.124
3799.9,-9.426,34.145,47.849,54.124
3809.7,-10.426,34.145,50.849,55.124
3819.6,-9.426,35.145,52.849,56.124
3829.5,-9.426,34.145,52.849,57.124
3839.4,-9.426,35.145,50.849,56.124
3849.3,-9.426,35.145,50.849,56.124
3859.2,-11.426,35.145,49.849,55.124
3869.1,-10.426,36.145,48.849,56.124
3878.9,-10.426,35.145,48.849,55.124
3888.8,-11.426,35.145,48.849,55.124
3898.7,-10.426,36.145,47.849,55.124
3908.6,-9.426,36.145,48.849,55.124
3918.5,-9.426,38.145,47.849,56.124
3928.4,-9.426,36.145,46.849,56.124
3938.3,-7.426,38.145,46.849,57.124
3948.1,-8.426,36.145,46.849,56.124
3958.0,-9.426,37.145,45.849,56.124
3967.9,-6.426,37.145,45.849,56.124
3977.8,-7.426,39.145,45.849,57.124
3987.7,-7.426,37.145,46.849,56.124
3997.6,-7.426,37.145,48.849,58.124
4007.5,-9.426,37.145,50.849,57.124
4017.3,-8.426,37.145,48.849,57.124
4027.2,-10.426,36.145,49.849,57.124
4037.1,-9.426,35.145,49.849,57.124
4047.0,-12.426,35.145,52.849,57.124
4056.9,-12.426,35.145,51.849,57.124
4066.8,-12.426,34.145,53.849,59.124
4076.7,-14.426,34.145,54.849,59.124
4086.5,-16.426,33.145,52.849,57.124
4096.4,-14.426,33.145,51.849,58.124
4106.3,-14.426,35.145,53.849,58.124
4116.2,-18.426,33.145,50.849,57.124
4126.1,-16.426,34.145,52.849,58.124
4136.0,-18.426,34.145,52.849,58.124
4145.9,-20.426,34.145,52.849,58.124
4155.7,-21.426,31.145,52.849,59.124
4165.6,-21.426,33.145,52.849,59.124
4175.5,-22.426,31.145,51.849,60.124
4185.4,-24.426,32.145,49.849,60.124
4195.3,-27.426,30.145,49.849,59.124
4205.2,-26.426,31.145,46.849,58.124
4215.1,-27.426,32.145,46.849,59.124
4224.9,-28.426,31.145,46.849,59.124
4234.8,-29.426,33.145,43.849,58.124
4244.7,-24.426,35.145,43.849,58.124
4254.6,-22.426,37.145,36.849,57.124
4264.5,-21.426,38.145,36.849,57.124
4274.4,-17.426,39.145,37.849,56.124
4284.3,-17.426,39.145,37.849,56.124
4294.1,-8.426,42.145,41.849,57.124
4304.0,-8.426,42.145,41.849,57.124
4313.9,0.57402,43.145,47.849,55.124
4323.8,0.57402,43.145,47.849,55.124
4333.7,4.574,42.145,56.849,58.124
4343.6,4.574,42.145,56.849,58.124
4353.5,7.574,44.145,64.849,59.124
4363.3,7.574,44.145,64.849,59.124
4373.2,9.574,45.145,71.849,61.124
4383.1,9.574,45.145,71.849,61.124
4393.0,8.574,44.145,75.849,63.124
4402.9,8.574,44.145,75.849,63.124
4412.8,11.574,45.145,74.849,63.124
4422.7,11.574,45.145,74.849,63.124
4432.5,7.574,44.145,77.849,65.124
4442.4,7.574,44.145,77.849,65.124
4452.3,8.574,46.145,73.849,65.124
4462.2,7.574,46.145,72.849,63.124
4472.1,9.574,45.145,74.849,63.124
4482.0,8.574,47.145,72.849,64.124
4491.9,10.574,48.145,73.849,63.124
4501.7,10.574,48.145,74.849,65.124
4511.6,9.574,47.145,73.849,65.124
4521.5,10.574,48.145,74.849,64.124
4531.4,13.574,47.145,73.849,63.124
4541.3,10.574,47.145,71.849,65.124
4551.2,11.574,48.145,71.849,64.124
4561.1,10.574,46.145,70.849,63.124
4570.9,11.574,47.145,71.849,64.124
4580.8,10.574,46.145,71.849,63.124
4590.7,10.574,46.145,75.849,64.124
4600.6,8.574,45.145,74.849,64.124
4610.5,8.574,46.145,75.849,64.124
4620.4,8.574,47.145,75.849,64.124
4630.3,4.574,45.145,75.849,65.124
4640.1,4.574,44.145,75.849,65.124
4650.0,4.574,45.145,75.849,65.124
4659.9,1.574,43.145,74.849,64.124
4669.8,1.574,44.145,75.849,63.124
4679.7,0.57402,42.145,74.849,63.124
4689.6,-0.42598,43.145,73.849,61.124
4699.5,0.57402,42.145,74.849,65.124
4709.3,-2.426,42.145,74.849,64.124
4719.2,-2.426,41.145,72.849,64.124
4729.1,-4.426,41.145,73.849,64.124
4739.0,-6.426,40.145,69.849,65.124
4748.9,-7.426,40.145,70.849,63.124
4758.8,-8.426,39.145,68.849,64.124
4768.7,-9.426,40.145,66.849,63.124
4778.5,-11.426,38.145,68.849,63.124
4788.4,-11.426,37.145,65.849,63.124
4798.3,-13.426,38.145,64.849,63.124
4808.2,-15.426,40.145,62.849,62.124
4818.1,-15.426,40.145,63.849,62.124
4828.0,-15.426,40.145,58.849,61.124
4837.9,-14.426,41.145,56.849,60.124
4847.7,-13.426,42.145,51.849,59.124
4857.6,-10.426,44.145,49.849,56.124
4867.5,-6.426,45.145,50.849,56.124
4877.4,-4.426,45.145,54.849,55.124
4887.3,1.574,46.145,56.849,57.124
4897.2,5.574,46.145,60.849,57.124
4907.1,8.574,47.145,67.849,58.124
4916.9,12.574,47.145,67.849,57.124
4926.8,13.574,46.145,72.849,58.124
4936.7,17.574,47.145,75.849,58.124
4946.6,18.574,48.145,78.849,58.124
4956.5,16.574,47.145,83.849,58.124
4966.4,18.574,47.145,86.849,60.124
4976.3,18.574,47.145,87.849,62.124
4986.1,17.574,47.145,90.849,61.124
4996.0,20.574,48.145,91.849,62.124
5005.9,19.574,47.145,93.849,63.124
5015.8,17.574,46.145,92.849,64.124
5025.7,17.574,47.145,93.849,62.124
5035.6,17.574,47.145,90.849,62.124
5045.5,15.574,46.145,89.849,63.124
5055.3,15.574,46.145,87.849,62.124
5065.2,16.574,45.145,88.849,59.124
5075.1,16.574,45.145,87.849,61.124
5085.0,15.574,45.145,87.849,61.124
5094.9,15.574,45.145,86.849,61.124
5104.8,17.574,47.145,85.849,61.124
5114.7,17.574,47.145,87.849,62.124
5124.5,18.574,45.145,86.849,62.124
5134.4,18.574,45.145,86.849,61.124
5144.3,20.574,44.145,85.849,62.124
5154.2,20.574,44.145,83.849,61.124
5164.1,18.574,46.145,83.849,60.124
5174.0,18.574,45.145,83.849,60.124
5183.9,17.574,44.145,84.849,61.124
5193.7,17.574,44.145,86.849,61.124
5203.6,16.574,44.145,86.849,60.124
5213.5,16.574,43.145,86.849,60.124
5223.4,15.574,43.145,87.849,61.124
5233.3,13.574,44.145,87.849,61.124
5243.2,15.574,43.145,87.849,61.124
5253.1,14.574,43.145,87.849,61.124
5262.9,13.574,41.145,89.849,61.124
5272.8,11.574,43.145,89.849,61.124
5282.7,13.574,42.145,87.849,62.124
5292.6,9.574,42.145,87.849,62.124
5302.5,9.574,42.145,86.849,61.124
5312.4,9.574,42.145,86.849,61.124
5322.3,8.574,41.145,83.849,61.124
5332.1,5.574,41.145,83.849,61.124
5342.0,5.574,40.145,82.849,61.124
5351.9,2.574,39.145,82.849,61.124
5361.8,3.574,39.145,81.849,60.124
5371.7,2.574,37.145,81.849,60.124
5381.6,-0.42598,37.145,78.849,61.124
5391.5,-1.426,36.145,78.849,61.124
5401.3,-0.42598,38.145,78.849,60.124
5411.2,-2.426,39.145,77.849,60.124
5421.1,-3.426,38.145,75.849,60.124
5431.0,-2.426,38.145,75.849,60.124
5440.9,-2.426,40.145,72.849,59.124
5450.8,-3.426,43.145,69.849,57.124
5460.7,2.574,45.145,65.849,55.124
5470.5,6.574,45.145,63.849,54.124
5480.4,10.574,45.145,67.849,55.124
5490.3,14.574,46.145,68.849,53.124
5500.2,18.574,47.145,72.849,55.124
5510.1,21.574,48.145,76.849,54.124
5520.0,24.574,47.145,78.849,55.124
5529.9,27.574,49.145,82.849,55.124
5539.7,29.574,49.145,85.849,55.124
5549.6,29.574,49.145,89.849,55.124
5559.5,32.574,50.145,93.849,56.124
5569.4,35.574,51.145,96.849,56.124
5579.3,34.574,50.145,98.849,57.124
5589.2,34.574,50.145,99.849,56.124
5599.0,35.574,49.145,100.85,57.124
5608.9,35.574,50.145,102.85,59.124
5618.8,35.574,51.145,101.85,58.124
5628.7,35.574,51.145,101.85,58.124
5638.6,33.574,51.145,100.85,59.124
5648.5,33.574,50.145,99.849,58.124
5658.4,33.574,51.145,98.849,58.124
5668.3,34.574,50.145,96.849,58.124
5678.1,35.574,49.145,95.849,56.124
5688.0,34.574,51.145,93.849,55.124
5697.9,36.574,50.145,93.849,56.124
5707.8,36.574,52.145,94.849,56.124
5717.7,37.574,50.145,93.849,56.124
5727.6,37.574,50.145,91.849,57.124
5737.4,35.574,51.145,91.849,56.124
5747.3,35.574,51.145,90.849,56.124
5757.2,34.574,49.145,91.849,57.124
5767.1,34.574,49.145,88.849,55.124
5777.0,33.574,49.145,88.849,55.124
5786.9,33.574,49.145,91.849,55.124
5796.8,35.574,49.145,89.849,55.124
5806.6,35.574,49.145,90.849,55.124
5816.5,32.574,46.145,89.849,54.124
5826.4,32.574,46.145,89.849,54.124
5836.3,30.574,47.145,91.849,54.124
5846.2,30.574,47.145,92.849,55.124
5856.1,27.574,45.145,89.849,54.124
5866.0,27.574,45.145,90.849,54.124
5875.8,24.574,44.145,89.849,54.124
5885.7,24.574,44.145,88.849,54.124
5895.6,22.574,45.145,87.849,53.124
5905.5,21.574,43.145,86.849,52.124
5915.4,22.574,43.145,84.849,52.124
5925.3,19.574,45.145,84.849,52.124
5935.2,19.574,43.145,82.849,50.124
5945.0,18.574,43.145,83.849,51.124
5954.9,17.574,40.145,80.849,51.124
5964.8,16.574,42.145,82.849,51.124
5974.7,15.574,41.145,80.849,50.124
5984.6,13.574,40.145,78.849,50.124
5994.5,11.574,40.145,77.849,51.124
6004.4,11.574,39.145,74.849,49.124
6014.2,9.574,37.145,71.849,49.124
6024.1,6.574,37.145,72.849,49.124
6034.0,6.574,37.145,71.849,49.124
6043.9,6.574,39.145,72.849,48.124
6053.8,4.574,40.145,70.849,48.124
6063.7,6.574,40.145,67.849,47.124
6073.6,7.574,42.145,64.849,47.124
6083.4,10.574,45.145,58.849,45.124
6093.3,13.574,46.145,60.849,44.124
6103.2,15.574,45.145,63.849,44.124
6113.1,20.574,47.145,62.849,44.124
6123.0,24.574,49.145,66.849,43.124
6132.9,29.574,49.145,68.849,42.124
6142.8,34.574,50.145,74.849,44.124
6152.6,35.574,49.145,77.849,44.124
6162.5,36.574,51.145,79.849,44.124
6172.4,38.574,50.145,81.849,44.124
6182.3,38.574,51.145,87.849,46.124
6192.2,40.574,50.145,89.849,45.124
6202.1,41.574,51.145,91.849,47.124
6212.0,41.574,51.145,92.849,47.124
6221.8,43.574,49.145,94.849,47.124
6231.7,42.574,49.145,92.849,48.124
6241.6,41.574,50.145,94.849,49.124
6251.5,41.574,48.145,94.849,49.124
6261.4,40.574,49.145,92.849,48.124
6271.3,40.574,51.145,92.849,49.124
6281.2,40.574,49.145,92.849,49.124
6291.0,39.574,50.145,90.849,47.124
6300.9,39.574,48.145,90.849,47.124
6310.8,39.574,49.145,90.849,47.124
6320.7,40.574,50.145,90.849,47.124
6330.6,39.574,48.145,87.849,48.124
6340.5,40.574,49.145,87.849,48.124
6350.4,39.574,47.145,86.849,48.124
6360.2,39.574,49.145,86.849,48.124
6370.1,39.574,49.145,84.849,46.124
6380.0,40.574,47.145,84.849,46.124
6389.9,39.574,48.145,84.849,46.124
6399.8,37.574,48.145,84.849,46.124
6409.7,38.574,48.145,85.849,45.124
6419.6,36.574,46.145,85.849,45.124
6429.4,37.574,46.145,86.849,46.124
6439.3,35.574,46.145,86.849,46.124
6449.2,33.574,44.145,87.849,47.124
6459.1,33.574,44.145,87.849,47.124
6469.0,33.574,44.145,86.849,47.124
6478.9,33.574,44.145,86.849,47.124
6488.8,29.574,43.145,87.849,45.124
6498.6,29.574,43.145,85.849,45.124
6508.5,26.574,41.145,87.849,46.124
6518.4,26.574,41.145,87.849,45.124
6528.3,27.574,41.145,84.849,45.124
6538.2,27.574,41.145,85.849,45.124
6548.1,25.574,42.145,83.849,44.124
6558.0,25.574,42.145,84.849,45.124
6567.8,21.574,41.145,82.849,47.124
6577.7,21.574,41.145,81.849,46.124
6587.6,21.574,40.145,80.849,46.124
6597.5,21.574,40.145,79.849,45.124
6607.4,20.574,41.145,79.849,45.124
6617.3,18.574,38.145,78.849,46.124
6627.2,19.574,38.145,74.849,45.124
6637.0,16.574,37.145,75.849,44.124
6646.9,15.574,37.145,73.849,44.124
6656.8,14.574,37.145,72.849,43.124
6666.7,13.574,35.145,70.849,43.124
6676.6,11.574,34.145,72.849,44.124
6686.5,10.574,35.145,70.849,43.124
6696.4,11.574,37.145,67.849,43.124
6706.2,9.574,37.145,67.849,43.124
6716.1,11.574,39.145,65.849,42.124
6726.0,13.574,43.145,61.849,42.124
6735.9,17.574,43.145,57.849,40.124
6745.8,19.574,43.145,56.849,39.124
6755.7,22.574,44.145,60.849,37.124
6765.6,26.574,45.145,60.849,38.124
6775.4,29.574,45.145,62.849,38.124
6785.3,32.574,45.145,68.849,39.124
6795.2,35.574,46.145,70.849,39.124
6805.1,39.574,46.145,74.849,39.124
6815.0,39.574,46.145,76.849,40.124
6824.9,40.574,46.145,81.849,39.124
6834.8,42.574,46.145,84.849,41.124
6844.6,42.574,45.145,88.849,42.124
6854.5,41.574,46.145,88.849,42.124
6864.4,42.574,46.145,91.849,43.124
6874.3,44.574,46.145,92.849,45.124
6884.2,43.574,46.145,90.849,45.124
6894.1,40.574,46.145,91.849,44.124
6904.0,42.574,45.145,87.849,43.124
6913.8,41.574,45.145,88.849,44.124
6923.7,41.574,47.145,87.849,44.124
6933.6,40.574,46.145,86.849,43.124
6943.5,40.574,44.145,85.849,44.124
6953.4,41.574,47.145,84.849,42.124
6963.3,42.574,47.145,85.849,42.124
6973.2,40.574,47.145,85.849,42.124
6983.0,40.574,47.145,83.849,43.124
6992.9,41.574,47.145,84.849,44.124
7002.8,41.574,46.145,84.849,43.124
7012.7,41.574,46.145,82.849,43.124
7022.6,41.574,47.145,81.849,41.124
7032.5,41.574,47.145,80.849,42.124
7042.4,42.574,46.145,80.849,41.124
7052.2,40.574,47.145,80.849,41.124
7062.1,41.574,45.145,80.849,40.124
7072.0,40.574,46.145,82.849,41.124
7081.9,38.574,45.145,80.849,41.124
7091.8,38.574,43.145,83.849,41.124
7101.7,36.574,44.145,82.849,41.124
7111.6,35.574,43.145,84.849,41.124
7121.4,35.574,43.145,82.849,40.124
7131.3,34.574,42.145,81.849,41.124
7141.2,32.574,40.145,80.849,40.124
7151.1,30.574,41.145,78.849,39.124
7161.0,31.574,41.145,78.849,39.124
7170.9,29.574,39.145,76.849,39.124
7180.8,28.574,40.145,76.849,38.124
7190.6,28.574,40.145,75.849,38.124
7200.5,26.574,40.145,76.849,38.124
7210.4,26.574,40.145,73.849,38.124
7220.3,24.574,36.145,72.849,38.124
7230.2,24.574,36.145,72.849,36.124
7240.1,20.574,34.145,71.849,38.124
7250.0,20.574,34.145,66.849,37.124
7259.8,17.574,34.145,65.849,36.124
7269.7,17.574,34.145,63.849,36.124
7279.6,15.574,33.145,62.849,36.124
7289.5,15.574,33.145,60.849,36.124
7299.4,12.574,31.145,60.849,36.124
7309.3,12.574,31.145,60.849,36.124
7319.2,11.574,31.145,57.849,33.124
7329.0,11.574,32.145,57.849,33.124
7338.9,11.574,32.145,54.849,34.124
7348.8,10.574,33.145,54.849,34.124
7358.7,9.574,34.145,52.849,33.124
7368.6,9.574,35.145,52.849,33.124
7378.5,11.574,36.145,43.849,30.124
7388.4,13.574,38.145,43.849,30.124
7398.2,15.574,37.145,42.849,27.124
7408.1,19.574,39.145,42.849,27.124
7418.0,24.574,41.145,43.849,27.124
7427.9,25.574,40.145,43.849,27.124
7437.8,29.574,41.145,48.849,25.124
7447.7,33.574,41.145,48.849,25.124
7457.6,35.574,41.145,52.849,26.124
7467.4,38.574,42.145,52.849,26.124
7477.3,38.574,41.145,58.849,27.124
7487.2,40.574,42.145,58.849,27.124
7497.1,42.574,42.145,60.849,26.124
7507.0,41.574,42.145,62.849,26.124
7516.9,41.574,40.145,60.849,27.124
7526.8,40.574,41.145,63.849,27.124
7536.6,39.574,40.145,63.849,28.124
7546.5,39.574,39.145,61.849,28.124
7556.4,38.574,38.145,61.849,27.124
7566.3,39.574,40.145,58.849,26.124
7576.2,35.574,40.145,57.849,26.124
7586.1,37.574,39.145,54.849,25.124
7596.0,36.574,39.145,53.849,26.124
7605.8,36.574,39.145,53.849,24.124
7615.7,35.574,40.145,51.849,23.124
7625.6,34.574,38.145,50.849,24.124
7635.5,35.574,38.145,49.849,25.124
7645.4,35.574,38.145,49.849,23.124
7655.3,35.574,39.145,47.849,24.124
7665.2,33.574,37.145,46.849,24.124
7675.0,34.574,35.145,45.849,23.124
7684.9,33.574,36.145,44.849,23.124
7694.8,32.574,35.145,43.849,21.124
7704.7,31.574,36.145,41.849,22.124
7714.6,32.574,34.145,43.849,21.124
7724.5,30.574,34.145,41.849,22.124
7734.4,30.574,34.145,44.849,21.124
7744.2,27.574,33.145,42.849,21.124
7754.1,27.574,33.145,42.849,22.124
7764.0,25.574,33.145,43.849,21.124
7773.9,25.574,32.145,43.849,20.124
7783.8,21.574,31.145,45.849,21.124
7793.7,21.574,31.145,43.849,19.124
7803.6,21.574,31.145,42.849,22.124
7813.4,21.574,30.145,41.849,19.124
7823.3,19.574,29.145,42.849,20.124
7833.2,17.574,28.145,41.849,20.124
7843.1,15.574,28.145,39.849,20.124
7853.0,14.574,29.145,40.849,20.124
7862.9,14.574,27.145,38.849,20.124
7872.8,13.574,27.145,36.849,20.124
7882.6,11.574,28.145,36.849,19.124
7892.5,9.574,26.145,34.849,19.124
7902.4,9.574,26.145,34.849,19.124
7912.3,6.574,25.145,33.849,19.124
7922.2,6.574,25.145,32.849,20.124
7932.1,3.574,23.145,33.849,20.124
7942.0,3.574,23.145,29.849,19.124
7951.8,0.57402,20.145,28.849,20.124
7961.7,0.57402,20.145,29.849,19.124
7971.6,-3.426,20.145,26.849,19.124
7981.5,-3.426,20.145,27.849,19.124
7991.4,-1.426,21.145,26.849,20.124
8001.3,-1.426,21.145,25.849,19.124
8011.2,-4.426,23.145,25.849,20.124
8021.0,-4.426,23.145,23.849,20.124
8030.9,-4.426,23.145,20.849,19.124
8040.8,-3.426,25.145,14.849,17.124
8050.7,-0.42598,25.145,12.849,16.124
8060.6,-0.42598,25.145,14.849,15.124
8070.5,5.574,27.145,15.849,14.124
8080.4,9.574,28.145,17.849,14.124
8090.2,13.574,27.145,19.849,14.124
8100.1,16.574,29.145,21.849,13.124
8110.0,19.574,28.145,24.849,14.124
8119.9,22.574,30.145,26.849,14.124
8129.8,22.574,28.145,31.849,15.124
8139.7,25.574,29.145,34.849,16.124
8149.5,24.574,29.145,36.849,16.124
8159.4,26.574,29.145,39.849,17.124
8169.3,26.574,28.145,39.849,16.124
8179.2,25.574,28.145,41.849,17.124
8189.1,27.574,30.145,42.849,18.124
8199.0,26.574,28.145,41.849,19.124
8208.9,24.574,29.145,40.849,18.124
8218.8,25.574,28.145,38.849,19.124
8228.6,24.574,30.145,38.849,19.124
8238.5,25.574,30.145,38.849,18.124
8248.4,24.574,30.145,35.849,18.124
8258.3,23.574,29.145,35.849,18.124
8268.2,24.574,30.145,34.849,17.124
8278.1,26.574,31.145,34.849,17.124
8287.9,24.574,31.145,32.849,18.124
8297.8,23.574,30.145,32.849,18.124
8307.7,25.574,30.145,30.849,18.124
8317.6,26.574,30.145,31.849,18.124
8327.5,24.574,30.145,32.849,18.124
8337.4,25.574,30.145,32.849,18.124
8347.3,25.574,31.145,30.849,19.124
8357.2,24.574,30.145,30.849,19.124
8367.0,24.574,29.145,30.849,18.124
8376.9,23.574,29.145,30.849,18.124
8386.8,23.574,27.145,32.849,19.124
8396.7,23.574,29.145,32.849,19.124
8406.6,21.574,27.145,32.849,19.124
8416.5,18.574,27.145,32.849,19.124
8426.3,17.574,26.145,34.849,19.124
8436.2,17.574,27.145,34.849,19.124
8446.1,16.574,26.145,32.849,20.124
8456.0,15.574,26.145,32.849,20.124
8465.9,13.574,25.145,33.849,19.124
8475.8,12.574,26.145,33.849,19.124
8485.7,11.574,25.145,32.849,20.124
8495.5,10.574,25.145,32.849,20.124
8505.4,9.574,24.145,32.849,21.124
8515.3,8.574,24.145,32.849,21.124
8525.2,6.574,23.145,30.849,21.124
8535.1,5.574,23.145,30.849,21.124
8545.0,5.574,23.145,29.849,21.124
8554.9,3.574,21.145,29.849,21.124
8564.7,1.574,20.145,28.849,20.124
8574.6,-0.42598,20.145,25.849,19.124
8584.5,-3.426,20.145,24.849,20.124
8594.4,-3.426,20.145,23.849,18.124
8604.3,-2.426,18.145,24.849,20.124
8614.2,-2.426,18.145,24.849,19.124
8624.1,-4.426,20.145,22.849,21.124
8633.9,-4.426,20.145,22.849,20.124
8643.8,-7.426,22.145,19.849,20.124
8653.7,-7.426,22.145,19.849,20.124
8663.6,-4.426,23.145,18.849,20.124
8673.5,-4.426,23.145,10.849,17.124
8683.4,4.574,27.145,10.849,18.124
8693.3,4.574,27.145,11.849,17.124
8703.1,10.574,28.145,12.849,16.124
8713.0,10.574,28.145,14.849,17.124
8722.9,17.574,29.145,19.849,16.124
8732.8,17.574,29.145,23.849,17.124
8742.7,20.574,29.145,25.849,17.124
8752.6,23.574,29.145,28.849,18.124
8762.5,25.574,30.145,33.849,18.124
8772.3,25.574,30.145,35.849,19.124
8782.2,27.574,30.145,39.849,20.124
8792.1,25.574,29.145,42.849,21.124
8802.0,25.574,29.145,43.849,20.124
8811.9,25.574,29.145,42.849,21.124
8821.8,27.574,29.145,45.849,20.124
8831.7,25.574,31.145,44.849,24.124
8841.5,26.574,30.145,45.849,22.124
8851.4,23.574,30.145,44.849,23.124
8861.3,23.574,30.145,40.849,24.124
8871.2,23.574,29.145,41.849,24.124
8881.1,22.574,29.145,42.849,24.124
8891.0,19.574,29.145,43.849,24.124
8900.9,21.574,28.145,43.849,23.124
8910.7,22.574,30.145,43.849,24.124
8920.6,20.574,28.145,43.849,23.124
8930.5,23.574,30.145,41.849,24.124
8940.4,22.574,29.145,40.849,24.124
8950.3,23.574,29.145,41.849,25.124
8960.2,22.574,29.145,39.849,24.124
8970.1,22.574,29.145,39.849,24.124
8979.9,21.574,28.145,39.849,23.124
8989.8,20.574,28.145,40.849,24.124
8999.7,19.574,27.145,41.849,25.124
9009.6,19.574,27.145,41.849,24.124
9019.5,17.574,26.145,43.849,26.124
9029.4,16.574,26.145,44.849,27.124
9039.3,15.574,28.145,46.849,26.124
9049.1,15.574,27.145,44.849,26.124
9059.0,12.574,25.145,43.849,28.124
9068.9,12.574,25.145,44.849,28.124
9078.8,10.574,25.145,44.849,27.124
9088.7,7.574,24.145,42.849,26.124
9098.6,8.574,24.145,42.849,28.124
9108.5,8.574,23.145,43.849,27.124
9118.3,5.574,23.145,42.849,27.124
9128.2,5.574,22.145,43.849,27.124
9138.1,2.574,24.145,44.849,28.124
9148.0,1.574,21.145,44.849,29.124
9157.9,0.57402,22.145,43.849,29.124
9167.8,0.57402,21.145,42.849,28.124
9177.7,-3.426,20.145,39.849,27.124
9187.5,-3.426,20.145,39.849,29.124
9197.4,-4.426,19.145,38.849,28.124
9207.3,-5.426,19.145,36.849,27.124
9217.2,-8.426,18.145,37.849,29.124
9227.1,-8.426,18.145,35.849,28.124
9237.0,-10.426,19.145,36.849,27.124
9246.9,-11.426,19.145,34.849,28.124
9256.7,-12.426,19.145,31.849,28.124
9266.6,-13.426,20.145,30.849,28.124
9276.5,-10.426,22.145,28.849,26.124
9286.4,-8.426,23.145,22.849,26.124
9296.3,-5.426,26.145,21.849,25.124
9306.2,-1.426,27.145,24.849,23.124
9316.1,3.574,27.145,27.849,23.124
9325.9,3.574,27.145,29.849,22.124
9335.8,13.574,29.145,32.849,23.124
9345.7,13.574,29.145,32.849,23.124
9355.6,19.574,29.145,39.849,25.124
9365.5,19.574,29.145,39.849,25.124
9375.4,22.574,30.145,46.849,25.124
9385.3,22.574,30.145,46.849,25.124
9395.1,23.574,31.145,53.849,27.124
9405.0,23.574,31.145,53.849,27.124
9414.9,24.574,31.145,56.849,27.124
9424.8,24.574,31.145,56.849,27.124
9434.7,25.574,30.145,57.849,27.124
9444.6,25.574,30.145,57.849,27.124
9454.5,25.574,30.145,54.849,25.124
9464.3,23.574,29.145,54.849,25.124
9474.2,24.574,30.145,54.849,26.124
9484.1,24.574,30.145,54.849,26.124
9494.0,23.574,30.145,48.849,23.124
9503.9,22.574,29.145,48.849,23.124
9513.8,23.574,30.145,48.849,22.124
9523.7,24.574,28.145,48.849,22.124
9533.5,23.574,30.145,42.849,23.124
9543.4,24.574,30.145,42.849,23.124
9553.3,24.574,30.145,42.849,21.124
9563.2,24.574,30.145,41.849,21.124
9573.1,22.574,30.145,37.849,20.124
9583.0,23.574,29.145,37.849,20.124
9592.9,21.574,29.145,36.849,21.124
9602.7,20.574,29.145,36.849,21.124
9612.6,19.574,28.145,33.849,20.124
9622.5,20.574,28.145,35.849,21.124
9632.4,20.574,28.145,34.849,20.124
9642.3,17.574,28.145,34.849,19.124
9652.2,16.574,27.145,35.849,17.124
9662.1,16.574,24.145,34.849,17.124
9671.9,14.574,26.145,33.849,18.124
9681.8,11.574,25.145,35.849,18.124
9691.7,10.574,23.145,33.849,20.124
9701.6,8.574,23.145,33.849,17.124
9711.5,7.574,23.145,32.849,18.124
9721.4,5.574,24.145,33.849,19.124
9731.3,6.574,23.145,33.849,17.124
9741.1,5.574,22.145,29.849,17.124
9751.0,1.574,21.145,30.849,17.124
9760.9,-0.42598,21.145,28.849,16.124
9770.8,-0.42598,21.145,26.849,16.124
9780.7,-1.426,21.145,25.849,16.124
9790.6,-2.426,20.145,23.849,15.124
9800.5,-4.426,18.145,23.849,15.124
9810.3,-6.426,17.145,22.849,16.124
9820.2,-7.426,17.145,19.849,15.124
9830.1,-8.426,17.145,18.849,15.124
9840.0,-9.426,16.145,18.849,15.124
9849.9,-11.426,16.145,17.849,15.124
9859.8,-14.426,16.145,14.849,15.124
9869.7,-14.426,17.145,12.849,13.124
9879.5,-14.426,18.145,13.849,14.124
9889.4,-16.426,16.145,10.849,12.124
9899.3,-15.426,18.145,12.849,13.124
9909.2,-17.426,21.145,7.8485,11.124
9919.1,-12.426,22.145,4.8485,10.124
9929.0,-8.426,23.145,2.8485,10.124
9938.9,-3.426,25.145,6.8485,10.124
9948.7,1.574,26.145,8.8485,10.124
9958.6,6.574,27.145,11.849,10.124
9968.5,9.574,28.145,16.849,11.124
9978.4,13.574,26.145,21.849,11.124
9988.3,15.574,29.145,24.849,12.124
9998.2,19.574,28.145,29.849,12.124
10008.0,20.574,29.145,34.849,15.124
10018.0,21.574,30.145,38.849,14.124
10028.0,24.574,31.145,41.849,15.124
10038.0,24.574,31.145,46.849,15.124
10048.0,24.574,29.145,48.849,16.124
10058.0,24.574,29.145,48.849,16.124
10067.0,23.574,28.145,50.849,16.124
10077.0,23.574,28.145,51.849,16.124
10087.0,24.574,27.145,52.849,19.124
10097.0,24.574,27.145,51.849,18.124
10107.0,22.574,28.145,50.849,19.124
10117.0,22.574,28.145,49.849,19.124
10127.0,22.574,29.145,50.849,19.124
10137.0,22.574,29.145,49.849,19.124
10147.0,21.574,28.145,48.849,18.124
10156.0,21.574,28.145,46.849,17.124
10166.0,21.574,29.145,48.849,19.124
10176.0,20.574,28.145,46.849,18.124
10186.0,23.574,28.145,46.849,18.124
10196.0,21.574,29.145,45.849,19.124
10206.0,21.574,29.145,45.849,19.124
10216.0,21.574,29.145,44.849,20.124
10226.0,20.574,27.145,43.849,20.124
10235.0,19.574,27.145,44.849,20.124
10245.0,18.574,26.145,43.849,18.124
10255.0,16.574,27.145,42.849,18.124
10265.0,16.574,27.145,43.849,20.124
10275.0,15.574,27.145,44.849,18.124
10285.0,15.574,25.145,45.849,18.124
10295.0,14.574,25.145,45.849,18.124
10305.0,12.574,25.145,43.849,19.124
10315.0,12.574,25.145,45.849,19.124
10324.0,9.574,23.145,46.849,19.124
10334.0,9.574,24.145,45.849,19.124
10344.0,6.574,24.145,45.849,18.124
10354.0,6.574,23.145,44.849,19.124
10364.0,5.574,23.145,42.849,18.124
10374.0,3.574,22.145,40.849,18.124
10384.0,2.574,21.145,40.849,17.124
10394.0,2.574,21.145,40.849,17.124
10404.0,2.574,21.145,38.849,17.124
10413.0,2.574,21.145,38.849,17.124
10423.0,-1.426,19.145,36.849,18.124
10433.0,-2.426,19.145,36.849,18.124
10443.0,-4.426,18.145,31.849,16.124
10453.0,-6.426,17.145,31.849,16.124
10463.0,-6.426,19.145,30.849,16.124
10473.0,-5.426,17.145,30.849,16.124
10483.0,-9.426,15.145,26.849,14.124
10493.0,-10.426,15.145,26.849,14.124
10502.0,-11.426,15.145,24.849,14.124
10512.0,-9.426,16.145,24.849,14.124
10522.0,-14.426,16.145,20.849,13.124
10532.0,-13.426,17.145,20.849,13.124
10542.0,-14.426,19.145,18.849,13.124
10552.0,-12.426,21.145,18.849,13.124
10562.0,-7.426,22.145,15.849,13.124
10572.0,-5.426,24.145,15.849,13.124
10581.0,-1.426,25.145,17.849,12.124
10591.0,3.574,25.145,17.849,12.124
10601.0,6.574,27.145,26.849,11.124
10611.0,10.574,27.145,26.849,11.124
10621.0,13.574,27.145,29.849,11.124
10631.0,16.574,27.145,32.849,11.124
10641.0,19.574,26.145,35.849,13.124
10651.0,21.574,28.145,40.849,14.124
10661.0,21.574,28.145,43.849,14.124
10670.0,23.574,27.145,45.849,14.124
10680.0,24.574,28.145,47.849,13.124
10690.0,24.574,28.145,50.849,14.124
10700.0,24.574,27.145,50.849,14.124
10710.0,22.574,28.145,53.849,15.124
10720.0,24.574,27.145,54.849,17.124
10730.0,25.574,28.145,53.849,17.124
10740.0,24.574,28.145,53.849,17.124
10750.0,24.574,28.145,52.849,17.124
10759.0,21.574,27.145,51.849,17.124
10769.0,21.574,27.145,49.849,16.124
10779.0,22.574,28.145,49.849,15.124
10789.0,22.574,28.145,48.849,16.124
10799.0,22.574,29.145,46.849,15.124
10809.0,22.574,29.145,47.849,16.124
10819.0,22.574,27.145,46.849,15.124
10829.0,22.574,27.145,44.849,16.124
10838.0,22.574,26.145,44.849,17.124
10848.0,22.574,26.145,41.849,15.124
10858.0,20.574,26.145,41.849,15.124
10868.0,20.574,26.145,40.849,14.124
10878.0,20.574,25.145,41.849,14.124
10888.0,20.574,25.145,39.849,14.124
10898.0,19.574,25.145,41.849,14.124
10908.0,20.574,25.145,42.849,14.124
10918.0,17.574,24.145,42.849,14.124
10927.0,16.574,24.145,42.849,16.124
10937.0,16.574,23.145,43.849,15.124
10947.0,16.574,24.145,42.849,15.124
10957.0,14.574,22.145,42.849,15.124
10967.0,14.574,21.145,42.849,15.124
10977.0,11.574,22.145,43.849,15.124
10987.0,11.574,22.145,43.849,14.124
10997.0,9.574,20.145,41.849,15.124
11007.0,7.574,20.145,40.849,14.124
11016.0,5.574,19.145,41.849,15.124
11026.0,5.574,19.145,41.849,14.124
11036.0,4.574,19.145,40.849,14.124
11046.0,1.574,18.145,38.849,15.124
11056.0,3.574,18.145,39.849,14.124
11066.0,-0.42598,18.145,36.849,14.124
11076.0,-2.426,17.145,34.849,14.124
11086.0,-1.426,15.145,33.849,14.124
11096.0,-3.426,15.145,34.849,14.124
11105.0,-4.426,13.145,33.849,14.124
11115.0,-6.426,15.145,32.849,16.124
11125.0,-6.426,14.145,31.849,13.124
11135.0,-8.426,14.145,30.849,13.124
11145.0,-10.426,13.145,29.849,13.124
11155.0,-11.426,13.145,26.849,12.124
11165.0,-10.426,15.145,27.849,13.124
11175.0,-13.426,15.145,25.849,13.124
11184.0,-12.426,16.145,24.849,12.124
11194.0,-11.426,17.145,20.849,11.124
11204.0,-12.426,18.145,17.849,10.124
11214.0,-7.426,19.145,14.849,9.1243
11224.0,-5.426,21.145,15.849,8.1243
11234.0,-2.426,22.145,18.849,9.1243
11244.0,2.574,23.145,19.849,9.1243
11254.0,5.574,22.145,20.849,10.124
11264.0,8.574,24.145,25.849,10.124
11273.0,11.574,24.145,26.849,10.124
11283.0,13.574,23.145,30.849,9.1243
11293.0,14.574,24.145,32.849,9.1243
11303.0,15.574,23.145,35.849,11.124
11313.0,17.574,23.145,38.849,10.124
11323.0,17.574,23.145,39.849,11.124
11333.0,16.574,22.145,42.849,13.124
11343.0,15.574,22.145,42.849,13.124
11353.0,16.574,22.145,44.849,14.124
11362.0,16.574,23.145,43.849,14.124
11372.0,15.574,23.145,41.849,13.124
11382.0,15.574,22.145,42.849,14.124
11392.0,14.574,24.145,39.849,13.124
11402.0,14.574,22.145,38.849,11.124
11412.0,13.574,22.145,37.849,12.124
11422.0,11.574,23.145,37.849,12.124
11432.0,12.574,22.145,36.849,12.124
11442.0,12.574,22.145,36.849,12.124
11451.0,11.574,21.145,36.849,14.124
11461.0,11.574,21.145,36.849,14.124
11471.0,10.574,21.145,34.849,13.124
11481.0,10.574,21.145,34.849,13.124
11491.0,11.574,21.145,31.849,12.124
11501.0,11.574,21.145,31.849,12.124
11511.0,9.574,21.145,30.849,12.124
11521.0,9.574,21.145,30.849,12.124
11530.0,8.574,19.145,29.849,12.124
11540.0,8.574,19.145,29.849,12.124
11550.0,5.574,18.145,30.849,11.124
11560.0,5.574,18.145,30.849,11.124
11570.0,3.574,18.145,30.849,10.124
11580.0,3.574,18.145,30.849,10.124
11590.0,0.57402,17.145,31.849,12.124
11600.0,0.57402,17.145,31.849,12.124
11610.0,0.57402,17.145,29.849,12.124
11619.0,-1.426,15.145,30.849,10.124
11629.0,-3.426,14.145,30.849,11.124
11639.0,-3.426,14.145,30.849,12.124
11649.0,-3.426,15.145,30.849,12.124
11659.0,-3.426,14.145,31.849,10.124
11669.0,-6.426,13.145,29.849,11.124
11679.0,-6.426,13.145,29.849,11.124
11689.0,-9.426,12.145,27.849,12.124
11699.0,-8.426,12.145,25.849,10.124
11708.0,-10.426,11.145,25.849,12.124
11718.0,-10.426,11.145,24.849,10.124
11728.0,-13.426,11.145,23.849,9.1243
11738.0,-13.426,10.145,21.849,9.1243
11748.0,-14.426,10.145,21.849,9.1243
11758.0,-14.426,10.145,19.849,8.1243
11768.0,-16.426,9.1451,19.849,10.124
11778.0,-17.426,9.1451,19.849,9.1243
11788.0,-19.426,8.1451,15.849,9.1243
11797.0,-19.426,8.1451,14.849,8.1243
11807.0,-20.426,10.145,13.849,9.1243
11817.0,-21.426,10.145,11.849,7.1243
11827.0,-20.426,10.145,11.849,7.1243
11837.0,-22.426,11.145,9.8485,8.1243
11847.0,-20.426,12.145,5.8485,6.1243
11857.0,-18.426,13.145,3.8485,6.1243
11867.0,-16.426,15.145,1.8485,4.1243
11876.0,-12.426,16.145,4.8485,6.1243
11886.0,-9.426,16.145,5.8485,5.1243
11896.0,-6.426,17.145,7.8485,6.1243
11906.0,-3.426,17.145,9.8485,4.1243
11916.0,0.57402,17.145,12.849,5.1243
11926.0,1.574,17.145,14.849,5.1243
11936.0,3.574,16.145,16.849,5.1243
11946.0,4.574,17.145,18.849,5.1243
11956.0,4.574,17.145,22.849,7.1243
11965.0,7.574,17.145,26.849,7.1243
11975.0,5.574,15.145,26.849,7.1243
11985.0,5.574,15.145,28.849,7.1243
11995.0,6.574,17.145,30.849,8.1243
12005.0,5.574,17.145,31.849,8.1243
12015.0,4.574,16.145,29.849,9.1243
12025.0,3.574,17.145,27.849,9.1243
12035.0,3.574,15.145,27.849,9.1243
12045.0,2.574,16.145,25.849,9.1243
12054.0,2.574,14.145,24.849,9.1243
12064.0,0.57402,14.145,23.849,8.1243
12074.0,0.57402,14.145,22.849,7.1243
12084.0,0.57402,15.145,23.849,8.1243
12094.0,0.57402,13.145,21.849,7.1243
12104.0,2.574,14.145,22.849,9.1243
12114.0,1.574,14.145,21.849,9.1243
12124.0,0.57402,14.145,20.849,8.1243
12134.0,1.574,14.145,18.849,8.1243
12143.0,2.574,15.145,18.849,8.1243
12153.0,-1.426,14.145,19.849,7.1243
12163.0,0.57402,12.145,18.849,8.1243
12173.0,0.57402,14.145,17.849,9.1243
12183.0,-1.426,13.145,17.849,7.1243
12193.0,-1.426,13.145,17.849,7.1243
12203.0,-3.426,11.145,14.849,7.1243
12213.0,-3.426,11.145,17.849,7.1243
12222.0,-4.426,12.145,17.849,7.1243
12232.0,-4.426,12.145,18.849,7.1243
12242.0,-7.426,9.1451,17.849,8.1243
12252.0,-7.426,9.1451,17.849,7.1243
12262.0,-8.426,8.1451,16.849,7.1243
12272.0,-8.426,8.1451,15.849,6.1243
12282.0,-11.426,9.1451,16.849,6.1243
12292.0,-11.426,9.1451,15.849,7.1243
12302.0,-12.426,9.1451,17.849,7.1243
12311.0,-12.426,9.1451,14.849,7.1243
12321.0,-14.426,9.1451,16.849,6.1243
12331.0,-14.426,9.1451,13.849,8.1243
12341.0,-15.426,7.1451,13.849,6.1243
12351.0,-18.426,5.1451,12.849,6.1243
12361.0,-17.426,6.1451,11.849,6.1243
12371.0,-22.426,5.1451,10.849,8.1243
12381.0,-21.426,4.1451,8.8485,6.1243
12391.0,-23.426,3.1451,8.8485,6.1243
12400.0,-24.426,2.1451,6.8485,7.1243
12410.0,-26.426,3.1451,5.8485,5.1243
12420.0,-27.426,1.1451,4.8485,6.1243
12430.0,-29.426,3.1451,4.8485,6.1243
12440.0,-28.426,3.1451,3.8485,6.1243
12450.0,-28.426,5.1451,3.8485,6.1243
12460.0,-29.426,3.1451,1.8485,5.1243
12470.0,-30.426,4.1451,1.8485,5.1243
12480.0,-31.426,5.1451,-8.1515,3.1243
12489.0,-29.426,7.1451,-8.1515,3.1243
12499.0,-27.426,9.1451,-14.151,-0.87569
12509.0,-24.426,9.1451,-14.151,-0.87569
12519.0,-20.426,8.1451,-12.151,-1.8757
12529.0,-17.426,8.1451,-12.151,-1.8757
12539.0,-15.426,9.1451,-11.151,-3.8757
12549.0,-12.426,8.1451,-11.151,-3.8757
12559.0,-10.426,9.1451,-5.1515,-0.87569
12568.0,-6.426,10.145,-5.1515,-0.87569
12578.0,-6.426,9.1451,0.84854,-0.87569
12588.0,-6.426,9.1451,0.84854,-0.87569
12598.0,-7.426,8.1451,6.8485,0.12431
12608.0,-5.426,6.1451,6.8485,0.12431
12618.0,-7.426,7.1451,6.8485,1.1243
12628.0,-6.426,8.1451,6.8485,1.1243
12638.0,-6.426,7.1451,5.8485,1.1243
12648.0,-7.426,7.1451,5.8485,1.1243
12657.0,-8.426,7.1451,3.8485,1.1243
12667.0,-11.426,7.1451,3.8485,1.1243
12677.0,-10.426,6.1451,1.8485,0.12431
12687.0,-11.426,7.1451,-0.15146,1.1243
12697.0,-12.426,6.1451,-1.1515,-0.87569
12707.0,-11.426,7.1451,-1.1515,-0.87569
12717.0,-11.426,7.1451,-2.1515,-0.87569
12727.0,-10.426,6.1451,-1.1515,-1.8757
12737.0,-9.426,9.1451,-3.1515,-0.87569
12746.0,-11.426,8.1451,-4.1515,-0.87569
12756.0,-10.426,7.1451,-5.1515,-1.8757
12766.0,-9.426,8.1451,-5.1515,-2.8757
12776.0,-11.426,7.1451,-6.1515,-1.8757
12786.0,-10.426,8.1451,-7.1515,-1.8757
12796.0,-10.426,6.1451,-9.1515,-0.87569
12806.0,-11.426,6.1451,-10.151,-1.8757
12816.0,-10.426,6.1451,-8.1515,-0.87569
12826.0,-12.426,5.1451,-9.1515,-1.8757
12835.0,-14.426,5.1451,-8.1515,-0.87569
12845.0,-12.426,5.1451,-7.1515,0.12431
12855.0,-15.426,3.1451,-8.1515,-2.8757
12865.0,-18.426,3.1451,-9.1515,-1.8757
12875.0,-17.426,4.1451,-11.151,-2.8757
12885.0,-20.426,3.1451,-9.1515,-1.8757
12895.0,-21.426,2.1451,-9.1515,-2.8757
12905.0,-21.426,2.1451,-10.151,-2.8757
12914.0,-22.426,1.1451,-9.1515,-2.8757
12924.0,-22.426,1.1451,-12.151,-2.8757
12934.0,-25.426,0.14514,-12.151,-2.8757
12944.0,-25.426,0.14514,-11.151,-3.8757
12954.0,-27.426,0.14514,-14.151,-4.8757
12964.0,-27.426,0.14514,-13.151,-3.8757
12974.0,-27.426,-1.8549,-14.151,-3.8757
12984.0,-27.426,-1.8549,-15.151,-3.8757
12994.0,-32.426,-0.85486,-15.151,-2.8757
13003.0,-32.426,-0.85486,-18.151,-3.8757
13013.0,-34.426,-2.8549,-19.151,-1.8757
13023.0,-34.426,-2.8549,-19.151,-3.8757
13033.0,-38.426,-3.8549,-20.151,-3.8757
13043.0,-38.426,-3.8549,-21.151,-3.8757
13053.0,-36.426,-3.8549,-21.151,-3.8757
13063.0,-36.426,-1.8549,-24.151,-4.8757
13073.0,-37.426,-1.8549,-27.151,-3.8757
13083.0,-39.426,-0.85486,-26.151,-4.8757
13092.0,-38.426,1.1451,-28.151,-4.8757
13102.0,-36.426,1.1451,-34.151,-5.8757
13112.0,-33.426,3.1451,-37.151,-7.8757
13122.0,-30.426,4.1451,-39.151,-7.8757
13132.0,-27.426,5.1451,-37.151,-9.8757
13142.0,-22.426,5.1451,-35.151,-8.8757
13152.0,-20.426,6.1451,-33.151,-10.876
13162.0,-16.426,6.1451,-31.151,-10.876
13172.0,-12.426,7.1451,-29.151,-9.8757
13181.0,-11.426,7.1451,-24.151,-9.8757
13191.0,-7.426,8.1451,-19.151,-7.8757
13201.0,-5.426,8.1451,-17.151,-6.8757
13211.0,-6.426,8.1451,-16.151,-6.8757
13221.0,-6.426,7.1451,-15.151,-6.8757
13231.0,-7.426,7.1451,-14.151,-5.8757
13241.0,-5.426,7.1451,-13.151,-6.8757
13251.0,-4.426,7.1451,-12.151,-5.8757
13260.0,-7.426,8.1451,-13.151,-4.8757
13270.0,-8.426,7.1451,-12.151,-4.8757
13280.0,-6.426,8.1451,-12.151,-3.8757
13290.0,-8.426,8.1451,-13.151,-3.8757
13300.0,-9.426,7.1451,-12.151,-2.8757
13310.0,-10.426,8.1451,-12.151,-3.8757
13320.0,-11.426,8.1451,-15.151,-3.8757
13330.0,-9.426,8.1451,-16.151,-4.8757
13340.0,-9.426,9.1451,-15.151,-4.8757
13349.0,-8.426,8.1451,-14.151,-4.8757
13359.0,-8.426,9.1451,-16.151,-4.8757
13369.0,-10.426,10.145,-15.151,-3.8757
13379.0,-6.426,9.1451,-17.151,-3.8757
13389.0,-5.426,10.145,-17.151,-4.8757
13399.0,-8.426,8.1451,-17.151,-2.8757
13409.0,-7.426,8.1451,-17.151,-3.8757
13419.0,-7.426,8.1451,-18.151,-3.8757
13429.0,-7.426,8.1451,-18.151,-1.8757
13438.0,-8.426,8.1451,-16.151,-2.8757
13448.0,-9.426,8.1451,-15.151,-2.8757
13458.0,-11.426,7.1451,-17.151,-1.8757
13468.0,-10.426,6.1451,-17.151,-2.8757
13478.0,-13.426,6.1451,-15.151,-1.8757
13488.0,-12.426,7.1451,-16.151,-1.8757
13498.0,-15.426,6.1451,-16.151,-1.8757
13508.0,-15.426,5.1451,-14.151,-1.8757
13518.0,-15.426,6.1451,-14.151,-1.8757
13527.0,-18.426,5.1451,-13.151,-0.87569
13537.0,-19.426,4.1451,-13.151,-0.87569
13547.0,-19.426,4.1451,-14.151,-0.87569
13557.0,-21.426,3.1451,-14.151,-0.87569
13567.0,-24.426,2.1451,-13.151,0.12431
13577.0,-25.426,2.1451,-13.151,0.12431
13587.0,-26.426,0.14514,-14.151,0.12431
13597.0,-27.426,0.14514,-14.151,0.12431
13606.0,-27.426,1.1451,-15.151,0.12431
13616.0,-28.426,0.14514,-15.151,0.12431
13626.0,-31.426,0.14514,-17.151,1.1243
13636.0,-31.426,0.14514,-17.151,1.1243
13646.0,-31.426,1.1451,-17.151,0.12431
13656.0,-31.426,1.1451,-17.151,0.12431
13666.0,-34.426,0.14514,-19.151,1.1243
13676.0,-34.426,0.14514,-19.151,1.1243
13686.0,-33.426,2.1451,-21.151,1.1243
13695.0,-33.426,2.1451,-24.151,1.1243
13705.0,-25.426,6.1451,-28.151,1.1243
13715.0,-25.426,6.1451,-30.151,0.12431
13725.0,-18.426,7.1451,-28.151,-1.8757
13735.0,-18.426,7.1451,-26.151,-0.87569
13745.0,-10.426,10.145,-24.151,-0.87569
13755.0,-10.426,10.145,-20.151,-0.87569
13765.0,-7.426,10.145,-17.151,-0.87569
13775.0,-3.426,11.145,-15.151,-0.87569
13784.0,-1.426,11.145,-12.151,0.12431
13794.0,1.574,10.145,-7.1515,0.12431
13804.0,2.574,12.145,-4.1515,2.1243
13814.0,2.574,12.145,-0.15146,3.1243
13824.0,3.574,12.145,1.8485,4.1243
13834.0,5.574,12.145,2.8485,4.1243
13844.0,2.574,10.145,6.8485,5.1243
13854.0,4.574,12.145,4.8485,6.1243
13864.0,4.574,13.145,5.8485,5.1243
13873.0,2.574,11.145,4.8485,5.1243
13883.0,3.574,12.145,5.8485,6.1243
13893.0,2.574,12.145,4.8485,6.1243
13903.0,2.574,12.145,3.8485,7.1243
13913.0,2.574,13.145,5.8485,7.1243
13923.0,2.574,13.145,5.8485,8.1243
13933.0,2.574,12.145,6.8485,7.1243
13943.0,1.574,13.145,5.8485,7.1243
13952.0,2.574,13.145,5.8485,6.1243
13962.0,2.574,13.145,4.8485,7.1243
13972.0,4.574,12.145,4.8485,7.1243
13982.0,4.574,13.145,4.8485,7.1243
13992.0,4.574,13.145,3.8485,7.1243
14002.0,5.574,13.145,4.8485,7.1243
14012.0,5.574,13.145,3.8485,8.1243
14022.0,2.574,13.145,3.8485,7.1243
14032.0,3.574,13.145,5.8485,9.1243
14041.0,2.574,12.145,5.8485,9.1243
14051.0,1.574,13.145,6.8485,9.1243
14061.0,1.574,12.145,6.8485,10.124
14071.0,0.57402,12.145,5.8485,9.1243
14081.0,-0.42598,12.145,9.8485,8.1243
14091.0,-3.426,13.145,9.8485,9.1243
14101.0,-2.426,11.145,8.8485,9.1243
14111.0,-3.426,10.145,6.8485,9.1243
14121.0,-4.426,9.1451,6.8485,8.1243
14130.0,-5.426,9.1451,9.8485,7.1243
14140.0,-5.426,9.1451,6.8485,8.1243
14150.0,-7.426,9.1451,7.8485,9.1243
14160.0,-8.426,8.1451,7.8485,11.124
14170.0,-10.426,9.1451,6.8485,9.1243
14180.0,-10.426,7.1451,6.8485,9.1243
14190.0,-12.426,7.1451,4.8485,10.124
14200.0,-12.426,6.1451,5.8485,11.124
14210.0,-14.426,6.1451,3.8485,10.124
14219.0,-14.426,6.1451,2.8485,10.124
14229.0,-16.426,5.1451,-0.15146,10.124
14239.0,-15.426,5.1451,1.8485,11.124
14249.0,-15.426,7.1451,-0.15146,9.1243
14259.0,-18.426,9.1451,-1.1515,10.124
14269.0,-19.426,7.1451,-3.1515,10.124
14279.0,-18.426,10.145,-3.1515,11.124
14289.0,-16.426,10.145,-7.1515,10.124
14298.0,-13.426,12.145,-11.151,8.1243
14308.0,-7.426,14.145,-10.151,8.1243
14318.0,-6.426,15.145,-9.1515,7.1243
14328.0,-2.426,16.145,-6.1515,7.1243
14338.0,4.574,15.145,-2.1515,6.1243
14348.0,4.574,15.145,-0.15146,6.1243
14358.0,9.574,17.145,3.8485,8.1243
14368.0,9.574,17.145,5.8485,7.1243
14378.0,15.574,18.145,10.849,8.1243
14387.0,15.574,18.145,13.849,10.124
14397.0,19.574,18.145,17.849,11.124
14407.0,19.574,18.145,20.849,12.124
14417.0,21.574,18.145,24.849,12.124
14427.0,21.574,18.145,24.849,12.124
14437.0,19.574,19.145,26.849,13.124
14447.0,19.574,19.145,26.849,13.124
14457.0,21.574,18.145,26.849,14.124
14467.0,21.574,18.145,26.849,14.124
14476.0,20.574,19.145,25.849,14.124
14486.0,20.574,19.145,25.849,14.124
14496.0,19.574,19.145,23.849,13.124
14506.0,20.574,19.145,23.849,13.124
14516.0,20.574,18.145,22.849,13.124
14526.0,18.574,18.145,22.849,13.124
14536.0,20.574,19.145,20.849,13.124
14546.0,20.574,19.145,20.849,13.124
14556.0,20.574,18.145,20.849,12.124
14565.0,20.574,19.145,20.849,12.124
14575.0,19.574,20.145,19.849,12.124
14585.0,21.574,18.145,19.849,12.124
14595.0,20.574,17.145,17.849,12.124
14605.0,21.574,19.145,17.849,12.124
14615.0,20.574,17.145,16.849,11.124
14625.0,19.574,18.145,16.849,11.124
14635.0,18.574,16.145,18.849,10.124
14644.0,18.574,17.145,18.849,10.124
14654.0,19.574,17.145,16.849,10.124
14664.0,17.574,17.145,16.849,10.124
14674.0,15.574,15.145,16.849,9.1243
14684.0,15.574,16.145,15.849,9.1243
14694.0,15.574,15.145,14.849,10.124
14704.0,13.574,15.145,16.849,9.1243
14714.0,11.574,13.145,14.849,8.1243
14724.0,13.574,15.145,15.849,8.1243
14733.0,12.574,14.145,14.849,10.124
14743.0,10.574,13.145,14.849,8.1243
14753.0,9.574,13.145,11.849,8.1243
14763.0,7.574,12.145,11.849,8.1243
14773.0,5.574,11.145,10.849,9.1243
14783.0,3.574,9.1451,7.8485,8.1243
14793.0,0.57402,9.1451,7.8485,8.1243
14803.0,-1.426,8.1451,5.8485,9.1243
14813.0,-1.426,7.1451,5.8485,8.1243
14822.0,-5.426,5.1451,3.8485,9.1243
14832.0,-5.426,6.1451,2.8485,7.1243
14842.0,-7.426,5.1451,1.8485,7.1243
14852.0,-5.426,6.1451,-0.15146,7.1243
14862.0,-7.426,7.1451,-0.15146,7.1243
14872.0,-8.426,5.1451,-1.1515,6.1243
14882.0,-9.426,8.1451,-3.1515,6.1243
14892.0,-8.426,8.1451,-6.1515,5.1243
14902.0,-3.426,9.1451,-9.1515,5.1243
14911.0,-2.426,10.145,-11.151,3.1243
14921.0,2.574,11.145,-9.1515,2.1243
14931.0,5.574,12.145,-7.1515,1.1243
14941.0,10.574,12.145,-3.1515,2.1243
14951.0,13.574,13.145,-1.1515,1.1243
14961.0,17.574,14.145,3.8485,1.1243
14971.0,19.574,15.145,7.8485,1.1243
14981.0,21.574,13.145,10.849,3.1243
14990.0,24.574,15.145,15.849,6.1243
15000.0,25.574,14.145,19.849,5.1243
15010.0,27.574,14.145,22.849,6.1243
15020.0,28.574,13.145,24.849,6.1243
15030.0,27.574,13.145,26.849,7.1243
15040.0,28.574,13.145,28.849,7.1243
15050.0,29.574,15.145,28.849,8.1243
15060.0,27.574,14.145,30.849,10.124
15070.0,28.574,13.145,32.849,9.1243
15079.0,28.574,13.145,29.849,8.1243
15089.0,28.574,15.145,27.849,9.1243
15099.0,28.574,15.145,26.849,9.1243
15109.0,28.574,15.145,27.849,9.1243
15119.0,28.574,15.145,29.849,8.1243
15129.0,29.574,14.145,29.849,8.1243
15139.0,29.574,14.145,26.849,7.1243
15149.0,32.574,14.145,26.849,9.1243
15159.0,32.574,14.145,27.849,8.1243
15168.0,31.574,14.145,26.849,10.124
15178.0,31.574,14.145,25.849,9.1243
15188.0,29.574,12.145,24.849,10.124
15198.0,29.574,12.145,24.849,10.124
15208.0,30.574,14.145,22.849,10.124
15218.0,29.574,14.145,23.849,8.1243
15228.0,29.574,12.145,22.849,10.124
15238.0,29.574,12.145,22.849,7.1243
15248.0,28.574,13.145,23.849,8.1243
15257.0,28.574,12.145,24.849,8.1243
15267.0,27.574,12.145,25.849,9.1243
15277.0,27.574,14.145,24.849,8.1243
15287.0,27.574,11.145,23.849,9.1243
15297.0,25.574,13.145,25.849,9.1243
15307.0,23.574,11.145,26.849,9.1243
15317.0,23.574,10.145,25.849,7.1243
15327.0,20.574,10.145,23.849,8.1243
15336.0,20.574,10.145,26.849,10.124
15346.0,19.574,8.1451,22.849,9.1243
15356.0,17.574,7.1451,20.849,7.1243
15366.0,16.574,7.1451,20.849,6.1243
15376.0,15.574,6.1451,17.849,7.1243
15386.0,15.574,8.1451,18.849,7.1243
15396.0,12.574,6.1451,16.849,7.1243
15406.0,11.574,5.1451,13.849,7.1243
15416.0,10.574,4.1451,14.849,5.1243
15425.0,10.574,3.1451,13.849,4.1243
15435.0,9.574,2.1451,11.849,6.1243
15445.0,6.574,3.1451,9.8485,5.1243
15455.0,4.574,3.1451,7.8485,5.1243
15465.0,2.574,2.1451,6.8485,5.1243
15475.0,4.574,4.1451,6.8485,3.1243
15485.0,2.574,3.1451,4.8485,3.1243
15495.0,1.574,2.1451,3.8485,3.1243
15505.0,2.574,3.1451,0.84854,2.1243
15514.0,2.574,7.1451,-0.15146,3.1243
15524.0,6.574,7.1451,-1.1515,1.1243
15534.0,7.574,10.145,-3.1515,0.12431
15544.0,12.574,10.145,-2.1515,1.1243
15554.0,16.574,11.145,-1.1515,1.1243
15564.0,20.574,10.145,3.8485,1.1243
15574.0,23.574,11.145,3.8485,1.1243
15584.0,28.574,13.145,8.8485,-0.87569
15594.0,32.574,12.145,8.8485,-0.87569
15603.0,34.574,12.145,13.849,1.1243
15613.0,35.574,12.145,13.849,1.1243
15623.0,37.574,14.145,20.849,1.1243
15633.0,37.574,13.145,20.849,1.1243
15643.0,38.574,13.145,25.849,2.1243
15653.0,37.574,11.145,25.849,2.1243
15663.0,36.574,11.145,27.849,2.1243
15673.0,38.574,13.145,27.849,2.1243
15682.0,38.574,11.145,30.849,4.1243
15692.0,37.574,11.145,30.849,4.1243
15702.0,36.574,14.145,28.849,2.1243
15712.0,35.574,11.145,28.849,2.1243
15722.0,35.574,11.145,24.849,3.1243
15732.0,35.574,12.145,24.849,3.1243
15742.0,36.574,12.145,25.849,3.1243
15752.0,36.574,13.145,25.849,3.1243
15762.0,34.574,12.145,24.849,2.1243
15771.0,36.574,12.145,22.849,4.1243
15781.0,36.574,13.145,21.849,3.1243
15791.0,36.574,11.145,18.849,1.1243
15801.0,36.574,12.145,17.849,1.1243
15811.0,36.574,12.145,16.849,1.1243
15821.0,38.574,11.145,16.849,0.12431
15831.0,38.574,11.145,14.849,-1.8757
15841.0,36.574,10.145,14.849,-0.87569
15851.0,36.574,10.145,15.849,-0.87569
15860.0,35.574,9.1451,15.849,-0.87569
15870.0,35.574,9.1451,15.849,-1.8757
15880.0,32.574,8.1451,14.849,-1.8757
15890.0,32.574,8.1451,14.849,0.12431
15900.0,31.574,7.1451,13.849,-1.8757
15910.0,31.574,7.1451,14.849,-1.8757
15920.0,27.574,6.1451,12.849,-2.8757
15930.0,27.574,6.1451,14.849,-1.8757
15939.0,24.574,5.1451,13.849,-1.8757
15949.0,24.574,5.1451,12.849,-2.8757
15959.0,24.574,5.1451,11.849,-1.8757
15969.0,22.574,4.1451,11.849,-1.8757
15979.0,21.574,3.1451,11.849,-2.8757
15989.0,21.574,3.1451,8.8485,-1.8757
15999.0,21.574,3.1451,9.8485,-1.8757
16009.0,18.574,3.1451,7.8485,-2.8757
16019.0,19.574,1.1451,8.8485,-3.8757
16028.0,15.574,2.1451,4.8485,-3.8757
16038.0,15.574,1.1451,3.8485,-4.8757
16048.0,12.574,0.14514,2.8485,-3.8757
16058.0,13.574,-0.85486,1.8485,-3.8757
16068.0,9.574,-1.8549,0.84854,-3.8757
16078.0,7.574,-2.8549,-2.1515,-3.8757
16088.0,6.574,-2.8549,-2.1515,-5.8757
16098.0,3.574,-4.8549,-5.1515,-5.8757
16108.0,3.574,-4.8549,-4.1515,-5.8757
16117.0,3.574,-4.8549,-5.1515,-4.8757
16127.0,3.574,-4.8549,-5.1515,-5.8757
16137.0,2.574,-3.8549,-7.1515,-5.8757
16147.0,2.574,-2.8549,-12.151,-5.8757
16157.0,2.574,-1.8549,-12.151,-7.8757
16167.0,3.574,-0.85486,-15.151,-8.8757
16177.0,6.574,0.14514,-18.151,-8.8757
16187.0,9.574,3.1451,-14.151,-9.8757
16197.0,12.574,4.1451,-15.151,-9.8757
16206.0,15.574,3.1451,-11.151,-9.8757
16216.0,18.574,4.1451,-8.1515,-9.8757
16226.0,24.574,4.1451,-3.1515,-8.8757
16236.0,27.574,5.1451,-2.1515,-7.8757
16246.0,30.574,5.1451,2.8485,-8.8757
16256.0,30.574,5.1451,3.8485,-7.8757
16266.0,32.574,5.1451,6.8485,-6.8757
16276.0,33.574,5.1451,10.849,-6.8757
16285.0,32.574,4.1451,12.849,-5.8757
16295.0,32.574,4.1451,13.849,-5.8757
16305.0,32.574,4.1451,16.849,-5.8757
16315.0,33.574,3.1451,13.849,-5.8757
16325.0,32.574,4.1451,14.849,-3.8757
16335.0,31.574,4.1451,14.849,-3.8757
16345.0,30.574,3.1451,11.849,-5.8757
16355.0,30.574,3.1451,9.8485,-4.8757
16365.0,29.574,3.1451,9.8485,-5.8757
16374.0,27.574,4.1451,9.8485,-5.8757
16384.0,27.574,2.1451,11.849,-4.8757
16394.0,26.574,4.1451,9.8485,-4.8757
16404.0,29.574,3.1451,9.8485,-3.8757
16414.0,28.574,2.1451,9.8485,-4.8757
16424.0,28.574,4.1451,6.8485,-4.8757
16434.0,28.574,4.1451,4.8485,-6.8757
16444.0,28.574,2.1451,3.8485,-5.8757
16454.0,27.574,2.1451,1.8485,-5.8757
16463.0,27.574,1.1451,2.8485,-5.8757
16473.0,27.574,1.1451,4.8485,-5.8757
16483.0,27.574,1.1451,3.8485,-4.8757
16493.0,24.574,0.14514,4.8485,-5.8757
16503.0,25.574,1.1451,5.8485,-4.8757
16513.0,22.574,-0.85486,5.8485,-4.8757
16523.0,22.574,-0.85486,5.8485,-3.8757
16533.0,20.574,-1.8549,7.8485,-4.8757
16543.0,20.574,-1.8549,7.8485,-4.8757
16552.0,17.574,-2.8549,6.8485,-4.8757
16562.0,17.574,-2.8549,6.8485,-4.8757
16572.0,13.574,-3.8549,7.8485,-4.8757
16582.0,13.574,-3.8549,7.8485,-4.8757
16592.0,13.574,-4.8549,5.8485,-4.8757
16602.0,13.574,-4.8549,5.8485,-4.8757
16612.0,10.574,-6.8549,5.8485,-4.8757
16622.0,10.574,-6.8549,5.8485,-4.8757
16631.0,6.574,-8.8549,5.8485,-5.8757
16641.0,6.574,-8.8549,5.8485,-5.8757
16651.0,4.574,-8.8549,1.8485,-3.8757
16661.0,4.574,-8.8549,1.8485,-3.8757
16671.0,1.574,-9.8549,1.8485,-3.8757
16681.0,1.574,-10.855,1.8485,-3.8757
16691.0,0.57402,-10.855,-0.15146,-4.8757
16701.0,-2.426,-12.855,-0.15146,-4.8757
16711.0,-4.426,-11.855,-3.1515,-2.8757
16720.0,-5.426,-14.855,-3.1515,-2.8757
16730.0,-7.426,-13.855,-3.1515,-4.8757
16740.0,-6.426,-13.855,-3.1515,-4.8757
16750.0,-9.426,-15.855,-3.1515,-3.8757
16760.0,-9.426,-14.855,-5.1515,-4.8757
16770.0,-12.426,-14.855,-9.1515,-5.8757
16780.0,-13.426,-13.855,-9.1515,-5.8757
16790.0,-12.426,-12.855,-12.151,-6.8757
16800.0,-10.426,-9.8549,-14.151,-8.8757
16809.0,-7.426,-8.8549,-18.151,-7.8757
16819.0,-2.426,-8.8549,-17.151,-8.8757
16829.0,-2.426,-6.8549,-17.151,-9.8757
16839.0,1.574,-6.8549,-15.151,-9.8757
16849.0,5.574,-6.8549,-12.151,-8.8757
16859.0,8.574,-6.8549,-9.1515,-9.8757
16869.0,10.574,-6.8549,-6.1515,-8.8757
16879.0,15.574,-6.8549,-1.1515,-8.8757
16889.0,14.574,-5.8549,-1.1515,-8.8757
16898.0,17.574,-5.8549,1.8485,-7.8757
16908.0,15.574,-7.8549,6.8485,-6.8757
16918.0,16.574,-7.8549,7.8485,-5.8757
16928.0,16.574,-6.8549,9.8485,-5.8757
16938.0,16.574,-8.8549,10.849,-4.8757
16948.0,16.574,-7.8549,12.849,-3.8757
16958.0,15.574,-7.8549,12.849,-2.8757
16968.0,13.574,-8.8549,9.8485,-2.8757
16977.0,11.574,-8.8549,11.849,-3.8757
16987.0,11.574,-8.8549,8.8485,-4.8757
16997.0,12.574,-7.8549,8.8485,-3.8757
17007.0,10.574,-8.8549,7.8485,-4.8757
17017.0,11.574,-9.8549,7.8485,-3.8757
17027.0,8.574,-9.8549,7.8485,-4.8757
17037.0,9.574,-7.8549,6.8485,-4.8757
17047.0,8.574,-7.8549,5.8485,-2.8757
17057.0,10.574,-7.8549,5.8485,-3.8757
17066.0,9.574,-9.8549,4.8485,-3.8757
17076.0,9.574,-10.855,2.8485,-4.8757
17086.0,9.574,-8.8549,2.8485,-4.8757
17096.0,8.574,-9.8549,1.8485,-5.8757
17106.0,7.574,-10.855,0.84854,-5.8757
17116.0,6.574,-9.8549,-1.1515,-5.8757
17126.0,4.574,-11.855,-0.15146,-5.8757
17136.0,4.574,-10.855,0.84854,-5.8757
17146.0,2.574,-10.855,2.8485,-4.8757
17155.0,0.57402,-13.855,0.84854,-3.8757
17165.0,-0.42598,-13.855,0.84854,-4.8757
17175.0,0.57402,-15.855,0.84854,-5.8757
17185.0,-4.426,-15.855,1.8485,-5.8757
17195.0,-5.426,-17.855,-1.1515,-7.8757
17205.0,-5.426,-16.855,-0.15146,-6.8757
17215.0,-6.426,-17.855,-1.1515,-6.8757
17225.0,-8.426,-17.855,-0.15146,-5.8757
17235.0,-8.426,-15.855,-1.1515,-6.8757
17244.0,-12.426,-17.855,-0.15146,-5.8757
17254.0,-12.426,-17.855,-3.1515,-5.8757
17264.0,-13.426,-20.855,-3.1515,-4.8757
17274.0,-13.426,-20.855,-4.1515,-4.8757
17284.0,-16.426,-20.855,-4.1515,-5.8757
17294.0,-16.426,-20.855,-7.1515,-5.8757
17304.0,-18.426,-22.855,-7.1515,-5.8757
17314.0,-18.426,-22.855,-8.1515,-7.8757
17323.0,-21.426,-23.855,-8.1515,-6.8757
17333.0,-21.426,-23.855,-11.151,-5.8757
17343.0,-25.426,-23.855,-10.151,-6.8757
17353.0,-25.426,-23.855,-10.151,-5.8757
17363.0,-26.426,-23.855,-12.151,-6.8757
17373.0,-26.426,-23.855,-13.151,-6.8757
17383.0,-29.426,-23.855,-14.151,-7.8757
17393.0,-29.426,-23.855,-17.151,-7.8757
17403.0,-29.426,-23.855,-19.151,-8.8757
17412.0,-28.426,-21.855,-24.151,-8.8757
17422.0,-26.426,-19.855,-28.151,-10.876
17432.0,-23.426,-17.855,-27.151,-10.876
17442.0,-21.426,-18.855,-27.151,-12.876
17452.0,-16.426,-15.855,-25.151,-11.876
17462.0,-14.426,-15.855,-22.151,-9.8757
17472.0,-11.426,-15.855,-20.151,-11.876
17482.0,-6.426,-17.855,-17.151,-10.876
17492.0,-6.426,-16.855,-15.151,-11.876
17501.0,-2.426,-15.855,-12.151,-11.876
17511.0,-1.426,-14.855,-12.151,-11.876
17521.0,-1.426,-14.855,-8.1515,-9.8757
17531.0,0.57402,-15.855,-8.1515,-9.8757
17541.0,1.574,-14.855,-4.1515,-9.8757
17551.0,0.57402,-16.855,-4.1515,-9.8757
17561.0,-0.42598,-16.855,-2.1515,-8.8757
17571.0,0.57402,-15.855,-2.1515,-8.8757
17581.0,-1.426,-16.855,-1.1515,-8.8757
17590.0,-2.426,-15.855,-1.1515,-8.8757
17600.0,-4.426,-15.855,-4.1515,-8.8757
17610.0,-3.426,-15.855,-4.1515,-8.8757
17620.0,-4.426,-15.855,-6.1515,-8.8757
17630.0,-3.426,-14.855,-6.1515,-8.8757
17640.0,-4.426,-13.855,-6.1515,-9.8757
17650.0,-4.426,-15.855,-6.1515,-9.8757
17660.0,-4.426,-13.855,-9.1515,-9.8757
17669.0,-3.426,-14.855,-9.1515,-9.8757
17679.0,-2.426,-14.855,-11.151,-8.8757
17689.0,-5.426,-17.855,-11.151,-8.8757
17699.0,-5.426,-16.855,-15.151,-11.876
17709.0,-4.426,-15.855,-15.151,-11.876
17719.0,-4.426,-15.855,-16.151,-10.876
17729.0,-5.426,-16.855,-16.151,-10.876
17739.0,-8.426,-17.855,-15.151,-9.8757
17749.0,-7.426,-17.855,-16.151,-11.876
17758.0,-8.426,-18.855,-15.151,-10.876
17768.0,-9.426,-19.855,-15.151,-10.876
17778.0,-13.426,-20.855,-15.151,-9.8757
17788.0,-10.426,-19.855,-16.151,-10.876
17798.0,-13.426,-19.855,-16.151,-11.876
17808.0,-14.426,-20.855,-17.151,-11.876
17818.0,-16.426,-21.855,-16.151,-11.876
17828.0,-17.426,-21.855,-15.151,-11.876
17838.0,-16.426,-20.855,-17.151,-12.876
17847.0,-19.426,-22.855,-20.151,-12.876
17857.0,-20.426,-24.855,-18.151,-11.876
17867.0,-22.426,-23.855,-17.151,-12.876
17877.0,-22.426,-23.855,-20.151,-11.876
17887.0,-25.426,-25.855,-19.151,-11.876
17897.0,-25.426,-25.855,-18.151,-10.876
17907.0,-25.426,-25.855,-20.151,-11.876
17917.0,-27.426,-26.855,-23.151,-11.876
17927.0,-27.426,-26.855,-23.151,-12.876
17936.0,-28.426,-26.855,-25.151,-12.876
17946.0,-31.426,-28.855,-25.151,-11.876
17956.0,-31.426,-29.855,-28.151,-12.876
17966.0,-31.426,-28.855,-28.151,-12.876
17976.0,-33.426,-27.855,-29.151,-13.876
17986.0,-33.426,-27.855,-30.151,-14.876
17996.0,-33.426,-26.855,-31.151,-14.876
18006.0,-33.426,-26.855,-31.151,-13.876
18015.0,-34.426,-25.855,-34.151,-14.876
18025.0,-34.426,-25.855,-35.151,-13.876
18035.0,-32.426,-24.855,-38.151,-15.876
18045.0,-32.426,-24.855,-41.151,-15.876
18055.0,-25.426,-20.855,-43.151,-17.876
18065.0,-25.426,-20.855,-45.151,-16.876
18075.0,-19.426,-19.855,-43.151,-18.876
18085.0,-19.426,-19.855,-40.151,-17.876
18095.0,-12.426,-19.855,-39.151,-16.876
18104.0,-12.426,-19.855,-35.151,-16.876
18114.0,-8.426,-18.855,-31.151,-17.876
18124.0,-7.426,-19.855,-27.151,-16.876
18134.0,-5.426,-18.855,-25.151,-15.876
18144.0,-3.426,-17.855,-24.151,-15.876
18154.0,-2.426,-17.855,-23.151,-13.876
18164.0,-4.426,-19.855,-21.151,-15.876
18174.0,-3.426,-18.855,-20.151,-14.876
18184.0,-1.426,-17.855,-20.151,-14.876
18193.0,-3.426,-20.855,-20.151,-14.876
18203.0,-4.426,-18.855,-19.151,-13.876
18213.0,-4.426,-17.855,-21.151,-12.876
18223.0,-5.426,-20.855,-23.151,-13.876
18233.0,-6.426,-17.855,-23.151,-13.876
18243.0,-7.426,-17.855,-23.151,-14.876
18253.0,-6.426,-18.855,-25.151,-16.876
18263.0,-8.426,-19.855,-25.151,-16.876
18273.0,-7.426,-17.855,-24.151,-15.876
18282.0,-9.426,-18.855,-26.151,-15.876
18292.0,-10.426,-18.855,-27.151,-15.876
18302.0,-6.426,-18.855,-28.151,-15.876
18312.0,-8.426,-18.855,-28.151,-15.876
18322.0,-6.426,-19.855,-31.151,-16.876
18332.0,-7.426,-19.855,-30.151,-16.876
18342.0,-7.426,-18.855,-30.151,-15.876
18352.0,-7.426,-19.855,-29.151,-15.876
18361.0,-8.426,-20.855,-29.151,-14.876
18371.0,-8.426,-20.855,-30.151,-14.876
18381.0,-7.426,-19.855,-27.151,-15.876
18391.0,-11.426,-20.855,-30.151,-15.876
18401.0,-10.426,-21.855,-29.151,-15.876
18411.0,-12.426,-21.855,-29.151,-14.876
18421.0,-11.426,-21.855,-30.151,-14.876
18431.0,-13.426,-22.855,-29.151,-14.876
18441.0,-16.426,-21.855,-29.151,-14.876
18450.0,-17.426,-22.855,-29.151,-14.876
18460.0,-17.426,-22.855,-30.151,-14.876
18470.0,-19.426,-23.855,-27.151,-14.876
18480.0,-19.426,-23.855,-29.151,-14.876
18490.0,-20.426,-24.855,-28.151,-14.876
18500.0,-19.426,-25.855,-29.151,-14.876
18510.0,-22.426,-26.855,-30.151,-14.876
18520.0,-23.426,-26.855,-31.151,-14.876
18530.0,-24.426,-27.855,-30.151,-13.876
18539.0,-27.426,-27.855,-31.151,-14.876
18549.0,-28.426,-27.855,-30.151,-12.876
18559.0,-31.426,-28.855,-32.151,-14.876
18569.0,-32.426,-27.855,-33.151,-12.876
18579.0,-31.426,-30.855,-35.151,-14.876
18589.0,-33.426,-28.855,-37.151,-15.876
18599.0,-33.426,-28.855,-35.151,-13.876
18609.0,-33.426,-26.855,-38.151,-15.876
18619.0,-35.426,-26.855,-38.151,-14.876
18628.0,-35.426,-25.855,-41.151,-14.876
18638.0,-32.426,-24.855,-41.151,-14.876
18648.0,-29.426,-20.855,-50.151,-18.876
18658.0,-27.426,-20.855,-50.151,-18.876
18668.0,-22.426,-18.855,-53.151,-18.876
18678.0,-20.426,-18.855,-53.151,-18.876
18688.0,-15.426,-16.855,-50.151,-20.876
18698.0,-13.426,-16.855,-50.151,-20.876
18707.0,-10.426,-15.855,-46.151,-21.876
18717.0,-10.426,-15.855,-46.151,-21.876
18727.0,-6.426,-16.855,-42.151,-19.876
18737.0,-6.426,-16.855,-42.151,-19.876
18747.0,-3.426,-16.855,-37.151,-19.876
18757.0,-3.426,-16.855,-37.151,-19.876
18767.0,-3.426,-16.855,-34.151,-20.876
18777.0,-3.426,-16.855,-34.151,-20.876
18787.0,-4.426,-16.855,-32.151,-20.876
18796.0,-4.426,-16.855,-32.151,-20.876
18806.0,-6.426,-17.855,-35.151,-21.876
18816.0,-6.426,-17.855,-35.151,-21.876
18826.0,-8.426,-17.855,-39.151,-20.876
18836.0,-8.426,-17.855,-39.151,-20.876
18846.0,-7.426,-17.855,-39.151,-21.876
18856.0,-8.426,-17.855,-43.151,-23.876
18866.0,-9.426,-17.855,-42.151,-23.876
18876.0,-10.426,-17.855,-42.151,-24.876
18885.0,-9.426,-18.855,-45.151,-23.876
18895.0,-10.426,-17.855,-44.151,-24.876
18905.0,-9.426,-18.855,-46.151,-24.876
18915.0,-9.426,-17.855,-47.151,-25.876
18925.0,-10.426,-19.855,-48.151,-25.876
18935.0,-10.426,-19.855,-50.151,-25.876
18945.0,-10.426,-20.855,-53.151,-26.876
18955.0,-10.426,-19.855,-53.151,-25.876
18965.0,-10.426,-21.855,-52.151,-25.876
18974.0,-11.426,-21.855,-52.151,-25.876
18984.0,-11.426,-19.855,-54.151,-26.876
18994.0,-10.426,-20.855,-53.151,-26.876
19004.0,-10.426,-20.855,-54.151,-27.876
19014.0,-13.426,-20.855,-53.151,-26.876
19024.0,-14.426,-21.855,-53.151,-27.876
19034.0,-14.426,-22.855,-51.151,-25.876
19044.0,-18.426,-22.855,-51.151,-25.876
19053.0,-17.426,-23.855,-52.151,-27.876
19063.0,-18.426,-24.855,-54.151,-29.876
19073.0,-20.426,-24.855,-54.151,-28.876
19083.0,-19.426,-23.855,-56.151,-28.876
19093.0,-22.426,-24.855,-56.151,-28.876
19103.0,-22.426,-25.855,-54.151,-27.876
19113.0,-22.426,-24.855,-55.151,-27.876
19123.0,-24.426,-24.855,-54.151,-27.876
19133.0,-24.426,-25.855,-56.151,-27.876
19142.0,-25.426,-25.855,-59.151,-29.876
19152.0,-26.426,-26.855,-59.151,-27.876
19162.0,-27.426,-26.855,-60.151,-29.876
19172.0,-29.426,-27.855,-61.151,-28.876
19182.0,-29.426,-27.855,-63.151,-29.876
19192.0,-29.426,-26.855,-64.151,-28.876
19202.0,-27.426,-26.855,-64.151,-28.876
19212.0,-29.426,-25.855,-65.151,-29.876
19222.0,-31.426,-23.855,-68.151,-30.876
19231.0,-29.426,-24.855,-71.151,-30.876
19241.0,-29.426,-22.855,-72.151,-31.876
19251.0,-24.426,-20.855,-77.151,-33.876
19261.0,-21.426,-19.855,-78.151,-33.876
19271.0,-18.426,-18.855,-78.151,-35.876
19281.0,-16.426,-18.855,-75.151,-36.876
19291.0,-10.426,-18.855,-75.151,-36.876
19301.0,-9.426,-18.855,-72.151,-36.876
19311.0,-4.426,-17.855,-69.151,-37.876
19320.0,-1.426,-15.855,-68.151,-36.876
19330.0,1.574,-16.855,-63.151,-35.876
19340.0,3.574,-14.855,-60.151,-34.876
19350.0,4.574,-15.855,-59.151,-33.876
19360.0,3.574,-15.855,-56.151,-34.876
19370.0,5.574,-15.855,-54.151,-34.876
19380.0,3.574,-16.855,-52.151,-33.876
19390.0,5.574,-14.855,-51.151,-32.876
19399.0,4.574,-15.855,-51.151,-33.876
19409.0,4.574,-13.855,-52.151,-32.876
19419.0,3.574,-15.855,-54.151,-33.876
19429.0,3.574,-15.855,-55.151,-32.876
19439.0,2.574,-14.855,-54.151,-32.876
19449.0,2.574,-14.855,-53.151,-34.876
19459.0,2.574,-14.855,-53.151,-33.876
19469.0,2.574,-14.855,-53.151,-33.876
19479.0,3.574,-13.855,-53.151,-35.876
19488.0,3.574,-13.855,-54.151,-33.876
19498.0,5.574,-14.855,-58.151,-32.876
19508.0,5.574,-14.855,-59.151,-32.876
19518.0,5.574,-13.855,-58.151,-32.876
19528.0,5.574,-13.855,-60.151,-32.876
19538.0,5.574,-14.855,-61.151,-33.876
19548.0,5.574,-14.855,-61.151,-32.876
19558.0,3.574,-12.855,-60.151,-33.876
19568.0,3.574,-12.855,-58.151,-32.876
19577.0,4.574,-14.855,-59.151,-32.876
19587.0,4.574,-13.855,-56.151,-32.876
19597.0,1.574,-14.855,-58.151,-31.876
19607.0,3.574,-14.855,-58.151,-31.876
19617.0,1.574,-14.855,-59.151,-32.876
19627.0,1.574,-14.855,-59.151,-32.876
19637.0,1.574,-14.855,-58.151,-32.876
19647.0,0.57402,-14.855,-58.151,-32.876
19657.0,-1.426,-14.855,-57.151,-32.876
19666.0,-3.426,-15.855,-57.151,-32.876
19676.0,-4.426,-17.855,-56.151,-29.876
19686.0,-4.426,-15.855,-56.151,-29.876
19696.0,-6.426,-16.855,-57.151,-30.876
19706.0,-7.426,-17.855,-57.151,-30.876
19716.0,-8.426,-18.855,-58.151,-29.876
19726.0,-7.426,-18.855,-58.151,-29.876
19736.0,-10.426,-18.855,-59.151,-28.876
19745.0,-10.426,-20.855,-59.151,-28.876
19755.0,-12.426,-20.855,-58.151,-29.876
19765.0,-15.426,-19.855,-58.151,-29.876
19775.0,-14.426,-20.855,-61.151,-29.876
19785.0,-14.426,-20.855,-61.151,-30.876
19795.0,-13.426,-17.855,-65.151,-30.876
19805.0,-17.426,-17.855,-65.151,-28.876
19815.0,-15.426,-16.855,-67.151,-30.876
19825.0,-15.426,-16.855,-69.151,-30.876
19834.0,-11.426,-14.855,-69.151,-30.876
19844.0,-8.426,-12.855,-70.151,-31.876
19854.0,-4.426,-11.855,-70.151,-33.876
19864.0,-0.42598,-11.855,-67.151,-33.876
19874.0,3.574,-12.855,-65.151,-32.876
19884.0,6.574,-11.855,-62.151,-33.876
19894.0,10.574,-8.8549,-61.151,-31.876
19904.0,12.574,-10.855,-57.151,-32.876
19914.0,15.574,-9.8549,-54.151,-31.876
19923.0,16.574,-8.8549,-50.151,-31.876
19933.0,19.574,-8.8549,-48.151,-31.876
19943.0,19.574,-6.8549,-42.151,-29.876
19953.0,20.574,-7.8549,-41.151,-29.876
19963.0,21.574,-7.8549,-38.151,-28.876
19973.0,22.574,-7.8549,-36.151,-28.876
19983.0,22.574,-6.8549,-36.151,-27.876
19993.0,20.574,-8.8549,-35.151,-26.876
20003.0,21.574,-7.8549,-34.151,-27.876
20012.0,19.574,-6.8549,-37.151,-27.876
20022.0,19.574,-6.8549,-36.151,-26.876
20032.0,20.574,-7.8549,-37.151,-26.876
20042.0,19.574,-6.8549,-38.151,-25.876
20052.0,20.574,-6.8549,-37.151,-26.876
20062.0,18.574,-5.8549,-38.151,-26.876
20072.0,21.574,-5.8549,-37.151,-26.876
20082.0,20.574,-5.8549,-39.151,-25.876
20091.0,21.574,-4.8549,-37.151,-26.876
20101.0,22.574,-5.8549,-40.151,-24.876
20111.0,21.574,-6.8549,-38.151,-25.876
20121.0,23.574,-3.8549,-40.151,-25.876
20131.0,23.574,-4.8549,-38.151,-25.876
20141.0,23.574,-4.8549,-38.151,-24.876
20151.0,24.574,-4.8549,-37.151,-24.876
20161.0,24.574,-4.8549,-37.151,-25.876
20171.0,21.574,-6.8549,-37.151,-24.876
20180.0,21.574,-6.8549,-36.151,-23.876
20190.0,19.574,-5.8549,-39.151,-24.876
20200.0,19.574,-5.8549,-37.151,-24.876
20210.0,19.574,-8.8549,-36.151,-24.876
20220.0,19.574,-8.8549,-35.151,-24.876
20230.0,16.574,-8.8549,-38.151,-24.876
20240.0,16.574,-8.8549,-35.151,-24.876
20250.0,16.574,-8.8549,-35.151,-23.876
20260.0,16.574,-8.8549,-36.151,-24.876
20269.0,13.574,-8.8549,-35.151,-24.876
20279.0,13.574,-8.8549,-35.151,-22.876
20289.0,10.574,-8.8549,-36.151,-23.876
20299.0,11.574,-9.8549,-37.151,-24.876
20309.0,9.574,-9.8549,-37.151,-21.876
20319.0,9.574,-9.8549,-36.151,-22.876
20329.0,6.574,-10.855,-38.151,-22.876
20339.0,7.574,-10.855,-38.151,-21.876
20349.0,6.574,-11.855,-41.151,-22.876
20358.0,4.574,-11.855,-40.151,-22.876
20368.0,3.574,-11.855,-41.151,-22.876
20378.0,3.574,-10.855,-43.151,-23.876
20388.0,4.574,-9.8549,-45.151,-23.876
20398.0,4.574,-10.855,-44.151,-23.876
20408.0,1.574,-8.8549,-48.151,-23.876
20418.0,3.574,-6.8549,-50.151,-23.876
20428.0,8.574,-5.8549,-49.151,-25.876
20437.0,10.574,-3.8549,-47.151,-24.876
20447.0,13.574,-3.8549,-45.151,-26.876
20457.0,20.574,-1.8549,-43.151,-27.876
20467.0,23.574,-2.8549,-41.151,-26.876
20477.0,29.574,-0.85486,-37.151,-25.876
20487.0,31.574,0.14514,-35.151,-25.876
20497.0,34.574,-0.85486,-30.151,-25.876
20507.0,37.574,1.1451,-26.151,-23.876
20517.0,38.574,2.1451,-21.151,-23.876
20526.0,38.574,3.1451,-18.151,-23.876
20536.0,40.574,3.1451,-17.151,-22.876
20546.0,41.574,3.1451,-15.151,-21.876
20556.0,42.574,1.1451,-11.151,-19.876
20566.0,41.574,2.1451,-12.151,-20.876
20576.0,42.574,2.1451,-9.1515,-18.876
20586.0,43.574,3.1451,-10.151,-19.876
20596.0,42.574,3.1451,-10.151,-17.876
20606.0,41.574,3.1451,-9.1515,-19.876
20615.0,40.574,1.1451,-11.151,-19.876
20625.0,42.574,3.1451,-11.151,-20.876
20635.0,42.574,4.1451,-11.151,-20.876
20645.0,41.574,3.1451,-12.151,-18.876
20655.0,41.574,3.1451,-12.151,-18.876
20665.0,44.574,4.1451,-13.151,-19.876
20675.0,43.574,4.1451,-13.151,-19.876
20685.0,42.574,5.1451,-12.151,-17.876
20695.0,44.574,3.1451,-12.151,-17.876
20704.0,43.574,4.1451,-15.151,-17.876
20714.0,43.574,4.1451,-15.151,-17.876
20724.0,44.574,3.1451,-15.151,-19.876
20734.0,43.574,5.1451,-15.151,-19.876
20744.0,42.574,3.1451,-15.151,-18.876
20754.0,43.574,4.1451,-15.151,-18.876
20764.0,41.574,3.1451,-15.151,-18.876
20774.0,40.574,3.1451,-15.151,-18.876
20783.0,40.574,3.1451,-14.151,-19.876
20793.0,40.574,3.1451,-14.151,-19.876
20803.0,37.574,2.1451,-15.151,-19.876
20813.0,37.574,2.1451,-15.151,-19.876
20823.0,38.574,2.1451,-14.151,-18.876
20833.0,35.574,2.1451,-14.151,-18.876
20843.0,35.574,0.14514,-16.151,-19.876
20853.0,34.574,1.1451,-15.151,-18.876
20863.0,33.574,0.14514,-17.151,-20.876
20872.0,33.574,0.14514,-18.151,-21.876
20882.0,32.574,-0.85486,-20.151,-19.876
20892.0,32.574,-0.85486,-22.151,-20.876
20902.0,29.574,-1.8549,-22.151,-20.876
20912.0,29.574,-1.8549,-22.151,-20.876
20922.0,26.574,-3.8549,-24.151,-21.876
20932.0,26.574,-3.8549,-26.151,-22.876
20942.0,23.574,-5.8549,-27.151,-23.876
20952.0,23.574,-5.8549,-30.151,-23.876
20961.0,20.574,-5.8549,-31.151,-23.876
20971.0,20.574,-5.8549,-34.151,-24.876
20981.0,20.574,-4.8549,-34.151,-24.876
20991.0,18.574,-4.8549,-36.151,-24.876
21001.0,18.574,-1.8549,-38.151,-24.876
21011.0,20.574,-1.8549,-41.151,-27.876
21021.0,21.574,0.14514,-44.151,-26.876
21031.0,25.574,1.1451,-47.151,-27.876
21041.0,27.574,3.1451,-43.151,-29.876
21050.0,33.574,4.1451,-40.151,-30.876
21060.0,38.574,4.1451,-37.151,-30.876
21070.0,39.574,4.1451,-36.151,-30.876
21080.0,45.574,5.1451,-30.151,-28.876
21090.0,48.574,6.1451,-29.151,-30.876
21100.0,50.574,6.1451,-25.151,-28.876
21110.0,54.574,7.1451,-20.151,-28.876
21120.0,55.574,5.1451,-16.151,-27.876
21129.0,57.574,6.1451,-13.151,-27.876
21139.0,58.574,6.1451,-13.151,-27.876
21149.0,56.574,6.1451,-8.1515,-25.876
21159.0,58.574,6.1451,-7.1515,-24.876
21169.0,59.574,7.1451,-6.1515,-25.876
21179.0,59.574,8.1451,-7.1515,-25.876
21189.0,60.574,7.1451,-6.1515,-24.876
21199.0,61.574,8.1451,-7.1515,-25.876
21209.0,59.574,6.1451,-8.1515,-26.876
21218.0,61.574,8.1451,-9.1515,-27.876
21228.0,61.574,7.1451,-12.151,-26.876
21238.0,59.574,7.1451,-13.151,-27.876
21248.0,58.574,7.1451,-11.151,-26.876
21258.0,59.574,7.1451,-13.151,-27.876
21268.0,60.574,8.1451,-16.151,-27.876
21278.0,61.574,7.1451,-17.151,-27.876
21288.0,62.574,8.1451,-18.151,-27.876
21298.0,60.574,7.1451,-19.151,-27.876
21307.0,63.574,8.1451,-19.151,-28.876
21317.0,64.574,8.1451,-19.151,-28.876
21327.0,63.574,8.1451,-21.151,-28.876
21337.0,62.574,8.1451,-21.151,-29.876
21347.0,62.574,6.1451,-22.151,-29.876
21357.0,61.574,7.1451,-19.151,-29.876
21367.0,61.574,6.1451,-21.151,-30.876
21377.0,61.574,7.1451,-19.151,-30.876
21386.0,60.574,6.1451,-19.151,-30.876
21396.0,60.574,7.1451,-20.151,-30.876
21406.0,59.574,6.1451,-19.151,-28.876
21416.0,57.574,6.1451,-21.151,-31.876
21426.0,57.574,5.1451,-19.151,-30.876
21436.0,56.574,4.1451,-21.151,-31.876
21446.0,55.574,4.1451,-22.151,-30.876
21456.0,52.574,4.1451,-21.151,-29.876
21466.0,50.574,3.1451,-24.151,-30.876
21475.0,51.574,2.1451,-24.151,-30.876
21485.0,47.574,2.1451,-25.151,-31.876
21495.0,47.574,1.1451,-27.151,-32.876
21505.0,48.574,0.14514,-29.151,-32.876
21515.0,44.574,-0.85486,-28.151,-32.876
21525.0,43.574,-1.8549,-30.151,-32.876
21535.0,44.574,-0.85486,-31.151,-32.876
21545.0,42.574,-0.85486,-33.151,-32.876
21555.0,41.574,-0.85486,-35.151,-33.876
21564.0,41.574,-0.85486,-33.151,-33.876
21574.0,39.574,-1.8549,-37.151,-34.876
21584.0,39.574,-1.8549,-39.151,-34.876
21594.0,36.574,-1.8549,-39.151,-33.876
21604.0,36.574,-1.8549,-40.151,-34.876
21614.0,34.574,-0.85486,-39.151,-35.876
21624.0,34.574,-0.85486,-43.151,-35.876
21634.0,39.574,2.1451,-44.151,-37.876
21644.0,39.574,2.1451,-44.151,-38.876
21653.0,47.574,6.1451,-45.151,-38.876
21663.0,47.574,6.1451,-41.151,-37.876
21673.0,55.574,7.1451,-36.151,-37.876
21683.0,55.574,7.1451,-36.151,-37.876
21693.0,63.574,8.1451,-32.151,-37.876
21703.0,63.574,8.1451,-32.151,-37.876
21713.0,64.574,8.1451,-23.151,-36.876
21723.0,67.574,10.145,-23.151,-36.876
21732.0,69.574,10.145,-18.151,-36.876
21742.0,67.574,9.1451,-18.151,-36.876
21752.0,71.574,8.1451,-11.151,-34.876
21762.0,69.574,9.1451,-11.151,-34.876
21772.0,71.574,9.1451,-9.1515,-34.876
21782.0,71.574,6.1451,-9.1515,-34.876
21792.0,71.574,8.1451,-6.1515,-32.876
21802.0,72.574,8.1451,-6.1515,-32.876
21812.0,71.574,8.1451,-8.1515,-32.876
21821.0,72.574,9.1451,-8.1515,-32.876
21831.0,73.574,7.1451,-10.151,-32.876
21841.0,70.574,7.1451,-10.151,-32.876
21851.0,71.574,8.1451,-12.151,-35.876
21861.0,70.574,8.1451,-12.151,-35.876
21871.0,72.574,8.1451,-13.151,-34.876
21881.0,72.574,7.1451,-13.151,-34.876
21891.0,71.574,9.1451,-14.151,-33.876
21901.0,72.574,8.1451,-18.151,-34.876
21910.0,71.574,8.1451,-19.151,-35.876
21920.0,72.574,7.1451,-18.151,-35.876
21930.0,73.574,8.1451,-20.151,-35.876
21940.0,72.574,8.1451,-19.151,-35.876
21950.0,73.574,7.1451,-19.151,-35.876
21960.0,73.574,6.1451,-20.151,-37.876
21970.0,72.574,6.1451,-19.151,-35.876
21980.0,71.574,6.1451,-18.151,-35.876
21990.0,71.574,5.1451,-20.151,-34.876
21999.0,69.574,5.1451,-19.151,-36.876
22009.0,68.574,5.1451,-18.151,-36.876
22019.0,67.574,3.1451,-17.151,-35.876
22029.0,68.574,5.1451,-19.151,-36.876
22039.0,66.574,3.1451,-18.151,-34.876
22049.0,66.574,3.1451,-18.151,-35.876
22059.0,63.574,3.1451,-19.151,-34.876
22069.0,64.574,2.1451,-20.151,-36.876
22078.0,60.574,1.1451,-22.151,-36.876
22088.0,61.574,0.14514,-21.151,-36.876
22098.0,59.574,0.14514,-23.151,-36.876
22108.0,58.574,-0.85486,-22.151,-36.876
22118.0,57.574,0.14514,-22.151,-35.876
22128.0,56.574,-1.8549,-23.151,-36.876
22138.0,55.574,-0.85486,-24.151,-36.876
22148.0,55.574,-2.8549,-27.151,-35.876
22158.0,53.574,-2.8549,-28.151,-36.876
22167.0,51.574,-3.8549,-31.151,-37.876
22177.0,51.574,-2.8549,-31.151,-37.876
22187.0,50.574,-3.8549,-33.151,-38.876
22197.0,47.574,-5.8549,-32.151,-37.876
22207.0,45.574,-6.8549,-36.151,-37.876
22217.0,43.574,-7.8549,-35.151,-37.876
22227.0,42.574,-7.8549,-36.151,-37.876
22237.0,42.574,-5.8549,-38.151,-38.876
22247.0,41.574,-5.8549,-38.151,-38.876
22256.0,40.574,-5.8549,-38.151,-38.876
22266.0,41.574,-4.8549,-38.151,-37.876
22276.0,41.574,-4.8549,-43.151,-39.876
22286.0,45.574,0.14514,-45.151,-39.876
22296.0,45.574,0.14514,-45.151,-40.876
22306.0,53.574,1.1451,-43.151,-40.876
22316.0,53.574,1.1451,-41.151,-40.876
22326.0,59.574,3.1451,-37.151,-40.876
22336.0,59.574,3.1451,-35.151,-40.876
22345.0,67.574,1.1451,-32.151,-40.876
22355.0,67.574,1.1451,-29.151,-39.876
22365.0,71.574,3.1451,-25.151,-37.876
22375.0,71.574,3.1451,-24.151,-38.876
22385.0,75.574,3.1451,-20.151,-39.876
22395.0,75.574,3.1451,-18.151,-37.876
22405.0,73.574,4.1451,-14.151,-37.876
22415.0,73.574,4.1451,-13.151,-36.876
22424.0,75.574,3.1451,-9.1515,-36.876
22434.0,75.574,2.1451,-11.151,-35.876
22444.0,73.574,3.1451,-10.151,-34.876
22454.0,74.574,3.1451,-12.151,-34.876
22464.0,74.574,3.1451,-13.151,-34.876
22474.0,72.574,3.1451,-13.151,-36.876
22484.0,73.574,2.1451,-14.151,-36.876
22494.0,71.574,2.1451,-14.151,-36.876
22504.0,72.574,1.1451,-17.151,-37.876
22513.0,73.574,3.1451,-17.151,-37.876
22523.0,73.574,2.1451,-18.151,-37.876
22533.0,72.574,3.1451,-19.151,-37.876
22543.0,74.574,3.1451,-19.151,-38.876
22553.0,73.574,2.1451,-20.151,-37.876
22563.0,74.574,3.1451,-22.151,-38.876
22573.0,72.574,2.1451,-23.151,-37.876
22583.0,72.574,2.1451,-24.151,-37.876
22593.0,72.574,2.1451,-25.151,-38.876
22602.0,71.574,1.1451,-24.151,-38.876
22612.0,70.574,0.14514,-24.151,-40.876
22622.0,68.574,-1.8549,-25.151,-39.876
22632.0,67.574,-1.8549,-23.151,-37.876
22642.0,65.574,-1.8549,-25.151,-38.876
22652.0,66.574,-2.8549,-21.151,-38.876
22662.0,65.574,-2.8549,-24.151,-38.876
22672.0,63.574,-3.8549,-23.151,-39.876
22682.0,63.574,-3.8549,-24.151,-38.876
22691.0,61.574,-3.8549,-24.151,-38.876
22701.0,61.574,-3.8549,-26.151,-40.876
22711.0,60.574,-4.8549,-26.151,-40.876
22721.0,56.574,-4.8549,-27.151,-39.876
22731.0,54.574,-7.8549,-27.151,-39.876
22741.0,54.574,-5.8549,-28.151,-40.876
22751.0,52.574,-6.8549,-28.151,-40.876
22761.0,51.574,-8.8549,-29.151,-41.876
22770.0,50.574,-7.8549,-29.151,-41.876
22780.0,49.574,-9.8549,-30.151,-40.876
22790.0,49.574,-9.8549,-30.151,-40.876
22800.0,46.574,-10.855,-34.151,-40.876
22810.0,45.574,-9.8549,-34.151,-40.876
22820.0,44.574,-10.855,-39.151,-44.876
22830.0,42.574,-11.855,-39.151,-44.876
22840.0,40.574,-12.855,-41.151,-43.876
22850.0,37.574,-13.855,-41.151,-43.876
22859.0,36.574,-13.855,-45.151,-43.876
22869.0,34.574,-13.855,-45.151,-43.876
22879.0,32.574,-13.855,-45.151,-43.876
22889.0,33.574,-12.855,-46.151,-43.876
22899.0,32.574,-12.855,-48.151,-44.876
22909.0,32.574,-13.855,-47.151,-44.876
22919.0,33.574,-10.855,-49.151,-43.876
22929.0,36.574,-10.855,-53.151,-45.876
22939.0,37.574,-8.8549,-54.151,-45.876
22948.0,41.574,-7.8549,-51.151,-46.876
22958.0,45.574,-5.8549,-52.151,-46.876
22968.0,49.574,-5.8549,-52.151,-47.876
22978.0,52.574,-5.8549,-48.151,-46.876
22988.0,52.574,-5.8549,-45.151,-46.876
22998.0,58.574,-4.8549,-42.151,-45.876
23008.0,58.574,-4.8549,-39.151,-45.876
23018.0,61.574,-3.8549,-36.151,-44.876
23028.0,61.574,-3.8549,-32.151,-44.876
23037.0,61.574,-5.8549,-30.151,-44.876
23047.0,61.574,-5.8549,-26.151,-44.876
23057.0,62.574,-6.8549,-23.151,-42.876
23067.0,62.574,-6.8549,-21.151,-42.876
23077.0,62.574,-6.8549,-22.151,-42.876
23087.0,62.574,-6.8549,-23.151,-42.876
23097.0,62.574,-7.8549,-23.151,-42.876
23107.0,62.574,-7.8549,-27.151,-42.876
23116.0,59.574,-7.8549,-28.151,-42.876
23126.0,59.574,-7.8549,-28.151,-43.876
23136.0,58.574,-6.8549,-29.151,-44.876
23146.0,58.574,-8.8549,-30.151,-44.876
23156.0,57.574,-6.8549,-27.151,-43.876
23166.0,58.574,-7.8549,-30.151,-43.876
23176.0,56.574,-6.8549,-32.151,-42.876
23186.0,58.574,-7.8549,-33.151,-43.876
23196.0,58.574,-8.8549,-35.151,-43.876
23205.0,56.574,-8.8549,-36.151,-44.876
23215.0,57.574,-7.8549,-37.151,-44.876
23225.0,56.574,-7.8549,-37.151,-44.876
23235.0,57.574,-8.8549,-38.151,-44.876
23245.0,56.574,-8.8549,-38.151,-45.876
23255.0,54.574,-10.855,-37.151,-45.876
23265.0,54.574,-9.8549,-39.151,-45.876
23275.0,53.574,-10.855,-37.151,-45.876
23285.0,51.574,-11.855,-38.151,-44.876
23294.0,50.574,-11.855,-36.151,-44.876
23304.0,49.574,-13.855,-38.151,-45.876
23314.0,46.574,-11.855,-38.151,-44.876
23324.0,45.574,-13.855,-36.151,-45.876
23334.0,43.574,-12.855,-37.151,-45.876
23344.0,42.574,-15.855,-37.151,-45.876
23354.0,41.574,-14.855,-35.151,-44.876
23364.0,39.574,-17.855,-41.151,-47.876
23374.0,39.574,-16.855,-40.151,-46.876
23383.0,38.574,-17.855,-40.151,-46.876
23393.0,36.574,-18.855,-41.151,-46.876
23403.0,34.574,-18.855,-40.151,-46.876
23413.0,33.574,-19.855,-42.151,-46.876
23423.0,32.574,-20.855,-42.151,-45.876
23433.0,31.574,-20.855,-45.151,-46.876
23443.0,28.574,-20.855,-49.151,-47.876
23453.0,27.574,-22.855,-49.151,-46.876
23462.0,26.574,-23.855,-49.151,-47.876
23472.0,26.574,-23.855,-51.151,-47.876
23482.0,23.574,-22.855,-53.151,-47.876
23492.0,21.574,-23.855,-54.151,-48.876
23502.0,19.574,-26.855,-58.151,-48.876
23512.0,18.574,-25.855,-57.151,-48.876
23522.0,20.574,-23.855,-60.151,-49.876
23532.0,18.574,-24.855,-61.151,-49.876
23542.0,16.574,-24.855,-61.151,-50.876
23551.0,15.574,-23.855,-64.151,-50.876
23561.0,15.574,-21.855,-65.151,-49.876
23571.0,18.574,-20.855,-67.151,-51.876
23581.0,22.574,-20.855,-69.151,-51.876
23591.0,24.574,-19.855,-70.151,-53.876
23601.0,27.574,-17.855,-66.151,-52.876
23611.0,32.574,-17.855,-64.151,-52.876
23621.0,35.574,-16.855,-62.151,-51.876
23631.0,39.574,-15.855,-57.151,-51.876
23640.0,40.574,-16.855,-57.151,-53.876
23650.0,43.574,-16.855,-52.151,-51.876
23660.0,45.574,-15.855,-50.151,-52.876
23670.0,44.574,-15.855,-48.151,-50.876
23680.0,45.574,-17.855,-44.151,-50.876
23690.0,45.574,-16.855,-41.151,-49.876
23700.0,45.574,-16.855,-41.151,-49.876
23710.0,45.574,-17.855,-40.151,-49.876
23720.0,45.574,-17.855,-40.151,-49.876
23729.0,42.574,-17.855,-42.151,-49.876
23739.0,42.574,-17.855,-42.151,-49.876
23749.0,41.574,-18.855,-45.151,-49.876
23759.0,41.574,-18.855,-45.151,-49.876
23769.0,41.574,-18.855,-46.151,-50.876
23779.0,41.574,-18.855,-46.151,-50.876
23789.0,39.574,-18.855,-48.151,-52.876
23799.0,39.574,-18.855,-48.151,-52.876
23808.0,38.574,-18.855,-50.151,-51.876
23818.0,38.574,-18.855,-50.151,-51.876
23828.0,39.574,-17.855,-52.151,-51.876
23838.0,39.574,-17.855,-52.151,-51.876
23848.0,38.574,-18.855,-56.151,-52.876
23858.0,37.574,-17.855,-56.151,-52.876
23868.0,37.574,-18.855,-59.151,-52.876
23878.0,37.574,-19.855,-59.151,-52.876
23888.0,37.574,-18.855,-59.151,-54.876
23897.0,35.574,-21.855,-55.151,-53.876
23907.0,33.574,-21.855,-58.151,-51.876
23917.0,34.574,-18.855,-57.151,-51.876
23927.0,31.574,-21.855,-58.151,-52.876
23937.0,32.574,-23.855,-56.151,-52.876
23947.0,29.574,-22.855,-57.151,-52.876
23957.0,26.574,-23.855,-58.151,-54.876
23967.0,26.574,-23.855,-57.151,-52.876
23977.0,26.574,-23.855,-58.151,-53.876
23986.0,23.574,-24.855,-58.151,-53.876
23996.0,22.574,-23.855,-58.151,-54.876
24006.0,20.574,-24.855,-58.151,-53.876
24016.0,19.574,-24.855,-58.151,-52.876
24026.0,16.574,-27.855,-59.151,-52.876
24036.0,16.574,-28.855,-59.151,-51.876
24046.0,13.574,-29.855,-61.151,-52.876
24056.0,14.574,-28.855,-61.151,-52.876
24066.0,10.574,-29.855,-63.151,-53.876
24075.0,9.574,-30.855,-65.151,-53.876
24085.0,7.574,-31.855,-67.151,-55.876
24095.0,6.574,-32.855,-69.151,-54.876
24105.0,4.574,-31.855,-70.151,-54.876
24115.0,4.574,-32.855,-72.151,-55.876
24125.0,3.574,-32.855,-73.151,-55.876
24135.0,1.574,-34.855,-72.151,-54.876
24145.0,-1.426,-34.855,-76.151,-56.876
24154.0,-2.426,-33.855,-75.151,-55.876
24164.0,-2.426,-32.855,-77.151,-56.876
24174.0,-2.426,-33.855,-79.151,-56.876
24184.0,-6.426,-34.855,-79.151,-57.876
24194.0,-7.426,-31.855,-81.151,-58.876
24204.0,-7.426,-30.855,-86.151,-57.876
24214.0,-3.426,-31.855,-88.151,-57.876
24224.0,0.57402,-28.855,-89.151,-60.876
24234.0,3.574,-28.855,-89.151,-58.876
24243.0,7.574,-26.855,-85.151,-59.876
24253.0,9.574,-25.855,-83.151,-59.876
24263.0,14.574,-24.855,-81.151,-59.876
24273.0,16.574,-25.855,-78.151,-60.876
24283.0,21.574,-25.855,-77.151,-58.876
24293.0,21.574,-24.855,-73.151,-59.876
24303.0,22.574,-26.855,-70.151,-58.876
24313.0,22.574,-25.855,-67.151,-57.876
24323.0,21.574,-27.855,-63.151,-56.876
24332.0,20.574,-29.855,-60.151,-55.876
24342.0,22.574,-28.855,-62.151,-55.876
24352.0,21.574,-27.855,-59.151,-55.876
24362.0,18.574,-27.855,-60.151,-55.876
24372.0,20.574,-27.855,-61.151,-55.876
24382.0,16.574,-28.855,-62.151,-54.876
24392.0,16.574,-28.855,-62.151,-54.876
24402.0,15.574,-29.855,-63.151,-55.876
24412.0,15.574,-29.855,-64.151,-55.876
24421.0,15.574,-28.855,-65.151,-56.876
24431.0,15.574,-28.855,-65.151,-56.876
24441.0,13.574,-28.855,-66.151,-56.876
24451.0,13.574,-28.855,-69.151,-57.876
24461.0,13.574,-29.855,-71.151,-56.876
24471.0,13.574,-29.855,-72.151,-56.876
24481.0,12.574,-30.855,-72.151,-57.876
24491.0,12.574,-30.855,-74.151,-56.876
24500.0,10.574,-31.855,-74.151,-57.876
24510.0,10.574,-31.855,-74.151,-58.876
24520.0,8.574,-29.855,-77.151,-59.876
24530.0,8.574,-29.855,-76.151,-58.876
24540.0,6.574,-32.855,-77.151,-60.876
24550.0,6.574,-32.855,-77.151,-59.876
24560.0,4.574,-32.855,-77.151,-59.876
24570.0,3.574,-34.855,-76.151,-57.876
24580.0,0.57402,-33.855,-74.151,-59.876
24589.0,1.574,-34.855,-74.151,-59.876
24599.0,-0.42598,-35.855,-77.151,-60.876
24609.0,0.57402,-34.855,-77.151,-59.876
24619.0,-2.426,-35.855,-77.151,-58.876
24629.0,-4.426,-35.855,-76.151,-59.876
24639.0,-4.426,-36.855,-77.151,-58.876
24649.0,-7.426,-37.855,-78.151,-59.876
24659.0,-8.426,-37.855,-77.151,-59.876
24669.0,-9.426,-38.855,-78.151,-58.876
24678.0,-11.426,-39.855,-78.151,-59.876
24688.0,-12.426,-39.855,-78.151,-58.876
24698.0,-13.426,-40.855,-79.151,-58.876
24708.0,-16.426,-40.855,-80.151,-59.876
24718.0,-19.426,-41.855,-84.151,-59.876
24728.0,-19.426,-42.855,-84.151,-59.876
24738.0,-22.426,-43.855,-87.151,-59.876
24748.0,-23.426,-43.855,-87.151,-59.876
24758.0,-25.426,-44.855,-91.151,-60.876
24767.0,-27.426,-46.855,-91.151,-60.876
24777.0,-28.426,-46.855,-92.151,-60.876
24787.0,-28.426,-46.855,-92.151,-60.876
24797.0,-29.426,-44.855,-95.151,-61.876
24807.0,-30.426,-43.855,-95.151,-61.876
24817.0,-28.426,-43.855,-98.151,-60.876
24827.0,-28.426,-42.855,-98.151,-60.876
24837.0,-29.426,-40.855,-102.15,-63.876
24846.0,-27.426,-39.855,-102.15,-63.876
24856.0,-20.426,-37.855,-100.15,-63.876
24866.0,-18.426,-36.855,-100.15,-63.876
24876.0,-14.426,-36.855,-98.151,-64.876
24886.0,-11.426,-34.855,-98.151,-64.876
24896.0,-8.426,-36.855,-93.151,-63.876
24906.0,-3.426,-36.855,-93.151,-63.876
24916.0,-3.426,-36.855,-86.151,-63.876
24926.0,-0.42598,-34.855,-86.151,-63.876
24935.0,-0.42598,-35.855,-81.151,-60.876
24945.0,-0.42598,-35.855,-81.151,-60.876
24955.0,0.57402,-36.855,-76.151,-61.876
24965.0,-1.426,-37.855,-74.151,-59.876
24975.0,-2.426,-37.855,-75.151,-60.876
24985.0,-2.426,-35.855,-74.151,-59.876
24995.0,-3.426,-36.855,-74.151,-59.876
25005.0,-4.426,-38.855,-73.151,-59.876
25015.0,-4.426,-37.855,-75.151,-59.876
25024.0,-8.426,-37.855,-75.151,-60.876
25034.0,-8.426,-37.855,-77.151,-59.876
25044.0,-8.426,-38.855,-78.151,-60.876
25054.0,-8.426,-37.855,-80.151,-59.876
25064.0,-9.426,-38.855,-78.151,-60.876
25074.0,-8.426,-37.855,-79.151,-59.876
25084.0,-8.426,-35.855,-83.151,-60.876
25094.0,-9.426,-36.855,-83.151,-60.876
25104.0,-8.426,-36.855,-83.151,-60.876
25113.0,-8.426,-37.855,-85.151,-60.876
25123.0,-8.426,-37.855,-87.151,-60.876
25133.0,-9.426,-37.855,-88.151,-60.876
25143.0,-9.426,-37.855,-86.151,-60.876
25153.0,-10.426,-37.855,-88.151,-60.876
25163.0,-10.426,-37.855,-87.151,-62.876
25173.0,-13.426,-39.855,-86.151,-61.876
25183.0,-13.426,-39.855,-87.151,-61.876
25192.0,-16.426,-40.855,-86.151,-60.876
25202.0,-16.426,-40.855,-86.151,-61.876
25212.0,-17.426,-41.855,-85.151,-61.876
25222.0,-17.426,-41.855,-86.151,-61.876
25232.0,-21.426,-42.855,-86.151,-61.876
25242.0,-21.426,-42.855,-87.151,-62.876
25252.0,-24.426,-42.855,-86.151,-63.876
25262.0,-24.426,-42.855,-89.151,-61.876
25272.0,-26.426,-44.855,-87.151,-63.876
25281.0,-27.426,-44.855,-87.151,-61.876
25291.0,-29.426,-45.855,-88.151,-61.876
25301.0,-28.426,-46.855,-90.151,-62.876
25311.0,-30.426,-45.855,-93.151,-62.876
25321.0,-31.426,-46.855,-91.151,-61.876
25331.0,-32.426,-47.855,-91.151,-62.876
25341.0,-33.426,-48.855,-94.151,-62.876
25351.0,-36.426,-48.855,-95.151,-62.876
25361.0,-36.426,-48.855,-97.151,-62.876
25370.0,-37.426,-50.855,-97.151,-62.876
25380.0,-39.426,-50.855,-99.151,-63.876
25390.0,-41.426,-51.855,-102.15,-64.876
25400.0,-40.426,-50.855,-102.15,-62.876
25410.0,-42.426,-49.855,-103.15,-64.876
25420.0,-42.426,-49.855,-103.15,-63.876
25430.0,-44.426,-49.855,-105.15,-62.876
25440.0,-44.426,-47.855,-107.15,-63.876
25450.0,-40.426,-46.855,-109.15,-64.876
25459.0,-38.426,-44.855,-113.15,-65.876
25469.0,-36.426,-44.855,-113.15,-65.876
25479.0,-32.426,-43.855,-112.15,-66.876
25489.0,-30.426,-41.855,-111.15,-66.876
25499.0,-26.426,-42.855,-108.15,-67.876
25509.0,-22.426,-41.855,-105.15,-67.876
25519.0,-20.426,-41.855,-102.15,-66.876
25529.0,-16.426,-39.855,-100.15,-64.876
25538.0,-14.426,-40.855,-96.151,-65.876
25548.0,-14.426,-40.855,-94.151,-64.876
25558.0,-13.426,-39.855,-92.151,-64.876
25568.0,-15.426,-41.855,-91.151,-64.876
25578.0,-13.426,-42.855,-88.151,-63.876
25588.0,-16.426,-41.855,-86.151,-62.876
25598.0,-14.426,-41.855,-86.151,-62.876
25608.0,-15.426,-41.855,-85.151,-62.876
25618.0,-16.426,-42.855,-85.151,-62.876
25627.0,-16.426,-42.855,-87.151,-62.876
25637.0,-18.426,-41.855,-89.151,-62.876
25647.0,-18.426,-42.855,-91.151,-62.876
25657.0,-19.426,-41.855,-91.151,-62.876
25667.0,-19.426,-40.855,-93.151,-64.876
25677.0,-18.426,-42.855,-93.151,-63.876
25687.0,-19.426,-41.855,-93.151,-64.876
25697.0,-19.426,-42.855,-95.151,-63.876
25707.0,-18.426,-42.855,-96.151,-64.876
25716.0,-19.426,-42.855,-97.151,-63.876
25726.0,-19.426,-41.855,-96.151,-63.876
25736.0,-19.426,-41.855,-99.151,-64.876
25746.0,-19.426,-41.855,-98.151,-63.876
25756.0,-18.426,-43.855,-98.151,-63.876
25766.0,-21.426,-42.855,-98.151,-63.876
25776.0,-21.426,-43.855,-98.151,-63.876
25786.0,-22.426,-41.855,-97.151,-63.876
25796.0,-22.426,-44.855,-97.151,-63.876
25805.0,-25.426,-44.855,-97.151,-63.876
25815.0,-25.426,-44.855,-97.151,-63.876
25825.0,-27.426,-45.855,-98.151,-63.876
25835.0,-27.426,-45.855,-98.151,-63.876
25845.0,-29.426,-45.855,-97.151,-63.876
25855.0,-29.426,-45.855,-97.151,-63.876
25865.0,-30.426,-45.855,-99.151,-65.876
25875.0,-30.426,-45.855,-99.151,-65.876
25884.0,-32.426,-48.855,-97.151,-63.876
25894.0,-32.426,-48.855,-97.151,-63.876
25904.0,-36.426,-49.855,-99.151,-63.876
25914.0,-36.426,-49.855,-99.151,-63.876
25924.0,-39.426,-51.855,-101.15,-63.876
25934.0,-39.426,-51.855,-101.15,-63.876
25944.0,-41.426,-53.855,-102.15,-63.876
25954.0,-41.426,-53.855,-102.15,-63.876
25964.0,-45.426,-52.855,-103.15,-63.876
25973.0,-45.426,-52.855,-105.15,-64.876
25983.0,-48.426,-54.855,-106.15,-63.876
25993.0,-51.426,-56.855,-107.15,-64.876
26003.0,-52.426,-57.855,-107.15,-63.876
26013.0,-54.426,-57.855,-109.15,-64.876
26023.0,-53.426,-56.855,-109.15,-64.876
26033.0,-53.426,-56.855,-111.15,-65.876
26043.0,-56.426,-57.855,-111.15,-65.876
26053.0,-55.426,-56.855,-115.15,-66.876
26062.0,-56.426,-56.855,-119.15,-63.876
26072.0,-55.426,-53.855,-120.15,-66.876
26082.0,-51.426,-52.855,-120.15,-66.876
26092.0,-50.426,-52.855,-119.15,-67.876
26102.0,-45.426,-52.855,-120.15,-68.876
26112.0,-41.426,-50.855,-117.15,-67.876
26122.0,-39.426,-51.855,-114.15,-67.876
26132.0,-34.426,-49.855,-113.15,-68.876
26142.0,-35.426,-50.855,-111.15,-67.876
26151.0,-31.426,-50.855,-109.15,-66.876
26161.0,-31.426,-50.855,-105.15,-65.876
26171.0,-30.426,-51.855,-103.15,-65.876
26181.0,-29.426,-52.855,-100.15,-65.876
26191.0,-32.426,-53.855,-97.151,-63.876
26201.0,-32.426,-52.855,-97.151,-63.876
26211.0,-33.426,-53.855,-94.151,-62.876
26221.0,-32.426,-52.855,-92.151,-63.876
26230.0,-33.426,-54.855,-94.151,-62.876
26240.0,-33.426,-53.855,-95.151,-63.876
26250.0,-34.426,-52.855,-95.151,-63.876
26260.0,-35.426,-52.855,-95.151,-62.876
26270.0,-36.426,-54.855,-98.151,-63.876
26280.0,-37.426,-53.855,-98.151,-63.876
26290.0,-38.426,-55.855,-97.151,-63.876
26300.0,-38.426,-55.855,-98.151,-63.876
26310.0,-39.426,-54.855,-100.15,-63.876
26319.0,-40.426,-54.855,-99.151,-61.876
26329.0,-38.426,-56.855,-102.15,-62.876
26339.0,-40.426,-56.855,-104.15,-61.876
26349.0,-41.426,-56.855,-102.15,-62.876
26359.0,-41.426,-58.855,-103.15,-63.876
26369.0,-41.426,-57.855,-103.15,-63.876
26379.0,-42.426,-58.855,-104.15,-62.876
26389.0,-44.426,-58.855,-104.15,-63.876
26399.0,-42.426,-59.855,-104.15,-62.876
26408.0,-45.426,-59.855,-103.15,-62.876
26418.0,-47.426,-59.855,-102.15,-61.876
26428.0,-49.426,-59.855,-101.15,-62.876
26438.0,-51.426,-61.855,-101.15,-61.876
26448.0,-50.426,-63.855,-101.15,-62.876
26458.0,-51.426,-64.855,-100.15,-62.876
26468.0,-54.426,-63.855,-102.15,-62.876
26478.0,-55.426,-64.855,-103.15,-62.876
26488.0,-57.426,-66.855,-104.15,-62.876
26497.0,-58.426,-67.855,-102.15,-62.876
26507.0,-60.426,-67.855,-101.15,-62.876
26517.0,-61.426,-68.855,-101.15,-61.876
26527.0,-63.426,-68.855,-103.15,-62.876
26537.0,-64.426,-67.855,-103.15,-61.876
26547.0,-65.426,-69.855,-103.15,-62.876
26557.0,-67.426,-69.855,-105.15,-61.876
26567.0,-67.426,-69.855,-105.15,-61.876
26576.0,-69.426,-72.855,-106.15,-61.876
26586.0,-69.426,-72.855,-107.15,-61.876
26596.0,-74.426,-73.855,-106.15,-61.876
26606.0,-74.426,-73.855,-108.15,-60.876
26616.0,-72.426,-71.855,-109.15,-62.876
26626.0,-72.426,-71.855,-110.15,-60.876
26636.0,-74.426,-70.855,-111.15,-62.876
26646.0,-74.426,-70.855,-114.15,-62.876
26656.0,-71.426,-69.855,-116.15,-63.876
26665.0,-71.426,-69.855,-117.15,-63.876
26675.0,-67.426,-66.855,-121.15,-64.876
26685.0,-67.426,-66.855,-118.15,-64.876
26695.0,-59.426,-65.855,-115.15,-63.876
26705.0,-59.426,-65.855,-114.15,-63.876
26715.0,-56.426,-64.855,-108.15,-63.876
26725.0,-53.426,-64.855,-107.15,-64.876
26735.0,-49.426,-63.855,-103.15,-62.876
26745.0,-46.426,-64.855,-100.15,-62.876
26754.0,-44.426,-62.855,-97.151,-61.876
26764.0,-43.426,-63.855,-97.151,-61.876
26774.0,-43.426,-63.855,-90.151,-59.876
26784.0,-43.426,-62.855,-90.151,-59.876
26794.0,-41.426,-63.855,-84.151,-57.876
26804.0,-43.426,-63.855,-84.151,-57.876
26814.0,-42.426,-62.855,-82.151,-56.876
26824.0,-42.426,-61.855,-82.151,-56.876
26833.0,-43.426,-62.855,-84.151,-57.876
26843.0,-44.426,-63.855,-84.151,-57.876
26853.0,-44.426,-63.855,-84.151,-56.876
26863.0,-44.426,-62.855,-84.151,-56.876
26873.0,-44.426,-62.855,-85.151,-55.876
26883.0,-44.426,-62.855,-85.151,-55.876
26893.0,-43.426,-61.855,-86.151,-56.876
26903.0,-43.426,-60.855,-86.151,-56.876
26913.0,-43.426,-60.855,-88.151,-54.876
26922.0,-41.426,-60.855,-88.151,-54.876
26932.0,-42.426,-60.855,-90.151,-54.876
26942.0,-42.426,-59.855,-90.151,-54.876
26952.0,-41.426,-59.855,-89.151,-54.876
26962.0,-40.426,-61.855,-89.151,-54.876
26972.0,-42.426,-61.855,-88.151,-53.876
26982.0,-40.426,-60.855,-88.151,-53.876
26992.0,-42.426,-59.855,-88.151,-53.876
27002.0,-40.426,-60.855,-88.151,-54.876
27011.0,-42.426,-59.855,-87.151,-53.876
27021.0,-43.426,-59.855,-86.151,-53.876
27031.0,-44.426,-60.855,-87.151,-54.876
27041.0,-46.426,-60.855,-86.151,-55.876
27051.0,-44.426,-61.855,-85.151,-52.876
27061.0,-47.426,-61.855,-84.151,-54.876
27071.0,-49.426,-61.855,-85.151,-53.876
27081.0,-50.426,-62.855,-86.151,-54.876
27091.0,-48.426,-61.855,-85.151,-53.876
27100.0,-49.426,-61.855,-83.151,-53.876
27110.0,-51.426,-62.855,-82.151,-52.876
27120.0,-53.426,-62.855,-84.151,-52.876
27130.0,-52.426,-62.855,-86.151,-52.876
27140.0,-54.426,-61.855,-84.151,-51.876
27150.0,-55.426,-63.855,-86.151,-52.876
27160.0,-57.426,-63.855,-87.151,-51.876
27170.0,-58.426,-64.855,-88.151,-51.876
27179.0,-59.426,-64.855,-90.151,-51.876
27189.0,-60.426,-62.855,-90.151,-52.876
27199.0,-58.426,-62.855,-91.151,-50.876
27209.0,-59.426,-59.855,-91.151,-51.876
27219.0,-58.426,-59.855,-91.151,-52.876
27229.0,-59.426,-59.855,-95.151,-51.876
27239.0,-55.426,-56.855,-96.151,-52.876
27249.0,-52.426,-54.855,-97.151,-54.876
27259.0,-48.426,-53.855,-102.15,-53.876
27268.0,-46.426,-50.855,-101.15,-56.876
27278.0,-46.426,-50.855,-99.151,-55.876
27288.0,-37.426,-49.855,-96.151,-55.876
27298.0,-37.426,-49.855,-92.151,-54.876
27308.0,-27.426,-48.855,-89.151,-54.876
27318.0,-27.426,-48.855,-87.151,-53.876
27328.0,-20.426,-45.855,-83.151,-55.876
27338.0,-20.426,-45.855,-81.151,-52.876
27348.0,-17.426,-45.855,-77.151,-51.876
27357.0,-17.426,-45.855,-71.151,-50.876
27367.0,-17.426,-45.855,-70.151,-49.876
27377.0,-17.426,-45.855,-67.151,-49.876
27387.0,-17.426,-44.855,-65.151,-47.876
27397.0,-17.426,-44.855,-61.151,-48.876
27407.0,-16.426,-44.855,-61.151,-46.876
27417.0,-16.426,-44.855,-64.151,-48.876
27427.0,-16.426,-44.855,-62.151,-48.876
27437.0,-19.426,-44.855,-63.151,-47.876
27446.0,-18.426,-42.855,-67.151,-48.876
27456.0,-16.426,-40.855,-65.151,-49.876
27466.0,-16.426,-41.855,-66.151,-49.876
27476.0,-15.426,-41.855,-67.151,-50.876
27486.0,-15.426,-42.855,-67.151,-49.876
27496.0,-15.426,-40.855,-68.151,-49.876
27506.0,-15.426,-40.855,-70.151,-49.876
27516.0,-11.426,-40.855,-72.151,-50.876
27525.0,-15.426,-39.855,-69.151,-49.876
27535.0,-13.426,-39.855,-72.151,-50.876
27545.0,-14.426,-41.855,-73.151,-50.876
27555.0,-14.426,-39.855,-74.151,-50.876
27565.0,-13.426,-41.855,-74.151,-51.876
27575.0,-14.426,-41.855,-73.151,-51.876
27585.0,-13.426,-41.855,-72.151,-50.876
27595.0,-15.426,-41.855,-71.151,-50.876
27605.0,-15.426,-42.855,-71.151,-49.876
27614.0,-16.426,-42.855,-72.151,-50.876
27624.0,-18.426,-42.855,-71.151,-50.876
27634.0,-18.426,-44.855,-72.151,-49.876
27644.0,-21.426,-43.855,-69.151,-49.876
27654.0,-20.426,-43.855,-73.151,-49.876
27664.0,-22.426,-43.855,-70.151,-49.876
27674.0,-23.426,-43.855,-71.151,-50.876
27684.0,-23.426,-43.855,-70.151,-50.876
27694.0,-24.426,-43.855,-71.151,-50.876
27703.0,-25.426,-43.855,-72.151,-50.876
27713.0,-26.426,-42.855,-73.151,-50.876
27723.0,-27.426,-44.855,-73.151,-50.876
27733.0,-29.426,-45.855,-75.151,-49.876
27743.0,-27.426,-45.855,-74.151,-50.876
27753.0,-30.426,-45.855,-77.151,-49.876
27763.0,-32.426,-45.855,-78.151,-48.876
27773.0,-34.426,-47.855,-80.151,-49.876
27783.0,-36.426,-48.855,-80.151,-49.876
27792.0,-36.426,-47.855,-79.151,-49.876
27802.0,-34.426,-45.855,-81.151,-49.876
27812.0,-36.426,-43.855,-82.151,-49.876
27822.0,-37.426,-43.855,-86.151,-49.876
27832.0,-36.426,-41.855,-86.151,-51.876
27842.0,-32.426,-39.855,-91.151,-52.876
27852.0,-28.426,-38.855,-89.151,-51.876
27862.0,-24.426,-37.855,-86.151,-53.876
27871.0,-20.426,-37.855,-86.151,-53.876
27881.0,-14.426,-33.855,-81.151,-51.876
27891.0,-12.426,-33.855,-81.151,-51.876
27901.0,-5.426,-33.855,-73.151,-51.876
27911.0,-4.426,-31.855,-73.151,-51.876
27921.0,-1.426,-31.855,-65.151,-50.876
27931.0,2.574,-31.855,-65.151,-50.876
27941.0,1.574,-31.855,-58.151,-49.876
27951.0,4.574,-31.855,-58.151,-49.876
27960.0,3.574,-30.855,-53.151,-49.876
27970.0,3.574,-31.855,-53.151,-49.876
27980.0,4.574,-32.855,-48.151,-47.876
27990.0,3.574,-32.855,-48.151,-47.876
28000.0,3.574,-31.855,-49.151,-46.876
28010.0,4.574,-31.855,-49.151,-46.876
28020.0,3.574,-30.855,-49.151,-48.876
28030.0,3.574,-30.855,-49.151,-48.876
28040.0,3.574,-29.855,-52.151,-47.876
28049.0,3.574,-29.855,-52.151,-47.876
28059.0,4.574,-30.855,-53.151,-48.876
28069.0,4.574,-30.855,-55.151,-49.876
28079.0,4.574,-29.855,-56.151,-49.876
28089.0,4.574,-29.855,-56.151,-49.876
28099.0,5.574,-30.855,-57.151,-49.876
28109.0,5.574,-30.855,-58.151,-50.876
28119.0,5.574,-28.855,-60.151,-50.876
28129.0,5.574,-28.855,-61.151,-52.876
28138.0,6.574,-28.855,-62.151,-50.876
28148.0,6.574,-28.855,-62.151,-51.876
28158.0,6.574,-29.855,-66.151,-52.876
28168.0,5.574,-29.855,-64.151,-52.876
28178.0,8.574,-30.855,-64.151,-51.876
28188.0,7.574,-29.855,-63.151,-51.876
28198.0,5.574,-30.855,-63.151,-51.876
28208.0,5.574,-29.855,-65.151,-51.876
28217.0,5.574,-30.855,-64.151,-50.876
28227.0,4.574,-32.855,-63.151,-52.876
28237.0,3.574,-33.855,-64.151,-52.876
28247.0,2.574,-32.855,-65.151,-53.876
28257.0,2.574,-31.855,-64.151,-53.876
28267.0,0.57402,-31.855,-68.151,-55.876
28277.0,-1.426,-33.855,-67.151,-53.876
28287.0,-1.426,-31.855,-68.151,-53.876
28297.0,-1.426,-32.855,-69.151,-54.876
28306.0,-1.426,-32.855,-70.151,-53.876
28316.0,-3.426,-33.855,-72.151,-54.876
28326.0,-4.426,-33.855,-72.151,-53.876
28336.0,-4.426,-35.855,-74.151,-56.876
28346.0,-8.426,-35.855,-77.151,-55.876
28356.0,-7.426,-35.855,-78.151,-56.876
28366.0,-10.426,-35.855,-81.151,-55.876
28376.0,-8.426,-34.855,-81.151,-56.876
28386.0,-12.426,-36.855,-83.151,-57.876
28395.0,-11.426,-35.855,-83.151,-56.876
28405.0,-11.426,-34.855,-84.151,-57.876
28415.0,-13.426,-34.855,-86.151,-57.876
28425.0,-12.426,-33.855,-89.151,-59.876
28435.0,-12.426,-31.855,-88.151,-59.876
28445.0,-9.426,-28.855,-92.151,-60.876
28455.0,-6.426,-28.855,-92.151,-60.876
28465.0,-2.426,-26.855,-90.151,-60.876
28475.0,1.574,-25.855,-87.151,-60.876
28484.0,6.574,-25.855,-85.151,-60.876
28494.0,9.574,-22.855,-80.151,-60.876
28504.0,15.574,-24.855,-77.151,-58.876
28514.0,17.574,-23.855,-71.151,-58.876
28524.0,19.574,-22.855,-68.151,-58.876
28534.0,21.574,-22.855,-63.151,-57.876
28544.0,23.574,-22.855,-62.151,-57.876
28554.0,23.574,-22.855,-61.151,-56.876
28563.0,23.574,-21.855,-55.151,-56.876
28573.0,23.574,-21.855,-55.151,-54.876
28583.0,25.574,-21.855,-51.151,-55.876
28593.0,24.574,-22.855,-51.151,-56.876
28603.0,27.574,-21.855,-50.151,-55.876
28613.0,26.574,-21.855,-49.151,-54.876
28623.0,25.574,-22.855,-50.151,-54.876
28633.0,25.574,-21.855,-52.151,-54.876
28643.0,24.574,-22.855,-52.151,-55.876
28652.0,25.574,-22.855,-56.151,-54.876
28662.0,22.574,-24.855,-55.151,-55.876
28672.0,25.574,-21.855,-53.151,-55.876
28682.0,24.574,-21.855,-56.151,-56.876
28692.0,25.574,-20.855,-57.151,-55.876
28702.0,26.574,-19.855,-58.151,-55.876
28712.0,25.574,-20.855,-59.151,-54.876
28722.0,25.574,-20.855,-59.151,-54.876
28732.0,26.574,-20.855,-60.151,-56.876
28741.0,26.574,-20.855,-61.151,-56.876
28751.0,25.574,-22.855,-62.151,-56.876
28761.0,25.574,-22.855,-62.151,-57.876
28771.0,25.574,-21.855,-62.151,-58.876
28781.0,25.574,-21.855,-61.151,-57.876
28791.0,26.574,-23.855,-64.151,-57.876
28801.0,26.574,-23.855,-63.151,-57.876
28811.0,22.574,-24.855,-61.151,-56.876
28821.0,22.574,-24.855,-61.151,-56.876
28830.0,21.574,-23.855,-61.151,-56.876
28840.0,21.574,-23.855,-61.151,-56.876
28850.0,17.574,-25.855,-61.151,-57.876
28860.0,17.574,-25.855,-61.151,-57.876
28870.0,16.574,-25.855,-61.151,-56.876
28880.0,16.574,-25.855,-61.151,-56.876
28890.0,16.574,-25.855,-63.151,-56.876
28900.0,12.574,-26.855,-63.151,-56.876
28909.0,13.574,-26.855,-63.151,-58.876
28919.0,11.574,-27.855,-63.151,-58.876
28929.0,10.574,-27.855,-69.151,-56.876
28939.0,8.574,-27.855,-69.151,-56.876
28949.0,7.574,-28.855,-68.151,-57.876
28959.0,6.574,-30.855,-68.151,-57.876
28969.0,4.574,-29.855,-70.151,-58.876
28979.0,4.574,-30.855,-70.151,-58.876
28989.0,2.574,-31.855,-75.151,-59.876
28998.0,2.574,-32.855,-75.151,-59.876
29008.0,-0.42598,-32.855,-76.151,-60.876
29018.0,-2.426,-31.855,-76.151,-60.876
29028.0,-1.426,-30.855,-80.151,-60.876
29038.0,-1.426,-29.855,-79.151,-60.876
29048.0,-2.426,-28.855,-80.151,-60.876
29058.0,-0.42598,-27.855,-81.151,-60.876
29068.0,1.574,-25.855,-83.151,-61.876
29078.0,3.574,-23.855,-86.151,-62.876
29087.0,5.574,-23.855,-87.151,-62.876
29097.0,9.574,-23.855,-85.151,-62.876
29107.0,13.574,-21.855,-82.151,-63.876
29117.0,16.574,-22.855,-79.151,-63.876
29127.0,23.574,-18.855,-73.151,-63.876
29137.0,25.574,-19.855,-72.151,-62.876
29147.0,27.574,-20.855,-66.151,-61.876
29157.0,29.574,-19.855,-64.151,-60.876
29167.0,30.574,-19.855,-61.151,-58.876
29176.0,30.574,-20.855,-59.151,-59.876
29186.0,31.574,-19.855,-53.151,-58.876
29196.0,31.574,-19.855,-51.151,-57.876
29206.0,31.574,-20.855,-49.151,-57.876
29216.0,32.574,-20.855,-50.151,-56.876
29226.0,32.574,-21.855,-47.151,-56.876
29236.0,31.574,-20.855,-49.151,-57.876
29246.0,30.574,-20.855,-49.151,-57.876
29255.0,29.574,-19.855,-51.151,-57.876
29265.0,30.574,-19.855,-52.151,-58.876
29275.0,29.574,-19.855,-53.151,-58.876
29285.0,29.574,-19.855,-55.151,-60.876
29295.0,30.574,-19.855,-55.151,-59.876
29305.0,30.574,-19.855,-56.151,-60.876
29315.0,28.574,-19.855,-55.151,-59.876
29325.0,29.574,-18.855,-59.151,-60.876
29335.0,30.574,-21.855,-61.151,-60.876
29344.0,29.574,-19.855,-64.151,-60.876
29354.0,29.574,-19.855,-64.151,-61.876
29364.0,29.574,-20.855,-66.151,-61.876
29374.0,29.574,-20.855,-65.151,-61.876
29384.0,28.574,-20.855,-66.151,-62.876
29394.0,29.574,-21.855,-66.151,-63.876
29404.0,27.574,-21.855,-65.151,-63.876
29414.0,27.574,-21.855,-67.151,-63.876
29424.0,26.574,-21.855,-66.151,-62.876
29433.0,24.574,-22.855,-66.151,-63.876
29443.0,23.574,-22.855,-65.151,-63.876
29453.0,23.574,-22.855,-65.151,-63.876
29463.0,19.574,-24.855,-65.151,-63.876
29473.0,19.574,-24.855,-66.151,-63.876
29483.0,19.574,-26.855,-66.151,-63.876
29493.0,19.574,-26.855,-65.151,-64.876
29503.0,14.574,-26.855,-68.151,-63.876
29513.0,14.574,-26.855,-67.151,-63.876
29522.0,13.574,-26.855,-70.151,-63.876
29532.0,13.574,-26.855,-69.151,-63.876
29542.0,10.574,-28.855,-71.151,-62.876
29552.0,10.574,-28.855,-71.151,-64.876
29562.0,6.574,-29.855,-73.151,-64.876
29572.0,6.574,-29.855,-75.151,-64.876
29582.0,4.574,-30.855,-75.151,-65.876
29592.0,4.574,-30.855,-78.151,-64.876
29601.0,2.574,-31.855,-80.151,-65.876
29611.0,1.574,-31.855,-80.151,-65.876
29621.0,1.574,-32.855,-83.151,-65.876
29631.0,0.57402,-33.855,-84.151,-66.876
29641.0,-2.426,-33.855,-84.151,-65.876
29651.0,-2.426,-32.855,-88.151,-67.876
29661.0,-6.426,-33.855,-86.151,-67.876
29671.0,-5.426,-33.855,-89.151,-67.876
29681.0,-6.426,-33.855,-89.151,-66.876
29690.0,-6.426,-32.855,-91.151,-67.876
29700.0,-6.426,-31.855,-93.151,-67.876
29710.0,-3.426,-29.855,-95.151,-69.876
29720.0,0.57402,-27.855,-93.151,-69.876
29730.0,3.574,-24.855,-91.151,-68.876
29740.0,7.574,-24.855,-87.151,-69.876
29750.0,10.574,-24.855,-88.151,-68.876
29760.0,14.574,-24.855,-84.151,-69.876
29770.0,15.574,-24.855,-81.151,-68.876
29779.0,18.574,-23.855,-79.151,-68.876
29789.0,20.574,-23.855,-75.151,-67.876
29799.0,22.574,-22.855,-71.151,-68.876
29809.0,23.574,-23.855,-68.151,-66.876
29819.0,24.574,-23.855,-65.151,-65.876
29829.0,24.574,-23.855,-64.151,-65.876
29839.0,24.574,-23.855,-62.151,-65.876
29849.0,23.574,-25.855,-61.151,-66.876
29859.0,22.574,-23.855,-61.151,-64.876
29868.0,21.574,-24.855,-61.151,-64.876
29878.0,20.574,-24.855,-63.151,-64.876
29888.0,20.574,-25.855,-63.151,-64.876
29898.0,21.574,-24.855,-66.151,-65.876
29908.0,19.574,-24.855,-66.151,-65.876
29918.0,20.574,-23.855,-68.151,-65.876
29928.0,18.574,-24.855,-68.151,-65.876
29938.0,18.574,-24.855,-69.151,-66.876
29947.0,20.574,-24.855,-69.151,-66.876
29957.0,17.574,-26.855,-72.151,-67.876
29967.0,19.574,-25.855,-72.151,-67.876
29977.0,19.574,-25.855,-75.151,-67.876
29987.0,18.574,-26.855,-75.151,-67.876
29997.0,18.574,-25.855,-76.151,-67.876
