t,lead_I,lead_II,v3,v4
0.0,-4920,-3384,14948,41240
2.0,-4824,-3544,14768,41021
4.0,-5117,-3897,14593,40813
6.0,-5448,-4326,14566,40788
8.0,-5337,-4440,14746,41004
10.0,-5111,-4153,15053,41350
12.0,-5291,-3774,15410,41738
14.0,-5586,-3490,15685,42043
16.0,-5450,-3238,15712,42079
18.0,-5046,-3056,15503,41843
20.0,-4787,-3083,15215,41514
22.0,-4699,-3308,14944,41210
24.0,-4733,-3639,14742,40981
26.0,-4918,-3984,14690,40916
28.0,-5157,-4192,14827,41065
30.0,-5407,-4152,15114,41378
32.0,-5617,-3878,15448,41741
34.0,-5492,-3459,15655,41989
36.0,-5048,-3106,15623,41991
38.0,-4855,-3043,15447,41801
40.0,-5005,-3177,15259,41565
42.0,-4934,-3248,15065,41334
44.0,-4656,-3294,14898,41141
46.0,-4748,-3493,14875,41089
48.0,-5173,-3751,15030,41240
50.0,-5479,-3873,15278,41522
52.0,-5580,-3806,15510,41783
54.0,-5434,-3540,15615,41884
56.0,-4954,-3155,15581,41834
58.0,-4507,-2938,15492,41731
60.0,-4429,-3056,15321,41548
62.0,-4488,-3323,15037,41250
64.0,-4616,-3522,14894,41093
66.0,-5084,-3646,15109,41301
68.0,-5604,-3712,15419,41633
70.0,-5611,-3672,15530,41781
72.0,-5315,-3512,15606,41878
74.0,-5204,-3237,15797,42072
76.0,-5129,-2896,15859,42137
78.0,-4857,-2663,15658,41936
80.0,-4682,-2730,15432,41696
82.0,-4821,-3084,15321,41559
84.0,-4977,-3479,15228,41443
86.0,-4924,-3657,15178,41386
88.0,-4910,-3627,15299,41522
90.0,-5177,-3601,15533,41786
92.0,-5444,-3599,15721,42011
94.0,-5287,-3381,15822,42148
96.0,-4829,-2927,15829,42174
98.0,-4549,-2582,15713,42049
100.0,-4580,-2583,15535,41852
102.0,-4708,-2824,15409,41714
104.0,-4821,-3107,15355,41649
106.0,-4920,-3310,15345,41627
108.0,-4966,-3383,15406,41695
110.0,-5016,-3359,15557,41875
112.0,-5141,-3236,15736,42095
114.0,-5135,-2966,15848,42247
116.0,-4823,-2660,15824,42247
118.0,-4512,-2517,15675,42094
120.0,-4539,-2507,15493,41900
122.0,-4671,-2505,15343,41749
124.0,-4607,-2605,15226,41644
126.0,-4614,-2879,15216,41649
128.0,-4941,-3095,15392,41853
130.0,-5213,-3033,15636,42137
132.0,-5140,-2764,15778,42318
134.0,-5059,-2443,15865,42431
136.0,-5149,-2163,15966,42536
138.0,-5024,-2022,15931,42484
140.0,-4634,-2061,15685,42219
142.0,-4548,-2220,15470,41997
144.0,-4936,-2441,15473,41996
146.0,-5269,-2666,15579,42090
148.0,-5243,-2761,15675,42175
150.0,-5053,-2666,15794,42296
152.0,-4816,-2503,15904,42407
154.0,-4519,-2372,15925,42422
156.0,-4296,-2218,15915,42411
158.0,-4211,-2050,15937,42432
160.0,-4198,-2022,15904,42385
162.0,-4390,-2194,15795,42246
164.0,-4887,-2431,15742,42164
166.0,-5328,-2588,15806,42208
168.0,-5345,-2625,15900,42292
170.0,-5143,-2546,15975,42369
172.0,-5085,-2422,16057,42468
174.0,-5138,-2385,16128,42566
176.0,-5117,-2444,16127,42587
178.0,-5030,-2474,16038,42503
180.0,-4967,-2454,15901,42348
182.0,-4953,-2517,15757,42177
184.0,-4982,-2693,15626,42032
186.0,-5046,-2842,15535,41942
188.0,-5133,-2878,15535,41941
190.0,-5232,-2852,15645,42060
192.0,-5282,-2809,15795,42238
194.0,-5227,-2730,15876,42341
196.0,-5134,-2629,15855,42310
198.0,-5069,-2543,15773,42198
200.0,-4930,-2476,15635,42040
202.0,-4696,-2449,15445,41843
204.0,-4650,-2567,15305,41701
206.0,-4902,-2868,15291,41685
208.0,-5065,-3149,15305,41705
210.0,-4937,-3166,15300,41715
212.0,-4911,-2967,15402,41837
214.0,-5170,-2784,15585,42034
216.0,-5263,-2688,15595,42050
218.0,-4983,-2614,15412,41866
220.0,-4748,-2624,15304,41744
222.0,-4792,-2796,15331,41751
224.0,-4867,-2978,15324,41737
226.0,-4913,-2971,15314,41732
228.0,-5155,-2844,15457,41875
230.0,-5501,-2779,15670,42089
232.0,-5548,-2751,15757,42188
234.0,-5300,-2644,15737,42179
236.0,-5230,-2527,15746,42189
238.0,-5453,-2532,15779,42218
240.0,-5467,-2608,15715,42151
242.0,-5057,-2636,15534,41962
244.0,-4772,-2666,15367,41788
246.0,-4995,-2794,15332,41752
248.0,-5299,-2928,15398,41824
250.0,-5225,-2888,15484,41927
252.0,-4959,-2673,15592,42059
254.0,-4858,-2453,15723,42210
256.0,-4954,-2377,15775,42274
258.0,-5086,-2487,15652,42159
260.0,-5074,-2699,15417,41915
262.0,-4878,-2822,15241,41710
264.0,-4791,-2754,15242,41679
266.0,-5056,-2649,15393,41812
268.0,-5368,-2684,15562,41972
270.0,-5308,-2766,15632,42041
272.0,-5045,-2716,15616,42025
274.0,-4977,-2584,15603,42001
276.0,-5056,-2529,15614,41993
278.0,-5053,-2560,15595,41960
280.0,-5034,-2633,15512,41874
282.0,-5107,-2760,15394,41760
284.0,-5137,-2871,15311,41681
286.0,-5031,-2837,15321,41698
288.0,-4918,-2715,15399,41785
290.0,-4909,-2685,15457,41849
292.0,-4971,-2720,15488,41872
294.0,-4977,-2658,15557,41928
296.0,-4817,-2541,15620,41988
298.0,-4661,-2536,15574,41950
300.0,-4857,-2621,15482,41866
302.0,-5252,-2664,15445,41837
304.0,-5198,-2691,15364,41768
306.0,-4655,-2759,15168,41582
308.0,-4368,-2788,15056,41470
310.0,-4596,-2761,15178,41582
312.0,-4821,-2803,15384,41772
314.0,-4868,-2876,15526,41903
316.0,-5042,-2789,15624,42000
318.0,-5195,-2607,15628,42003
320.0,-4981,-2586,15474,41836
322.0,-4716,-2703,15339,41687
324.0,-4861,-2735,15385,41738
326.0,-5172,-2719,15447,41821
328.0,-5283,-2843,15388,41774
330.0,-5383,-3040,15389,41764
332.0,-5594,-3092,15558,41921
334.0,-5554,-2968,15674,42040
336.0,-5154,-2821,15587,41966
338.0,-4853,-2771,15443,41828
340.0,-4915,-2820,15354,41741
342.0,-5105,-2906,15266,41654
344.0,-5207,-2983,15186,41574
346.0,-5247,-3049,15208,41588
348.0,-5260,-3094,15306,41680
350.0,-5241,-3049,15385,41759
352.0,-5180,-2889,15451,41827
354.0,-5071,-2707,15546,41923
356.0,-5010,-2595,15635,42017
358.0,-5090,-2500,15687,42077
360.0,-5157,-2326,15731,42116
362.0,-5008,-2133,15759,42113
364.0,-4781,-2087,15714,42031
366.0,-4755,-2210,15631,41936
368.0,-4913,-2355,15616,41936
370.0,-5046,-2426,15672,42006
372.0,-5117,-2458,15695,42038
374.0,-5185,-2466,15659,42011
376.0,-5152,-2374,15632,41978
378.0,-4942,-2163,15646,41969
380.0,-4818,-1969,15695,42005
382.0,-5064,-1934,15800,42120
384.0,-5393,-2000,15920,42252
386.0,-5271,-1969,15942,42282
388.0,-4854,-1791,15880,42236
390.0,-4803,-1656,15874,42252
392.0,-5114,-1722,15904,42292
394.0,-5130,-1900,15813,42199
396.0,-4772,-1988,15663,42047
398.0,-4596,-1926,15658,42045
400.0,-4653,-1822,15734,42131
402.0,-4522,-1796,15687,42091
404.0,-4342,-1890,15591,41995
406.0,-4578,-2071,15643,42044
408.0,-5017,-2234,15780,42185
410.0,-5092,-2291,15830,42243
412.0,-4836,-2262,15784,42196
414.0,-4650,-2207,15711,42112
416.0,-4603,-2149,15655,42053
418.0,-4612,-2183,15660,42062
420.0,-4774,-2458,15659,42060
422.0,-5096,-2877,15509,41910
424.0,-5373,-3121,15272,41682
426.0,-5490,-3121,15158,41576
428.0,-5488,-3117,15167,41580
430.0,-5390,-3204,15145,41548
432.0,-5257,-3264,15089,41485
434.0,-5193,-3315,15057,41444
436.0,-5169,-3456,14970,41342
438.0,-5102,-3568,14804,41164
440.0,-5038,-3507,14726,41077
442.0,-5069,-3433,14799,41144
444.0,-5211,-3533,14861,41198
446.0,-5408,-3649,14818,41151
448.0,-5465,-3561,14777,41123
450.0,-5238,-3400,14798,41182
452.0,-5016,-3418,14834,41253
454.0,-5171,-3563,14880,41303
456.0,-5448,-3624,14931,41341
458.0,-5379,-3578,14899,41303
460.0,-5119,-3541,14779,41183
462.0,-5058,-3539,14702,41113
464.0,-5078,-3527,14700,41134
466.0,-4973,-3494,14674,41132
468.0,-4913,-3490,14619,41081
470.0,-4971,-3580,14611,41067
472.0,-4920,-3796,14615,41066
474.0,-4773,-4077,14584,40991
476.0,-4735,-4313,14603,40886
478.0,-4687,-4432,14736,40836
480.0,-4442,-4400,14927,40849
482.0,-4225,-4173,15208,41002
484.0,-4266,-3730,15720,41456
486.0,-4394,-3187,16456,42207
488.0,-4455,-2684,17271,43102
490.0,-4512,-2125,18052,44096
492.0,-4451,-1270,18679,45186
494.0,-4111,-173,18976,46210
496.0,-3765,824,18916,47016
498.0,-3767,1572,18614,47633
500.0,-3994,2202,18094,48069
502.0,-4152,2765,17356,48217
504.0,-4215,3163,16507,48020
506.0,-4328,3367,15538,47457
508.0,-4703,3464,14302,46450
510.0,-5536,3551,12901,45084
512.0,-6674,3613,11678,43680
514.0,-7651,3445,10756,42456
516.0,-8145,2835,10052,41408
518.0,-8114,1933,9661,40571
520.0,-7676,1120,9755,40075
522.0,-7174,510,10233,39911
524.0,-6917,-54,10841,39925
526.0,-6787,-630,11450,40013
528.0,-6536,-1173,12018,40147
530.0,-6268,-1705,12495,40297
532.0,-6176,-2156,12933,40475
534.0,-6156,-2371,13423,40710
536.0,-6033,-2442,13876,40914
538.0,-5820,-2623,14126,40963
540.0,-5621,-2909,14227,40912
542.0,-5521,-3167,14337,40898
544.0,-5547,-3455,14449,40918
546.0,-5594,-3760,14510,40938
548.0,-5499,-3827,14599,41025
550.0,-5263,-3653,14719,41142
552.0,-5039,-3598,14730,41126
554.0,-4941,-3737,14654,41014
556.0,-4955,-3740,14682,41018
558.0,-4973,-3550,14810,41134
560.0,-4889,-3473,14847,41155
562.0,-4787,-3599,14777,41067
564.0,-4923,-3739,14768,41049
566.0,-5290,-3817,14863,41142
568.0,-5502,-3832,14926,41203
570.0,-5408,-3725,14900,41164
572.0,-5286,-3599,14867,41114
574.0,-5192,-3702,14864,41104
576.0,-4951,-3970,14843,41091
578.0,-4854,-4041,14854,41103
580.0,-5231,-3831,14974,41200
582.0,-5551,-3649,15067,41259
584.0,-5212,-3688,14959,41125
586.0,-4692,-3830,14778,40935
588.0,-4713,-3934,14766,40930
590.0,-5118,-4004,14900,41084
592.0,-5427,-4053,15025,41225
594.0,-5546,-4048,15096,41297
596.0,-5470,-3961,15105,41301
598.0,-5196,-3817,15048,41244
600.0,-4984,-3687,15008,41209
602.0,-5033,-3635,15042,41239
604.0,-5184,-3643,15072,41253
606.0,-5234,-3632,15057,41226
608.0,-5177,-3573,15048,41227
610.0,-5051,-3521,15038,41240
612.0,-4887,-3510,14979,41202
614.0,-4776,-3519,14943,41187
616.0,-4792,-3557,15025,41283
618.0,-4891,-3652,15146,41391
620.0,-4927,-3748,15160,41373
622.0,-4822,-3739,15090,41288
624.0,-4707,-3640,15062,41269
626.0,-4746,-3578,15092,41305
628.0,-4879,-3618,15098,41305
630.0,-4955,-3697,15083,41289
632.0,-4971,-3714,15116,41324
634.0,-4975,-3654,15164,41360
636.0,-4927,-3605,15138,41317
638.0,-4836,-3603,15087,41263
640.0,-4816,-3558,15123,41312
642.0,-4877,-3458,15191,41390
644.0,-4913,-3463,15157,41366
646.0,-4925,-3613,15085,41305
648.0,-4959,-3699,15108,41329
650.0,-4870,-3617,15145,41355
652.0,-4587,-3520,15087,41287
654.0,-4433,-3490,15072,41271
656.0,-4642,-3425,15219,41416
658.0,-4881,-3334,15352,41539
660.0,-4859,-3361,15332,41508
662.0,-4789,-3463,15295,41469
664.0,-4754,-3443,15305,41487
666.0,-4472,-3324,15219,41410
668.0,-4097,-3338,15073,41264
670.0,-4211,-3496,15102,41292
672.0,-4799,-3547,15323,41521
674.0,-5221,-3403,15515,41723
676.0,-5189,-3259,15573,41781
678.0,-4971,-3243,15549,41758
680.0,-4812,-3277,15492,41712
682.0,-4738,-3271,15434,41666
684.0,-4725,-3205,15419,41650
686.0,-4769,-3079,15429,41658
688.0,-4854,-2978,15422,41658
690.0,-4923,-3047,15401,41649
692.0,-4887,-3253,15401,41660
694.0,-4752,-3357,15443,41718
696.0,-4619,-3218,15511,41812
698.0,-4507,-2990,15535,41862
700.0,-4376,-2890,15477,41816
702.0,-4311,-2890,15424,41768
704.0,-4409,-2833,15456,41815
706.0,-4575,-2735,15498,41881
708.0,-4638,-2736,15457,41860
710.0,-4579,-2830,15401,41820
712.0,-4508,-2876,15424,41852
714.0,-4492,-2815,15474,41892
716.0,-4496,-2704,15470,41874
718.0,-4476,-2608,15452,41867
720.0,-4460,-2551,15481,41926
722.0,-4478,-2513,15521,41975
724.0,-4499,-2481,15515,41952
726.0,-4499,-2519,15470,41905
728.0,-4521,-2632,15435,41895
730.0,-4598,-2666,15455,41931
732.0,-4640,-2545,15531,41993
734.0,-4502,-2433,15595,42034
736.0,-4212,-2447,15610,42040
738.0,-4058,-2467,15651,42076
740.0,-4211,-2418,15757,42171
742.0,-4432,-2392,15830,42231
744.0,-4443,-2391,15820,42219
746.0,-4355,-2315,15825,42229
748.0,-4364,-2221,15896,42296
750.0,-4398,-2231,15951,42337
752.0,-4321,-2289,15933,42305
754.0,-4162,-2287,15864,42230
756.0,-4040,-2278,15781,42139
758.0,-4131,-2349,15757,42101
760.0,-4536,-2462,15835,42175
762.0,-5008,-2557,15917,42267
764.0,-5156,-2617,15893,42253
766.0,-4987,-2622,15807,42172
768.0,-4820,-2598,15742,42114
770.0,-4754,-2638,15679,42059
772.0,-4697,-2730,15597,41979
774.0,-4668,-2765,15530,41914
776.0,-4675,-2755,15488,41875
778.0,-4606,-2830,15452,41823
780.0,-4516,-2984,15412,41763
782.0,-4609,-3075,15359,41722
784.0,-4835,-3055,15295,41692
786.0,-4940,-2992,15271,41675
788.0,-4893,-2921,15330,41716
790.0,-4816,-2827,15421,41812
792.0,-4697,-2749,15447,41866
794.0,-4553,-2768,15385,41819
796.0,-4559,-2861,15316,41748
798.0,-4693,-2902,15310,41735
800.0,-4681,-2840,15338,41746
802.0,-4520,-2782,15334,41724
804.0,-4556,-2842,15317,41713
806.0,-4881,-2973,15345,41765
808.0,-5130,-3041,15389,41818
810.0,-5025,-3009,15371,41795
812.0,-4772,-2968,15312,41743
814.0,-4770,-2989,15319,41760
816.0,-5061,-3011,15395,41827
818.0,-5239,-2952,15400,41831
820.0,-4994,-2872,15290,41742
822.0,-4588,-2927,15194,41654
824.0,-4504,-3138,15192,41630
826.0,-4774,-3304,15228,41654
828.0,-5034,-3240,15292,41732
830.0,-5047,-3025,15399,41853
832.0,-4858,-2889,15461,41915
834.0,-4651,-2870,15434,41895
836.0,-4616,-2804,15441,41913
838.0,-4724,-2655,15511,41980
840.0,-4714,-2581,15501,41957
842.0,-4546,-2655,15409,41859
844.0,-4509,-2784,15388,41834
846.0,-4642,-2875,15420,41842
848.0,-4671,-2898,15385,41775
850.0,-4613,-2877,15334,41715
852.0,-4740,-2902,15346,41748
854.0,-4939,-3022,15340,41761
856.0,-4873,-3114,15290,41710
858.0,-4640,-3047,15310,41724
860.0,-4601,-2877,15417,41838
862.0,-4747,-2749,15498,41929
864.0,-4795,-2705,15507,41938
866.0,-4711,-2735,15473,41900
868.0,-4709,-2849,15414,41842
870.0,-4835,-2975,15379,41808
872.0,-4899,-2984,15409,41824
874.0,-4848,-2901,15429,41827
876.0,-4848,-2899,15368,41772
878.0,-4919,-2992,15288,41716
880.0,-4859,-3017,15265,41702
882.0,-4680,-2969,15273,41696
884.0,-4662,-2995,15277,41684
886.0,-4837,-3086,15290,41689
888.0,-4914,-3105,15286,41682
890.0,-4822,-3046,15251,41657
892.0,-4787,-2990,15255,41679
894.0,-4833,-2954,15322,41751
896.0,-4763,-2951,15360,41775
898.0,-4602,-2997,15328,41734
900.0,-4516,-3027,15292,41697
902.0,-4450,-2978,15260,41665
904.0,-4337,-2900,15203,41610
906.0,-4383,-2892,15174,41585
908.0,-4680,-3010,15196,41607
910.0,-4952,-3198,15197,41603
912.0,-5002,-3261,15192,41601
914.0,-4944,-3094,15276,41697
916.0,-4864,-2912,15368,41798
918.0,-4764,-2990,15302,41730
920.0,-4774,-3231,15149,41567
922.0,-4916,-3321,15116,41526
924.0,-4937,-3208,15206,41618
926.0,-4773,-3098,15274,41680
928.0,-4716,-3075,15278,41660
930.0,-4851,-3052,15270,41633
932.0,-4866,-2987,15284,41647
934.0,-4666,-2908,15321,41690
936.0,-4570,-2835,15362,41738
938.0,-4720,-2780,15388,41781
940.0,-4863,-2737,15425,41826
942.0,-4810,-2690,15478,41854
944.0,-4638,-2658,15504,41844
946.0,-4456,-2660,15511,41848
948.0,-4342,-2638,15559,41913
950.0,-4389,-2592,15605,41953
952.0,-4584,-2604,15591,41909
954.0,-4822,-2653,15614,41909
956.0,-5043,-2649,15737,42026
958.0,-5139,-2641,15805,42090
960.0,-4987,-2681,15735,42010
962.0,-4781,-2657,15708,41973
964.0,-4824,-2532,15825,42087
966.0,-4942,-2420,15909,42179
968.0,-4797,-2329,15850,42137
970.0,-4612,-2210,15794,42089
972.0,-4747,-2157,15833,42128
974.0,-4931,-2192,15852,42166
976.0,-4795,-2169,15793,42150
978.0,-4615,-2103,15759,42143
980.0,-4714,-2128,15791,42167
982.0,-4821,-2139,15796,42154
984.0,-4666,-2007,15752,42102
986.0,-4468,-1928,15759,42103
988.0,-4410,-2034,15822,42160
990.0,-4357,-2079,15815,42159
992.0,-4293,-1943,15730,42079
994.0,-4341,-1953,15688,42028
996.0,-4390,-2304,15720,42043
998.0,-4310,-2674,15766,42070
1000.0,-4303,-2741,15836,42119
1002.0,-4528,-2676,15905,42179
1004.0,-4753,-2803,15838,42127
1006.0,-4786,-3063,15621,41924
1008.0,-4767,-3181,15428,41725
1010.0,-4790,-3148,15344,41639
1012.0,-4748,-3185,15276,41597
1014.0,-4647,-3312,15181,41534
1016.0,-4651,-3353,15124,41485
1018.0,-4770,-3320,15111,41460
1020.0,-4834,-3394,15071,41411
1022.0,-4769,-3537,15006,41337
1024.0,-4726,-3552,14986,41295
1026.0,-4845,-3479,15009,41287
1028.0,-5000,-3503,14992,41265
1030.0,-4981,-3578,14929,41226
1032.0,-4836,-3570,14893,41210
1034.0,-4763,-3571,14894,41196
1036.0,-4790,-3695,14885,41168
1038.0,-4820,-3814,14886,41175
1040.0,-4819,-3797,14926,41229
1042.0,-4802,-3709,14958,41255
1044.0,-4792,-3634,14959,41241
1046.0,-4787,-3585,14967,41250
1048.0,-4711,-3597,14975,41266
1050.0,-4563,-3678,14926,41216
1052.0,-4453,-3764,14818,41107
1054.0,-4356,-3835,14696,40999
1056.0,-4239,-3929,14619,40936
1058.0,-4372,-4082,14641,40941
1060.0,-4837,-4328,14721,40960
1062.0,-5114,-4619,14755,40891
1064.0,-4882,-4776,14753,40760
1066.0,-4597,-4728,14856,40723
1068.0,-4607,-4601,15151,40896
1070.0,-4593,-4401,15622,41301
1072.0,-4355,-3934,16244,41930
1074.0,-4161,-3172,16991,42743
1076.0,-4093,-2327,17771,43680
1078.0,-3921,-1534,18398,44686
1080.0,-3670,-782,18702,45664
1082.0,-3542,-31,18697,46505
1084.0,-3434,771,18493,47187
1086.0,-3209,1615,18092,47718
1088.0,-3167,2322,17477,48037
1090.0,-3601,2760,16746,48040
1091.98,-4208,3043,15887,47622
1093.95,-4626,3315,14711,46706
1095.93,-5153,3507,13266,45369
1097.9,-6150,3475,11914,43883
1099.9,-7205,3162,10864,42513
1101.9,-7695,2556,10081,41384
1103.9,-7693,1720,9639,40565
1105.9,-7585,884,9699,40109
1107.9,-7338,278,10180,39969
1109.9,-6827,-144,10808,40002
1111.9,-6337,-629,11404,40072
1113.9,-6153,-1269,11925,40135
1115.9,-6114,-1900,12365,40208
1117.9,-6005,-2364,12754,40319
1119.9,-5899,-2685,13162,40476
1121.9,-5824,-2917,13598,40668
1123.9,-5574,-3042,13978,40837
1125.9,-5144,-3095,14242,40930
1127.9,-4852,-3201,14426,40975
1129.9,-4831,-3406,14567,41020
1131.9,-4928,-3629,14639,41049
1133.9,-5088,-3775,14662,41057
1135.9,-5263,-3782,14716,41102
1137.9,-5201,-3678,14789,41178
1139.9,-4895,-3647,14813,41208
1141.9,-4754,-3813,14810,41191
1143.9,-4828,-3987,14819,41157
1145.9,-4652,-3933,14771,41058
1147.9,-4198,-3793,14645,40904
1149.9,-4073,-3833,14590,40852
1151.9,-4516,-3989,14715,40989
1153.9,-5065,-4065,14911,41178
1155.9,-5287,-4083,15010,41255
1157.9,-5158,-4088,14989,41222
1159.9,-4837,-3983,14941,41164
1161.9,-4558,-3822,14918,41125
1163.9,-4552,-3836,14906,41099
1165.9,-4785,-4029,14906,41089
1167.9,-4981,-4163,14939,41102
1169.9,-4963,-4146,14966,41114
1171.9,-4799,-4078,14931,41093
1173.9,-4652,-4017,14885,41070
1175.9,-4615,-3967,14928,41115
1177.9,-4648,-3944,15045,41217
1179.9,-4666,-3909,15116,41278
1181.9,-4653,-3838,15098,41249
1183.9,-4637,-3820,15068,41200
1185.9,-4605,-3884,15080,41192
1187.9,-4553,-3897,15089,41187
1189.9,-4540,-3829,15050,41141
1191.9,-4602,-3843,15009,41102
1193.9,-4711,-3982,15021,41131
1195.9,-4801,-4058,15066,41199
1197.9,-4790,-3972,15100,41246
1199.9,-4640,-3816,15124,41264
1201.9,-4447,-3690,15134,41256
1203.9,-4373,-3623,15105,41211
1205.9,-4476,-3635,15059,41160
1207.9,-4596,-3731,15037,41138
1209.9,-4497,-3871,15013,41118
1211.9,-4233,-3991,14967,41082
1213.9,-4150,-4027,14963,41098
1215.9,-4357,-3993,15030,41189
1217.9,-4570,-3961,15109,41280
1219.9,-4651,-3937,15159,41327
1221.9,-4743,-3893,15186,41340
1223.9,-4852,-3889,15181,41324
1225.9,-4898,-3957,15187,41324
1227.9,-4954,-3964,15256,41386
1229.9,-4985,-3818,15318,41441
1231.9,-4823,-3619,15301,41423
1233.9,-4547,-3473,15289,41411
1235.9,-4314,-3382,15318,41440
1237.9,-4060,-3371,15274,41400
1239.9,-3875,-3497,15170,41296
1241.9,-4011,-3676,15159,41276
1243.9,-4307,-3739,15225,41338
1245.9,-4467,-3677,15245,41373
1247.9,-4664,-3642,15273,41412
1249.9,-4979,-3661,15394,41520
1251.9,-4944,-3582,15495,41601
1253.9,-4462,-3388,15466,41577
1255.9,-4192,-3284,15404,41542
1257.9,-4387,-3348,15419,41571
1259.9,-4463,-3386,15440,41590
1261.9,-4161,-3282,15396,41550
1263.9,-4015,-3182,15380,41550
1265.9,-4302,-3210,15463,41642
1267.9,-4542,-3299,15519,41699
1269.9,-4422,-3354,15450,41641
1271.9,-4283,-3365,15387,41595
1273.9,-4376,-3333,15440,41660
1275.9,-4448,-3250,15487,41717
1277.9,-4351,-3168,15430,41677
1279.9,-4298,-3173,15385,41646
1281.9,-4326,-3247,15437,41703
1283.9,-4217,-3262,15491,41769
1285.9,-4016,-3154,15483,41781
1287.9,-3977,-3011,15466,41785
1289.9,-4066,-2930,15466,41802
1291.9,-4084,-2914,15448,41797
1293.9,-4083,-2942,15410,41770
1295.9,-4196,-2993,15377,41751
1297.9,-4277,-2996,15360,41747
1299.9,-4157,-2924,15357,41749
1301.9,-4025,-2868,15369,41762
1303.9,-4123,-2894,15394,41788
1305.9,-4315,-2928,15417,41811
1307.9,-4317,-2918,15393,41789
1309.9,-4170,-2921,15286,41703
1311.9,-4111,-2940,15189,41635
1313.9,-4189,-2870,15267,41712
1315.9,-4265,-2693,15501,41915
1317.9,-4247,-2537,15674,42079
1319.9,-4205,-2490,15713,42140
1321.9,-4243,-2502,15756,42198
1323.9,-4263,-2500,15838,42269
1325.9,-4043,-2486,15818,42234
1327.9,-3741,-2495,15716,42114
1329.9,-3829,-2527,15726,42096
1331.9,-4283,-2559,15858,42211
1333.9,-4508,-2588,15924,42285
1335.9,-4290,-2624,15873,42232
1337.9,-4034,-2652,15797,42131
1339.9,-4003,-2674,15727,42045
1341.9,-4141,-2751,15702,42024
1343.9,-4379,-2881,15808,42119
1345.9,-4497,-2916,15966,42247
1347.9,-4289,-2790,15980,42243
1349.9,-4091,-2687,15866,42121
1351.9,-4270,-2764,15796,42033
1353.9,-4451,-2896,15776,42004
1355.9,-4243,-2933,15721,41969
1357.9,-4050,-2933,15667,41944
1359.9,-4192,-2943,15667,41957
1361.9,-4249,-2880,15663,41950
1363.9,-4017,-2755,15608,41889
1365.9,-3939,-2712,15533,41816
1367.9,-4176,-2813,15482,41770
1369.9,-4387,-2990,15476,41751
1371.9,-4437,-3160,15482,41729
1373.9,-4437,-3257,15418,41659
1375.9,-4389,-3286,15303,41557
1377.9,-4356,-3307,15272,41520
1379.9,-4485,-3288,15343,41565
1381.9,-4645,-3174,15367,41575
1383.9,-4570,-3083,15309,41507
1385.9,-4340,-3131,15304,41486
1387.9,-4246,-3194,15396,41584
1389.9,-4327,-3149,15474,41693
1391.9,-4384,-3117,15463,41692
1393.9,-4313,-3200,15393,41606
1395.9,-4228,-3288,15324,41542
1397.9,-4271,-3286,15323,41573
1399.9,-4341,-3239,15395,41661
1401.9,-4230,-3182,15437,41702
1403.9,-4071,-3141,15393,41675
1405.9,-4233,-3183,15367,41681
1407.9,-4636,-3281,15424,41754
1409.9,-4780,-3274,15460,41787
1411.9,-4601,-3140,15414,41740
1413.9,-4575,-3069,15402,41732
1415.9,-4802,-3129,15482,41800
1417.9,-4770,-3158,15516,41807
1419.9,-4294,-3098,15417,41689
1421.9,-3947,-3090,15315,41594
1423.9,-4149,-3160,15345,41638
1425.9,-4490,-3155,15434,41728
1427.9,-4456,-3047,15460,41754
1429.9,-4227,-2976,15449,41755
1431.9,-4210,-3010,15455,41764
1433.9,-4336,-3086,15426,41722
1435.9,-4344,-3130,15355,41646
1437.9,-4297,-3112,15341,41651
1439.9,-4324,-3069,15397,41724
1441.9,-4315,-3075,15411,41733
1443.9,-4256,-3134,15371,41675
1445.9,-4358,-3189,15381,41665
1447.9,-4554,-3230,15414,41675
1449.9,-4478,-3255,15337,41588
1451.9,-4152,-3204,15196,41467
1453.9,-3981,-3057,15171,41486
1455.9,-4020,-2920,15258,41611
1457.9,-4020,-2897,15293,41676
1459.9,-4079,-2947,15286,41691
1461.9,-4408,-2962,15383,41789
1463.9,-4719,-2959,15525,41908
1465.9,-4654,-3038,15508,41866
1467.9,-4412,-3147,15366,41716
1469.9,-4309,-3114,15323,41676
1471.9,-4272,-2982,15389,41747
1473.9,-4184,-2975,15381,41736
1475.9,-4151,-3100,15275,41613
1477.9,-4197,-3186,15213,41524
1479.9,-4190,-3218,15220,41522
1481.9,-4132,-3250,15210,41539
1483.9,-4164,-3208,15190,41570
1485.9,-4312,-3093,15226,41642
1487.9,-4463,-3065,15289,41693
1489.9,-4534,-3161,15292,41650
1491.9,-4535,-3263,15237,41559
1493.9,-4477,-3316,15203,41526
1495.9,-4308,-3299,15201,41552
1497.9,-4050,-3190,15175,41541
1499.9,-3900,-3114,15126,41480
1501.9,-4022,-3221,15124,41452
1503.9,-4273,-3401,15155,41462
1505.9,-4341,-3452,15120,41408
1507.9,-4224,-3393,15050,41315
1509.9,-4271,-3331,15108,41365
1511.9,-4569,-3250,15287,41568
1513.9,-4691,-3136,15365,41675
1515.9,-4441,-3073,15285,41593
1517.9,-4285,-3077,15265,41546
1519.9,-4488,-3064,15391,41659
1521.9,-4584,-3005,15471,41746
1523.9,-4287,-2939,15424,41694
1525.9,-4024,-2866,15414,41663
1527.9,-4074,-2775,15505,41740
1529.9,-4141,-2703,15557,41785
1531.9,-4058,-2657,15506,41722
1533.9,-4031,-2592,15432,41639
1535.9,-4140,-2550,15401,41618
1537.9,-4254,-2638,15445,41674
1539.9,-4303,-2837,15552,41775
1541.9,-4257,-2996,15601,41812
1543.9,-4130,-3020,15519,41722
1545.9,-4087,-2892,15450,41646
1547.9,-4239,-2619,15543,41730
1549.9,-4421,-2348,15698,41876
1551.9,-4466,-2289,15756,41934
1553.9,-4400,-2377,15757,41956
1555.9,-4248,-2325,15787,42023
1557.9,-4037,-2128,15805,42072
1559.9,-3994,-2061,15782,42064
1561.9,-4258,-2185,15781,42068
1563.9,-4562,-2306,15805,42068
1565.9,-4624,-2351,15783,41997
1567.9,-4500,-2362,15726,41921
1569.9,-4282,-2287,15712,41947
1571.9,-3998,-2127,15740,42015
1573.9,-3859,-2064,15748,42019
1575.9,-3911,-2185,15704,41963
1577.9,-3777,-2322,15627,41891
1579.9,-3431,-2356,15579,41844
1581.9,-3438,-2383,15606,41864
1583.9,-3851,-2482,15657,41921
1585.9,-4037,-2584,15653,41927
1587.9,-3915,-2660,15599,41885
1589.9,-3970,-2807,15523,41826
1591.9,-4148,-3047,15395,41691
1593.9,-4126,-3235,15226,41483
1595.9,-4192,-3296,15111,41347
1597.9,-4631,-3383,15072,41336
1599.9,-5008,-3630,15023,41319
1601.9,-4907,-3859,14923,41219
1603.9,-4565,-3820,14841,41127
1605.9,-4346,-3625,14837,41114
1607.9,-4296,-3582,14884,41138
1609.9,-4311,-3654,14894,41125
1611.9,-4303,-3600,14817,41056
1613.9,-4289,-3501,14713,40982
1615.9,-4389,-3603,14676,40976
1617.9,-4548,-3796,14711,41032
1619.9,-4502,-3814,14733,41062
1621.9,-4221,-3724,14713,41030
1623.9,-4038,-3720,14710,41002
1625.9,-4144,-3771,14740,41007
1627.9,-4319,-3781,14716,40973
1629.9,-4334,-3784,14613,40891
1631.9,-4280,-3778,14566,40883
1633.9,-4336,-3720,14652,40987
1635.9,-4454,-3688,14724,41048
1637.9,-4491,-3779,14659,40981
1639.9,-4438,-3949,14572,40920
1641.9,-4357,-4140,14579,40938
1643.9,-4186,-4365,14581,40890
1645.9,-3826,-4569,14481,40679
1647.9,-3452,-4651,14411,40460
1649.9,-3461,-4618,14569,40455
1651.9,-3858,-4492,14980,40744
1653.9,-4095,-4202,15532,41267
1655.9,-3914,-3749,16158,41957
1657.9,-3745,-3224,16884,42800
1659.9,-3813,-2550,17698,43799
1661.9,-3716,-1573,18407,44894
1663.9,-3335,-454,18742,45925
1665.9,-3144,447,18647,46738
1667.9,-3340,1058,18320,47330
1669.9,-3554,1574,17884,47780
1671.9,-3500,2106,17247,48011
1673.9,-3319,2595,16368,47829
1675.9,-3407,2956,15363,47187
1677.9,-4099,3139,14226,46164
1679.9,-5280,3174,12841,44779
1681.9,-6433,3109,11368,43141
1683.9,-7192,2852,10190,41606
1685.9,-7527,2265,9450,40468
1687.9,-7478,1442,9068,39717
1689.9,-7178,649,9104,39277
1691.9,-6903,7,9612,39151
1693.9,-6717,-576,10336,39240
1695.9,-6396,-1168,10965,39367
1697.9,-5888,-1685,11475,39498
1699.9,-5433,-2037,11950,39681
1701.9,-5166,-2305,12388,39877
1703.9,-5013,-2628,12792,40043
1705.9,-4941,-2990,13212,40222
1707.9,-4943,-3271,13613,40410
1709.9,-4843,-3443,13887,40505
1711.9,-4525,-3571,14014,40479
1713.9,-4238,-3688,14100,40460
1715.9,-4241,-3779,14252,40570
1717.9,-4312,-3808,14435,40737
1719.9,-4135,-3775,14516,40793
1721.9,-3932,-3754,14495,40741
1723.9,-4083,-3793,14555,40778
1725.9,-4394,-3804,14747,40953
1727.9,-4355,-3741,14839,41038
1729.9,-3953,-3748,14685,40881
1731.9,-3694,-3921,14510,40683
1733.9,-3899,-4087,14571,40705
1735.9,-4315,-4073,14759,40873
1737.9,-4507,-3971,14817,40938
1739.9,-4383,-3958,14736,40863
1741.9,-4157,-4006,14676,40795
1743.9,-4013,-3996,14685,40795
1745.9,-4033,-3939,14728,40827
1747.9,-4235,-3911,14803,40885
1749.9,-4489,-3913,14879,40955
1751.9,-4606,-3921,14871,40965
1753.9,-4514,-3961,14766,40881
1755.9,-4230,-4020,14642,40760
1757.9,-3900,-4010,14579,40694
1759.9,-3870,-3925,14626,40745
1761.9,-4222,-3870,14757,40890
1763.9,-4459,-3895,14837,40990
1765.9,-4214,-3914,14782,40956
1767.9,-3858,-3862,14706,40878
1769.9,-3852,-3796,14741,40883
1771.9,-4039,-3798,14821,40937
1773.9,-4094,-3854,14832,40946
1775.9,-4057,-3880,14797,40920
1777.9,-4036,-3840,14787,40912
1779.9,-3962,-3773,14809,40935
1781.9,-3877,-3742,14848,40974
1783.9,-3941,-3757,14881,40992
1785.9,-4068,-3749,14857,40949
1787.9,-4045,-3712,14790,40868
1789.9,-3969,-3766,14763,40832
1791.9,-4097,-3918,14810,40877
1793.9,-4347,-3964,14874,40957
1795.9,-4389,-3818,14891,41003
1797.9,-4176,-3675,14855,40990
1799.9,-3978,-3651,14825,40971
1801.9,-3948,-3644,14863,41012
1803.9,-3951,-3623,14934,41079
1805.9,-3868,-3646,14946,41092
1807.9,-3796,-3638,14924,41070
1809.9,-3833,-3524,14961,41082
1811.9,-3901,-3411,15014,41091
1813.9,-3945,-3381,14987,41037
1815.9,-4050,-3386,14947,40996
1817.9,-4159,-3437,15003,41059
1819.9,-4011,-3553,15064,41152
1821.9,-3629,-3594,15000,41149
1823.9,-3430,-3487,14911,41083
1825.9,-3599,-3403,14959,41082
1827.9,-3814,-3451,15084,41159
1829.9,-3804,-3513,15118,41211
1831.9,-3700,-3519,15058,41185
1833.9,-3701,-3531,15014,41139
1835.9,-3794,-3530,15019,41130
1837.9,-3860,-3464,15034,41147
1839.9,-3800,-3397,15051,41157
1841.9,-3623,-3363,15083,41158
1843.9,-3479,-3304,15117,41169
1845.9,-3510,-3263,15146,41203
1847.9,-3685,-3304,15187,41255
1849.9,-3821,-3287,15246,41310
1851.9,-3754,-3102,15287,41341
1853.9,-3565,-2974,15260,41322
1855.9,-3545,-3107,15177,41277
1857.9,-3765,-3297,15117,41272
1859.9,-3883,-3299,15125,41327
1861.9,-3706,-3212,15165,41385
1863.9,-3517,-3167,15194,41406
1865.9,-3527,-3069,15197,41398
1867.9,-3555,-2882,15178,41383
1869.9,-3486,-2771,15162,41382
1871.9,-3392,-2777,15146,41389
1873.9,-3189,-2758,15059,41343
1875.9,-2901,-2676,14935,41258
1877.9,-2963,-2635,14962,41285
1879.9,-3476,-2651,15150,41445
1881.9,-3788,-2661,15234,41520
1883.9,-3575,-2675,15130,41440
1885.9,-3405,-2709,15071,41416
1887.9,-3609,-2694,15128,41511
1889.9,-3780,-2605,15124,41535
1891.9,-3779,-2551,15074,41489
1893.9,-3932,-2587,15146,41561
1895.9,-4135,-2594,15252,41690
1897.9,-4004,-2478,15216,41662
1899.9,-3694,-2328,15145,41550
1901.9,-3555,-2244,15225,41584
1903.9,-3490,-2213,15378,41732
1905.9,-3358,-2223,15441,41781
1907.9,-3328,-2289,15418,41702
1909.9,-3456,-2343,15392,41639
1911.9,-3543,-2342,15392,41647
1913.9,-3516,-2361,15414,41664
1915.9,-3449,-2403,15442,41658
1917.9,-3385,-2348,15457,41665
1919.9,-3379,-2242,15476,41705
1921.9,-3442,-2272,15538,41773
1923.9,-3461,-2400,15629,41853
1925.9,-3429,-2426,15685,41911
1927.9,-3525,-2385,15665,41896
1929.9,-3734,-2458,15578,41798
1931.9,-3815,-2595,15461,41675
1933.9,-3758,-2623,15392,41600
1935.9,-3767,-2569,15433,41608
1937.9,-3807,-2579,15518,41652
1939.9,-3724,-2680,15504,41643
1941.9,-3649,-2787,15393,41576
1943.9,-3755,-2842,15326,41542
1945.9,-3856,-2836,15345,41567
1947.9,-3716,-2796,15339,41558
1949.9,-3515,-2750,15271,41481
1951.9,-3550,-2686,15228,41419
1953.9,-3717,-2605,15225,41392
1955.9,-3692,-2592,15180,41323
1957.9,-3501,-2712,15110,41224
1959.9,-3482,-2879,15129,41204
1961.9,-3719,-2973,15222,41261
1963.9,-3930,-2989,15257,41290
1965.9,-3929,-2966,15227,41284
1967.9,-3800,-2879,15226,41305
1969.9,-3675,-2746,15242,41312
1971.9,-3658,-2696,15205,41251
1973.9,-3835,-2787,15167,41206
1975.9,-4150,-2910,15211,41272
1977.9,-4403,-2978,15287,41391
1979.9,-4450,-3019,15300,41460
1981.9,-4302,-3031,15246,41464
1983.9,-4108,-2957,15181,41438
1985.9,-4034,-2854,15169,41422
1987.9,-4056,-2837,15231,41440
1989.9,-4014,-2870,15294,41459
1991.9,-3928,-2853,15279,41420
1993.9,-3946,-2827,15218,41339
1995.9,-4011,-2850,15192,41288
1997.9,-3963,-2845,15202,41297
1999.9,-3860,-2767,15219,41333
2001.9,-3865,-2718,15242,41358
2003.9,-3946,-2752,15258,41356
2005.9,-3939,-2802,15238,41332
2007.9,-3809,-2838,15200,41307
2009.9,-3701,-2883,15190,41318
2011.9,-3737,-2893,15231,41382
2013.9,-3861,-2846,15285,41439
2015.9,-3917,-2826,15262,41390
2017.9,-3846,-2874,15137,41250
2019.9,-3742,-2907,15051,41176
2021.9,-3722,-2866,15141,41257
2023.9,-3787,-2796,15311,41387
2025.9,-3862,-2748,15364,41421
2027.9,-3944,-2746,15294,41363
2029.9,-4047,-2815,15220,41303
2031.9,-4043,-2904,15176,41276
2033.9,-3826,-2880,15145,41269
2035.9,-3564,-2724,15171,41284
2037.9,-3486,-2592,15243,41299
2039.9,-3566,-2606,15269,41279
2041.9,-3657,-2697,15244,41255
2043.9,-3716,-2750,15255,41288
2045.9,-3755,-2761,15289,41337
2047.9,-3813,-2771,15273,41323
2049.9,-3928,-2776,15250,41288
2051.9,-3984,-2767,15280,41301
2053.9,-3850,-2777,15279,41313
2055.9,-3707,-2828,15195,41275
2057.9,-3770,-2888,15129,41235
2059.9,-3885,-2925,15150,41225
2061.9,-3849,-2939,15185,41204
2063.9,-3786,-2929,15179,41166
2065.9,-3808,-2900,15161,41141
2067.9,-3803,-2895,15142,41108
2069.9,-3764,-2926,15115,41053
2071.9,-3810,-2926,15107,41026
2073.9,-3866,-2869,15126,41055
2075.9,-3814,-2854,15128,41079
2077.9,-3786,-2943,15089,41050
2079.9,-3904,-3039,15050,41017
2081.9,-4003,-3037,15059,41035
2083.9,-3925,-2985,15112,41073
2085.9,-3810,-2985,15155,41077
2087.9,-3824,-3016,15150,41067
2089.9,-3886,-3002,15121,41091
2091.9,-3903,-2952,15117,41140
2093.9,-3969,-2939,15143,41166
2095.9,-4090,-2966,15156,41139
2097.9,-4086,-2965,15142,41088
2099.9,-3967,-2909,15148,41089
2101.9,-3921,-2836,15203,41156
2103.9,-3911,-2752,15274,41209
2105.9,-3823,-2630,15352,41237
2107.9,-3781,-2501,15445,41317
2109.9,-3766,-2433,15466,41369
2111.9,-3545,-2445,15349,41248
2113.9,-3363,-2491,15275,41125
2115.9,-3711,-2526,15435,41266
2117.9,-4266,-2548,15644,41486
2119.9,-4271,-2607,15603,41417
2121.9,-3836,-2717,15403,41179
2123.9,-3634,-2753,15360,41143
2125.9,-3771,-2588,15505,41309
2127.9,-3954,-2325,15645,41446
2129.9,-4137,-2175,15726,41519
2131.9,-4296,-2124,15803,41590
2133.9,-4258,-2006,15845,41628
2135.9,-4065,-1855,15802,41622
2137.9,-3958,-1843,15732,41644
2139.9,-4005,-1955,15700,41697
2141.9,-4127,-2045,15669,41711
2143.9,-4265,-2105,15596,41665
2145.9,-4277,-2163,15534,41605
2147.9,-4049,-2112,15537,41562
2149.9,-3794,-1933,15564,41548
2151.9,-3790,-1838,15568,41557
2153.9,-3875,-1924,15567,41552
2155.9,-3761,-2010,15587,41505
2157.9,-3598,-2013,15616,41447
2159.9,-3620,-2090,15629,41430
2161.9,-3675,-2273,15627,41464
2163.9,-3668,-2400,15647,41533
2165.9,-3821,-2468,15681,41583
2167.9,-4089,-2630,15623,41502
2169.9,-4113,-2839,15417,41280
2171.9,-3922,-2909,15189,41069
2173.9,-3847,-2876,15064,40958
2175.9,-3872,-2927,14993,40872
2177.9,-3804,-3069,14916,40797
2179.9,-3768,-3177,14886,40813
2181.9,-3928,-3258,14901,40859
2183.9,-4114,-3401,14844,40777
2185.9,-4115,-3539,14686,40583
2187.9,-3995,-3540,14548,40437
2189.9,-3958,-3447,14529,40411
2191.9,-4080,-3414,14565,40438
2193.9,-4220,-3458,14531,40433
2195.9,-4157,-3477,14414,40376
2197.9,-3887,-3458,14342,40339
2199.9,-3711,-3461,14417,40389
2201.9,-3860,-3468,14587,40486
2203.9,-4148,-3429,14727,40548
2205.9,-4270,-3406,14772,40560
2207.9,-4290,-3496,14749,40550
2209.9,-4456,-3656,14701,40528
2211.9,-4664,-3750,14643,40510
2213.9,-4592,-3725,14576,40507
2215.9,-4246,-3658,14520,40487
2217.9,-3925,-3635,14484,40431
2219.9,-3792,-3689,14465,40380
2221.9,-3834,-3824,14491,40379
2223.9,-3958,-4014,14593,40402
2225.9,-3987,-4201,14740,40408
2227.9,-3853,-4329,14924,40447
2229.9,-3743,-4326,15236,40644
2231.9,-3723,-4072,15725,41056
2233.9,-3618,-3529,16291,41651
2235.9,-3496,-2835,16905,42450
2237.9,-3602,-2075,17669,43523
2239.9,-3694,-1141,18464,44767
2241.9,-3391,-50,18874,45870
2243.9,-3037,895,18722,46650
2245.9,-3151,1540,18288,47219
2247.9,-3435,2100,17809,47703
2249.9,-3468,2712,17209,48012
2251.9,-3627,3200,16439,47981
2253.9,-4242,3449,15534,47499
2255.9,-4905,3562,14326,46432
2257.9,-5435,3583,12656,44707
2259.9,-6195,3466,10811,42568
2261.9,-6985,3216,9288,40549
2263.9,-7151,2770,8318,39092
2265.9,-6848,2006,7970,38338
2267.9,-6731,1048,8306,38172
2269.9,-6754,191,9108,38324
2271.9,-6527,-492,9921,38512
2273.9,-6162,-1115,10568,38655
2275.9,-5811,-1668,11180,38820
2277.9,-5317,-2092,11766,39007
2279.9,-4841,-2420,12225,39154
2281.9,-4813,-2647,12664,39326
2283.9,-5109,-2735,13194,39600
2285.9,-5158,-2771,13622,39844
2287.9,-4799,-2852,13774,39894
2289.9,-4363,-2938,13854,39867
2291.9,-4139,-3023,14110,39989
2293.9,-4148,-3221,14410,40199
2295.9,-4231,-3513,14521,40262
2297.9,-4243,-3688,14517,40197
2299.9,-4195,-3662,14594,40217
2301.9,-4160,-3604,14730,40342
2303.9,-4101,-3662,14800,40410
2305.9,-4006,-3765,14799,40383
2307.9,-4000,-3793,14768,40330
2309.9,-4105,-3762,14697,40256
2311.9,-4122,-3739,14613,40169
2313.9,-3965,-3695,14594,40154
2315.9,-3851,-3611,14657,40241
2317.9,-3922,-3586,14728,40339
2319.9,-3966,-3698,14733,40358
2321.9,-3800,-3852,14677,40309
2323.9,-3641,-3878,14659,40285
2325.9,-3738,-3749,14743,40356
2327.9,-3885,-3596,14831,40443
2329.9,-3778,-3532,14800,40390
2331.88,-3616,-3552,14718,40226
2333.85,-3791,-3601,14742,40148
2335.83,-4162,-3657,14845,40200
2337.8,-4259,-3693,14886,40247
2339.8,-4051,-3668,14883,40265
2341.8,-3853,-3627,14917,40313
2343.8,-3703,-3654,14912,40299
2345.8,-3517,-3715,14812,40163
2347.8,-3529,-3698,14792,40114
2349.8,-3885,-3614,14961,40288
2351.8,-4229,-3580,15114,40461
2353.8,-4271,-3602,15093,40457
2355.8,-4177,-3546,15041,40429
2357.8,-4105,-3398,15071,40476
2359.8,-4013,-3342,15075,40472
2361.8,-3964,-3432,15021,40404
2363.8,-3991,-3467,15031,40414
2365.8,-3924,-3348,15096,40482
2367.8,-3767,-3263,15104,40482
2369.8,-3748,-3320,15072,40446
2371.8,-3817,-3369,15069,40428
2373.8,-3734,-3313,15059,40373
2375.8,-3591,-3222,15030,40310
2377.8,-3639,-3132,15065,40366
2379.8,-3802,-3060,15151,40490
2381.8,-3845,-3075,15168,40503
2383.8,-3738,-3138,15111,40394
2385.8,-3609,-3120,15088,40303
2387.8,-3583,-3068,15131,40291
2389.8,-3678,-3105,15165,40339
2391.8,-3756,-3160,15144,40414
2393.8,-3702,-3138,15111,40466
2395.8,-3627,-3118,15138,40492
2397.8,-3664,-3124,15239,40547
2399.8,-3711,-3065,15326,40607
2401.8,-3658,-3017,15324,40601
2403.8,-3602,-3114,15275,40565
2405.8,-3626,-3211,15249,40568
2407.8,-3620,-3119,15245,40554
2409.8,-3502,-2956,15238,40471
2411.8,-3391,-2913,15233,40393
2413.8,-3440,-2973,15217,40379
2415.8,-3603,-3088,15183,40400
2417.8,-3672,-3241,15183,40464
2419.8,-3528,-3308,15249,40584
2421.8,-3293,-3204,15304,40661
2423.8,-3195,-3077,15277,40614
2425.8,-3285,-3071,15226,40527
2427.8,-3381,-3103,15239,40519
2429.8,-3387,-3062,15311,40579
2431.8,-3455,-2981,15375,40637
2433.8,-3572,-2917,15374,40650
2435.8,-3413,-2845,15295,40594
2437.8,-3024,-2765,15214,40525
2439.8,-3010,-2739,15254,40569
2441.8,-3514,-2770,15405,40728
2443.8,-3889,-2789,15495,40833
2445.8,-3794,-2763,15450,40802
2447.8,-3591,-2702,15375,40735
2449.8,-3490,-2614,15334,40701
2451.8,-3385,-2537,15280,40662
2453.8,-3377,-2528,15234,40636
2455.8,-3532,-2555,15259,40667
2457.8,-3545,-2552,15294,40697
2459.8,-3276,-2555,15244,40658
2461.8,-2989,-2600,15137,40574
2463.8,-2852,-2605,15054,40495
2465.8,-2930,-2509,15051,40488
2467.8,-3392,-2386,15162,40635
2469.8,-4022,-2297,15308,40845
2471.8,-4164,-2216,15326,40890
2473.8,-3764,-2175,15237,40783
2475.8,-3522,-2247,15248,40772
2477.8,-3656,-2372,15362,40881
2479.8,-3657,-2378,15370,40885
2481.8,-3410,-2238,15255,40754
2483.8,-3340,-2139,15214,40692
2485.8,-3475,-2210,15308,40776
2487.8,-3472,-2313,15397,40875
2489.8,-3342,-2265,15404,40895
2491.8,-3295,-2144,15395,40883
2493.8,-3307,-2138,15441,40916
2495.8,-3395,-2207,15522,40983
2497.8,-3647,-2181,15579,41026
2499.8,-3793,-2092,15592,41047
2501.8,-3560,-2100,15609,41101
2503.8,-3285,-2169,15658,41173
2505.8,-3354,-2141,15682,41161
2507.8,-3533,-2053,15619,41038
2509.8,-3556,-2090,15519,40919
2511.8,-3603,-2253,15502,40924
2513.8,-3731,-2364,15566,41011
2515.8,-3677,-2356,15585,41046
2517.8,-3486,-2335,15519,40997
2519.8,-3519,-2383,15467,40952
2521.8,-3780,-2447,15467,40937
2523.8,-3895,-2445,15436,40874
2525.8,-3705,-2388,15338,40744
2527.8,-3452,-2358,15259,40645
2529.8,-3389,-2414,15235,40625
2531.8,-3468,-2518,15194,40603
2533.8,-3513,-2565,15119,40537
2535.8,-3544,-2504,15116,40521
2537.8,-3670,-2407,15213,40604
2539.8,-3793,-2374,15271,40664
2541.8,-3816,-2397,15240,40643
2543.8,-3845,-2393,15247,40652
2545.8,-3851,-2350,15289,40694
2547.8,-3677,-2376,15198,40608
2549.8,-3558,-2567,15018,40432
2551.8,-3801,-2814,14966,40381
2553.8,-4079,-2878,15024,40456
2555.8,-3999,-2738,15042,40510
2557.8,-3858,-2618,15074,40566
2559.8,-3917,-2596,15188,40650
2561.8,-3848,-2541,15232,40629
2563.8,-3599,-2466,15149,40513
2565.8,-3623,-2491,15122,40513
2567.8,-3927,-2532,15222,40655
2569.8,-4100,-2463,15312,40764
2571.8,-4128,-2387,15341,40800
2573.8,-4177,-2405,15354,40829
2575.8,-4116,-2416,15348,40822
2577.8,-3954,-2383,15337,40779
2579.8,-3957,-2410,15380,40797
2581.8,-4046,-2492,15430,40853
2583.8,-3952,-2536,15385,40816
2585.8,-3838,-2537,15297,40707
2587.8,-3935,-2505,15282,40669
2589.8,-3978,-2400,15311,40700
2591.8,-3752,-2276,15297,40697
2593.8,-3590,-2247,15265,40663
2595.8,-3754,-2305,15270,40670
2597.8,-3955,-2361,15288,40704
2599.8,-3919,-2385,15284,40707
2601.8,-3801,-2389,15268,40685
2603.8,-3789,-2395,15240,40655
2605.8,-3843,-2457,15198,40619
2607.8,-3888,-2575,15179,40593
2609.8,-3864,-2625,15208,40608
2611.8,-3722,-2532,15255,40654
2613.8,-3610,-2415,15299,40706
2615.8,-3747,-2417,15333,40740
2617.8,-3987,-2490,15309,40710
2619.8,-3977,-2512,15215,40613
2621.8,-3771,-2492,15148,40537
2623.8,-3701,-2496,15175,40556
2625.8,-3751,-2497,15210,40599
2627.8,-3709,-2459,15175,40581
2629.8,-3674,-2447,15144,40546
2631.8,-3808,-2490,15187,40574
2633.8,-3919,-2514,15237,40627
2635.8,-3823,-2495,15217,40636
2637.8,-3688,-2500,15171,40623
2639.8,-3684,-2507,15178,40649
2641.8,-3755,-2448,15236,40707
2643.8,-3860,-2387,15273,40723
2645.8,-3985,-2425,15229,40645
2647.8,-3996,-2490,15124,40509
2649.8,-3872,-2484,15047,40415
2651.8,-3831,-2489,15057,40428
2653.8,-3949,-2588,15119,40508
2655.8,-4028,-2692,15171,40565
2657.8,-3987,-2722,15212,40583
2659.8,-3956,-2710,15248,40601
2661.8,-3950,-2639,15231,40599
2663.8,-3926,-2508,15154,40540
2665.8,-4004,-2484,15121,40495
2667.8,-4179,-2622,15167,40526
2669.8,-4137,-2667,15174,40538
2671.8,-3803,-2491,15099,40474
2673.8,-3535,-2339,15067,40449
2675.8,-3450,-2371,15100,40501
2677.8,-3341,-2425,15068,40501
2679.8,-3366,-2391,15037,40489
2681.8,-3856,-2317,15229,40670
2683.8,-4494,-2171,15575,40974
2685.8,-4685,-1976,15737,41083
2687.8,-4461,-1953,15638,40952
2689.8,-4179,-2148,15509,40835
2691.8,-3915,-2300,15477,40834
2693.8,-3750,-2299,15487,40854
2695.8,-3896,-2282,15534,40879
2697.8,-4186,-2245,15615,40931
2699.8,-4222,-2080,15645,40945
2701.8,-4038,-1887,15620,40912
2703.8,-3907,-1807,15649,40932
2705.8,-3830,-1763,15735,41029
2707.8,-3770,-1673,15782,41128
2709.8,-3862,-1616,15765,41185
2711.8,-4032,-1614,15702,41175
2713.8,-4018,-1584,15601,41092
2715.8,-3883,-1534,15530,41027
2717.8,-3900,-1562,15552,41052
2719.8,-4005,-1636,15591,41074
2721.8,-3935,-1634,15559,41007
2723.8,-3729,-1559,15511,40951
2725.8,-3648,-1547,15519,40992
2727.8,-3733,-1648,15549,41044
2729.8,-3784,-1762,15550,41027
2731.8,-3710,-1814,15537,41003
2733.8,-3656,-1832,15556,41043
2735.8,-3725,-1844,15624,41120
2737.8,-3804,-1875,15678,41145
2739.8,-3804,-2021,15610,41050
2741.8,-3835,-2308,15425,40870
2743.8,-3949,-2579,15262,40718
2745.8,-4005,-2707,15167,40614
2747.8,-3953,-2762,15058,40484
2749.8,-3956,-2834,14932,40348
2751.8,-4130,-2927,14878,40297
2753.8,-4350,-3057,14865,40294
2755.8,-4388,-3194,14788,40229
2757.8,-4213,-3217,14688,40145
2759.8,-4049,-3146,14662,40135
2761.8,-4043,-3154,14670,40149
2763.8,-4022,-3190,14646,40117
2765.8,-3842,-3060,14629,40086
2767.8,-3730,-2890,14636,40089
2769.8,-3912,-2958,14620,40083
2771.8,-4128,-3140,14599,40090
2773.8,-3935,-3137,14596,40126
2775.8,-3369,-3019,14527,40091
2777.8,-2948,-3005,14388,39957
2779.8,-3103,-3044,14371,39914
2781.8,-3786,-3039,14571,40091
2783.8,-4529,-3061,14790,40321
2785.8,-4798,-3115,14816,40376
2787.8,-4529,-3099,14699,40272
2789.8,-4235,-3056,14629,40201
2791.8,-4294,-3124,14660,40227
2793.8,-4403,-3320,14670,40217
2795.8,-4188,-3573,14589,40080
2797.8,-3834,-3809,14539,39925
2799.8,-3646,-3956,14639,39875
2801.8,-3584,-4017,14847,39916
2803.8,-3579,-4009,15136,40075
2805.8,-3619,-3780,15595,40495
2807.8,-3523,-3181,16225,41198
2809.8,-3279,-2355,16927,42066
2811.8,-3288,-1517,17696,43105
2813.8,-3679,-638,18475,44368
2815.8,-3999,345,18972,45646
2817.8,-3970,1294,18990,46635
2819.8,-3795,2095,18680,47334
2821.8,-3646,2785,18204,47898
2823.8,-3611,3343,17524,48262
2825.8,-3869,3718,16639,48218
2827.8,-4323,3986,15577,47645
2829.8,-4659,4169,14192,46457
2831.8,-5046,4151,12418,44633
2833.8,-5891,3945,10587,42460
2835.8,-6886,3674,9124,40471
2837.8,-7329,3240,8223,39076
2839.8,-7149,2480,7979,38371
2841.8,-6752,1563,8389,38184
2843.8,-6327,753,9166,38221
2845.8,-5968,16,9963,38307
2847.8,-5768,-741,10702,38466
2849.8,-5497,-1369,11370,38664
2851.8,-4926,-1719,11851,38775
2853.8,-4444,-1921,12227,38874
2855.8,-4521,-2178,12743,39155
2857.8,-4896,-2537,13350,39529
2859.8,-4992,-2876,13766,39742
2861.8,-4714,-3031,13954,39793
2863.8,-4322,-3004,14080,39840
2865.8,-4033,-3009,14199,39900
2867.8,-3966,-3140,14314,39955
2869.8,-4059,-3222,14480,40065
2871.8,-4099,-3188,14660,40214
2873.8,-4098,-3264,14758,40302
2875.8,-4254,-3518,14809,40332
2877.8,-4440,-3639,14870,40364
2879.8,-4305,-3459,14864,40353
2881.8,-3931,-3283,14749,40251
2883.8,-3778,-3386,14646,40151
2885.8,-3988,-3586,14649,40148
2887.8,-4266,-3616,14686,40188
2889.8,-4341,-3543,14677,40177
2891.8,-4180,-3541,14665,40143
2893.8,-3959,-3586,14705,40159
2895.8,-3944,-3613,14766,40206
2897.8,-4160,-3651,14791,40220
2899.8,-4286,-3658,14779,40194
2901.8,-4149,-3549,14740,40147
2903.8,-3979,-3418,14694,40096
2905.8,-3958,-3420,14680,40077
2907.8,-3954,-3506,14698,40098
2909.8,-3855,-3551,14676,40093
2911.8,-3739,-3562,14616,40047
2913.8,-3657,-3572,14634,40073
2915.8,-3626,-3537,14771,40222
2917.8,-3727,-3457,14909,40373
2919.8,-3945,-3395,14952,40410
2921.8,-4066,-3349,14927,40366
2923.8,-3961,-3293,14890,40323
2925.8,-3774,-3245,14858,40301
2927.8,-3669,-3217,14839,40278
2929.8,-3653,-3222,14835,40255
2931.8,-3769,-3299,14869,40280
2933.8,-4058,-3393,14967,40375
2935.8,-4246,-3376,15055,40446
2937.8,-4016,-3280,15011,40391
2939.8,-3658,-3267,14888,40282
2941.8,-3699,-3331,14853,40248
2943.8,-3947,-3319,14891,40252
2945.8,-3820,-3242,14854,40201
2947.8,-3471,-3234,14780,40164
2949.8,-3524,-3284,14831,40251
2951.8,-3899,-3271,14962,40380
2953.8,-3939,-3199,14996,40397
2955.8,-3554,-3170,14933,40324
2957.8,-3344,-3210,14925,40299
2959.8,-3650,-3258,15019,40375
2961.8,-4086,-3265,15134,40480
2963.8,-4135,-3215,15186,40526
2965.8,-3836,-3143,15144,40489
2967.8,-3610,-3118,15056,40409
2969.8,-3582,-3164,14992,40336
2971.8,-3547,-3242,14967,40284
2973.8,-3508,-3295,14970,40274
2975.8,-3645,-3275,15034,40354
2977.8,-3839,-3174,15157,40495
2979.8,-3837,-3072,15239,40585
2981.8,-3751,-3055,15235,40585
2983.8,-3818,-3083,15228,40581
2985.8,-3940,-3074,15265,40617
2987.8,-3918,-3042,15273,40629
2989.8,-3777,-3023,15226,40585
2991.8,-3599,-2970,15195,40553
2993.8,-3407,-2899,15199,40561
2995.8,-3285,-2922,15189,40561
2997.8,-3317,-2987,15188,40554
2999.8,-3468,-2917,15265,40605
3001.8,-3658,-2776,15376,40702
3003.8,-3800,-2806,15399,40746
3005.8,-3817,-2980,15332,40710
3007.8,-3759,-3029,15299,40686
3009.8,-3726,-2902,15356,40739
3011.8,-3649,-2798,15403,40791
3013.8,-3457,-2821,15349,40755
3015.8,-3335,-2859,15277,40693
3017.8,-3449,-2786,15319,40730
3019.8,-3606,-2637,15435,40841
3021.8,-3572,-2559,15465,40886
3023.8,-3453,-2587,15380,40833
3025.8,-3450,-2595,15302,40782
3027.8,-3493,-2531,15278,40786
3029.8,-3428,-2522,15243,40787
3031.8,-3326,-2602,15174,40746
3033.8,-3354,-2616,15130,40692
3035.8,-3491,-2512,15138,40656
3037.8,-3588,-2458,15149,40634
3039.8,-3574,-2536,15131,40620
3041.8,-3486,-2594,15109,40629
3043.8,-3359,-2512,15105,40655
3045.8,-3236,-2397,15095,40652
3047.8,-3254,-2392,15087,40636
3049.8,-3516,-2469,15144,40701
3051.8,-3771,-2498,15248,40836
3053.8,-3588,-2434,15267,40885
3055.8,-3082,-2353,15180,40818
3057.8,-2925,-2343,15153,40811
3059.8,-3283,-2363,15266,40927
3061.8,-3513,-2300,15381,41010
3063.8,-3301,-2154,15395,40984
3065.8,-3189,-2061,15410,40989
3067.8,-3537,-2059,15547,41127
3069.8,-3888,-2029,15735,41304
3071.8,-3771,-1919,15821,41387
3073.8,-3391,-1820,15776,41362
3075.8,-3170,-1785,15705,41303
3077.8,-3171,-1783,15674,41271
3079.8,-3239,-1833,15655,41264
3081.8,-3332,-1957,15636,41275
3083.8,-3459,-2054,15645,41293
3085.8,-3552,-2027,15646,41275
3087.8,-3575,-1968,15579,41194
3089.8,-3588,-2046,15492,41113
3091.8,-3625,-2252,15487,41116
3093.8,-3664,-2395,15553,41190
3095.8,-3691,-2371,15589,41244
3097.8,-3673,-2318,15548,41216
3099.8,-3576,-2376,15459,41119
3101.8,-3471,-2447,15375,41021
3103.8,-3473,-2392,15335,40982
3105.8,-3574,-2304,15344,40998
3107.8,-3684,-2322,15359,41012
3109.8,-3766,-2381,15338,40990
3111.8,-3799,-2383,15288,40953
3113.8,-3734,-2379,15250,40930
3115.8,-3604,-2420,15247,40927
3117.8,-3539,-2443,15249,40926
3119.8,-3581,-2424,15216,40899
3121.8,-3647,-2413,15168,40861
3123.8,-3698,-2428,15178,40875
3125.8,-3696,-2456,15236,40934
3127.8,-3525,-2487,15219,40924
3129.8,-3270,-2490,15101,40816
3131.8,-3337,-2457,15052,40777
3133.8,-3786,-2459,15170,40907
3135.8,-4006,-2510,15287,41029
3137.8,-3624,-2502,15229,40965
3139.8,-3198,-2423,15108,40847
3141.8,-3340,-2402,15130,40894
3143.8,-3791,-2437,15266,41055
3145.8,-3972,-2392,15346,41134
3147.8,-3853,-2284,15345,41120
3149.8,-3703,-2244,15337,41121
3151.8,-3572,-2239,15316,41125
3153.8,-3457,-2179,15266,41078
3155.8,-3462,-2142,15262,41055
3157.8,-3503,-2217,15319,41106
3159.8,-3309,-2324,15299,41100
3161.8,-2971,-2372,15157,40973
3163.8,-2991,-2381,15090,40912
3165.8,-3538,-2365,15253,41081
3167.8,-4100,-2293,15513,41351
3169.8,-4160,-2185,15644,41486
3171.8,-3831,-2139,15581,41406
3173.8,-3544,-2227,15413,41202
3175.8,-3499,-2373,15285,41044
3177.8,-3650,-2421,15307,41061
3179.8,-3859,-2344,15428,41188
3181.8,-3907,-2275,15470,41225
3183.8,-3673,-2279,15381,41126
3185.8,-3356,-2273,15302,41043
3187.8,-3266,-2231,15328,41070
3189.8,-3432,-2225,15392,41139
3191.8,-3618,-2262,15420,41173
3193.8,-3665,-2272,15404,41167
3195.8,-3619,-2258,15357,41135
3197.8,-3576,-2259,15298,41094
3199.8,-3530,-2243,15268,41067
3201.8,-3455,-2222,15263,41050
3203.8,-3431,-2313,15240,41011
3205.8,-3539,-2500,15212,40975
3207.8,-3676,-2565,15228,40993
3209.8,-3680,-2458,15261,41040
3211.8,-3611,-2398,15251,41054
3213.8,-3654,-2443,15242,41062
3215.8,-3768,-2386,15302,41119
3217.8,-3713,-2224,15353,41151
3219.8,-3498,-2209,15294,41068
3221.8,-3442,-2368,15209,40963
3223.8,-3606,-2463,15214,40963
3225.8,-3578,-2434,15221,40976
3227.8,-3219,-2420,15124,40877
3229.8,-3106,-2416,15066,40795
3231.8,-3547,-2329,15189,40892
3233.8,-3839,-2246,15296,40998
3235.8,-3459,-2300,15174,40895
3237.8,-3124,-2414,15040,40769
3239.8,-3506,-2416,15191,40919
3241.8,-3977,-2287,15459,41200
3243.8,-3826,-2152,15503,41271
3245.8,-3499,-2093,15393,41174
3247.8,-3549,-2089,15401,41169
3249.8,-3702,-2090,15526,41267
3251.8,-3695,-2069,15632,41350
3253.8,-3747,-2019,15724,41432
3255.8,-3891,-1947,15819,41522
3257.8,-3911,-1890,15854,41556
3259.8,-3839,-1878,15838,41550
3261.8,-3732,-1911,15809,41541
3263.8,-3507,-1977,15740,41484
3265.8,-3362,-2059,15664,41407
3267.8,-3543,-2098,15679,41417
3269.8,-3730,-2023,15749,41481
3271.8,-3578,-1835,15786,41513
3273.8,-3456,-1640,15838,41572
3275.8,-3713,-1555,15929,41676
3277.8,-3926,-1546,15941,41691
3279.8,-3750,-1469,15855,41614
3281.8,-3592,-1318,15807,41605
3283.8,-3735,-1262,15793,41639
3285.8,-3812,-1326,15691,41558
3287.8,-3650,-1350,15549,41417
3289.8,-3568,-1325,15523,41391
3291.8,-3631,-1402,15601,41465
3293.8,-3579,-1549,15669,41522
3295.8,-3460,-1599,15704,41547
3297.8,-3477,-1590,15715,41550
3299.8,-3494,-1665,15673,41490
3301.8,-3346,-1763,15613,41412
3303.8,-3185,-1748,15630,41430
3305.8,-3123,-1691,15689,41504
3307.8,-3114,-1748,15662,41488
3309.8,-3236,-1908,15576,41400
3311.8,-3526,-2053,15561,41373
3313.8,-3712,-2151,15576,41372
3315.8,-3628,-2231,15460,41258
3317.8,-3486,-2314,15228,41052
3319.8,-3460,-2430,15038,40889
3321.8,-3519,-2600,14947,40802
3323.8,-3681,-2761,14921,40769
3325.8,-3925,-2833,14952,40794
3327.8,-4023,-2851,14996,40824
3329.8,-3887,-2896,14965,40776
3331.8,-3761,-2934,14885,40694
3333.8,-3807,-2887,14875,40694
3335.8,-3882,-2793,14923,40749
3337.8,-3874,-2773,14899,40730
3339.8,-3894,-2853,14805,40642
3341.8,-3997,-2943,14770,40616
3343.8,-4000,-2976,14807,40668
3345.8,-3767,-2974,14805,40680
3347.8,-3503,-2975,14754,40627
3349.8,-3473,-2965,14737,40606
3351.8,-3576,-2907,14747,40631
3353.8,-3590,-2817,14749,40643
3355.8,-3622,-2767,14793,40665
3357.8,-3822,-2825,14866,40719
3359.8,-3977,-2965,14847,40716
3361.8,-3869,-3076,14725,40618
3363.8,-3657,-3140,14621,40522
3365.8,-3549,-3301,14562,40452
3367.8,-3510,-3637,14503,40341
3369.8,-3473,-3968,14501,40220
3371.8,-3454,-4085,14614,40168
3373.8,-3400,-3986,14806,40197
3375.8,-3238,-3763,15115,40379
3377.8,-3049,-3414,15633,40852
3379.8,-2999,-2912,16315,41590
3381.8,-3128,-2262,17064,42485
3383.8,-3266,-1462,17852,43552
3385.8,-3190,-552,18518,44759
3387.8,-2924,375,18813,45879
3389.8,-2785,1316,18772,46813
3391.8,-2960,2283,18605,47684
3393.8,-3198,3118,18253,48441
3395.8,-3207,3689,17559,48808
3397.8,-3113,4110,16616,48661
3399.8,-3221,4448,15507,48020
3401.8,-3655,4542,14091,46810
3403.8,-4508,4387,12431,45069
3405.8,-5747,4211,10927,43200
3407.8,-6779,3981,9840,41637
3409.8,-6935,3408,9150,40477
3411.8,-6477,2519,8884,39655
3413.8,-6157,1625,9107,39183
3415.8,-5975,849,9681,39042
3417.8,-5518,151,10369,39096
3419.8,-5035,-416,11066,39227
3421.8,-4959,-855,11734,39408
3423.8,-5003,-1295,12302,39607
3425.8,-4760,-1733,12758,39781
3427.8,-4455,-2044,13162,39942
3429.8,-4374,-2265,13528,40104
3431.8,-4372,-2522,13835,40237
3433.8,-4311,-2771,14101,40342
3435.8,-4257,-2920,14336,40454
3437.8,-4152,-3013,14489,40555
3439.8,-3912,-3075,14553,40602
3441.8,-3701,-3046,14602,40630
3443.8,-3696,-2995,14661,40669
3445.8,-3801,-3067,14686,40678
3447.8,-3792,-3196,14692,40652
3449.8,-3592,-3228,14734,40647
3451.8,-3380,-3223,14784,40667
3453.8,-3436,-3290,14795,40666
3455.8,-3756,-3348,14789,40639
3457.8,-4007,-3325,14776,40592
3459.8,-3976,-3316,14732,40526
3461.8,-3794,-3369,14682,40482
3463.8,-3620,-3418,14683,40499
3465.8,-3490,-3439,14741,40555
3467.8,-3454,-3418,14827,40612
3469.8,-3507,-3319,14905,40657
3471.8,-3500,-3232,14926,40668
3473.8,-3402,-3283,14889,40637
3475.8,-3388,-3372,14849,40597
3477.8,-3532,-3331,14831,40575
3479.8,-3664,-3236,14809,40564
3481.8,-3609,-3240,14776,40555
3483.8,-3408,-3309,14744,40549
3485.8,-3313,-3368,14743,40570
3487.8,-3535,-3443,14817,40657
3489.8,-3901,-3504,14938,40775
3491.8,-3966,-3460,14984,40809
3493.8,-3624,-3350,14895,40711
3495.8,-3312,-3317,14774,40593
3497.8,-3381,-3392,14752,40572
3499.8,-3615,-3472,14814,40617
3501.8,-3633,-3478,14853,40626
3503.8,-3470,-3419,14845,40608
3505.8,-3408,-3317,14884,40663
3507.8,-3456,-3195,14991,40777
3509.8,-3431,-3134,15047,40816
3511.8,-3362,-3179,14996,40749
3513.8,-3394,-3211,14963,40707
3515.8,-3492,-3115,15031,40757
3517.8,-3552,-3006,15101,40806
3519.8,-3570,-3029,15092,40788
3521.8,-3529,-3095,15069,40766
3523.8,-3399,-3088,15083,40783
3525.8,-3279,-3084,15078,40795
3527.8,-3272,-3150,15040,40783
3529.8,-3328,-3193,15033,40793
3531.8,-3357,-3169,15061,40825
3533.8,-3344,-3144,15062,40830
3535.8,-3295,-3129,15040,40812
3537.8,-3224,-3069,15051,40815
3539.8,-3199,-2992,15081,40829
3541.8,-3259,-2957,15080,40819
3543.8,-3326,-2944,15082,40823
3545.8,-3304,-2935,15133,40880
3547.8,-3234,-2971,15173,40928
3549.8,-3207,-3014,15145,40917
3551.8,-3213,-2967,15120,40911
3553.8,-3214,-2901,15161,40951
3555.8,-3238,-2965,15208,40968
3557.8,-3274,-3088,15219,40947
3559.8,-3260,-3099,15245,40966
3561.8,-3218,-3037,15269,40997
3563.8,-3184,-2985,15225,40953
3565.8,-3089,-2861,15184,40905
3567.8,-2891,-2702,15239,40961
3569.8,-2737,-2718,15300,41029
3571.8,-2822,-2878,15294,41027
3573.8,-3173,-2940,15331,41067
3575.8,-3553,-2904,15441,41184
3577.8,-3648,-2905,15473,41221
3579.8,-3464,-2870,15411,41162
3581.8,-3337,-2767,15406,41162
3583.8,-3372,-2775,15424,41194
3585.8,-3318,-2887,15331,41125
3587.8,-3179,-2854,15240,41055
3589.8,-3229,-2673,15311,41134
3591.8,-3382,-2581,15413,41239
3593.8,-3311,-2589,15376,41206
3595.8,-3081,-2530,15303,41138
3597.8,-2929,-2418,15317,41155
3599.8,-2824,-2385,15323,41170
3601.8,-2785,-2428,15265,41121
3603.8,-3006,-2454,15266,41118
3605.8,-3377,-2429,15370,41220
3607.8,-3547,-2399,15437,41307
3609.8,-3430,-2418,15364,41255
3611.78,-3175,-2459,15212,41104
3613.75,-2982,-2444,15131,41027
3615.73,-3100,-2375,15209,41130
3617.7,-3460,-2329,15354,41291
3619.7,-3547,-2303,15387,41316
3621.7,-3207,-2229,15319,41242
3623.7,-2908,-2156,15316,41242
3625.7,-2830,-2194,15373,41285
3627.7,-2733,-2304,15366,41250
3629.7,-2810,-2337,15390,41264
3631.7,-3397,-2263,15616,41483
3633.7,-4017,-2183,15887,41733
3635.7,-4007,-2170,15921,41753
3637.7,-3611,-2218,15761,41610
3639.7,-3397,-2269,15659,41532
3641.7,-3319,-2218,15684,41571
3643.7,-3186,-2070,15748,41651
3645.7,-3164,-2017,15784,41708
3647.7,-3281,-2132,15760,41694
3649.7,-3290,-2197,15710,41648
3651.7,-3240,-2099,15725,41674
3653.7,-3353,-2048,15769,41739
3655.7,-3502,-2169,15706,41697
3657.7,-3511,-2316,15573,41576
3659.7,-3519,-2400,15538,41534
3661.7,-3551,-2445,15582,41562
3663.7,-3406,-2397,15552,41542
3665.7,-3209,-2289,15459,41490
3667.7,-3257,-2314,15412,41479
3669.7,-3392,-2464,15398,41478
3671.7,-3315,-2518,15354,41445
3673.7,-3197,-2464,15300,41407
3675.7,-3323,-2487,15262,41374
3677.7,-3589,-2562,15227,41339
3679.7,-3788,-2555,15200,41325
3681.7,-3894,-2541,15195,41338
3683.7,-3901,-2618,15187,41342
3685.7,-3782,-2656,15170,41336
3687.7,-3619,-2566,15174,41353
3689.7,-3490,-2489,15197,41372
3691.7,-3301,-2497,15184,41341
3693.7,-2995,-2457,15122,41268
3695.7,-2839,-2355,15085,41234
3697.7,-3128,-2345,15138,41294
3699.7,-3651,-2415,15233,41396
3701.7,-3918,-2418,15279,41449
3703.7,-3855,-2383,15269,41442
3705.7,-3749,-2418,15260,41440
3707.7,-3713,-2479,15274,41471
3709.7,-3692,-2504,15289,41504
3711.7,-3679,-2524,15290,41511
3713.7,-3584,-2514,15272,41488
3715.7,-3307,-2445,15230,41443
3717.7,-3067,-2414,15179,41394
3719.7,-3152,-2470,15168,41384
3721.7,-3413,-2480,15217,41430
3723.7,-3521,-2398,15290,41498
3725.7,-3526,-2374,15348,41544
3727.7,-3614,-2444,15374,41557
3729.7,-3607,-2461,15326,41506
3731.7,-3327,-2417,15203,41387
3733.7,-3139,-2448,15157,41342
3735.7,-3435,-2484,15320,41507
3737.7,-3885,-2332,15540,41739
3739.7,-3909,-2120,15580,41796
3741.7,-3580,-2167,15473,41707
3743.7,-3368,-2399,15405,41644
3745.7,-3344,-2442,15391,41615
3747.7,-3266,-2291,15343,41545
3749.7,-3185,-2286,15272,41471
3751.7,-3353,-2452,15249,41460
3753.7,-3670,-2492,15294,41502
3755.7,-3694,-2362,15352,41536
3757.7,-3304,-2297,15329,41495
3759.7,-2987,-2367,15234,41404
3761.7,-3208,-2462,15208,41389
3763.7,-3755,-2554,15288,41478
3765.7,-4059,-2637,15333,41527
3767.7,-3939,-2627,15295,41484
3769.7,-3663,-2511,15288,41476
3771.7,-3509,-2429,15345,41542
3773.7,-3530,-2471,15380,41580
3775.7,-3578,-2543,15377,41561
3777.7,-3493,-2533,15369,41535
3779.7,-3352,-2481,15330,41493
3781.7,-3357,-2483,15253,41416
3783.7,-3461,-2504,15208,41365
3785.7,-3454,-2462,15242,41378
3787.7,-3363,-2409,15305,41411
3789.7,-3353,-2440,15323,41419
3791.7,-3398,-2531,15285,41398
3793.7,-3409,-2626,15234,41366
3795.7,-3420,-2716,15214,41348
3797.7,-3430,-2748,15215,41350
3799.7,-3346,-2666,15199,41329
3801.7,-3224,-2571,15160,41263
3803.7,-3266,-2594,15151,41226
3805.7,-3464,-2666,15201,41290
3807.7,-3544,-2619,15271,41385
3809.7,-3402,-2458,15326,41439
3811.7,-3288,-2332,15390,41495
3813.7,-3339,-2315,15436,41558
3815.7,-3334,-2345,15395,41539
3817.7,-3237,-2303,15369,41504
3819.7,-3395,-2138,15543,41653
3821.7,-3836,-1964,15812,41908
3823.7,-4049,-1976,15848,41950
3825.7,-3782,-2168,15626,41742
3827.7,-3424,-2293,15457,41582
3829.7,-3382,-2238,15491,41611
3831.7,-3544,-2179,15559,41672
3833.7,-3551,-2232,15528,41642
3835.7,-3405,-2273,15494,41606
3837.7,-3466,-2217,15582,41679
3839.7,-3720,-2112,15724,41815
3841.7,-3687,-1961,15783,41889
3843.7,-3392,-1751,15789,41910
3845.7,-3494,-1571,15872,41997
3847.7,-4029,-1479,15996,42132
3849.7,-4192,-1442,15988,42156
3851.7,-3724,-1476,15820,42037
3853.7,-3305,-1575,15653,41911
3855.7,-3366,-1627,15613,41878
3857.7,-3562,-1628,15649,41899
3859.7,-3532,-1723,15640,41895
3861.7,-3407,-1879,15570,41853
3863.7,-3445,-1920,15531,41813
3865.7,-3580,-1883,15553,41791
3867.7,-3547,-1923,15571,41772
3869.7,-3353,-1984,15578,41782
3871.7,-3280,-1940,15631,41853
3873.7,-3375,-1868,15688,41915
3875.7,-3371,-1902,15652,41874
3877.7,-3219,-2046,15552,41764
3879.7,-3179,-2243,15474,41667
3881.7,-3285,-2436,15393,41565
3883.7,-3303,-2587,15244,41413
3885.7,-3261,-2741,15062,41259
3887.7,-3395,-2918,14922,41162
3889.7,-3599,-3028,14831,41104
3891.7,-3614,-3069,14771,41054
3893.7,-3570,-3186,14741,41016
3895.7,-3702,-3360,14725,40993
3897.7,-3864,-3394,14707,40976
3899.7,-3901,-3309,14716,40977
3901.7,-3928,-3313,14743,40986
3903.7,-3898,-3388,14718,40958
3905.7,-3682,-3378,14636,40901
3907.7,-3575,-3323,14585,40879
3909.7,-3796,-3329,14595,40897
3911.7,-3910,-3317,14603,40898
3913.7,-3626,-3227,14588,40882
3915.7,-3368,-3189,14576,40883
3917.7,-3404,-3279,14563,40888
3919.7,-3505,-3389,14569,40903
3921.7,-3680,-3422,14666,40994
3923.7,-4023,-3381,14809,41125
3925.7,-4164,-3303,14840,41139
3927.7,-3948,-3282,14741,41023
3929.7,-3788,-3429,14636,40911
3931.7,-3677,-3676,14526,40813
3933.7,-3233,-3850,14356,40643
3935.7,-2845,-3979,14257,40484
3937.7,-3102,-4209,14374,40469
3939.7,-3558,-4451,14607,40531
3941.7,-3539,-4433,14843,40606
3943.7,-3279,-4091,15196,40846
3945.7,-3151,-3610,15743,41365
3947.7,-3012,-3106,16385,42055
3949.7,-2862,-2492,17087,42867
3951.7,-2905,-1678,17847,43887
3953.7,-2923,-736,18446,45030
3955.7,-2661,196,18649,46041
3957.7,-2409,1084,18512,46830
3959.7,-2398,1945,18182,47497
3961.7,-2389,2726,17689,48053
3963.7,-2338,3335,17073,48360
3965.7,-2530,3735,16330,48247
3967.7,-2926,3948,15257,47548
3969.7,-3380,4013,13788,46253
3971.7,-4209,3982,12297,44664
3973.7,-5493,3849,11128,43152
3975.7,-6425,3512,10230,41846
3977.7,-6422,2905,9576,40777
3979.7,-6003,2125,9399,40079
3981.7,-5745,1351,9729,39773
3983.7,-5466,666,10256,39660
3985.7,-5028,57,10796,39634
3987.7,-4733,-489,11398,39746
3989.7,-4657,-1011,12007,39943
3991.7,-4593,-1553,12508,40097
3993.7,-4549,-2037,12955,40238
3995.7,-4560,-2299,13424,40441
3997.7,-4473,-2369,13830,40630
3999.7,-4329,-2478,14105,40722
4001.7,-4308,-2729,14295,40762
4003.7,-4268,-3009,14435,40799
4005.7,-3997,-3263,14528,40830
4007.7,-3696,-3524,14625,40879
4009.7,-3606,-3730,14742,40961
4011.7,-3592,-3804,14812,41016
4013.7,-3504,-3856,14819,41004
4015.7,-3476,-4010,14829,40977
4017.7,-3566,-4175,14872,40999
4019.7,-3598,-4225,14900,41034
4021.7,-3515,-4239,14878,41006
4023.7,-3477,-4318,14834,40930
4025.7,-3563,-4376,14826,40893
4027.7,-3651,-4336,14849,40915
4029.7,-3634,-4293,14856,40934
4031.7,-3577,-4312,14862,40944
4033.7,-3612,-4320,14944,41014
4035.7,-3730,-4282,15069,41121
4037.7,-3791,-4265,15108,41149
4039.7,-3746,-4270,15059,41094
4041.7,-3647,-4211,15024,41046
4043.7,-3488,-4096,14984,41006
4045.7,-3318,-4060,14899,40939
4047.7,-3378,-4183,14893,40943
4049.7,-3700,-4356,15027,41075
4051.7,-3884,-4403,15114,41176
4053.7,-3723,-4326,15054,41136
4055.7,-3539,-4294,15014,41091
4057.7,-3473,-4334,15060,41117
4059.7,-3218,-4271,15034,41093
4061.7,-2857,-4102,14932,41005
4063.7,-2929,-4048,14935,41010
4065.7,-3376,-4124,15046,41116
4067.7,-3556,-4112,15119,41188
4069.7,-3405,-4029,15129,41198
4071.7,-3393,-4075,15136,41205
4073.7,-3519,-4175,15150,41217
4075.7,-3464,-4128,15173,41237
4077.7,-3344,-4020,15194,41254
4079.7,-3338,-4045,15132,41188
4081.7,-3277,-4156,15013,41055
4083.7,-3183,-4206,15016,41046
4085.7,-3345,-4163,15165,41209
4087.7,-3612,-4081,15237,41314
4089.7,-3590,-4032,15157,41247
4091.7,-3416,-4041,15131,41215
4093.7,-3429,-4034,15258,41346
4095.7,-3483,-3964,15350,41446
4097.7,-3354,-3928,15289,41368
4099.7,-3238,-3970,15211,41257
4101.7,-3323,-3995,15226,41258
4103.7,-3436,-3952,15251,41289
4105.7,-3404,-3910,15224,41257
4107.7,-3330,-3910,15206,41224
4109.7,-3358,-3943,15241,41258
4111.7,-3436,-4012,15291,41325
4113.7,-3410,-4070,15316,41367
4115.7,-3289,-4013,15315,41372
4117.7,-3277,-3853,15308,41368
4119.7,-3404,-3768,15321,41385
4121.7,-3396,-3854,15348,41411
4123.7,-3158,-3977,15349,41405
4125.7,-2990,-3972,15323,41376
4127.7,-3067,-3875,15316,41384
4129.7,-3187,-3832,15338,41426
4131.7,-3217,-3875,15349,41440
4133.7,-3220,-3900,15330,41410
4135.7,-3136,-3829,15307,41383
4137.7,-2921,-3712,15312,41394
4139.7,-2846,-3636,15365,41452
4141.7,-3073,-3615,15448,41540
4143.7,-3253,-3627,15495,41602
4145.7,-3092,-3642,15486,41607
4147.7,-2920,-3616,15503,41627
4149.7,-3155,-3565,15610,41738
4151.7,-3546,-3587,15713,41856
4153.7,-3476,-3667,15660,41812
4155.7,-2924,-3644,15482,41630
4157.7,-2586,-3510,15394,41540
4159.7,-2891,-3437,15490,41639
4161.7,-3370,-3446,15586,41739
4163.7,-3423,-3420,15520,41680
4165.7,-3203,-3401,15424,41585
4167.7,-3143,-3462,15466,41610
4169.7,-3145,-3488,15539,41661
4171.7,-2955,-3407,15485,41606
4173.7,-2825,-3330,15412,41541
4175.7,-3065,-3288,15482,41610
4177.7,-3405,-3212,15600,41721
4179.7,-3433,-3156,15603,41726
4181.7,-3244,-3175,15551,41683
4183.7,-3151,-3174,15568,41710
4185.7,-3119,-3112,15581,41740
4187.7,-2939,-3054,15488,41672
4189.7,-2719,-2980,15405,41604
4191.7,-2769,-2896,15489,41678
4193.7,-3074,-2935,15651,41817
4195.7,-3275,-3066,15706,41865
4197.7,-3221,-3072,15675,41853
4199.7,-3116,-2965,15707,41908
4201.7,-3069,-2948,15786,41992
4203.7,-2971,-2975,15793,41986
4205.7,-2861,-2891,15752,41929
4207.7,-2897,-2822,15782,41945
4209.7,-2993,-2882,15870,42023
4211.7,-2969,-2890,15904,42067
4213.7,-2899,-2794,15865,42059
4215.7,-2919,-2848,15815,42035
4217.7,-2935,-3053,15784,42013
4219.7,-2867,-3080,15772,42011
4221.7,-2856,-2914,15771,42018
4223.7,-3010,-2909,15733,41972
4225.7,-3198,-3151,15633,41867
4227.7,-3203,-3358,15529,41779
4229.7,-2956,-3366,15466,41731
4231.7,-2689,-3269,15425,41687
4233.7,-2809,-3205,15433,41697
4235.7,-3339,-3235,15545,41830
4237.7,-3719,-3292,15663,41968
4239.7,-3533,-3247,15623,41938
4241.7,-3063,-3138,15457,41781
4243.7,-2809,-3133,15355,41678
4245.7,-2917,-3232,15387,41696
4247.7,-3206,-3289,15448,41761
4249.7,-3364,-3280,15442,41780
4251.7,-3260,-3274,15382,41729
4253.7,-3222,-3268,15348,41678
4255.7,-3535,-3258,15382,41699
4257.7,-3829,-3306,15416,41734
4259.7,-3685,-3398,15375,41687
4261.7,-3388,-3427,15306,41606
4263.7,-3305,-3377,15285,41590
4265.7,-3238,-3346,15281,41598
4267.7,-3022,-3357,15252,41568
4269.7,-2913,-3324,15264,41575
4271.7,-3028,-3212,15353,41669
4273.7,-3201,-3115,15447,41772
4275.7,-3411,-3113,15500,41838
4277.7,-3641,-3181,15533,41885
4279.7,-3624,-3232,15513,41874
4281.7,-3285,-3196,15411,41781
4283.7,-3013,-3109,15330,41722
4285.7,-3105,-3104,15372,41778
4287.7,-3358,-3217,15459,41844
4289.7,-3462,-3305,15471,41821
4291.7,-3397,-3281,15437,41771
4293.7,-3304,-3260,15434,41771
4295.7,-3237,-3309,15444,41779
4297.7,-3181,-3324,15418,41740
4299.7,-3164,-3284,15380,41693
4301.7,-3214,-3298,15392,41712
4303.7,-3262,-3332,15451,41791
4305.7,-3226,-3242,15502,41862
4307.7,-3168,-3089,15507,41880
4309.7,-3185,-3055,15475,41863
4311.7,-3201,-3110,15430,41833
4313.7,-3120,-3114,15401,41811
4315.7,-3084,-3105,15420,41824
4317.7,-3218,-3172,15457,41857
4319.7,-3324,-3249,15442,41847
4321.7,-3230,-3261,15386,41800
4323.7,-3109,-3260,15386,41798
4325.7,-3107,-3269,15457,41855
4327.7,-3121,-3229,15506,41894
4329.7,-3151,-3163,15502,41893
4331.7,-3289,-3162,15497,41889
4333.7,-3361,-3207,15496,41875
4335.7,-3206,-3208,15463,41831
4337.7,-3046,-3173,15416,41788
4339.7,-3078,-3191,15376,41758
4341.7,-3165,-3271,15344,41729
4343.7,-3220,-3314,15369,41748
4345.7,-3298,-3259,15461,41823
4347.7,-3296,-3168,15490,41836
4349.7,-3193,-3138,15413,41764
4351.7,-3246,-3174,15391,41770
4353.7,-3456,-3211,15472,41874
4355.7,-3439,-3222,15480,41873
4357.7,-3198,-3252,15382,41752
4359.7,-3166,-3337,15362,41717
4361.7,-3353,-3431,15424,41771
4363.7,-3353,-3451,15400,41747
4365.7,-3170,-3367,15316,41679
4367.7,-3149,-3260,15315,41687
4369.7,-3316,-3235,15368,41714
4371.7,-3430,-3286,15389,41699
4373.7,-3336,-3287,15383,41685
4375.7,-2954,-3178,15324,41633
4377.7,-2461,-3086,15218,41521
4379.7,-2428,-3147,15251,41542
4381.7,-3089,-3271,15502,41792
4383.7,-3793,-3245,15731,42013
4385.7,-3904,-3067,15763,42020
4387.7,-3679,-2940,15747,41987
4389.7,-3602,-2934,15809,42050
4391.7,-3574,-2919,15820,42054
4393.7,-3350,-2856,15696,41905
4395.7,-3143,-2851,15584,41790
4397.7,-3238,-2895,15623,41868
4399.7,-3482,-2854,15743,42032
4401.7,-3551,-2739,15788,42087
4403.7,-3427,-2707,15722,42013
4405.7,-3324,-2795,15663,41951
4407.7,-3352,-2862,15734,42005
4409.7,-3411,-2789,15893,42127
4411.7,-3351,-2589,15992,42206
4413.7,-3212,-2354,16004,42228
4415.7,-3207,-2191,16034,42265
4417.7,-3340,-2134,16079,42309
4419.7,-3355,-2143,16001,42268
4421.7,-3263,-2202,15821,42156
4423.7,-3348,-2321,15719,42095
4425.7,-3478,-2393,15718,42096
4427.7,-3266,-2293,15700,42069
4429.7,-2925,-2154,15684,42045
4431.7,-2950,-2187,15763,42113
4433.7,-3162,-2299,15851,42209
4435.7,-3131,-2309,15823,42210
4437.7,-3008,-2329,15748,42140
4439.7,-3013,-2485,15736,42094
4441.7,-2873,-2588,15740,42065
4443.7,-2529,-2517,15693,42011
4445.7,-2494,-2479,15658,41983
4447.7,-2962,-2607,15705,42032
4449.7,-3424,-2796,15747,42074
4451.7,-3515,-3023,15647,41978
4453.7,-3486,-3338,15442,41778
4455.7,-3581,-3592,15295,41633
4457.7,-3579,-3629,15234,41571
4459.7,-3295,-3570,15138,41480
4461.7,-3025,-3602,14994,41349
4463.7,-3124,-3705,14936,41296
4465.7,-3494,-3804,14990,41338
4467.7,-3786,-3893,15030,41373
4469.7,-3817,-3942,14993,41347
4471.7,-3598,-3920,14915,41275
4473.7,-3334,-3915,14828,41179
4475.7,-3360,-4018,14776,41122
4477.7,-3696,-4130,14820,41164
4479.7,-3883,-4099,14921,41253
4481.7,-3684,-3969,14973,41290
4483.7,-3469,-3911,14962,41281
4485.7,-3476,-3953,14941,41266
4487.7,-3380,-3967,14899,41222
4489.7,-3047,-3880,14844,41162
4491.7,-2919,-3777,14866,41184
4493.7,-3185,-3765,14970,41289
4495.7,-3440,-3826,15017,41345
4497.7,-3508,-3877,14965,41309
4499.7,-3643,-3923,14911,41270
4501.7,-3761,-4051,14867,41233
4503.7,-3489,-4284,14744,41101
4505.7,-3029,-4548,14595,40893
4507.7,-2923,-4779,14574,40744
4509.7,-3100,-4957,14692,40700
4511.7,-3114,-5024,14893,40754
4513.7,-2988,-4861,15253,41012
4515.7,-2956,-4406,15855,41575
4517.7,-2861,-3753,16595,42344
4519.7,-2555,-3058,17325,43178
4521.7,-2288,-2325,17988,44100
4523.7,-2182,-1417,18481,45126
4525.7,-2037,-364,18666,46097
4527.7,-1880,563,18566,46888
4529.7,-1922,1244,18277,47537
4531.7,-2049,1845,17801,48028
4533.7,-2073,2445,17141,48223
4535.7,-2153,2888,16342,48010
4537.7,-2466,3108,15296,47320
4539.7,-3023,3231,13917,46131
4541.7,-3969,3288,12490,44660
4543.7,-5236,3148,11387,43270
4545.7,-6119,2752,10595,42110
4547.7,-6137,2164,9995,41135
4549.7,-5831,1462,9767,40435
4551.7,-5770,731,10056,40136
4553.7,-5601,57,10600,40083
4555.7,-4982,-540,11097,40037
4557.7,-4465,-1091,11598,40041
4559.7,-4527,-1587,12223,40245
4561.7,-4730,-2026,12826,40528
4563.7,-4584,-2439,13228,40660
4565.7,-4285,-2781,13512,40676
4567.7,-4084,-2960,13820,40743
4569.7,-3883,-3050,14104,40841
4571.7,-3709,-3230,14283,40880
4573.7,-3651,-3495,14399,40882
4575.7,-3485,-3707,14481,40881
4577.7,-3202,-3857,14529,40880
4579.7,-3269,-3990,14626,40961
4581.7,-3687,-4042,14808,41137
4583.7,-3839,-4020,14933,41237
4585.7,-3633,-4079,14910,41179
4587.7,-3488,-4213,14835,41088
4589.7,-3292,-4216,14772,41025
4591.7,-2849,-4073,14701,40937
4593.7,-2700,-4015,14680,40889
4595.7,-3145,-4100,14750,40951
4597.7,-3510,-4148,14812,41022
4599.7,-3390,-4098,14806,41020
4601.7,-3251,-4081,14801,41007
4603.7,-3348,-4152,14813,40999
4605.7,-3437,-4207,14798,40962
4607.7,-3507,-4150,14800,40956
4609.7,-3614,-4032,14847,41005
4611.7,-3522,-4013,14846,41000
4613.7,-3259,-4172,14769,40917
4615.7,-3163,-4324,14714,40880
4617.7,-3152,-4226,14714,40915
4619.7,-2960,-3934,14726,40948
4621.7,-2852,-3761,14782,41002
4623.7,-3143,-3863,14911,41127
4625.7,-3513,-4079,15012,41232
4627.7,-3554,-4192,15008,41228
4629.7,-3392,-4171,14966,41180
4631.7,-3306,-4094,14947,41159
4633.7,-3318,-3992,14921,41136
4635.7,-3337,-3890,14885,41099
4637.7,-3317,-3882,14887,41096
4639.7,-3251,-3998,14905,41123
4641.7,-3177,-4092,14888,41120
4643.7,-3111,-4043,14872,41101
4645.7,-3011,-3939,14906,41125
4647.7,-2914,-3901,14954,41178
4649.7,-2934,-3902,14958,41190
4651.7,-3029,-3893,14926,41150
4653.7,-3051,-3895,14890,41106
4655.7,-2999,-3899,14861,41089
4657.7,-2990,-3885,14843,41075
4659.7,-3049,-3891,14852,41060
4661.7,-3130,-3902,14914,41107
4663.7,-3204,-3817,15028,41235
4665.7,-3246,-3684,15122,41340
4667.7,-3235,-3675,15125,41330
4669.7,-3166,-3768,15072,41264
4671.7,-3046,-3776,15036,41239
4673.7,-2963,-3697,15020,41239
4675.7,-3005,-3664,14991,41214
4677.7,-3061,-3676,14956,41175
4679.7,-2963,-3675,14939,41155
4681.7,-2846,-3699,14965,41178
4683.7,-2910,-3731,15026,41230
4685.7,-2996,-3684,15047,41230
4687.7,-2918,-3620,14989,41154
4689.7,-2842,-3656,14944,41105
4691.7,-2873,-3698,14981,41149
4693.7,-2892,-3635,15054,41228
4695.7,-3053,-3596,15175,41351
4697.7,-3532,-3686,15378,41554
4699.7,-3800,-3738,15493,41672
4701.7,-3320,-3640,15353,41542
4703.7,-2673,-3540,15166,41370
4705.7,-2691,-3550,15209,41429
4707.7,-3097,-3587,15357,41592
4709.7,-3212,-3599,15356,41597
4711.7,-3135,-3601,15285,41517
4713.7,-3165,-3548,15310,41533
4715.7,-3079,-3428,15337,41566
4717.7,-2764,-3341,15261,41499
4719.7,-2597,-3359,15200,41436
4721.7,-2748,-3406,15239,41485
4723.7,-2899,-3376,15289,41566
4725.7,-2843,-3265,15295,41598
4727.7,-2772,-3181,15306,41615
4729.7,-2879,-3207,15319,41632
4731.7,-3027,-3264,15277,41601
4733.7,-2970,-3229,15209,41537
4735.7,-2769,-3144,15185,41506
4737.7,-2722,-3137,15180,41504
4739.7,-2880,-3198,15148,41493
4741.7,-2993,-3208,15131,41492
4743.7,-2952,-3130,15170,41532
4745.7,-2886,-3031,15206,41569
4747.7,-2867,-2982,15198,41575
4749.7,-2885,-3001,15216,41606
4751.7,-2975,-3009,15298,41691
4753.7,-3060,-2899,15352,41750
4755.7,-2945,-2706,15309,41715
4757.7,-2683,-2592,15250,41649
4759.7,-2604,-2604,15286,41658
4761.7,-2817,-2656,15404,41748
4763.7,-3041,-2726,15521,41848
4765.7,-3010,-2821,15596,41908
4767.7,-2752,-2836,15629,41924
4769.7,-2488,-2711,15617,41904
4771.7,-2417,-2610,15591,41885
4773.7,-2509,-2658,15596,41895
4775.7,-2570,-2735,15617,41914
4777.7,-2607,-2727,15625,41933
4779.7,-2813,-2721,15657,41988
4781.7,-3063,-2773,15718,42061
4783.7,-3046,-2781,15729,42067
4785.7,-2889,-2705,15683,42017
4787.7,-2941,-2651,15681,42014
4789.7,-3058,-2676,15728,42053
4791.7,-2923,-2743,15712,42024
4793.7,-2732,-2840,15613,41920
4795.7,-2802,-2937,15534,41846
4797.7,-2961,-2933,15518,41843
4799.7,-2953,-2842,15495,41838
4801.7,-2904,-2840,15424,41784
4803.7,-2933,-2980,15356,41712
4805.7,-2901,-3086,15328,41662
4807.7,-2795,-3057,15312,41632
4809.7,-2808,-2996,15293,41620
4811.7,-2991,-3002,15310,41645
4813.7,-3232,-3062,15364,41695
4815.7,-3436,-3130,15384,41717
4817.7,-3466,-3136,15339,41690
4819.7,-3266,-3035,15295,41652
4821.7,-3087,-2923,15287,41631
4823.7,-3154,-2937,15263,41610
4825.7,-3297,-3032,15217,41591
4827.7,-3301,-3076,15216,41614
4829.7,-3216,-3078,15240,41645
4831.7,-3067,-3126,15180,41592
4833.7,-2838,-3196,15052,41470
4835.7,-2721,-3192,15009,41420
4837.7,-2794,-3068,15080,41477
4839.7,-2795,-2881,15140,41535
4841.7,-2682,-2781,15140,41548
4843.7,-2746,-2879,15135,41555
4845.7,-2923,-3050,15113,41535
4847.7,-2925,-3062,15065,41483
4849.7,-2951,-2914,15098,41509
4851.7,-3264,-2777,15246,41653
4853.7,-3510,-2716,15353,41762
4855.7,-3395,-2744,15332,41744
4857.7,-3279,-2920,15307,41717
4859.7,-3382,-3148,15350,41757
4861.7,-3359,-3187,15363,41773
4863.7,-3100,-3030,15303,41716
4865.7,-2944,-2915,15256,41661
4867.7,-2971,-2928,15255,41653
4869.7,-2970,-2942,15263,41666
4871.7,-2942,-2883,15277,41687
4873.7,-2982,-2800,15292,41699
4875.7,-3036,-2784,15263,41665
4877.7,-3098,-2869,15208,41611
4879.7,-3216,-2941,15198,41597
4881.7,-3274,-2879,15235,41626
4883.7,-3191,-2802,15259,41663
4885.7,-3059,-2891,15223,41662
4887.7,-2870,-3032,15108,41566
4889.7,-2625,-3008,14999,41443
4891.7,-2634,-2890,15057,41493
4893.7,-3011,-2862,15257,41708
4895.7,-3288,-2888,15362,41815
4897.7,-3190,-2854,15310,41732
4899.7,-3069,-2799,15283,41669
4901.7,-3080,-2793,15318,41681
4903.7,-2934,-2815,15281,41622
4905.7,-2675,-2843,15200,41525
4907.7,-2643,-2882,15188,41519
4909.7,-2790,-2902,15191,41537
4911.7,-2892,-2872,15162,41500
4913.7,-3002,-2819,15183,41511
4915.7,-3134,-2776,15241,41585
4917.7,-3138,-2751,15219,41584
4919.7,-3077,-2749,15146,41508
4921.7,-3097,-2764,15118,41478
4923.7,-3115,-2788,15100,41478
4925.7,-3082,-2830,15055,41437
4927.7,-3108,-2891,15032,41396
4929.7,-3133,-2922,15024,41390
4931.7,-3004,-2874,15000,41386
4933.7,-2776,-2729,15012,41393
4935.7,-2594,-2532,15071,41426
4937.7,-2573,-2436,15084,41436
4939.7,-2779,-2575,15030,41396
4941.7,-2954,-2815,14973,41329
4943.7,-2752,-2870,14928,41263
4945.7,-2490,-2722,14938,41279
4947.7,-2764,-2590,15084,41444
4949.7,-3302,-2537,15276,41635
4951.7,-3392,-2473,15332,41678
4953.7,-3138,-2399,15305,41633
4955.7,-3077,-2336,15371,41670
4957.7,-3157,-2207,15501,41770
4959.7,-3139,-2074,15545,41804
4961.7,-3157,-2117,15489,41760
4963.7,-3209,-2248,15413,41693
4965.7,-3034,-2217,15346,41630
4967.7,-2766,-2101,15299,41591
4969.7,-2785,-2164,15308,41605
4971.7,-2977,-2311,15372,41668
4973.7,-2992,-2256,15450,41745
4975.7,-2901,-2070,15493,41792
4977.7,-2932,-2006,15490,41791
4979.7,-3009,-2011,15499,41806
4981.68,-3034,-1873,15584,41902
4983.65,-3068,-1625,15693,42021
4985.63,-3049,-1452,15712,42057
4987.6,-2873,-1430,15629,42020
4989.6,-2734,-1548,15529,41977
4991.6,-2840,-1738,15457,41926
4993.6,-3019,-1848,15420,41872
4995.6,-2975,-1776,15423,41860
4997.6,-2683,-1597,15424,41859
4999.6,-2369,-1453,15379,41804
5001.6,-2319,-1441,15343,41751
5003.6,-2579,-1622,15358,41762
5005.6,-2811,-1932,15369,41771
5007.6,-2755,-2123,15379,41763
5009.6,-2621,-2069,15453,41810
5011.6,-2635,-1976,15529,41869
5013.6,-2681,-2043,15518,41861
5015.6,-2705,-2166,15509,41857
5017.6,-2820,-2242,15518,41863
5019.6,-2875,-2401,15352,41697
5021.6,-2661,-2650,15011,41370
5023.6,-2471,-2775,14791,41162
5025.6,-2694,-2769,14797,41157
5027.6,-3112,-2832,14850,41195
5029.6,-3285,-2935,14872,41224
5031.6,-3229,-2967,14872,41237
5033.6,-3196,-3064,14772,41126
5035.6,-3210,-3258,14623,40949
5037.6,-3180,-3292,14606,40907
5039.6,-3084,-3149,14656,40941
5041.6,-2966,-3133,14590,40870
5043.6,-2985,-3249,14518,40811
5045.6,-3252,-3235,14600,40919
5047.6,-3520,-3139,14686,41035
5049.6,-3477,-3159,14647,41019
5051.6,-3282,-3184,14638,41015
5053.6,-3259,-3083,14731,41089
5055.6,-3292,-3052,14750,41089
5057.6,-3137,-3224,14651,40985
5059.6,-2970,-3390,14605,40934
5061.6,-3038,-3363,14654,40972
5063.6,-3161,-3241,14667,40981
5065.6,-3105,-3175,14609,40932
5067.6,-2993,-3210,14556,40881
5069.6,-2938,-3378,14497,40810
5071.6,-2807,-3664,14394,40675
5073.6,-2653,-3945,14337,40540
5075.6,-2730,-4125,14422,40481
5077.6,-2874,-4186,14580,40465
5079.6,-2685,-4060,14767,40515
5081.6,-2311,-3690,15141,40823
5083.6,-2193,-3198,15786,41461
5085.6,-2273,-2750,16531,42248
5087.6,-2306,-2264,17249,43093
5089.6,-2340,-1532,17948,44105
5091.6,-2263,-584,18454,45179
5093.6,-1781,346,18489,45999
5095.6,-1201,1144,18141,46559
5097.6,-1118,1851,17717,47105
5099.6,-1379,2482,17229,47572
5101.6,-1452,3014,16533,47661
5103.6,-1463,3459,15690,47337
5105.6,-1914,3817,14752,46695
5107.6,-2854,4045,13593,45648
5109.6,-3978,4120,12272,44231
5111.6,-5019,4009,11116,42807
5113.6,-5725,3610,10285,41647
5115.6,-5900,2888,9723,40721
5117.6,-5627,2014,9510,40033
5119.6,-5240,1229,9776,39711
5121.6,-4994,638,10382,39713
5123.6,-4800,172,11031,39823
5125.6,-4449,-292,11584,39915
5127.6,-4049,-827,12061,40006
5129.6,-3865,-1365,12479,40107
5131.6,-3757,-1768,12825,40190
5133.6,-3418,-2008,13111,40243
5135.6,-3080,-2214,13389,40308
5137.6,-3154,-2484,13708,40444
5139.6,-3386,-2756,14011,40607
5141.6,-3285,-2941,14172,40665
5143.6,-3027,-3053,14208,40627
5145.6,-3017,-3135,14276,40644
5147.6,-3106,-3196,14407,40738
5149.6,-3029,-3280,14481,40780
5151.6,-2984,-3422,14498,40770
5153.6,-3114,-3513,14556,40807
5155.6,-3109,-3411,14615,40850
5157.6,-2811,-3192,14575,40803
5159.6,-2556,-3084,14509,40740
5161.6,-2621,-3176,14524,40756
5163.6,-2869,-3338,14569,40794
5165.6,-3053,-3414,14564,40786
5167.6,-3051,-3401,14540,40765
5169.6,-2888,-3399,14533,40756
5171.6,-2739,-3441,14522,40734
5173.6,-2711,-3466,14500,40692
5175.6,-2688,-3434,14496,40667
5177.6,-2635,-3368,14539,40694
5179.6,-2697,-3330,14603,40754
5181.6,-2791,-3396,14597,40752
5183.6,-2739,-3553,14517,40681
5185.6,-2687,-3642,14499,40680
5187.6,-2707,-3560,14563,40763
5189.6,-2530,-3425,14561,40765
5191.6,-2323,-3371,14532,40726
5193.6,-2619,-3366,14665,40851
5195.6,-3100,-3348,14845,41032
5197.6,-2982,-3332,14808,40998
5199.6,-2555,-3305,14670,40863
5201.6,-2632,-3240,14691,40891
5203.6,-2968,-3197,14775,40980
5205.6,-2849,-3197,14745,40943
5207.6,-2434,-3130,14705,40892
5209.6,-2247,-2986,14740,40927
5211.6,-2238,-2953,14726,40920
5213.6,-2185,-3109,14636,40842
5215.6,-2188,-3270,14601,40822
5217.6,-2363,-3300,14646,40878
5219.6,-2622,-3277,14699,40929
5221.6,-2807,-3262,14744,40967
5223.6,-2810,-3199,14765,40985
5225.6,-2687,-3121,14733,40959
5227.6,-2631,-3132,14703,40943
5229.6,-2630,-3173,14728,40982
5231.6,-2480,-3095,14747,41003
5233.6,-2260,-2955,14726,40969
5235.6,-2257,-2939,14736,40953
5237.6,-2395,-3039,14782,40969
5239.6,-2408,-3089,14795,40972
5241.6,-2411,-3054,14798,40980
5243.6,-2561,-3026,14822,41002
5245.6,-2617,-3033,14789,40954
5247.6,-2449,-3052,14693,40851
5249.6,-2330,-3096,14666,40824
5251.6,-2326,-3137,14714,40867
5253.6,-2270,-3123,14735,40895
5255.6,-2346,-3084,14794,40971
5257.6,-2662,-3065,14957,41137
5259.6,-2704,-3009,15039,41203
5261.6,-2260,-2889,14927,41091
5263.6,-2045,-2814,14861,41037
5265.6,-2409,-2871,14974,41152
5267.6,-2560,-2947,15014,41191
5269.6,-2033,-2893,14857,41042
5271.6,-1633,-2734,14796,40978
5273.6,-2031,-2624,14998,41164
5275.6,-2626,-2625,15196,41365
5277.6,-2637,-2650,15158,41340
5279.6,-2275,-2623,15018,41199
5281.6,-2130,-2574,14983,41161
5283.6,-2189,-2554,15024,41215
5285.6,-2099,-2547,15012,41221
5287.6,-1896,-2520,14953,41172
5289.6,-1889,-2490,14946,41182
5291.6,-2055,-2485,15010,41265
5293.6,-2097,-2479,15048,41309
5295.6,-2007,-2426,15007,41274
5297.6,-2039,-2350,14959,41255
5299.6,-2147,-2315,14968,41293
5301.6,-2029,-2310,14977,41311
5303.6,-1718,-2271,14923,41270
5305.6,-1578,-2223,14859,41236
5307.6,-1774,-2254,14881,41275
5309.6,-2150,-2335,14984,41377
5311.6,-2436,-2339,15086,41474
5313.6,-2410,-2239,15123,41503
5315.6,-2134,-2122,15105,41473
5317.6,-1977,-2035,15068,41438
5319.6,-2111,-1970,15025,41406
5321.6,-2256,-1942,14988,41361
5323.6,-2182,-1963,14997,41352
5325.6,-2065,-2004,15077,41431
5327.6,-2115,-2037,15186,41530
5329.6,-2230,-2062,15233,41548
5331.6,-2186,-2057,15198,41501
5333.6,-1965,-1979,15166,41483
5335.6,-1795,-1880,15206,41517
5337.6,-1908,-1880,15290,41574
5339.6,-2219,-1966,15382,41653
5341.6,-2370,-2000,15454,41719
5343.6,-2195,-1971,15440,41687
5345.6,-1985,-1997,15352,41597
5347.6,-2085,-2079,15356,41622
5349.6,-2345,-2096,15497,41769
5351.6,-2340,-2034,15579,41832
5353.6,-2048,-1959,15516,41766
5355.6,-1863,-1873,15488,41759
5357.6,-1972,-1818,15568,41843
5359.6,-2168,-1892,15595,41849
5361.6,-2235,-2038,15511,41750
5363.6,-2176,-2095,15425,41666
5365.6,-2113,-2088,15374,41616
5367.6,-2143,-2125,15320,41560
5369.6,-2242,-2156,15278,41523
5371.6,-2310,-2142,15247,41492
5373.6,-2322,-2204,15183,41420
5375.6,-2306,-2337,15127,41360
5377.6,-2232,-2351,15143,41377
5379.6,-2116,-2249,15170,41401
5381.6,-2117,-2249,15125,41360
5383.6,-2320,-2354,15056,41315
5385.6,-2475,-2354,15014,41293
5387.6,-2249,-2251,14947,41209
5389.6,-1858,-2254,14856,41084
5391.6,-1985,-2368,14879,41101
5393.6,-2704,-2393,15057,41296
5395.6,-3132,-2298,15208,41453
5397.6,-2767,-2251,15175,41416
5399.6,-2259,-2323,15020,41275
5401.6,-2196,-2406,14894,41178
5403.6,-2282,-2402,14877,41175
5405.6,-2279,-2299,14968,41259
5407.6,-2435,-2159,15072,41363
5409.6,-2628,-2105,15072,41376
5411.6,-2485,-2211,14992,41301
5413.6,-2284,-2391,14970,41272
5415.6,-2468,-2492,15038,41337
5417.6,-2709,-2461,15089,41395
5419.6,-2568,-2369,15081,41386
5421.6,-2353,-2307,15066,41360
5423.6,-2403,-2279,15053,41337
5425.6,-2433,-2214,15000,41284
5427.6,-2257,-2125,14935,41231
5429.6,-2200,-2153,14929,41248
5431.6,-2346,-2330,14970,41301
5433.6,-2354,-2490,14979,41296
5435.6,-2246,-2532,14958,41255
5437.6,-2365,-2536,14972,41268
5439.6,-2549,-2520,14992,41290
5441.6,-2367,-2409,14940,41235
5443.6,-2067,-2280,14897,41196
5445.6,-2238,-2288,15007,41316
5447.6,-2722,-2344,15201,41502
5449.6,-2869,-2270,15284,41573
5451.6,-2628,-2156,15235,41537
5453.6,-2473,-2198,15157,41488
5455.6,-2488,-2311,15079,41418
5457.6,-2366,-2288,15008,41334
5459.6,-2136,-2185,15012,41330
5461.6,-2141,-2186,15081,41398
5463.6,-2372,-2282,15096,41405
5465.6,-2469,-2364,15009,41315
5467.6,-2336,-2422,14919,41234
5469.6,-2210,-2449,14901,41231
5471.6,-2163,-2384,14921,41257
5473.6,-2117,-2267,14940,41280
5475.6,-2171,-2218,14979,41328
5477.6,-2334,-2237,15022,41381
5479.6,-2324,-2265,15004,41364
5481.6,-2158,-2303,14951,41303
5483.6,-2257,-2322,14964,41310
5485.6,-2569,-2264,15002,41353
5487.6,-2591,-2220,14958,41312
5489.6,-2439,-2316,14917,41262
5491.6,-2584,-2452,14998,41327
5493.6,-2729,-2445,15054,41376
5495.6,-2431,-2351,14947,41274
5497.6,-2211,-2346,14868,41206
5499.6,-2546,-2418,14978,41327
5501.6,-2771,-2440,15061,41416
5503.6,-2400,-2407,14947,41297
5505.6,-2158,-2408,14841,41184
5507.6,-2534,-2467,14903,41246
5509.6,-2847,-2513,14963,41303
5511.6,-2647,-2488,14900,41225
5513.6,-2483,-2419,14864,41174
5515.6,-2676,-2369,14946,41248
5517.6,-2760,-2314,15010,41313
5519.6,-2492,-2172,14989,41304
5521.6,-2239,-1985,14998,41321
5523.6,-2207,-1893,15096,41404
5525.6,-2200,-1930,15193,41471
5527.6,-2170,-1995,15238,41495
5529.6,-2284,-2004,15291,41537
5531.6,-2462,-1960,15362,41592
5533.6,-2394,-1902,15353,41578
5535.6,-2068,-1891,15248,41491
5537.6,-1914,-1958,15196,41449
5539.6,-2232,-2043,15295,41529
5541.6,-2706,-2050,15424,41644
5543.6,-2790,-1953,15440,41673
5545.6,-2475,-1797,15402,41649
5547.6,-2238,-1642,15426,41668
5549.6,-2308,-1545,15487,41726
5551.6,-2517,-1525,15533,41787
5553.6,-2691,-1526,15591,41859
5555.6,-2678,-1469,15610,41885
5557.6,-2394,-1366,15504,41790
5559.6,-2178,-1316,15393,41693
5561.6,-2417,-1356,15423,41738
5563.6,-2762,-1416,15474,41802
5565.6,-2662,-1444,15416,41751
5567.6,-2371,-1469,15386,41718
5569.6,-2358,-1499,15448,41781
5571.6,-2397,-1500,15437,41771
5573.6,-2250,-1518,15356,41670
5575.6,-2268,-1640,15398,41680
5577.6,-2527,-1793,15516,41785
5579.6,-2545,-1801,15516,41792
5581.6,-2283,-1701,15455,41730
5583.6,-2232,-1726,15462,41717
5585.6,-2418,-1928,15448,41679
5587.6,-2426,-2129,15329,41551
5589.6,-2236,-2248,15187,41421
5591.6,-2134,-2364,15045,41297
5593.6,-2191,-2484,14867,41114
5595.6,-2378,-2559,14751,40980
5597.6,-2686,-2628,14782,41013
5599.6,-2878,-2727,14833,41077
5601.6,-2749,-2832,14781,41010
5603.6,-2606,-2937,14719,40910
5605.6,-2807,-3005,14741,40913
5607.6,-3094,-2947,14745,40925
5609.6,-3070,-2839,14657,40842
5611.6,-2917,-2891,14589,40778
5613.6,-2994,-3086,14619,40831
5615.6,-3159,-3181,14632,40878
5617.6,-3062,-3101,14548,40815
5619.6,-2730,-2987,14484,40755
5621.6,-2465,-2937,14540,40815
5623.6,-2399,-2958,14604,40887
5625.6,-2422,-3024,14552,40840
5627.6,-2437,-3039,14475,40753
5629.6,-2491,-2959,14515,40765
5631.6,-2599,-2928,14604,40824
5633.6,-2632,-3039,14589,40796
5635.6,-2559,-3146,14489,40703
5637.6,-2560,-3183,14422,40649
5639.6,-2698,-3337,14397,40630
5641.6,-2768,-3649,14370,40569
5643.6,-2636,-3871,14370,40461
5645.6,-2417,-3902,14437,40352
5647.6,-2266,-3885,14581,40314
5649.6,-2218,-3821,14854,40460
5651.6,-2207,-3558,15288,40854
5653.6,-2137,-3114,15851,41457
5655.6,-2046,-2584,16560,42258
5657.6,-2033,-1899,17389,43251
5659.6,-1951,-1025,18053,44272
5661.6,-1596,-116,18277,45133
5663.6,-1197,722,18185,45887
5665.6,-1094,1522,17993,46623
5667.6,-1145,2274,17602,47200
5669.6,-1120,2937,16963,47491
5671.6,-1216,3527,16294,47534
5673.6,-1606,3976,15564,47210
5675.6,-2169,4161,14439,46286
5677.6,-2991,4148,12998,44901
5679.6,-4197,4110,11713,43476
5681.6,-5287,3956,10726,42174
5683.6,-5675,3424,9910,40993
5685.6,-5584,2530,9433,40118
5687.6,-5479,1611,9508,39678
5689.6,-5254,935,9935,39484
5691.6,-4790,494,10456,39404
5693.6,-4385,128,11074,39515
5695.6,-4024,-304,11688,39707
5697.6,-3425,-837,12060,39731
5699.6,-3038,-1355,12327,39725
5701.6,-3492,-1719,12844,40004
5703.6,-4170,-1937,13483,40406
5705.6,-4052,-2147,13833,40545
5707.6,-3507,-2417,13950,40495
5709.6,-3453,-2678,14150,40563
5711.6,-3582,-2851,14371,40681
5713.6,-3185,-2929,14396,40640
5715.6,-2655,-2953,14341,40546
5717.6,-2672,-3004,14409,40587
5719.6,-2989,-3136,14531,40689
5721.6,-3079,-3283,14585,40723
5723.6,-2972,-3320,14605,40718
5725.6,-2901,-3242,14630,40725
5727.6,-2889,-3182,14624,40712
5729.6,-2873,-3214,14575,40650
5731.6,-2786,-3267,14502,40560
5733.6,-2645,-3250,14439,40506
5735.6,-2630,-3201,14445,40539
5737.6,-2767,-3251,14503,40603
5739.6,-2771,-3397,14501,40588
5741.6,-2602,-3455,14449,40538
5743.6,-2623,-3326,14506,40608
5745.6,-2904,-3167,14690,40782
5747.6,-3038,-3130,14807,40875
5749.6,-2929,-3151,14770,40830
5751.6,-2947,-3151,14713,40776
5753.6,-3123,-3185,14725,40782
5755.6,-3037,-3250,14727,40781
5757.6,-2679,-3243,14674,40744
5759.6,-2582,-3212,14661,40748
5761.6,-2890,-3308,14737,40825
5763.6,-3095,-3456,14802,40881
5765.6,-2918,-3436,14777,40847
5767.6,-2719,-3267,14735,40795
5769.6,-2788,-3167,14760,40814
5771.6,-2905,-3195,14787,40847
5773.6,-2835,-3244,14723,40793
5775.6,-2720,-3270,14624,40700
5777.6,-2748,-3298,14607,40688
5779.6,-2852,-3302,14668,40747
5781.6,-2920,-3264,14726,40789
5783.6,-2978,-3229,14769,40822
5785.6,-2988,-3188,14825,40884
5787.6,-2764,-3093,14839,40892
5789.6,-2367,-3006,14746,40781
5791.6,-2229,-3025,14645,40684
5793.6,-2560,-3091,14696,40753
5795.6,-2955,-3073,14864,40913
5797.6,-2968,-2988,14966,40997
5799.6,-2720,-2935,14956,40993
5801.6,-2556,-2936,14927,40974
5803.6,-2519,-2957,14907,40947
5805.6,-2523,-2973,14878,40917
5807.6,-2612,-2962,14879,40937
5809.6,-2752,-2927,14916,40987
5811.6,-2781,-2889,14906,40986
5813.6,-2738,-2843,14850,40952
5815.6,-2791,-2801,14859,40971
5817.6,-2823,-2816,14939,41024
5819.6,-2614,-2864,14955,41016
5821.6,-2365,-2861,14881,40950
5823.6,-2439,-2835,14850,40925
5825.6,-2701,-2861,14919,40972
5827.6,-2749,-2911,14984,41017
5829.6,-2618,-2929,14962,41006
5831.6,-2622,-2928,14917,40989
5833.6,-2747,-2903,14934,41026
5835.6,-2772,-2844,14988,41084
5837.6,-2719,-2807,15031,41115
5839.6,-2693,-2817,15071,41137
5841.6,-2596,-2810,15099,41154
5843.6,-2413,-2763,15056,41115
5845.6,-2384,-2722,14977,41056
5847.6,-2581,-2690,14990,41095
5849.6,-2705,-2655,15092,41213
5851.6,-2557,-2646,15133,41250
5853.6,-2341,-2684,15072,41168
5855.6,-2335,-2723,15059,41126
5857.6,-2512,-2702,15160,41213
5859.6,-2618,-2629,15232,41296
5861.6,-2539,-2589,15174,41258
5863.6,-2476,-2631,15103,41196
5865.6,-2610,-2675,15132,41232
5867.6,-2735,-2608,15173,41292
5869.6,-2587,-2458,15130,41271
5871.6,-2362,-2364,15087,41242
5873.6,-2428,-2366,15140,41307
5875.6,-2672,-2371,15210,41397
5877.6,-2689,-2304,15186,41395
5879.6,-2478,-2205,15106,41328
5881.6,-2390,-2141,15081,41315
5883.6,-2499,-2102,15128,41380
5885.6,-2541,-2071,15146,41415
5887.6,-2426,-2086,15074,41348
5889.6,-2331,-2126,15009,41275
5891.6,-2316,-2088,15060,41316
5893.6,-2260,-1981,15158,41418
5895.6,-2166,-1935,15180,41450
5897.6,-2176,-1970,15163,41425
5899.6,-2291,-1984,15209,41436
5901.6,-2361,-1952,15295,41482
5903.6,-2332,-1919,15342,41508
5905.6,-2331,-1908,15367,41540
5907.6,-2486,-1952,15428,41626
5909.6,-2669,-2064,15506,41709
5911.6,-2554,-2141,15513,41679
5913.6,-2134,-2084,15420,41541
5915.6,-1949,-1965,15347,41454
5917.6,-2366,-1925,15420,41540
5919.6,-2897,-1980,15563,41704
5921.6,-2837,-2018,15610,41761
5923.6,-2334,-1974,15565,41700
5925.6,-2098,-1922,15551,41647
5927.6,-2306,-1955,15566,41647
5929.6,-2521,-2029,15540,41638
5931.6,-2504,-2029,15490,41585
5933.6,-2454,-1979,15447,41509
5935.6,-2514,-2005,15392,41454
5937.6,-2579,-2144,15344,41456
5939.6,-2623,-2313,15345,41505
5941.6,-2759,-2418,15353,41537
5943.6,-2897,-2423,15297,41494
5945.6,-2777,-2373,15186,41382
5947.6,-2503,-2357,15097,41266
5949.6,-2511,-2406,15079,41232
5951.6,-2848,-2456,15121,41290
5953.6,-3049,-2449,15158,41335
5955.6,-2884,-2386,15147,41287
5957.6,-2653,-2323,15122,41213
5959.6,-2625,-2334,15134,41200
5961.6,-2700,-2428,15152,41225
5963.6,-2707,-2501,15130,41226
5965.6,-2664,-2482,15100,41219
5967.6,-2634,-2452,15097,41223
5969.6,-2604,-2491,15077,41190
5971.6,-2618,-2543,15028,41125
5973.6,-2758,-2540,15035,41127
5975.6,-2898,-2524,15105,41200
5977.6,-2836,-2549,15129,41219
5979.6,-2683,-2585,15083,41154
5981.6,-2642,-2570,15043,41100
5983.6,-2559,-2504,15004,41073
5985.6,-2294,-2443,14932,41021
5987.6,-2203,-2414,14930,41019
5989.6,-2582,-2379,15095,41170
5991.6,-3056,-2349,15293,41360
5993.6,-3128,-2417,15307,41378
5995.6,-2895,-2578,15131,41223
5997.6,-2747,-2653,14966,41097
5999.6,-2728,-2559,14945,41105
6001.6,-2626,-2461,15005,41151
6003.6,-2457,-2486,15044,41157
6005.6,-2420,-2501,15068,41164
6007.6,-2524,-2403,15099,41202
6009.6,-2646,-2340,15119,41230
6011.6,-2800,-2433,15138,41258
6013.6,-2991,-2522,15191,41327
6015.6,-3035,-2456,15233,41379
6017.6,-2855,-2367,15202,41345
6019.6,-2653,-2393,15151,41293
6021.6,-2624,-2429,15168,41316
6023.6,-2789,-2409,15223,41369
6025.6,-3036,-2476,15221,41343
6027.6,-3125,-2641,15155,41244
6029.6,-2943,-2687,15095,41171
6031.6,-2773,-2593,15085,41177
6033.6,-2837,-2587,15102,41218
6035.6,-2862,-2683,15108,41241
6037.6,-2674,-2665,15110,41258
6039.6,-2593,-2534,15127,41288
6041.6,-2706,-2479,15130,41293
6043.6,-2673,-2511,15093,41240
6045.6,-2542,-2511,15065,41187
6047.6,-2642,-2474,15097,41200
6049.6,-2738,-2464,15123,41231
6051.6,-2493,-2490,15073,41212
6053.6,-2343,-2536,15035,41207
6055.6,-2684,-2574,15093,41281
6057.6,-2977,-2570,15133,41335
6059.6,-2756,-2558,15050,41270
6061.6,-2502,-2594,14954,41182
6063.6,-2616,-2649,14940,41164
6065.6,-2714,-2658,14915,41143
6067.6,-2585,-2641,14849,41089
6069.6,-2595,-2649,14864,41099
6071.6,-2797,-2660,14952,41161
6073.6,-2816,-2635,14975,41162
6075.6,-2653,-2609,14948,41129
6077.6,-2571,-2629,14969,41144
6079.6,-2540,-2648,14980,41137
6081.6,-2544,-2627,14926,41071
6083.6,-2722,-2626,14907,41069
6085.6,-2857,-2657,14957,41158
6087.6,-2681,-2622,14975,41196
6089.6,-2567,-2512,14979,41189
6091.6,-2824,-2447,15071,41258
6093.6,-2942,-2436,15186,41347
6095.6,-2654,-2398,15217,41343
6097.6,-2627,-2375,15255,41341
6099.6,-3134,-2425,15393,41449
6101.6,-3404,-2433,15497,41538
6103.6,-3067,-2319,15442,41477
6105.6,-2780,-2224,15335,41375
6107.6,-2903,-2270,15297,41352
6109.6,-2939,-2346,15266,41332
6111.6,-2664,-2328,15198,41260
6113.6,-2545,-2281,15199,41259
6115.6,-2770,-2280,15326,41394
6117.6,-2911,-2231,15454,41520
6119.6,-2753,-2053,15482,41524
6121.6,-2575,-1851,15485,41505
6123.6,-2551,-1727,15541,41567
6125.6,-2573,-1639,15588,41652
6127.6,-2624,-1596,15554,41674
6129.6,-2751,-1699,15474,41642
6131.6,-2839,-1883,15414,41590
6133.6,-2801,-1949,15392,41531
6135.6,-2742,-1899,15392,41492
6137.6,-2740,-1887,15395,41498
6139.6,-2754,-1922,15396,41533
6141.6,-2756,-1938,15390,41547
6143.6,-2711,-1991,15365,41508
6145.6,-2591,-2087,15355,41468
6147.6,-2495,-2095,15411,41504
6149.6,-2523,-2012,15476,41572
6151.6,-2579,-2012,15445,41562
6153.6,-2573,-2131,15378,41506
6155.6,-2606,-2224,15390,41511
6157.6,-2719,-2268,15385,41495
6159.6,-2737,-2387,15195,41296
6161.6,-2621,-2592,14916,40993
6163.6,-2677,-2779,14804,40848
6165.6,-3111,-2926,14900,40924
6167.6,-3540,-3081,14969,40992
6169.6,-3427,-3239,14838,40864
6171.6,-2981,-3359,14630,40661
6173.6,-2900,-3416,14559,40604
6175.6,-3187,-3390,14594,40655
6177.6,-3183,-3306,14552,40622
6179.6,-2853,-3244,14445,40520
6181.6,-2854,-3253,14430,40513
6183.6,-3282,-3303,14514,40588
6185.6,-3492,-3360,14575,40611
6187.6,-3216,-3424,14574,40570
6189.6,-2921,-3499,14567,40552
6191.6,-3013,-3578,14584,40584
6193.6,-3278,-3631,14599,40624
6195.6,-3263,-3599,14554,40607
6197.6,-2967,-3473,14468,40539
6199.6,-2836,-3368,14450,40517
6201.6,-3040,-3370,14520,40572
6203.6,-3199,-3415,14535,40584
6205.6,-3036,-3445,14416,40483
6207.6,-2789,-3525,14280,40376
6209.6,-2706,-3694,14239,40343
6211.6,-2669,-3894,14261,40318
6213.6,-2560,-4101,14298,40249
6215.6,-2509,-4325,14388,40193
6217.6,-2537,-4491,14558,40195
6219.6,-2423,-4472,14773,40260
6221.6,-2179,-4208,15074,40490
6223.6,-2199,-3752,15607,41059
6225.6,-2559,-3209,16419,41985
6227.6,-2772,-2589,17342,43076
6229.6,-2568,-1765,18117,44158
6231.6,-2274,-729,18537,45162
6233.6,-2159,260,18525,46004
6235.6,-2113,1021,18197,46610
6237.6,-2077,1672,17720,47020
6239.6,-2126,2295,17121,47275
6241.6,-2228,2751,16359,47278
6243.6,-2361,3011,15444,46876
6245.6,-2686,3240,14324,45997
6247.6,-3397,3452,12939,44694
6249.6,-4529,3468,11488,43159
6251.6,-5747,3228,10286,41636
6253.6,-6434,2770,9396,40299
6255.6,-6380,2040,8798,39278
6257.6,-6072,1082,8677,38704
6259.6,-5895,185,9112,38545
6261.6,-5629,-446,9785,38577
6263.6,-5127,-935,10398,38660
6265.6,-4692,-1439,10993,38842
6267.6,-4486,-1916,11619,39111
6269.6,-4283,-2273,12143,39338
6271.6,-3991,-2513,12541,39505
6273.6,-3795,-2694,12942,39686
6275.6,-3722,-2885,13336,39851
6277.6,-3604,-3129,13619,39933
6279.6,-3477,-3367,13857,40031
6281.6,-3530,-3503,14164,40246
6283.6,-3640,-3554,14424,40455
6285.6,-3496,-3627,14473,40470
6287.6,-3205,-3765,14406,40356
6289.6,-3166,-3908,14430,40326
6291.6,-3340,-3977,14531,40408
6293.6,-3323,-3951,14567,40450
6295.6,-3072,-3873,14539,40417
6297.6,-2892,-3815,14527,40399
6299.6,-2863,-3823,14511,40392
6301.6,-2863,-3865,14476,40345
6303.6,-2940,-3877,14500,40318
6305.6,-3194,-3873,14590,40367
6307.6,-3481,-3936,14632,40399
6309.6,-3465,-4064,14561,40326
6311.6,-2994,-4150,14429,40199
6313.6,-2452,-4143,14363,40143
6315.6,-2479,-4089,14486,40248
6317.6,-3099,-4037,14745,40466
6319.6,-3608,-4016,14887,40595
6321.6,-3564,-4052,14801,40541
6323.6,-3287,-4107,14679,40457
6325.6,-3175,-4112,14668,40478
6327.6,-3195,-4075,14695,40534
6329.6,-3185,-4031,14720,40568
6331.6,-3139,-3957,14799,40619
6333.6,-3101,-3867,14871,40654
6335.6,-3049,-3838,14846,40614
6337.6,-2950,-3853,14807,40577
6339.6,-2877,-3828,14855,40625
6341.6,-2944,-3773,14918,40678
6343.6,-3041,-3757,14901,40631
6345.6,-2948,-3774,14825,40517
6347.6,-2782,-3791,14740,40427
6349.6,-2856,-3811,14698,40415
6351.6,-3045,-3817,14753,40484
6353.6,-2918,-3799,14847,40555
6355.6,-2569,-3802,14837,40545
6357.6,-2585,-3824,14783,40537
6359.5,-3086,-3790,14900,40686
6361.5,-3473,-3732,15127,40900
6363.5,-3308,-3758,15166,40922
6365.5,-2909,-3810,15015,40760
6367.5,-2772,-3755,14957,40665
6369.5,-2848,-3694,15005,40676
6371.5,-2834,-3810,14950,40622
6373.5,-2804,-3976,14871,40561
6375.5,-3005,-3951,14990,40683
6377.5,-3258,-3803,15175,40876
6379.5,-3186,-3739,15172,40905
6381.5,-2883,-3744,15063,40828
6383.5,-2747,-3731,15031,40807
6385.5,-2825,-3731,15044,40810
6387.5,-2886,-3738,15056,40803
6389.5,-2912,-3707,15120,40853
6391.5,-3013,-3722,15186,40912
6393.5,-3077,-3850,15161,40870
6395.5,-2947,-3940,15114,40798
6397.5,-2777,-3860,15134,40816
6399.5,-2825,-3711,15169,40884
6401.5,-3039,-3649,15172,40924
6403.5,-3136,-3687,15162,40927
6405.5,-3003,-3719,15141,40903
6407.5,-2789,-3642,15134,40887
6409.5,-2665,-3511,15199,40941
6411.5,-2664,-3511,15295,41031
6413.5,-2698,-3666,15306,41054
6415.5,-2684,-3755,15244,41008
6417.5,-2654,-3662,15222,40983
6419.5,-2691,-3534,15268,41011
6421.5,-2807,-3484,15334,41068
6423.5,-2991,-3453,15395,41135
6425.5,-3150,-3414,15418,41165
6427.5,-3002,-3436,15332,41086
6429.5,-2512,-3507,15180,40945
6431.5,-2320,-3519,15161,40944
6433.5,-2909,-3432,15349,41175
6435.5,-3616,-3327,15542,41434
6437.5,-3509,-3274,15546,41487
6439.5,-2850,-3257,15421,41369
6441.5,-2565,-3242,15299,41238
6443.5,-2750,-3230,15206,41132
6445.5,-2820,-3221,15140,41041
6447.5,-2637,-3202,15117,41008
6449.5,-2539,-3193,15107,41038
6451.5,-2610,-3201,15104,41099
6453.5,-2711,-3180,15171,41203
6455.5,-2863,-3103,15308,41335
6457.5,-3069,-3012,15414,41421
6459.5,-3086,-2970,15413,41411
6461.5,-2806,-2993,15309,41324
6463.5,-2481,-3022,15166,41198
6465.5,-2330,-2990,15091,41104
6467.5,-2339,-2907,15137,41122
6469.5,-2499,-2851,15233,41238
6471.5,-2780,-2843,15319,41368
6473.5,-2981,-2837,15431,41482
6475.5,-2996,-2821,15559,41571
6477.5,-2950,-2802,15596,41582
6479.5,-2830,-2763,15521,41499
6481.5,-2547,-2729,15454,41424
6483.5,-2362,-2767,15468,41443
6485.5,-2555,-2857,15513,41499
6487.5,-2851,-2892,15542,41506
6489.5,-2908,-2857,15587,41508
6491.5,-2923,-2850,15681,41592
6493.5,-3068,-2887,15782,41698
6495.5,-3036,-2900,15803,41690
6497.5,-2732,-2924,15730,41584
6499.5,-2609,-3036,15663,41516
6501.5,-2847,-3136,15682,41532
6503.5,-3074,-3105,15738,41571
6505.5,-3111,-3090,15739,41587
6507.5,-3166,-3250,15687,41559
6509.5,-3232,-3402,15623,41468
6511.5,-3085,-3337,15551,41359
6513.5,-2848,-3218,15505,41335
6515.5,-2920,-3255,15559,41417
6517.5,-3329,-3363,15668,41492
6519.5,-3648,-3424,15673,41453
6521.5,-3571,-3469,15553,41323
6523.5,-3247,-3463,15450,41195
6525.5,-3003,-3351,15415,41107
6527.5,-2998,-3288,15384,41067
6529.5,-3179,-3396,15367,41089
6531.5,-3333,-3491,15375,41122
6533.5,-3217,-3412,15313,41054
6535.5,-2887,-3325,15187,40926
6537.5,-2787,-3385,15183,40920
6539.5,-3136,-3438,15341,41064
6541.5,-3517,-3349,15477,41196
6543.5,-3511,-3305,15497,41226
6545.5,-3329,-3463,15466,41201
6547.5,-3293,-3638,15409,41156
6549.5,-3297,-3614,15335,41120
6551.5,-3230,-3494,15329,41148
6553.5,-3203,-3454,15377,41182
6555.5,-3109,-3455,15345,41110
6557.5,-2782,-3445,15231,40981
6559.5,-2516,-3492,15190,40942
6561.5,-2654,-3570,15259,40989
6563.5,-3025,-3540,15351,41044
6565.5,-3349,-3418,15438,41134
6567.5,-3555,-3350,15514,41259
6569.5,-3539,-3358,15524,41305
6571.5,-3300,-3360,15481,41256
6573.5,-3148,-3344,15465,41227
6575.5,-3202,-3347,15470,41245
6577.5,-3177,-3342,15478,41264
6579.5,-3031,-3289,15539,41303
6581.5,-3074,-3244,15620,41342
6583.5,-3295,-3293,15589,41281
6585.5,-3351,-3403,15472,41166
6587.5,-3200,-3453,15436,41161
6589.5,-3117,-3436,15492,41250
6591.5,-3204,-3450,15507,41280
6593.5,-3324,-3507,15464,41249
6595.5,-3353,-3518,15448,41251
6597.5,-3284,-3460,15461,41262
6599.5,-3219,-3391,15473,41232
6601.5,-3233,-3346,15487,41201
6603.5,-3201,-3330,15465,41184
6605.5,-3020,-3345,15374,41149
6607.5,-2904,-3389,15317,41134
6609.5,-2982,-3455,15361,41165
6611.5,-2934,-3507,15369,41145
6613.5,-2640,-3500,15278,41065
6615.5,-2615,-3458,15286,41096
6617.5,-3074,-3451,15458,41251
6619.5,-3412,-3472,15543,41303
6621.5,-3284,-3470,15440,41203
6623.5,-3143,-3456,15376,41166
6625.5,-3238,-3460,15431,41247
6627.5,-3221,-3463,15419,41263
6629.5,-3008,-3462,15310,41172
6631.5,-2911,-3467,15281,41117
6633.5,-2969,-3482,15320,41117
6635.5,-2961,-3554,15262,41069
6637.5,-2877,-3696,15145,40987
6639.5,-2862,-3786,15147,40973
6641.5,-2995,-3744,15269,41044
6643.5,-3262,-3688,15372,41135
6645.5,-3503,-3705,15400,41187
6647.5,-3547,-3700,15377,41174
6649.5,-3448,-3594,15342,41125
6651.5,-3311,-3447,15356,41116
6653.5,-3095,-3325,15432,41167
6655.5,-2919,-3254,15519,41237
6657.5,-3048,-3242,15609,41310
6659.5,-3315,-3273,15698,41363
6661.5,-3257,-3303,15695,41332
6663.5,-2990,-3299,15606,41250
6665.5,-3068,-3245,15619,41269
6667.5,-3412,-3154,15760,41386
6669.5,-3414,-3055,15790,41416
6671.5,-3058,-2966,15657,41327
6673.5,-2898,-2953,15604,41290
6675.5,-3058,-3118,15678,41336
6677.5,-3196,-3395,15679,41331
6679.5,-3200,-3507,15614,41302
6681.5,-3162,-3297,15676,41390
6683.5,-3060,-2953,15829,41543
6685.5,-2962,-2751,15889,41602
6687.5,-3057,-2732,15881,41579
6689.5,-3231,-2723,15916,41576
6691.5,-3218,-2609,15956,41597
6693.5,-3160,-2458,15962,41626
6695.5,-3295,-2385,15970,41668
6697.5,-3346,-2423,15911,41614
6699.5,-3020,-2548,15705,41394
6701.5,-2699,-2698,15541,41225
6703.5,-2832,-2769,15644,41350
6705.5,-3143,-2712,15876,41616
6707.5,-3148,-2613,15951,41713
6709.5,-2926,-2581,15872,41634
6711.5,-2801,-2634,15808,41562
6713.5,-2804,-2753,15795,41543
6715.5,-2837,-2905,15793,41537
6717.5,-2934,-3029,15827,41570
6719.5,-3101,-3092,15896,41642
6721.5,-3210,-3121,15915,41665
6723.5,-3179,-3149,15824,41565
6725.5,-3082,-3209,15647,41362
6727.5,-3045,-3348,15447,41140
6729.5,-3146,-3551,15286,40980
6731.5,-3393,-3747,15203,40908
6733.5,-3637,-3911,15170,40880
6735.5,-3636,-4052,15111,40841
6737.5,-3398,-4158,15013,40790
6739.5,-3273,-4238,14956,40765
6741.5,-3396,-4307,14961,40754
6743.5,-3406,-4302,14917,40680
6745.5,-3117,-4165,14797,40540
6747.5,-2927,-4018,14733,40449
6749.5,-3082,-4033,14766,40456
6751.5,-3216,-4181,14770,40466
6753.5,-3103,-4272,14719,40443
6755.5,-3091,-4202,14750,40488
6757.5,-3365,-4045,14881,40622
6759.5,-3574,-3969,14965,40717
6761.5,-3541,-4049,14958,40715
6763.5,-3523,-4181,14964,40698
6765.5,-3588,-4232,14996,40697
6767.5,-3511,-4242,14952,40647
6769.5,-3320,-4294,14829,40554
6771.5,-3232,-4317,14733,40497
6773.5,-3197,-4260,14689,40484
6775.5,-3095,-4294,14639,40464
6777.5,-3025,-4543,14615,40455
6779.5,-3027,-4837,14696,40489
6781.5,-2981,-5009,14841,40495
6783.5,-2905,-5130,14946,40415
6785.5,-2852,-5197,15058,40380
6787.5,-2684,-4975,15364,40627
6789.5,-2403,-4410,15940,41242
6791.5,-2355,-3797,16656,42079
6793.5,-2683,-3269,17404,43000
6795.5,-2989,-2551,18168,44045
6797.5,-2830,-1484,18755,45187
6799.5,-2310,-378,18827,46153
6801.5,-1983,437,18431,46800
6803.5,-2185,1049,18005,47390
6805.5,-2681,1681,17667,48066
6807.5,-3126,2288,17076,48453
6809.5,-3545,2668,16105,48181
6811.5,-4037,2773,14936,47305
6813.5,-4466,2740,13533,45915
6815.5,-4861,2684,11786,43966
6817.5,-5531,2561,10037,41763
6819.5,-6358,2246,8817,39961
6821.5,-6671,1685,8262,38896
6823.5,-6232,903,8252,38404
6825.5,-5604,-15,8731,38258
6827.5,-5199,-890,9530,38332
6829.5,-4842,-1566,10299,38467
6831.5,-4493,-2111,10898,38582
6833.5,-4394,-2644,11478,38771
6835.5,-4376,-3085,12096,39066
6837.5,-4075,-3358,12626,39339
6839.5,-3741,-3604,13048,39554
6841.5,-3795,-3900,13468,39807
6843.5,-3967,-4069,13879,40083
6845.5,-3826,-4044,14196,40267
6847.5,-3575,-4038,14422,40354
6849.5,-3519,-4184,14581,40400
6851.5,-3464,-4349,14632,40381
6853.5,-3235,-4426,14601,40307
6855.5,-3089,-4486,14630,40310
6857.5,-3188,-4565,14779,40447
6859.5,-3278,-4581,14940,40588
6861.5,-3174,-4564,14983,40597
6863.5,-3051,-4659,14882,40476
6865.5,-3095,-4825,14728,40332
6867.5,-3211,-4846,14661,40273
6869.5,-3230,-4709,14726,40316
6871.5,-3172,-4646,14831,40381
6873.5,-3167,-4735,14879,40413
6875.5,-3195,-4795,14878,40452
6877.5,-3091,-4709,14895,40526
6879.5,-2856,-4554,14960,40593
6881.5,-2730,-4443,15033,40616
6883.5,-2836,-4418,15041,40598
6885.5,-2987,-4482,14977,40543
6887.5,-2976,-4587,14905,40459
6889.5,-2847,-4644,14876,40392
6891.5,-2808,-4616,14899,40406
6893.5,-2973,-4568,14966,40491
6895.5,-3176,-4567,15015,40555
6897.5,-3130,-4589,14982,40547
6899.5,-2858,-4595,14932,40537
6901.5,-2695,-4589,14973,40592
6903.5,-2704,-4547,15057,40642
6905.5,-2568,-4427,15043,40578
6907.5,-2303,-4340,14944,40443
6909.5,-2397,-4453,14916,40397
6911.5,-2928,-4678,15017,40493
6913.5,-3327,-4768,15135,40622
6915.5,-3289,-4715,15167,40677
6917.5,-3114,-4688,15131,40675
6919.5,-3030,-4688,15100,40672
6921.5,-2991,-4621,15113,40680
6923.5,-3043,-4565,15159,40698
6925.5,-3200,-4624,15200,40720
6927.5,-3250,-4706,15210,40718
6929.5,-3131,-4684,15205,40684
6931.5,-3007,-4565,15208,40659
6933.5,-2891,-4423,15215,40664
6935.5,-2735,-4321,15225,40670
6937.5,-2701,-4308,15256,40671
6939.5,-2827,-4348,15286,40690
6941.5,-2827,-4322,15270,40716
6943.5,-2612,-4195,15233,40728
6945.5,-2506,-4103,15233,40737
6947.5,-2673,-4185,15255,40744
6949.5,-2819,-4371,15244,40727
6951.5,-2699,-4439,15210,40701
6953.5,-2528,-4337,15217,40723
6955.5,-2599,-4267,15273,40795
6957.5,-2775,-4369,15310,40833
6959.5,-2744,-4489,15276,40795
6961.5,-2573,-4446,15235,40754
6963.5,-2565,-4343,15278,40790
6965.5,-2725,-4359,15378,40867
6967.5,-2819,-4426,15426,40908
6969.5,-2789,-4383,15404,40916
6971.5,-2729,-4287,15372,40922
6973.5,-2636,-4280,15339,40899
6975.5,-2504,-4331,15295,40841
6977.5,-2507,-4349,15313,40839
6979.5,-2764,-4344,15441,40951
6981.5,-3031,-4313,15566,41065
6983.5,-2949,-4211,15549,41049
6985.5,-2588,-4112,15436,40946
6987.5,-2383,-4117,15375,40899
6989.5,-2503,-4129,15410,40939
6991.5,-2620,-4038,15453,40980
6993.5,-2427,-3959,15429,40966
6995.5,-2120,-3996,15369,40928
6997.5,-2148,-4030,15376,40950
6999.5,-2527,-3991,15472,41059
7001.5,-2736,-3988,15522,41124
7003.5,-2520,-4038,15427,41032
7005.5,-2325,-4019,15323,40917
7007.5,-2485,-3927,15359,40955
7009.5,-2664,-3880,15440,41046
7011.5,-2612,-3884,15447,41034
7013.5,-2611,-3855,15452,41013
7015.5,-2752,-3789,15505,41091
7017.5,-2733,-3750,15495,41134
7019.5,-2557,-3760,15400,41061
7021.5,-2505,-3767,15345,41006
7023.5,-2505,-3713,15340,41015
7025.5,-2349,-3604,15294,40985
7027.5,-2180,-3530,15234,40931
7029.5,-2203,-3570,15237,40955
7031.5,-2364,-3679,15279,41034
7033.5,-2524,-3724,15325,41099
7035.5,-2548,-3651,15387,41160
7037.5,-2369,-3534,15441,41212
7039.5,-2175,-3439,15475,41230
7041.5,-2214,-3378,15530,41248
7043.5,-2389,-3384,15590,41283
7045.5,-2472,-3465,15595,41284
7047.5,-2488,-3498,15590,41273
7049.5,-2524,-3392,15655,41328
7051.5,-2526,-3288,15715,41396
7053.5,-2487,-3353,15666,41365
7055.5,-2454,-3467,15597,41300
7057.5,-2401,-3432,15643,41343
7059.5,-2392,-3331,15755,41467
7061.5,-2534,-3369,15814,41546
7063.5,-2642,-3493,15817,41547
7065.5,-2502,-3522,15798,41497
7067.5,-2373,-3474,15760,41420
7069.5,-2569,-3458,15737,41380
7071.5,-2806,-3446,15733,41387
7073.5,-2694,-3439,15669,41337
7075.5,-2461,-3543,15556,41220
7077.5,-2501,-3707,15543,41207
7079.5,-2687,-3706,15644,41329
7081.5,-2705,-3527,15696,41406
7083.5,-2584,-3412,15653,41370
7085.5,-2507,-3463,15607,41331
7087.5,-2545,-3553,15560,41301
7089.5,-2680,-3600,15472,41211
7091.5,-2751,-3625,15382,41087
7093.5,-2566,-3623,15319,40993
7095.5,-2317,-3596,15272,40941
7097.5,-2406,-3616,15291,40966
7099.5,-2751,-3705,15395,41065
7101.5,-2945,-3785,15475,41146
7103.5,-2985,-3799,15483,41176
7105.5,-3060,-3759,15492,41216
7107.5,-2990,-3719,15489,41220
7109.5,-2630,-3770,15381,41092
7111.5,-2327,-3902,15243,40934
7113.5,-2385,-3913,15268,40962
7115.5,-2650,-3708,15459,41167
7117.5,-2872,-3548,15604,41319
7119.5,-2953,-3633,15577,41296
7121.5,-2871,-3755,15475,41202
7123.5,-2722,-3710,15427,41161
7125.5,-2674,-3652,15444,41178
7127.5,-2778,-3701,15488,41222
7129.5,-2968,-3735,15535,41279
7131.5,-3146,-3730,15543,41302
7133.5,-3178,-3788,15498,41263
7135.5,-3018,-3806,15480,41243
7137.5,-2805,-3656,15537,41299
7139.5,-2682,-3520,15586,41347
7141.5,-2660,-3573,15564,41325
7143.5,-2690,-3655,15543,41310
7145.5,-2688,-3601,15563,41341
7147.5,-2584,-3513,15554,41332
7149.5,-2477,-3472,15498,41266
7151.5,-2542,-3427,15490,41251
7153.5,-2730,-3407,15552,41318
7155.5,-2831,-3470,15584,41359
7157.5,-2771,-3510,15541,41320
7159.5,-2646,-3456,15491,41278
7161.5,-2564,-3444,15487,41284
7163.5,-2593,-3551,15504,41308
7165.5,-2705,-3611,15521,41327
7167.5,-2776,-3514,15547,41354
7169.5,-2796,-3422,15568,41374
7171.5,-2874,-3480,15561,41365
7173.5,-2942,-3560,15540,41350
7175.5,-2830,-3525,15530,41357
7177.5,-2665,-3489,15536,41368
7179.5,-2647,-3565,15539,41353
7181.5,-2613,-3620,15508,41297
7183.5,-2454,-3559,15443,41213
7185.5,-2489,-3534,15408,41155
7187.5,-2763,-3621,15438,41165
7189.5,-2792,-3640,15471,41208
7191.5,-2557,-3553,15466,41224
7193.5,-2617,-3577,15462,41219
7195.5,-2881,-3728,15454,41197
7197.5,-2694,-3747,15383,41133
7199.5,-2261,-3658,15298,41076
7201.5,-2403,-3758,15310,41108
7203.5,-2995,-3974,15404,41205
7205.5,-3156,-3918,15457,41253
7207.5,-2764,-3642,15409,41204
7209.5,-2481,-3546,15315,41119
7211.5,-2604,-3628,15282,41099
7213.5,-2856,-3618,15345,41167
7215.5,-2989,-3594,15421,41237
7217.5,-2963,-3685,15450,41259
7219.5,-2825,-3660,15489,41300
7221.5,-2694,-3447,15557,41370
7223.5,-2681,-3371,15577,41373
7225.5,-2754,-3472,15561,41323
7227.5,-2774,-3409,15604,41336
7229.5,-2615,-3170,15661,41372
7231.5,-2366,-3065,15622,41316
7233.5,-2407,-3146,15575,41276
7235.5,-2903,-3265,15668,41406
7237.5,-3336,-3376,15804,41574
7239.5,-3169,-3430,15797,41568
7241.5,-2729,-3360,15706,41471
7243.5,-2667,-3278,15695,41467
7245.5,-2934,-3297,15742,41513
7247.5,-3069,-3299,15753,41505
7249.5,-2993,-3180,15770,41511
7251.5,-2875,-3035,15844,41593
7253.5,-2766,-2929,15918,41672
7255.5,-2725,-2796,15959,41708
7257.5,-2806,-2642,15995,41747
7259.5,-2866,-2562,16022,41790
7261.5,-2807,-2546,16033,41815
7263.5,-2778,-2517,16048,41831
7265.5,-2834,-2516,16020,41800
7267.5,-2815,-2622,15904,41681
7269.5,-2721,-2759,15801,41569
7271.5,-2731,-2790,15804,41567
7273.5,-2834,-2767,15833,41600
7275.5,-2884,-2844,15805,41572
7277.5,-2879,-3001,15768,41528
7279.5,-2826,-3073,15763,41524
7281.5,-2621,-3023,15763,41536
7283.5,-2316,-2995,15773,41559
7285.5,-2188,-3102,15797,41585
7287.5,-2393,-3307,15792,41566
7289.5,-2779,-3495,15757,41507
7291.5,-3053,-3604,15698,41443
7293.5,-3037,-3692,15542,41307
7295.5,-2847,-3833,15286,41065
7297.5,-2755,-3991,15101,40874
7299.5,-2770,-4100,15072,40837
7301.5,-2699,-4179,15069,40837
7303.5,-2645,-4257,15025,40791
7305.5,-2905,-4290,15031,40791
7307.5,-3336,-4279,15085,40851
7309.5,-3464,-4309,15059,40845
7311.5,-3189,-4389,14953,40747
7313.5,-2871,-4412,14883,40670
7315.5,-2846,-4339,14889,40673
7317.5,-3108,-4283,14920,40716
7319.5,-3358,-4326,14942,40755
7321.5,-3335,-4403,14955,40779
7323.5,-3123,-4407,14973,40793
7325.5,-2941,-4353,14993,40798
7327.5,-2858,-4332,14988,40782
7329.5,-2919,-4360,14966,40770
7331.5,-3106,-4365,14962,40781
7333.5,-3136,-4319,14958,40776
7335.5,-2906,-4296,14929,40734
7337.5,-2816,-4337,14917,40719
7339.5,-3019,-4391,14933,40746
7341.5,-3077,-4453,14906,40723
7343.5,-2815,-4602,14835,40626
7345.5,-2541,-4831,14815,40534
7347.5,-2345,-5011,14886,40478
7349.5,-2224,-5114,15049,40455
7351.5,-2416,-5202,15336,40537
7353.5,-2731,-5141,15721,40798
7355.5,-2568,-4705,16152,41264
7357.5,-2151,-3970,16746,41998
7359.5,-2286,-3192,17634,43074
7361.5,-2750,-2364,18572,44372
7363.5,-2673,-1356,19119,45612
7365.5,-2238,-306,19183,46631
7367.5,-2169,585,18978,47463
7369.5,-2264,1366,18582,48147
7371.5,-2107,2095,17984,48653
7373.5,-2112,2656,17302,48909
7375.5,-2525,2990,16497,48722
7377.5,-2878,3123,15251,47815
7379.5,-3218,3043,13546,46189
7381.5,-4107,2841,11851,44238
7383.5,-5220,2685,10498,42379
7385.5,-5739,2428,9491,40847
7387.5,-5749,1757,8965,39819
7389.5,-5703,810,9105,39351
7391.5,-5471,9,9699,39230
7393.5,-4996,-624,10365,39201
7395.5,-4631,-1344,11006,39232
7397.5,-4369,-2073,11654,39355
7399.5,-3969,-2577,12211,39506
7401.5,-3613,-2917,12635,39643
7403.5,-3519,-3241,13052,39825
7405.5,-3564,-3488,13557,40099
7407.5,-3691,-3600,14070,40406
7409.5,-3850,-3710,14430,40605
7411.5,-3756,-3903,14580,40636
7413.5,-3394,-4107,14654,40618
7415.5,-3101,-4247,14767,40647
7417.5,-2882,-4333,14843,40644
7419.5,-2586,-4393,14814,40563
7421.5,-2491,-4441,14812,40541
7423.5,-2772,-4485,14942,40661
7425.5,-3045,-4540,15109,40819
7427.5,-3111,-4628,15198,40912
7429.5,-3205,-4730,15210,40928
7431.5,-3255,-4758,15154,40865
7433.5,-3000,-4678,15041,40741
7435.5,-2716,-4581,14951,40639
7437.5,-2772,-4564,14963,40631
7439.5,-2915,-4588,15042,40697
7441.5,-2834,-4577,15103,40767
7443.5,-2742,-4560,15132,40807
7445.5,-2804,-4588,15158,40828
7447.5,-2784,-4621,15164,40824
7449.5,-2629,-4608,15127,40771
7451.5,-2638,-4574,15090,40711
7453.5,-2875,-4550,15092,40703
7455.5,-3052,-4500,15097,40727
7457.5,-2997,-4402,15097,40748
7459.5,-2812,-4328,15147,40805
7461.5,-2670,-4377,15222,40900
7463.5,-2671,-4540,15236,40948
7465.5,-2779,-4656,15205,40930
7467.5,-2866,-4608,15209,40918
7469.5,-2853,-4485,15227,40923
7471.5,-2734,-4408,15221,40917
7473.5,-2535,-4324,15241,40926
7475.5,-2391,-4211,15279,40940
7477.5,-2444,-4241,15231,40886
7479.5,-2611,-4462,15111,40788
7481.5,-2710,-4634,15069,40766
7483.5,-2739,-4617,15139,40827
7485.5,-2755,-4557,15199,40857
7487.5,-2695,-4509,15201,40841
7489.5,-2578,-4348,15231,40880
7491.5,-2600,-4138,15327,40994
7493.5,-2814,-4109,15413,41087
7495.5,-2974,-4229,15408,41083
7497.5,-2903,-4276,15324,41012
7499.5,-2778,-4250,15271,40976
7501.5,-2821,-4292,15330,41045
7503.5,-2899,-4356,15437,41152
7505.5,-2774,-4326,15450,41159
7507.5,-2581,-4254,15384,41084
7509.5,-2563,-4211,15369,41057
7511.5,-2559,-4151,15396,41062
7513.5,-2393,-4078,15353,40992
7515.5,-2362,-4054,15299,40917
7517.5,-2612,-4038,15365,40967
7519.5,-2695,-3994,15461,41045
7521.5,-2419,-4014,15438,41005
7523.5,-2262,-4106,15371,40938
7525.5,-2435,-4137,15399,40977
7527.5,-2574,-4107,15486,41067
7529.5,-2579,-4155,15545,41122
7531.5,-2677,-4240,15574,41156
7533.5,-2747,-4196,15583,41172
7535.5,-2580,-4072,15575,41157
7537.5,-2433,-4043,15577,41156
7539.5,-2540,-4097,15584,41183
7541.5,-2658,-4130,15569,41191
7543.5,-2605,-4168,15572,41185
7545.5,-2546,-4237,15628,41207
7547.5,-2513,-4220,15673,41228
7549.5,-2380,-4051,15658,41208
7551.5,-2298,-3858,15643,41193
7553.5,-2447,-3787,15682,41234
7555.5,-2604,-3828,15725,41284
7557.5,-2592,-3898,15716,41292
7559.5,-2675,-3928,15694,41295
7561.5,-2911,-3888,15701,41327
7563.5,-2836,-3829,15684,41324
7565.5,-2322,-3824,15586,41245
7567.5,-1910,-3809,15485,41167
7569.5,-1954,-3681,15505,41184
7571.5,-2265,-3551,15617,41271
7573.5,-2621,-3596,15679,41335
7575.5,-2870,-3703,15649,41346
7577.5,-2804,-3631,15607,41339
7579.5,-2507,-3458,15588,41330
7581.5,-2365,-3451,15552,41306
7583.5,-2467,-3596,15503,41274
7585.5,-2566,-3639,15502,41278
7587.5,-2620,-3531,15542,41321
7589.5,-2719,-3476,15544,41340
7591.5,-2693,-3534,15483,41296
7593.5,-2403,-3521,15412,41217
7595.5,-2174,-3389,15380,41165
7597.5,-2367,-3351,15417,41193
7599.5,-2773,-3478,15538,41316
7601.5,-2892,-3525,15687,41461
7603.5,-2619,-3374,15753,41512
7605.5,-2256,-3245,15701,41445
7607.5,-2049,-3252,15637,41371
7609.5,-2055,-3219,15681,41412
7611.5,-2252,-3099,15820,41549
7613.5,-2522,-3091,15931,41661
7615.5,-2693,-3209,15945,41682
7617.5,-2639,-3214,15914,41664
7619.5,-2359,-3041,15898,41661
7621.5,-2125,-2907,15898,41676
7623.5,-2318,-2968,15916,41719
7625.5,-2768,-3135,15949,41781
7627.5,-2811,-3243,15935,41788
7629.5,-2390,-3228,15854,41710
7631.5,-2239,-3157,15793,41645
7633.5,-2623,-3155,15802,41661
7635.5,-2950,-3265,15814,41701
7637.5,-2861,-3376,15780,41693
7639.5,-2647,-3373,15730,41649
7641.5,-2541,-3312,15678,41598
7643.5,-2515,-3326,15618,41548
7645.5,-2573,-3421,15577,41517
7647.5,-2632,-3494,15567,41508
7649.5,-2511,-3497,15532,41487
7651.5,-2329,-3462,15454,41431
7653.5,-2392,-3418,15407,41395
7655.5,-2651,-3399,15442,41432
7657.5,-2794,-3475,15481,41478
7659.5,-2743,-3629,15434,41435
7661.5,-2639,-3689,15357,41357
7663.5,-2587,-3520,15384,41391
7665.5,-2624,-3263,15509,41515
7667.5,-2722,-3204,15594,41568
7669.5,-2802,-3389,15570,41508
7671.5,-2822,-3581,15496,41429
7673.5,-2748,-3595,15423,41361
7675.5,-2575,-3480,15367,41300
7677.5,-2480,-3361,15371,41303
7679.5,-2620,-3322,15428,41366
7681.5,-2760,-3388,15444,41375
7683.5,-2654,-3473,15408,41328
7685.5,-2555,-3469,15432,41360
7687.5,-2734,-3402,15527,41470
7689.5,-2904,-3361,15566,41509
7691.5,-2743,-3322,15510,41446
7693.5,-2445,-3250,15454,41393
7695.5,-2355,-3215,15448,41399
7697.5,-2532,-3247,15458,41425
7699.5,-2776,-3259,15462,41448
7701.5,-2800,-3224,15476,41472
7703.5,-2579,-3230,15515,41512
7705.5,-2509,-3302,15582,41572
7707.5,-2784,-3376,15623,41603
7709.5,-2951,-3413,15579,41553
7711.5,-2684,-3390,15495,41477
7713.5,-2381,-3284,15460,41455
7715.5,-2433,-3169,15459,41448
7717.5,-2608,-3167,15450,41421
7719.5,-2598,-3238,15485,41447
7721.5,-2503,-3231,15577,41536
7723.5,-2538,-3164,15618,41569
7725.5,-2728,-3215,15572,41522
7727.5,-2925,-3384,15542,41504
7729.5,-2941,-3467,15557,41525
7731.5,-2769,-3381,15536,41500
7733.5,-2599,-3252,15490,41458
7735.5,-2507,-3170,15497,41475
7737.5,-2418,-3115,15535,41508
7739.5,-2380,-3110,15525,41494
7741.48,-2469,-3199,15479,41469
7743.45,-2544,-3294,15466,41470
7745.43,-2502,-3267,15492,41477
7747.4,-2506,-3176,15517,41475
7749.4,-2654,-3176,15518,41465
7751.4,-2786,-3251,15508,41448
7753.4,-2817,-3249,15506,41437
7755.4,-2794,-3172,15486,41413
7757.4,-2659,-3178,15381,41304
7759.4,-2439,-3305,15217,41141
7761.4,-2409,-3416,15152,41090
7763.4,-2580,-3409,15260,41210
7765.4,-2565,-3304,15395,41336
7767.4,-2372,-3194,15431,41359
7769.4,-2523,-3187,15458,41390
7771.4,-3009,-3319,15557,41488
7773.4,-3174,-3458,15603,41510
7775.4,-2866,-3443,15512,41402
7777.4,-2634,-3307,15448,41345
7779.4,-2737,-3211,15532,41432
7781.4,-2889,-3210,15616,41498
7783.4,-2860,-3213,15572,41435
7785.4,-2674,-3133,15536,41400
7787.4,-2481,-2990,15639,41505
7789.4,-2483,-2875,15766,41616
7791.4,-2699,-2839,15810,41637
