t,carotid_880nm,carotid_660nm,brachial_880nm,brachial_660nm
3.2,-992.23,-152.58,-1.8135,-26.586
13.1,-991.23,-151.58,0.18646,-24.586
23.0,-991.23,-152.58,-1.8135,-25.586
32.9,-988.23,-152.58,1.1865,-25.586
42.7,-990.23,-152.58,-0.81354,-25.586
52.6,-991.23,-153.58,-1.8135,-24.586
62.5,-992.23,-154.58,-1.8135,-25.586
72.4,-995.23,-157.58,-3.8135,-25.586
82.3,-998.23,-160.58,-5.8135,-26.586
92.2,-1004.2,-163.58,-7.8135,-27.586
102.1,-1009.2,-168.58,-8.8135,-28.586
112.0,-1015.2,-172.58,-14.814,-29.586
121.8,-1023.2,-177.58,-16.814,-30.586
131.7,-1033.2,-183.58,-16.814,-30.586
141.6,-1043.2,-188.58,-19.814,-30.586
151.5,-1048.2,-192.58,-19.814,-31.586
161.4,-1050.2,-194.58,-20.814,-29.586
171.3,-1052.2,-195.58,-21.814,-30.586
181.1,-1047.2,-192.58,-22.814,-30.586
191.0,-1049.2,-192.58,-22.814,-30.586
200.9,-1060.2,-201.58,-21.814,-28.586
210.8,-1062.2,-207.58,-12.814,-22.586
220.7,-1041.2,-203.58,2.1865,-16.586
230.6,-1019.2,-199.58,16.186,-9.5856
240.5,-996.23,-196.58,28.186,-5.5856
250.4,-979.23,-193.58,37.186,-5.5856
260.2,-967.23,-191.58,45.186,-3.5856
270.1,-951.23,-189.58,42.186,-7.5856
280.0,-937.23,-187.58,40.186,-8.5856
289.9,-925.23,-183.58,39.186,-9.5856
299.8,-910.23,-179.58,37.186,-10.586
309.7,-900.23,-177.58,37.186,-13.586
319.5,-890.23,-173.58,31.186,-15.586
329.4,-882.23,-173.58,27.186,-17.586
339.3,-874.23,-171.58,22.186,-20.586
349.2,-866.23,-166.58,15.186,-23.586
359.1,-857.23,-163.58,4.1865,-26.586
369.0,-853.23,-160.58,4.1865,-26.586
378.9,-849.23,-157.58,-8.8135,-32.586
388.7,-843.23,-153.58,-8.8135,-32.586
398.6,-840.23,-150.58,-20.814,-38.586
408.5,-837.23,-148.58,-20.814,-38.586
418.4,-836.23,-145.58,-35.814,-41.586
428.3,-834.23,-144.58,-35.814,-41.586
438.2,-834.23,-142.58,-44.814,-46.586
448.1,-833.23,-141.58,-44.814,-46.586
457.9,-832.23,-139.58,-54.814,-49.586
467.8,-833.23,-139.58,-54.814,-49.586
477.7,-834.23,-138.58,-64.814,-51.586
487.6,-830.23,-136.58,-64.814,-51.586
497.5,-832.23,-135.58,-72.814,-57.586
507.4,-833.23,-134.58,-72.814,-57.586
517.3,-835.23,-134.58,-87.814,-60.586
527.1,-835.23,-133.58,-87.814,-60.586
537.0,-835.23,-133.58,-92.814,-65.586
546.9,-841.23,-134.58,-100.81,-67.586
556.8,-841.23,-134.58,-111.81,-72.586
566.7,-852.23,-136.58,-111.81,-72.586
576.6,-852.23,-136.58,-118.81,-73.586
586.5,-860.23,-139.58,-121.81,-76.586
596.3,-860.23,-139.58,-126.81,-77.586
606.2,-855.23,-134.58,-131.81,-79.586
616.1,-855.23,-134.58,-135.81,-83.586
626.0,-863.23,-135.58,-140.81,-84.586
635.9,-863.23,-135.58,-142.81,-84.586
645.8,-839.23,-132.58,-136.81,-79.586
655.7,-839.23,-132.58,-124.81,-76.586
665.5,-792.23,-121.58,-111.81,-70.586
675.4,-792.23,-121.58,-98.814,-68.586
685.3,-772.23,-117.58,-91.814,-66.586
695.2,-758.23,-114.58,-83.814,-67.586
705.1,-745.23,-111.58,-84.814,-67.586
715.0,-735.23,-108.58,-83.814,-69.586
724.9,-727.23,-106.58,-85.814,-71.586
734.7,-715.23,-104.58,-86.814,-71.586
744.6,-706.23,-99.578,-88.814,-74.586
754.5,-696.23,-97.578,-91.814,-75.586
764.4,-690.23,-94.578,-94.814,-78.586
774.3,-687.23,-93.578,-101.81,-80.586
784.2,-682.23,-92.578,-106.81,-84.586
794.1,-681.23,-93.578,-109.81,-86.586
803.9,-680.23,-93.578,-115.81,-89.586
813.8,-679.23,-94.578,-120.81,-88.586
823.7,-678.23,-93.578,-124.81,-90.586
833.6,-679.23,-95.578,-126.81,-92.586
843.5,-680.23,-95.578,-132.81,-93.586
853.4,-680.23,-96.578,-135.81,-94.586
863.3,-681.23,-99.578,-140.81,-97.586
873.1,-681.23,-99.578,-145.81,-99.586
883.0,-680.23,-99.578,-152.81,-102.59
892.9,-677.23,-98.578,-156.81,-103.59
902.8,-677.23,-98.578,-162.81,-104.59
912.7,-674.23,-98.578,-165.81,-107.59
922.6,-672.23,-97.578,-171.81,-109.59
932.5,-670.23,-96.578,-174.81,-109.59
942.3,-670.23,-97.578,-178.81,-111.59
952.2,-668.23,-96.578,-179.81,-113.59
962.1,-671.23,-97.578,-182.81,-113.59
972.0,-675.23,-99.578,-184.81,-115.59
981.9,-678.23,-102.58,-187.81,-115.59
991.8,-681.23,-104.58,-190.81,-116.59
1001.7,-682.23,-105.58,-194.81,-118.59
1011.5,-684.23,-105.58,-198.81,-119.59
1021.4,-680.23,-101.58,-203.81,-121.59
1031.3,-675.23,-97.578,-206.81,-121.59
1041.2,-664.23,-90.578,-210.81,-124.59
1051.1,-661.23,-85.578,-216.81,-126.59
1061.0,-659.23,-86.578,-218.81,-126.59
1070.9,-651.23,-84.578,-214.81,-124.59
1080.7,-632.23,-79.578,-203.81,-119.59
1090.6,-602.23,-73.578,-187.81,-114.59
1100.5,-579.23,-66.578,-176.81,-111.59
1110.4,-558.23,-61.578,-166.81,-109.59
1120.3,-537.23,-57.578,-158.81,-108.59
1130.2,-521.23,-52.578,-155.81,-109.59
1140.1,-507.23,-48.578,-156.81,-109.59
1149.9,-492.23,-42.578,-156.81,-111.59
1159.8,-477.23,-37.578,-156.81,-112.59
1169.7,-464.23,-30.578,-158.81,-112.59
1179.6,-453.23,-28.578,-159.81,-114.59
1189.5,-444.23,-24.578,-161.81,-115.59
1199.4,-437.23,-21.578,-163.81,-117.59
1209.3,-426.23,-18.578,-168.81,-119.59
1219.1,-418.23,-14.578,-173.81,-123.59
1229.0,-412.23,-11.578,-177.81,-123.59
1238.9,-402.23,-4.5781,-183.81,-126.59
1248.8,-392.23,1.4219,-186.81,-127.59
1258.7,-382.23,9.4219,-191.81,-128.59
1268.6,-382.23,9.4219,-194.81,-130.59
1278.5,-360.23,24.422,-197.81,-132.59
1288.3,-360.23,24.422,-204.81,-133.59
1298.2,-356.23,29.422,-205.81,-134.59
1308.1,-356.23,29.422,-209.81,-134.59
1318.0,-355.23,35.422,-213.81,-134.59
1327.9,-355.23,35.422,-216.81,-137.59
1337.8,-358.23,40.422,-223.81,-137.59
1347.7,-358.23,40.422,-227.81,-140.59
1357.5,-360.23,46.422,-227.81,-140.59
1367.4,-360.23,46.422,-236.81,-143.59
1377.3,-371.23,48.422,-236.81,-143.59
1387.2,-371.23,48.422,-241.81,-143.59
1397.1,-382.23,45.422,-241.81,-143.59
1407.0,-397.23,43.422,-244.81,-144.59
1416.9,-411.23,38.422,-244.81,-144.59
1426.7,-423.23,35.422,-246.81,-144.59
1436.6,-437.23,32.422,-246.81,-144.59
1446.5,-449.23,28.422,-253.81,-145.59
1456.4,-465.23,25.422,-253.81,-145.59
1466.3,-480.23,20.422,-255.81,-145.59
1476.2,-499.23,15.422,-255.81,-145.59
1486.1,-517.23,8.4219,-260.81,-145.59
1495.9,-532.23,4.4219,-260.81,-145.59
1505.8,-537.23,1.4219,-244.81,-135.59
1515.7,-530.23,0.4219,-244.81,-135.59
1525.6,-518.23,2.4219,-203.81,-121.59
1535.5,-506.23,4.4219,-203.81,-121.59
1545.4,-498.23,4.4219,-191.81,-116.59
1555.3,-493.23,4.4219,-182.81,-115.59
1565.1,-489.23,5.4219,-176.81,-113.59
1575.0,-485.23,6.4219,-177.81,-115.59
1584.9,-480.23,8.4219,-176.81,-116.59
1594.8,-483.23,6.4219,-172.81,-115.59
1604.7,-488.23,4.4219,-171.81,-116.59
1614.6,-492.23,3.4219,-173.81,-116.59
1624.5,-500.23,-0.5781,-172.81,-117.59
1634.3,-510.23,-2.5781,-174.81,-117.59
1644.2,-518.23,-7.5781,-172.81,-117.59
1654.1,-530.23,-10.578,-171.81,-117.59
1664.0,-541.23,-15.578,-173.81,-116.59
1673.9,-552.23,-18.578,-176.81,-116.59
1683.8,-562.23,-22.578,-177.81,-116.59
1693.7,-575.23,-26.578,-177.81,-115.59
1703.5,-586.23,-30.578,-180.81,-116.59
1713.4,-599.23,-33.578,-181.81,-118.59
1723.3,-612.23,-38.578,-185.81,-118.59
1733.2,-624.23,-42.578,-188.81,-119.59
1743.1,-635.23,-47.578,-189.81,-118.59
1753.0,-647.23,-52.578,-192.81,-119.59
1762.9,-661.23,-57.578,-192.81,-117.59
1772.7,-670.23,-60.578,-187.81,-116.59
1782.6,-680.23,-63.578,-189.81,-115.59
1792.5,-690.23,-67.578,-190.81,-114.59
1802.4,-700.23,-69.578,-189.81,-113.59
1812.3,-710.23,-73.578,-188.81,-112.59
1822.2,-721.23,-77.578,-189.81,-112.59
1832.1,-731.23,-80.578,-188.81,-110.59
1841.9,-743.23,-84.578,-188.81,-110.59
1851.8,-751.23,-87.578,-187.81,-110.59
1861.7,-762.23,-89.578,-187.81,-109.59
1871.6,-771.23,-91.578,-189.81,-107.59
1881.5,-782.23,-93.578,-188.81,-107.59
1891.4,-794.23,-96.578,-188.81,-107.59
1901.3,-807.23,-98.578,-189.81,-107.59
1911.1,-819.23,-102.58,-190.81,-106.59
1921.0,-834.23,-105.58,-191.81,-106.59
1930.9,-839.23,-109.58,-187.81,-103.59
1940.8,-834.23,-110.58,-178.81,-98.586
1950.7,-821.23,-109.58,-161.81,-91.586
1960.6,-806.23,-105.58,-150.81,-85.586
1970.5,-794.23,-102.58,-139.81,-82.586
1980.3,-794.23,-102.58,-130.81,-78.586
1990.2,-772.23,-96.578,-123.81,-78.586
2000.1,-772.23,-96.578,-120.81,-76.586
2010.0,-767.23,-95.578,-117.81,-77.586
2019.9,-767.23,-95.578,-114.81,-76.586
2029.8,-774.23,-97.578,-109.81,-75.586
2039.7,-774.23,-97.578,-111.81,-75.586
2049.5,-784.23,-101.58,-109.81,-75.586
2059.4,-784.23,-101.58,-108.81,-74.586
2069.3,-790.23,-103.58,-108.81,-74.586
2079.2,-790.23,-103.58,-109.81,-75.586
2089.1,-799.23,-104.58,-110.81,-75.586
2099.0,-799.23,-104.58,-109.81,-73.586
2108.9,-808.23,-108.58,-108.81,-72.586
2118.7,-808.23,-108.58,-109.81,-72.586
2128.6,-813.23,-110.58,-109.81,-74.586
2138.5,-821.23,-112.58,-110.81,-73.586
2148.4,-827.23,-114.58,-111.81,-71.586
2158.3,-832.23,-118.58,-107.81,-70.586
2168.2,-837.23,-118.58,-104.81,-69.586
2178.1,-843.23,-121.58,-102.81,-66.586
2187.9,-848.23,-123.58,-98.814,-65.586
2197.8,-852.23,-124.58,-96.814,-63.586
2207.7,-857.23,-125.58,-95.814,-63.586
2217.6,-859.23,-126.58,-95.814,-62.586
2227.5,-860.23,-127.58,-95.814,-62.586
2237.4,-863.23,-126.58,-97.814,-63.586
2247.3,-866.23,-128.58,-98.814,-62.586
2257.1,-868.23,-128.58,-102.81,-65.586
2267.0,-871.23,-129.58,-103.81,-64.586
2276.9,-875.23,-130.58,-106.81,-65.586
2286.8,-881.23,-132.58,-108.81,-64.586
2296.7,-888.23,-134.58,-109.81,-64.586
2306.6,-897.23,-139.58,-108.81,-64.586
2316.5,-906.23,-141.58,-105.81,-62.586
2326.3,-914.23,-144.58,-105.81,-62.586
2336.2,-926.23,-147.58,-105.81,-60.586
2346.1,-935.23,-150.58,-105.81,-60.586
2356.0,-945.23,-153.58,-97.814,-55.586
2365.9,-942.23,-155.58,-97.814,-55.586
2375.8,-933.23,-153.58,-86.814,-50.586
2385.7,-913.23,-150.58,-86.814,-50.586
2395.5,-893.23,-145.58,-79.814,-46.586
2405.4,-871.23,-140.58,-79.814,-46.586
2415.3,-854.23,-134.58,-71.814,-43.586
2425.2,-841.23,-130.58,-71.814,-43.586
2435.1,-835.23,-127.58,-68.814,-42.586
2445.0,-832.23,-128.58,-68.814,-42.586
2454.9,-835.23,-128.58,-63.814,-41.586
2464.7,-843.23,-131.58,-63.814,-41.586
2474.6,-853.23,-133.58,-59.814,-38.586
2484.5,-862.23,-137.58,-59.814,-38.586
2494.4,-875.23,-140.58,-51.814,-35.586
2504.3,-884.23,-143.58,-51.814,-35.586
2514.2,-896.23,-147.58,-49.814,-33.586
2524.1,-910.23,-151.58,-45.814,-31.586
2533.9,-921.23,-154.58,-43.814,-31.586
2543.8,-935.23,-159.58,-43.814,-31.586
2553.7,-945.23,-162.58,-42.814,-32.586
2563.6,-959.23,-166.58,-42.814,-33.586
2573.5,-970.23,-170.58,-41.814,-32.586
2583.4,-980.23,-173.58,-40.814,-32.586
2593.3,-990.23,-175.58,-41.814,-32.586
2603.1,-1001.2,-179.58,-39.814,-30.586
2613.0,-1010.2,-182.58,-39.814,-30.586
2622.9,-1021.2,-184.58,-37.814,-29.586
2632.8,-1030.2,-187.58,-37.814,-29.586
2642.7,-1037.2,-190.58,-39.814,-30.586
2652.6,-1046.2,-192.58,-39.814,-30.586
2662.5,-1054.2,-195.58,-39.814,-30.586
2672.3,-1066.2,-198.58,-38.814,-30.586
2682.2,-1075.2,-200.58,-40.814,-30.586
2692.1,-1080.2,-203.58,-41.814,-30.586
2702.0,-1083.2,-205.58,-43.814,-31.586
2711.9,-1083.2,-205.58,-43.814,-29.586
2721.8,-1090.2,-206.58,-42.814,-29.586
2731.6,-1090.2,-206.58,-42.814,-29.586
2741.5,-1087.2,-205.58,-40.814,-27.586
2751.4,-1087.2,-205.58,-39.814,-27.586
2761.3,-1089.2,-207.58,-40.814,-28.586
2771.2,-1089.2,-207.58,-40.814,-27.586
2781.1,-1119.2,-230.58,-42.814,-25.586
2791.0,-1119.2,-230.58,-38.814,-23.586
2800.9,-1100.2,-238.58,-25.814,-17.586
2810.7,-1100.2,-238.58,-13.814,-11.586
2820.6,-1053.2,-232.58,-1.8135,-9.5856
2830.5,-1053.2,-232.58,7.1865,-7.5856
2840.4,-1014.2,-227.58,14.186,-7.5856
2850.3,-1014.2,-227.58,18.186,-7.5856
2860.2,-996.23,-223.58,18.186,-9.5856
2870.0,-978.23,-221.58,19.186,-8.5856
2879.9,-961.23,-219.58,23.186,-8.5856
2889.8,-947.23,-218.58,24.186,-7.5856
2899.7,-934.23,-215.58,27.186,-6.5856
2909.6,-923.23,-213.58,27.186,-6.5856
2919.5,-911.23,-211.58,26.186,-7.5856
2929.4,-898.23,-207.58,24.186,-8.5856
2939.2,-885.23,-203.58,18.186,-11.586
2949.1,-875.23,-200.58,15.186,-14.586
2959.0,-866.23,-196.58,9.1865,-17.586
2968.9,-858.23,-192.58,-2.8135,-21.586
2978.8,-844.23,-185.58,-7.8135,-24.586
2988.7,-826.23,-175.58,-16.814,-29.586
2998.6,-809.23,-164.58,-23.814,-31.586
3008.4,-790.23,-154.58,-29.814,-35.586
3018.3,-774.23,-144.58,-36.814,-36.586
3028.2,-765.23,-136.58,-41.814,-38.586
3038.1,-756.23,-132.58,-43.814,-38.586
3048.0,-752.23,-129.58,-49.814,-40.586
3057.9,-751.23,-127.58,-52.814,-42.586
3067.8,-751.23,-127.58,-58.814,-43.586
3077.6,-753.23,-127.58,-60.814,-42.586
3087.5,-753.23,-125.58,-62.814,-45.586
3097.4,-752.23,-125.58,-66.814,-46.586
3107.3,-759.23,-127.58,-69.814,-48.586
3117.2,-761.23,-127.58,-70.814,-47.586
3127.1,-764.23,-128.58,-77.814,-50.586
3137.0,-769.23,-128.58,-82.814,-52.586
3146.8,-773.23,-128.58,-86.814,-55.586
3156.7,-777.23,-128.58,-91.814,-56.586
3166.6,-779.23,-129.58,-96.814,-59.586
3176.5,-781.23,-127.58,-102.81,-62.586
3186.4,-780.23,-125.58,-107.81,-63.586
3196.3,-781.23,-123.58,-114.81,-67.586
3206.2,-784.23,-122.58,-120.81,-68.586
3216.0,-780.23,-120.58,-121.81,-69.586
3225.9,-771.23,-119.58,-113.81,-64.586
3235.8,-753.23,-116.58,-101.81,-61.586
3245.7,-729.23,-111.58,-88.814,-55.586
3255.6,-709.23,-106.58,-76.814,-54.586
3265.5,-695.23,-102.58,-69.814,-52.586
3275.4,-682.23,-98.578,-67.814,-54.586
3285.2,-670.23,-92.578,-70.814,-56.586
3295.1,-660.23,-90.578,-69.814,-58.586
3305.0,-651.23,-86.578,-73.814,-58.586
3314.9,-644.23,-84.578,-73.814,-59.586
3324.8,-637.23,-80.578,-74.814,-61.586
3334.7,-632.23,-75.578,-77.814,-63.586
3344.6,-627.23,-73.578,-83.814,-66.586
3354.4,-625.23,-73.578,-83.814,-66.586
3364.3,-624.23,-72.578,-92.814,-71.586
3374.2,-625.23,-70.578,-92.814,-71.586
3384.1,-628.23,-72.578,-101.81,-77.586
3394.0,-629.23,-71.578,-101.81,-77.586
3403.9,-632.23,-71.578,-114.81,-80.586
3413.8,-634.23,-72.578,-114.81,-80.586
3423.6,-634.23,-72.578,-127.81,-87.586
3433.5,-636.23,-74.578,-127.81,-87.586
3443.4,-636.23,-74.578,-135.81,-89.586
3453.3,-641.23,-75.578,-135.81,-89.586
3463.2,-641.23,-75.578,-142.81,-92.586
3473.1,-639.23,-73.578,-142.81,-92.586
3483.0,-639.23,-73.578,-147.81,-95.586
3492.8,-638.23,-69.578,-147.81,-95.586
3502.7,-638.23,-69.578,-155.81,-98.586
3512.6,-637.23,-67.578,-155.81,-98.586
3522.5,-637.23,-67.578,-164.81,-102.59
3532.4,-640.23,-66.578,-164.81,-102.59
3542.3,-640.23,-66.578,-173.81,-107.59
3552.2,-645.23,-67.578,-173.81,-107.59
3562.0,-645.23,-67.578,-180.81,-109.59
3571.9,-648.23,-68.578,-181.81,-110.59
3581.8,-650.23,-70.578,-185.81,-112.59
3591.7,-654.23,-69.578,-189.81,-114.59
3601.6,-656.23,-70.578,-192.81,-116.59
3611.5,-653.23,-67.578,-195.81,-115.59
3621.4,-649.23,-65.578,-196.81,-116.59
3631.2,-648.23,-61.578,-197.81,-116.59
3641.1,-651.23,-61.578,-201.81,-118.59
3651.0,-647.23,-60.578,-202.81,-118.59
3660.9,-636.23,-59.578,-195.81,-115.59
3670.8,-612.23,-54.578,-184.81,-110.59
3680.7,-584.23,-49.578,-170.81,-107.59
3690.6,-560.23,-44.578,-159.81,-104.59
3700.4,-540.23,-40.578,-155.81,-104.59
3710.3,-523.23,-36.578,-152.81,-106.59
3720.2,-506.23,-29.578,-152.81,-108.59
3730.1,-487.23,-23.578,-153.81,-110.59
3740.0,-469.23,-15.578,-154.81,-111.59
3749.9,-454.23,-10.578,-155.81,-112.59
3759.8,-437.23,-2.5781,-154.81,-112.59
3769.6,-421.23,4.4219,-155.81,-115.59
3779.5,-409.23,10.422,-156.81,-116.59
3789.4,-398.23,18.422,-158.81,-117.59
3799.3,-386.23,22.422,-163.81,-119.59
3809.2,-382.23,27.422,-165.81,-120.59
3819.1,-377.23,31.422,-170.81,-123.59
3829.0,-375.23,33.422,-174.81,-124.59
3838.8,-375.23,36.422,-176.81,-126.59
3848.7,-379.23,37.422,-182.81,-127.59
3858.6,-384.23,38.422,-187.81,-129.59
3868.5,-391.23,38.422,-192.81,-129.59
3878.4,-401.23,38.422,-194.81,-130.59
3888.3,-408.23,36.422,-198.81,-132.59
3898.2,-419.23,35.422,-200.81,-133.59
3908.0,-431.23,31.422,-205.81,-133.59
3917.9,-444.23,30.422,-206.81,-135.59
3927.8,-456.23,26.422,-211.81,-136.59
3937.7,-468.23,23.422,-211.81,-136.59
3947.6,-481.23,20.422,-212.81,-136.59
3957.5,-493.23,16.422,-217.81,-137.59
3967.4,-508.23,11.422,-218.81,-137.59
3977.2,-520.23,6.4219,-218.81,-138.59
3987.1,-534.23,2.4219,-220.81,-138.59
3997.0,-546.23,-2.5781,-222.81,-138.59
4006.9,-558.23,-6.5781,-224.81,-139.59
4016.8,-570.23,-11.578,-225.81,-139.59
4026.7,-581.23,-15.578,-225.81,-139.59
4036.6,-592.23,-18.578,-225.81,-139.59
4046.4,-603.23,-22.578,-225.81,-137.59
4056.3,-614.23,-24.578,-226.81,-138.59
4066.2,-627.23,-27.578,-227.81,-139.59
4076.1,-631.23,-30.578,-227.81,-138.59
4086.0,-624.23,-29.578,-220.81,-134.59
4095.9,-610.23,-29.578,-205.81,-127.59
4105.8,-592.23,-26.578,-185.81,-119.59
4115.6,-577.23,-24.578,-170.81,-114.59
4125.5,-566.23,-21.578,-158.81,-111.59
4135.4,-557.23,-18.578,-149.81,-110.59
4145.3,-551.23,-15.578,-146.81,-111.59
4155.2,-551.23,-15.578,-143.81,-110.59
4165.1,-549.23,-14.578,-139.81,-111.59
4175.0,-549.23,-14.578,-136.81,-109.59
4184.8,-555.23,-16.578,-134.81,-109.59
4194.7,-555.23,-16.578,-136.81,-110.59
4204.6,-564.23,-22.578,-136.81,-111.59
4214.5,-564.23,-22.578,-138.81,-111.59
4224.4,-580.23,-28.578,-140.81,-111.59
4234.3,-580.23,-28.578,-142.81,-112.59
4244.2,-599.23,-33.578,-142.81,-112.59
4254.0,-599.23,-33.578,-145.81,-112.59
4263.9,-618.23,-40.578,-147.81,-111.59
4273.8,-618.23,-40.578,-149.81,-111.59
4283.7,-639.23,-48.578,-149.81,-113.59
4293.6,-639.23,-48.578,-149.81,-112.59
4303.5,-649.23,-53.578,-149.81,-112.59
4313.4,-657.23,-56.578,-151.81,-112.59
4323.2,-665.23,-58.578,-151.81,-112.59
4333.1,-672.23,-61.578,-151.81,-112.59
4343.0,-679.23,-64.578,-151.81,-112.59
4352.9,-688.23,-66.578,-152.81,-112.59
4362.8,-696.23,-70.578,-152.81,-112.59
4372.7,-704.23,-72.578,-154.81,-111.59
4382.6,-716.23,-77.578,-154.81,-111.59
4392.4,-724.23,-80.578,-155.81,-109.59
4402.3,-735.23,-83.578,-155.81,-109.59
4412.2,-745.23,-87.578,-156.81,-108.59
4422.1,-753.23,-90.578,-156.81,-108.59
4432.0,-760.23,-91.578,-156.81,-106.59
4441.9,-767.23,-95.578,-156.81,-106.59
4451.8,-776.23,-98.578,-154.81,-105.59
4461.6,-787.23,-103.58,-154.81,-105.59
4471.5,-796.23,-105.58,-152.81,-103.59
4481.4,-803.23,-107.58,-152.81,-103.59
4491.3,-814.23,-107.58,-150.81,-101.59
4501.2,-823.23,-110.58,-146.81,-99.586
4511.1,-830.23,-114.58,-143.81,-97.586
4521.0,-822.23,-115.58,-137.81,-94.586
4530.8,-806.23,-113.58,-124.81,-88.586
4540.7,-783.23,-108.58,-108.81,-82.586
4550.6,-760.23,-102.58,-100.81,-79.586
4560.5,-736.23,-93.578,-89.814,-77.586
4570.4,-715.23,-85.578,-83.814,-75.586
4580.3,-694.23,-78.578,-80.814,-75.586
4590.2,-683.23,-74.578,-79.814,-76.586
4600.0,-677.23,-72.578,-76.814,-76.586
4609.9,-674.23,-72.578,-74.814,-76.586
4619.8,-676.23,-74.578,-71.814,-75.586
4629.7,-678.23,-75.578,-66.814,-75.586
4639.6,-678.23,-76.578,-65.814,-74.586
4649.5,-679.23,-77.578,-63.814,-72.586
4659.4,-679.23,-76.578,-62.814,-71.586
4669.2,-680.23,-77.578,-59.814,-71.586
4679.1,-680.23,-78.578,-57.814,-70.586
4689.0,-684.23,-79.578,-56.814,-69.586
4698.9,-686.23,-80.578,-56.814,-69.586
4708.8,-687.23,-79.578,-57.814,-70.586
4718.7,-690.23,-81.578,-62.814,-72.586
4728.6,-693.23,-81.578,-64.814,-73.586
4738.4,-697.23,-82.578,-67.814,-75.586
4748.3,-698.23,-82.578,-68.814,-74.586
4758.2,-703.23,-85.578,-65.814,-73.586
4768.1,-707.23,-86.578,-64.814,-71.586
4778.0,-714.23,-89.578,-62.814,-71.586
4787.9,-724.23,-92.578,-59.814,-69.586
4797.8,-730.23,-95.578,-57.814,-68.586
4807.6,-740.23,-99.578,-55.814,-67.586
4817.5,-750.23,-101.58,-55.814,-66.586
4827.4,-761.23,-104.58,-56.814,-65.586
4837.3,-769.23,-106.58,-55.814,-65.586
4847.2,-779.23,-110.58,-57.814,-65.586
4857.1,-792.23,-112.58,-58.814,-65.586
4867.0,-792.23,-112.58,-60.814,-65.586
4876.8,-817.23,-122.58,-60.814,-66.586
4886.7,-817.23,-122.58,-60.814,-65.586
4896.6,-843.23,-129.58,-59.814,-63.586
4906.5,-843.23,-129.58,-56.814,-62.586
4916.4,-870.23,-134.58,-56.814,-60.586
4926.3,-870.23,-134.58,-54.814,-60.586
4936.2,-900.23,-144.58,-51.814,-57.586
4946.0,-900.23,-144.58,-48.814,-54.586
4955.9,-882.23,-143.58,-40.814,-50.586
4965.8,-882.23,-143.58,-38.814,-48.586
4975.7,-838.23,-132.58,-35.814,-47.586
4985.6,-838.23,-132.58,-33.814,-46.586
4995.5,-803.23,-124.58,-29.814,-43.586
5005.4,-803.23,-124.58,-30.814,-45.586
5015.2,-794.23,-121.58,-29.814,-45.586
5025.1,-789.23,-119.58,-32.814,-46.586
5035.0,-789.23,-119.58,-32.814,-45.586
5044.9,-792.23,-121.58,-31.814,-45.586
5054.8,-798.23,-124.58,-29.814,-43.586
5064.7,-804.23,-126.58,-30.814,-43.586
5074.6,-808.23,-129.58,-27.814,-41.586
5084.4,-814.23,-130.58,-26.814,-40.586
5094.3,-818.23,-131.58,-23.814,-39.586
5104.2,-824.23,-131.58,-20.814,-35.586
5114.1,-830.23,-134.58,-19.814,-36.586
5124.0,-839.23,-138.58,-18.814,-34.586
5133.9,-848.23,-140.58,-18.814,-35.586
5143.8,-857.23,-142.58,-15.814,-34.586
5153.6,-863.23,-145.58,-17.814,-33.586
5163.5,-870.23,-148.58,-13.814,-31.586
5173.4,-876.23,-149.58,-14.814,-30.586
5183.3,-885.23,-152.58,-12.814,-29.586
5193.2,-892.23,-155.58,-11.814,-29.586
5203.1,-902.23,-158.58,-12.814,-28.586
5213.0,-912.23,-160.58,-14.814,-29.586
5222.8,-920.23,-164.58,-15.814,-29.586
5232.7,-931.23,-168.58,-18.814,-28.586
5242.6,-940.23,-170.58,-18.814,-28.586
5252.5,-954.23,-175.58,-17.814,-28.586
5262.4,-964.23,-179.58,-16.814,-27.586
5272.3,-976.23,-182.58,-16.814,-26.586
5282.1,-985.23,-185.58,-15.814,-26.586
5292.0,-995.23,-188.58,-16.814,-25.586
5301.9,-1006.2,-191.58,-14.814,-25.586
5311.8,-1018.2,-195.58,-14.814,-25.586
5321.7,-1027.2,-199.58,-12.814,-23.586
5331.6,-1035.2,-201.58,-12.814,-23.586
5341.5,-1045.2,-204.58,-16.814,-25.586
5351.4,-1055.2,-205.58,-16.814,-25.586
5361.2,-1063.2,-207.58,-21.814,-23.586
5371.1,-1072.2,-209.58,-21.814,-23.586
5381.0,-1062.2,-206.58,-16.814,-18.586
5390.9,-1040.2,-202.58,-16.814,-18.586
5400.8,-1012.2,-194.58,-11.814,-16.586
5410.7,-982.23,-186.58,-11.814,-16.586
5420.5,-954.23,-180.58,-9.8135,-15.586
5430.4,-934.23,-173.58,-9.8135,-15.586
5440.3,-918.23,-168.58,-9.8135,-16.586
5450.2,-910.23,-165.58,-9.8135,-16.586
5460.1,-904.23,-165.58,-14.814,-17.586
5470.0,-900.23,-163.58,-14.814,-17.586
5479.9,-901.23,-163.58,-17.814,-17.586
5489.8,-900.23,-163.58,-17.814,-17.586
5499.6,-901.23,-163.58,-17.814,-16.586
5509.5,-901.23,-163.58,-17.814,-16.586
5519.4,-901.23,-163.58,-14.814,-14.586
5529.3,-903.23,-163.58,-14.814,-13.586
5539.2,-910.23,-165.58,-10.814,-10.586
5549.1,-915.23,-167.58,-9.8135,-10.586
5558.9,-921.23,-167.58,-6.8135,-10.586
5568.8,-924.23,-168.58,-8.8135,-8.5856
5578.7,-927.23,-167.58,-9.8135,-9.5856
5588.6,-929.23,-168.58,-8.8135,-7.5856
5598.5,-929.23,-168.58,-10.814,-8.5856
5608.4,-938.23,-171.58,-10.814,-7.5856
5618.3,-938.23,-171.58,-11.814,-8.5856
5628.1,-945.23,-173.58,-13.814,-7.5856
5638.0,-945.23,-173.58,-15.814,-8.5856
5647.9,-954.23,-175.58,-16.814,-8.5856
5657.8,-954.23,-175.58,-15.814,-9.5856
5667.7,-967.23,-177.58,-15.814,-8.5856
5677.6,-967.23,-177.58,-15.814,-8.5856
5687.5,-977.23,-181.58,-18.814,-7.5856
5697.3,-977.23,-181.58,-17.814,-7.5856
5707.2,-985.23,-183.58,-19.814,-9.5856
5717.1,-985.23,-183.58,-20.814,-8.5856
5727.0,-994.23,-186.58,-20.814,-7.5856
5736.9,-994.23,-186.58,-20.814,-7.5856
5746.8,-1000.2,-188.58,-21.814,-7.5856
5756.7,-1003.2,-189.58,-21.814,-6.5856
5766.5,-1008.2,-189.58,-19.814,-6.5856
5776.4,-1010.2,-191.58,-20.814,-4.5856
5786.3,-1013.2,-189.58,-18.814,-5.5856
5796.2,-1013.2,-188.58,-18.814,-3.5856
5806.1,-1014.2,-188.58,-19.814,-3.5856
5816.0,-1014.2,-189.58,-17.814,-2.5856
5825.9,-999.23,-184.58,-12.814,1.4144
5835.7,-976.23,-179.58,-7.8135,3.4144
5845.6,-946.23,-171.58,-4.8135,5.4144
5855.5,-922.23,-167.58,-1.8135,6.4144
5865.4,-904.23,-162.58,-1.8135,6.4144
5875.3,-887.23,-159.58,3.1865,8.4144
5885.2,-874.23,-154.58,5.1865,9.4144
5895.1,-861.23,-151.58,7.1865,9.4144
5904.9,-853.23,-148.58,10.186,10.414
5914.8,-849.23,-147.58,12.186,10.414
5924.7,-844.23,-147.58,14.186,11.414
5934.6,-839.23,-145.58,19.186,13.414
5944.5,-835.23,-145.58,22.186,13.414
5954.4,-830.23,-143.58,25.186,13.414
5964.3,-826.23,-142.58,27.186,14.414
5974.1,-824.23,-141.58,29.186,14.414
5984.0,-821.23,-140.58,30.186,15.414
5993.9,-818.23,-139.58,36.186,15.414
6003.8,-812.23,-138.58,41.186,19.414
6013.7,-815.23,-138.58,46.186,21.414
6023.6,-812.23,-137.58,52.186,23.414
6033.5,-810.23,-137.58,57.186,24.414
6043.3,-810.23,-137.58,61.186,27.414
6053.2,-809.23,-137.58,64.186,27.414
6063.1,-805.23,-137.58,64.186,27.414
6073.0,-806.23,-137.58,63.186,25.414
6082.9,-804.23,-138.58,61.186,23.414
6092.8,-803.23,-138.58,60.186,22.414
6102.7,-806.23,-139.58,56.186,21.414
6112.5,-808.23,-141.58,52.186,18.414
6122.4,-810.23,-142.58,49.186,17.414
6132.3,-810.23,-142.58,46.186,15.414
6142.2,-810.23,-143.58,45.186,15.414
6152.1,-810.23,-143.58,46.186,15.414
6162.0,-808.23,-141.58,48.186,17.414
6171.9,-807.23,-142.58,48.186,18.414
6181.7,-807.23,-143.58,48.186,17.414
6191.6,-804.23,-142.58,49.186,18.414
6201.5,-802.23,-141.58,47.186,17.414
6211.4,-801.23,-141.58,45.186,17.414
6221.3,-795.23,-137.58,45.186,16.414
6231.2,-792.23,-135.58,42.186,17.414
6241.1,-786.23,-133.58,39.186,15.414
6250.9,-787.23,-135.58,41.186,16.414
6260.8,-784.23,-136.58,44.186,18.414
6270.7,-773.23,-136.58,54.186,25.414
6280.6,-747.23,-130.58,71.186,32.414
6290.5,-716.23,-123.58,87.186,38.414
6300.4,-691.23,-117.58,99.186,41.414
6310.3,-691.23,-117.58,106.19,43.414
6320.1,-659.23,-111.58,109.19,42.414
6330.0,-659.23,-111.58,107.19,40.414
6339.9,-623.23,-101.58,107.19,40.414
6349.8,-623.23,-101.58,100.19,35.414
6359.7,-595.23,-92.578,100.19,35.414
6369.6,-595.23,-92.578,94.186,31.414
6379.5,-575.23,-87.578,94.186,31.414
6389.3,-575.23,-87.578,89.186,26.414
6399.2,-560.23,-84.578,89.186,26.414
6409.1,-560.23,-84.578,82.186,25.414
6419.0,-549.23,-86.578,82.186,25.414
6428.9,-549.23,-86.578,75.186,22.414
6438.8,-547.23,-87.578,75.186,22.414
6448.7,-547.23,-87.578,69.186,19.414
6458.5,-547.23,-88.578,69.186,19.414
6468.4,-547.23,-91.578,61.186,17.414
6478.3,-549.23,-93.578,61.186,17.414
6488.2,-550.23,-97.578,52.186,14.414
6498.1,-552.23,-99.578,52.186,14.414
6508.0,-554.23,-104.58,43.186,8.4144
6517.9,-556.23,-105.58,43.186,8.4144
6527.7,-558.23,-108.58,29.186,4.4144
6537.6,-556.23,-108.58,29.186,4.4144
6547.5,-557.23,-110.58,23.186,1.4144
6557.4,-556.23,-113.58,16.186,-2.5856
6567.3,-557.23,-114.58,9.1865,-5.5856
6577.2,-555.23,-114.58,3.1865,-8.5856
6587.1,-553.23,-114.58,-1.8135,-12.586
6596.9,-549.23,-114.58,-6.8135,-11.586
6606.8,-547.23,-114.58,-11.814,-12.586
6616.7,-543.23,-111.58,-16.814,-15.586
6626.6,-538.23,-110.58,-20.814,-16.586
6636.5,-537.23,-109.58,-23.814,-17.586
6646.4,-532.23,-108.58,-29.814,-20.586
6656.3,-528.23,-108.58,-33.814,-20.586
6666.1,-524.23,-106.58,-40.814,-24.586
6676.0,-515.23,-102.58,-44.814,-26.586
6685.9,-501.23,-94.578,-50.814,-29.586
6695.8,-483.23,-84.578,-55.814,-32.586
6705.7,-478.23,-83.578,-61.814,-34.586
6715.6,-474.23,-83.578,-63.814,-34.586
6725.5,-462.23,-82.578,-62.814,-32.586
6735.3,-433.23,-73.578,-49.814,-28.586
6745.2,-391.23,-60.578,-37.814,-24.586
6755.1,-350.23,-46.578,-29.814,-21.586
6765.0,-314.23,-36.578,-19.814,-20.586
6774.9,-287.23,-28.578,-14.814,-19.586
6784.8,-266.23,-20.578,-14.814,-21.586
6794.7,-248.23,-14.578,-16.814,-24.586
6804.5,-227.23,-6.5781,-18.814,-26.586
6814.4,-208.23,0.4219,-22.814,-28.586
6824.3,-189.23,7.4219,-24.814,-30.586
6834.2,-177.23,10.422,-26.814,-33.586
6844.1,-167.23,13.422,-28.814,-34.586
6854.0,-163.23,14.422,-34.814,-37.586
6863.9,-152.23,18.422,-36.814,-39.586
6873.7,-147.23,21.422,-43.814,-42.586
6883.6,-144.23,23.422,-47.814,-43.586
6893.5,-144.23,24.422,-53.814,-46.586
6903.4,-143.23,25.422,-58.814,-48.586
6913.3,-142.23,25.422,-60.814,-49.586
6923.2,-144.23,25.422,-63.814,-51.586
6933.1,-145.23,24.422,-69.814,-52.586
6942.9,-147.23,25.422,-73.814,-53.586
6952.8,-150.23,23.422,-78.814,-55.586
6962.7,-152.23,23.422,-83.814,-57.586
6972.6,-153.23,22.422,-86.814,-58.586
6982.5,-158.23,21.422,-89.814,-58.586
6992.4,-162.23,19.422,-94.814,-60.586
7002.3,-167.23,19.422,-97.814,-61.586
7012.1,-173.23,17.422,-101.81,-61.586
7022.0,-178.23,17.422,-103.81,-63.586
7031.9,-184.23,15.422,-108.81,-65.586
7041.8,-184.23,15.422,-113.81,-68.586
7051.7,-196.23,12.422,-118.81,-70.586
7061.6,-196.23,12.422,-123.81,-71.586
7071.5,-215.23,6.4219,-126.81,-73.586
7081.3,-215.23,6.4219,-133.81,-75.586
7091.2,-237.23,-0.5781,-137.81,-77.586
7101.1,-237.23,-0.5781,-140.81,-78.586
7111.0,-256.23,-4.5781,-144.81,-80.586
7120.9,-256.23,-4.5781,-145.81,-80.586
7130.8,-268.23,-6.5781,-150.81,-81.586
7140.7,-268.23,-6.5781,-148.81,-82.586
7150.5,-280.23,-6.5781,-153.81,-84.586
7160.4,-280.23,-6.5781,-155.81,-84.586
7170.3,-300.23,-18.578,-156.81,-84.586
7180.2,-300.23,-18.578,-148.81,-79.586
7190.1,-294.23,-19.578,-136.81,-74.586
7200.0,-275.23,-15.578,-123.81,-70.586
7209.9,-255.23,-11.578,-111.81,-69.586
7219.7,-243.23,-10.578,-105.81,-68.586
7229.6,-234.23,-9.5781,-103.81,-69.586
7239.5,-227.23,-6.5781,-102.81,-70.586
7249.4,-218.23,-4.5781,-103.81,-71.586
7259.3,-207.23,0.4219,-105.81,-73.586
7269.2,-196.23,4.4219,-106.81,-74.586
7279.1,-183.23,10.422,-106.81,-74.586
7288.9,-174.23,13.422,-106.81,-74.586
7298.8,-166.23,17.422,-110.81,-77.586
7308.7,-156.23,24.422,-110.81,-77.586
7318.6,-145.23,28.422,-117.81,-81.586
7328.5,-145.23,29.422,-117.81,-81.586
7338.4,-148.23,28.422,-124.81,-85.586
7348.3,-150.23,27.422,-124.81,-85.586
7358.1,-149.23,29.422,-134.81,-88.586
7368.0,-149.23,30.422,-134.81,-88.586
7377.9,-149.23,34.422,-143.81,-91.586
7387.8,-148.23,36.422,-143.81,-91.586
7397.7,-145.23,41.422,-149.81,-92.586
7407.6,-141.23,44.422,-149.81,-92.586
7417.5,-133.23,50.422,-156.81,-94.586
7427.3,-124.23,57.422,-156.81,-94.586
7437.2,-116.23,61.422,-161.81,-96.586
7447.1,-110.23,64.422,-161.81,-96.586
7457.0,-101.23,70.422,-169.81,-97.586
7466.9,-96.226,73.422,-169.81,-97.586
7476.8,-94.226,73.422,-174.81,-97.586
7486.7,-96.226,69.422,-174.81,-97.586
7496.5,-101.23,63.422,-176.81,-99.586
7506.4,-108.23,56.422,-178.81,-101.59
7516.3,-113.23,52.422,-182.81,-100.59
7526.2,-114.23,46.422,-184.81,-100.59
7536.1,-115.23,44.422,-185.81,-101.59
7546.0,-115.23,40.422,-185.81,-100.59
7555.9,-117.23,36.422,-186.81,-99.586
7565.7,-120.23,32.422,-189.81,-99.586
7575.6,-122.23,28.422,-188.81,-100.59
7585.5,-122.23,28.422,-188.81,-99.586
7595.4,-125.23,25.422,-191.81,-98.586
7605.3,-132.23,23.422,-192.81,-98.586
7615.2,-134.23,17.422,-191.81,-98.586
7625.1,-142.23,9.4219,-195.81,-98.586
7634.9,-141.23,9.4219,-191.81,-96.586
7644.8,-128.23,13.422,-178.81,-89.586
7654.7,-106.23,21.422,-162.81,-83.586
7664.6,-83.226,27.422,-147.81,-78.586
7674.5,-63.226,32.422,-136.81,-75.586
7684.4,-45.226,35.422,-128.81,-73.586
7694.3,-33.226,36.422,-124.81,-73.586
7704.1,-27.226,37.422,-123.81,-73.586
7714.0,-26.226,39.422,-120.81,-73.586
7723.9,-27.226,40.422,-120.81,-73.586
7733.8,-34.226,38.422,-117.81,-73.586
7743.7,-38.226,36.422,-117.81,-73.586
7753.6,-38.226,36.422,-116.81,-73.586
7763.5,-46.226,26.422,-117.81,-73.586
7773.3,-46.226,26.422,-116.81,-72.586
7783.2,-56.226,19.422,-117.81,-72.586
7793.1,-56.226,19.422,-118.81,-72.586
7803.0,-73.226,11.422,-118.81,-71.586
7812.9,-73.226,11.422,-120.81,-72.586
7822.8,-87.226,7.4219,-122.81,-73.586
7832.6,-87.226,7.4219,-126.81,-74.586
7842.5,-96.226,5.4219,-131.81,-75.586
7852.4,-96.226,5.4219,-134.81,-76.586
7862.3,-102.23,2.4219,-133.81,-75.586
7872.2,-102.23,2.4219,-135.81,-74.586
7882.1,-107.23,-4.5781,-135.81,-74.586
7892.0,-107.23,-4.5781,-134.81,-72.586
7901.9,-110.23,-6.5781,-131.81,-71.586
7911.7,-111.23,-10.578,-130.81,-70.586
7921.6,-113.23,-10.578,-130.81,-68.586
7931.5,-107.23,-9.5781,-127.81,-68.586
7941.4,-96.226,-5.5781,-128.81,-66.586
7951.3,-88.226,-3.5781,-126.81,-65.586
7961.2,-84.226,-1.5781,-127.81,-64.586
7971.0,-81.226,-1.5781,-125.81,-62.586
7980.9,-78.226,0.4219,-123.81,-62.586
7990.8,-79.226,0.4219,-123.81,-61.586
8000.7,-89.226,-3.5781,-124.81,-61.586
8010.6,-94.226,-5.5781,-125.81,-61.586
8020.5,-102.23,-7.5781,-124.81,-59.586
8030.4,-110.23,-11.578,-120.81,-58.586
8040.3,-123.23,-17.578,-119.81,-56.586
8050.1,-150.23,-27.578,-118.81,-54.586
8060.0,-199.23,-46.578,-117.81,-53.586
8069.9,-224.23,-53.578,-116.81,-51.586
8079.8,-256.23,-62.578,-112.81,-49.586
8089.7,-263.23,-50.578,-107.81,-47.586
8099.6,-255.23,-41.578,-100.81,-42.586
8109.4,-242.23,-37.578,-98.814,-41.586
8119.3,-221.23,-34.578,-94.814,-40.586
8129.2,-194.23,-28.578,-88.814,-38.586
8139.1,-172.23,-22.578,-86.814,-38.586
8149.0,-157.23,-20.578,-86.814,-36.586
8158.9,-151.23,-16.578,-82.814,-35.586
8168.8,-152.23,-11.578,-80.814,-35.586
8178.6,-153.23,-5.5781,-79.814,-33.586
8188.5,-157.23,-3.5781,-78.814,-32.586
8198.4,-161.23,-3.5781,-77.814,-32.586
8208.3,-167.23,-2.5781,-77.814,-30.586
8218.2,-169.23,-3.5781,-76.814,-30.586
8228.1,-173.23,-3.5781,-76.814,-28.586
8238.0,-176.23,-1.5781,-73.814,-27.586
8247.8,-181.23,-0.5781,-71.814,-25.586
8257.7,-189.23,-0.5781,-70.814,-25.586
8267.6,-199.23,-0.5781,-72.814,-24.586
8277.5,-209.23,-2.5781,-70.814,-24.586
8287.4,-218.23,-3.5781,-72.814,-23.586
8297.3,-226.23,-5.5781,-72.814,-23.586
8307.2,-233.23,-7.5781,-67.814,-22.586
8317.0,-242.23,-10.578,-67.814,-22.586
8326.9,-251.23,-10.578,-63.814,-18.586
8336.8,-258.23,-12.578,-63.814,-18.586
8346.7,-270.23,-15.578,-64.814,-17.586
8356.6,-279.23,-16.578,-64.814,-17.586
8366.5,-289.23,-20.578,-64.814,-16.586
8376.4,-300.23,-21.578,-64.814,-16.586
8386.2,-307.23,-22.578,-64.814,-15.586
8396.1,-320.23,-25.578,-64.814,-15.586
8406.0,-329.23,-27.578,-63.814,-14.586
8415.9,-340.23,-30.578,-63.814,-14.586
8425.8,-349.23,-32.578,-65.814,-13.586
8435.7,-364.23,-35.578,-65.814,-13.586
8445.6,-374.23,-40.578,-65.814,-12.586
8455.4,-387.23,-43.578,-65.814,-12.586
8465.3,-399.23,-48.578,-65.814,-12.586
8475.2,-411.23,-52.578,-65.814,-12.586
8485.1,-411.23,-52.578,-67.814,-11.586
8495.0,-437.23,-62.578,-66.814,-10.586
8504.9,-437.23,-62.578,-65.814,-11.586
8514.8,-472.23,-71.578,-67.814,-9.5856
8524.6,-472.23,-71.578,-65.814,-9.5856
8534.5,-478.23,-74.578,-61.814,-5.5856
8544.4,-478.23,-74.578,-58.814,-4.5856
8554.3,-441.23,-67.578,-58.814,-2.5856
8564.2,-441.23,-67.578,-58.814,-2.5856
8574.1,-390.23,-54.578,-55.814,-2.5856
8584.0,-390.23,-54.578,-58.814,-1.5856
8593.8,-351.23,-42.578,-60.814,-1.5856
8603.7,-351.23,-42.578,-59.814,-2.5856
8613.6,-339.23,-39.578,-62.814,-2.5856
8623.5,-332.23,-37.578,-66.814,-3.5856
8633.4,-332.23,-37.578,-67.814,-4.5856
8643.3,-331.23,-38.578,-69.814,-4.5856
8653.2,-332.23,-38.578,-70.814,-5.5856
8663.0,-331.23,-40.578,-69.814,-4.5856
8672.9,-331.23,-39.578,-67.814,-2.5856
8682.8,-332.23,-39.578,-67.814,-0.58555
8692.7,-333.23,-40.578,-65.814,0.41445
8702.6,-336.23,-41.578,-65.814,1.4144
8712.5,-337.23,-43.578,-64.814,2.4144
8722.4,-342.23,-43.578,-63.814,2.4144
8732.2,-346.23,-46.578,-62.814,3.4144
8742.1,-348.23,-46.578,-61.814,4.4144
8752.0,-350.23,-46.578,-61.814,4.4144
8761.9,-352.23,-46.578,-62.814,6.4144
8771.8,-354.23,-47.578,-59.814,4.4144
8781.7,-358.23,-47.578,-62.814,7.4144
8791.6,-358.23,-48.578,-61.814,6.4144
8801.4,-360.23,-48.578,-64.814,6.4144
8811.3,-361.23,-47.578,-64.814,6.4144
8821.2,-358.23,-46.578,-64.814,7.4144
8831.1,-357.23,-44.578,-66.814,7.4144
8841.0,-358.23,-44.578,-68.814,7.4144
8850.9,-361.23,-45.578,-67.814,8.4144
8860.8,-362.23,-45.578,-67.814,8.4144
8870.6,-365.23,-46.578,-65.814,10.414
8880.5,-368.23,-45.578,-61.814,12.414
8890.4,-373.23,-46.578,-60.814,12.414
8900.3,-376.23,-48.578,-59.814,14.414
8910.2,-380.23,-48.578,-60.814,13.414
8920.1,-384.23,-49.578,-62.814,14.414
8930.0,-387.23,-49.578,-63.814,14.414
8939.8,-393.23,-49.578,-62.814,14.414
8949.7,-399.23,-51.578,-64.814,13.414
8959.6,-403.23,-50.578,-66.814,13.414
8969.5,-417.23,-55.578,-63.814,16.414
8979.4,-419.23,-56.578,-57.814,20.414
8989.3,-405.23,-53.578,-54.814,22.414
8999.2,-382.23,-48.578,-52.814,23.414
9009.0,-356.23,-40.578,-48.814,24.414
9018.9,-327.23,-31.578,-48.814,26.414
9028.8,-301.23,-25.578,-49.814,25.414
9038.7,-286.23,-19.578,-50.814,24.414
9048.6,-276.23,-19.578,-53.814,23.414
9058.5,-275.23,-19.578,-58.814,21.414
9068.4,-273.23,-18.578,-59.814,20.414
9078.2,-275.23,-18.578,-61.814,19.414
9088.1,-280.23,-18.578,-61.814,20.414
9098.0,-285.23,-20.578,-62.814,21.414
9107.9,-290.23,-20.578,-60.814,21.414
9117.8,-297.23,-21.578,-58.814,23.414
9127.7,-304.23,-22.578,-56.814,24.414
9137.6,-308.23,-22.578,-55.814,25.414
9147.4,-315.23,-22.578,-56.814,25.414
9157.3,-323.23,-23.578,-56.814,26.414
9167.2,-327.23,-24.578,-58.814,25.414
9177.1,-332.23,-24.578,-58.814,25.414
9187.0,-338.23,-23.578,-59.814,26.414
9196.9,-338.23,-23.578,-59.814,25.414
9206.8,-346.23,-24.578,-60.814,25.414
9216.6,-346.23,-24.578,-60.814,26.414
9226.5,-353.23,-24.578,-61.814,27.414
9236.4,-353.23,-24.578,-61.814,26.414
9246.3,-364.23,-24.578,-64.814,25.414
9256.2,-364.23,-24.578,-65.814,24.414
9266.1,-376.23,-25.578,-69.814,23.414
9276.0,-376.23,-25.578,-72.814,21.414
9285.8,-390.23,-26.578,-74.814,22.414
9295.7,-390.23,-26.578,-76.814,21.414
9305.6,-403.23,-29.578,-76.814,22.414
9315.5,-403.23,-29.578,-77.814,22.414
9325.4,-414.23,-30.578,-77.814,22.414
9335.3,-414.23,-30.578,-73.814,25.414
9345.2,-420.23,-30.578,-73.814,25.414
9355.0,-426.23,-33.578,-70.814,27.414
9364.9,-432.23,-34.578,-70.814,27.414
9374.8,-439.23,-36.578,-65.814,30.414
9384.7,-445.23,-37.578,-65.814,30.414
9394.6,-450.23,-38.578,-64.814,29.414
9404.5,-454.23,-38.578,-64.814,29.414
9414.4,-457.23,-38.578,-66.814,30.414
9424.2,-462.23,-42.578,-66.814,30.414
9434.1,-462.23,-43.578,-54.814,38.414
9444.0,-450.23,-41.578,-54.814,38.414
9453.9,-425.23,-36.578,-27.814,47.414
9463.8,-403.23,-31.578,-27.814,47.414
9473.7,-383.23,-26.578,-7.8135,52.414
9483.6,-367.23,-22.578,-7.8135,52.414
9493.4,-353.23,-18.578,0.18646,54.414
9503.3,-342.23,-14.578,0.18646,54.414
9513.2,-331.23,-11.578,3.1865,53.414
9523.1,-324.23,-10.578,9.1865,55.414
9533.0,-316.23,-7.5781,16.186,55.414
9542.9,-311.23,-5.5781,19.186,57.414
9552.8,-305.23,-6.5781,23.186,57.414
9562.6,-301.23,-6.5781,25.186,57.414
9572.5,-296.23,-4.5781,24.186,54.414
9582.4,-291.23,-4.5781,25.186,53.414
9592.3,-290.23,-3.5781,21.186,51.414
9602.2,-285.23,-2.5781,16.186,47.414
9612.1,-285.23,-2.5781,15.186,46.414
9622.0,-283.23,-3.5781,16.186,46.414
9631.8,-281.23,-4.5781,16.186,48.414
9641.7,-278.23,-5.5781,21.186,49.414
9651.6,-275.23,-6.5781,24.186,51.414
9661.5,-266.23,-2.5781,30.186,53.414
9671.4,-260.23,-1.5781,35.186,55.414
9681.3,-254.23,1.4219,36.186,56.414
9691.2,-247.23,3.4219,37.186,55.414
9701.0,-246.23,1.4219,35.186,55.414
9710.9,-250.23,-1.5781,34.186,53.414
9720.8,-254.23,-7.5781,31.186,53.414
9730.7,-259.23,-11.578,26.186,51.414
9740.6,-263.23,-17.578,22.186,49.414
9750.5,-264.23,-18.578,22.186,50.414
9760.4,-264.23,-19.578,20.186,49.414
9770.2,-267.23,-20.578,19.186,49.414
9780.1,-269.23,-23.578,22.186,50.414
9790.0,-276.23,-26.578,20.186,50.414
9799.9,-279.23,-30.578,21.186,53.414
9809.8,-280.23,-32.578,23.186,54.414
9819.7,-280.23,-32.578,24.186,53.414
9829.6,-274.23,-31.578,24.186,54.414
9839.4,-263.23,-27.578,24.186,54.414
9849.3,-247.23,-20.578,21.186,55.414
9859.2,-238.23,-13.578,20.186,55.414
9869.1,-241.23,-15.578,20.186,55.414
9879.0,-254.23,-22.578,23.186,57.414
9888.9,-263.23,-27.578,30.186,59.414
9898.8,-247.23,-22.578,46.186,67.414
9908.6,-247.23,-22.578,60.186,73.414
9918.5,-208.23,-13.578,74.186,78.414
9928.4,-208.23,-13.578,86.186,82.414
9938.3,-170.23,-3.5781,94.186,81.414
9948.2,-170.23,-3.5781,93.186,80.414
9958.1,-139.23,8.4219,93.186,76.414
9968.0,-139.23,8.4219,91.186,75.414
9977.8,-127.23,12.422,91.186,74.414
9987.7,-127.23,12.422,91.186,75.414
9997.6,-131.23,5.4219,92.186,74.414
10008.0,-131.23,5.4219,91.186,74.414
10017.0,-145.23,-4.5781,89.186,71.414
10027.0,-145.23,-4.5781,87.186,70.414
10037.0,-155.23,-12.578,85.186,68.414
10047.0,-155.23,-12.578,79.186,65.414
10057.0,-162.23,-16.578,72.186,63.414
10067.0,-168.23,-20.578,68.186,59.414
10077.0,-175.23,-23.578,56.186,55.414
10087.0,-180.23,-24.578,49.186,53.414
10097.0,-187.23,-29.578,42.186,50.414
10106.0,-195.23,-32.578,38.186,47.414
10116.0,-201.23,-34.578,32.186,45.414
10126.0,-203.23,-35.578,29.186,45.414
10136.0,-201.23,-33.578,27.186,44.414
10146.0,-197.23,-30.578,22.186,42.414
10156.0,-191.23,-27.578,18.186,41.414
10166.0,-190.23,-26.578,13.186,39.414
10176.0,-189.23,-25.578,7.1865,36.414
10185.0,-195.23,-28.578,4.1865,35.414
10195.0,-202.23,-30.578,-1.8135,32.414
10205.0,-209.23,-35.578,-7.8135,30.414
10215.0,-218.23,-42.578,-14.814,25.414
10225.0,-227.23,-45.578,-22.814,23.414
10235.0,-233.23,-50.578,-28.814,20.414
10245.0,-239.23,-53.578,-34.814,17.414
10255.0,-245.23,-55.578,-42.814,13.414
10265.0,-246.23,-57.578,-48.814,11.414
10274.0,-249.23,-59.578,-48.814,11.414
10284.0,-253.23,-63.578,-60.814,5.4144
10294.0,-255.23,-63.578,-60.814,5.4144
10304.0,-247.23,-62.578,-70.814,1.4144
10314.0,-236.23,-56.578,-70.814,1.4144
10324.0,-222.23,-48.578,-79.814,-2.5856
10334.0,-220.23,-47.578,-79.814,-2.5856
10344.0,-224.23,-56.578,-88.814,-5.5856
10354.0,-226.23,-59.578,-88.814,-5.5856
10363.0,-212.23,-59.578,-70.814,2.4144
10373.0,-184.23,-54.578,-70.814,2.4144
10383.0,-158.23,-50.578,-50.814,5.4144
10393.0,-132.23,-42.578,-50.814,5.4144
10403.0,-105.23,-34.578,-44.814,4.4144
10413.0,-78.226,-26.578,-44.814,4.4144
10423.0,-51.226,-19.578,-50.814,-2.5856
10433.0,-27.226,-10.578,-50.814,-2.5856
10443.0,-6.2262,-1.5781,-60.814,-6.5856
10452.0,10.774,3.4219,-60.814,-6.5856
10462.0,24.774,9.4219,-67.814,-11.586
10472.0,35.774,12.422,-67.814,-11.586
10482.0,44.774,14.422,-74.814,-14.586
10492.0,53.774,17.422,-75.814,-16.586
10502.0,56.774,15.422,-82.814,-19.586
10512.0,56.774,14.422,-87.814,-21.586
10522.0,55.774,14.422,-95.814,-23.586
10531.0,58.774,13.422,-101.81,-25.586
10541.0,57.774,15.422,-108.81,-27.586
10551.0,58.774,15.422,-112.81,-29.586
10561.0,58.774,17.422,-116.81,-31.586
10571.0,60.774,18.422,-123.81,-33.586
10581.0,64.774,17.422,-127.81,-35.586
10591.0,69.774,20.422,-133.81,-36.586
10601.0,75.774,22.422,-137.81,-39.586
10611.0,86.774,25.422,-145.81,-41.586
10620.0,91.774,27.422,-149.81,-42.586
10630.0,95.774,29.422,-155.81,-44.586
10640.0,95.774,29.422,-161.81,-47.586
10650.0,91.774,26.422,-164.81,-49.586
10660.0,91.774,26.422,-169.81,-52.586
10670.0,79.774,22.422,-174.81,-54.586
10680.0,79.774,22.422,-177.81,-56.586
10690.0,56.774,13.422,-181.81,-57.586
10700.0,56.774,13.422,-186.81,-59.586
10709.0,40.774,6.4219,-189.81,-61.586
10719.0,40.774,6.4219,-195.81,-62.586
10729.0,22.774,-0.5781,-198.81,-64.586
10739.0,22.774,-0.5781,-204.81,-67.586
10749.0,13.774,-5.5781,-210.81,-69.586
10759.0,13.774,-5.5781,-213.81,-70.586
10769.0,12.774,-5.5781,-219.81,-72.586
10779.0,14.774,-3.5781,-222.81,-73.586
10789.0,13.774,-1.5781,-227.81,-76.586
10798.0,14.774,-0.5781,-231.81,-77.586
10808.0,5.7738,-4.5781,-233.81,-78.586
10818.0,-4.2262,-12.578,-231.81,-76.586
10828.0,-3.2262,-10.578,-217.81,-70.586
10838.0,19.774,-1.5781,-204.81,-66.586
10848.0,48.774,7.4219,-189.81,-61.586
10858.0,67.774,14.422,-180.81,-59.586
10868.0,82.774,19.422,-175.81,-59.586
10877.0,101.77,26.422,-174.81,-61.586
10887.0,123.77,34.422,-179.81,-64.586
10897.0,137.77,39.422,-180.81,-65.586
10907.0,148.77,45.422,-183.81,-66.586
10917.0,152.77,48.422,-183.81,-68.586
10927.0,159.77,50.422,-184.81,-68.586
10937.0,165.77,53.422,-186.81,-70.586
10947.0,171.77,53.422,-190.81,-70.586
10957.0,177.77,55.422,-193.81,-72.586
10966.0,181.77,55.422,-198.81,-74.586
10976.0,184.77,55.422,-202.81,-75.586
10986.0,184.77,55.422,-206.81,-76.586
10996.0,185.77,55.422,-208.81,-75.586
11006.0,184.77,56.422,-211.81,-76.586
11016.0,187.77,58.422,-214.81,-78.586
11026.0,188.77,62.422,-218.81,-77.586
11036.0,190.77,66.422,-222.81,-78.586
11046.0,190.77,69.422,-225.81,-79.586
11055.0,192.77,72.422,-228.81,-78.586
11065.0,194.77,78.422,-227.81,-78.586
11075.0,195.77,81.422,-230.81,-77.586
11085.0,195.77,85.422,-234.81,-80.586
11095.0,195.77,89.422,-238.81,-80.586
11105.0,193.77,94.422,-243.81,-82.586
11115.0,192.77,98.422,-247.81,-83.586
11125.0,193.77,105.42,-251.81,-84.586
11135.0,194.77,110.42,-255.81,-86.586
11144.0,195.77,116.42,-261.81,-87.586
11154.0,194.77,123.42,-264.81,-88.586
11164.0,194.77,129.42,-266.81,-88.586
11174.0,190.77,135.42,-268.81,-89.586
11184.0,185.77,137.42,-272.81,-89.586
11194.0,177.77,138.42,-274.81,-90.586
11204.0,165.77,136.42,-277.81,-90.586
11214.0,153.77,133.42,-279.81,-90.586
11223.0,135.77,128.42,-277.81,-89.586
11233.0,122.77,126.42,-279.81,-89.586
11243.0,111.77,123.42,-280.81,-88.586
11253.0,98.774,123.42,-280.81,-87.586
11263.0,84.774,118.42,-281.81,-88.586
11273.0,73.774,115.42,-280.81,-86.586
11283.0,79.774,117.42,-280.81,-86.586
11293.0,92.774,123.42,-254.81,-75.586
11303.0,110.77,129.42,-254.81,-75.586
11312.0,122.77,135.42,-230.81,-67.586
11322.0,134.77,141.42,-230.81,-67.586
11332.0,143.77,144.42,-216.81,-65.586
11342.0,151.77,148.42,-216.81,-65.586
11352.0,151.77,148.42,-211.81,-64.586
11362.0,158.77,153.42,-211.81,-64.586
11372.0,158.77,153.42,-206.81,-62.586
11382.0,153.77,153.42,-206.81,-62.586
11392.0,153.77,153.42,-200.81,-59.586
11401.0,134.77,149.42,-200.81,-59.586
11411.0,134.77,149.42,-203.81,-60.586
11421.0,118.77,144.42,-203.81,-60.586
11431.0,118.77,144.42,-204.81,-59.586
11441.0,93.774,135.42,-204.81,-59.586
11451.0,93.774,135.42,-208.81,-60.586
11461.0,70.774,128.42,-208.81,-60.586
11471.0,70.774,128.42,-210.81,-59.586
11481.0,49.774,123.42,-212.81,-60.586
11490.0,49.774,123.42,-211.81,-59.586
11500.0,40.774,118.42,-211.81,-58.586
11510.0,31.774,115.42,-210.81,-57.586
11520.0,25.774,114.42,-209.81,-56.586
11530.0,18.774,112.42,-209.81,-56.586
11540.0,12.774,111.42,-210.81,-55.586
11550.0,7.7738,110.42,-212.81,-57.586
11560.0,-0.22621,106.42,-213.81,-55.586
11569.0,-6.2262,106.42,-213.81,-55.586
11579.0,-13.226,103.42,-215.81,-55.586
11589.0,-21.226,100.42,-215.81,-54.586
11599.0,-30.226,99.422,-215.81,-54.586
11609.0,-39.226,95.422,-215.81,-54.586
11619.0,-49.226,93.422,-216.81,-53.586
11629.0,-61.226,89.422,-217.81,-54.586
11639.0,-70.226,87.422,-214.81,-52.586
11649.0,-80.226,85.422,-215.81,-52.586
11658.0,-93.226,80.422,-214.81,-50.586
11668.0,-102.23,77.422,-213.81,-49.586
11678.0,-114.23,72.422,-211.81,-48.586
11688.0,-127.23,71.422,-209.81,-47.586
11698.0,-134.23,69.422,-205.81,-44.586
11708.0,-144.23,67.422,-205.81,-42.586
11718.0,-156.23,65.422,-202.81,-42.586
11728.0,-167.23,62.422,-204.81,-41.586
11738.0,-174.23,58.422,-202.81,-41.586
11747.0,-170.23,58.422,-194.81,-34.586
11757.0,-153.23,65.422,-179.81,-28.586
11767.0,-134.23,67.422,-166.81,-24.586
11777.0,-120.23,72.422,-153.81,-22.586
11787.0,-106.23,77.422,-145.81,-19.586
11797.0,-94.226,82.422,-136.81,-16.586
11807.0,-88.226,83.422,-132.81,-14.586
11817.0,-85.226,84.422,-129.81,-14.586
11827.0,-85.226,83.422,-125.81,-13.586
11836.0,-91.226,81.422,-120.81,-11.586
11846.0,-95.226,78.422,-119.81,-10.586
11856.0,-99.226,75.422,-118.81,-11.586
11866.0,-107.23,73.422,-116.81,-10.586
11876.0,-111.23,70.422,-116.81,-10.586
11886.0,-117.23,68.422,-117.81,-10.586
11896.0,-125.23,64.422,-114.81,-9.5856
11906.0,-132.23,62.422,-114.81,-8.5856
11915.0,-141.23,58.422,-110.81,-7.5856
11925.0,-150.23,55.422,-110.81,-6.5856
11935.0,-156.23,53.422,-109.81,-6.5856
11945.0,-163.23,49.422,-107.81,-5.5856
11955.0,-167.23,46.422,-106.81,-4.5856
11965.0,-175.23,45.422,-105.81,-3.5856
11975.0,-180.23,43.422,-104.81,-1.5856
11985.0,-186.23,39.422,-102.81,-1.5856
11995.0,-192.23,37.422,-102.81,-1.5856
12004.0,-199.23,34.422,-102.81,-0.58555
12014.0,-207.23,32.422,-102.81,-0.58555
12024.0,-214.23,29.422,-103.81,-0.58555
12034.0,-224.23,25.422,-103.81,0.41445
12044.0,-233.23,21.422,-104.81,0.41445
12054.0,-244.23,17.422,-104.81,-0.58555
12064.0,-256.23,13.422,-104.81,-0.58555
12074.0,-266.23,8.4219,-105.81,-0.58555
12084.0,-266.23,8.4219,-104.81,-0.58555
12093.0,-289.23,0.4219,-103.81,1.4144
12103.0,-289.23,0.4219,-103.81,1.4144
12113.0,-317.23,-8.5781,-102.81,3.4144
12123.0,-317.23,-8.5781,-101.81,4.4144
12133.0,-342.23,-16.578,-98.814,4.4144
12143.0,-342.23,-16.578,-94.814,6.4144
12153.0,-366.23,-23.578,-91.814,9.4144
12163.0,-366.23,-23.578,-92.814,9.4144
12173.0,-398.23,-32.578,-91.814,10.414
12182.0,-398.23,-32.578,-90.814,12.414
12192.0,-405.23,-38.578,-88.814,13.414
12202.0,-405.23,-38.578,-86.814,15.414
12212.0,-390.23,-36.578,-82.814,17.414
12222.0,-369.23,-31.578,-83.814,18.414
12232.0,-346.23,-26.578,-81.814,19.414
12242.0,-321.23,-19.578,-82.814,18.414
12252.0,-304.23,-15.578,-83.814,17.414
12261.0,-288.23,-11.578,-82.814,17.414
12271.0,-282.23,-9.5781,-82.814,17.414
12281.0,-278.23,-9.5781,-86.814,16.414
12291.0,-282.23,-10.578,-86.814,16.414
12301.0,-282.23,-12.578,-88.814,16.414
12311.0,-284.23,-13.578,-88.814,16.414
12321.0,-289.23,-15.578,-86.814,18.414
12331.0,-291.23,-17.578,-86.814,18.414
12341.0,-295.23,-19.578,-78.814,22.414
12350.0,-298.23,-19.578,-78.814,22.414
12360.0,-303.23,-20.578,-76.814,26.414
12370.0,-308.23,-23.578,-76.814,26.414
12380.0,-315.23,-26.578,-75.814,27.414
12390.0,-321.23,-28.578,-75.814,27.414
12400.0,-328.23,-28.578,-74.814,29.414
12410.0,-332.23,-31.578,-74.814,29.414
12420.0,-337.23,-31.578,-75.814,30.414
12430.0,-341.23,-32.578,-75.814,30.414
12439.0,-347.23,-34.578,-77.814,29.414
12449.0,-354.23,-36.578,-77.814,29.414
12459.0,-360.23,-37.578,-78.814,30.414
12469.0,-365.23,-40.578,-76.814,30.414
12479.0,-373.23,-43.578,-78.814,30.414
12489.0,-381.23,-45.578,-80.814,32.414
12499.0,-389.23,-49.578,-80.814,30.414
12509.0,-397.23,-52.578,-81.814,33.414
12519.0,-407.23,-56.578,-81.814,33.414
12528.0,-417.23,-59.578,-80.814,32.414
12538.0,-427.23,-63.578,-80.814,32.414
12548.0,-438.23,-68.578,-82.814,33.414
12558.0,-445.23,-69.578,-84.814,32.414
12568.0,-451.23,-72.578,-83.814,32.414
12578.0,-461.23,-74.578,-84.814,33.414
12588.0,-470.23,-77.578,-84.814,33.414
12598.0,-477.23,-80.578,-83.814,34.414
12607.0,-486.23,-82.578,-82.814,36.414
12617.0,-493.23,-83.578,-84.814,36.414
12627.0,-502.23,-86.578,-86.814,35.414
12637.0,-507.23,-88.578,-86.814,37.414
12647.0,-500.23,-86.578,-84.814,38.414
12657.0,-480.23,-81.578,-83.814,39.414
12667.0,-452.23,-75.578,-85.814,38.414
12677.0,-425.23,-68.578,-82.814,41.414
12687.0,-395.23,-63.578,-82.814,41.414
12696.0,-371.23,-55.578,-83.814,40.414
12706.0,-352.23,-49.578,-85.814,39.414
12716.0,-340.23,-46.578,-90.814,38.414
12726.0,-332.23,-44.578,-94.814,36.414
12736.0,-326.23,-43.578,-96.814,36.414
12746.0,-318.23,-42.578,-98.814,36.414
12756.0,-313.23,-41.578,-98.814,36.414
12766.0,-308.23,-39.578,-97.814,38.414
12776.0,-302.23,-38.578,-95.814,39.414
12785.0,-296.23,-36.578,-92.814,40.414
12795.0,-296.23,-36.578,-91.814,43.414
12805.0,-289.23,-32.578,-87.814,45.414
12815.0,-289.23,-32.578,-86.814,46.414
12825.0,-285.23,-31.578,-83.814,47.414
12835.0,-285.23,-31.578,-80.814,48.414
12845.0,-282.23,-29.578,-80.814,49.414
12855.0,-282.23,-29.578,-80.814,50.414
12865.0,-279.23,-27.578,-81.814,50.414
12874.0,-279.23,-27.578,-83.814,49.414
12884.0,-278.23,-27.578,-84.814,49.414
12894.0,-278.23,-27.578,-84.814,50.414
12904.0,-280.23,-28.578,-85.814,49.414
12914.0,-280.23,-28.578,-86.814,49.414
12924.0,-283.23,-28.578,-89.814,49.414
12934.0,-283.23,-28.578,-89.814,49.414
12944.0,-283.23,-29.578,-90.814,49.414
12953.0,-285.23,-29.578,-90.814,49.414
12963.0,-287.23,-29.578,-89.814,51.414
12973.0,-290.23,-30.578,-90.814,51.414
12983.0,-296.23,-30.578,-91.814,52.414
12993.0,-301.23,-31.578,-91.814,52.414
13003.0,-306.23,-32.578,-88.814,52.414
13013.0,-313.23,-32.578,-89.814,54.414
13023.0,-318.23,-34.578,-87.814,55.414
13033.0,-323.23,-34.578,-85.814,56.414
13042.0,-328.23,-35.578,-84.814,58.414
13052.0,-335.23,-37.578,-84.814,59.414
13062.0,-342.23,-37.578,-84.814,59.414
13072.0,-349.23,-39.578,-84.814,58.414
13082.0,-355.23,-38.578,-86.814,58.414
13092.0,-362.23,-40.578,-83.814,61.414
13102.0,-357.23,-38.578,-83.814,61.414
13112.0,-340.23,-34.578,-84.814,63.414
13122.0,-318.23,-29.578,-80.814,64.414
13131.0,-294.23,-23.578,-77.814,66.414
13141.0,-274.23,-18.578,-74.814,67.414
13151.0,-255.23,-13.578,-77.814,67.414
13161.0,-243.23,-9.5781,-76.814,65.414
13171.0,-235.23,-7.5781,-77.814,65.414
13181.0,-229.23,-6.5781,-79.814,65.414
13191.0,-224.23,-4.5781,-78.814,66.414
13201.0,-220.23,-4.5781,-75.814,67.414
13210.0,-218.23,-1.5781,-74.814,68.414
13220.0,-215.23,0.4219,-73.814,67.414
13230.0,-212.23,2.4219,-72.814,69.414
13240.0,-210.23,2.4219,-72.814,69.414
13250.0,-210.23,2.4219,-67.814,72.414
13260.0,-209.23,3.4219,-67.814,72.414
13270.0,-210.23,2.4219,-62.814,74.414
13280.0,-208.23,5.4219,-62.814,74.414
13290.0,-209.23,4.4219,-58.814,77.414
13299.0,-210.23,5.4219,-58.814,77.414
13309.0,-211.23,5.4219,-55.814,76.414
13319.0,-211.23,5.4219,-55.814,76.414
13329.0,-210.23,5.4219,-56.814,77.414
13339.0,-212.23,4.4219,-56.814,77.414
13349.0,-211.23,5.4219,-58.814,75.414
13359.0,-213.23,5.4219,-58.814,75.414
13369.0,-213.23,5.4219,-61.814,75.414
13379.0,-213.23,5.4219,-61.814,75.414
13388.0,-218.23,4.4219,-60.814,74.414
13398.0,-221.23,4.4219,-60.814,74.414
13408.0,-222.23,4.4219,-57.814,77.414
13418.0,-226.23,3.4219,-57.814,77.414
13428.0,-228.23,3.4219,-53.814,79.414
13438.0,-233.23,2.4219,-51.814,79.414
13448.0,-235.23,0.4219,-47.814,82.414
13458.0,-241.23,-0.5781,-46.814,81.414
13468.0,-243.23,-1.5781,-46.814,82.414
13477.0,-248.23,-2.5781,-44.814,82.414
13487.0,-249.23,-1.5781,-44.814,81.414
13497.0,-250.23,-1.5781,-43.814,83.414
13507.0,-251.23,-0.5781,-44.814,80.414
13517.0,-252.23,0.4219,-44.814,81.414
13527.0,-252.23,0.4219,-44.814,82.414
13537.0,-253.23,1.4219,-43.814,81.414
13547.0,-253.23,1.4219,-40.814,82.414
13556.0,-249.23,0.4219,-40.814,84.414
13566.0,-249.23,0.4219,-33.814,87.414
13576.0,-201.23,13.422,-21.814,92.414
13586.0,-201.23,13.422,-12.814,94.414
13596.0,-152.23,26.422,-4.8135,97.414
13606.0,-152.23,26.422,3.1865,99.414
13616.0,-115.23,38.422,11.186,99.414
13626.0,-115.23,38.422,11.186,100.41
13636.0,-86.226,48.422,16.186,101.41
13645.0,-86.226,48.422,20.186,101.41
13655.0,-72.226,52.422,24.186,102.41
13665.0,-72.226,52.422,31.186,104.41
13675.0,-70.226,52.422,34.186,103.41
13685.0,-71.226,52.422,38.186,104.41
13695.0,-71.226,53.422,39.186,103.41
13705.0,-70.226,51.422,41.186,103.41
13715.0,-73.226,51.422,44.186,102.41
13725.0,-71.226,53.422,43.186,103.41
13734.0,-73.226,51.422,46.186,102.41
13744.0,-76.226,51.422,48.186,104.41
13754.0,-79.226,51.422,49.186,104.41
13764.0,-80.226,50.422,52.186,105.41
13774.0,-82.226,50.422,55.186,105.41
13784.0,-83.226,50.422,57.186,106.41
13794.0,-84.226,50.422,60.186,107.41
13804.0,-84.226,50.422,61.186,107.41
13814.0,-85.226,50.422,62.186,106.41
13823.0,-88.226,50.422,63.186,108.41
13833.0,-89.226,50.422,66.186,108.41
13843.0,-95.226,48.422,66.186,108.41
13853.0,-99.226,45.422,66.186,108.41
13863.0,-107.23,45.422,67.186,109.41
13873.0,-113.23,41.422,67.186,109.41
13883.0,-121.23,39.422,66.186,110.41
13893.0,-127.23,38.422,69.186,110.41
13902.0,-132.23,38.422,70.186,111.41
13912.0,-135.23,36.422,71.186,111.41
13922.0,-140.23,35.422,72.186,111.41
13932.0,-144.23,35.422,73.186,112.41
13942.0,-147.23,35.422,73.186,113.41
13952.0,-151.23,34.422,74.186,114.41
13962.0,-155.23,34.422,75.186,114.41
13972.0,-159.23,33.422,76.186,114.41
13982.0,-160.23,35.422,79.186,115.41
13991.0,-163.23,36.422,77.186,117.41
14001.0,-161.23,38.422,77.186,116.41
14011.0,-165.23,38.422,79.186,118.41
14021.0,-168.23,38.422,82.186,119.41
14031.0,-159.23,41.422,93.186,125.41
14041.0,-139.23,46.422,110.19,133.41
14051.0,-114.23,51.422,126.19,139.41
14061.0,-88.226,56.422,145.19,143.41
14071.0,-68.226,60.422,157.19,146.41
14080.0,-46.226,66.422,169.19,149.41
14090.0,-28.226,71.422,172.19,149.41
14100.0,-12.226,77.422,174.19,148.41
14110.0,0.77379,81.422,178.19,148.41
14120.0,8.7738,83.422,181.19,148.41
14130.0,15.774,85.422,185.19,148.41
14140.0,21.774,87.422,183.19,148.41
14150.0,28.774,89.422,185.19,146.41
14160.0,32.774,90.422,182.19,143.41
14169.0,35.774,92.422,179.19,141.41
14179.0,36.774,93.422,176.19,138.41
14189.0,38.774,93.422,173.19,136.41
14199.0,39.774,95.422,170.19,136.41
14209.0,40.774,95.422,169.19,137.41
14219.0,43.774,97.422,171.19,137.41
14229.0,44.774,98.422,169.19,137.41
14239.0,44.774,98.422,169.19,136.41
14248.0,42.774,99.422,169.19,136.41
14258.0,42.774,99.422,173.19,137.41
14268.0,47.774,100.42,173.19,137.41
14278.0,47.774,100.42,168.19,133.41
14288.0,46.774,101.42,168.19,133.41
14298.0,46.774,101.42,163.19,130.41
14308.0,44.774,100.42,163.19,130.41
14318.0,44.774,100.42,152.19,126.41
14328.0,41.774,99.422,152.19,126.41
14337.0,41.774,99.422,144.19,122.41
14347.0,42.774,98.422,144.19,122.41
14357.0,42.774,98.422,137.19,119.41
14367.0,38.774,98.422,137.19,119.41
14377.0,38.774,98.422,130.19,115.41
14387.0,39.774,98.422,130.19,115.41
14397.0,36.774,98.422,122.19,111.41
14407.0,33.774,99.422,122.19,111.41
14417.0,29.774,99.422,113.19,106.41
14426.0,32.774,100.42,113.19,106.41
14436.0,31.774,99.422,100.19,101.41
14446.0,30.774,101.42,100.19,101.41
14456.0,31.774,102.42,97.186,99.414
14466.0,35.774,105.42,92.186,97.414
14476.0,39.774,108.42,89.186,94.414
14486.0,36.774,108.42,85.186,93.414
14496.0,38.774,109.42,83.186,92.414
14506.0,46.774,109.42,86.186,94.414
14515.0,68.774,114.42,98.186,97.414
14525.0,95.774,121.42,111.19,102.41
14535.0,123.77,126.42,121.19,104.41
14545.0,149.77,133.42,132.19,105.41
14555.0,175.77,141.42,132.19,102.41
14565.0,197.77,149.42,130.19,99.414
14575.0,218.77,157.42,127.19,94.414
14585.0,238.77,165.42,123.19,90.414
14594.0,248.77,168.42,119.19,89.414
14604.0,256.77,171.42,117.19,86.414
14614.0,260.77,172.42,116.19,85.414
14624.0,261.77,172.42,112.19,82.414
14634.0,263.77,171.42,108.19,80.414
14644.0,262.77,171.42,103.19,78.414
14654.0,260.77,171.42,98.186,75.414
14664.0,257.77,169.42,92.186,71.414
14674.0,252.77,168.42,85.186,69.414
14683.0,249.77,167.42,79.186,66.414
14693.0,247.77,168.42,71.186,63.414
14703.0,246.77,170.42,64.186,59.414
14713.0,244.77,167.42,56.186,56.414
14723.0,243.77,169.42,48.186,52.414
14733.0,244.77,170.42,42.186,49.414
14743.0,245.77,172.42,36.186,47.414
14753.0,244.77,173.42,31.186,44.414
14763.0,246.77,174.42,24.186,43.414
14772.0,245.77,174.42,17.186,39.414
14782.0,244.77,175.42,10.186,35.414
14792.0,241.77,174.42,3.1865,33.414
14802.0,237.77,172.42,-2.8135,30.414
14812.0,231.77,173.42,-9.8135,26.414
14822.0,227.77,171.42,-15.814,25.414
14832.0,220.77,170.42,-18.814,23.414
14842.0,215.77,169.42,-22.814,21.414
14852.0,210.77,167.42,-30.814,18.414
14861.0,201.77,165.42,-36.814,15.414
14871.0,193.77,163.42,-43.814,11.414
14881.0,185.77,160.42,-51.814,7.4144
14891.0,175.77,156.42,-58.814,4.4144
14901.0,169.77,155.42,-66.814,1.4144
14911.0,163.77,153.42,-71.814,-1.5856
14921.0,160.77,153.42,-76.814,-2.5856
14931.0,158.77,154.42,-83.814,-5.5856
14940.0,161.77,156.42,-89.814,-9.5856
14950.0,156.77,156.42,-94.814,-11.586
14960.0,147.77,152.42,-100.81,-14.586
14970.0,147.77,152.42,-104.81,-14.586
14980.0,160.77,152.42,-95.814,-11.586
14990.0,160.77,152.42,-83.814,-7.5856
15000.0,207.77,161.42,-73.814,-3.5856
15010.0,207.77,161.42,-61.814,-0.58555
15020.0,245.77,171.42,-55.814,-0.58555
15029.0,245.77,171.42,-53.814,-1.5856
15039.0,268.77,175.42,-53.814,-4.5856
15049.0,268.77,175.42,-56.814,-6.5856
15059.0,276.77,173.42,-58.814,-9.5856
15069.0,276.77,173.42,-60.814,-10.586
15079.0,277.77,167.42,-62.814,-12.586
15089.0,277.77,167.42,-66.814,-14.586
15099.0,269.77,160.42,-68.814,-15.586
15109.0,269.77,160.42,-71.814,-18.586
15118.0,268.77,155.42,-78.814,-21.586
15128.0,265.77,153.42,-83.814,-23.586
15138.0,265.77,151.42,-89.814,-25.586
15148.0,263.77,152.42,-93.814,-27.586
15158.0,264.77,152.42,-98.814,-28.586
15168.0,265.77,153.42,-103.81,-29.586
15178.0,271.77,156.42,-107.81,-30.586
15188.0,277.77,161.42,-110.81,-31.586
15198.0,284.77,166.42,-113.81,-32.586
15207.0,289.77,171.42,-114.81,-32.586
15217.0,293.77,175.42,-119.81,-32.586
15227.0,299.77,180.42,-122.81,-34.586
15237.0,296.77,180.42,-122.81,-34.586
15247.0,287.77,179.42,-128.81,-36.586
15257.0,279.77,177.42,-128.81,-36.586
15267.0,268.77,178.42,-137.81,-40.586
15277.0,257.77,176.42,-137.81,-40.586
15286.0,247.77,176.42,-150.81,-44.586
15296.0,230.77,171.42,-150.81,-44.586
15306.0,216.77,168.42,-162.81,-49.586
15316.0,203.77,166.42,-162.81,-49.586
15326.0,188.77,163.42,-169.81,-50.586
15336.0,170.77,157.42,-169.81,-50.586
15346.0,154.77,153.42,-173.81,-51.586
15356.0,134.77,148.42,-173.81,-51.586
15366.0,118.77,142.42,-177.81,-52.586
15375.0,99.774,136.42,-177.81,-52.586
15385.0,81.774,131.42,-180.81,-50.586
15395.0,66.774,125.42,-180.81,-50.586
15405.0,51.774,120.42,-180.81,-49.586
15415.0,34.774,117.42,-180.81,-49.586
15425.0,18.774,111.42,-188.81,-51.586
15435.0,3.7738,106.42,-188.81,-51.586
15445.0,-6.2262,101.42,-191.81,-51.586
15455.0,-3.2262,100.42,-189.81,-50.586
15464.0,12.774,101.42,-177.81,-45.586
15474.0,27.774,104.42,-161.81,-39.586
15484.0,35.774,104.42,-146.81,-34.586
15494.0,43.774,103.42,-133.81,-31.586
15504.0,48.774,103.42,-123.81,-28.586
15514.0,52.774,103.42,-118.81,-28.586
15524.0,56.774,104.42,-117.81,-26.586
15534.0,58.774,105.42,-112.81,-25.586
15544.0,58.774,104.42,-110.81,-26.586
15553.0,55.774,104.42,-110.81,-25.586
15563.0,52.774,102.42,-109.81,-25.586
15573.0,47.774,98.422,-111.81,-27.586
15583.0,44.774,97.422,-113.81,-27.586
15593.0,37.774,93.422,-117.81,-28.586
15603.0,26.774,90.422,-116.81,-28.586
15613.0,20.774,86.422,-114.81,-26.586
15623.0,11.774,82.422,-116.81,-26.586
15632.0,3.7738,80.422,-114.81,-25.586
15642.0,-5.2262,75.422,-112.81,-23.586
15652.0,-13.226,73.422,-113.81,-23.586
15662.0,-15.226,71.422,-111.81,-22.586
15672.0,-21.226,69.422,-111.81,-21.586
15682.0,-24.226,68.422,-112.81,-21.586
15692.0,-33.226,65.422,-113.81,-22.586
15702.0,-33.226,65.422,-113.81,-21.586
15712.0,-41.226,62.422,-114.81,-19.586
15721.0,-41.226,62.422,-115.81,-19.586
15731.0,-57.226,56.422,-114.81,-19.586
15741.0,-57.226,56.422,-113.81,-19.586
15751.0,-69.226,50.422,-114.81,-19.586
15761.0,-69.226,50.422,-115.81,-19.586
15771.0,-80.226,47.422,-114.81,-17.586
15781.0,-80.226,47.422,-114.81,-17.586
15791.0,-93.226,41.422,-115.81,-17.586
15801.0,-93.226,41.422,-116.81,-17.586
15810.0,-108.23,35.422,-115.81,-15.586
15820.0,-108.23,35.422,-115.81,-15.586
15830.0,-116.23,33.422,-115.81,-15.586
15840.0,-124.23,31.422,-113.81,-14.586
15850.0,-131.23,28.422,-112.81,-11.586
15860.0,-137.23,25.422,-109.81,-11.586
15870.0,-144.23,23.422,-108.81,-9.5856
15880.0,-147.23,22.422,-105.81,-9.5856
15890.0,-155.23,20.422,-106.81,-8.5856
15899.0,-164.23,19.422,-106.81,-7.5856
15909.0,-171.23,16.422,-105.81,-6.5856
15919.0,-179.23,11.422,-104.81,-5.5856
15929.0,-175.23,11.422,-93.814,0.41445
15939.0,-157.23,14.422,-81.814,4.4144
15949.0,-138.23,18.422,-69.814,7.4144
15959.0,-121.23,22.422,-59.814,11.414
15969.0,-100.23,29.422,-52.814,14.414
15978.0,-83.226,35.422,-45.814,15.414
15988.0,-69.226,40.422,-41.814,17.414
15998.0,-61.226,42.422,-37.814,16.414
16008.0,-58.226,41.422,-31.814,20.414
16018.0,-58.226,41.422,-26.814,20.414
16028.0,-63.226,37.422,-24.814,21.414
16038.0,-66.226,36.422,-21.814,21.414
16048.0,-65.226,34.422,-22.814,21.414
16058.0,-67.226,32.422,-20.814,21.414
16067.0,-71.226,29.422,-21.814,22.414
16077.0,-77.226,26.422,-19.814,23.414
16087.0,-81.226,24.422,-19.814,22.414
16097.0,-86.226,22.422,-19.814,23.414
16107.0,-90.226,21.422,-20.814,24.414
16117.0,-89.226,21.422,-19.814,25.414
16127.0,-90.226,20.422,-14.814,26.414
16137.0,-87.226,21.422,-12.814,27.414
16147.0,-87.226,21.422,-11.814,27.414
16156.0,-89.226,19.422,-10.814,29.414
16166.0,-91.226,18.422,-10.814,29.414
16176.0,-93.226,17.422,-10.814,30.414
16186.0,-99.226,14.422,-11.814,29.414
16196.0,-103.23,11.422,-10.814,30.414
16206.0,-109.23,9.4219,-10.814,30.414
16216.0,-114.23,7.4219,-11.814,29.414
16226.0,-117.23,5.4219,-11.814,29.414
16236.0,-123.23,3.4219,-12.814,28.414
16245.0,-131.23,0.4219,-12.814,28.414
16255.0,-139.23,-1.5781,-11.814,29.414
16265.0,-144.23,-3.5781,-11.814,29.414
16275.0,-153.23,-6.5781,-13.814,31.414
16285.0,-160.23,-9.5781,-13.814,31.414
16295.0,-170.23,-11.578,-7.8135,34.414
16305.0,-178.23,-15.578,-7.8135,34.414
16315.0,-187.23,-16.578,-4.8135,36.414
16324.0,-196.23,-18.578,-4.8135,36.414
16334.0,-206.23,-21.578,2.1865,40.414
16344.0,-213.23,-22.578,2.1865,40.414
16354.0,-225.23,-23.578,2.1865,41.414
16364.0,-236.23,-27.578,2.1865,41.414
16374.0,-252.23,-31.578,-0.81354,41.414
16384.0,-251.23,-32.578,-0.81354,41.414
16394.0,-242.23,-32.578,3.1865,43.414
16404.0,-223.23,-28.578,3.1865,43.414
16413.0,-223.23,-28.578,5.1865,44.414
16423.0,-177.23,-17.578,7.1865,45.414
16433.0,-177.23,-17.578,10.186,46.414
16443.0,-142.23,-5.5781,8.1865,46.414
16453.0,-142.23,-5.5781,8.1865,46.414
16463.0,-130.23,-3.5781,8.1865,47.414
16473.0,-130.23,-3.5781,9.1865,46.414
16483.0,-140.23,-7.5781,10.186,47.414
16493.0,-140.23,-7.5781,9.1865,46.414
16502.0,-150.23,-11.578,9.1865,46.414
16512.0,-150.23,-11.578,8.1865,48.414
16522.0,-158.23,-13.578,9.1865,48.414
16532.0,-158.23,-13.578,12.186,50.414
16542.0,-170.23,-15.578,13.186,51.414
16552.0,-170.23,-15.578,14.186,52.414
16562.0,-177.23,-18.578,16.186,53.414
16572.0,-183.23,-20.578,18.186,55.414
16582.0,-189.23,-23.578,22.186,56.414
16591.0,-195.23,-24.578,23.186,58.414
16601.0,-202.23,-27.578,23.186,59.414
16611.0,-207.23,-29.578,24.186,60.414
16621.0,-212.23,-30.578,24.186,60.414
16631.0,-217.23,-34.578,22.186,60.414
16641.0,-223.23,-35.578,21.186,59.414
16651.0,-230.23,-39.578,17.186,58.414
16661.0,-236.23,-41.578,14.186,58.414
16670.0,-240.23,-43.578,13.186,58.414
16680.0,-249.23,-47.578,12.186,57.414
16690.0,-255.23,-49.578,12.186,58.414
16700.0,-263.23,-52.578,12.186,59.414
16710.0,-270.23,-54.578,12.186,59.414
16720.0,-277.23,-58.578,14.186,61.414
16730.0,-285.23,-61.578,14.186,62.414
16740.0,-295.23,-66.578,14.186,63.414
16750.0,-303.23,-68.578,16.186,64.414
16759.0,-312.23,-72.578,17.186,64.414
16769.0,-321.23,-77.578,17.186,65.414
16779.0,-330.23,-80.578,15.186,66.414
16789.0,-338.23,-83.578,14.186,64.414
16799.0,-346.23,-86.578,12.186,65.414
16809.0,-350.23,-88.578,10.186,64.414
16819.0,-353.23,-88.578,4.1865,63.414
16829.0,-363.23,-93.578,3.1865,61.414
16839.0,-371.23,-97.578,5.1865,63.414
16848.0,-362.23,-97.578,6.1865,64.414
16858.0,-343.23,-93.578,6.1865,65.414
16868.0,-315.23,-86.578,7.1865,65.414
16878.0,-286.23,-79.578,8.1865,67.414
16888.0,-255.23,-71.578,7.1865,66.414
16898.0,-222.23,-61.578,6.1865,65.414
16908.0,-194.23,-52.578,5.1865,66.414
16918.0,-174.23,-46.578,5.1865,65.414
16928.0,-160.23,-43.578,4.1865,65.414
16937.0,-149.23,-40.578,5.1865,66.414
16947.0,-139.23,-37.578,7.1865,67.414
16957.0,-131.23,-35.578,11.186,69.414
16967.0,-126.23,-32.578,13.186,71.414
16977.0,-116.23,-30.578,18.186,74.414
16987.0,-106.23,-27.578,19.186,76.414
16997.0,-99.226,-23.578,21.186,77.414
17007.0,-92.226,-21.578,20.186,77.414
17016.0,-85.226,-16.578,20.186,77.414
17026.0,-78.226,-12.578,19.186,78.414
17036.0,-69.226,-8.5781,19.186,76.414
17046.0,-61.226,-3.5781,17.186,76.414
17056.0,-54.226,-0.5781,14.186,75.414
17066.0,-47.226,4.4219,13.186,76.414
17076.0,-43.226,5.4219,15.186,76.414
17086.0,-40.226,7.4219,13.186,76.414
17096.0,-36.226,9.4219,12.186,76.414
17105.0,-35.226,9.4219,12.186,77.414
17115.0,-37.226,9.4219,13.186,77.414
17125.0,-36.226,9.4219,13.186,78.414
17135.0,-36.226,10.422,15.186,78.414
17145.0,-36.226,10.422,15.186,80.414
17155.0,-44.226,7.4219,15.186,79.414
17165.0,-44.226,7.4219,15.186,80.414
17175.0,-51.226,3.4219,15.186,80.414
17185.0,-51.226,3.4219,15.186,81.414
17194.0,-64.226,-1.5781,16.186,80.414
17204.0,-64.226,-1.5781,17.186,82.414
17214.0,-73.226,-5.5781,17.186,82.414
17224.0,-73.226,-5.5781,20.186,83.414
17234.0,-80.226,-8.5781,20.186,83.414
17244.0,-80.226,-8.5781,19.186,83.414
17254.0,-81.226,-7.5781,19.186,83.414
17264.0,-81.226,-7.5781,21.186,85.414
17274.0,-80.226,-7.5781,21.186,85.414
17283.0,-73.226,-1.5781,19.186,83.414
17293.0,-79.226,-4.5781,19.186,83.414
17303.0,-86.226,-8.5781,25.186,87.414
17313.0,-77.226,-7.5781,25.186,87.414
17323.0,-51.226,-0.5781,44.186,95.414
17333.0,-15.226,10.422,44.186,95.414
17343.0,14.774,18.422,63.186,101.41
17353.0,40.774,27.422,63.186,101.41
17362.0,60.774,31.422,71.186,103.41
17372.0,78.774,35.422,71.186,103.41
17382.0,95.774,40.422,77.186,102.41
17392.0,113.77,45.422,77.186,102.41
17402.0,124.77,49.422,86.186,103.41
17412.0,131.77,50.422,86.186,103.41
17422.0,134.77,51.422,92.186,103.41
17432.0,140.77,51.422,92.186,103.41
17442.0,143.77,52.422,94.186,103.41
17451.0,147.77,52.422,98.186,104.41
17461.0,149.77,53.422,101.19,103.41
17471.0,151.77,53.422,102.19,103.41
17481.0,152.77,54.422,103.19,103.41
17491.0,154.77,55.422,105.19,104.41
17501.0,154.77,57.422,107.19,103.41
17511.0,161.77,59.422,110.19,104.41
17521.0,163.77,61.422,109.19,104.41
17531.0,167.77,61.422,111.19,104.41
17540.0,170.77,61.422,113.19,105.41
17550.0,170.77,60.422,112.19,104.41
17560.0,166.77,56.422,114.19,104.41
17570.0,161.77,49.422,115.19,105.41
17580.0,154.77,46.422,113.19,104.41
17590.0,150.77,42.422,114.19,104.41
17600.0,143.77,38.422,113.19,104.41
17610.0,143.77,38.422,114.19,103.41
17620.0,141.77,38.422,111.19,103.41
17629.0,144.77,39.422,112.19,102.41
17639.0,145.77,40.422,112.19,102.41
17649.0,141.77,38.422,109.19,102.41
17659.0,139.77,37.422,110.19,101.41
17669.0,138.77,37.422,110.19,102.41
17679.0,139.77,37.422,109.19,104.41
17689.0,138.77,38.422,111.19,104.41
17699.0,137.77,37.422,116.19,106.41
17708.0,138.77,38.422,117.19,108.41
17718.0,140.77,40.422,120.19,110.41
17728.0,145.77,45.422,122.19,111.41
17738.0,145.77,47.422,123.19,112.41
17748.0,147.77,49.422,124.19,113.41
17758.0,143.77,49.422,125.19,113.41
17768.0,131.77,40.422,130.19,115.41
17778.0,133.77,38.422,138.19,119.41
17788.0,159.77,46.422,150.19,125.41
17797.0,184.77,52.422,164.19,129.41
17807.0,206.77,57.422,175.19,132.41
17817.0,233.77,66.422,183.19,132.41
17827.0,263.77,76.422,186.19,131.41
17837.0,291.77,87.422,184.19,128.41
17847.0,309.77,93.422,185.19,128.41
17857.0,309.77,93.422,187.19,126.41
17867.0,318.77,94.422,190.19,128.41
17877.0,318.77,94.422,190.19,128.41
17886.0,328.77,97.422,190.19,127.41
17896.0,328.77,97.422,187.19,124.41
17906.0,343.77,103.42,186.19,123.41
17916.0,343.77,103.42,180.19,120.41
17926.0,331.77,98.422,175.19,117.41
17936.0,331.77,98.422,168.19,114.41
17946.0,332.77,97.422,163.19,112.41
17956.0,332.77,97.422,158.19,109.41
17966.0,334.77,94.422,151.19,107.41
17975.0,334.77,94.422,147.19,103.41
17985.0,339.77,96.422,141.19,100.41
17995.0,339.77,96.422,136.19,97.414
18005.0,349.77,99.422,132.19,95.414
18015.0,361.77,105.42,127.19,93.414
18025.0,372.77,110.42,122.19,92.414
18035.0,384.77,115.42,117.19,91.414
18045.0,396.77,121.42,111.19,86.414
18054.0,407.77,126.42,105.19,83.414
18064.0,419.77,132.42,100.19,81.414
18074.0,427.77,136.42,94.186,78.414
18084.0,439.77,142.42,88.186,75.414
18094.0,448.77,146.42,84.186,73.414
18104.0,466.77,155.42,76.186,69.414
18114.0,484.77,164.42,71.186,66.414
18124.0,502.77,174.42,63.186,63.414
18134.0,504.77,175.42,56.186,60.414
18143.0,504.77,175.42,49.186,57.414
18153.0,503.77,175.42,42.186,53.414
18163.0,501.77,173.42,35.186,50.414
18173.0,498.77,172.42,25.186,46.414
18183.0,501.77,172.42,18.186,42.414
18193.0,505.77,176.42,12.186,37.414
18203.0,516.77,182.42,5.1865,35.414
18213.0,518.77,183.42,-0.81354,31.414
18223.0,520.77,184.42,-0.81354,31.414
18232.0,508.77,175.42,-6.8135,28.414
18242.0,485.77,159.42,-6.8135,28.414
18252.0,488.77,153.42,10.186,35.414
18262.0,516.77,158.42,10.186,35.414
18272.0,534.77,160.42,30.186,37.414
18282.0,550.77,162.42,30.186,37.414
18292.0,579.77,170.42,37.186,34.414
18302.0,610.77,183.42,37.186,34.414
18311.0,636.77,190.42,29.186,26.414
18321.0,646.77,195.42,29.186,26.414
18331.0,648.77,194.42,20.186,18.414
18341.0,643.77,191.42,20.186,18.414
18351.0,639.77,186.42,10.186,12.414
18361.0,636.77,184.42,10.186,12.414
18371.0,634.77,182.42,4.1865,8.4144
18381.0,642.77,184.42,4.1865,8.4144
18391.0,643.77,184.42,-7.8135,2.4144
18400.0,643.77,183.42,-7.8135,2.4144
18410.0,640.77,181.42,-22.814,-4.5856
18420.0,641.77,181.42,-22.814,-4.5856
18430.0,635.77,176.42,-29.814,-7.5856
18440.0,630.77,173.42,-35.814,-9.5856
18450.0,626.77,171.42,-42.814,-11.586
18460.0,625.77,169.42,-45.814,-14.586
18470.0,625.77,170.42,-51.814,-18.586
18480.0,630.77,172.42,-58.814,-21.586
18489.0,636.77,175.42,-68.814,-24.586
18499.0,639.77,176.42,-73.814,-27.586
18509.0,643.77,178.42,-78.814,-30.586
18519.0,642.77,178.42,-87.814,-33.586
18529.0,640.77,177.42,-91.814,-36.586
18539.0,632.77,173.42,-97.814,-39.586
18549.0,633.77,175.42,-103.81,-42.586
18559.0,633.77,175.42,-107.81,-44.586
18569.0,633.77,175.42,-112.81,-47.586
18578.0,619.77,168.42,-115.81,-48.586
18588.0,619.77,168.42,-121.81,-52.586
18598.0,599.77,158.42,-126.81,-53.586
18608.0,599.77,158.42,-131.81,-56.586
18618.0,591.77,155.42,-135.81,-57.586
18628.0,591.77,155.42,-138.81,-58.586
18638.0,593.77,158.42,-143.81,-61.586
18648.0,593.77,158.42,-148.81,-63.586
18657.0,591.77,159.42,-151.81,-64.586
18667.0,591.77,159.42,-153.81,-65.586
18677.0,592.77,164.42,-157.81,-68.586
18687.0,592.77,164.42,-161.81,-68.586
18697.0,587.77,159.42,-163.81,-68.586
18707.0,587.77,159.42,-164.81,-69.586
18717.0,566.77,146.42,-154.81,-64.586
18727.0,571.77,142.42,-140.81,-60.586
18737.0,596.77,146.42,-126.81,-55.586
18746.0,620.77,150.42,-115.81,-53.586
18756.0,641.77,156.42,-107.81,-53.586
18766.0,663.77,165.42,-101.81,-52.586
18776.0,687.77,173.42,-104.81,-55.586
18786.0,705.77,181.42,-102.81,-56.586
18796.0,692.77,182.42,-101.81,-57.586
18806.0,680.77,175.42,-105.81,-59.586
18816.0,672.77,167.42,-106.81,-59.586
18826.0,664.77,165.42,-106.81,-62.586
18835.0,665.77,164.42,-108.81,-63.586
18845.0,663.77,163.42,-115.81,-64.586
18855.0,666.77,164.42,-115.81,-64.586
18865.0,671.77,167.42,-119.81,-66.586
18875.0,670.77,168.42,-123.81,-68.586
18885.0,670.77,166.42,-127.81,-68.586
18895.0,660.77,162.42,-129.81,-68.586
18905.0,652.77,160.42,-134.81,-70.586
18915.0,645.77,159.42,-137.81,-72.586
18924.0,646.77,160.42,-141.81,-73.586
18934.0,648.77,164.42,-146.81,-74.586
18944.0,659.77,171.42,-152.81,-74.586
18954.0,673.77,180.42,-154.81,-75.586
18964.0,687.77,187.42,-157.81,-77.586
18974.0,700.77,195.42,-163.81,-78.586
18984.0,716.77,204.42,-167.81,-79.586
18994.0,722.77,207.42,-169.81,-80.586
19003.0,723.77,209.42,-175.81,-81.586
19013.0,720.77,209.42,-179.81,-82.586
19023.0,722.77,210.42,-179.81,-83.586
19033.0,724.77,211.42,-183.81,-83.586
19043.0,725.77,212.42,-187.81,-84.586
19053.0,727.77,214.42,-189.81,-83.586
19063.0,725.77,215.42,-190.81,-84.586
19073.0,723.77,216.42,-193.81,-83.586
19083.0,722.77,216.42,-192.81,-83.586
19092.0,725.77,218.42,-194.81,-83.586
19102.0,728.77,224.42,-196.81,-83.586
19112.0,732.77,227.42,-198.81,-83.586
19122.0,730.77,226.42,-199.81,-83.586
19132.0,728.77,228.42,-202.81,-85.586
19142.0,732.77,232.42,-203.81,-84.586
19152.0,727.77,232.42,-207.81,-85.586
19162.0,730.77,229.42,-212.81,-85.586
19172.0,703.77,214.42,-210.81,-84.586
19181.0,687.77,207.42,-201.81,-80.586
19191.0,688.77,203.42,-201.81,-80.586
19201.0,689.77,198.42,-169.81,-68.586
19211.0,689.77,193.42,-169.81,-68.586
19221.0,705.77,197.42,-142.81,-61.586
19231.0,719.77,200.42,-142.81,-61.586
19241.0,733.77,205.42,-135.81,-61.586
19251.0,736.77,206.42,-135.81,-61.586
19261.0,727.77,200.42,-129.81,-60.586
19270.0,716.77,193.42,-129.81,-60.586
19280.0,715.77,192.42,-127.81,-59.586
19290.0,718.77,192.42,-127.81,-59.586
19300.0,718.77,192.42,-127.81,-59.586
19310.0,729.77,198.42,-127.81,-59.586
19320.0,729.77,198.42,-131.81,-59.586
19330.0,720.77,194.42,-131.81,-59.586
19340.0,720.77,194.42,-135.81,-59.586
19349.0,709.77,192.42,-135.81,-59.586
19359.0,709.77,192.42,-135.81,-57.586
19369.0,688.77,183.42,-135.81,-57.586
19379.0,688.77,183.42,-139.81,-56.586
19389.0,668.77,175.42,-139.81,-56.586
19399.0,668.77,175.42,-138.81,-57.586
19409.0,666.77,177.42,-140.81,-57.586
19419.0,666.77,177.42,-140.81,-57.586
19429.0,667.77,178.42,-140.81,-56.586
19438.0,662.77,175.42,-140.81,-56.586
19448.0,649.77,170.42,-140.81,-55.586
19458.0,639.77,164.42,-142.81,-56.586
19468.0,628.77,158.42,-142.81,-55.586
19478.0,617.77,153.42,-142.81,-55.586
19488.0,608.77,150.42,-141.81,-53.586
19498.0,599.77,147.42,-139.81,-54.586
19508.0,592.77,143.42,-141.81,-53.586
19518.0,588.77,141.42,-141.81,-52.586
19527.0,581.77,139.42,-139.81,-51.586
19537.0,569.77,134.42,-137.81,-51.586
19547.0,553.77,127.42,-138.81,-50.586
19557.0,536.77,119.42,-137.81,-49.586
19567.0,521.77,112.42,-135.81,-47.586
19577.0,503.77,101.42,-136.81,-46.586
19587.0,480.77,87.422,-133.81,-46.586
19597.0,458.77,74.422,-132.81,-43.586
19607.0,445.77,58.422,-129.81,-43.586
19616.0,427.77,41.422,-128.81,-42.586
19626.0,417.77,29.422,-128.81,-41.586
19636.0,367.77,13.422,-129.81,-40.586
19646.0,309.77,-29.578,-125.81,-39.586
19656.0,289.77,-30.578,-112.81,-31.586
19666.0,311.77,-9.5781,-97.814,-27.586
19676.0,343.77,2.4219,-82.814,-20.586
19686.0,383.77,14.422,-68.814,-17.586
19695.0,422.77,19.422,-60.814,-14.586
19705.0,441.77,21.422,-53.814,-13.586
19715.0,451.77,22.422,-49.814,-13.586
19725.0,446.77,19.422,-46.814,-12.586
19735.0,430.77,10.422,-43.814,-12.586
19745.0,410.77,1.4219,-42.814,-10.586
19755.0,404.77,-1.5781,-40.814,-9.5856
19765.0,407.77,-2.5781,-36.814,-8.5856
19775.0,419.77,3.4219,-36.814,-10.586
19784.0,431.77,8.4219,-34.814,-10.586
19794.0,432.77,9.4219,-34.814,-9.5856
19804.0,419.77,2.4219,-33.814,-9.5856
19814.0,403.77,-7.5781,-33.814,-9.5856
19824.0,385.77,-15.578,-33.814,-9.5856
19834.0,373.77,-21.578,-34.814,-8.5856
19844.0,361.77,-26.578,-34.814,-8.5856
19854.0,357.77,-31.578,-33.814,-7.5856
19864.0,351.77,-34.578,-34.814,-7.5856
19873.0,342.77,-40.578,-34.814,-8.5856
19883.0,334.77,-45.578,-34.814,-7.5856
19893.0,327.77,-48.578,-34.814,-6.5856
19903.0,324.77,-50.578,-34.814,-5.5856
19913.0,325.77,-48.578,-28.814,-3.5856
19923.0,331.77,-45.578,-27.814,-1.5856
19933.0,335.77,-43.578,-25.814,-1.5856
19943.0,337.77,-43.578,-24.814,-0.58555
19953.0,332.77,-46.578,-23.814,0.41445
19962.0,323.77,-49.578,-22.814,0.41445
19972.0,311.77,-55.578,-23.814,0.41445
19982.0,293.77,-66.578,-24.814,0.41445
19992.0,270.77,-77.578,-25.814,1.4144
20002.0,248.77,-87.578,-25.814,1.4144
20012.0,248.77,-87.578,-25.814,1.4144
20022.0,206.77,-106.58,-26.814,2.4144
20032.0,206.77,-106.58,-25.814,3.4144
20041.0,168.77,-115.58,-25.814,4.4144
20051.0,168.77,-115.58,-21.814,6.4144
20061.0,159.77,-100.58,-19.814,7.4144
20071.0,159.77,-100.58,-17.814,8.4144
20081.0,191.77,-59.578,-17.814,9.4144
20091.0,191.77,-59.578,-18.814,9.4144
20101.0,194.77,-50.578,-18.814,9.4144
20111.0,194.77,-50.578,-16.814,11.414
20121.0,95.774,-117.58,-12.814,14.414
20130.0,95.774,-117.58,-8.8135,16.414
20140.0,224.77,-56.578,-7.8135,16.414
20150.0,224.77,-56.578,-3.8135,18.414
20160.0,283.77,-31.578,-3.8135,18.414
20170.0,317.77,-17.578,0.18646,18.414
20180.0,333.77,-11.578,0.18646,18.414
20190.0,337.77,-13.578,2.1865,20.414
20200.0,333.77,-16.578,2.1865,20.414
20210.0,306.77,-31.578,6.1865,20.414
20219.0,284.77,-39.578,6.1865,20.414
20229.0,274.77,-42.578,8.1865,23.414
20239.0,276.77,-39.578,8.1865,23.414
20249.0,282.77,-35.578,15.186,26.414
20259.0,289.77,-29.578,15.186,26.414
20269.0,290.77,-25.578,18.186,28.414
20279.0,291.77,-22.578,18.186,28.414
20289.0,294.77,-18.578,21.186,29.414
20299.0,297.77,-14.578,21.186,29.414
20308.0,302.77,-7.5781,22.186,29.414
20318.0,310.77,-2.5781,22.186,29.414
20328.0,315.77,0.4219,20.186,29.414
20338.0,316.77,2.4219,20.186,29.414
20348.0,318.77,6.4219,21.186,29.414
20358.0,319.77,9.4219,21.186,29.414
20368.0,327.77,14.422,15.186,27.414
20378.0,328.77,15.422,15.186,27.414
20387.0,327.77,16.422,12.186,27.414
20397.0,328.77,17.422,10.186,25.414
20407.0,323.77,15.422,8.1865,25.414
20417.0,319.77,13.422,8.1865,25.414
20427.0,309.77,8.4219,7.1865,24.414
20437.0,300.77,4.4219,6.1865,24.414
20447.0,291.77,0.4219,5.1865,24.414
20457.0,282.77,-2.5781,2.1865,25.414
20467.0,277.77,-4.5781,3.1865,25.414
20476.0,274.77,-7.5781,3.1865,25.414
20486.0,272.77,-7.5781,5.1865,26.414
20496.0,266.77,-9.5781,6.1865,27.414
20506.0,264.77,-9.5781,4.1865,27.414
20516.0,260.77,-10.578,3.1865,27.414
20526.0,259.77,-9.5781,3.1865,26.414
20536.0,258.77,-7.5781,5.1865,27.414
20546.0,260.77,-3.5781,4.1865,26.414
20556.0,251.77,-7.5781,2.1865,27.414
20565.0,242.77,-9.5781,4.1865,29.414
20575.0,258.77,-2.5781,11.186,32.414
20585.0,290.77,9.4219,19.186,36.414
20595.0,326.77,19.422,26.186,40.414
20605.0,357.77,28.422,33.186,42.414
20615.0,385.77,36.422,41.186,44.414
20625.0,410.77,44.422,48.186,47.414
20635.0,428.77,49.422,53.186,48.414
20645.0,439.77,54.422,56.186,48.414
20654.0,451.77,59.422,58.186,50.414
20664.0,459.77,62.422,62.186,49.414
20674.0,462.77,65.422,66.186,50.414
20684.0,460.77,65.422,68.186,51.414
20694.0,460.77,65.422,72.186,52.414
20704.0,459.77,66.422,75.186,52.414
20714.0,455.77,64.422,78.186,51.414
20724.0,452.77,64.422,80.186,53.414
20733.0,449.77,64.422,84.186,53.414
20743.0,449.77,64.422,86.186,54.414
20753.0,443.77,64.422,86.186,55.414
20763.0,443.77,64.422,90.186,54.414
20773.0,434.77,63.422,91.186,56.414
20783.0,434.77,63.422,94.186,55.414
20793.0,422.77,58.422,96.186,56.414
20803.0,422.77,58.422,97.186,57.414
20813.0,418.77,55.422,99.186,56.414
20822.0,418.77,55.422,98.186,56.414
20832.0,410.77,51.422,100.19,58.414
20842.0,410.77,51.422,99.186,56.414
20852.0,401.77,49.422,101.19,57.414
20862.0,401.77,49.422,100.19,56.414
20872.0,391.77,42.422,97.186,56.414
20882.0,391.77,42.422,97.186,55.414
20892.0,384.77,38.422,97.186,55.414
20902.0,377.77,35.422,97.186,56.414
20911.0,373.77,34.422,98.186,56.414
20921.0,368.77,31.422,101.19,58.414
20931.0,367.77,31.422,102.19,58.414
20941.0,366.77,31.422,105.19,61.414
20951.0,363.77,31.422,108.19,61.414
20961.0,359.77,30.422,109.19,62.414
20971.0,358.77,29.422,108.19,63.414
20981.0,359.77,30.422,108.19,62.414
20991.0,358.77,31.422,109.19,63.414
21000.0,360.77,33.422,107.19,62.414
21010.0,362.77,37.422,102.19,61.414
21020.0,352.77,31.422,104.19,62.414
21030.0,341.77,26.422,108.19,63.414
21040.0,340.77,22.422,123.19,72.414
21050.0,365.77,31.422,140.19,78.414
21060.0,402.77,43.422,159.19,87.414
21070.0,433.77,54.422,174.19,90.414
21079.0,456.77,61.422,183.19,93.414
21089.0,466.77,62.422,190.19,93.414
21099.0,478.77,65.422,189.19,91.414
21109.0,489.77,66.422,188.19,89.414
21119.0,496.77,67.422,187.19,90.414
21129.0,501.77,68.422,188.19,88.414
21139.0,505.77,69.422,187.19,88.414
21149.0,507.77,69.422,188.19,87.414
21159.0,506.77,69.422,187.19,86.414
21168.0,508.77,68.422,186.19,86.414
21178.0,510.77,68.422,183.19,84.414
21188.0,511.77,69.422,180.19,84.414
21198.0,512.77,68.422,179.19,82.414
21208.0,516.77,71.422,179.19,82.414
21218.0,519.77,71.422,173.19,81.414
21228.0,517.77,70.422,173.19,81.414
21238.0,515.77,70.422,171.19,79.414
21248.0,514.77,70.422,171.19,79.414
21257.0,514.77,70.422,171.19,79.414
21267.0,512.77,67.422,171.19,79.414
21277.0,508.77,64.422,168.19,78.414
21287.0,504.77,62.422,168.19,78.414
21297.0,500.77,59.422,164.19,77.414
21307.0,499.77,57.422,164.19,77.414
21317.0,496.77,55.422,154.19,73.414
21327.0,492.77,54.422,154.19,73.414
21337.0,489.77,51.422,140.19,66.414
21346.0,484.77,50.422,140.19,66.414
21356.0,478.77,45.422,126.19,59.414
21366.0,470.77,40.422,126.19,59.414
21376.0,463.77,35.422,120.19,57.414
21386.0,454.77,29.422,115.19,55.414
21396.0,445.77,24.422,113.19,52.414
21406.0,440.77,20.422,108.19,52.414
21416.0,433.77,15.422,104.19,48.414
21425.0,427.77,13.422,99.186,47.414
21435.0,426.77,12.422,96.186,44.414
21445.0,425.77,10.422,91.186,41.414
21455.0,425.77,10.422,84.186,39.414
21465.0,433.77,16.422,79.186,37.414
21475.0,433.77,16.422,73.186,33.414
21485.0,420.77,9.4219,68.186,30.414
21495.0,420.77,9.4219,63.186,27.414
21505.0,414.77,-0.5781,63.186,29.414
21514.0,414.77,-0.5781,74.186,33.414
21524.0,473.77,14.422,84.186,36.414
21534.0,473.77,14.422,95.186,38.414
21544.0,531.77,31.422,105.19,37.414
21554.0,531.77,31.422,108.19,36.414
21564.0,574.77,45.422,105.19,33.414
21574.0,574.77,45.422,102.19,29.414
21584.0,580.77,44.422,94.186,24.414
21594.0,580.77,44.422,92.186,22.414
21603.0,581.77,43.422,87.186,18.414
21613.0,583.77,43.422,85.186,17.414
21623.0,582.77,43.422,81.186,13.414
21633.0,585.77,44.422,78.186,11.414
21643.0,584.77,44.422,73.186,7.4144
21653.0,582.77,41.422,65.186,4.4144
21663.0,574.77,37.422,58.186,0.41445
21673.0,562.77,31.422,49.186,-2.5856
21683.0,554.77,26.422,43.186,-6.5856
21692.0,541.77,22.422,36.186,-8.5856
21702.0,531.77,17.422,32.186,-13.586
21712.0,528.77,15.422,25.186,-13.586
21722.0,524.77,15.422,20.186,-15.586
21732.0,523.77,13.422,15.186,-18.586
21742.0,522.77,13.422,8.1865,-20.586
21752.0,521.77,12.422,5.1865,-23.586
21762.0,515.77,10.422,0.18646,-24.586
21771.0,511.77,9.4219,-2.8135,-26.586
21781.0,511.77,10.422,-7.8135,-29.586
21791.0,513.77,12.422,-11.814,-31.586
21801.0,511.77,12.422,-16.814,-33.586
21811.0,506.77,9.4219,-22.814,-36.586
21821.0,498.77,5.4219,-26.814,-39.586
21831.0,491.77,1.4219,-31.814,-41.586
21841.0,481.77,-1.5781,-34.814,-42.586
21851.0,476.77,-3.5781,-37.814,-45.586
21860.0,469.77,-7.5781,-40.814,-45.586
21870.0,460.77,-10.578,-45.814,-48.586
21880.0,453.77,-12.578,-49.814,-50.586
21890.0,454.77,-12.578,-55.814,-53.586
21900.0,456.77,-8.5781,-59.814,-54.586
21910.0,460.77,-4.5781,-64.814,-58.586
21920.0,465.77,-0.5781,-68.814,-60.586
21930.0,477.77,7.4219,-73.814,-60.586
21940.0,482.77,11.422,-77.814,-63.586
21949.0,481.77,11.422,-83.814,-65.586
21959.0,490.77,14.422,-86.814,-66.586
21969.0,481.77,4.4219,-79.814,-64.586
21979.0,466.77,-10.578,-68.814,-59.586
21989.0,473.77,-16.578,-53.814,-54.586
21999.0,487.77,-13.578,-38.814,-51.586
22009.0,500.77,-12.578,-28.814,-48.586
22019.0,517.77,-5.5781,-25.814,-49.586
22029.0,539.77,3.4219,-25.814,-50.586
22038.0,558.77,9.4219,-27.814,-54.586
22048.0,564.77,11.422,-28.814,-55.586
22058.0,557.77,7.4219,-31.814,-58.586
22068.0,545.77,-0.5781,-33.814,-59.586
22078.0,542.77,-1.5781,-35.814,-60.586
22088.0,543.77,-1.5781,-36.814,-62.586
22098.0,547.77,2.4219,-38.814,-63.586
22108.0,549.77,3.4219,-43.814,-65.586
22117.0,554.77,5.4219,-45.814,-65.586
22127.0,554.77,7.4219,-50.814,-67.586
22137.0,550.77,4.4219,-54.814,-69.586
22147.0,541.77,1.4219,-57.814,-69.586
22157.0,535.77,-3.5781,-61.814,-70.586
22167.0,523.77,-7.5781,-63.814,-72.586
22177.0,519.77,-12.578,-63.814,-72.586
22187.0,519.77,-12.578,-70.814,-74.586
22197.0,517.77,-12.578,-70.814,-74.586
22206.0,517.77,-12.578,-79.814,-77.586
22216.0,523.77,-8.5781,-79.814,-77.586
22226.0,523.77,-8.5781,-87.814,-76.586
22236.0,525.77,-5.5781,-87.814,-76.586
22246.0,525.77,-5.5781,-92.814,-78.586
22256.0,528.77,-3.5781,-92.814,-78.586
22266.0,528.77,-3.5781,-97.814,-79.586
22276.0,527.77,-3.5781,-97.814,-79.586
22286.0,527.77,-3.5781,-104.81,-82.586
22295.0,527.77,-1.5781,-104.81,-82.586
22305.0,527.77,-1.5781,-108.81,-83.586
22315.0,520.77,-5.5781,-108.81,-83.586
22325.0,520.77,-5.5781,-115.81,-85.586
22335.0,518.77,-5.5781,-115.81,-85.586
22345.0,516.77,-5.5781,-119.81,-84.586
22355.0,512.77,-6.5781,-119.81,-84.586
22365.0,511.77,-6.5781,-123.81,-87.586
22375.0,514.77,-3.5781,-123.81,-87.586
22384.0,518.77,-0.5781,-129.81,-89.586
22394.0,521.77,4.4219,-131.81,-90.586
22404.0,527.77,8.4219,-133.81,-90.586
22414.0,525.77,9.4219,-135.81,-92.586
22424.0,520.77,8.4219,-138.81,-92.586
22434.0,528.77,11.422,-141.81,-92.586
22444.0,524.77,3.4219,-134.81,-87.586
22454.0,537.77,6.4219,-120.81,-82.586
22463.0,558.77,9.4219,-106.81,-78.586
22473.0,574.77,12.422,-92.814,-75.586
22483.0,598.77,24.422,-83.814,-71.586
22493.0,643.77,45.422,-80.814,-72.586
22503.0,685.77,66.422,-79.814,-73.586
22513.0,709.77,76.422,-81.814,-75.586
22523.0,718.77,79.422,-81.814,-75.586
22533.0,722.77,81.422,-80.814,-75.586
22543.0,725.77,82.422,-79.814,-74.586
22552.0,733.77,87.422,-79.814,-74.586
22562.0,743.77,92.422,-81.814,-74.586
22572.0,746.77,94.422,-81.814,-74.586
22582.0,750.77,96.422,-83.814,-75.586
22592.0,745.77,93.422,-85.814,-75.586
22602.0,736.77,89.422,-86.814,-75.586
22612.0,724.77,84.422,-90.814,-77.586
22622.0,703.77,75.422,-92.814,-76.586
22632.0,679.77,64.422,-96.814,-77.586
22641.0,661.77,55.422,-98.814,-76.586
22651.0,650.77,53.422,-98.814,-76.586
22661.0,639.77,48.422,-100.81,-76.586
22671.0,627.77,44.422,-101.81,-75.586
22681.0,621.77,42.422,-102.81,-75.586
22691.0,622.77,44.422,-101.81,-75.586
22701.0,623.77,46.422,-102.81,-75.586
22711.0,614.77,43.422,-104.81,-75.586
22721.0,607.77,39.422,-109.81,-77.586
22730.0,598.77,36.422,-112.81,-78.586
22740.0,588.77,31.422,-114.81,-78.586
22750.0,580.77,27.422,-116.81,-78.586
22760.0,573.77,27.422,-116.81,-77.586
22770.0,566.77,24.422,-115.81,-77.586
22780.0,559.77,23.422,-114.81,-76.586
22790.0,559.77,25.422,-114.81,-74.586
22800.0,559.77,29.422,-112.81,-72.586
22809.0,560.77,30.422,-110.81,-71.586
22819.0,558.77,31.422,-109.81,-69.586
22829.0,560.77,34.422,-107.81,-68.586
22839.0,565.77,38.422,-105.81,-68.586
22849.0,568.77,43.422,-103.81,-66.586
22859.0,583.77,54.422,-100.81,-65.586
22869.0,594.77,59.422,-100.81,-64.586
22879.0,613.77,72.422,-103.81,-65.586
22889.0,643.77,89.422,-104.81,-64.586
22898.0,643.77,89.422,-103.81,-64.586
22908.0,568.77,44.422,-94.814,-59.586
22918.0,568.77,44.422,-78.814,-52.586
22928.0,560.77,32.422,-63.814,-48.586
22938.0,560.77,32.422,-50.814,-44.586
22948.0,611.77,53.422,-41.814,-41.586
22958.0,611.77,53.422,-37.814,-41.586
22968.0,669.77,79.422,-30.814,-41.586
22978.0,669.77,79.422,-30.814,-40.586
22987.0,671.77,77.422,-25.814,-39.586
22997.0,671.77,77.422,-22.814,-40.586
23007.0,663.77,72.422,-17.814,-39.586
23017.0,663.77,72.422,-16.814,-36.586
23027.0,665.77,73.422,-14.814,-37.586
23037.0,665.77,73.422,-15.814,-36.586
23047.0,680.77,80.422,-17.814,-38.586
23057.0,690.77,86.422,-17.814,-38.586
23067.0,688.77,86.422,-19.814,-38.586
23076.0,677.77,79.422,-20.814,-38.586
23086.0,657.77,71.422,-18.814,-37.586
23096.0,636.77,62.422,-19.814,-37.586
23106.0,619.77,56.422,-18.814,-35.586
23116.0,613.77,53.422,-18.814,-35.586
23126.0,609.77,53.422,-17.814,-35.586
23136.0,605.77,54.422,-20.814,-34.586
23146.0,605.77,53.422,-20.814,-34.586
23155.0,595.77,49.422,-22.814,-34.586
23165.0,585.77,45.422,-22.814,-33.586
23175.0,577.77,43.422,-22.814,-35.586
23185.0,569.77,40.422,-22.814,-35.586
23195.0,565.77,39.422,-20.814,-32.586
23205.0,564.77,40.422,-20.814,-32.586
23215.0,565.77,41.422,-17.814,-30.586
23225.0,564.77,41.422,-17.814,-30.586
23235.0,563.77,43.422,-16.814,-29.586
23244.0,561.77,44.422,-16.814,-29.586
23254.0,565.77,47.422,-15.814,-26.586
23264.0,565.77,46.422,-15.814,-26.586
23274.0,564.77,46.422,-15.814,-25.586
23284.0,557.77,44.422,-15.814,-25.586
23294.0,547.77,40.422,-11.814,-23.586
23304.0,538.77,38.422,-11.814,-23.586
23314.0,537.77,39.422,-5.8135,-17.586
23324.0,553.77,51.422,-5.8135,-17.586
23333.0,572.77,62.422,1.1865,-14.586
23343.0,599.77,81.422,1.1865,-14.586
23353.0,620.77,92.422,6.1865,-9.5856
23363.0,568.77,57.422,6.1865,-9.5856
23373.0,498.77,15.422,27.186,0.41445
23383.0,462.77,-6.5781,27.186,0.41445
23393.0,470.77,-6.5781,38.186,3.4144
23403.0,520.77,14.422,45.186,6.4144
23412.0,579.77,40.422,51.186,6.4144
23422.0,634.77,60.422,52.186,7.4144
23432.0,666.77,74.422,54.186,6.4144
23442.0,674.77,74.422,56.186,6.4144
23452.0,655.77,60.422,59.186,8.4144
23462.0,621.77,41.422,62.186,9.4144
23472.0,592.77,26.422,65.186,11.414
23482.0,578.77,18.422,67.186,12.414
23492.0,574.77,16.422,70.186,13.414
23501.0,573.77,14.422,72.186,14.414
23511.0,568.77,11.422,76.186,15.414
23521.0,555.77,5.4219,77.186,15.414
23531.0,542.77,-2.5781,79.186,17.414
23541.0,526.77,-8.5781,80.186,18.414
23551.0,519.77,-8.5781,82.186,18.414
23561.0,513.77,-10.578,82.186,18.414
23571.0,508.77,-12.578,81.186,18.414
23581.0,518.77,-4.5781,81.186,18.414
23590.0,528.77,3.4219,81.186,18.414
23600.0,538.77,7.4219,82.186,20.414
23610.0,539.77,10.422,85.186,21.414
23620.0,531.77,7.4219,84.186,20.414
23630.0,531.77,7.4219,83.186,21.414
23640.0,509.77,0.4219,84.186,20.414
23650.0,509.77,0.4219,82.186,22.414
23660.0,484.77,-5.5781,83.186,23.414
23670.0,484.77,-5.5781,83.186,23.414
23679.0,478.77,-1.5781,84.186,23.414
23689.0,478.77,-1.5781,85.186,23.414
23699.0,473.77,1.4219,84.186,24.414
23709.0,473.77,1.4219,87.186,25.414
23719.0,468.77,5.4219,86.186,26.414
23729.0,468.77,5.4219,85.186,26.414
23739.0,467.77,12.422,85.186,25.414
23749.0,467.77,12.422,87.186,27.414
23758.0,459.77,12.422,89.186,29.414
23768.0,459.77,12.422,90.186,30.414
23778.0,454.77,12.422,92.186,31.414
23788.0,455.77,14.422,91.186,31.414
23798.0,456.77,20.422,91.186,32.414
23808.0,451.77,18.422,89.186,31.414
23818.0,438.77,14.422,91.186,31.414
23828.0,441.77,18.422,94.186,34.414
23838.0,470.77,30.422,98.186,38.414
23847.0,512.77,45.422,100.19,38.414
23857.0,554.77,58.422,103.19,39.414
23867.0,594.77,69.422,104.19,41.414
23877.0,632.77,82.422,106.19,41.414
23887.0,662.77,91.422,106.19,41.414
23897.0,684.77,100.42,104.19,41.414
23907.0,699.77,105.42,105.19,41.414
23917.0,709.77,108.42,103.19,42.414
23927.0,714.77,110.42,102.19,41.414
23936.0,717.77,109.42,103.19,40.414
23946.0,721.77,111.42,105.19,42.414
23956.0,721.77,109.42,105.19,43.414
23966.0,716.77,110.42,108.19,45.414
23976.0,716.77,108.42,110.19,46.414
23986.0,713.77,109.42,112.19,47.414
23996.0,710.77,107.42,113.19,50.414
24006.0,706.77,107.42,116.19,50.414
24016.0,707.77,106.42,117.19,51.414
24025.0,705.77,106.42,115.19,50.414
24035.0,702.77,106.42,118.19,52.414
24045.0,700.77,105.42,118.19,53.414
24055.0,697.77,104.42,120.19,55.414
24065.0,694.77,104.42,119.19,55.414
24075.0,693.77,103.42,118.19,55.414
24085.0,690.77,102.42,118.19,55.414
24095.0,685.77,100.42,116.19,54.414
24104.0,677.77,96.422,115.19,54.414
24114.0,669.77,92.422,116.19,55.414
24124.0,663.77,89.422,113.19,56.414
24134.0,654.77,85.422,113.19,54.414
24144.0,647.77,82.422,110.19,54.414
24154.0,638.77,79.422,110.19,54.414
24164.0,628.77,76.422,108.19,54.414
24174.0,620.77,71.422,108.19,54.414
24184.0,610.77,67.422,108.19,55.414
24193.0,601.77,62.422,108.19,55.414
24203.0,592.77,58.422,111.19,56.414
24213.0,587.77,55.422,111.19,56.414
24223.0,580.77,53.422,111.19,57.414
24233.0,572.77,51.422,111.19,57.414
24243.0,568.77,50.422,111.19,59.414
24253.0,575.77,57.422,111.19,59.414
24263.0,567.77,54.422,111.19,60.414
24273.0,559.77,49.422,111.19,60.414
24282.0,571.77,56.422,115.19,63.414
24292.0,598.77,65.422,115.19,63.414
24302.0,634.77,75.422,121.19,66.414
24312.0,665.77,83.422,121.19,66.414
24322.0,698.77,91.422,124.19,70.414
24332.0,725.77,100.42,124.19,70.414
24342.0,725.77,100.42,125.19,68.414
24352.0,765.77,109.42,122.19,68.414
24362.0,765.77,109.42,123.19,68.414
24371.0,786.77,118.42,122.19,68.414
24381.0,786.77,118.42,123.19,68.414
24391.0,791.77,118.42,120.19,67.414
24401.0,791.77,118.42,119.19,66.414
24411.0,784.77,115.42,121.19,68.414
24421.0,784.77,115.42,123.19,70.414
24431.0,770.77,108.42,128.19,71.414
24441.0,770.77,108.42,130.19,72.414
24450.0,760.77,104.42,133.19,74.414
24460.0,760.77,104.42,137.19,75.414
24470.0,752.77,103.42,139.19,77.414
24480.0,752.77,103.42,141.19,77.414
24490.0,749.77,102.42,142.19,79.414
24500.0,744.77,101.42,145.19,79.414
24510.0,741.77,99.422,147.19,80.414
24520.0,736.77,97.422,149.19,82.414
24530.0,732.77,94.422,152.19,82.414
24539.0,726.77,92.422,152.19,82.414
24549.0,722.77,91.422,155.19,83.414
24559.0,717.77,89.422,156.19,83.414
24569.0,709.77,85.422,159.19,84.414
24579.0,704.77,82.422,160.19,83.414
24589.0,697.77,79.422,161.19,83.414
24599.0,687.77,75.422,161.19,84.414
24609.0,678.77,70.422,164.19,84.414
24619.0,668.77,67.422,162.19,84.414
24628.0,660.77,64.422,165.19,84.414
24638.0,657.77,62.422,167.19,86.414
24648.0,651.77,60.422,166.19,85.414
24658.0,645.77,57.422,172.19,87.414
24668.0,635.77,52.422,175.19,89.414
24678.0,628.77,49.422,178.19,89.414
24688.0,621.77,46.422,183.19,90.414
24698.0,616.77,45.422,185.19,92.414
24708.0,612.77,44.422,188.19,93.414
24717.0,609.77,44.422,188.19,92.414
24727.0,613.77,48.422,187.19,92.414
24737.0,603.77,44.422,185.19,91.414
24747.0,594.77,39.422,189.19,92.414
24757.0,607.77,44.422,196.19,97.414
24767.0,639.77,54.422,213.19,104.41
24777.0,674.77,65.422,228.19,108.41
24787.0,702.77,73.422,242.19,112.41
24796.0,720.77,78.422,253.19,114.41
24806.0,731.77,79.422,260.19,114.41
24816.0,737.77,79.422,263.19,115.41
24826.0,740.77,78.422,266.19,115.41
24836.0,740.77,77.422,269.19,114.41
24846.0,743.77,76.422,273.19,117.41
24856.0,739.77,72.422,278.19,119.41
24866.0,733.77,68.422,280.19,118.41
24876.0,726.77,64.422,283.19,116.41
24885.0,720.77,60.422,282.19,116.41
24895.0,718.77,57.422,282.19,116.41
24905.0,712.77,55.422,282.19,115.41
24915.0,706.77,51.422,283.19,115.41
24925.0,702.77,50.422,285.19,116.41
24935.0,698.77,48.422,287.19,117.41
24945.0,693.77,47.422,289.19,116.41
24955.0,691.77,46.422,291.19,117.41
24965.0,691.77,46.422,295.19,119.41
24974.0,689.77,45.422,295.19,119.41
24984.0,686.77,43.422,298.19,120.41
24994.0,683.77,43.422,300.19,122.41
25004.0,676.77,38.422,300.19,122.41
25014.0,672.77,35.422,301.19,121.41
25024.0,668.77,33.422,300.19,122.41
25034.0,660.77,30.422,301.19,123.41
25044.0,652.77,26.422,301.19,122.41
25054.0,646.77,22.422,302.19,123.41
25063.0,640.77,19.422,305.19,124.41
25073.0,640.77,19.422,306.19,125.41
25083.0,632.77,16.422,309.19,126.41
25093.0,632.77,16.422,312.19,127.41
25103.0,622.77,11.422,313.19,127.41
25113.0,622.77,11.422,311.19,127.41
25123.0,613.77,7.4219,310.19,126.41
25133.0,613.77,7.4219,308.19,126.41
25142.0,605.77,4.4219,306.19,123.41
25152.0,605.77,4.4219,303.19,122.41
25162.0,595.77,1.4219,303.19,122.41
25172.0,595.77,1.4219,298.19,120.41
25182.0,596.77,3.4219,298.19,120.41
25192.0,596.77,3.4219,297.19,120.41
25202.0,596.77,6.4219,297.19,120.41
25212.0,592.77,3.4219,295.19,119.41
25222.0,582.77,-2.5781,295.19,119.41
25231.0,580.77,-5.5781,313.19,128.41
25241.0,603.77,1.4219,313.19,128.41
25251.0,635.77,10.422,346.19,140.41
25261.0,670.77,21.422,346.19,140.41
25271.0,696.77,29.422,370.19,145.41
25281.0,717.77,33.422,370.19,145.41
25291.0,733.77,37.422,366.19,139.41
25301.0,744.77,39.422,366.19,139.41
25311.0,746.77,38.422,359.19,133.41
25320.0,749.77,37.422,359.19,133.41
25330.0,750.77,37.422,356.19,128.41
25340.0,752.77,36.422,356.19,128.41
25350.0,751.77,35.422,352.19,124.41
25360.0,751.77,34.422,347.19,121.41
25370.0,751.77,32.422,346.19,118.41
25380.0,749.77,30.422,341.19,118.41
25390.0,744.77,27.422,337.19,115.41
25400.0,741.77,25.422,335.19,112.41
25409.0,737.77,23.422,331.19,109.41
25419.0,736.77,25.422,326.19,108.41
25429.0,735.77,25.422,322.19,106.41
25439.0,733.77,23.422,315.19,104.41
25449.0,731.77,22.422,309.19,101.41
25459.0,728.77,18.422,306.19,100.41
25469.0,726.77,17.422,302.19,97.414
25479.0,722.77,15.422,297.19,95.414
25488.0,720.77,14.422,292.19,92.414
25498.0,715.77,10.422,285.19,89.414
25508.0,711.77,7.4219,280.19,87.414
25518.0,705.77,5.4219,275.19,84.414
25528.0,699.77,1.4219,267.19,81.414
25538.0,692.77,-2.5781,262.19,77.414
25548.0,687.77,-4.5781,255.19,73.414
25558.0,682.77,-7.5781,249.19,71.414
25568.0,677.77,-11.578,241.19,68.414
25577.0,671.77,-13.578,233.19,63.414
25587.0,665.77,-16.578,227.19,60.414
25597.0,657.77,-20.578,219.19,58.414
25607.0,648.77,-25.578,214.19,54.414
25617.0,640.77,-32.578,212.19,54.414
25627.0,630.77,-36.578,208.19,53.414
25637.0,623.77,-39.578,202.19,50.414
25647.0,615.77,-42.578,194.19,48.414
25657.0,615.77,-41.578,191.19,45.414
25666.0,618.77,-39.578,187.19,44.414
25676.0,617.77,-37.578,180.19,42.414
25686.0,612.77,-40.578,172.19,37.414
25696.0,608.77,-47.578,167.19,35.414
25706.0,609.77,-48.578,168.19,35.414
25716.0,626.77,-42.578,176.19,39.414
25726.0,659.77,-36.578,187.19,41.414
25736.0,690.77,-27.578,196.19,44.414
25746.0,715.77,-18.578,204.19,44.414
25755.0,741.77,-10.578,208.19,43.414
25765.0,762.77,-3.5781,210.19,42.414
25775.0,774.77,-0.5781,210.19,40.414
25785.0,774.77,-0.5781,206.19,37.414
25795.0,777.77,-0.5781,203.19,35.414
25805.0,777.77,-0.5781,201.19,32.414
25815.0,770.77,-6.5781,197.19,30.414
25825.0,770.77,-6.5781,191.19,28.414
25834.0,767.77,-8.5781,188.19,26.414
25844.0,767.77,-8.5781,185.19,24.414
25854.0,763.77,-9.5781,183.19,21.414
25864.0,763.77,-9.5781,179.19,21.414
25874.0,754.77,-11.578,176.19,19.414
25884.0,754.77,-11.578,171.19,18.414
25894.0,744.77,-15.578,167.19,16.414
25904.0,744.77,-15.578,163.19,15.414
25914.0,733.77,-17.578,156.19,13.414
25923.0,733.77,-17.578,150.19,10.414
25933.0,729.77,-19.578,146.19,8.4144
25943.0,728.77,-18.578,143.19,7.4144
25953.0,730.77,-19.578,141.19,6.4144
25963.0,731.77,-16.578,136.19,5.4144
25973.0,729.77,-17.578,134.19,4.4144
25983.0,727.77,-17.578,129.19,2.4144
25993.0,724.77,-16.578,126.19,0.41445
26003.0,721.77,-17.578,122.19,-0.58555
26012.0,716.77,-18.578,119.19,-2.5856
26022.0,712.77,-19.578,114.19,-3.5856
26032.0,707.77,-21.578,108.19,-6.5856
26042.0,702.77,-23.578,105.19,-8.5856
26052.0,694.77,-24.578,100.19,-9.5856
26062.0,687.77,-26.578,99.186,-10.586
26072.0,682.77,-28.578,94.186,-11.586
26082.0,674.77,-30.578,93.186,-12.586
26092.0,666.77,-33.578,89.186,-11.586
26101.0,665.77,-31.578,86.186,-13.586
26111.0,663.77,-31.578,84.186,-13.586
26121.0,660.77,-32.578,80.186,-14.586
26131.0,653.77,-33.578,77.186,-15.586
26141.0,652.77,-32.578,72.186,-17.586
26151.0,651.77,-32.578,68.186,-19.586
26161.0,646.77,-31.578,63.186,-21.586
26171.0,634.77,-36.578,63.186,-21.586
26180.0,621.77,-46.578,64.186,-18.586
26190.0,619.77,-50.578,64.186,-18.586
26200.0,640.77,-45.578,89.186,-9.5856
26210.0,669.77,-35.578,89.186,-9.5856
26220.0,694.77,-26.578,112.19,-2.5856
26230.0,718.77,-18.578,112.19,-2.5856
26240.0,740.77,-10.578,118.19,-3.5856
26250.0,760.77,-4.5781,118.19,-3.5856
26260.0,768.77,-1.5781,117.19,-3.5856
26269.0,764.77,-5.5781,117.19,-3.5856
26279.0,760.77,-8.5781,115.19,-6.5856
26289.0,760.77,-7.5781,115.19,-6.5856
26299.0,764.77,-4.5781,110.19,-7.5856
26309.0,773.77,-0.5781,110.19,-7.5856
26319.0,780.77,4.4219,106.19,-8.5856
26329.0,788.77,9.4219,106.19,-8.5856
26339.0,797.77,14.422,98.186,-9.5856
26349.0,802.77,19.422,98.186,-9.5856
26358.0,810.77,23.422,92.186,-11.586
26368.0,817.77,29.422,92.186,-11.586
26378.0,827.77,34.422,88.186,-12.586
26388.0,838.77,41.422,85.186,-13.586
26398.0,850.77,49.422,81.186,-14.586
26408.0,861.77,57.422,78.186,-13.586
26418.0,872.77,64.422,75.186,-15.586
26428.0,881.77,70.422,72.186,-14.586
26438.0,886.77,75.422,69.186,-15.586
26447.0,887.77,79.422,68.186,-14.586
26457.0,884.77,79.422,66.186,-14.586
26467.0,883.77,79.422,63.186,-15.586
26477.0,879.77,80.422,61.186,-16.586
26487.0,869.77,77.422,57.186,-17.586
26497.0,869.77,77.422,57.186,-17.586
26507.0,838.77,67.422,54.186,-16.586
26517.0,838.77,67.422,53.186,-17.586
26526.0,795.77,51.422,51.186,-18.586
26536.0,795.77,51.422,49.186,-18.586
26546.0,764.77,40.422,47.186,-18.586
26556.0,764.77,40.422,47.186,-18.586
26566.0,741.77,34.422,44.186,-18.586
26576.0,741.77,34.422,43.186,-19.586
26586.0,720.77,30.422,40.186,-20.586
26596.0,720.77,30.422,36.186,-20.586
26606.0,689.77,23.422,37.186,-21.586
26615.0,689.77,23.422,36.186,-19.586
26625.0,668.77,17.422,34.186,-20.586
26635.0,668.77,17.422,36.186,-19.586
26645.0,648.77,7.4219,37.186,-20.586
26655.0,622.77,-4.5781,34.186,-18.586
26665.0,597.77,-15.578,40.186,-15.586
26675.0,596.77,-17.578,54.186,-8.5856
26685.0,601.77,-20.578,73.186,-3.5856
26695.0,609.77,-19.578,86.186,3.4144
26704.0,623.77,-15.578,99.186,5.4144
26714.0,642.77,-9.5781,107.19,8.4144
26724.0,654.77,-3.5781,111.19,7.4144
26734.0,664.77,0.4219,115.19,8.4144
26744.0,668.77,0.4219,116.19,7.4144
26754.0,665.77,-0.5781,119.19,7.4144
26764.0,657.77,-5.5781,121.19,8.4144
26774.0,648.77,-9.5781,124.19,9.4144
26784.0,637.77,-15.578,125.19,8.4144
26793.0,627.77,-21.578,125.19,9.4144
26803.0,622.77,-20.578,125.19,9.4144
26813.0,622.77,-22.578,126.19,10.414
26823.0,611.77,-26.578,125.19,10.414
26833.0,594.77,-32.578,124.19,10.414
26843.0,570.77,-41.578,121.19,9.4144
26853.0,548.77,-49.578,118.19,8.4144
26863.0,526.77,-54.578,115.19,9.4144
26872.0,510.77,-59.578,114.19,8.4144
26882.0,504.77,-59.578,113.19,7.4144
26892.0,501.77,-58.578,114.19,9.4144
26902.0,499.77,-57.578,116.19,9.4144
26912.0,492.77,-59.578,118.19,11.414
26922.0,483.77,-62.578,119.19,12.414
26932.0,475.77,-66.578,120.19,14.414
26942.0,466.77,-70.578,120.19,15.414
26952.0,455.77,-73.578,121.19,15.414
26961.0,439.77,-79.578,122.19,16.414
26971.0,430.77,-83.578,121.19,15.414
26981.0,419.77,-87.578,121.19,15.414
26991.0,411.77,-88.578,118.19,16.414
27001.0,403.77,-90.578,117.19,15.414
27011.0,393.77,-93.578,118.19,17.414
27021.0,382.77,-98.578,118.19,16.414
27031.0,370.77,-102.58,117.19,17.414
27041.0,358.77,-107.58,117.19,18.414
27050.0,345.77,-110.58,118.19,19.414
27060.0,334.77,-115.58,120.19,20.414
27070.0,321.77,-120.58,122.19,22.414
27080.0,311.77,-124.58,125.19,22.414
27090.0,306.77,-124.58,125.19,23.414
27100.0,304.77,-122.58,128.19,24.414
27110.0,286.77,-129.58,128.19,25.414
27120.0,253.77,-147.58,127.19,26.414
27130.0,217.77,-165.58,128.19,27.414
27139.0,221.77,-163.58,135.19,31.414
27149.0,237.77,-162.58,149.19,37.414
27159.0,244.77,-164.58,149.19,37.414
27169.0,268.77,-156.58,175.19,45.414
27179.0,313.77,-136.58,175.19,45.414
27189.0,352.77,-119.58,193.19,49.414
27199.0,377.77,-109.58,193.19,49.414
27209.0,392.77,-104.58,198.19,50.414
27218.0,392.77,-105.58,198.19,50.414
27228.0,392.77,-105.58,205.19,52.414
27238.0,375.77,-115.58,205.19,52.414
27248.0,375.77,-115.58,210.19,51.414
27258.0,369.77,-119.58,210.19,51.414
27268.0,369.77,-119.58,211.19,51.414
27278.0,375.77,-120.58,211.19,51.414
27288.0,375.77,-120.58,209.19,51.414
27298.0,367.77,-123.58,209.19,51.414
27307.0,367.77,-123.58,211.19,53.414
27317.0,353.77,-127.58,211.19,53.414
27327.0,353.77,-127.58,214.19,54.414
27337.0,346.77,-128.58,214.19,54.414
27347.0,346.77,-128.58,214.19,54.414
27357.0,343.77,-130.58,217.19,55.414
27367.0,340.77,-131.58,219.19,56.414
27377.0,340.77,-131.58,222.19,56.414
27387.0,340.77,-133.58,220.19,57.414
27396.0,338.77,-134.58,222.19,58.414
27406.0,336.77,-136.58,222.19,58.414
27416.0,333.77,-141.58,223.19,59.414
27426.0,328.77,-139.58,223.19,58.414
27436.0,330.77,-140.58,222.19,59.414
27446.0,332.77,-142.58,222.19,60.414
27456.0,335.77,-142.58,222.19,59.414
27466.0,333.77,-141.58,221.19,58.414
27476.0,322.77,-146.58,220.19,59.414
27485.0,299.77,-161.58,218.19,58.414
27495.0,261.77,-181.58,219.19,59.414
27505.0,227.77,-197.58,220.19,59.414
27515.0,205.77,-208.58,221.19,60.414
27525.0,198.77,-210.58,226.19,63.414
27535.0,216.77,-197.58,228.19,64.414
27545.0,227.77,-191.58,230.19,66.414
27555.0,221.77,-194.58,232.19,67.414
27564.0,210.77,-198.58,233.19,69.414
27574.0,184.77,-207.58,236.19,69.414
27584.0,156.77,-215.58,235.19,70.414
27594.0,134.77,-224.58,233.19,70.414
27604.0,102.77,-233.58,235.19,71.414
27614.0,136.77,-207.58,238.19,73.414
27624.0,182.77,-182.58,245.19,76.414
27634.0,220.77,-167.58,248.19,77.414
27644.0,254.77,-156.58,249.19,79.414
27653.0,292.77,-144.58,253.19,79.414
27663.0,322.77,-133.58,255.19,79.414
27673.0,347.77,-123.58,255.19,79.414
27683.0,363.77,-115.58,256.19,81.414
27693.0,380.77,-107.58,259.19,81.414
27703.0,396.77,-97.578,261.19,83.414
27713.0,408.77,-90.578,265.19,85.414
27723.0,412.77,-86.578,268.19,85.414
27733.0,419.77,-81.578,272.19,87.414
27742.0,427.77,-75.578,275.19,90.414
27752.0,435.77,-68.578,278.19,91.414
27762.0,437.77,-63.578,283.19,92.414
27772.0,435.77,-58.578,284.19,94.414
27782.0,435.77,-55.578,287.19,92.414
27792.0,434.77,-52.578,289.19,94.414
27802.0,435.77,-47.578,290.19,95.414
27812.0,438.77,-42.578,292.19,95.414
27822.0,443.77,-34.578,293.19,96.414
27831.0,451.77,-28.578,294.19,96.414
27841.0,459.77,-20.578,297.19,98.414
27851.0,460.77,-14.578,298.19,98.414
27861.0,462.77,-11.578,296.19,98.414
27871.0,463.77,-6.5781,297.19,98.414
27881.0,465.77,-2.5781,293.19,97.414
27891.0,464.77,0.4219,295.19,96.414
27901.0,461.77,3.4219,295.19,97.414
27910.0,457.77,6.4219,296.19,98.414
27920.0,454.77,6.4219,298.19,99.414
27930.0,445.77,7.4219,301.19,100.41
27940.0,445.77,7.4219,305.19,102.41
27950.0,425.77,5.4219,307.19,102.41
27960.0,425.77,5.4219,308.19,102.41
27970.0,406.77,3.4219,308.19,103.41
27980.0,406.77,3.4219,310.19,104.41
27990.0,389.77,2.4219,311.19,104.41
27999.0,389.77,2.4219,311.19,105.41
28009.0,369.77,-0.5781,311.19,105.41
28019.0,369.77,-0.5781,310.19,105.41
28029.0,353.77,0.4219,312.19,106.41
28039.0,353.77,0.4219,314.19,106.41
28049.0,341.77,4.4219,314.19,106.41
28059.0,341.77,4.4219,315.19,106.41
28069.0,335.77,6.4219,318.19,108.41
28079.0,335.77,6.4219,329.19,114.41
28088.0,347.77,11.422,345.19,119.41
28098.0,366.77,16.422,357.19,123.41
28108.0,389.77,20.422,369.19,126.41
28118.0,414.77,26.422,377.19,128.41
28128.0,432.77,30.422,377.19,128.41
28138.0,447.77,37.422,383.19,126.41
28148.0,458.77,41.422,383.19,126.41
28158.0,465.77,44.422,389.19,125.41
28168.0,469.77,45.422,389.19,125.41
28177.0,467.77,47.422,393.19,126.41
28187.0,467.77,46.422,393.19,126.41
28197.0,463.77,45.422,398.19,126.41
28207.0,459.77,45.422,398.19,126.41
28217.0,452.77,43.422,397.19,124.41
28227.0,448.77,41.422,397.19,124.41
28237.0,443.77,40.422,392.19,123.41
28247.0,437.77,39.422,392.19,123.41
28256.0,431.77,38.422,390.19,121.41
28266.0,427.77,37.422,390.19,121.41
28276.0,421.77,37.422,386.19,120.41
28286.0,417.77,35.422,386.19,120.41
28296.0,415.77,35.422,387.19,119.41
28306.0,411.77,35.422,387.19,119.41
28316.0,406.77,34.422,384.19,119.41
28326.0,402.77,33.422,380.19,118.41
28336.0,398.77,32.422,377.19,116.41
28345.0,392.77,31.422,373.19,115.41
28355.0,386.77,30.422,372.19,113.41
28365.0,377.77,27.422,369.19,113.41
28375.0,372.77,28.422,369.19,112.41
28385.0,364.77,27.422,369.19,112.41
28395.0,357.77,26.422,370.19,112.41
28405.0,350.77,25.422,369.19,113.41
28415.0,342.77,25.422,367.19,112.41
28425.0,335.77,25.422,364.19,110.41
28434.0,327.77,23.422,361.19,109.41
28444.0,316.77,21.422,356.19,107.41
28454.0,309.77,20.422,354.19,107.41
28464.0,298.77,19.422,353.19,106.41
28474.0,292.77,17.422,352.19,106.41
28484.0,281.77,15.422,351.19,106.41
28494.0,273.77,13.422,351.19,106.41
28504.0,268.77,12.422,351.19,105.41
28514.0,262.77,12.422,349.19,105.41
28523.0,254.77,12.422,346.19,104.41
28533.0,248.77,10.422,344.19,102.41
28543.0,250.77,11.422,344.19,104.41
28553.0,265.77,14.422,349.19,105.41
28563.0,288.77,19.422,360.19,109.41
28573.0,312.77,23.422,372.19,113.41
28583.0,334.77,28.422,381.19,114.41
28593.0,348.77,33.422,388.19,113.41
28602.0,360.77,38.422,388.19,112.41
28612.0,373.77,43.422,387.19,111.41
28622.0,379.77,45.422,385.19,108.41
28632.0,383.77,45.422,385.19,106.41
28642.0,386.77,46.422,383.19,104.41
28652.0,386.77,45.422,381.19,102.41
28662.0,384.77,45.422,380.19,100.41
28672.0,384.77,45.422,377.19,99.414
28682.0,380.77,41.422,372.19,95.414
28691.0,380.77,41.422,365.19,90.414
28701.0,374.77,39.422,357.19,87.414
28711.0,374.77,39.422,347.19,84.414
28721.0,364.77,34.422,342.19,81.414
28731.0,364.77,34.422,336.19,76.414
28741.0,356.77,31.422,327.19,74.414
28751.0,356.77,31.422,319.19,70.414
28761.0,358.77,30.422,312.19,68.414
28771.0,358.77,30.422,306.19,63.414
28780.0,358.77,30.422,300.19,61.414
28790.0,358.77,30.422,296.19,57.414
28800.0,359.77,29.422,291.19,55.414
28810.0,361.77,30.422,283.19,52.414
28820.0,363.77,30.422,279.19,49.414
28830.0,364.77,30.422,273.19,45.414
28840.0,366.77,30.422,266.19,43.414
28850.0,367.77,29.422,258.19,40.414
28859.0,370.77,30.422,255.19,37.414
28869.0,370.77,31.422,252.19,37.414
28879.0,371.77,33.422,249.19,34.414
28889.0,373.77,34.422,243.19,32.414
28899.0,372.77,35.422,240.19,30.414
28909.0,371.77,35.422,235.19,29.414
28919.0,368.77,35.422,228.19,24.414
28929.0,365.77,34.422,224.19,22.414
28939.0,358.77,32.422,217.19,19.414
28948.0,355.77,33.422,211.19,15.414
28958.0,353.77,32.422,205.19,13.414
28968.0,351.77,33.422,200.19,11.414
28978.0,352.77,34.422,195.19,8.4144
28988.0,355.77,38.422,191.19,7.4144
28998.0,352.77,39.422,186.19,4.4144
29008.0,352.77,40.422,184.19,4.4144
29018.0,360.77,42.422,192.19,6.4144
29028.0,375.77,45.422,204.19,12.414
29037.0,404.77,51.422,216.19,14.414
29047.0,429.77,56.422,228.19,17.414
29057.0,453.77,64.422,235.19,18.414
29067.0,470.77,69.422,241.19,17.414
29077.0,487.77,74.422,241.19,15.414
29087.0,497.77,77.422,238.19,12.414
29097.0,507.77,80.422,237.19,10.414
29107.0,513.77,83.422,234.19,7.4144
29117.0,522.77,85.422,230.19,6.4144
29126.0,524.77,86.422,228.19,2.4144
29136.0,527.77,86.422,223.19,0.41445
29146.0,526.77,86.422,221.19,-1.5856
29156.0,525.77,85.422,221.19,-1.5856
29166.0,523.77,83.422,211.19,-6.5856
29176.0,518.77,81.422,211.19,-6.5856
29186.0,514.77,79.422,199.19,-11.586
29196.0,509.77,79.422,199.19,-11.586
29205.0,503.77,77.422,192.19,-13.586
29215.0,498.77,77.422,192.19,-13.586
29225.0,494.77,75.422,183.19,-18.586
29235.0,487.77,73.422,183.19,-18.586
29245.0,480.77,72.422,176.19,-21.586
29255.0,473.77,72.422,176.19,-21.586
29265.0,469.77,70.422,168.19,-24.586
29275.0,465.77,70.422,168.19,-24.586
29285.0,461.77,70.422,160.19,-28.586
29294.0,456.77,69.422,160.19,-28.586
29304.0,452.77,69.422,152.19,-32.586
29314.0,445.77,69.422,152.19,-32.586
29324.0,442.77,69.422,144.19,-35.586
29334.0,433.77,68.422,144.19,-35.586
29344.0,428.77,67.422,139.19,-38.586
29354.0,416.77,65.422,139.19,-38.586
29364.0,405.77,62.422,135.19,-38.586
29374.0,395.77,57.422,133.19,-41.586
29383.0,395.77,57.422,127.19,-42.586
29393.0,383.77,54.422,125.19,-45.586
29403.0,383.77,54.422,121.19,-46.586
29413.0,370.77,51.422,118.19,-47.586
29423.0,370.77,51.422,113.19,-48.586
29433.0,362.77,51.422,111.19,-50.586
29443.0,362.77,51.422,107.19,-50.586
29453.0,363.77,54.422,106.19,-52.586
29463.0,363.77,54.422,101.19,-52.586
29472.0,359.77,54.422,98.186,-55.586
29482.0,359.77,54.422,94.186,-54.586
29492.0,395.77,61.422,101.19,-51.586
29502.0,395.77,61.422,112.19,-47.586
29512.0,447.77,69.422,124.19,-43.586
29522.0,447.77,69.422,133.19,-41.586
29532.0,468.77,72.422,142.19,-40.586
29542.0,486.77,76.422,144.19,-40.586
29551.0,504.77,81.422,147.19,-41.586
29561.0,522.77,84.422,144.19,-41.586
29571.0,540.77,90.422,145.19,-42.586
29581.0,553.77,95.422,146.19,-40.586
29591.0,566.77,100.42,147.19,-42.586
29601.0,578.77,104.42,145.19,-43.586
29611.0,585.77,109.42,145.19,-43.586
29621.0,589.77,113.42,142.19,-43.586
29631.0,592.77,117.42,139.19,-43.586
29640.0,590.77,118.42,135.19,-46.586
29650.0,582.77,116.42,131.19,-47.586
29660.0,573.77,114.42,124.19,-49.586
29670.0,560.77,113.42,121.19,-50.586
29680.0,546.77,109.42,117.19,-52.586
29690.0,532.77,107.42,114.19,-52.586
29700.0,518.77,103.42,112.19,-52.586
29710.0,502.77,100.42,110.19,-52.586
29720.0,486.77,98.422,109.19,-50.586
29729.0,473.77,96.422,107.19,-52.586
29739.0,460.77,93.422,106.19,-51.586
29749.0,443.77,90.422,106.19,-51.586
29759.0,432.77,89.422,103.19,-52.586
29769.0,419.77,87.422,101.19,-53.586
29779.0,404.77,83.422,98.186,-53.586
29789.0,387.77,79.422,98.186,-53.586
29799.0,370.77,75.422,95.186,-55.586
29809.0,354.77,71.422,94.186,-53.586
29818.0,336.77,67.422,93.186,-54.586
29828.0,319.77,61.422,93.186,-54.586
29838.0,301.77,56.422,92.186,-54.586
29848.0,282.77,50.422,89.186,-55.586
29858.0,263.77,44.422,89.186,-54.586
29868.0,242.77,36.422,88.186,-56.586
29878.0,224.77,31.422,86.186,-55.586
29888.0,206.77,23.422,85.186,-56.586
29897.0,187.77,17.422,85.186,-55.586
29907.0,169.77,12.422,88.186,-54.586
29917.0,152.77,7.4219,90.186,-54.586
29927.0,134.77,2.4219,90.186,-53.586
29937.0,121.77,-2.5781,90.186,-52.586
29947.0,117.77,-4.5781,92.186,-50.586
29957.0,129.77,-2.5781,106.19,-44.586
29967.0,146.77,-0.5781,124.19,-39.586
29977.0,163.77,2.4219,139.19,-33.586
29986.0,176.77,4.4219,152.19,-29.586
29996.0,185.77,7.4219,163.19,-28.586
