t,lead_I,lead_II,v3,v4
0.8,-22069,-41898,14600,-49225
2.8,-21160,-41506,14287,-49614
4.8,-20765,-41672,14160,-49777
6.8,-20990,-41926,14145,-49756
8.8,-21668,-41838,14115,-49694
10.8,-22694,-42067,13992,-49675
12.8,-23673,-42922,13830,-49702
14.8,-23802,-43301,13810,-49685
16.8,-23077,-42647,14058,-49528
18.8,-22488,-42083,14397,-49351
20.8,-22193,-42194,14481,-49406
22.8,-21474,-42132,14260,-49678
24.8,-20808,-41759,14030,-49872
26.8,-21285,-41862,13956,-49865
28.8,-22433,-42315,13920,-49806
30.8,-23237,-42536,13868,-49766
32.8,-23829,-42742,13900,-49659
34.8,-24207,-42965,14020,-49505
36.8,-23619,-42680,14119,-49437
38.8,-22309,-42142,14173,-49485
40.8,-21417,-42009,14211,-49572
42.8,-21161,-42050,14187,-49667
44.8,-21153,-41958,14049,-49793
46.8,-21510,-42144,13846,-49933
48.8,-22322,-42624,13700,-49992
50.8,-23269,-42854,13725,-49874
52.8,-24094,-42878,13925,-49608
54.8,-24370,-42989,14130,-49396
56.8,-23586,-42856,14172,-49412
58.8,-22281,-42302,14113,-49572
60.8,-21720,-41920,14143,-49653
62.8,-22085,-42097,14245,-49615
64.8,-22451,-42443,14251,-49594
66.8,-22442,-42529,14156,-49604
68.8,-22536,-42445,14080,-49566
70.8,-22976,-42540,14009,-49536
72.8,-23413,-42904,13903,-49584
74.8,-23536,-43171,13894,-49599
76.8,-23397,-42981,14047,-49507
78.8,-23042,-42479,14181,-49451
80.8,-22355,-42031,14157,-49541
82.8,-21596,-41743,14050,-49700
84.8,-21458,-41631,13933,-49837
86.8,-22054,-41791,13816,-49910
88.8,-22687,-42145,13745,-49889
90.8,-23058,-42490,13727,-49822
92.8,-23495,-42835,13750,-49750
94.8,-23776,-43178,13899,-49592
96.8,-23243,-43185,14174,-49360
98.8,-22177,-42672,14342,-49290
100.8,-21558,-42079,14270,-49478
102.8,-21611,-41908,14141,-49684
104.8,-21884,-42091,14104,-49730
106.8,-22236,-42329,14052,-49731
108.8,-22705,-42564,13894,-49802
110.8,-23072,-42779,13719,-49875
112.8,-23261,-42871,13643,-49857
114.8,-23439,-42875,13699,-49778
116.8,-23447,-42864,13851,-49706
118.8,-22928,-42718,14028,-49652
120.8,-22079,-42378,14141,-49616
122.8,-21561,-42070,14119,-49656
124.8,-21664,-42008,13976,-49787
126.8,-22098,-42181,13819,-49894
128.8,-22515,-42464,13735,-49872
130.8,-22808,-42652,13740,-49755
132.8,-22979,-42622,13812,-49643
134.8,-23083,-42620,13884,-49606
136.8,-23138,-42842,13908,-49644
138.8,-22893,-42829,13973,-49653
140.8,-22115,-42171,14161,-49561
142.8,-21353,-41433,14344,-49444
144.8,-21531,-41349,14422,-49348
146.8,-22481,-41668,14510,-49210
148.8,-23076,-41827,14590,-49112
150.8,-23015,-41891,14456,-49218
152.8,-22966,-42041,14226,-49378
154.8,-23111,-42122,14278,-49289
156.8,-23115,-42172,14585,-49033
158.8,-23036,-42350,14775,-48925
160.8,-22875,-42330,14756,-49008
162.8,-22191,-41792,14678,-49136
164.8,-21230,-41177,14550,-49275
166.8,-21078,-41112,14375,-49397
168.8,-21955,-41547,14281,-49406
170.8,-22814,-42014,14280,-49337
172.83,-22955,-42206,14277,-49298
174.85,-22695,-42091,14325,-49248
176.88,-22437,-41826,14488,-49133
178.9,-22162,-41545,14626,-49069
180.9,-21831,-41200,14622,-49128
182.9,-21648,-40860,14594,-49161
184.9,-21821,-40857,14643,-49063
186.9,-22202,-41226,14639,-48993
188.9,-22415,-41563,14463,-49107
190.9,-22455,-41723,14288,-49239
192.9,-22658,-41912,14348,-49160
194.9,-22914,-42039,14517,-49018
196.9,-22785,-41883,14503,-49089
198.9,-22445,-41719,14372,-49257
200.9,-22367,-41864,14385,-49258
202.9,-22320,-42035,14456,-49203
204.9,-21966,-41914,14348,-49312
206.9,-21857,-41803,14156,-49462
208.9,-22509,-42092,14074,-49482
210.9,-23285,-42624,14032,-49481
212.9,-23383,-42988,13931,-49562
214.9,-23015,-42989,13858,-49644
216.9,-22750,-42732,13857,-49694
218.9,-22610,-42509,13843,-49761
220.9,-22421,-42515,13804,-49818
222.9,-22287,-42580,13810,-49808
224.9,-22318,-42513,13844,-49773
226.9,-22429,-42521,13803,-49795
228.9,-22593,-42782,13670,-49860
230.9,-22846,-42987,13593,-49858
232.9,-23070,-42912,13670,-49742
234.9,-23134,-42848,13800,-49613
236.9,-23118,-42940,13877,-49563
238.9,-23103,-42870,13918,-49578
240.9,-22989,-42581,13917,-49660
242.9,-22707,-42430,13824,-49806
244.9,-22385,-42454,13713,-49903
246.9,-22243,-42397,13677,-49885
248.9,-22460,-42361,13674,-49850
250.9,-22950,-42606,13649,-49875
252.9,-23308,-42954,13639,-49910
254.9,-23308,-43080,13697,-49899
256.9,-23146,-43045,13831,-49857
258.9,-22941,-43083,13937,-49880
260.9,-22601,-43229,13861,-50077
262.9,-22264,-43374,13669,-50374
264.9,-22158,-43414,13638,-50529
266.9,-22180,-43348,13893,-50416
268.9,-22252,-43312,14350,-50098
270.9,-22495,-43313,14909,-49666
272.9,-22685,-43044,15429,-49224
274.9,-22406,-42365,15802,-48801
276.9,-21806,-41623,16146,-48242
278.9,-21253,-41024,16537,-47451
280.9,-20656,-40201,16779,-46577
282.9,-19968,-38891,16822,-45685
284.9,-19557,-37374,16891,-44656
286.9,-19476,-35905,16991,-43583
288.9,-19321,-34440,16972,-42682
290.9,-19072,-33070,17017,-41840
292.9,-19128,-32089,17222,-40952
294.9,-19509,-31697,17079,-40509
296.9,-19848,-32110,16169,-41084
298.9,-19975,-33555,14841,-42521
300.9,-20021,-35768,13509,-44330
302.9,-20211,-38061,12012,-46453
304.9,-20705,-40119,10264,-48927
306.9,-21339,-42041,8848,-51210
308.9,-21729,-43574,8341,-52571
310.9,-21867,-44219,8624,-52905
312.9,-22132,-44150,9273,-52611
314.9,-22529,-44077,10092,-52048
316.9,-22597,-44153,10947,-51455
318.9,-22249,-43898,11655,-50994
320.9,-22041,-43273,12256,-50593
322.9,-22320,-42880,12855,-50173
324.9,-22654,-42929,13272,-49921
326.9,-22522,-42942,13384,-49913
328.9,-22248,-42724,13474,-49866
330.9,-22502,-42683,13696,-49694
332.9,-23087,-42916,13767,-49695
334.9,-23254,-42997,13612,-49888
336.9,-23039,-42843,13583,-49911
338.9,-23010,-42784,13771,-49732
340.9,-23057,-42844,13872,-49663
342.9,-22776,-42864,13815,-49719
344.9,-22462,-42963,13806,-49710
346.9,-22538,-43124,13839,-49684
348.9,-22791,-43061,13787,-49731
350.9,-22958,-42909,13731,-49740
352.9,-23143,-43069,13779,-49671
354.9,-23300,-43321,13852,-49632
356.9,-23215,-43203,13870,-49611
358.9,-22991,-42928,13886,-49532
360.9,-22823,-42871,13939,-49462
362.9,-22623,-42817,13969,-49483
364.9,-22389,-42529,13940,-49522
366.9,-22377,-42293,13906,-49494
368.9,-22570,-42393,13912,-49432
370.9,-22661,-42767,13902,-49425
372.9,-22668,-43209,13821,-49481
374.9,-22788,-43372,13759,-49522
376.9,-22860,-43035,13810,-49493
378.9,-22708,-42579,13915,-49434
380.9,-22549,-42478,13978,-49396
382.9,-22479,-42531,14006,-49385
384.9,-22296,-42435,14033,-49409
386.9,-22164,-42449,14042,-49463
388.9,-22440,-42687,14010,-49521
390.9,-22842,-42791,13944,-49581
392.9,-22858,-42798,13903,-49637
394.9,-22649,-43065,13943,-49640
396.9,-22609,-43290,14020,-49599
398.9,-22646,-43004,14056,-49571
400.9,-22544,-42610,14085,-49541
402.9,-22394,-42616,14139,-49499
404.9,-22364,-42665,14134,-49521
406.9,-22492,-42445,14056,-49589
408.9,-22649,-42377,14029,-49570
410.9,-22605,-42577,14075,-49471
412.9,-22415,-42598,14088,-49429
414.9,-22471,-42512,14053,-49468
416.9,-22801,-42726,14059,-49480
418.9,-22847,-42923,14135,-49398
420.9,-22344,-42681,14247,-49250
422.9,-21798,-42440,14360,-49117
424.9,-21731,-42555,14446,-49043
426.9,-22024,-42575,14495,-48990
428.9,-22318,-42359,14509,-48943
430.9,-22574,-42443,14496,-48941
432.9,-22868,-42828,14477,-48980
434.9,-22987,-42898,14472,-49005
436.9,-22710,-42563,14491,-48992
438.9,-22269,-42206,14543,-48952
440.9,-22045,-41897,14603,-48913
442.9,-22037,-41654,14623,-48910
444.9,-22077,-41776,14628,-48910
446.9,-22197,-42228,14664,-48867
448.9,-22351,-42448,14682,-48834
450.9,-22291,-42215,14684,-48818
452.93,-22085,-41969,14788,-48706
454.95,-22167,-42022,14994,-48510
456.98,-22592,-42152,15158,-48369
459.0,-22892,-42121,15263,-48283
461.0,-22824,-41992,15343,-48206
463.0,-22590,-41858,15309,-48229
465.0,-22319,-41728,15196,-48314
467.0,-22016,-41630,15235,-48222
469.0,-21924,-41527,15439,-47970
471.0,-22270,-41336,15579,-47825
473.0,-22725,-41200,15636,-47793
475.0,-22738,-41329,15769,-47667
477.0,-22289,-41532,15951,-47479
479.0,-21849,-41434,16042,-47417
481.0,-21730,-41115,16063,-47449
483.0,-21865,-40973,16130,-47401
485.0,-22018,-41022,16296,-47212
487.0,-21977,-40919,16531,-46959
489.0,-21680,-40624,16689,-46789
491.0,-21297,-40422,16636,-46806
493.0,-21131,-40327,16550,-46855
495.0,-21341,-40113,16761,-46648
497.0,-21701,-39856,17169,-46269
499.0,-21766,-39795,17324,-46116
501.0,-21468,-39789,17221,-46184
503.0,-21285,-39596,17309,-46041
505.0,-21480,-39370,17616,-45677
507.0,-21642,-39289,17708,-45542
509.0,-21447,-39184,17608,-45610
511.0,-21218,-38993,17768,-45403
513.0,-21227,-38941,18101,-45009
515.0,-21205,-38985,18075,-44996
517.0,-20960,-38871,17727,-45350
519.0,-20757,-38718,17588,-45527
521.0,-20772,-38792,17739,-45421
523.0,-20846,-38924,17816,-45360
525.0,-20893,-38837,17744,-45410
527.0,-20982,-38676,17705,-45412
529.0,-21011,-38691,17652,-45434
531.0,-20816,-38826,17438,-45620
533.0,-20605,-38941,17217,-45814
535.0,-20778,-39051,17240,-45761
537.0,-21272,-39186,17435,-45535
539.0,-21564,-39251,17522,-45446
541.0,-21433,-39156,17383,-45627
543.0,-21216,-38984,17114,-45930
545.0,-21183,-38936,16864,-46174
547.0,-21258,-39087,16721,-46313
549.0,-21400,-39296,16666,-46375
551.0,-21602,-39428,16610,-46408
553.0,-21633,-39524,16503,-46491
555.0,-21483,-39706,16374,-46669
557.0,-21605,-40017,16257,-46867
559.0,-22052,-40349,16141,-47020
561.0,-22172,-40540,15992,-47186
563.0,-21774,-40584,15835,-47374
565.0,-21541,-40659,15731,-47484
567.0,-21795,-40864,15637,-47562
569.0,-22138,-41106,15472,-47745
571.0,-22432,-41291,15348,-47913
573.0,-22796,-41423,15392,-47894
575.0,-22877,-41496,15420,-47889
577.0,-22476,-41517,15220,-48122
579.0,-22245,-41604,14947,-48395
581.0,-22578,-41804,14845,-48459
583.0,-22787,-41888,14882,-48397
585.0,-22362,-41640,14937,-48339
587.0,-21874,-41303,14955,-48309
589.0,-21904,-41334,14865,-48389
591.0,-22226,-41723,14678,-48600
593.0,-22473,-42035,14537,-48779
595.0,-22586,-42085,14474,-48847
597.0,-22503,-42028,14386,-48892
599.0,-22238,-41940,14294,-48926
601.0,-22111,-41839,14302,-48888
603.0,-22317,-41865,14399,-48801
605.0,-22609,-42025,14504,-48717
607.0,-22734,-42121,14565,-48665
609.0,-22706,-42109,14521,-48703
611.0,-22610,-42103,14379,-48817
613.0,-22616,-42104,14265,-48876
615.0,-22868,-42075,14265,-48845
617.0,-23078,-42043,14344,-48802
619.0,-22826,-41969,14460,-48741
621.0,-22370,-41825,14561,-48652
623.0,-22289,-41726,14548,-48658
625.0,-22488,-41737,14432,-48774
627.0,-22478,-41792,14381,-48801
629.0,-22308,-41912,14445,-48700
631.0,-22330,-42153,14465,-48705
633.0,-22508,-42340,14388,-48851
635.0,-22645,-42234,14398,-48860
637.0,-22788,-41944,14572,-48645
639.0,-22975,-41856,14698,-48486
641.0,-23047,-42077,14611,-48543
643.0,-22942,-42236,14460,-48635
645.0,-22799,-42058,14443,-48625
647.0,-22720,-41833,14500,-48617
649.0,-22693,-41911,14477,-48700
651.0,-22650,-42053,14372,-48809
653.0,-22505,-41893,14273,-48896
655.0,-22254,-41641,14207,-48975
657.0,-22075,-41682,14174,-49020
659.0,-22150,-41929,14219,-48967
661.0,-22448,-42110,14377,-48812
663.0,-22749,-42191,14569,-48643
665.0,-22855,-42187,14675,-48543
667.0,-22791,-42106,14695,-48502
669.0,-22793,-42108,14702,-48487
671.0,-22946,-42214,14665,-48555
673.0,-23001,-42150,14527,-48722
675.0,-22790,-41926,14406,-48837
677.0,-22532,-41930,14423,-48801
679.0,-22442,-42114,14485,-48737
681.0,-22430,-41972,14483,-48739
683.0,-22386,-41588,14480,-48741
685.0,-22356,-41585,14518,-48712
687.0,-22349,-41946,14525,-48707
689.0,-22353,-42105,14469,-48753
691.0,-22480,-42065,14398,-48839
693.0,-22755,-42207,14363,-48909
695.0,-22884,-42368,14353,-48905
697.0,-22573,-42230,14279,-48921
699.0,-22032,-41991,14145,-49027
701.0,-21840,-41820,14152,-49014
703.0,-22224,-41613,14324,-48803
705.0,-22760,-41613,14366,-48729
707.0,-22917,-42058,14250,-48885
709.0,-22713,-42411,14325,-48867
711.0,-22570,-42262,14550,-48618
713.0,-22636,-42155,14515,-48590
715.0,-22619,-42410,14286,-48830
717.0,-22424,-42477,14229,-48961
719.0,-22459,-42219,14264,-48965
721.0,-22897,-42185,14195,-49007
723.0,-23220,-42344,14225,-48946
725.0,-23028,-42211,14409,-48784
727.0,-22675,-41974,14398,-48848
729.0,-22584,-42050,14168,-49093
731.0,-22587,-42217,14096,-49133
733.03,-22412,-42203,14175,-49039
735.05,-22244,-42214,14089,-49153
737.08,-22344,-42288,13952,-49287
739.1,-22529,-42156,14076,-49102
741.1,-22465,-41941,14282,-48871
743.1,-22306,-42035,14227,-48966
745.1,-22527,-42357,14092,-49110
747.1,-23108,-42489,14201,-48944
749.1,-23452,-42363,14371,-48757
751.1,-23277,-42256,14292,-48904
753.1,-22977,-42317,14118,-49144
755.1,-22919,-42460,14109,-49163
757.1,-23004,-42574,14137,-49126
759.1,-23024,-42629,14041,-49211
761.1,-22920,-42626,13979,-49239
763.1,-22699,-42531,14052,-49125
765.1,-22462,-42316,14073,-49087
767.1,-22383,-42084,13963,-49193
769.1,-22435,-42029,13915,-49250
771.1,-22396,-42227,13985,-49201
773.1,-22281,-42515,14009,-49190
775.1,-22395,-42634,13944,-49240
777.1,-22795,-42497,13914,-49244
779.1,-23073,-42307,13940,-49197
781.1,-22909,-42308,13941,-49178
783.1,-22562,-42459,13918,-49186
785.1,-22534,-42569,13960,-49136
787.1,-22886,-42618,14100,-48994
789.1,-23181,-42619,14240,-48883
791.1,-23100,-42408,14232,-48955
793.1,-22831,-42023,14065,-49165
795.1,-22706,-41894,13897,-49333
797.1,-22747,-42218,13839,-49389
799.1,-22790,-42622,13861,-49367
801.1,-22778,-42747,13918,-49270
803.1,-22713,-42632,13995,-49145
805.1,-22595,-42446,14049,-49088
807.1,-22549,-42391,14075,-49083
809.1,-22714,-42689,14101,-49063
811.1,-22921,-43128,14080,-49101
813.1,-22769,-43074,13952,-49252
815.1,-22188,-42443,13818,-49368
817.1,-21737,-42013,13791,-49354
819.1,-21980,-42285,13770,-49362
821.1,-22597,-42749,13673,-49454
823.1,-22844,-42793,13714,-49380
825.1,-22862,-42582,14057,-49028
827.1,-23307,-42511,14384,-48755
829.1,-23762,-42510,14333,-48850
831.1,-23350,-42450,14086,-49085
833.1,-22627,-42529,14001,-49161
835.1,-22712,-42752,14037,-49146
837.1,-23168,-42726,14038,-49134
839.1,-23005,-42386,14060,-49067
841.1,-22629,-42236,14084,-49030
843.1,-22740,-42497,13977,-49145
845.1,-22850,-42746,13866,-49228
847.1,-22524,-42689,13953,-49119
849.1,-22346,-42577,14096,-49032
851.1,-22608,-42608,14072,-49147
853.1,-22729,-42620,13951,-49301
855.1,-22450,-42551,13886,-49340
857.1,-22193,-42518,13899,-49303
859.1,-22211,-42426,14002,-49208
861.1,-22403,-42146,14174,-49050
863.1,-22625,-41935,14298,-48895
865.1,-22621,-42015,14326,-48798
867.1,-22280,-42076,14325,-48765
869.1,-22144,-41863,14372,-48755
871.1,-22728,-41736,14518,-48674
873.1,-23472,-42023,14699,-48535
875.1,-23523,-42359,14703,-48550
877.1,-23140,-42258,14482,-48774
879.1,-23069,-41882,14316,-48923
881.1,-23163,-41711,14416,-48803
883.1,-22910,-41801,14608,-48606
885.1,-22567,-41879,14650,-48569
887.1,-22587,-41884,14578,-48640
889.1,-22703,-41894,14559,-48644
891.1,-22535,-41758,14588,-48593
893.1,-22337,-41404,14543,-48626
895.1,-22424,-41174,14470,-48689
897.1,-22501,-41227,14525,-48605
899.1,-22190,-41177,14636,-48452
901.1,-21780,-40934,14615,-48436
903.1,-21873,-41038,14564,-48455
905.1,-22449,-41551,14689,-48309
907.1,-22834,-41751,14803,-48204
909.1,-22655,-41464,14621,-48413
911.1,-22300,-41443,14339,-48732
913.1,-22238,-42003,14299,-48827
915.1,-22394,-42534,14387,-48781
917.1,-22457,-42609,14312,-48828
919.1,-22428,-42487,14154,-48910
921.1,-22576,-42435,14147,-48874
923.1,-22950,-42410,14230,-48792
925.1,-23169,-42384,14192,-48824
927.1,-22920,-42435,14026,-48960
929.1,-22523,-42592,13907,-49064
931.1,-22495,-42800,13922,-49071
933.1,-22730,-42931,13955,-49075
935.1,-22783,-42874,13866,-49198
937.1,-22713,-42684,13711,-49382
939.1,-22800,-42484,13651,-49452
941.1,-22842,-42269,13693,-49402
943.1,-22630,-42085,13739,-49353
945.1,-22581,-42201,13820,-49285
947.1,-23036,-42740,13975,-49132
949.1,-23463,-43358,14037,-49043
951.1,-23256,-43581,13893,-49160
953.1,-22762,-43351,13731,-49324
955.1,-22666,-43016,13720,-49353
957.1,-22901,-42905,13763,-49328
959.1,-22976,-43015,13771,-49341
961.1,-22838,-43095,13824,-49322
963.1,-22684,-42983,13914,-49261
965.1,-22539,-42810,13908,-49261
967.1,-22505,-42769,13783,-49340
969.1,-22676,-42815,13631,-49445
971.1,-22669,-42807,13477,-49585
973.1,-22221,-42823,13329,-49727
975.1,-21992,-43026,13313,-49744
977.1,-22603,-43351,13538,-49589
979.1,-23396,-43589,13848,-49438
981.1,-23427,-43665,13930,-49510
983.1,-22954,-43653,13775,-49762
985.1,-22746,-43643,13787,-49883
987.1,-22780,-43638,14232,-49663
989.1,-22631,-43528,14853,-49251
991.1,-22322,-43219,15307,-48867
993.1,-22032,-42729,15665,-48434
995.1,-21650,-42063,16114,-47783
997.1,-21111,-41226,16490,-47013
999.1,-20605,-40342,16565,-46300
1001.1,-20203,-39342,16525,-45519
1003.1,-19687,-37827,16698,-44461
1005.1,-18955,-35809,16993,-43290
1007.1,-18316,-34066,17112,-42335
1009.1,-18170,-33084,17060,-41601
1011.1,-18544,-32426,16983,-40962
1013.1,-19126,-31832,16724,-40661
1015.1,-19637,-31978,16016,-41121
1017.1,-19990,-33437,14864,-42396
1019.1,-20243,-35805,13413,-44237
1021.1,-20580,-38384,11735,-46467
1023.13,-21131,-40846,10029,-48892
1025.15,-21689,-42861,8754,-51002
1027.18,-21934,-43957,8327,-52194
1029.2,-21999,-44129,8718,-52351
1031.2,-22287,-43979,9491,-51949
1033.2,-22747,-43997,10295,-51441
1035.2,-22990,-44111,11118,-50873
1037.2,-22987,-44075,11940,-50280
1039.2,-22973,-43882,12560,-49905
1041.2,-22933,-43642,12957,-49760
1043.2,-22684,-43377,13278,-49609
1045.2,-22193,-43117,13424,-49515
1047.2,-21728,-42971,13307,-49636
1049.2,-21917,-42952,13285,-49678
1051.2,-23023,-42926,13583,-49398
1053.2,-24074,-42822,13805,-49169
1055.2,-23902,-42734,13708,-49283
1057.2,-22953,-42747,13649,-49426
1059.2,-22545,-42826,13809,-49370
1061.2,-22800,-42943,13906,-49323
1063.2,-22962,-43098,13857,-49376
1065.2,-22938,-43178,13843,-49388
1067.2,-23024,-43111,13842,-49368
1069.2,-23051,-43106,13773,-49378
1071.2,-22863,-43309,13741,-49369
1073.2,-22739,-43460,13748,-49376
1075.2,-22803,-43391,13662,-49476
1077.2,-22790,-43327,13579,-49534
1079.2,-22530,-43270,13682,-49420
1081.2,-22183,-42906,13860,-49266
1083.2,-22021,-42449,13920,-49201
1085.2,-22156,-42480,13903,-49165
1087.2,-22434,-42846,13883,-49151
1089.2,-22685,-42929,13828,-49219
1091.2,-22940,-42807,13808,-49254
1093.2,-23159,-42985,13919,-49143
1095.2,-23121,-43348,14013,-49051
1097.2,-22911,-43419,13932,-49129
1099.2,-22938,-43184,13856,-49198
1101.2,-23210,-42946,13984,-49100
1103.2,-23260,-42846,14153,-49005
1105.2,-22961,-42868,14136,-49065
1107.2,-22653,-42958,14004,-49164
1109.2,-22498,-43039,13914,-49190
1111.2,-22389,-43101,13871,-49200
1113.2,-22368,-43168,13835,-49235
1115.2,-22490,-43162,13824,-49259
1117.2,-22511,-42984,13857,-49241
1119.2,-22248,-42691,13951,-49172
1121.2,-21993,-42492,14087,-49082
1123.2,-22163,-42584,14180,-49039
1125.2,-22688,-42892,14186,-49046
1127.2,-23004,-43000,14151,-49063
1129.2,-22714,-42684,14084,-49131
1131.2,-22104,-42380,13975,-49259
1133.2,-21809,-42540,13897,-49338
1135.2,-21998,-42872,13886,-49324
1137.2,-22321,-42881,13911,-49261
1139.2,-22549,-42696,14048,-49083
1141.2,-22723,-42649,14344,-48789
1143.2,-22845,-42668,14582,-48603
1145.2,-22965,-42626,14599,-48598
1147.2,-23222,-42612,14563,-48574
1149.2,-23448,-42631,14562,-48553
1151.2,-23318,-42641,14449,-48724
1153.2,-22993,-42718,14297,-48898
1155.2,-22859,-42769,14381,-48765
1157.2,-22813,-42585,14634,-48499
1159.2,-22584,-42342,14774,-48404
1161.2,-22325,-42309,14781,-48383
1163.2,-22278,-42283,14796,-48288
1165.2,-22390,-42063,14819,-48221
1167.2,-22491,-41905,14791,-48253
1169.2,-22402,-41962,14691,-48341
1171.2,-22109,-42030,14574,-48438
1173.2,-21993,-42093,14641,-48392
1175.2,-22274,-42290,14951,-48133
1177.2,-22476,-42470,15175,-47947
1179.2,-22312,-42479,15105,-48022
1181.2,-22282,-42405,15083,-48030
1183.2,-22596,-42202,15360,-47751
1185.2,-22701,-41801,15611,-47511
1187.2,-22443,-41565,15565,-47550
1189.2,-22276,-41747,15469,-47616
1191.2,-22219,-41912,15561,-47512
1193.2,-21958,-41656,15717,-47375
1195.2,-21666,-41234,15830,-47289
1197.2,-21674,-40966,15987,-47146
1199.2,-21897,-40834,16197,-46937
1201.2,-22096,-40827,16334,-46777
1203.2,-22128,-40862,16377,-46698
1205.2,-21936,-40675,16433,-46633
1207.2,-21732,-40379,16547,-46541
1209.2,-21769,-40359,16664,-46434
1211.2,-21835,-40385,16737,-46341
1213.2,-21613,-40013,16797,-46254
1215.2,-21352,-39647,16906,-46130
1217.2,-21407,-39835,17059,-45964
1219.2,-21514,-40096,17190,-45812
1221.2,-21286,-39830,17275,-45696
1223.2,-20942,-39440,17343,-45585
1225.2,-20828,-39398,17404,-45488
1227.2,-20797,-39402,17457,-45437
1229.2,-20705,-39260,17519,-45406
1231.2,-20801,-39298,17547,-45386
1233.2,-21033,-39453,17479,-45421
1235.2,-20909,-39263,17405,-45459
1237.2,-20527,-38831,17464,-45385
1239.2,-20609,-38670,17608,-45236
1241.2,-21158,-38824,17699,-45133
1243.2,-21384,-38962,17718,-45090
1245.2,-21137,-38949,17679,-45093
1247.2,-21057,-38876,17559,-45164
1249.2,-21253,-38871,17437,-45236
1251.2,-21188,-38992,17408,-45226
1253.2,-20884,-39136,17369,-45231
1255.2,-20945,-39220,17217,-45361
1257.2,-21376,-39321,17092,-45502
1259.2,-21556,-39443,17091,-45571
1261.2,-21368,-39464,17001,-45732
1263.2,-21216,-39434,16687,-46078
1265.2,-21125,-39469,16413,-46373
1267.2,-20946,-39489,16430,-46386
1269.2,-21034,-39493,16576,-46252
1271.2,-21586,-39704,16537,-46284
1273.2,-22018,-40103,16288,-46563
1275.2,-21924,-40359,16045,-46883
1277.2,-21756,-40404,15926,-47056
1279.2,-21897,-40518,15861,-47144
1281.2,-22090,-40793,15770,-47282
1283.2,-22122,-41021,15666,-47450
1285.2,-22131,-41092,15558,-47568
1287.2,-22159,-41109,15411,-47662
1289.2,-22152,-41171,15249,-47774
1291.2,-22224,-41283,15129,-47884
1293.2,-22432,-41428,15029,-47988
1295.2,-22523,-41536,14919,-48086
1297.2,-22242,-41479,14847,-48160
1299.2,-21784,-41324,14801,-48260
1301.2,-21664,-41399,14692,-48427
1303.23,-22037,-41777,14579,-48537
1305.25,-22456,-42014,14613,-48483
1307.28,-22613,-41872,14749,-48374
1309.3,-22852,-41787,14841,-48309
1311.3,-23354,-42038,14869,-48240
1313.3,-23517,-42199,14821,-48234
1315.3,-22965,-42025,14630,-48426
1317.3,-22387,-41976,14407,-48666
1319.3,-22446,-42270,14375,-48706
1321.3,-22753,-42443,14500,-48614
1323.3,-22741,-42284,14579,-48568
1325.3,-22564,-42178,14571,-48549
1327.3,-22526,-42266,14506,-48568
1329.3,-22569,-42260,14360,-48716
1331.3,-22607,-42083,14245,-48852
1333.3,-22624,-41961,14319,-48769
1335.3,-22584,-42031,14470,-48608
1337.3,-22604,-42286,14485,-48601
1339.3,-22729,-42538,14391,-48685
1341.3,-22660,-42424,14308,-48749
1343.3,-22366,-41966,14267,-48810
1345.3,-22384,-41757,14326,-48788
1347.3,-22837,-42022,14495,-48631
1349.3,-23117,-42235,14583,-48549
1351.3,-22960,-42146,14509,-48651
1353.3,-22790,-42172,14494,-48691
1355.3,-22878,-42436,14609,-48578
1357.3,-23062,-42481,14611,-48574
1359.3,-23117,-42202,14472,-48699
1361.3,-22948,-42044,14457,-48697
1363.3,-22707,-42194,14536,-48638
1365.3,-22657,-42358,14434,-48782
1367.3,-22691,-42310,14262,-48946
1369.3,-22483,-42130,14328,-48836
1371.3,-22215,-41992,14510,-48657
1373.3,-22368,-42018,14522,-48683
1375.3,-22847,-42209,14447,-48754
1377.3,-23048,-42370,14440,-48731
1379.3,-22724,-42285,14412,-48761
1381.3,-22294,-42037,14375,-48809
1383.3,-22293,-41926,14497,-48680
1385.3,-22734,-42026,14676,-48509
1387.3,-23107,-42086,14674,-48555
1389.3,-23030,-41979,14552,-48716
1391.3,-22693,-41960,14485,-48784
1393.3,-22506,-42204,14451,-48812
1395.3,-22557,-42457,14410,-48883
1397.3,-22667,-42531,14403,-48952
1399.3,-22739,-42581,14369,-49013
1401.3,-22714,-42502,14281,-49061
1403.3,-22474,-41929,14294,-48993
1405.3,-22147,-41300,14430,-48849
1407.3,-22082,-41587,14446,-48854
1409.3,-22197,-42523,14246,-49051
1411.3,-22073,-42798,14032,-49233
1413.3,-21882,-42256,13985,-49235
1415.3,-22187,-42023,14114,-49055
1417.3,-22863,-42424,14338,-48797
1419.3,-23352,-42709,14510,-48638
1421.3,-23599,-42616,14531,-48649
1423.3,-23680,-42537,14475,-48719
1425.3,-23370,-42544,14405,-48788
1427.3,-22847,-42462,14268,-48936
1429.3,-22689,-42393,14107,-49120
1431.3,-22883,-42481,14075,-49173
1433.3,-22990,-42642,14135,-49134
1435.3,-22991,-42695,14114,-49177
1437.3,-22968,-42480,14049,-49261
1439.3,-22754,-42077,14112,-49207
1441.3,-22505,-41927,14254,-49056
1443.3,-22559,-42255,14292,-48999
1445.3,-22629,-42614,14228,-49047
1447.3,-22327,-42577,14169,-49096
1449.3,-22077,-42449,14090,-49170
1451.3,-22361,-42659,13976,-49288
1453.3,-22806,-42987,13972,-49307
1455.3,-22931,-43003,14122,-49168
1457.3,-22895,-42771,14207,-49084
1459.3,-22925,-42599,14078,-49210
1461.3,-22919,-42551,13913,-49371
1463.3,-22903,-42580,13937,-49340
1465.3,-22994,-42710,14096,-49192
1467.3,-23009,-42811,14157,-49155
1469.3,-22817,-42714,14052,-49250
1471.3,-22737,-42603,13947,-49309
1473.3,-22930,-42692,13953,-49295
1475.3,-22979,-42726,13950,-49359
1477.3,-22640,-42516,13861,-49502
1479.3,-22314,-42470,13835,-49540
1481.3,-22344,-42843,13941,-49453
1483.3,-22555,-43158,13978,-49442
1485.3,-22752,-43064,13850,-49538
1487.3,-22980,-42909,13760,-49547
1489.3,-23151,-42942,13834,-49424
1491.3,-23051,-42877,13897,-49363
1493.3,-22805,-42635,13800,-49467
1495.3,-22811,-42623,13712,-49554
1497.3,-23123,-42915,13872,-49399
1499.3,-23347,-43044,14171,-49123
1501.3,-23316,-42937,14212,-49117
1503.3,-23302,-43060,13916,-49430
1505.3,-23307,-43307,13730,-49609
1507.3,-22926,-42999,13904,-49436
1509.3,-22289,-42293,14054,-49300
1511.3,-22117,-42142,13887,-49465
1513.3,-22516,-42651,13704,-49630
1515.3,-22838,-43016,13763,-49571
1517.3,-22864,-43000,13852,-49480
1519.3,-22916,-43015,13841,-49461
1521.3,-22978,-43072,13876,-49407
1523.3,-22828,-42914,13938,-49369
1525.3,-22686,-42734,13900,-49429
1527.3,-22825,-42838,13855,-49467
1529.3,-23024,-43043,13869,-49460
1531.3,-23010,-42994,13797,-49565
1533.3,-22908,-42785,13665,-49711
1535.3,-22913,-42798,13661,-49692
1537.3,-22922,-42981,13698,-49629
1539.3,-22721,-42857,13617,-49700
1541.3,-22374,-42448,13595,-49721
1543.3,-22294,-42416,13764,-49562
1545.3,-22677,-42900,13852,-49490
1547.3,-23062,-43229,13721,-49626
1549.3,-22996,-43109,13684,-49671
1551.3,-22811,-42994,13872,-49496
1553.3,-22905,-43091,13968,-49395
1555.3,-22951,-43154,13815,-49538
1557.3,-22769,-43192,13644,-49719
1559.3,-22834,-43353,13608,-49756
1561.3,-23052,-43364,13620,-49709
1563.3,-22727,-42969,13626,-49687
1565.3,-22289,-42560,13677,-49671
1567.3,-22781,-42597,13814,-49556
1569.3,-23604,-42843,14008,-49354
1571.3,-23432,-42856,14108,-49266
1573.3,-22743,-42763,13974,-49424
1575.3,-22757,-42887,13738,-49654
1577.3,-23094,-43096,13651,-49742
1579.3,-22914,-43126,13713,-49723
1581.3,-22639,-43049,13808,-49659
1583.33,-22774,-42977,13986,-49457
1585.35,-22951,-42838,14245,-49142
1587.38,-22980,-42633,14392,-48935
1589.4,-23043,-42446,14365,-48930
1591.4,-22946,-42274,14312,-49004
1593.4,-22620,-42145,14285,-49049
1595.4,-22558,-42125,14253,-49035
1597.4,-22827,-42170,14269,-48980
1599.4,-22852,-42268,14305,-48989
1601.4,-22570,-42451,14229,-49115
1603.4,-22517,-42490,14122,-49214
1605.4,-22790,-42217,14184,-49170
1607.4,-23015,-42028,14351,-49069
1609.4,-23101,-42278,14448,-48979
1611.4,-23182,-42605,14488,-48878
1613.4,-23161,-42573,14500,-48850
1615.4,-22925,-42340,14434,-48951
1617.4,-22668,-42177,14372,-49023
1619.4,-22604,-42073,14395,-49004
1621.4,-22616,-42019,14362,-49050
1623.4,-22473,-41987,14233,-49147
1625.4,-22208,-41832,14210,-49110
1627.4,-22112,-41651,14320,-49000
1629.4,-22370,-41744,14385,-48973
1631.4,-22744,-41998,14437,-48916
1633.4,-22811,-42021,14580,-48749
1635.4,-22548,-41868,14650,-48680
1637.4,-22361,-41908,14495,-48819
1639.4,-22461,-42133,14261,-49028
1641.4,-22639,-42273,14087,-49238
1643.4,-22676,-42326,13969,-49426
1645.4,-22603,-42441,13950,-49463
1647.4,-22540,-42586,14022,-49366
1649.4,-22547,-42712,13989,-49373
1651.4,-22598,-42901,13771,-49549
1653.4,-22594,-43153,13554,-49714
1655.4,-22441,-43294,13466,-49788
1657.4,-22220,-43224,13461,-49817
1659.4,-22284,-43062,13530,-49770
1661.4,-22893,-43027,13674,-49649
1663.4,-23606,-43182,13767,-49586
1665.4,-23618,-43331,13715,-49643
1667.4,-22962,-43260,13633,-49699
1669.4,-22577,-43084,13661,-49652
1671.4,-22894,-43095,13752,-49564
1673.4,-23266,-43277,13751,-49578
1675.4,-23121,-43325,13621,-49735
1677.4,-22777,-43206,13499,-49891
1679.4,-22802,-43263,13514,-49893
1681.4,-23146,-43597,13615,-49803
1683.4,-23279,-43808,13672,-49789
1685.4,-22983,-43616,13673,-49861
1687.4,-22625,-43281,13669,-49922
1689.4,-22560,-43168,13639,-49951
1691.4,-22731,-43303,13572,-49964
1693.4,-22969,-43509,13545,-49921
1695.4,-23151,-43599,13576,-49856
1697.4,-23058,-43437,13567,-49876
1699.4,-22731,-43126,13499,-49970
1701.4,-22695,-43073,13462,-50032
1703.4,-23122,-43556,13479,-50053
1705.4,-23330,-44277,13501,-50089
1707.4,-22846,-44637,13557,-50124
1709.4,-22259,-44496,13745,-50089
1711.4,-22300,-44273,14126,-49925
1713.4,-22757,-44174,14662,-49620
1715.4,-22925,-43887,15181,-49264
1717.4,-22541,-43261,15567,-48891
1719.4,-21850,-42585,15941,-48347
1721.4,-21164,-41977,16368,-47587
1723.4,-20626,-41160,16601,-46837
1725.4,-20218,-39962,16582,-46124
1727.4,-19904,-38514,16680,-45162
1729.4,-19641,-36996,16989,-43989
1731.4,-19246,-35514,17142,-42986
1733.4,-18689,-34142,17089,-42200
1735.4,-18539,-33055,17068,-41517
1737.4,-19258,-32654,16840,-41305
1739.4,-20152,-33271,16016,-41955
1741.4,-20279,-34727,14823,-43231
1743.4,-20125,-36543,13617,-44796
1745.4,-20817,-38493,12271,-46703
1747.4,-22076,-40553,10728,-48889
1749.4,-22652,-42465,9429,-50874
1751.4,-22337,-43818,8773,-52208
1753.4,-22029,-44525,8772,-52753
1755.4,-22237,-44871,9244,-52652
1757.4,-22678,-45066,9910,-52275
1759.4,-22978,-45013,10522,-51930
1761.4,-23052,-44630,11079,-51592
1763.4,-22990,-44154,11685,-51151
1765.4,-22908,-43934,12263,-50701
1767.4,-22817,-43986,12702,-50361
1769.4,-22629,-43922,13025,-50129
1771.4,-22401,-43488,13232,-50028
1773.4,-22397,-43068,13267,-50092
1775.4,-22699,-43215,13219,-50206
1777.4,-22944,-43732,13240,-50230
1779.4,-22806,-43927,13305,-50190
1781.4,-22514,-43718,13311,-50167
1783.4,-22466,-43610,13312,-50136
1785.4,-22676,-43726,13391,-50057
1787.4,-22993,-43775,13498,-49961
1789.4,-23299,-43677,13565,-49887
1791.4,-23283,-43522,13587,-49884
1793.4,-22822,-43341,13534,-50002
1795.4,-22484,-43313,13410,-50173
1797.4,-22698,-43583,13318,-50254
1799.4,-22991,-43848,13338,-50205
1801.4,-22973,-43788,13452,-50056
1803.4,-23001,-43614,13611,-49840
1805.4,-23129,-43591,13705,-49704
1807.4,-22896,-43599,13607,-49804
1809.4,-22538,-43586,13429,-50002
1811.4,-22728,-43708,13430,-50011
1813.4,-23133,-43843,13595,-49847
1815.4,-22991,-43744,13649,-49772
1817.4,-22613,-43591,13494,-49885
1819.4,-22705,-43663,13344,-50009
1821.4,-22992,-43772,13399,-49955
1823.4,-22902,-43651,13575,-49804
1825.4,-22645,-43452,13641,-49787
1827.4,-22623,-43425,13577,-49890
1829.4,-22674,-43531,13587,-49875
1831.4,-22569,-43625,13692,-49767
1833.4,-22445,-43628,13701,-49805
1835.4,-22432,-43496,13620,-49930
1837.4,-22462,-43314,13616,-49927
1839.4,-22533,-43269,13641,-49886
1841.4,-22700,-43354,13598,-49934
1843.4,-22872,-43396,13612,-49918
1845.4,-22918,-43375,13741,-49777
1847.4,-22865,-43369,13811,-49714
1849.4,-22796,-43318,13743,-49799
1851.4,-22669,-43199,13641,-49907
1853.4,-22514,-43190,13588,-49961
1855.4,-22575,-43370,13640,-49914
1857.4,-22854,-43575,13786,-49769
1859.4,-22859,-43647,13832,-49719
1861.4,-22419,-43551,13681,-49853
1863.43,-22143,-43291,13586,-49917
1865.45,-22357,-42992,13744,-49730
1867.48,-22525,-42908,13984,-49473
1869.5,-22400,-43105,14128,-49320
1871.5,-22469,-43318,14178,-49276
1873.5,-22702,-43254,14094,-49383
1875.5,-22442,-42911,13912,-49562
1877.5,-21889,-42571,13926,-49510
1879.5,-21989,-42535,14177,-49259
1881.5,-22683,-42836,14221,-49290
1883.5,-22942,-43177,13923,-49647
1885.5,-22499,-43235,13799,-49749
1887.5,-22135,-43045,14104,-49407
1889.5,-22356,-42918,14433,-49076
1891.5,-22846,-42979,14522,-48973
1893.5,-23054,-43019,14536,-48912
1895.5,-22760,-42885,14516,-48906
1897.5,-22289,-42761,14378,-49050
1899.5,-22178,-42812,14280,-49144
1901.5,-22407,-42852,14383,-49020
1903.5,-22499,-42709,14588,-48805
1905.5,-22397,-42622,14779,-48635
1907.5,-22328,-42748,14896,-48565
1909.5,-22129,-42727,14873,-48618
1911.5,-21789,-42343,14817,-48636
1913.5,-21875,-42073,14922,-48453
1915.5,-22440,-42267,15113,-48230
1917.5,-22700,-42489,15210,-48160
1919.5,-22359,-42284,15268,-48119
1921.5,-21909,-41835,15363,-48007
1923.5,-21599,-41493,15436,-47937
1925.5,-21401,-41351,15527,-47894
1927.5,-21453,-41375,15689,-47767
1929.5,-21624,-41418,15767,-47638
1931.5,-21501,-41269,15703,-47583
1933.5,-21186,-41006,15749,-47444
1935.5,-21126,-40935,15994,-47181
1937.5,-21291,-41078,16176,-47007
1939.5,-21305,-41074,16219,-46956
1941.5,-21050,-40708,16338,-46840
1943.5,-20686,-40286,16503,-46698
1945.5,-20406,-40208,16477,-46721
1947.5,-20312,-40312,16384,-46770
1949.5,-20445,-40190,16512,-46609
1951.5,-20838,-40015,16714,-46405
1953.5,-21270,-40116,16727,-46390
1955.5,-21220,-40079,16724,-46381
1957.5,-20669,-39494,16875,-46231
1959.5,-20335,-38996,16934,-46180
1961.5,-20477,-39247,16771,-46322
1963.5,-20568,-39765,16682,-46356
1965.5,-20547,-39890,16827,-46150
1967.5,-20871,-39798,17003,-45948
1969.5,-21261,-39745,17048,-45932
1971.5,-21041,-39535,16964,-46073
1973.5,-20475,-39221,16765,-46306
1975.5,-20348,-39221,16563,-46502
1977.5,-20728,-39544,16553,-46478
1979.5,-21133,-39801,16711,-46277
1981.5,-21312,-39881,16794,-46171
1983.5,-21365,-39963,16703,-46270
1985.5,-21471,-40097,16560,-46426
1987.5,-21640,-40228,16433,-46559
1989.5,-21659,-40406,16258,-46758
1991.5,-21481,-40680,16045,-47018
1993.5,-21411,-40946,15893,-47211
1995.5,-21597,-41049,15815,-47331
1997.5,-21798,-40987,15735,-47476
1999.5,-21887,-40948,15631,-47652
2001.5,-21975,-41090,15524,-47819
2003.5,-22032,-41307,15400,-47998
2005.5,-22007,-41420,15251,-48183
2007.5,-22088,-41505,15089,-48328
2009.5,-22286,-41704,14936,-48438
2011.5,-22305,-41921,14842,-48542
2013.5,-22184,-42066,14805,-48653
2015.5,-22255,-42221,14702,-48829
2017.5,-22351,-42300,14523,-49032
2019.5,-22129,-42148,14463,-49083
2021.5,-21980,-42025,14551,-48984
2023.5,-22355,-42184,14537,-48992
2025.5,-22738,-42262,14362,-49167
2027.5,-22573,-42058,14248,-49282
2029.5,-22341,-42172,14236,-49288
2031.5,-22532,-42825,14174,-49325
2033.5,-22694,-43193,14116,-49349
2035.5,-22448,-42886,14170,-49279
2037.5,-22240,-42681,14201,-49272
2039.5,-22502,-43029,14113,-49407
2041.5,-22986,-43381,14047,-49508
2043.5,-23142,-43334,14020,-49553
2045.5,-22726,-43080,13912,-49685
2047.5,-22169,-42820,13850,-49768
2049.5,-22170,-42712,14005,-49615
2051.5,-22654,-42924,14157,-49471
2053.5,-22852,-43219,14044,-49618
2055.5,-22561,-43192,13867,-49830
2057.5,-22275,-42952,13902,-49822
2059.5,-22225,-42852,14013,-49753
2061.5,-22304,-42886,13981,-49810
2063.5,-22464,-42902,13890,-49849
2065.5,-22534,-42906,13884,-49765
2067.5,-22355,-42900,13922,-49687
2069.5,-22256,-42877,13973,-49628
2071.5,-22558,-42918,14107,-49454
2073.5,-22916,-43004,14276,-49261
2075.5,-22894,-43037,14272,-49319
2077.5,-22620,-43063,14041,-49620
2079.5,-22390,-43072,13815,-49842
2081.5,-22320,-42881,13824,-49784
2083.5,-22500,-42578,14020,-49562
2085.5,-22878,-42570,14205,-49359
2087.5,-23152,-42868,14295,-49249
2089.5,-23129,-43017,14304,-49253
2091.5,-22932,-42881,14224,-49358
2093.5,-22747,-42797,14100,-49466
2095.5,-22685,-42916,14049,-49493
2097.5,-22746,-43065,14073,-49503
2099.5,-22755,-43139,14051,-49579
2101.5,-22616,-43127,13994,-49647
2103.5,-22525,-43007,14020,-49630
2105.5,-22630,-42892,14068,-49642
2107.5,-22818,-42903,13992,-49779
2109.5,-22993,-42890,13892,-49875
2111.5,-23118,-42763,13954,-49771
2113.5,-23080,-42801,14106,-49603
2115.5,-22950,-43106,14175,-49557
2117.5,-22964,-43240,14160,-49602
2119.5,-22997,-42977,14116,-49664
2121.5,-22756,-42763,14025,-49748
2123.5,-22465,-42898,13927,-49816
2125.5,-22542,-43021,13877,-49823
2127.5,-22824,-42845,13830,-49836
2129.5,-22882,-42676,13785,-49883
2131.5,-22731,-42853,13814,-49884
2133.5,-22684,-43240,13851,-49862
2135.5,-22833,-43513,13785,-49900
2137.5,-22976,-43543,13725,-49931
2139.5,-22873,-43410,13787,-49873
2141.5,-22572,-43231,13852,-49819
2143.53,-22448,-43093,13820,-49849
2145.55,-22652,-43056,13788,-49901
2147.58,-22789,-43108,13796,-49934
2149.6,-22608,-43107,13777,-49956
2151.6,-22487,-43026,13748,-49960
2153.6,-22674,-43086,13722,-50004
2155.6,-22738,-43343,13637,-50156
2157.6,-22384,-43481,13531,-50309
2159.6,-22034,-43352,13506,-50329
2161.6,-22100,-43240,13523,-50270
2163.6,-22446,-43341,13524,-50203
2165.6,-22814,-43518,13555,-50103
2167.6,-23066,-43616,13608,-50003
2169.6,-23037,-43551,13613,-49969
2171.6,-22693,-43263,13603,-49972
2173.6,-22318,-42893,13616,-49991
2175.6,-22262,-42713,13582,-50064
2177.6,-22628,-42779,13495,-50150
2179.6,-23123,-42964,13448,-50172
2181.6,-23231,-43247,13475,-50137
2183.6,-22890,-43595,13567,-50043
2185.6,-22717,-43750,13715,-49903
2187.6,-23000,-43550,13795,-49876
2189.6,-23142,-43265,13698,-50063
2191.6,-22779,-43234,13546,-50279
2193.6,-22468,-43387,13494,-50333
2195.6,-22614,-43510,13479,-50309
2197.6,-22821,-43592,13414,-50322
2199.6,-22746,-43591,13360,-50328
2201.6,-22595,-43386,13361,-50298
2203.6,-22562,-43146,13405,-50250
2205.6,-22601,-43156,13511,-50156
2207.6,-22680,-43339,13602,-50082
2209.6,-22797,-43507,13529,-50183
2211.6,-22911,-43665,13375,-50377
2213.6,-23021,-43725,13359,-50408
2215.6,-23105,-43586,13448,-50288
2217.6,-23099,-43502,13469,-50214
2219.6,-23039,-43624,13457,-50178
2221.6,-22977,-43615,13500,-50106
2223.6,-22866,-43374,13505,-50095
2225.6,-22749,-43326,13421,-50184
2227.6,-22758,-43527,13363,-50241
2229.6,-22805,-43529,13355,-50248
2231.6,-22728,-43340,13326,-50292
2233.6,-22683,-43408,13316,-50304
2235.6,-22869,-43711,13397,-50188
2237.6,-23076,-43850,13491,-50071
2239.6,-23046,-43784,13491,-50109
2241.6,-22941,-43693,13409,-50243
2243.6,-22969,-43564,13319,-50341
2245.6,-22980,-43457,13262,-50387
2247.6,-22849,-43597,13252,-50405
2249.6,-22811,-43871,13315,-50349
2251.6,-23035,-43944,13447,-50207
2253.6,-23272,-43871,13531,-50138
2255.6,-23200,-43841,13415,-50301
2257.6,-22876,-43697,13166,-50556
2259.6,-22669,-43430,13069,-50608
2261.6,-22759,-43404,13206,-50452
2263.6,-22814,-43544,13325,-50360
2265.6,-22485,-43403,13285,-50406
2267.6,-22161,-43203,13266,-50406
2269.6,-22436,-43460,13366,-50322
2271.6,-22950,-43772,13446,-50279
2273.6,-22926,-43486,13447,-50283
2275.6,-22583,-43036,13433,-50279
2277.6,-22643,-43153,13405,-50313
2279.6,-23021,-43543,13421,-50332
2281.6,-23274,-43593,13610,-50202
2283.6,-23397,-43420,13850,-50024
2285.6,-23291,-43307,13891,-49995
2287.6,-22740,-43127,13805,-50038
2289.6,-22246,-42901,13770,-50044
2291.6,-22427,-42951,13697,-50122
2293.6,-22863,-43262,13560,-50250
2295.6,-22855,-43476,13557,-50241
2297.6,-22542,-43444,13643,-50183
2299.6,-22311,-43243,13611,-50247
2301.6,-22216,-42979,13607,-50242
2303.6,-22381,-42798,13806,-50039
2305.6,-22799,-42746,13958,-49897
2307.6,-22949,-42650,13941,-49867
2309.6,-22635,-42479,14029,-49683
2311.6,-22471,-42478,14193,-49479
2313.6,-22747,-42700,14093,-49626
2315.6,-22934,-42827,13867,-49919
2317.6,-22796,-42646,13928,-49896
2319.6,-22718,-42354,14145,-49679
2321.6,-22768,-42261,14131,-49673
2323.6,-22665,-42391,13955,-49845
2325.6,-22498,-42497,13927,-49892
2327.6,-22469,-42430,14069,-49755
2329.6,-22434,-42327,14155,-49662
2331.6,-22347,-42324,14024,-49805
2333.6,-22386,-42354,13755,-50081
2335.6,-22418,-42424,13583,-50217
2337.6,-22291,-42737,13580,-50184
2339.6,-22369,-43292,13590,-50185
2341.6,-22783,-43653,13562,-50236
2343.6,-22950,-43461,13606,-50198
2345.6,-22688,-43019,13683,-50133
2347.6,-22629,-42997,13635,-50208
2349.6,-22915,-43505,13446,-50416
2351.6,-22930,-43968,13197,-50667
2353.6,-22625,-44054,12977,-50870
2355.6,-22624,-44069,12931,-50884
2357.6,-22977,-44179,13080,-50708
2359.6,-23105,-44051,13195,-50580
2361.6,-22823,-43614,13137,-50616
2363.6,-22533,-43374,13065,-50653
2365.6,-22592,-43620,13087,-50627
2367.6,-22919,-43978,13068,-50665
2369.6,-23121,-44048,12978,-50733
2371.6,-22992,-43954,13002,-50657
2373.6,-22755,-43967,13140,-50519
2375.6,-22666,-44047,13147,-50565
2377.6,-22721,-44043,13007,-50730
2379.6,-22857,-43979,12985,-50747
2381.6,-22958,-43906,13088,-50675
2383.6,-22837,-43811,13033,-50776
2385.6,-22638,-43795,12842,-50964
2387.6,-22667,-43927,12828,-50944
2389.6,-22701,-43971,12988,-50771
2391.6,-22459,-43763,13054,-50710
2393.6,-22440,-43630,13026,-50762
2395.6,-23022,-43917,13061,-50791
2397.6,-23526,-44362,13082,-50844
2399.6,-23360,-44498,12997,-50971
2401.6,-22974,-44415,12944,-51055
2403.6,-22824,-44568,12991,-51072
2405.6,-22676,-44955,13006,-51166
2407.6,-22416,-45069,13031,-51299
2409.6,-22341,-44738,13344,-51188
2411.6,-22542,-44406,14000,-50728
2413.63,-22799,-44275,14710,-50147
2415.65,-22855,-43918,15288,-49590
2417.68,-22514,-43137,15822,-48936
2419.7,-21879,-42339,16294,-48176
2421.7,-21360,-41653,16488,-47505
2423.7,-21054,-40621,16439,-46876
2425.7,-20617,-39090,16486,-45979
2427.7,-20014,-37571,16700,-44837
2429.7,-19630,-36446,16797,-43825
2431.7,-19559,-35504,16741,-43022
2433.7,-19589,-34433,16776,-42241
2435.7,-19748,-33448,16743,-41743
2437.7,-20125,-33330,16116,-42156
2439.7,-20538,-34719,14789,-43620
2441.7,-20903,-37240,13199,-45630
2443.7,-21353,-39694,11680,-47711
2445.7,-21821,-41367,10268,-49738
2447.7,-22116,-42633,9066,-51608
2449.7,-22362,-43938,8340,-53016
2451.7,-22741,-44965,8233,-53699
2453.7,-23054,-45343,8591,-53740
2455.7,-22958,-45326,9117,-53492
2457.7,-22485,-45213,9639,-53193
2459.7,-22091,-44954,10160,-52860
2461.7,-22165,-44690,10700,-52484
2463.7,-22545,-44742,11266,-52081
2465.7,-22730,-44922,11847,-51650
2467.7,-22582,-44789,12292,-51311
2469.7,-22427,-44449,12428,-51233
2471.7,-22511,-44283,12388,-51312
2473.7,-22804,-44277,12448,-51301
2475.7,-23132,-44259,12589,-51203
2477.7,-23210,-44263,12636,-51167
2479.7,-22908,-44274,12643,-51161
2481.7,-22540,-44192,12713,-51117
2483.7,-22434,-44136,12753,-51105
2485.7,-22493,-44247,12724,-51132
2487.7,-22612,-44343,12772,-51076
2489.7,-22881,-44219,12921,-50936
2491.7,-23042,-44044,13001,-50859
2493.7,-22736,-44089,12939,-50902
2495.7,-22385,-44339,12869,-50968
2497.7,-22622,-44547,12901,-50962
2499.7,-23041,-44492,12951,-50927
2501.7,-22892,-44235,12881,-50976
2503.7,-22556,-44116,12778,-51059
2505.7,-22809,-44290,12861,-50979
2507.7,-23303,-44420,13087,-50753
2509.7,-23240,-44233,13200,-50612
2511.7,-22784,-43989,13172,-50610
2513.7,-22608,-43954,13159,-50620
2515.7,-22761,-43973,13116,-50677
2517.7,-22859,-43977,12935,-50860
2519.7,-22770,-44144,12786,-50991
2521.7,-22652,-44337,12893,-50862
2523.7,-22702,-44263,13163,-50596
2525.7,-22917,-44097,13307,-50492
2527.7,-23015,-44122,13209,-50637
2529.7,-22849,-44170,13045,-50831
2531.7,-22649,-44095,13025,-50884
2533.7,-22501,-44059,13085,-50871
2535.7,-22275,-44045,13010,-50966
2537.7,-22189,-43945,12856,-51104
2539.7,-22471,-43955,12888,-51068
2541.7,-22695,-44103,13117,-50854
2543.7,-22557,-44026,13276,-50687
2545.7,-22541,-43779,13249,-50678
2547.7,-22846,-43847,13183,-50709
2549.7,-22941,-44129,13201,-50662
2551.7,-22780,-44091,13257,-50580
2553.7,-22900,-43815,13297,-50549
2555.7,-23224,-43779,13367,-50534
2557.7,-23281,-43968,13482,-50477
2559.7,-23175,-44048,13537,-50433
2561.7,-23164,-43962,13493,-50453
2563.7,-23028,-43825,13452,-50470
2565.7,-22664,-43707,13456,-50455
2567.7,-22504,-43687,13451,-50441
2569.7,-22824,-43772,13455,-50401
2571.7,-23200,-43827,13504,-50318
2573.7,-23072,-43796,13542,-50273
2575.7,-22614,-43780,13544,-50304
2577.7,-22473,-43795,13544,-50352
2579.7,-22678,-43756,13529,-50373
2581.7,-22676,-43675,13515,-50334
2583.7,-22479,-43594,13573,-50229
2585.7,-22574,-43456,13678,-50126
2587.7,-22792,-43288,13769,-50053
2589.7,-22579,-43228,13846,-49992
2591.7,-22099,-43213,13834,-50044
2593.7,-21913,-43105,13694,-50234
2595.7,-22043,-43096,13665,-50284
2597.7,-22237,-43386,13905,-50044
2599.7,-22505,-43653,14156,-49799
2601.7,-22778,-43506,14198,-49757
2603.7,-22692,-43150,14167,-49768
2605.7,-22192,-42989,14184,-49724
2607.7,-21816,-43017,14234,-49655
2609.7,-21935,-43054,14352,-49527
2611.7,-22161,-43059,14489,-49377
2613.7,-22034,-42945,14519,-49311
2615.7,-21796,-42617,14564,-49208
2617.7,-21882,-42291,14780,-48954
2619.7,-22107,-42238,14976,-48767
2621.7,-22025,-42254,15006,-48774
2623.7,-21655,-41992,15077,-48741
2625.7,-21388,-41695,15250,-48574
2627.7,-21436,-41775,15316,-48464
2629.7,-21618,-41903,15347,-48384
2631.7,-21635,-41547,15592,-48125
2633.7,-21493,-41112,15885,-47805
2635.7,-21430,-41238,15898,-47719
2637.7,-21448,-41457,15783,-47791
2639.7,-21371,-41065,15906,-47697
2641.7,-21286,-40596,16192,-47432
2643.7,-21333,-40775,16282,-47299
2645.7,-21297,-41017,16147,-47389
2647.7,-21038,-40637,16077,-47451
2649.7,-20889,-40245,16187,-47338
2651.7,-21085,-40458,16294,-47205
2653.7,-21306,-40738,16308,-47156
2655.7,-21207,-40613,16360,-47077
2657.7,-20932,-40434,16473,-46946
2659.7,-20849,-40391,16465,-46932
2661.7,-21090,-40322,16318,-47045
2663.7,-21394,-40357,16285,-47050
2665.7,-21367,-40491,16450,-46874
2667.7,-20977,-40266,16535,-46778
2669.7,-20644,-39830,16357,-46943
2671.7,-20709,-39984,16149,-47169
2673.7,-21024,-40651,16150,-47221
2675.7,-21250,-40896,16185,-47227
2677.7,-21301,-40644,16025,-47387
2679.7,-21325,-40644,15854,-47539
2681.7,-21397,-40891,15911,-47484
2683.7,-21436,-40793,16008,-47416
2685.7,-21450,-40537,15867,-47592
2687.7,-21596,-40773,15611,-47881
2689.7,-21820,-41347,15456,-48085
2691.7,-21803,-41654,15305,-48298
2693.73,-21510,-41705,15037,-48614
2695.75,-21325,-41823,14825,-48851
2697.78,-21494,-41930,14830,-48864
2699.8,-21867,-41881,14888,-48822
2701.8,-22184,-41857,14771,-48938
2703.8,-22312,-41990,14559,-49134
2705.8,-22322,-42164,14506,-49198
2707.8,-22408,-42298,14627,-49119
2709.8,-22581,-42354,14695,-49074
2711.8,-22663,-42328,14589,-49164
2713.8,-22649,-42418,14379,-49383
2715.8,-22652,-42700,14139,-49681
2717.8,-22596,-42829,13952,-49920
2719.8,-22415,-42669,13927,-49975
2721.8,-22304,-42697,13995,-49946
2723.8,-22445,-43112,13960,-49998
2725.8,-22702,-43332,13845,-50079
2727.8,-22752,-43017,13824,-50073
2729.8,-22472,-42711,13875,-50044
2731.8,-22261,-42935,13863,-50090
2733.8,-22605,-43405,13799,-50172
2735.8,-23210,-43605,13746,-50247
2737.8,-23299,-43545,13692,-50322
2739.8,-22872,-43499,13671,-50360
2741.8,-22638,-43466,13714,-50340
2743.8,-22787,-43364,13728,-50334
2745.8,-22919,-43373,13668,-50366
2747.8,-22914,-43545,13639,-50365
2749.8,-22937,-43556,13671,-50323
2751.8,-23001,-43346,13677,-50304
2753.8,-23079,-43338,13652,-50325
2755.8,-23153,-43610,13643,-50360
2757.8,-23036,-43711,13597,-50435
2759.8,-22690,-43535,13464,-50579
2761.8,-22495,-43447,13356,-50709
2763.8,-22672,-43485,13428,-50668
2765.8,-22840,-43375,13621,-50482
2767.8,-22676,-43206,13693,-50401
2769.8,-22470,-43284,13586,-50506
2771.8,-22599,-43520,13556,-50532
2773.8,-22949,-43625,13704,-50388
2775.8,-23219,-43639,13741,-50367
2777.8,-23277,-43725,13556,-50539
2779.8,-23065,-43701,13462,-50581
2781.8,-22713,-43368,13585,-50446
2783.8,-22617,-43077,13657,-50436
2785.8,-22827,-43271,13593,-50566
2787.8,-22836,-43670,13586,-50603
2789.8,-22518,-43668,13661,-50535
2791.8,-22422,-43323,13715,-50454
2793.8,-22695,-43174,13734,-50381
2795.8,-22850,-43307,13662,-50414
2797.8,-22820,-43352,13501,-50562
2799.8,-22971,-43230,13462,-50590
2801.8,-23161,-43269,13584,-50470
2803.8,-23062,-43604,13609,-50471
2805.8,-22986,-43902,13558,-50534
2807.8,-23287,-43839,13714,-50375
2809.8,-23564,-43554,13940,-50176
2811.8,-23338,-43365,13854,-50298
2813.8,-22865,-43297,13589,-50548
2815.8,-22638,-43205,13540,-50577
2817.8,-22635,-43147,13616,-50543
2819.8,-22570,-43278,13494,-50702
2821.8,-22509,-43533,13287,-50865
2823.8,-22693,-43666,13310,-50779
2825.8,-22966,-43563,13506,-50564
2827.8,-23026,-43426,13600,-50450
2829.8,-23008,-43558,13539,-50478
2831.8,-23078,-43873,13423,-50591
2833.8,-22936,-43891,13307,-50713
2835.8,-22572,-43514,13274,-50705
2837.8,-22628,-43305,13387,-50536
2839.8,-23176,-43532,13515,-50402
2841.8,-23345,-43660,13504,-50425
2843.8,-22860,-43361,13439,-50479
2845.8,-22511,-43126,13427,-50491
2847.8,-22685,-43254,13380,-50573
2849.8,-22870,-43311,13246,-50724
2851.8,-22785,-43106,13157,-50772
2853.8,-22703,-43071,13209,-50662
2855.8,-22748,-43378,13339,-50536
2857.8,-22816,-43704,13412,-50535
2859.8,-22920,-43888,13355,-50657
2861.8,-23033,-43972,13248,-50779
2863.8,-22987,-43886,13200,-50826
2865.8,-22808,-43690,13156,-50877
2867.8,-22750,-43647,13074,-50942
2869.8,-22925,-43739,13109,-50873
2871.8,-23164,-43677,13287,-50700
2873.8,-23167,-43403,13357,-50655
2875.8,-22769,-43164,13260,-50728
2877.8,-22279,-43192,13186,-50753
2879.8,-22250,-43533,13121,-50803
2881.8,-22675,-43965,12981,-50930
2883.8,-22983,-44147,12953,-50917
2885.8,-22978,-44052,13103,-50751
2887.8,-22960,-43960,13145,-50744
2889.8,-22984,-43937,13000,-50915
2891.8,-22965,-43807,12951,-50956
2893.8,-23113,-43653,13083,-50829
2895.8,-23379,-43722,13186,-50759
2897.8,-23240,-43891,13167,-50808
2899.8,-22765,-43882,13100,-50880
2901.8,-22737,-43825,13061,-50921
2903.8,-23178,-43948,13079,-50937
2905.8,-23205,-44036,13089,-50991
2907.8,-22676,-43875,13010,-51106
2909.8,-22408,-43734,12927,-51169
2911.8,-22607,-43825,12954,-51122
2913.8,-22675,-43900,13010,-51072
2915.8,-22552,-43788,12986,-51071
2917.8,-22728,-43649,12910,-51072
2919.8,-23109,-43598,12836,-51093
2921.8,-23182,-43690,12802,-51125
2923.8,-23001,-43997,12858,-51075
2925.8,-22961,-44300,12937,-50987
2927.8,-23026,-44260,12922,-50982
2929.8,-22943,-44015,12891,-50992
2931.8,-22793,-43918,12963,-50919
2933.8,-22803,-43913,13021,-50882
2935.8,-22965,-43862,12958,-50954
2937.8,-23096,-43956,12899,-51014
2939.8,-23086,-44211,12904,-51039
2941.8,-22950,-44213,12843,-51139
2943.8,-22798,-43819,12730,-51248
2945.8,-22829,-43526,12749,-51190
2947.8,-23090,-43752,12905,-51003
2949.8,-23240,-44190,13016,-50875
2951.8,-22978,-44268,13017,-50881
2953.8,-22620,-43986,12980,-50958
2955.8,-22606,-43807,12946,-51022
2957.8,-22710,-43845,12922,-51028
2959.8,-22574,-43826,12949,-50984
2961.8,-22459,-43755,13020,-50942
2963.8,-22634,-43878,13047,-50958
2965.8,-22820,-44083,12987,-51033
2967.8,-22846,-44020,12948,-51074
2969.8,-22916,-43688,13072,-50963
2971.9,-23011,-43396,13304,-50740
2973.9,-22950,-43317,13418,-50617
2975.9,-22852,-43371,13318,-50704
2977.9,-22838,-43438,13181,-50823
2979.9,-22770,-43523,13166,-50800
2981.9,-22599,-43640,13165,-50755
2983.9,-22411,-43613,13091,-50799
2985.9,-22307,-43348,13144,-50734
2987.9,-22579,-43163,13443,-50446
2989.9,-23262,-43323,13696,-50234
2991.9,-23641,-43487,13662,-50313
2993.9,-23300,-43312,13566,-50439
2995.9,-23020,-43100,13650,-50364
2997.9,-23352,-43139,13776,-50213
2999.9,-23541,-43119,13755,-50188
3001.9,-23087,-42851,13648,-50288
3003.9,-22709,-42680,13579,-50401
3005.9,-22821,-42739,13576,-50431
3007.9,-22954,-42752,13621,-50368
3009.9,-23025,-42732,13673,-50293
3011.9,-23205,-42884,13700,-50248
3013.9,-23022,-42961,13716,-50207
3015.9,-22442,-42708,13731,-50189
3017.9,-22469,-42507,13735,-50195
3019.9,-23164,-42734,13724,-50172
3021.9,-23212,-43114,13639,-50196
3023.9,-22457,-43310,13413,-50409
3025.9,-22218,-43392,13165,-50678
3027.9,-22724,-43450,13103,-50730
3029.9,-22967,-43483,13187,-50624
3031.9,-22859,-43643,13197,-50624
3033.9,-23014,-43946,13082,-50756
3035.9,-23203,-44117,12951,-50880
3037.9,-22992,-44101,12858,-50958
3039.9,-22822,-44141,12822,-50992
3041.9,-23094,-44211,12839,-50982
3043.9,-23391,-44109,12836,-50993
3045.9,-23322,-43949,12794,-51036
3047.9,-23121,-43888,12795,-51031
3049.9,-23129,-43786,12823,-51009
3051.9,-23356,-43663,12797,-51060
3053.9,-23501,-43811,12772,-51105
3055.9,-23219,-44134,12787,-51088
3057.9,-22668,-44221,12733,-51136
3059.9,-22531,-44177,12617,-51260
3061.9,-23015,-44423,12583,-51304
3063.9,-23403,-44752,12579,-51313
3065.9,-23135,-44591,12472,-51425
3067.9,-22588,-44090,12380,-51507
3069.9,-22379,-43941,12452,-51397
3071.9,-22596,-44245,12591,-51231
3073.9,-22985,-44432,12699,-51142
3075.9,-23293,-44245,12795,-51063
3077.9,-23311,-44068,12820,-51013
3079.9,-23022,-44180,12725,-51101
3081.9,-22739,-44357,12627,-51255
3083.9,-22873,-44435,12598,-51340
3085.9,-23403,-44607,12584,-51384
3087.9,-23709,-44855,12605,-51442
3089.9,-23357,-44873,12692,-51497
3091.9,-22882,-44826,12729,-51567
3093.9,-22962,-45174,12704,-51643
3095.9,-23205,-45622,12870,-51577
3097.9,-22975,-45442,13394,-51263
3099.9,-22686,-44737,14106,-50795
3101.9,-22853,-44182,14740,-50306
3103.9,-22931,-43819,15229,-49784
3105.9,-22405,-43209,15617,-49163
3107.9,-21729,-42294,15849,-48482
3109.9,-21266,-41241,15881,-47768
3111.9,-20842,-39985,15908,-46873
3113.9,-20556,-38528,16144,-45699
3115.9,-20503,-37170,16397,-44503
3117.9,-20196,-36080,16333,-43611
3119.9,-19590,-35026,16093,-42950
3121.9,-19522,-33855,16008,-42354
3123.9,-20197,-33164,15817,-42186
3125.9,-20788,-33943,14934,-43041
3127.9,-21037,-36236,13438,-44849
3129.9,-21510,-38837,11970,-46905
3131.9,-22267,-40831,10728,-48837
3133.9,-22836,-42495,9432,-50824
3135.9,-23119,-44096,8252,-52745
3137.9,-23208,-45148,7777,-53956
3139.9,-23010,-45464,8043,-54209
3141.9,-22703,-45577,8530,-53974
3143.9,-22747,-45736,9047,-53634
3145.9,-23132,-45684,9739,-53163
3147.9,-23355,-45412,10445,-52655
3149.9,-23139,-45176,10899,-52345
3151.9,-22663,-45025,11217,-52176
3153.9,-22267,-44915,11591,-51951
3155.9,-22277,-44895,11905,-51714
3157.9,-22766,-44931,12053,-51592
3159.9,-23312,-44879,12147,-51547
3161.9,-23397,-44640,12273,-51503
3163.9,-23136,-44297,12404,-51444
3165.9,-23055,-44181,12521,-51365
3167.9,-23182,-44469,12580,-51306
3169.9,-23056,-44688,12521,-51340
3171.9,-22628,-44351,12414,-51431
3173.9,-22426,-43961,12415,-51443
3175.9,-22758,-44270,12534,-51342
3177.9,-23258,-44864,12619,-51268
3179.9,-23389,-44853,12591,-51312
3181.9,-23139,-44440,12546,-51388
3183.9,-22928,-44377,12552,-51398
3185.9,-22895,-44563,12547,-51375
3187.9,-22819,-44561,12507,-51347
3189.9,-22786,-44545,12531,-51253
3191.9,-23109,-44692,12662,-51079
3193.9,-23517,-44701,12819,-50891
3195.9,-23439,-44494,12937,-50765
3197.9,-23033,-44300,12960,-50786
3199.9,-22886,-44077,12841,-50962
3201.9,-22990,-43900,12671,-51123
3203.9,-22977,-44173,12614,-51140
3205.9,-22865,-44681,12668,-51109
3207.9,-22788,-44655,12720,-51114
3209.9,-22596,-44153,12768,-51073
3211.9,-22279,-43908,12837,-50985
3213.9,-22193,-43999,12848,-50971
3215.9,-22529,-44075,12792,-51012
3217.9,-23002,-44195,12782,-51003
3219.9,-23230,-44413,12813,-51012
3221.9,-23178,-44451,12775,-51130
3223.9,-23101,-44310,12720,-51215
3225.9,-23137,-44242,12784,-51128
3227.9,-23103,-44215,12881,-51019
3229.9,-22842,-44132,12849,-51074
3231.9,-22548,-44102,12752,-51215
3233.9,-22514,-44104,12748,-51263
3235.9,-22729,-44020,12846,-51168
3237.9,-22949,-44001,12950,-51012
3239.9,-23058,-44219,12999,-50899
3241.9,-23120,-44494,12993,-50861
3243.9,-23105,-44528,12969,-50846
3245.9,-22888,-44269,12955,-50839
3247.9,-22652,-43989,12969,-50820
3249.9,-22796,-44036,13062,-50686
3251.9,-23181,-44282,13221,-50451
3253.93,-23151,-44134,13301,-50341
3255.95,-22647,-43537,13269,-50406
3257.98,-22397,-43261,13272,-50431
3260.0,-22708,-43660,13322,-50392
3262.0,-23040,-44125,13271,-50471
3264.0,-22946,-44185,13150,-50616
3266.0,-22590,-44062,13131,-50622
3268.0,-22368,-43941,13218,-50523
3270.0,-22506,-43792,13304,-50458
3272.0,-22848,-43772,13378,-50412
3274.0,-22911,-43906,13457,-50355
3276.0,-22516,-43860,13497,-50353
3278.0,-22144,-43612,13489,-50396
3280.0,-22273,-43552,13494,-50375
3282.0,-22705,-43652,13560,-50265
3284.0,-22872,-43512,13664,-50149
3286.0,-22566,-43172,13755,-50066
3288.0,-22144,-42962,13819,-49993
3290.0,-22098,-42948,13852,-49958
3292.0,-22487,-43117,13862,-49976
3294.0,-22900,-43430,13924,-49916
3296.0,-22978,-43513,14108,-49685
3298.0,-22753,-43174,14305,-49467
3300.0,-22422,-42951,14334,-49468
3302.0,-22091,-43209,14236,-49566
3304.0,-21864,-43398,14241,-49499
3306.0,-21886,-43077,14434,-49271
3308.0,-22098,-42690,14644,-49102
3310.0,-22162,-42621,14732,-49042
3312.0,-21930,-42542,14829,-48901
3314.0,-21740,-42199,15080,-48609
3316.0,-21901,-41915,15309,-48409
3318.0,-22127,-41930,15292,-48448
3320.0,-21944,-41968,15222,-48460
3322.0,-21438,-41714,15400,-48210
3324.0,-21120,-41332,15699,-47900
3326.0,-21200,-41228,15812,-47780
3328.0,-21402,-41395,15769,-47766
3330.0,-21432,-41378,15783,-47694
3332.0,-21308,-41020,15885,-47583
3334.0,-21191,-40745,15972,-47510
3336.0,-21124,-40846,16000,-47479
3338.0,-21084,-41008,16035,-47418
3340.0,-21138,-40889,16168,-47254
3342.0,-21364,-40671,16334,-47064
3344.0,-21646,-40662,16366,-47001
3346.0,-21753,-40757,16304,-47005
3348.0,-21618,-40687,16338,-46929
3350.0,-21383,-40492,16408,-46876
3352.0,-21200,-40392,16315,-46998
3354.0,-21131,-40412,16137,-47161
3356.0,-21146,-40435,16062,-47207
3358.0,-21140,-40475,16025,-47239
3360.0,-21062,-40612,15927,-47337
3362.0,-21013,-40811,15854,-47420
3364.0,-21071,-40951,15823,-47495
3366.0,-21165,-40974,15714,-47644
3368.0,-21254,-40925,15571,-47798
3370.0,-21362,-40922,15526,-47864
3372.0,-21467,-41068,15543,-47894
3374.0,-21573,-41304,15509,-47950
3376.0,-21698,-41422,15398,-48043
3378.0,-21746,-41366,15235,-48189
3380.0,-21728,-41407,15087,-48348
3382.0,-21897,-41731,14974,-48503
3384.0,-22208,-42056,14764,-48772
3386.0,-22213,-42105,14432,-49130
3388.0,-21921,-42094,14255,-49278
3390.0,-21910,-42238,14364,-49155
3392.0,-22339,-42350,14452,-49116
3394.0,-22751,-42395,14331,-49301
3396.0,-22916,-42653,14232,-49424
3398.0,-22981,-43013,14252,-49400
3400.0,-22973,-43102,14145,-49505
3402.0,-22823,-43052,13859,-49802
3404.0,-22662,-43163,13663,-50023
3406.0,-22706,-43280,13653,-50067
3408.0,-23011,-43304,13653,-50102
3410.0,-23332,-43449,13609,-50185
3412.0,-23207,-43565,13620,-50188
3414.0,-22576,-43348,13648,-50124
3416.0,-22129,-43167,13557,-50171
3418.0,-22362,-43428,13369,-50360
3420.0,-22710,-43653,13214,-50525
3422.0,-22583,-43403,13150,-50566
3424.0,-22461,-43198,13178,-50530
3426.0,-22850,-43475,13268,-50469
3428.0,-23220,-43736,13334,-50402
3430.0,-23138,-43552,13326,-50362
3432.0,-23076,-43325,13281,-50381
3434.0,-23190,-43488,13215,-50463
3436.0,-22988,-43859,13145,-50549
3438.0,-22665,-44101,13181,-50528
3440.0,-22888,-44129,13313,-50422
3442.0,-23341,-44004,13322,-50423
3444.0,-23329,-43849,13176,-50554
3446.0,-23105,-43739,13139,-50595
3448.0,-23096,-43577,13264,-50499
3450.0,-23054,-43371,13285,-50487
3452.0,-22934,-43434,13149,-50605
3454.0,-23087,-43842,13103,-50636
3456.0,-23283,-44096,13200,-50548
3458.0,-23027,-43855,13212,-50572
3460.0,-22539,-43455,13073,-50753
3462.0,-22336,-43316,13014,-50821
3464.0,-22520,-43415,13172,-50638
3466.0,-22925,-43566,13343,-50447
3468.0,-23222,-43675,13299,-50466
3470.0,-23095,-43666,13165,-50552
3472.0,-22820,-43575,13184,-50516
3474.0,-22888,-43534,13275,-50470
3476.0,-23062,-43519,13222,-50555
3478.0,-22919,-43424,13131,-50634
3480.0,-22820,-43380,13204,-50574
3482.0,-23181,-43599,13328,-50490
3484.0,-23558,-43928,13318,-50505
3486.0,-23473,-44003,13273,-50543
3488.0,-23196,-43793,13315,-50527
3490.0,-23101,-43617,13318,-50516
3492.0,-23107,-43609,13221,-50535
3494.0,-23032,-43575,13211,-50482
3496.0,-22894,-43435,13356,-50331
3498.0,-22816,-43376,13434,-50256
3500.0,-22884,-43463,13330,-50361
3502.0,-22991,-43539,13235,-50475
3504.0,-22969,-43587,13284,-50438
3506.0,-22938,-43734,13341,-50381
3508.0,-23064,-43890,13294,-50445
3510.0,-23109,-43858,13246,-50496
3512.0,-22917,-43722,13264,-50438
3514.0,-22917,-43641,13239,-50430
3516.0,-23276,-43547,13137,-50531
3518.0,-23396,-43462,13095,-50557
3520.0,-23070,-43611,13185,-50448
3522.0,-22903,-43891,13308,-50353
3524.0,-23008,-43922,13322,-50388
3526.0,-22812,-43768,13152,-50567
3528.0,-22423,-43779,12922,-50765
3530.0,-22506,-43856,12927,-50725
3532.0,-22926,-43732,13181,-50458
3534.0,-23053,-43543,13285,-50366
3536.0,-22916,-43438,13096,-50556
3538.0,-22869,-43351,12990,-50629
3540.0,-22897,-43470,13140,-50463
3542.1,-22970,-43990,13234,-50398
3544.1,-23210,-44470,13132,-50515
3546.1,-23445,-44430,13040,-50576
3548.1,-23384,-44143,13013,-50569
3550.1,-23117,-44041,12958,-50609
3552.1,-22904,-44004,12913,-50636
3554.1,-22779,-43820,12912,-50628
3556.1,-22707,-43647,12881,-50672
3558.1,-22754,-43657,12841,-50718
3560.1,-22928,-43766,12874,-50682
3562.1,-23116,-43829,12949,-50623
3564.1,-23238,-43803,13002,-50587
3566.1,-23291,-43810,12994,-50578
3568.1,-23268,-44018,12890,-50648
3570.1,-23160,-44289,12777,-50739
3572.1,-23030,-44242,12789,-50714
3574.1,-23034,-43949,12845,-50656
3576.1,-23249,-43945,12817,-50699
3578.1,-23497,-44288,12831,-50696
3580.1,-23468,-44424,12937,-50585
3582.1,-23059,-44196,12867,-50658
3584.1,-22573,-44000,12601,-50931
3586.1,-22545,-43978,12580,-50940
3588.1,-23175,-44017,12899,-50617
3590.1,-23889,-44176,13060,-50489
3592.1,-23879,-44299,12901,-50665
3594.1,-23233,-44007,12856,-50677
3596.1,-22877,-43576,13007,-50490
3598.1,-23212,-43697,12955,-50524
3600.1,-23577,-44190,12716,-50729
3602.1,-23372,-44262,12691,-50724
3604.1,-22923,-43923,12816,-50620
3606.1,-22858,-43809,12744,-50739
3608.1,-23217,-43941,12585,-50940
3610.1,-23501,-43902,12622,-50957
3612.1,-23356,-43823,12754,-50866
3614.1,-23018,-44061,12791,-50800
3616.1,-22968,-44337,12775,-50771
3618.1,-23247,-44191,12712,-50842
3620.1,-23408,-43858,12539,-51013
3622.1,-23172,-43863,12376,-51104
3624.1,-22769,-44150,12381,-51045
3626.1,-22623,-44322,12511,-50926
3628.1,-22920,-44320,12686,-50727
3630.1,-23408,-44319,12874,-50447
3632.1,-23614,-44332,12960,-50314
3634.1,-23403,-44284,12867,-50460
3636.1,-23107,-44214,12728,-50666
3638.1,-22960,-44206,12679,-50731
3640.1,-22897,-44268,12674,-50731
3642.1,-22943,-44324,12654,-50767
3644.1,-23116,-44294,12638,-50817
3646.1,-23094,-44151,12604,-50871
3648.1,-22768,-43945,12533,-50941
3650.1,-22709,-43822,12509,-50973
3652.1,-23220,-43940,12592,-50908
3654.1,-23649,-44205,12700,-50783
3656.1,-23442,-44272,12723,-50720
3658.1,-23015,-44040,12654,-50799
3660.1,-22935,-43878,12597,-50919
3662.1,-23109,-44092,12654,-50903
3664.1,-23236,-44443,12755,-50787
3666.1,-23243,-44477,12739,-50753
3668.1,-23105,-44131,12639,-50800
3670.1,-22885,-43793,12627,-50791
3672.1,-22858,-43813,12680,-50744
3674.1,-23097,-44107,12675,-50735
3676.1,-23258,-44318,12681,-50698
3678.1,-23158,-44277,12760,-50635
3680.1,-23055,-44134,12754,-50697
3682.1,-23088,-44040,12612,-50856
3684.1,-23071,-43983,12589,-50844
3686.1,-22993,-43914,12832,-50588
3688.1,-23024,-43822,13107,-50360
3690.1,-23096,-43683,13170,-50371
3692.1,-23129,-43545,13145,-50456
3694.1,-23299,-43536,13257,-50364
3696.1,-23544,-43657,13420,-50175
3698.1,-23492,-43754,13400,-50145
3700.1,-23277,-43772,13257,-50258
3702.1,-23405,-43759,13202,-50331
3704.1,-23686,-43641,13187,-50390
3706.1,-23515,-43371,13100,-50497
3708.1,-23064,-43219,13097,-50479
3710.1,-22909,-43379,13266,-50281
3712.1,-22964,-43501,13364,-50158
3714.1,-22945,-43288,13286,-50199
3716.1,-23075,-43126,13248,-50203
3718.1,-23335,-43349,13302,-50140
3720.1,-23191,-43477,13293,-50146
3722.1,-22769,-43085,13288,-50135
3724.1,-22881,-42638,13421,-50002
3726.1,-23445,-42618,13512,-49946
3728.1,-23478,-42704,13404,-50091
3730.1,-22879,-42583,13310,-50193
3732.1,-22561,-42566,13411,-50082
3734.1,-22814,-42857,13541,-49936
3736.1,-23051,-43135,13533,-49922
3738.1,-22978,-43189,13446,-49993
3740.1,-22835,-43200,13346,-50092
3742.1,-22804,-43343,13240,-50188
3744.1,-22948,-43602,13187,-50220
3746.1,-23219,-43844,13174,-50221
3748.1,-23299,-43861,13081,-50308
3750.1,-23106,-43640,12951,-50429
3752.1,-23085,-43524,12945,-50449
3754.1,-23302,-43726,12975,-50468
3756.1,-23201,-43980,12842,-50624
3758.1,-22861,-44028,12688,-50753
3760.1,-23080,-44023,12735,-50687
3762.1,-23760,-44152,12831,-50593
3764.1,-23948,-44325,12780,-50626
3766.1,-23586,-44413,12717,-50671
3768.1,-23394,-44397,12719,-50693
3770.1,-23361,-44287,12616,-50806
3772.1,-23088,-44186,12452,-50923
3774.1,-22883,-44269,12469,-50887
3776.1,-23125,-44514,12584,-50829
3778.1,-23448,-44672,12552,-50905
3780.1,-23451,-44612,12436,-51001
3782.1,-23301,-44485,12405,-51023
3784.1,-23255,-44472,12415,-51043
3786.1,-23378,-44559,12432,-51035
3788.1,-23601,-44615,12505,-50929
3790.1,-23634,-44577,12560,-50836
3792.1,-23278,-44449,12538,-50851
3794.1,-22929,-44227,12549,-50870
3796.1,-23098,-44062,12621,-50831
3798.1,-23540,-44213,12627,-50822
3800.1,-23617,-44565,12580,-50865
3802.1,-23329,-44636,12594,-50910
3804.1,-23213,-44379,12610,-50998
3806.1,-23354,-44353,12521,-51186
3808.1,-23325,-44836,12405,-51402
3810.1,-23084,-45455,12407,-51508
3812.1,-23047,-45785,12551,-51456
3814.13,-23243,-45678,12824,-51299
3816.15,-23295,-45191,13268,-51046
3818.18,-23151,-44586,13862,-50638
3820.2,-23005,-44112,14410,-50135
3822.2,-22749,-43660,14756,-49682
3824.2,-22218,-43019,15031,-49193
3826.2,-21567,-42228,15374,-48439
3828.2,-20974,-41308,15627,-47469
3830.2,-20449,-40099,15678,-46488
3832.2,-20076,-38680,15744,-45472
3834.2,-19982,-37481,15912,-44379
3836.2,-20058,-36635,15969,-43395
3838.2,-20114,-35686,15933,-42603
3840.2,-20204,-34405,15987,-41949
3842.2,-20457,-33515,15827,-41722
3844.2,-20741,-33977,14958,-42400
3846.2,-20913,-35781,13511,-43971
3848.2,-21206,-38093,11965,-45995
3850.2,-21842,-40332,10443,-48189
3852.2,-22455,-42377,8951,-50428
3854.2,-22582,-44015,7829,-52365
3856.2,-22449,-44984,7432,-53551
3858.2,-22576,-45441,7702,-53870
3860.2,-22934,-45765,8300,-53652
3862.2,-23121,-45986,8931,-53309
3864.2,-23022,-45857,9521,-52954
3866.2,-22865,-45441,10173,-52477
3868.2,-22882,-45107,10924,-51894
3870.2,-23081,-44946,11605,-51398
3872.2,-23288,-44721,12057,-51079
3874.2,-23393,-44407,12329,-50865
3876.2,-23415,-44227,12494,-50744
3878.2,-23312,-44259,12487,-50810
3880.2,-23125,-44420,12310,-51021
3882.2,-23140,-44602,12183,-51145
3884.2,-23374,-44611,12270,-51057
3886.2,-23360,-44428,12451,-50896
3888.2,-23056,-44391,12527,-50841
3890.2,-23057,-44634,12480,-50896
3892.2,-23356,-44777,12420,-50958
3894.2,-23239,-44597,12415,-50974
3896.2,-22776,-44401,12430,-50974
3898.2,-22780,-44458,12409,-51002
3900.2,-23197,-44682,12372,-51054
3902.2,-23285,-44863,12369,-51089
3904.2,-23101,-44833,12378,-51080
3906.2,-23189,-44590,12408,-50987
3908.2,-23393,-44365,12547,-50794
3910.2,-23376,-44347,12729,-50615
3912.2,-23441,-44503,12756,-50572
3914.2,-23735,-44725,12683,-50576
3916.2,-23706,-44796,12740,-50501
3918.2,-23145,-44490,12867,-50446
3920.2,-22728,-44097,12836,-50515
3922.2,-22927,-44210,12688,-50617
3924.2,-23317,-44675,12586,-50699
3926.2,-23353,-44712,12522,-50805
3928.2,-23094,-44234,12511,-50840
3930.2,-22894,-43940,12607,-50732
3932.2,-22854,-44087,12677,-50670
3934.2,-22864,-44282,12620,-50750
3936.2,-22956,-44369,12627,-50754
3938.2,-23183,-44516,12764,-50636
3940.2,-23265,-44606,12798,-50638
3942.2,-22999,-44451,12711,-50766
3944.2,-22868,-44297,12740,-50787
3946.2,-23289,-44406,12858,-50709
3948.2,-23656,-44549,12872,-50686
3950.2,-23359,-44440,12856,-50672
3952.2,-22971,-44220,12937,-50587
3954.2,-23150,-44155,13020,-50509
3956.2,-23457,-44253,13026,-50503
3958.2,-23400,-44368,12996,-50557
3960.2,-23276,-44401,12924,-50648
3962.2,-23217,-44374,12866,-50674
3964.2,-22886,-44344,12960,-50552
3966.2,-22488,-44275,13131,-50403
3968.2,-22624,-44124,13186,-50345
3970.2,-23173,-44001,13197,-50276
3972.2,-23509,-43998,13329,-50123
3974.2,-23462,-44022,13453,-50030
3976.2,-23209,-43999,13354,-50124
3978.2,-22784,-43957,13098,-50338
3980.2,-22362,-43850,12933,-50492
3982.2,-22321,-43691,12994,-50434
3984.2,-22662,-43714,13191,-50221
3986.2,-22984,-43995,13314,-50103
3988.2,-23108,-44218,13309,-50139
3990.2,-23105,-44140,13349,-50108
3992.2,-22914,-43946,13483,-49957
3994.2,-22563,-43859,13515,-49917
3996.2,-22413,-43761,13402,-50015
3998.2,-22691,-43524,13392,-49992
4000.2,-23185,-43429,13604,-49766
4002.2,-23581,-43777,13846,-49546
4004.2,-23643,-44212,13926,-49490
4006.2,-23267,-44102,13879,-49534
4008.2,-22825,-43578,13867,-49518
4010.2,-22845,-43324,14006,-49366
4012.2,-23077,-43397,14210,-49193
4014.2,-22867,-43282,14291,-49143
4016.2,-22462,-43005,14265,-49122
4018.2,-22613,-43054,14340,-48947
4020.2,-23066,-43331,14530,-48716
4022.2,-22960,-43288,14632,-48648
4024.2,-22395,-42931,14646,-48660
4026.2,-22212,-42717,14776,-48532
4028.2,-22514,-42709,14983,-48355
4030.2,-22591,-42646,15008,-48379
4032.2,-22191,-42516,14878,-48503
4034.2,-21859,-42366,14931,-48384
4036.2,-21917,-42043,15239,-48026
4038.2,-21968,-41655,15481,-47794
4040.2,-21796,-41592,15528,-47782
4042.2,-21821,-41734,15622,-47695
4044.2,-22127,-41598,15838,-47439
4046.2,-22146,-41335,15946,-47270
4048.2,-21829,-41412,15954,-47215
4050.2,-21872,-41576,16138,-47000
4052.2,-22364,-41322,16463,-46642
4054.2,-22523,-40843,16594,-46488
4056.2,-22060,-40609,16505,-46576
4058.2,-21622,-40685,16473,-46613
4060.2,-21626,-40894,16511,-46588
4062.2,-21635,-40960,16404,-46724
4064.2,-21288,-40684,16212,-46914
4066.2,-21051,-40434,16172,-46884
4068.2,-21336,-40674,16229,-46759
4070.2,-21642,-40980,16221,-46768
4072.2,-21524,-40709,16290,-46718
4074.23,-21498,-40240,16545,-46445
4076.25,-21913,-40248,16681,-46293
4078.28,-22127,-40502,16477,-46487
4080.3,-21829,-40549,16218,-46704
4082.3,-21741,-40583,16173,-46708
4084.3,-22207,-40803,16214,-46693
4086.3,-22560,-40921,16187,-46782
4088.3,-22381,-40763,16098,-46914
4090.3,-22046,-40569,15915,-47120
4092.3,-21912,-40578,15662,-47374
4094.3,-21957,-40853,15485,-47523
4096.3,-22062,-41282,15361,-47623
4098.3,-22041,-41549,15162,-47843
4100.3,-21802,-41549,14995,-48053
4102.3,-21708,-41671,14987,-48079
4104.3,-22139,-42078,14964,-48101
4106.3,-22688,-42261,14770,-48303
4108.3,-22652,-42005,14552,-48544
4110.3,-22212,-41914,14432,-48678
4112.3,-22156,-42277,14350,-48763
4114.3,-22590,-42576,14286,-48865
4116.3,-22894,-42588,14255,-48974
4118.3,-22769,-42656,14161,-49119
4120.3,-22525,-42739,13946,-49338
4122.3,-22517,-42611,13715,-49572
4124.3,-22790,-42660,13588,-49710
4126.3,-23093,-43128,13565,-49713
4128.3,-23121,-43420,13583,-49641
4130.3,-22946,-43287,13620,-49562
4132.3,-22956,-43374,13671,-49502
4134.3,-23171,-43792,13682,-49511
4136.3,-23215,-43816,13619,-49609
4138.3,-23079,-43456,13560,-49694
4140.3,-23099,-43486,13547,-49720
4142.3,-23177,-43820,13443,-49827
4144.3,-22972,-43700,13182,-50070
4146.3,-22700,-43296,12972,-50227
4148.3,-22805,-43329,13004,-50132
4150.3,-23138,-43590,13187,-49919
4152.3,-23303,-43488,13319,-49796
4154.3,-23359,-43393,13313,-49826
4156.3,-23466,-43890,13219,-49932
4158.3,-23441,-44442,13186,-49974
4160.3,-23196,-44247,13284,-49903
4162.3,-23011,-43663,13364,-49858
4164.3,-23033,-43484,13294,-49948
4166.3,-23099,-43617,13196,-50048
4168.3,-23114,-43608,13199,-50028
4170.3,-23069,-43557,13218,-49970
4172.3,-22852,-43626,13154,-49985
4174.3,-22577,-43594,13103,-50015
4176.3,-22740,-43473,13188,-49956
4178.3,-23435,-43566,13352,-49848
4180.3,-23943,-43727,13425,-49812
4182.3,-23760,-43613,13366,-49863
4184.3,-23389,-43458,13334,-49877
4186.3,-23396,-43607,13412,-49811
4188.3,-23464,-43795,13433,-49806
4190.3,-23173,-43693,13297,-49924
4192.3,-22885,-43531,13216,-49991
4194.3,-23063,-43611,13352,-49878
4196.3,-23448,-43812,13504,-49747
4198.3,-23568,-43889,13452,-49788
4200.3,-23390,-43774,13303,-49930
4202.3,-23117,-43536,13239,-50010
4204.3,-22877,-43347,13233,-50018
4206.3,-22750,-43373,13232,-50000
4208.3,-22746,-43568,13304,-49932
4210.3,-22784,-43700,13417,-49853
4212.3,-22816,-43589,13407,-49871
4214.3,-22839,-43301,13301,-49949
4216.3,-22855,-43151,13277,-49954
4218.3,-22916,-43370,13304,-49925
4220.3,-23017,-43731,13246,-49960
4222.3,-23003,-43818,13203,-49971
4224.3,-22863,-43639,13271,-49908
4226.3,-22865,-43507,13288,-49932
4228.3,-23103,-43484,13181,-50065
4230.3,-23295,-43476,13141,-50108
4232.3,-23227,-43533,13222,-50037
4234.3,-23049,-43642,13282,-49993
4236.3,-23026,-43668,13301,-49968
4238.3,-23233,-43675,13283,-49946
4240.3,-23456,-43748,13137,-50028
4242.3,-23382,-43723,12992,-50134
4244.3,-23082,-43597,13105,-50054
4246.3,-23016,-43675,13361,-49868
4248.3,-23316,-43906,13453,-49785
4250.3,-23531,-43861,13416,-49778
4252.3,-23303,-43551,13395,-49803
4254.3,-22784,-43362,13311,-49956
4256.3,-22357,-43335,13134,-50176
4258.3,-22379,-43357,13015,-50278
4260.3,-22902,-43580,12987,-50278
4262.3,-23412,-43949,12983,-50262
4264.3,-23339,-44047,13026,-50183
4266.3,-22907,-43875,13102,-50069
4268.3,-22808,-43908,13142,-50039
4270.3,-23158,-44160,13199,-50058
4272.3,-23451,-44150,13277,-50056
4274.3,-23416,-43832,13200,-50127
4276.3,-23288,-43643,12976,-50269
4278.3,-23305,-43738,12890,-50293
4280.3,-23390,-43915,12989,-50195
4282.3,-23359,-44048,13001,-50197
4284.3,-23175,-44114,12877,-50323
4286.3,-22985,-44059,12843,-50380
4288.3,-23006,-43917,12950,-50332
4290.3,-23292,-43858,13046,-50290
4292.3,-23577,-43988,13087,-50252
4294.3,-23539,-44171,13105,-50175
4296.3,-23248,-44146,13054,-50149
4298.3,-23070,-43958,12934,-50230
4300.3,-23206,-44026,12853,-50289
4302.3,-23501,-44438,12868,-50232
4304.3,-23594,-44632,12914,-50173
4306.3,-23248,-44259,12914,-50242
4308.3,-22762,-43795,12850,-50373
4310.3,-22814,-43767,12814,-50396
4312.3,-23525,-44029,12942,-50247
4314.3,-24082,-44190,13176,-50054
4316.3,-23798,-44164,13256,-50007
4318.3,-23150,-44069,13106,-50136
4320.3,-23045,-44003,12950,-50282
4322.3,-23424,-44002,12909,-50338
4324.3,-23530,-43986,12865,-50354
4326.3,-23272,-43826,12801,-50353
4328.3,-23158,-43584,12850,-50285
4330.3,-23236,-43538,12970,-50187
4332.3,-23275,-43828,12980,-50179
4334.3,-23394,-44169,12875,-50253
4336.3,-23478,-44173,12819,-50275
4338.3,-23065,-43925,12861,-50218
4340.3,-22491,-43880,12891,-50199
4342.3,-22649,-44159,12849,-50258
4344.33,-23362,-44380,12830,-50266
4346.35,-23692,-44273,12903,-50182
4348.38,-23551,-44008,12935,-50187
4350.4,-23453,-43858,12807,-50359
4352.4,-23428,-43937,12680,-50471
4354.4,-23361,-44246,12745,-50378
4356.4,-23388,-44599,12853,-50281
4358.4,-23403,-44620,12787,-50347
4360.4,-23213,-44248,12676,-50416
4362.4,-23136,-43973,12734,-50346
4364.4,-23475,-44112,12882,-50250
4366.4,-23860,-44282,12975,-50218
4368.4,-23819,-44131,13008,-50210
4370.4,-23454,-43945,12943,-50279
4372.4,-23172,-44009,12760,-50453
4374.4,-23165,-44096,12681,-50515
4376.4,-23317,-44050,12831,-50343
4378.4,-23378,-44043,12910,-50226
4380.4,-23239,-44067,12709,-50398
4382.4,-23040,-43991,12527,-50622
4384.4,-22972,-44000,12601,-50627
4386.4,-23077,-44234,12703,-50531
4388.4,-23236,-44390,12655,-50521
4390.4,-23235,-44278,12632,-50518
4392.4,-23022,-44160,12715,-50425
4394.4,-22932,-44188,12764,-50329
4396.4,-23280,-44206,12779,-50307
4398.4,-23752,-44195,12869,-50310
4400.4,-23800,-44253,12940,-50321
4402.4,-23565,-44306,12846,-50397
4404.4,-23599,-44288,12685,-50520
4406.4,-23806,-44278,12642,-50565
4408.4,-23669,-44246,12729,-50471
4410.4,-23278,-44112,12854,-50321
4412.4,-23088,-43996,12933,-50252
4414.4,-23055,-44002,12888,-50323
4416.4,-23013,-43996,12775,-50433
4418.4,-23195,-43895,12785,-50413
4420.4,-23545,-43842,12907,-50294
4422.4,-23508,-43892,12912,-50283
4424.4,-23086,-43927,12818,-50358
4426.4,-22925,-43932,12878,-50303
4428.4,-23171,-43956,13035,-50161
4430.4,-23373,-43871,13049,-50142
4432.4,-23389,-43620,13042,-50153
4434.4,-23398,-43464,13202,-50025
4436.4,-23391,-43523,13304,-49919
4438.4,-23367,-43554,13207,-49941
4440.4,-23528,-43549,13209,-49896
4442.4,-23872,-43760,13391,-49769
4444.4,-24021,-43930,13427,-49783
4446.4,-23716,-43604,13308,-49884
4448.4,-23214,-43152,13318,-49865
4450.4,-22977,-43166,13392,-49806
4452.4,-23050,-43320,13346,-49797
4454.4,-23102,-43123,13357,-49688
4456.4,-23056,-42950,13533,-49494
4458.4,-23151,-43151,13634,-49442
4460.4,-23336,-43276,13584,-49504
4462.4,-23278,-42988,13553,-49526
4464.4,-23014,-42602,13489,-49605
4466.4,-22929,-42416,13314,-49769
4468.4,-23096,-42444,13301,-49721
4470.4,-23196,-42665,13607,-49389
4472.4,-23086,-42925,13894,-49147
4474.4,-22998,-43025,13869,-49215
4476.4,-23094,-43050,13682,-49390
4478.4,-23157,-43090,13548,-49491
4480.4,-22970,-42983,13450,-49573
4482.4,-22726,-42818,13310,-49702
4484.4,-22702,-43006,13113,-49872
4486.4,-22813,-43472,12934,-50028
4488.4,-22890,-43615,12941,-50033
4490.4,-23002,-43297,13177,-49840
4492.4,-23172,-43038,13361,-49693
4494.4,-23288,-43153,13206,-49831
4496.4,-23396,-43488,12840,-50132
4498.4,-23553,-43916,12596,-50323
4500.4,-23613,-44419,12580,-50349
4502.4,-23590,-44767,12666,-50298
4504.4,-23689,-44663,12725,-50244
4506.4,-23711,-44203,12686,-50273
4508.4,-23293,-43869,12573,-50377
4510.4,-22813,-44001,12528,-50383
4512.4,-23015,-44362,12634,-50206
4514.4,-23751,-44451,12810,-50004
4516.4,-24104,-44192,12909,-49959
4518.4,-23719,-43982,12838,-50119
4520.4,-23207,-44043,12640,-50384
4522.4,-23181,-44212,12514,-50524
4524.4,-23505,-44349,12575,-50409
4526.4,-23711,-44463,12673,-50234
4528.4,-23702,-44497,12658,-50226
4530.4,-23665,-44400,12594,-50323
4532.4,-23618,-44290,12546,-50383
4534.4,-23476,-44281,12500,-50409
4536.4,-23354,-44321,12512,-50397
4538.4,-23391,-44309,12589,-50353
4540.4,-23447,-44266,12583,-50391
4542.4,-23360,-44329,12495,-50519
4544.4,-23307,-44593,12502,-50592
4546.4,-23544,-44939,12527,-50649
4548.4,-23865,-45118,12349,-50849
4550.4,-23771,-45046,12141,-51071
4552.4,-23261,-44936,12273,-51051
4554.4,-22917,-45025,12726,-50815
4556.4,-22980,-45199,13229,-50549
4558.4,-22985,-45041,13707,-50255
4560.4,-22629,-44376,14195,-49834
4562.4,-22261,-43588,14655,-49279
4564.4,-22166,-43111,15061,-48632
4566.4,-22086,-42766,15385,-47919
4568.4,-21722,-41981,15563,-47129
4570.4,-21115,-40546,15628,-46227
4572.4,-20391,-38800,15675,-45258
4574.4,-19684,-37153,15692,-44350
4576.4,-19265,-35761,15683,-43510
4578.4,-19321,-34607,15784,-42610
4580.4,-19693,-33710,15951,-41719
4582.4,-20098,-33273,15796,-41283
4584.4,-20387,-33668,14996,-41771
4586.4,-20553,-35101,13696,-43158
4588.4,-20786,-37261,12292,-44990
4590.4,-21383,-39598,10899,-47009
4592.4,-22249,-41788,9340,-49322
4594.4,-22864,-43624,7820,-51660
4596.4,-23043,-44813,7115,-53119
4598.4,-23132,-45367,7602,-53229
4600.4,-23236,-45682,8615,-52656
4602.4,-23085,-45880,9378,-52230
4604.4,-22760,-45698,9927,-51984
4606.4,-22683,-45208,10533,-51655
4608.4,-22922,-44890,11071,-51314
4610.4,-23166,-44839,11449,-51054
4612.4,-23220,-44658,11846,-50777
4614.43,-23153,-44265,12229,-50520
4616.45,-23172,-44098,12385,-50422
4618.48,-23309,-44327,12375,-50453
4620.5,-23199,-44503,12334,-50562
4622.5,-22702,-44323,12212,-50761
4624.5,-22470,-44136,12136,-50835
4626.5,-22996,-44254,12370,-50568
4628.5,-23681,-44390,12711,-50262
4630.5,-23833,-44270,12739,-50298
4632.5,-23696,-44173,12613,-50431
4634.5,-23650,-44368,12700,-50301
4636.5,-23501,-44598,12783,-50174
4638.5,-23184,-44538,12545,-50377
4640.5,-23037,-44319,12265,-50638
4642.5,-23136,-44249,12274,-50635
4644.5,-23283,-44377,12436,-50484
4646.5,-23481,-44552,12601,-50330
4648.5,-23748,-44669,12783,-50173
4650.5,-23860,-44674,12841,-50122
4652.5,-23679,-44533,12739,-50185
4654.5,-23335,-44296,12758,-50130
4656.5,-23060,-44123,12868,-50016
4658.5,-23111,-44168,12693,-50164
4660.5,-23510,-44374,12412,-50390
4662.5,-23743,-44457,12570,-50229
4664.5,-23398,-44252,12976,-49887
4666.5,-22907,-43996,13009,-49903
4668.5,-22808,-43950,12759,-50170
4670.5,-22876,-44013,12694,-50255
4672.5,-22867,-44050,12758,-50188
4674.5,-23096,-44172,12735,-50168
4676.5,-23512,-44363,12763,-50125
4678.5,-23557,-44371,12883,-50039
4680.5,-23362,-44197,12889,-50068
4682.5,-23520,-44121,12814,-50181
4684.5,-23742,-44208,12841,-50213
4686.5,-23401,-44291,12871,-50204
4688.5,-22910,-44322,12775,-50250
4690.5,-23012,-44345,12738,-50238
4692.5,-23409,-44280,12880,-50092
4694.5,-23370,-44023,12998,-49986
4696.5,-22938,-43740,12968,-50028
4698.5,-22675,-43765,12953,-50063
4700.5,-22839,-44106,13016,-50007
4702.5,-23244,-44358,13001,-50015
4704.5,-23580,-44314,12900,-50121
4706.5,-23661,-44215,12903,-50127
4708.5,-23524,-44192,13048,-49971
4710.5,-23339,-44085,13175,-49831
4712.5,-23270,-43944,13205,-49806
4714.5,-23304,-43946,13176,-49837
4716.5,-23223,-43929,13120,-49879
4718.5,-22964,-43782,13079,-49909
4720.5,-22848,-43829,13076,-49913
4722.5,-23069,-44101,13064,-49921
4724.5,-23318,-44091,13045,-49923
4726.5,-23319,-43771,13125,-49830
4728.5,-23203,-43731,13302,-49661
4730.5,-23119,-44008,13444,-49540
4732.5,-23074,-44034,13528,-49478
4734.5,-23170,-43745,13620,-49393
4736.5,-23401,-43587,13685,-49298
4738.5,-23467,-43645,13697,-49234
4740.5,-23222,-43664,13742,-49177
4742.5,-22915,-43578,13819,-49133
4744.5,-22783,-43498,13812,-49159
4746.5,-22796,-43451,13736,-49228
4748.5,-22815,-43336,13728,-49251
4750.5,-22754,-43071,13822,-49180
4752.5,-22707,-42851,13967,-49001
4754.5,-22888,-42998,14158,-48757
4756.5,-23227,-43350,14350,-48580
4758.5,-23320,-43353,14452,-48531
4760.5,-23054,-42953,14480,-48505
4762.5,-22832,-42650,14529,-48429
4764.5,-22898,-42618,14603,-48371
4766.5,-22977,-42609,14665,-48336
4768.5,-22835,-42570,14766,-48212
4770.5,-22619,-42565,14925,-48012
4772.5,-22449,-42410,15047,-47886
4774.5,-22273,-42025,15126,-47818
4776.5,-22156,-41679,15292,-47634
4778.5,-22162,-41554,15540,-47367
4780.5,-22118,-41524,15671,-47255
4782.5,-21992,-41510,15627,-47330
4784.5,-22030,-41545,15609,-47336
4786.5,-22179,-41569,15736,-47142
4788.5,-22027,-41459,15886,-46921
4790.5,-21603,-41183,15979,-46815
4792.5,-21448,-40841,16111,-46707
4794.5,-21730,-40654,16293,-46510
4796.5,-22014,-40706,16334,-46413
4798.5,-21954,-40720,16197,-46532
4800.5,-21708,-40488,16160,-46587
4802.5,-21612,-40297,16361,-46353
4804.5,-21719,-40365,16543,-46099
4806.5,-21825,-40389,16526,-46086
4808.5,-21896,-40219,16519,-46095
4810.5,-22053,-40185,16622,-45965
4812.5,-22107,-40304,16583,-45971
4814.5,-21795,-40203,16346,-46219
4816.5,-21480,-39987,16223,-46362
4818.5,-21685,-40076,16298,-46267
4820.5,-22103,-40360,16282,-46223
4822.5,-22114,-40543,16111,-46330
4824.5,-21866,-40747,16032,-46381
4826.5,-21815,-40963,16043,-46395
4828.5,-21864,-40861,15909,-46581
4830.5,-21814,-40610,15682,-46835
4832.5,-21866,-40715,15618,-46886
4834.5,-22071,-41035,15679,-46802
4836.5,-22161,-41157,15609,-46875
4838.5,-22137,-41265,15360,-47172
4840.5,-22158,-41546,15074,-47538
4842.5,-22026,-41589,14833,-47848
4844.5,-21686,-41270,14659,-48049
4846.5,-21722,-41196,14560,-48133
4848.5,-22443,-41666,14492,-48169
4850.5,-23121,-42201,14423,-48216
4852.5,-23062,-42384,14391,-48257
4854.5,-22704,-42332,14392,-48291
4856.5,-22794,-42301,14328,-48376
4858.5,-23178,-42382,14141,-48553
4860.5,-23258,-42535,13921,-48774
4862.5,-23025,-42656,13816,-48925
4864.5,-22874,-42713,13836,-48957
4866.5,-22885,-42777,13833,-48964
4868.5,-22942,-42891,13743,-49021
4870.5,-23110,-43059,13695,-49056
4872.5,-23329,-43263,13720,-49060
4874.5,-23259,-43397,13647,-49177
4876.5,-22893,-43358,13438,-49403
4878.5,-22711,-43201,13267,-49546
4880.5,-22900,-43083,13176,-49579
4882.5,-23082,-43107,13090,-49617
4884.5,-23069,-43266,13092,-49607
4886.5,-23138,-43433,13250,-49486
4888.5,-23391,-43478,13375,-49406
4890.5,-23535,-43429,13313,-49478
4892.5,-23413,-43365,13201,-49573
4894.5,-23208,-43257,13173,-49611
4896.5,-23118,-43103,13168,-49645
4898.5,-23226,-43068,13173,-49626
4900.5,-23528,-43294,13274,-49479
4902.5,-23773,-43624,13377,-49371
4904.5,-23679,-43699,13283,-49492
4906.5,-23435,-43423,13099,-49672
4908.5,-23407,-43192,13127,-49635
4910.5,-23450,-43350,13295,-49512
4912.5,-23295,-43595,13259,-49595
4914.5,-23163,-43463,13097,-49721
4916.5,-23201,-43149,13226,-49528
4918.5,-23124,-43146,13594,-49178
4920.5,-23004,-43395,13707,-49142
4922.5,-23245,-43504,13456,-49422
4924.5,-23566,-43460,13208,-49636
4926.5,-23428,-43478,13172,-49645
4928.5,-23175,-43523,13243,-49577
4930.5,-23322,-43494,13303,-49518
4932.5,-23509,-43474,13298,-49515
4934.5,-23384,-43497,13207,-49608
4936.5,-23306,-43437,13114,-49709
4938.5,-23379,-43273,13113,-49718
4940.5,-23245,-43164,13152,-49694
4942.5,-23122,-43240,13172,-49685
4944.53,-23467,-43492,13259,-49595
4946.55,-23829,-43687,13404,-49457
4948.58,-23578,-43512,13392,-49502
4950.6,-23191,-43104,13190,-49718
4952.6,-23299,-43013,13105,-49770
4954.6,-23451,-43318,13252,-49599
4956.6,-23204,-43491,13332,-49527
4958.6,-23112,-43382,13215,-49628
4960.6,-23401,-43398,13139,-49656
4962.6,-23381,-43583,13160,-49630
4964.6,-22998,-43580,13090,-49752
4966.6,-23022,-43402,12992,-49884
4968.6,-23378,-43301,13057,-49826
4970.6,-23305,-43236,13164,-49759
4972.6,-22965,-43178,13151,-49827
4974.6,-23097,-43342,13164,-49805
4976.6,-23642,-43654,13328,-49597
4978.6,-23997,-43737,13474,-49462
4980.6,-23949,-43584,13446,-49539
4982.6,-23695,-43469,13279,-49719
4984.6,-23520,-43340,13062,-49923
4986.6,-23545,-43107,12899,-50100
4988.6,-23552,-43130,12893,-50121
4990.6,-23365,-43569,13031,-49956
4992.6,-23210,-43892,13183,-49763
4994.6,-23235,-43755,13193,-49735
4996.6,-23156,-43587,12994,-49912
4998.6,-22888,-43707,12772,-50086
5000.6,-22888,-43811,12831,-50001
5002.6,-23360,-43695,13102,-49757
5004.6,-23790,-43592,13217,-49680
5006.6,-23742,-43618,13109,-49794
5008.6,-23484,-43622,13021,-49875
5010.6,-23399,-43536,13003,-49896
5012.6,-23414,-43417,12966,-49949
5014.6,-23382,-43361,12949,-49988
5016.6,-23407,-43462,12946,-50003
5018.6,-23547,-43633,12867,-50060
5020.6,-23657,-43678,12807,-50075
5022.6,-23598,-43659,12881,-49971
5024.6,-23350,-43793,12927,-49930
5026.6,-23105,-43955,12806,-50094
5028.6,-23196,-43843,12668,-50284
5030.6,-23572,-43571,12639,-50311
5032.6,-23710,-43540,12648,-50234
5034.6,-23427,-43779,12671,-50154
5036.6,-23153,-43965,12753,-50066
5038.6,-23163,-44000,12835,-49996
5040.6,-23263,-44046,12844,-50014
5042.6,-23340,-44056,12836,-50096
5044.6,-23443,-43833,12878,-50117
5046.6,-23443,-43525,12951,-50036
5048.6,-23265,-43500,12992,-49965
5050.6,-23244,-43757,12967,-49994
5052.6,-23634,-43930,12922,-50029
5054.6,-24013,-43851,12954,-49958
5056.6,-23837,-43729,13026,-49892
5058.6,-23372,-43766,12979,-50001
5060.6,-23313,-43861,12828,-50184
5062.6,-23621,-43814,12766,-50249
5064.6,-23652,-43701,12757,-50295
5066.6,-23348,-43777,12618,-50449
5068.6,-23257,-44009,12496,-50491
5070.6,-23450,-44106,12634,-50281
5072.6,-23496,-44035,12798,-50159
5074.6,-23376,-43975,12711,-50305
5076.6,-23434,-43873,12648,-50341
5078.6,-23650,-43645,12837,-50131
5080.6,-23724,-43546,12921,-50098
5082.6,-23668,-43735,12699,-50346
5084.6,-23677,-43925,12559,-50458
5086.6,-23633,-43917,12662,-50370
5088.6,-23333,-43889,12694,-50397
5090.6,-23094,-43936,12623,-50476
5092.6,-23403,-43981,12692,-50363
5094.6,-23954,-44093,12779,-50249
5096.6,-23985,-44243,12665,-50369
5098.6,-23573,-44174,12545,-50509
5100.6,-23441,-43953,12623,-50438
5102.6,-23588,-43989,12735,-50294
5104.6,-23453,-44232,12722,-50262
5106.6,-23121,-44231,12647,-50338
5108.6,-23077,-43973,12557,-50463
5110.6,-23277,-43816,12482,-50552
5112.6,-23470,-43828,12529,-50502
5114.6,-23698,-43901,12698,-50341
5116.6,-23890,-44087,12816,-50218
5118.6,-23815,-44250,12793,-50216
5120.6,-23633,-44067,12711,-50297
5122.6,-23683,-43722,12657,-50371
5124.6,-23838,-43788,12636,-50394
5126.6,-23788,-44224,12602,-50423
5128.6,-23613,-44396,12539,-50488
5130.6,-23542,-44177,12526,-50485
5132.6,-23545,-44018,12606,-50374
5134.6,-23573,-44046,12657,-50335
5136.6,-23684,-44022,12586,-50454
5138.6,-23706,-43966,12511,-50544
5140.6,-23368,-44028,12527,-50519
5142.6,-22947,-44061,12509,-50548
5144.6,-23023,-43914,12382,-50685
5146.6,-23510,-43737,12298,-50740
5148.6,-23781,-43718,12389,-50621
5150.6,-23712,-43865,12574,-50442
5152.6,-23690,-44097,12717,-50316
5154.6,-23811,-44292,12781,-50271
5156.6,-23839,-44324,12768,-50321
5158.6,-23683,-44168,12647,-50470
5160.6,-23430,-43925,12448,-50643
5162.6,-23267,-43803,12361,-50669
5164.6,-23404,-43987,12515,-50494
5166.6,-23687,-44315,12703,-50345
5168.6,-23641,-44364,12638,-50451
5170.6,-23244,-44098,12422,-50655
5172.6,-23060,-43929,12387,-50651
5174.6,-23377,-43993,12562,-50468
5176.6,-23844,-43985,12697,-50345
5178.6,-24019,-43844,12701,-50338
5180.6,-23819,-43845,12678,-50352
5182.6,-23536,-44008,12688,-50359
5184.6,-23507,-44095,12697,-50385
5186.6,-23657,-44084,12658,-50448
5188.6,-23634,-44080,12585,-50533
5190.6,-23473,-44011,12597,-50526
5192.6,-23571,-43835,12791,-50331
5194.6,-23935,-43718,13051,-50080
5196.6,-24103,-43708,13167,-49986
5198.6,-23834,-43675,13107,-50064
5200.6,-23412,-43630,12976,-50203
5202.6,-23221,-43651,12853,-50341
5204.6,-23315,-43647,12790,-50410
5206.6,-23545,-43618,12800,-50381
5208.6,-23807,-43698,12803,-50369
5210.6,-23824,-43711,12749,-50464
5212.6,-23231,-43376,12735,-50525
5214.6,-22382,-42972,12869,-50394
5216.6,-22193,-42933,13126,-50143
5218.6,-22739,-43081,13359,-49948
5220.6,-23216,-43061,13417,-49912
5222.6,-23403,-43002,13281,-50018
5224.6,-23680,-43123,13145,-50112
5226.6,-23917,-43295,13214,-50013
5228.6,-23770,-43335,13435,-49777
5230.6,-23424,-43181,13538,-49672
5232.6,-23159,-42865,13384,-49821
5234.6,-23004,-42621,13147,-50039
5236.6,-23038,-42678,13096,-50082
5238.6,-23251,-42915,13245,-49942
5240.6,-23412,-43103,13364,-49820
5242.6,-23435,-43197,13329,-49854
5244.6,-23290,-43128,13260,-49950
5246.6,-22846,-42896,13259,-49952
5248.6,-22489,-42923,13255,-49899
5250.6,-22906,-43473,13161,-49965
5252.6,-23730,-43969,13007,-50159
5254.6,-23851,-43834,12876,-50292
5256.6,-23290,-43510,12827,-50276
5258.6,-23102,-43671,12837,-50251
5260.6,-23504,-44096,12803,-50354
5262.6,-23738,-44251,12647,-50555
5264.6,-23532,-44221,12448,-50746
5266.6,-23302,-44260,12347,-50859
5268.6,-23263,-44229,12344,-50885
5270.6,-23366,-44048,12333,-50871
5272.6,-23624,-43985,12316,-50861
5274.6,-23868,-44167,12385,-50824
5276.6,-23823,-44376,12517,-50728
5278.6,-23689,-44426,12589,-50616
5280.6,-23823,-44362,12561,-50566
5282.7,-23957,-44360,12450,-50629
5284.7,-23737,-44531,12299,-50777
5286.7,-23572,-44699,12251,-50846
5288.7,-23780,-44559,12386,-50734
5290.7,-23756,-44186,12498,-50609
5292.7,-23124,-43930,12402,-50677
5294.7,-22604,-43850,12256,-50836
5296.7,-22809,-43834,12256,-50878
5298.7,-23416,-44061,12346,-50799
5300.7,-23953,-44581,12446,-50690
5302.7,-24216,-44881,12540,-50626
5304.7,-23969,-44607,12521,-50702
5306.7,-23288,-44183,12350,-50909
5308.7,-22852,-44102,12202,-51084
5310.7,-23067,-44309,12160,-51176
5312.7,-23460,-44638,12099,-51309
5314.7,-23482,-45115,12012,-51496
5316.7,-23306,-45582,12074,-51578
5318.7,-23324,-45660,12375,-51443
5320.7,-23437,-45244,12889,-51113
5322.7,-23384,-44687,13548,-50650
5324.7,-23278,-44366,14184,-50129
5326.7,-23195,-44199,14628,-49617
5328.7,-22823,-43746,14918,-49102
5330.7,-22104,-42820,15196,-48480
5332.7,-21549,-41673,15482,-47639
5334.7,-21371,-40472,15718,-46603
5336.7,-21086,-39080,15853,-45567
5338.7,-20407,-37527,15833,-44708
5340.7,-19767,-36160,15727,-43960
5342.7,-19656,-35153,15743,-43145
5344.7,-20009,-34379,15869,-42372
5346.7,-20423,-33956,15673,-42138
5348.7,-20582,-34395,14762,-42896
5350.7,-20508,-35885,13308,-44525
5352.7,-20598,-37892,11816,-46449
5354.7,-21228,-39850,10477,-48347
5356.7,-22209,-41778,9133,-50350
5358.7,-22936,-43731,7899,-52334
5360.7,-23187,-45243,7304,-53633
5362.7,-23284,-45885,7537,-53906
5364.7,-23423,-45900,8127,-53632
5366.7,-23501,-45812,8692,-53308
5368.7,-23610,-45797,9359,-52867
5370.7,-23907,-45714,10169,-52257
5372.7,-24050,-45478,10821,-51767
5374.7,-23628,-45167,11198,-51534
5376.7,-23017,-44875,11484,-51378
5378.7,-22913,-44645,11741,-51224
5380.7,-23210,-44531,11879,-51160
5382.7,-23293,-44580,11927,-51170
5384.7,-23189,-44696,11964,-51174
5386.7,-23356,-44708,12004,-51143
5388.7,-23643,-44625,12085,-51058
5390.7,-23618,-44607,12213,-50952
5392.7,-23513,-44695,12267,-50946
5394.7,-23673,-44764,12190,-51049
5396.7,-23726,-44728,12115,-51116
5398.7,-23366,-44615,12137,-51090
5400.7,-23035,-44459,12179,-51066
5402.7,-23049,-44323,12169,-51093
5404.7,-23129,-44382,12124,-51143
5406.7,-23153,-44686,12079,-51197
5408.7,-23278,-44907,12089,-51194
5410.7,-23382,-44768,12188,-51097
5412.7,-23315,-44538,12288,-51017
5414.7,-23310,-44565,12306,-51034
5416.7,-23543,-44672,12321,-51026
5418.7,-23799,-44627,12392,-50937
5420.7,-23796,-44599,12398,-50911
5422.7,-23458,-44610,12309,-50982
5424.7,-23013,-44393,12270,-51002
5426.7,-22932,-44147,12314,-50959
5428.7,-23392,-44367,12351,-50938
5430.7,-23926,-44806,12401,-50888
5432.7,-24008,-44804,12479,-50786
5434.7,-23683,-44494,12476,-50753
5436.7,-23343,-44483,12397,-50806
5438.7,-23283,-44724,12392,-50823
5440.7,-23541,-44746,12500,-50751
5442.7,-23763,-44514,12643,-50628
5444.7,-23511,-44287,12722,-50568
5446.7,-23030,-44197,12619,-50709
5448.7,-23030,-44345,12384,-50936
5450.7,-23458,-44704,12288,-50966
5452.7,-23601,-44891,12386,-50852
5454.7,-23485,-44679,12469,-50848
5456.7,-23672,-44427,12550,-50832
5458.7,-23853,-44397,12753,-50628
5460.7,-23420,-44340,12862,-50522
5462.7,-22958,-44251,12689,-50718
5464.7,-23222,-44466,12488,-50914
5466.7,-23548,-44703,12448,-50937
5468.7,-23144,-44383,12405,-50990
5470.7,-22734,-43944,12348,-51050
5472.7,-23165,-44189,12487,-50887
5474.7,-23797,-44665,12766,-50582
5476.7,-23719,-44502,12950,-50373
5478.7,-23218,-44123,12981,-50312
5480.7,-23005,-44307,12879,-50389
5482.7,-23100,-44619,12709,-50548
5484.7,-23174,-44420,12679,-50581
5486.7,-23163,-44157,12842,-50452
5488.7,-23143,-44336,12934,-50407
5490.7,-23106,-44509,12879,-50480
5492.7,-23037,-44238,12927,-50441
5494.7,-22978,-43883,13091,-50320
5496.7,-22976,-43835,13127,-50320
5498.7,-23018,-43934,13062,-50359
5500.7,-23051,-43947,13091,-50292
5502.7,-23060,-43906,13155,-50240
5504.7,-23066,-43847,13156,-50265
5506.7,-23050,-43709,13208,-50211
5508.7,-22995,-43549,13339,-50075
5510.7,-22947,-43524,13406,-50008
5512.7,-22902,-43648,13404,-49979
5514.7,-22805,-43773,13432,-49899
5516.7,-22758,-43738,13458,-49842
5518.7,-22876,-43468,13473,-49820
5520.7,-22937,-43146,13562,-49726
5522.7,-22709,-43172,13702,-49601
5524.7,-22499,-43593,13827,-49514
5526.7,-22688,-43844,14020,-49335
5528.7,-22964,-43568,14268,-49057
5530.7,-22835,-43152,14365,-48929
5532.7,-22530,-42991,14323,-48963
5534.7,-22524,-42915,14404,-48883
5536.7,-22620,-42715,14605,-48691
5538.7,-22349,-42463,14702,-48612
5540.7,-21885,-42208,14722,-48592
5542.7,-21769,-42029,14817,-48466
5544.7,-22022,-42103,14909,-48344
5546.7,-22162,-42225,14913,-48329
5548.7,-22004,-41915,14975,-48246
5550.7,-21873,-41307,15220,-47943
5552.7,-21956,-41048,15539,-47541
5554.7,-21948,-41233,15733,-47286
5556.7,-21664,-41323,15701,-47300
5558.7,-21475,-41085,15573,-47420
5560.7,-21621,-40785,15600,-47371
5562.7,-21699,-40636,15767,-47205
5564.7,-21453,-40674,15794,-47220
5566.7,-21268,-40889,15655,-47386
5568.7,-21342,-41076,15610,-47415
5570.7,-21327,-40980,15690,-47329
5572.7,-21218,-40767,15712,-47318
5574.7,-21387,-40772,15709,-47294
5576.7,-21638,-40862,15806,-47140
5578.7,-21525,-40738,15917,-47007
5580.7,-21339,-40556,15917,-47013
5582.7,-21486,-40499,15846,-47061
5584.7,-21646,-40369,15777,-47081
5586.7,-21637,-40248,15736,-47103
5588.7,-21866,-40568,15675,-47197
5590.7,-22184,-41100,15455,-47451
5592.7,-21937,-41153,15109,-47798
5594.7,-21464,-40893,14914,-47985
5596.7,-21647,-41046,14961,-47958
5598.7,-22165,-41520,14999,-47945
5600.7,-22108,-41720,14907,-48046
5602.7,-21729,-41695,14792,-48179
5604.73,-21786,-41836,14654,-48354
5606.75,-22073,-42097,14448,-48595
5608.78,-22107,-42254,14276,-48796
5610.8,-22185,-42339,14193,-48909
5612.8,-22574,-42433,14124,-48997
5614.8,-22765,-42506,14063,-49081
5616.8,-22456,-42542,14019,-49197
5618.8,-22259,-42583,13924,-49368
5620.8,-22623,-42664,13837,-49455
5622.8,-22962,-42757,13863,-49397
5624.8,-22730,-42821,13847,-49432
5626.8,-22508,-42911,13610,-49698
5628.8,-22960,-43125,13327,-49957
5630.8,-23540,-43376,13231,-50030
5632.8,-23450,-43444,13244,-50037
5634.8,-23046,-43314,13215,-50056
5636.8,-23059,-43228,13184,-50039
5638.8,-23325,-43377,13194,-50040
5640.8,-23389,-43726,13180,-50139
5642.8,-23396,-44080,13100,-50283
5644.8,-23473,-44233,12969,-50426
5646.8,-23288,-44116,12816,-50582
5648.8,-22842,-43872,12713,-50675
5650.8,-22681,-43742,12717,-50630
5652.8,-22957,-43823,12774,-50530
5654.8,-23244,-43969,12829,-50460
5656.8,-23387,-43993,12901,-50389
5658.8,-23564,-43945,12951,-50350
5660.8,-23608,-44004,12890,-50439
5662.8,-23265,-44108,12761,-50593
5664.8,-22921,-44034,12696,-50660
5666.8,-23099,-43865,12702,-50644
5668.8,-23568,-43904,12731,-50608
5670.8,-23769,-44101,12785,-50558
5672.8,-23604,-44068,12790,-50583
5674.8,-23256,-43724,12676,-50734
5676.8,-22928,-43456,12653,-50759
5678.8,-22926,-43531,12903,-50501
5680.8,-23256,-43788,13115,-50335
5682.8,-23399,-43990,12949,-50565
5684.8,-23118,-44080,12676,-50821
5686.8,-22842,-44039,12659,-50767
5688.8,-22891,-43883,12727,-50674
5690.8,-23148,-43812,12703,-50716
5692.8,-23482,-43983,12809,-50605
5694.8,-23734,-44209,13041,-50357
5696.8,-23667,-44206,13038,-50366
5698.8,-23412,-43976,12839,-50563
5700.8,-23343,-43751,12827,-50557
5702.8,-23428,-43697,12957,-50434
5704.8,-23377,-43780,12928,-50491
5706.8,-23166,-43825,12830,-50603
5708.8,-22920,-43778,12854,-50576
5710.8,-22747,-43836,12852,-50586
5712.8,-22843,-44056,12707,-50765
5714.8,-23187,-44153,12576,-50930
5716.8,-23338,-44045,12534,-50971
5718.8,-23105,-44061,12501,-50995
5720.8,-22901,-44238,12508,-51038
5722.8,-22998,-44197,12573,-51054
5724.8,-23175,-43972,12576,-51067
5726.8,-23308,-43966,12534,-51060
5728.8,-23502,-44070,12629,-50920
5730.8,-23686,-43923,12838,-50661
5732.8,-23743,-43772,12944,-50491
5734.8,-23790,-43986,12878,-50547
5736.8,-23837,-44215,12747,-50728
5738.8,-23662,-44061,12660,-50833
5740.8,-23312,-43831,12681,-50786
5742.8,-23178,-43912,12762,-50713
5744.8,-23360,-44145,12741,-50769
5746.8,-23476,-44254,12599,-50911
5748.8,-23263,-44184,12533,-50955
5750.8,-22999,-43976,12588,-50894
5752.8,-23058,-43770,12561,-50909
5754.8,-23322,-43762,12438,-51012
5756.8,-23421,-43937,12463,-50997
5758.8,-23313,-44091,12637,-50854
5760.8,-23156,-44110,12648,-50831
5762.8,-22979,-44069,12459,-50971
5764.8,-22903,-44167,12373,-51032
5766.8,-23099,-44453,12444,-50968
5768.8,-23283,-44579,12420,-50992
5770.8,-23101,-44302,12294,-51109
5772.8,-22980,-44046,12331,-51092
5774.8,-23438,-44204,12517,-50946
5776.8,-23898,-44359,12555,-50928
5778.8,-23600,-44160,12374,-51107
5780.8,-23074,-44100,12237,-51249
5782.8,-23194,-44441,12318,-51180
5784.8,-23668,-44548,12469,-51037
5786.8,-23816,-44164,12458,-51049
5788.8,-23715,-43946,12301,-51203
5790.8,-23561,-44177,12196,-51288
5792.8,-23236,-44398,12207,-51249
5794.8,-22971,-44447,12235,-51215
5796.8,-23041,-44474,12245,-51224
5798.8,-23015,-44268,12272,-51212
5800.8,-22640,-43814,12269,-51214
5802.8,-22616,-43728,12213,-51292
5804.8,-23237,-44162,12192,-51372
5806.8,-23677,-44439,12233,-51372
5808.8,-23543,-44337,12247,-51333
5810.8,-23430,-44335,12176,-51338
5812.8,-23501,-44435,12045,-51427
5814.8,-23307,-44261,11933,-51521
5816.8,-22993,-44076,11971,-51471
5818.8,-23021,-44308,12140,-51316
5820.8,-23176,-44613,12209,-51293
5822.8,-23068,-44527,12103,-51426
5824.8,-22892,-44300,12042,-51459
5826.8,-22988,-44368,12133,-51333
5828.8,-23335,-44682,12187,-51280
5830.8,-23616,-44856,12071,-51403
5832.8,-23496,-44610,11921,-51519
5834.8,-23156,-44147,11970,-51414
5836.8,-23237,-44041,12235,-51132
5838.8,-23710,-44417,12422,-50993
5840.8,-23794,-44709,12307,-51171
5842.8,-23476,-44617,12116,-51393
5844.8,-23501,-44486,12116,-51394
5846.8,-23757,-44468,12143,-51346
5848.8,-23610,-44357,12017,-51439
5850.8,-23372,-44283,11949,-51508
5852.8,-23524,-44477,12072,-51438
5854.8,-23580,-44674,12158,-51391
5856.8,-23295,-44633,12088,-51453
5858.8,-23318,-44573,12032,-51509
5860.8,-23671,-44563,12109,-51466
5862.8,-23605,-44456,12248,-51340
5864.8,-23270,-44480,12282,-51287
5866.8,-23425,-44781,12117,-51451
5868.8,-23767,-44863,11919,-51659
5870.8,-23475,-44486,11913,-51632
5872.8,-22778,-44188,11969,-51506
5874.83,-22515,-44222,11876,-51558
5876.85,-22912,-44237,11843,-51619
5878.88,-23636,-44239,12110,-51412
5880.9,-24219,-44479,12396,-51162
5882.9,-24177,-44626,12335,-51232
5884.9,-23527,-44382,12086,-51493
5886.9,-22949,-44255,11998,-51584
5888.9,-22910,-44626,12040,-51519
5890.9,-23165,-44979,11985,-51545
5892.9,-23417,-44905,11891,-51609
5894.9,-23659,-44769,11979,-51469
5896.9,-23773,-44822,12190,-51232
5898.9,-23587,-44755,12273,-51221
5900.9,-23279,-44444,12201,-51418
5902.9,-23128,-44161,12157,-51545
5904.9,-23143,-44060,12191,-51549
5906.9,-23266,-44200,12195,-51560
5908.9,-23467,-44636,12136,-51593
5910.9,-23547,-44979,12079,-51584
5912.9,-23390,-44687,12077,-51526
5914.9,-23271,-44030,12129,-51432
5916.9,-23397,-43772,12232,-51300
5918.9,-23547,-43960,12387,-51146
5920.9,-23601,-44115,12559,-51009
5922.9,-23781,-44169,12665,-50948
5924.9,-23990,-44260,12658,-50992
5926.9,-23781,-44233,12548,-51108
5928.9,-23251,-44061,12362,-51257
5930.9,-23010,-44080,12175,-51400
5932.9,-23153,-44396,12108,-51452
5934.9,-23217,-44650,12185,-51369
5936.9,-23122,-44514,12332,-51206
5938.9,-23207,-44082,12511,-51011
5940.9,-23482,-43736,12683,-50825
5942.9,-23615,-43703,12746,-50753
5944.9,-23478,-43776,12701,-50824
5946.9,-23228,-43679,12678,-50906
5948.9,-23081,-43521,12691,-50924
5950.9,-23165,-43495,12654,-50939
5952.9,-23375,-43447,12600,-50968
5954.9,-23401,-43202,12629,-50949
5956.9,-23119,-42937,12733,-50855
5958.9,-22799,-42872,12860,-50713
5960.9,-22765,-42970,12953,-50603
5962.9,-23012,-43140,12930,-50604
5964.9,-23279,-43364,12826,-50648
5966.9,-23381,-43590,12786,-50629
5968.9,-23295,-43722,12774,-50661
5970.9,-23092,-43730,12628,-50886
5972.9,-22963,-43742,12408,-51159
5974.9,-23086,-43929,12291,-51294
5976.9,-23287,-44179,12232,-51373
5978.9,-23255,-44187,12124,-51479
5980.9,-23127,-44070,12028,-51514
5982.9,-23225,-44272,11969,-51494
5984.9,-23399,-44667,11857,-51567
5986.9,-23373,-44682,11740,-51699
5988.9,-23302,-44435,11741,-51747
5990.9,-23306,-44547,11814,-51727
5992.9,-23151,-44882,11882,-51696
5994.9,-22876,-44829,11960,-51641
5996.9,-22864,-44564,11960,-51642
5998.9,-23144,-44661,11797,-51775
6000.9,-23398,-44927,11632,-51905
6002.9,-23487,-44856,11623,-51895
6004.9,-23479,-44586,11665,-51834
6006.9,-23497,-44501,11677,-51813
6008.9,-23652,-44617,11735,-51788
6010.9,-23766,-44855,11794,-51774
6012.9,-23511,-45145,11732,-51842
6014.9,-23049,-45198,11628,-51945
6016.9,-22881,-44910,11614,-51984
6018.9,-23077,-44699,11664,-51950
6020.9,-23358,-44850,11745,-51851
6022.9,-23588,-45037,11849,-51720
6024.9,-23608,-44902,11868,-51678
6026.9,-23314,-44589,11735,-51796
6028.9,-23145,-44478,11602,-51945
6030.9,-23518,-44702,11638,-51967
6032.9,-23933,-45017,11780,-51899
6034.9,-23735,-45126,11853,-51891
6036.9,-23302,-45127,11819,-51969
6038.9,-23303,-45351,11778,-52053
6040.9,-23495,-45737,11791,-52132
6042.9,-23327,-45855,11879,-52198
6044.9,-22979,-45560,12163,-52093
6046.9,-22870,-45082,12741,-51692
6048.9,-22928,-44594,13456,-51116
6050.9,-23002,-44126,14098,-50489
6052.9,-23116,-43655,14686,-49746
6054.9,-22938,-43019,15153,-48966
6056.9,-22063,-42084,15199,-48398
6058.9,-20981,-40982,14916,-47902
6060.9,-20572,-39827,14903,-47006
6062.9,-20676,-38512,15246,-45784
6064.9,-20445,-37124,15333,-44835
6066.9,-19908,-35970,15080,-44214
6068.9,-19879,-35023,15112,-43451
6070.9,-20519,-34172,15334,-42812
6072.9,-21192,-34047,14794,-43253
6074.9,-21613,-35471,13340,-44894
6076.9,-22092,-38107,11838,-46863
6078.9,-22672,-40670,10542,-48795
6080.9,-22987,-42451,8956,-51006
6082.9,-23076,-43752,7375,-53157
6084.9,-23370,-44971,6751,-54348
6086.9,-23809,-45989,7089,-54543
6088.9,-23909,-46488,7576,-54464
6090.9,-23713,-46446,7995,-54328
6092.9,-23674,-46164,8626,-53926
6094.9,-23763,-45913,9318,-53429
6096.9,-23633,-45711,9788,-53103
6098.9,-23372,-45485,10157,-52838
6100.9,-23305,-45278,10550,-52541
6102.9,-23437,-45191,10847,-52343
6104.9,-23543,-45193,11049,-52225
6106.9,-23455,-45131,11256,-52081
6108.9,-23208,-44970,11392,-52010
6110.9,-23089,-44902,11379,-52104
6112.9,-23242,-45035,11324,-52210
6114.9,-23325,-45163,11336,-52184
6116.9,-23120,-45112,11401,-52077
6118.9,-22997,-45004,11476,-51981
6120.9,-23171,-44928,11550,-51904
6122.9,-23327,-44824,11635,-51818
6124.9,-23426,-44856,11728,-51748
6126.9,-23732,-45197,11760,-51757
6128.9,-23922,-45461,11706,-51828
6130.9,-23533,-45217,11651,-51867
6132.9,-23056,-44841,11629,-51868
6134.9,-23220,-44894,11592,-51882
6136.9,-23703,-45103,11586,-51869
6138.9,-23743,-44976,11679,-51786
6140.9,-23376,-44804,11770,-51718
6142.9,-23131,-45004,11744,-51736
6144.93,-23155,-45239,11692,-51769
6146.95,-23279,-45101,11698,-51773
6148.98,-23378,-44878,11677,-51823
6151.0,-23349,-44893,11608,-51925
6153.0,-23177,-44949,11615,-51969
6155.0,-23096,-44892,11699,-51929
6157.0,-23271,-44895,11738,-51890
6159.0,-23426,-44945,11764,-51835
6161.0,-23272,-44846,11903,-51675
6163.0,-23090,-44716,12083,-51482
6165.0,-23268,-44803,12127,-51441
6167.0,-23481,-44979,12000,-51597
6169.0,-23216,-44951,11796,-51828
6171.0,-22816,-44766,11644,-51990
6173.0,-22939,-44706,11641,-52008
6175.0,-23373,-44869,11737,-51930
6177.0,-23498,-45068,11802,-51868
6179.0,-23359,-45047,11857,-51799
6181.0,-23295,-44747,12004,-51627
6183.0,-23309,-44450,12155,-51443
6185.0,-23436,-44483,12162,-51414
6187.0,-23726,-44759,12105,-51473
6189.0,-23741,-44892,12120,-51470
6191.0,-23189,-44771,12137,-51458
6193.0,-22684,-44637,12105,-51490
6195.0,-22803,-44621,12131,-51450
6197.0,-23120,-44630,12190,-51356
6199.0,-23086,-44627,12105,-51393
6201.0,-22932,-44657,11933,-51508
6203.0,-22999,-44661,11945,-51455
6205.0,-23143,-44542,12168,-51235
6207.0,-23218,-44378,12367,-51072
6209.0,-23328,-44360,12413,-51064
6211.0,-23397,-44503,12349,-51161
6213.0,-23220,-44592,12255,-51269
6215.0,-22969,-44465,12207,-51286
6217.0,-22997,-44233,12208,-51241
6219.0,-23239,-44104,12194,-51259
6221.0,-23346,-44132,12223,-51259
6223.0,-23223,-44216,12399,-51076
6225.0,-23017,-44228,12592,-50866
6227.0,-22889,-44164,12614,-50879
6229.0,-22957,-44201,12588,-50976
6231.0,-23144,-44411,12670,-50945
6233.0,-23137,-44495,12717,-50914
6235.0,-22849,-44173,12634,-50975
6237.0,-22609,-43716,12612,-50938
6239.0,-22631,-43623,12721,-50768
6241.0,-22735,-43863,12801,-50652
6243.0,-22721,-43953,12870,-50566
6245.0,-22621,-43759,13056,-50373
6247.0,-22549,-43659,13229,-50215
6249.0,-22574,-43799,13235,-50233
6251.0,-22642,-43824,13228,-50245
6253.0,-22567,-43577,13354,-50108
6255.0,-22267,-43347,13468,-49978
6257.0,-21997,-43200,13512,-49906
6259.0,-22127,-42929,13671,-49714
6261.0,-22599,-42700,13934,-49436
6263.0,-22795,-42785,14039,-49327
6265.0,-22295,-42838,13986,-49349
6267.0,-21625,-42446,14066,-49214
6269.0,-21587,-41993,14321,-48922
6271.0,-22025,-42020,14498,-48729
6273.0,-22122,-42322,14512,-48696
6275.0,-21732,-42356,14496,-48695
6277.0,-21408,-42042,14523,-48663
6279.0,-21372,-41689,14607,-48551
6281.0,-21396,-41493,14792,-48313
6283.0,-21421,-41367,15013,-48053
6285.0,-21504,-41203,15112,-47926
6287.0,-21486,-41116,15067,-47930
6289.0,-21296,-41191,14990,-47985
6291.0,-21237,-41220,14953,-48039
6293.0,-21489,-41088,14961,-48031
6295.0,-21702,-41034,14999,-47960
6297.0,-21580,-41144,15045,-47894
6299.0,-21473,-41176,15110,-47832
6301.0,-21740,-41124,15176,-47753
6303.0,-21973,-41196,15132,-47785
6305.0,-21691,-41243,14967,-47955
6307.0,-21288,-41023,14888,-48023
6309.0,-21364,-40850,14978,-47906
6311.0,-21696,-41118,15002,-47889
6313.0,-21775,-41533,14821,-48100
6315.0,-21674,-41579,14629,-48277
6317.0,-21605,-41369,14556,-48310
6319.0,-21498,-41380,14469,-48409
6321.0,-21524,-41650,14314,-48627
6323.0,-22012,-41830,14222,-48765
6325.0,-22629,-41860,14223,-48787
6327.0,-22713,-42003,14193,-48874
6329.0,-22357,-42288,14068,-49105
6331.0,-22145,-42476,13866,-49409
6333.0,-22208,-42537,13634,-49696
6335.0,-22400,-42644,13494,-49850
6337.0,-22776,-42773,13534,-49807
6339.0,-23220,-42792,13623,-49721
6341.0,-23351,-42809,13555,-49814
6343.0,-23184,-42994,13348,-50053
6345.0,-23114,-43246,13190,-50235
6347.0,-23158,-43349,13124,-50338
6349.0,-22962,-43290,13024,-50487
6351.0,-22578,-43213,12863,-50663
6353.0,-22541,-43253,12773,-50737
6355.0,-23066,-43491,12776,-50740
6357.0,-23649,-43859,12738,-50791
6359.0,-23692,-44084,12640,-50875
6361.0,-23232,-44006,12574,-50946
6363.0,-22782,-43862,12502,-51063
6365.0,-22702,-43909,12389,-51187
6367.0,-22960,-44044,12367,-51164
6369.0,-23277,-44100,12428,-51069
6371.0,-23338,-44110,12364,-51128
6373.0,-23125,-44092,12226,-51264
6375.0,-23021,-44043,12267,-51262
6377.0,-23257,-44094,12397,-51211
6379.0,-23503,-44211,12376,-51247
6381.0,-23442,-44141,12311,-51246
6383.0,-23338,-43960,12345,-51182
6385.0,-23506,-44007,12311,-51250
6387.0,-23733,-44213,12169,-51397
6389.0,-23742,-44282,12171,-51357
6391.0,-23663,-44287,12344,-51173
6393.0,-23630,-44364,12447,-51098
6395.0,-23556,-44370,12449,-51121
6397.0,-23483,-44324,12466,-51117
6399.0,-23489,-44374,12431,-51164
6401.0,-23374,-44331,12291,-51305
6403.0,-23064,-44108,12211,-51373
6405.0,-22911,-44122,12249,-51332
6407.0,-23102,-44447,12237,-51348
6409.0,-23364,-44510,12182,-51397
6411.0,-23495,-44179,12273,-51291
6413.0,-23550,-43949,12436,-51123
6415.0,-23545,-43926,12415,-51146
6417.0,-23481,-43864,12260,-51290
6419.0,-23412,-43871,12220,-51320
6421.0,-23274,-44012,12278,-51277
6423.0,-23043,-43950,12267,-51314
6425.03,-22966,-43734,12214,-51366
6427.05,-23180,-43883,12224,-51332
6429.08,-23386,-44321,12277,-51262
6431.1,-23374,-44424,12324,-51206
6433.1,-23413,-44188,12372,-51153
6435.1,-23682,-44150,12404,-51113
6437.1,-23848,-44369,12379,-51122
6439.1,-23643,-44461,12263,-51217
6441.1,-23326,-44325,12084,-51389
6443.1,-23220,-44127,12020,-51462
6445.1,-23222,-43965,12202,-51305
6447.1,-23084,-43907,12395,-51161
6449.1,-22904,-43999,12335,-51283
6451.1,-23021,-44158,12216,-51428
6453.1,-23414,-44263,12293,-51313
6455.1,-23588,-44234,12382,-51157
6457.1,-23339,-44058,12316,-51182
6459.1,-23103,-43920,12292,-51213
6461.1,-23160,-44054,12346,-51177
6463.1,-23260,-44338,12269,-51246
6465.1,-23330,-44436,12143,-51349
6467.1,-23520,-44306,12190,-51301
6469.1,-23613,-44162,12253,-51251
6471.1,-23496,-44130,12136,-51375
6473.1,-23566,-44174,12040,-51478
6475.1,-23749,-44137,12156,-51376
6477.1,-23466,-43967,12292,-51238
6479.1,-23005,-43937,12235,-51269
6481.1,-23101,-44196,12062,-51409
6483.1,-23375,-44368,11934,-51509
6485.1,-23178,-44184,11893,-51530
6487.1,-23039,-44003,11935,-51473
6489.1,-23489,-44148,12087,-51310
6491.1,-23932,-44417,12268,-51125
6493.1,-23900,-44547,12287,-51120
6495.1,-23759,-44490,12129,-51298
6497.1,-23684,-44315,12018,-51426
6499.1,-23493,-44260,12009,-51450
6501.1,-23333,-44470,11937,-51531
6503.1,-23337,-44627,11838,-51623
6505.1,-23296,-44474,11879,-51570
6507.1,-23235,-44298,11952,-51494
6509.1,-23362,-44283,11901,-51533
6511.1,-23441,-44157,11875,-51543
6513.1,-23225,-44002,11956,-51465
6515.1,-23059,-44266,11957,-51479
6517.1,-23145,-44713,11840,-51594
6519.1,-23097,-44661,11791,-51631
6521.1,-22913,-44279,11838,-51571
6523.1,-23178,-44293,11886,-51508
6525.1,-23784,-44641,11926,-51472
6527.1,-23896,-44707,11931,-51485
6529.1,-23425,-44461,11879,-51545
6531.1,-23107,-44303,11875,-51567
6533.1,-23192,-44319,11926,-51561
6535.1,-23365,-44362,11866,-51643
6537.1,-23480,-44324,11707,-51765
6539.1,-23470,-44174,11663,-51765
6541.1,-23272,-44108,11766,-51652
6543.1,-23214,-44317,11849,-51557
6545.1,-23564,-44488,11862,-51523
6547.1,-23869,-44310,11851,-51536
6549.1,-23647,-44189,11802,-51596
6551.1,-23149,-44448,11714,-51666
6553.1,-22872,-44620,11677,-51682
6555.1,-23012,-44512,11726,-51648
6557.1,-23503,-44680,11775,-51629
6559.1,-23961,-45065,11784,-51631
6561.1,-23938,-44879,11833,-51591
6563.1,-23596,-44258,11931,-51517
6565.1,-23446,-44160,11950,-51506
6567.1,-23493,-44568,11843,-51591
6569.1,-23424,-44658,11727,-51687
6571.1,-23237,-44411,11669,-51749
6573.1,-23033,-44411,11621,-51804
6575.1,-22848,-44612,11581,-51844
6577.1,-22941,-44665,11594,-51843
6579.1,-23437,-44695,11649,-51806
6581.1,-23815,-44835,11695,-51758
6583.1,-23589,-44796,11697,-51748
6585.1,-23145,-44498,11644,-51804
6587.1,-23156,-44335,11604,-51839
6589.1,-23643,-44539,11652,-51771
6591.1,-24100,-44832,11733,-51674
6593.1,-24159,-44836,11777,-51619
6595.1,-23894,-44520,11819,-51565
6597.1,-23662,-44196,11840,-51550
6599.1,-23643,-44130,11737,-51675
6601.1,-23629,-44252,11569,-51844
6603.1,-23441,-44405,11514,-51878
6605.1,-23232,-44606,11601,-51781
6607.1,-23112,-44787,11719,-51669
6609.1,-22973,-44712,11774,-51619
6611.1,-22881,-44447,11733,-51654
6613.1,-23079,-44362,11680,-51694
6615.1,-23454,-44485,11715,-51642
6617.1,-23603,-44477,11757,-51591
6619.1,-23517,-44309,11722,-51634
6621.1,-23608,-44257,11743,-51629
6623.1,-23882,-44281,11858,-51514
6625.1,-23785,-44143,11884,-51464
6627.1,-23215,-43963,11856,-51477
6629.1,-22903,-43977,11991,-51382
6631.1,-23246,-44038,12167,-51277
6633.1,-23621,-43961,12156,-51309
6635.1,-23507,-43936,12110,-51317
6637.1,-23325,-44079,12167,-51242
6639.1,-23470,-44136,12143,-51280
6641.1,-23556,-43993,12039,-51380
6643.1,-23272,-43907,12091,-51306
6645.1,-23048,-44014,12222,-51165
6647.1,-23269,-44080,12222,-51155
6649.1,-23568,-43870,12200,-51154
6651.1,-23442,-43497,12280,-51065
6653.1,-23071,-43335,12322,-51036
6655.1,-22933,-43580,12277,-51087
6657.1,-22987,-43928,12259,-51095
6659.1,-22924,-43913,12278,-51064
6661.1,-22933,-43562,12321,-51009
6663.1,-23318,-43313,12437,-50879
6665.1,-23679,-43350,12545,-50765
6667.1,-23529,-43433,12534,-50785
6669.1,-23232,-43401,12494,-50832
6671.1,-23346,-43396,12519,-50786
6673.1,-23618,-43490,12535,-50726
6675.1,-23516,-43487,12519,-50722
6677.1,-23146,-43335,12515,-50740
6679.1,-22986,-43355,12441,-50831
6681.1,-23141,-43699,12215,-51052
6683.1,-23327,-43952,11975,-51279
6685.1,-23374,-43771,11870,-51362
6687.1,-23357,-43522,11843,-51356
6689.1,-23338,-43734,11824,-51356
6691.1,-23329,-44274,11883,-51319
6693.1,-23325,-44589,11950,-51296
6695.13,-23079,-44513,11728,-51534
6697.15,-22431,-44377,11271,-51972
6699.18,-21996,-44463,11121,-52119
6701.2,-22415,-44690,11415,-51863
6703.2,-23084,-44827,11573,-51737
6705.2,-23216,-44779,11404,-51894
6707.2,-23425,-44665,11497,-51783
6709.2,-24349,-44640,12012,-51274
6711.2,-25003,-44631,12297,-51004
6713.2,-24495,-44444,12050,-51261
6715.2,-23709,-44224,11709,-51606
6717.2,-23628,-44332,11569,-51723
6719.2,-23799,-44664,11512,-51743
6721.2,-23668,-44779,11482,-51766
6723.2,-23602,-44723,11514,-51744
6725.2,-23824,-44856,11534,-51710
6727.2,-23861,-45052,11516,-51713
6729.2,-23516,-44940,11549,-51699
6731.2,-23230,-44679,11593,-51686
6733.2,-23279,-44685,11495,-51805
6735.2,-23432,-44927,11320,-51996
6737.2,-23432,-45061,11299,-52021
6739.2,-23268,-45013,11378,-51935
6741.2,-23101,-45019,11317,-52024
6743.2,-23202,-45150,11237,-52170
6745.2,-23554,-45177,11400,-52063
6747.2,-23603,-45033,11560,-51960
6749.2,-23101,-45027,11417,-52219
6751.2,-22810,-45302,11361,-52430
6753.2,-23361,-45539,11822,-52112
6755.2,-24057,-45481,12467,-51639
6757.2,-23959,-45221,12864,-51459
6759.2,-23296,-44840,13190,-51275
6761.2,-22776,-44285,13669,-50737
6763.2,-22506,-43627,14157,-50009
6765.2,-22267,-42986,14511,-49259
6767.2,-21962,-42237,14732,-48416
6769.2,-21491,-41098,14834,-47477
6771.2,-20858,-39525,14902,-46525
6773.2,-20290,-37889,14961,-45620
6775.2,-19941,-36632,14906,-44790
6777.2,-19867,-35737,14857,-43940
6779.2,-20160,-34886,15008,-43073
6781.2,-20642,-34239,14968,-42691
6783.2,-20931,-34556,14179,-43344
6785.2,-21099,-36204,12846,-44879
6787.2,-21464,-38537,11439,-46835
6789.2,-21804,-40654,9833,-49131
6791.2,-21841,-42374,8004,-51612
6793.2,-22093,-43968,6722,-53561
6795.2,-23035,-45281,6578,-54414
6797.2,-24015,-45917,7116,-54441
6799.2,-24153,-46041,7606,-54271
6801.2,-23619,-46130,7960,-54126
6803.2,-23154,-46136,8476,-53832
6805.2,-23117,-45797,9192,-53324
6807.2,-23480,-45391,9854,-52840
6809.2,-23948,-45281,10299,-52556
6811.2,-23983,-45253,10626,-52350
6813.2,-23473,-45039,10916,-52113
6815.2,-23068,-44882,11071,-51977
6817.2,-23203,-44968,11076,-51999
6819.2,-23450,-45005,11088,-52015
6821.2,-23390,-44849,11151,-51975
6823.2,-23226,-44807,11167,-51979
6825.2,-23123,-44960,11192,-51969
6827.2,-22970,-44948,11364,-51807
6829.2,-22936,-44712,11580,-51603
6831.2,-23202,-44627,11644,-51562
6833.2,-23382,-44745,11604,-51634
6835.2,-23188,-44760,11605,-51648
6837.2,-23076,-44708,11613,-51624
6839.2,-23380,-44844,11543,-51661
6841.2,-23641,-45029,11457,-51730
6843.2,-23459,-45017,11396,-51791
6845.2,-23145,-44956,11293,-51894
6847.2,-23133,-45022,11187,-51992
6849.2,-23402,-45075,11232,-51936
6851.2,-23632,-44982,11416,-51736
6853.2,-23590,-44777,11565,-51574
6855.2,-23385,-44543,11615,-51532
6857.2,-23339,-44462,11605,-51561
6859.2,-23513,-44680,11553,-51596
6861.2,-23610,-44979,11523,-51578
6863.2,-23423,-45044,11583,-51513
6865.2,-23084,-44974,11633,-51518
6867.2,-22842,-44997,11578,-51621
6869.2,-22815,-45000,11543,-51673
6871.2,-22921,-44819,11643,-51597
6873.2,-23016,-44610,11770,-51500
6875.2,-23067,-44548,11790,-51481
6877.2,-23111,-44554,11715,-51561
6879.2,-23180,-44558,11623,-51692
6881.2,-23420,-44651,11616,-51732
6883.2,-23879,-44766,11715,-51612
6885.2,-24104,-44623,11764,-51510
6887.2,-23667,-44218,11670,-51568
6889.2,-23038,-44014,11623,-51634
6891.2,-22981,-44350,11755,-51557
6893.2,-23263,-44912,11881,-51458
6895.2,-23130,-45143,11824,-51491
6897.2,-22725,-44963,11702,-51592
6899.2,-22752,-44746,11691,-51614
6901.2,-23109,-44706,11771,-51532
6903.2,-23122,-44655,11824,-51455
6905.2,-22801,-44419,11835,-51435
6907.2,-22713,-44161,11899,-51367
6909.2,-22939,-44146,12024,-51212
6911.2,-23131,-44359,12084,-51118
6913.2,-23286,-44523,12087,-51094
6915.2,-23615,-44441,12197,-50960
6917.2,-23901,-44236,12358,-50778
6919.2,-23727,-44175,12316,-50834
6921.2,-23219,-44282,12083,-51094
6923.2,-22965,-44363,11917,-51243
6925.2,-23165,-44401,11914,-51191
6927.2,-23366,-44515,12022,-51056
6929.2,-23168,-44536,12209,-50912
6931.2,-22774,-44173,12339,-50835
6933.2,-22606,-43637,12316,-50858
6935.2,-22720,-43487,12323,-50837
6937.2,-22890,-43852,12486,-50709
6939.2,-22938,-44248,12598,-50630
6941.2,-22873,-44230,12564,-50617
6943.2,-22900,-43933,12584,-50523
6945.2,-23138,-43803,12696,-50387
6947.2,-23293,-43910,12757,-50325
6949.2,-23060,-43918,12810,-50269
6951.2,-22730,-43748,12914,-50187
6953.2,-22736,-43684,12956,-50159
6955.2,-22888,-43738,12955,-50130
6957.2,-22778,-43633,13021,-50050
6959.2,-22514,-43381,13068,-50045
6961.2,-22439,-43195,13081,-50053
6963.2,-22571,-43006,13286,-49805
6965.23,-22703,-42694,13617,-49434
6967.25,-22664,-42462,13704,-49333
6969.28,-22416,-42477,13609,-49383
6971.3,-22157,-42572,13743,-49192
6973.3,-22124,-42578,14045,-48894
6975.3,-22179,-42483,14136,-48834
6977.3,-22001,-42258,14104,-48836
6979.3,-21692,-41992,14263,-48612
6981.3,-21639,-41954,14479,-48386
6983.3,-21857,-42122,14498,-48397
6985.3,-22023,-42075,14498,-48387
6987.3,-22058,-41700,14709,-48126
6989.3,-22097,-41419,14966,-47837
6991.3,-22035,-41434,15083,-47714
6993.3,-21717,-41434,15148,-47636
6995.3,-21388,-41236,15196,-47552
6997.3,-21409,-41042,15124,-47575
6999.3,-21683,-40953,14995,-47655
7001.3,-21816,-40892,14994,-47617
7003.3,-21647,-40915,15112,-47468
7005.3,-21347,-40994,15204,-47365
7007.3,-21193,-40801,15214,-47386
7009.3,-21306,-40312,15158,-47490
7011.3,-21527,-40117,15062,-47588
7013.3,-21578,-40554,14967,-47630
7015.3,-21370,-41096,14919,-47630
7017.3,-21110,-41179,14950,-47571
7019.3,-21152,-41057,15045,-47451
7021.3,-21622,-41198,15061,-47438
7023.3,-22100,-41394,14882,-47650
7025.3,-22091,-41257,14670,-47869
7027.3,-21821,-41062,14625,-47890
7029.3,-21899,-41226,14614,-47917
7031.3,-22286,-41467,14448,-48143
7033.3,-22432,-41421,14278,-48344
7035.3,-22254,-41397,14252,-48366
7037.3,-22187,-41688,14189,-48455
7039.3,-22400,-41980,13969,-48732
7041.3,-22574,-42069,13772,-48960
7043.3,-22499,-42244,13689,-49051
7045.3,-22458,-42583,13588,-49181
7047.3,-22721,-42783,13446,-49359
7049.3,-22992,-42777,13354,-49448
7051.3,-22893,-42783,13273,-49519
7053.3,-22628,-42846,13128,-49706
7055.3,-22554,-42899,12969,-49907
7057.3,-22636,-43034,12861,-49974
7059.3,-22772,-43304,12792,-50000
7061.3,-23007,-43505,12727,-50134
7063.3,-23215,-43461,12642,-50324
7065.3,-23211,-43325,12540,-50434
7067.3,-23141,-43353,12479,-50461
7069.3,-23245,-43540,12482,-50482
7071.3,-23457,-43672,12468,-50512
7073.3,-23537,-43627,12382,-50540
7075.3,-23393,-43514,12303,-50593
7077.3,-23190,-43507,12310,-50648
7079.3,-23149,-43600,12375,-50635
7081.3,-23208,-43617,12438,-50555
7083.3,-23111,-43514,12465,-50517
7085.3,-22926,-43508,12378,-50636
7087.3,-23039,-43771,12151,-50877
7089.3,-23477,-44132,12013,-50994
7091.3,-23737,-44228,12170,-50824
