t,carotid_880nm,carotid_660nm,brachial_880nm,brachial_660nm
2.9,-33.626,-36.725,3.6929,-33.053
12.8,-29.626,-35.725,4.6929,-31.053
22.7,-25.626,-33.725,7.6929,-31.053
32.6,-19.626,-33.725,11.693,-30.053
42.5,-14.626,-32.725,14.693,-28.053
52.4,-9.6259,-32.725,19.693,-27.053
62.2,-5.6259,-32.725,23.693,-26.053
72.1,0.37409,-32.725,29.693,-24.053
82.0,5.3741,-30.725,33.693,-23.053
91.9,5.3741,-30.725,35.693,-22.053
101.8,5.3741,-29.725,38.693,-21.053
111.7,8.3741,-29.725,41.693,-20.053
121.6,5.3741,-30.725,40.693,-21.053
131.4,5.3741,-30.725,41.693,-19.053
141.3,4.3741,-31.725,41.693,-20.053
151.2,3.3741,-31.725,44.693,-19.053
161.1,4.3741,-31.725,45.693,-19.053
171.0,0.37409,-30.725,45.693,-19.053
180.9,2.3741,-30.725,42.693,-21.053
190.8,0.37409,-31.725,44.693,-21.053
200.6,-0.62591,-31.725,43.693,-19.053
210.5,-0.62591,-32.725,47.693,-19.053
220.4,-0.62591,-31.725,47.693,-17.053
230.3,-2.6259,-32.725,46.693,-18.053
240.2,-4.6259,-32.725,47.693,-18.053
250.1,-3.6259,-33.725,45.693,-18.053
260.0,-4.6259,-32.725,45.693,-18.053
269.8,-4.6259,-32.725,43.693,-19.053
279.7,-6.6259,-33.725,43.693,-19.053
289.6,-9.6259,-33.725,41.693,-18.053
299.5,-11.626,-34.725,41.693,-18.053
309.4,-13.626,-36.725,42.693,-19.053
319.3,-15.626,-37.725,42.693,-19.053
329.2,-18.626,-37.725,37.693,-21.053
339.0,-19.626,-39.725,37.693,-21.053
348.9,-23.626,-40.725,39.693,-20.053
358.8,-25.626,-39.725,39.693,-20.053
368.7,-29.626,-40.725,37.693,-22.053
378.6,-32.626,-41.725,37.693,-22.053
388.5,-36.626,-44.725,35.693,-21.053
398.4,-37.626,-43.725,35.693,-21.053
408.2,-40.626,-44.725,31.693,-23.053
418.1,-46.626,-46.725,31.693,-23.053
428.0,-47.626,-47.725,29.693,-24.053
437.9,-51.626,-48.725,29.693,-24.053
447.8,-57.626,-49.725,23.693,-26.053
457.7,-55.626,-46.725,23.693,-26.053
467.6,-55.626,-46.725,20.693,-27.053
477.4,-52.626,-44.725,19.693,-28.053
487.3,-52.626,-44.725,18.693,-30.053
497.2,-43.626,-42.725,14.693,-29.053
507.1,-43.626,-42.725,15.693,-29.053
517.0,-33.626,-40.725,15.693,-29.053
526.9,-33.626,-40.725,16.693,-28.053
536.8,-24.626,-38.725,18.693,-27.053
546.6,-24.626,-38.725,23.693,-27.053
556.5,-16.626,-37.725,27.693,-27.053
566.4,-16.626,-37.725,29.693,-26.053
576.3,-9.6259,-35.725,32.693,-25.053
586.2,-9.6259,-35.725,33.693,-26.053
596.1,-6.6259,-35.725,32.693,-25.053
606.0,-6.6259,-35.725,31.693,-26.053
615.8,-6.6259,-35.725,33.693,-27.053
625.7,-7.6259,-35.725,33.693,-27.053
635.6,-8.6259,-35.725,33.693,-26.053
645.5,-8.6259,-36.725,34.693,-26.053
655.4,-9.6259,-35.725,36.693,-25.053
665.3,-9.6259,-35.725,37.693,-25.053
675.2,-11.626,-34.725,36.693,-25.053
685.0,-12.626,-35.725,36.693,-25.053
694.9,-10.626,-35.725,33.693,-26.053
704.8,-12.626,-35.725,31.693,-26.053
714.7,-12.626,-34.725,31.693,-27.053
724.6,-12.626,-36.725,28.693,-27.053
734.5,-13.626,-36.725,31.693,-26.053
744.4,-14.626,-37.725,28.693,-28.053
754.2,-13.626,-37.725,27.693,-28.053
764.1,-15.626,-36.725,28.693,-27.053
774.0,-16.626,-38.725,26.693,-29.053
783.9,-20.626,-39.725,25.693,-30.053
793.8,-22.626,-39.725,23.693,-30.053
803.7,-23.626,-40.725,22.693,-28.053
813.6,-25.626,-40.725,24.693,-28.053
823.4,-30.626,-42.725,23.693,-29.053
833.3,-31.626,-43.725,22.693,-29.053
843.2,-34.626,-44.725,19.693,-31.053
853.1,-35.626,-44.725,18.693,-31.053
863.0,-38.626,-46.725,17.693,-32.053
872.9,-43.626,-46.725,15.693,-33.053
882.8,-46.626,-48.725,14.693,-33.053
892.6,-51.626,-50.725,11.693,-34.053
902.5,-54.626,-50.725,7.6929,-36.053
912.4,-59.626,-52.725,6.6929,-37.053
922.3,-60.626,-52.725,3.6929,-38.053
932.2,-64.626,-54.725,1.6929,-38.053
942.1,-71.626,-55.725,1.6929,-38.053
952.0,-71.626,-55.725,-0.30712,-39.053
961.8,-70.626,-54.725,-6.3071,-41.053
971.7,-70.626,-53.725,-10.307,-42.053
981.6,-67.626,-49.725,-13.307,-45.053
991.5,-62.626,-47.725,-15.307,-44.053
1001.4,-55.626,-46.725,-17.307,-44.053
1011.3,-52.626,-46.725,-14.307,-43.053
1021.2,-47.626,-45.725,-11.307,-43.053
1031.0,-41.626,-43.725,-7.3071,-41.053
1040.9,-34.626,-42.725,-4.3071,-41.053
1050.8,-29.626,-42.725,-0.30712,-41.053
1060.7,-26.626,-41.725,1.6929,-40.053
1070.6,-22.626,-40.725,0.69288,-41.053
1080.5,-19.626,-40.725,3.6929,-40.053
1090.4,-20.626,-40.725,6.6929,-40.053
1100.2,-20.626,-41.725,6.6929,-39.053
1110.1,-18.626,-42.725,8.6929,-39.053
1120.0,-18.626,-41.725,6.6929,-39.053
1129.9,-18.626,-41.725,6.6929,-40.053
1139.8,-17.626,-41.725,5.6929,-40.053
1149.7,-18.626,-40.725,4.6929,-40.053
1159.6,-21.626,-41.725,6.6929,-40.053
1169.4,-20.626,-39.725,3.6929,-41.053
1179.3,-20.626,-39.725,2.6929,-41.053
1189.2,-20.626,-39.725,1.6929,-42.053
1199.1,-20.626,-39.725,2.6929,-43.053
1209.0,-20.626,-38.725,2.6929,-41.053
1218.9,-20.626,-38.725,1.6929,-40.053
1228.8,-20.626,-38.725,1.6929,-40.053
1238.6,-20.626,-38.725,1.6929,-40.053
1248.5,-19.626,-38.725,1.6929,-40.053
1258.4,-19.626,-38.725,-2.3071,-43.053
1268.3,-22.626,-38.725,-2.3071,-43.053
1278.2,-22.626,-38.725,-3.3071,-42.053
1288.1,-25.626,-41.725,-3.3071,-42.053
1298.0,-25.626,-41.725,-2.3071,-43.053
1307.8,-29.626,-42.725,-2.3071,-43.053
1317.7,-29.626,-42.725,-6.3071,-44.053
1327.6,-34.626,-43.725,-6.3071,-44.053
1337.5,-34.626,-43.725,-13.307,-45.053
1347.4,-37.626,-44.725,-13.307,-45.053
1357.3,-42.626,-46.725,-16.307,-47.053
1367.2,-43.626,-47.725,-16.307,-47.053
1377.0,-47.626,-47.725,-18.307,-49.053
1386.9,-52.626,-49.725,-18.307,-49.053
1396.8,-53.626,-49.725,-20.307,-49.053
1406.7,-55.626,-50.725,-22.307,-50.053
1416.6,-58.626,-51.725,-25.307,-52.053
1426.5,-62.626,-52.725,-24.307,-52.053
1436.4,-66.626,-53.725,-25.307,-51.053
1446.2,-67.626,-53.725,-25.307,-52.053
1456.1,-67.626,-52.725,-31.307,-53.053
1466.0,-67.626,-51.725,-33.307,-53.053
1475.9,-64.626,-48.725,-38.307,-55.053
1485.8,-58.626,-46.725,-38.307,-54.053
1495.7,-54.626,-44.725,-37.307,-54.053
1505.6,-46.626,-43.725,-35.307,-53.053
1515.4,-45.626,-43.725,-33.307,-53.053
1525.3,-39.626,-41.725,-31.307,-52.053
1535.2,-32.626,-41.725,-24.307,-51.053
1545.1,-26.626,-39.725,-21.307,-49.053
1555.0,-22.626,-38.725,-16.307,-49.053
1564.9,-18.626,-37.725,-13.307,-46.053
1574.8,-14.626,-36.725,-11.307,-48.053
1584.6,-11.626,-36.725,-11.307,-49.053
1594.5,-9.6259,-35.725,-11.307,-48.053
1604.4,-8.6259,-35.725,-11.307,-47.053
1614.3,-10.626,-37.725,-8.3071,-47.053
1624.2,-10.626,-37.725,-7.3071,-47.053
1634.1,-9.6259,-36.725,-8.3071,-47.053
1644.0,-9.6259,-36.725,-9.3071,-48.053
1653.8,-11.626,-35.725,-8.3071,-47.053
1663.7,-10.626,-35.725,-6.3071,-48.053
1673.6,-11.626,-35.725,-7.3071,-46.053
1683.5,-12.626,-33.725,-8.3071,-47.053
1693.4,-11.626,-35.725,-8.3071,-46.053
1703.3,-13.626,-35.725,-9.3071,-46.053
1713.2,-12.626,-35.725,-9.3071,-45.053
1723.0,-13.626,-35.725,-10.307,-45.053
1732.9,-14.626,-35.725,-9.3071,-44.053
1742.8,-14.626,-36.725,-9.3071,-45.053
1752.7,-15.626,-37.725,-8.3071,-46.053
1762.6,-17.626,-36.725,-10.307,-46.053
1772.5,-19.626,-37.725,-11.307,-47.053
1782.4,-20.626,-37.725,-11.307,-46.053
1792.2,-22.626,-38.725,-11.307,-46.053
1802.1,-25.626,-39.725,-10.307,-46.053
1812.0,-27.626,-41.725,-10.307,-47.053
1821.9,-30.626,-42.725,-9.3071,-44.053
1831.8,-31.626,-42.725,-12.307,-44.053
1841.7,-34.626,-42.725,-12.307,-45.053
1851.6,-38.626,-43.725,-15.307,-46.053
1861.4,-40.626,-44.725,-15.307,-45.053
1871.3,-43.626,-45.725,-16.307,-47.053
1881.2,-46.626,-46.725,-17.307,-46.053
1891.1,-50.626,-48.725,-16.307,-45.053
1901.0,-54.626,-48.725,-17.307,-47.053
1910.9,-57.626,-49.725,-18.307,-47.053
1920.8,-61.626,-50.725,-23.307,-47.053
1930.6,-61.626,-50.725,-22.307,-48.053
1940.5,-66.626,-53.725,-23.307,-47.053
1950.4,-66.626,-53.725,-22.307,-46.053
1960.3,-62.626,-48.725,-24.307,-47.053
1970.2,-62.626,-48.725,-26.307,-46.053
1980.1,-53.626,-44.725,-29.307,-47.053
1989.9,-53.626,-44.725,-29.307,-48.053
1999.8,-42.626,-41.725,-28.307,-49.053
2009.7,-42.626,-41.725,-25.307,-45.053
2019.6,-32.626,-39.725,-19.307,-44.053
2029.5,-32.626,-39.725,-14.307,-43.053
2039.4,-20.626,-36.725,-11.307,-43.053
2049.3,-20.626,-36.725,-8.3071,-41.053
2059.2,-14.626,-37.725,-5.3071,-41.053
2069.0,-14.626,-37.725,-5.3071,-40.053
2078.9,-10.626,-35.725,-2.3071,-40.053
2088.8,-9.6259,-34.725,-1.3071,-39.053
2098.7,-8.6259,-35.725,1.6929,-39.053
2108.6,-9.6259,-34.725,3.6929,-38.053
2118.5,-9.6259,-35.725,5.6929,-38.053
2128.3,-8.6259,-35.725,6.6929,-35.053
2138.2,-7.6259,-36.725,9.6929,-34.053
2148.1,-9.6259,-36.725,10.693,-34.053
2158.0,-10.626,-33.725,7.6929,-34.053
2167.9,-11.626,-35.725,6.6929,-36.053
2177.8,-11.626,-34.725,6.6929,-36.053
2187.7,-11.626,-34.725,5.6929,-35.053
2197.6,-11.626,-36.725,5.6929,-35.053
2207.4,-11.626,-35.725,8.6929,-32.053
2217.3,-11.626,-35.725,8.6929,-32.053
2227.2,-12.626,-35.725,9.6929,-33.053
2237.1,-13.626,-35.725,9.6929,-33.053
2247.0,-14.626,-35.725,7.6929,-33.053
2256.9,-17.626,-36.725,7.6929,-33.053
2266.8,-16.626,-38.725,7.6929,-34.053
2276.6,-17.626,-38.725,7.6929,-34.053
2286.5,-19.626,-38.725,10.693,-31.053
2296.4,-20.626,-38.725,10.693,-31.053
2306.3,-24.626,-39.725,7.6929,-32.053
2316.2,-24.626,-39.725,7.6929,-32.053
2326.1,-27.626,-40.725,5.6929,-33.053
2335.9,-31.626,-41.725,5.6929,-33.053
2345.8,-33.626,-42.725,4.6929,-33.053
2355.7,-35.626,-42.725,4.6929,-33.053
2365.6,-38.626,-43.725,1.6929,-33.053
2375.5,-41.626,-45.725,1.6929,-33.053
2385.4,-43.626,-45.725,-1.3071,-32.053
2395.3,-46.626,-46.725,0.69288,-33.053
2405.1,-50.626,-47.725,0.69288,-33.053
2415.0,-54.626,-47.725,-2.3071,-34.053
2424.9,-55.626,-49.725,-3.3071,-34.053
2434.8,-60.626,-49.725,-2.3071,-33.053
2444.7,-60.626,-49.725,-7.3071,-34.053
2454.6,-59.626,-47.725,-9.3071,-35.053
2464.5,-57.626,-44.725,-12.307,-37.053
2474.3,-53.626,-42.725,-14.307,-37.053
2484.2,-45.626,-39.725,-15.307,-38.053
2494.1,-41.626,-40.725,-15.307,-37.053
2504.0,-35.626,-38.725,-14.307,-37.053
2513.9,-29.626,-37.725,-8.3071,-34.053
2523.8,-24.626,-37.725,-1.3071,-33.053
2533.7,-19.626,-35.725,2.6929,-32.053
2543.5,-14.626,-33.725,5.6929,-30.053
2553.4,-10.626,-33.725,10.693,-30.053
2563.3,-6.6259,-33.725,12.693,-30.053
2573.2,-6.6259,-34.725,16.693,-29.053
2583.1,-4.6259,-33.725,20.693,-26.053
2593.0,-6.6259,-33.725,24.693,-25.053
2602.9,-7.6259,-33.725,24.693,-25.053
2612.7,-7.6259,-35.725,25.693,-26.053
2622.6,-6.6259,-33.725,26.693,-24.053
2632.5,-8.6259,-33.725,28.693,-22.053
2642.4,-9.6259,-34.725,28.693,-23.053
2652.3,-11.626,-35.725,26.693,-24.053
2662.2,-11.626,-35.725,27.693,-24.053
2672.1,-11.626,-35.725,28.693,-23.053
2681.9,-11.626,-35.725,24.693,-23.053
2691.8,-16.626,-36.725,25.693,-23.053
2701.7,-16.626,-36.725,21.693,-25.053
2711.6,-16.626,-36.725,22.693,-26.053
2721.5,-16.626,-36.725,22.693,-23.053
2731.4,-19.626,-36.725,21.693,-24.053
2741.3,-19.626,-36.725,22.693,-25.053
2751.1,-21.626,-38.725,24.693,-26.053
2761.0,-21.626,-38.725,21.693,-25.053
2770.9,-27.626,-39.725,16.693,-27.053
2780.8,-27.626,-39.725,16.693,-26.053
2790.7,-30.626,-39.725,18.693,-26.053
2800.6,-29.626,-39.725,19.693,-26.053
2810.5,-32.626,-41.725,18.693,-25.053
2820.3,-34.626,-40.725,17.693,-25.053
2830.2,-39.626,-43.725,16.693,-27.053
2840.1,-40.626,-44.725,14.693,-27.053
2850.0,-44.626,-43.725,13.693,-27.053
2859.9,-46.626,-45.725,12.693,-28.053
2869.8,-49.626,-46.725,10.693,-28.053
2879.7,-53.626,-48.725,10.693,-27.053
2889.5,-57.626,-48.725,10.693,-27.053
2899.4,-61.626,-50.725,9.6929,-27.053
2909.3,-63.626,-50.725,5.6929,-29.053
2919.2,-66.626,-51.725,1.6929,-30.053
2929.1,-70.626,-52.725,2.6929,-30.053
2939.0,-72.626,-53.725,1.6929,-32.053
2948.9,-71.626,-51.725,-2.3071,-33.053
2958.7,-70.626,-49.725,-7.3071,-35.053
2968.6,-68.626,-46.725,-11.307,-36.053
2978.5,-62.626,-44.725,-13.307,-37.053
2988.4,-57.626,-42.725,-11.307,-35.053
2998.3,-53.626,-40.725,-8.3071,-34.053
3008.2,-49.626,-39.725,-5.3071,-32.053
3018.1,-43.626,-37.725,-0.30712,-32.053
3027.9,-40.626,-37.725,1.6929,-30.053
3037.8,-34.626,-35.725,0.69288,-33.053
3047.7,-28.626,-34.725,0.69288,-33.053
3057.6,-25.626,-33.725,2.6929,-33.053
3067.5,-24.626,-33.725,6.6929,-32.053
3077.4,-24.626,-33.725,8.6929,-31.053
3087.3,-23.626,-32.725,9.6929,-31.053
3097.1,-21.626,-33.725,11.693,-31.053
3107.0,-24.626,-34.725,10.693,-30.053
3116.9,-24.626,-34.725,8.6929,-31.053
3126.8,-25.626,-33.725,9.6929,-32.053
3136.7,-25.626,-32.725,7.6929,-32.053
3146.6,-29.626,-33.725,7.6929,-32.053
3156.5,-29.626,-32.725,7.6929,-34.053
3166.3,-31.626,-32.725,4.6929,-35.053
3176.2,-28.626,-31.725,2.6929,-34.053
3186.1,-30.626,-31.725,4.6929,-32.053
3196.0,-30.626,-31.725,7.6929,-31.053
3205.9,-32.626,-29.725,6.6929,-32.053
3215.8,-29.626,-29.725,4.6929,-32.053
3225.7,-32.626,-29.725,4.6929,-32.053
3235.5,-32.626,-29.725,-0.30712,-33.053
3245.4,-31.626,-29.725,-0.30712,-33.053
3255.3,-33.626,-29.725,-5.3071,-37.053
3265.2,-34.626,-29.725,-5.3071,-37.053
3275.1,-34.626,-28.725,-6.3071,-38.053
3285.0,-38.626,-29.725,-6.3071,-38.053
3294.9,-38.626,-30.725,-8.3071,-38.053
3304.7,-41.626,-31.725,-8.3071,-38.053
3314.6,-44.626,-31.725,-11.307,-38.053
3324.5,-46.626,-31.725,-11.307,-38.053
3334.4,-48.626,-32.725,-13.307,-40.053
3344.3,-51.626,-33.725,-13.307,-40.053
3354.2,-54.626,-32.725,-18.307,-43.053
3364.1,-56.626,-33.725,-18.307,-43.053
3373.9,-60.626,-33.725,-22.307,-45.053
3383.8,-60.626,-33.725,-22.307,-45.053
3393.7,-60.626,-33.725,-27.307,-46.053
3403.6,-65.626,-33.725,-27.307,-46.053
3413.5,-65.626,-33.725,-31.307,-48.053
3423.4,-70.626,-32.725,-33.307,-49.053
3433.3,-70.626,-32.725,-33.307,-49.053
3443.1,-67.626,-28.725,-38.307,-50.053
3453.0,-67.626,-28.725,-40.307,-52.053
3462.9,-60.626,-22.725,-44.307,-53.053
3472.8,-60.626,-22.725,-45.307,-54.053
3482.7,-47.626,-16.725,-46.307,-54.053
3492.6,-47.626,-16.725,-48.307,-54.053
3502.5,-40.626,-12.725,-47.307,-53.053
3512.3,-40.626,-12.725,-45.307,-52.053
3522.2,-30.626,-10.725,-42.307,-52.053
3532.1,-25.626,-9.725,-38.307,-52.053
3542.0,-22.626,-9.725,-34.307,-51.053
3551.9,-16.626,-8.725,-31.307,-50.053
3561.8,-15.626,-8.725,-31.307,-49.053
3571.7,-14.626,-8.725,-30.307,-50.053
3581.5,-14.626,-8.725,-27.307,-48.053
3591.4,-14.626,-7.725,-26.307,-48.053
3601.3,-14.626,-7.725,-25.307,-47.053
3611.2,-17.626,-8.725,-24.307,-49.053
3621.1,-18.626,-8.725,-25.307,-50.053
3631.0,-19.626,-8.725,-31.307,-51.053
3640.9,-21.626,-8.725,-33.307,-53.053
3650.7,-25.626,-10.725,-34.307,-52.053
3660.6,-24.626,-8.725,-35.307,-54.053
3670.5,-26.626,-8.725,-37.307,-54.053
3680.4,-27.626,-9.725,-38.307,-56.053
3690.3,-30.626,-9.725,-38.307,-55.053
3700.2,-29.626,-10.725,-37.307,-54.053
3710.1,-30.626,-9.725,-37.307,-54.053
3719.9,-32.626,-10.725,-39.307,-55.053
3729.8,-30.626,-11.725,-43.307,-56.053
3739.7,-33.626,-10.725,-45.307,-56.053
3749.6,-34.626,-11.725,-47.307,-58.053
3759.5,-35.626,-12.725,-47.307,-56.053
3769.4,-36.626,-13.725,-47.307,-57.053
3779.3,-39.626,-13.725,-49.307,-57.053
3789.1,-42.626,-14.725,-50.307,-57.053
3799.0,-44.626,-15.725,-50.307,-57.053
3808.9,-46.626,-16.725,-47.307,-57.053
3818.8,-48.626,-15.725,-48.307,-57.053
3828.7,-52.626,-17.725,-48.307,-58.053
3838.6,-54.626,-18.725,-49.307,-57.053
3848.5,-56.626,-18.725,-49.307,-58.053
3858.3,-61.626,-21.725,-50.307,-57.053
3868.2,-63.626,-21.725,-51.307,-57.053
3878.1,-67.626,-22.725,-54.307,-58.053
3888.0,-72.626,-23.725,-53.307,-58.053
3897.9,-74.626,-24.725,-55.307,-58.053
3907.8,-78.626,-24.725,-56.307,-57.053
3917.7,-81.626,-27.725,-57.307,-59.053
3927.5,-83.626,-26.725,-60.307,-59.053
3937.4,-82.626,-23.725,-62.307,-59.053
3947.3,-83.626,-23.725,-65.307,-61.053
3957.2,-78.626,-20.725,-68.307,-61.053
3967.1,-75.626,-18.725,-68.307,-61.053
3977.0,-69.626,-17.725,-66.307,-61.053
3986.9,-65.626,-16.725,-65.307,-60.053
3996.7,-60.626,-14.725,-64.307,-59.053
4006.6,-54.626,-12.725,-62.307,-59.053
4016.5,-49.626,-10.725,-58.307,-57.053
4026.4,-42.626,-9.725,-54.307,-57.053
4036.3,-36.626,-8.725,-51.307,-56.053
4046.2,-31.626,-6.725,-48.307,-55.053
4056.1,-32.626,-7.725,-44.307,-56.053
4065.9,-29.626,-5.725,-42.307,-53.053
4075.8,-27.626,-5.725,-38.307,-54.053
4085.7,-28.626,-7.725,-37.307,-51.053
4095.6,-29.626,-6.725,-36.307,-51.053
4105.5,-29.626,-6.725,-35.307,-51.053
4115.4,-28.626,-7.725,-33.307,-49.053
4125.3,-28.626,-7.725,-31.307,-50.053
4135.1,-31.626,-5.725,-32.307,-49.053
4145.0,-31.626,-5.725,-31.307,-51.053
4154.9,-33.626,-4.725,-35.307,-51.053
4164.8,-33.626,-4.725,-36.307,-51.053
4174.7,-34.626,-6.725,-38.307,-52.053
4184.6,-34.626,-6.725,-39.307,-52.053
4194.5,-33.626,-7.725,-39.307,-52.053
4204.3,-33.626,-7.725,-38.307,-52.053
4214.2,-33.626,-6.725,-38.307,-52.053
4224.1,-33.626,-6.725,-42.307,-55.053
4234.0,-34.626,-5.725,-42.307,-55.053
4243.9,-34.626,-5.725,-39.307,-51.053
4253.8,-36.626,-7.725,-39.307,-51.053
4263.7,-36.626,-6.725,-38.307,-51.053
4273.5,-36.626,-7.725,-38.307,-51.053
4283.4,-41.626,-7.725,-40.307,-50.053
4293.3,-41.626,-8.725,-40.307,-50.053
4303.2,-44.626,-8.725,-42.307,-51.053
4313.1,-46.626,-9.725,-42.307,-51.053
4323.0,-46.626,-9.725,-45.307,-52.053
4332.9,-49.626,-10.725,-45.307,-52.053
4342.7,-52.626,-11.725,-44.307,-52.053
4352.6,-58.626,-11.725,-44.307,-52.053
4362.5,-58.626,-12.725,-42.307,-50.053
4372.4,-62.626,-12.725,-42.307,-50.053
4382.3,-64.626,-13.725,-41.307,-50.053
4392.2,-68.626,-14.725,-42.307,-49.053
4402.1,-70.626,-16.725,-43.307,-49.053
4411.9,-74.626,-17.725,-48.307,-50.053
4421.8,-77.626,-18.725,-47.307,-51.053
4431.7,-76.626,-16.725,-46.307,-52.053
4441.6,-75.626,-14.725,-49.307,-53.053
4451.5,-71.626,-12.725,-53.307,-53.053
4461.4,-67.626,-10.725,-54.307,-53.053
4471.3,-61.626,-8.725,-56.307,-54.053
4481.1,-58.626,-8.725,-53.307,-52.053
4491.0,-53.626,-7.725,-50.307,-51.053
4500.9,-46.626,-5.725,-48.307,-51.053
4510.8,-40.626,-5.725,-42.307,-50.053
4520.7,-35.626,-3.725,-42.307,-49.053
4530.6,-31.626,-2.725,-38.307,-47.053
4540.5,-26.626,-0.72497,-33.307,-47.053
4550.3,-25.626,-1.725,-29.307,-47.053
4560.2,-24.626,-0.72497,-26.307,-45.053
4570.1,-24.626,-0.72497,-26.307,-46.053
4580.0,-23.626,-1.725,-23.307,-44.053
4589.9,-22.626,-1.725,-22.307,-44.053
4599.8,-23.626,-2.725,-20.307,-43.053
4609.7,-23.626,-1.725,-19.307,-43.053
4619.5,-23.626,-0.72497,-21.307,-44.053
4629.4,-22.626,-0.72497,-21.307,-44.053
4639.3,-23.626,0.27503,-22.307,-43.053
4649.2,-23.626,0.27503,-20.307,-44.053
4659.1,-24.626,-0.72497,-20.307,-42.053
4669.0,-24.626,0.27503,-17.307,-41.053
4678.8,-23.626,0.27503,-21.307,-42.053
4688.7,-24.626,2.275,-23.307,-43.053
4698.6,-22.626,0.27503,-25.307,-44.053
4708.5,-23.626,0.27503,-25.307,-44.053
4718.4,-24.626,-1.725,-25.307,-44.053
4728.3,-24.626,0.27503,-26.307,-44.053
4738.2,-26.626,0.27503,-26.307,-45.053
4748.1,-27.626,-0.72497,-28.307,-45.053
4757.9,-29.626,-1.725,-28.307,-45.053
4767.8,-31.626,-1.725,-27.307,-45.053
4777.7,-34.626,-3.725,-28.307,-45.053
4787.6,-36.626,-4.725,-27.307,-45.053
4797.5,-37.626,-3.725,-30.307,-47.053
4807.4,-39.626,-5.725,-33.307,-47.053
4817.2,-42.626,-5.725,-31.307,-47.053
4827.1,-44.626,-5.725,-32.307,-46.053
4837.0,-44.626,-5.725,-33.307,-47.053
4846.9,-50.626,-8.725,-34.307,-47.053
4856.8,-50.626,-8.725,-34.307,-46.053
4866.7,-57.626,-11.725,-37.307,-48.053
4876.6,-57.626,-11.725,-37.307,-47.053
4886.4,-62.626,-12.725,-38.307,-47.053
4896.3,-62.626,-12.725,-38.307,-48.053
4906.2,-65.626,-12.725,-38.307,-46.053
4916.1,-65.626,-12.725,-40.307,-46.053
4926.0,-63.626,-7.725,-44.307,-48.053
4935.9,-63.626,-7.725,-46.307,-49.053
4945.8,-54.626,-3.725,-50.307,-51.053
4955.6,-54.626,-3.725,-50.307,-50.053
4965.5,-43.626,-1.725,-50.307,-50.053
4975.4,-43.626,-1.725,-44.307,-47.053
4985.3,-39.626,-1.725,-38.307,-47.053
4995.2,-32.626,0.27503,-35.307,-46.053
5005.1,-27.626,0.27503,-34.307,-47.053
5015.0,-23.626,1.275,-28.307,-45.053
5024.8,-19.626,2.275,-28.307,-43.053
5034.7,-18.626,4.275,-23.307,-43.053
5044.6,-15.626,3.275,-19.307,-42.053
5054.5,-13.626,3.275,-18.307,-43.053
5064.4,-12.626,4.275,-17.307,-41.053
5074.3,-12.626,3.275,-17.307,-42.053
5084.2,-11.626,3.275,-19.307,-43.053
5094.0,-13.626,3.275,-23.307,-44.053
5103.9,-14.626,2.275,-21.307,-45.053
5113.8,-14.626,3.275,-22.307,-46.053
5123.7,-14.626,3.275,-22.307,-45.053
5133.6,-14.626,3.275,-23.307,-44.053
5143.5,-13.626,4.275,-22.307,-45.053
5153.4,-15.626,3.275,-23.307,-44.053
5163.2,-16.626,3.275,-23.307,-44.053
5173.1,-16.626,2.275,-22.307,-43.053
5183.0,-16.626,3.275,-22.307,-43.053
5192.9,-15.626,4.275,-25.307,-45.053
5202.8,-16.626,3.275,-25.307,-45.053
5212.7,-15.626,3.275,-27.307,-46.053
5222.6,-16.626,3.275,-27.307,-46.053
5232.4,-17.626,2.275,-30.307,-46.053
5242.3,-20.626,1.275,-30.307,-46.053
5252.2,-24.626,0.27503,-32.307,-47.053
5262.1,-24.626,-0.72497,-32.307,-47.053
5272.0,-26.626,-1.725,-35.307,-49.053
5281.9,-29.626,-0.72497,-35.307,-49.053
5291.8,-31.626,-2.725,-37.307,-48.053
5301.6,-33.626,-2.725,-37.307,-48.053
5311.5,-35.626,-2.725,-37.307,-48.053
5321.4,-39.626,-5.725,-37.307,-48.053
5331.3,-42.626,-4.725,-39.307,-50.053
5341.2,-45.626,-5.725,-39.307,-50.053
5351.1,-46.626,-6.725,-44.307,-52.053
5361.0,-50.626,-8.725,-47.307,-51.053
5370.8,-53.626,-9.725,-49.307,-53.053
5380.7,-57.626,-10.725,-54.307,-54.053
5390.6,-59.626,-10.725,-52.307,-55.053
5400.5,-57.626,-9.725,-50.307,-53.053
5410.4,-56.626,-6.725,-51.307,-54.053
5420.3,-52.626,-4.725,-54.307,-54.053
5430.2,-49.626,-3.725,-55.307,-54.053
5440.0,-44.626,-1.725,-57.307,-55.053
5449.9,-37.626,-0.72497,-56.307,-55.053
5459.8,-33.626,0.27503,-54.307,-55.053
5469.7,-27.626,0.27503,-52.307,-55.053
5479.6,-21.626,3.275,-48.307,-54.053
5489.5,-17.626,2.275,-45.307,-52.053
5499.4,-13.626,3.275,-42.307,-52.053
5509.2,-10.626,3.275,-37.307,-51.053
5519.1,-5.6259,4.275,-33.307,-50.053
5529.0,-7.6259,5.275,-31.307,-48.053
5538.9,-7.6259,3.275,-29.307,-50.053
5548.8,-5.6259,4.275,-29.307,-48.053
5558.7,-8.6259,3.275,-27.307,-47.053
5568.6,-8.6259,3.275,-26.307,-47.053
5578.4,-7.6259,3.275,-24.307,-49.053
5588.3,-7.6259,3.275,-26.307,-49.053
5598.2,-7.6259,4.275,-29.307,-51.053
5608.1,-7.6259,4.275,-27.307,-49.053
5618.0,-6.6259,4.275,-27.307,-49.053
5627.9,-6.6259,4.275,-26.307,-48.053
5637.8,-8.6259,4.275,-25.307,-49.053
5647.6,-8.6259,4.275,-27.307,-48.053
5657.5,-9.6259,4.275,-28.307,-48.053
5667.4,-9.6259,4.275,-28.307,-48.053
5677.3,-7.6259,4.275,-29.307,-48.053
5687.2,-7.6259,4.275,-29.307,-48.053
5697.1,-10.626,4.275,-32.307,-50.053
5707.0,-9.6259,3.275,-32.307,-50.053
5716.8,-10.626,1.275,-32.307,-48.053
5726.7,-13.626,2.275,-28.307,-48.053
5736.6,-13.626,0.27503,-27.307,-49.053
5746.5,-17.626,0.27503,-29.307,-48.053
5756.4,-19.626,-0.72497,-29.307,-48.053
5766.3,-21.626,-2.725,-31.307,-49.053
5776.2,-23.626,-2.725,-30.307,-48.053
5786.0,-26.626,-3.725,-32.307,-48.053
5795.9,-28.626,-4.725,-32.307,-48.053
5805.8,-33.626,-5.725,-30.307,-49.053
5815.7,-34.626,-5.725,-30.307,-46.053
5825.6,-36.626,-7.725,-28.307,-46.053
5835.5,-41.626,-7.725,-26.307,-45.053
5845.4,-43.626,-10.725,-28.307,-47.053
5855.2,-46.626,-9.725,-30.307,-47.053
5865.1,-51.626,-11.725,-31.307,-48.053
5875.0,-53.626,-12.725,-32.307,-48.053
5884.9,-54.626,-11.725,-32.307,-47.053
5894.8,-54.626,-9.725,-33.307,-48.053
5904.7,-50.626,-7.725,-34.307,-48.053
5914.6,-47.626,-5.725,-40.307,-49.053
5924.4,-38.626,-3.725,-42.307,-51.053
5934.3,-33.626,-2.725,-41.307,-50.053
5944.2,-28.626,-1.725,-40.307,-50.053
5954.1,-24.626,-0.72497,-35.307,-49.053
5964.0,-18.626,0.27503,-30.307,-48.053
5973.9,-13.626,1.275,-25.307,-48.053
5983.8,-8.6259,1.275,-21.307,-46.053
5993.6,-6.6259,2.275,-16.307,-44.053
6003.5,-1.6259,1.275,-12.307,-43.053
6013.4,-0.62591,2.275,-9.3071,-42.053
6023.3,2.3741,4.275,-7.3071,-40.053
6033.2,2.3741,4.275,-4.3071,-40.053
6043.1,3.3741,3.275,-2.3071,-39.053
6053.0,1.3741,3.275,-2.3071,-38.053
6062.8,3.3741,2.275,-2.3071,-39.053
6072.7,2.3741,2.275,-0.30712,-39.053
6082.6,3.3741,3.275,2.6929,-36.053
6092.5,3.3741,3.275,2.6929,-35.053
6102.4,1.3741,2.275,1.6929,-35.053
6112.3,2.3741,2.275,2.6929,-35.053
6122.2,1.3741,2.275,3.6929,-35.053
6132.0,1.3741,1.275,3.6929,-35.053
6141.9,0.37409,1.275,2.6929,-36.053
6151.8,0.37409,1.275,2.6929,-36.053
6161.7,-0.62591,0.27503,1.6929,-36.053
6171.6,-0.62591,0.27503,1.6929,-36.053
6181.5,-0.62591,0.27503,2.6929,-36.053
6191.4,-0.62591,0.27503,2.6929,-36.053
6201.2,-2.6259,1.275,-1.3071,-38.053
6211.1,-4.6259,-1.725,-1.3071,-38.053
6221.0,-5.6259,-0.72497,-2.3071,-39.053
6230.9,-7.6259,-1.725,-2.3071,-39.053
6240.8,-9.6259,-3.725,-2.3071,-37.053
6250.7,-11.626,-3.725,-2.3071,-37.053
6260.6,-13.626,-4.725,-5.3071,-39.053
6270.4,-16.626,-5.725,-5.3071,-39.053
6280.3,-16.626,-5.725,-6.3071,-38.053
6290.2,-20.626,-7.725,-6.3071,-38.053
6300.1,-20.626,-7.725,-6.3071,-38.053
6310.0,-29.626,-11.725,-6.3071,-38.053
6319.9,-29.626,-11.725,-6.3071,-38.053
6329.8,-33.626,-13.725,-6.3071,-38.053
6339.6,-33.626,-13.725,-8.3071,-40.053
6349.5,-39.626,-13.725,-8.3071,-40.053
6359.4,-39.626,-13.725,-13.307,-41.053
6369.3,-41.626,-12.725,-13.307,-41.053
6379.2,-41.626,-12.725,-13.307,-42.053
6389.1,-36.626,-11.725,-13.307,-42.053
6399.0,-36.626,-11.725,-15.307,-43.053
6408.8,-25.626,-6.725,-16.307,-43.053
6418.7,-25.626,-6.725,-15.307,-43.053
6428.6,-21.626,-5.725,-15.307,-41.053
6438.5,-14.626,-3.725,-14.307,-41.053
6448.4,-8.6259,-3.725,-9.3071,-41.053
6458.3,-4.6259,-2.725,-2.3071,-39.053
6468.2,1.3741,-2.725,0.69288,-36.053
6478.0,6.3741,-0.72497,6.6929,-36.053
6487.9,12.374,0.27503,8.6929,-35.053
6497.8,14.374,1.275,11.693,-36.053
6507.7,17.374,2.275,9.6929,-34.053
6517.6,17.374,2.275,14.693,-35.053
6527.5,21.374,2.275,15.693,-34.053
6537.4,20.374,1.275,19.693,-33.053
6547.2,18.374,0.27503,21.693,-32.053
6557.1,19.374,0.27503,22.693,-31.053
6567.0,18.374,1.275,24.693,-31.053
6576.9,18.374,0.27503,24.693,-31.053
6586.8,19.374,1.275,23.693,-31.053
6596.7,18.374,0.27503,22.693,-31.053
6606.6,18.374,1.275,23.693,-30.053
6616.4,19.374,0.27503,23.693,-30.053
6626.3,18.374,1.275,24.693,-30.053
6636.2,17.374,1.275,22.693,-30.053
6646.1,17.374,0.27503,22.693,-31.053
6656.0,16.374,-0.72497,22.693,-31.053
6665.9,17.374,-0.72497,24.693,-31.053
6675.8,16.374,0.27503,22.693,-31.053
6685.6,15.374,-0.72497,22.693,-31.053
6695.5,14.374,-1.725,20.693,-30.053
6705.4,10.374,-1.725,22.693,-31.053
6715.3,7.3741,-3.725,22.693,-30.053
6725.2,7.3741,-4.725,22.693,-30.053
6735.1,5.3741,-4.725,20.693,-30.053
6745.0,2.3741,-6.725,18.693,-30.053
6754.8,0.37409,-7.725,20.693,-30.053
6764.7,-2.6259,-8.725,17.693,-33.053
6774.6,-4.6259,-9.725,17.693,-32.053
6784.5,-8.6259,-10.725,15.693,-33.053
6794.4,-13.626,-11.725,16.693,-31.053
6804.3,-17.626,-13.725,15.693,-31.053
6814.2,-21.626,-14.725,14.693,-33.053
6824.0,-23.626,-14.725,11.693,-35.053
6833.9,-25.626,-16.725,6.6929,-35.053
6843.8,-27.626,-16.725,7.6929,-35.053
6853.7,-32.626,-19.725,8.6929,-35.053
6863.6,-32.626,-17.725,9.6929,-34.053
6873.5,-32.626,-17.725,6.6929,-36.053
6883.4,-31.626,-15.725,5.6929,-37.053
6893.2,-26.626,-13.725,3.6929,-37.053
6903.1,-19.626,-10.725,-0.30712,-38.053
6913.0,-13.626,-8.725,2.6929,-38.053
6922.9,-9.6259,-7.725,3.6929,-37.053
6932.8,-3.6259,-6.725,9.6929,-35.053
6942.7,0.37409,-6.725,15.693,-34.053
6952.6,7.3741,-4.725,17.693,-33.053
6962.4,12.374,-5.725,21.693,-32.053
6972.3,15.374,-3.725,21.693,-32.053
6982.2,17.374,-3.725,23.693,-32.053
6992.1,22.374,-2.725,27.693,-30.053
7002.0,21.374,-3.725,30.693,-30.053
7011.9,21.374,-3.725,33.693,-28.053
7021.8,22.374,-3.725,34.693,-30.053
7031.6,22.374,-3.725,34.693,-29.053
7041.5,20.374,-5.725,37.693,-27.053
7051.4,20.374,-5.725,37.693,-27.053
7061.3,18.374,-5.725,42.693,-26.053
7071.2,18.374,-5.725,41.693,-24.053
7081.1,18.374,-6.725,42.693,-25.053
7091.0,18.374,-6.725,39.693,-25.053
7100.8,17.374,-5.725,40.693,-25.053
7110.7,17.374,-5.725,40.693,-25.053
7120.6,15.374,-6.725,40.693,-25.053
7130.5,15.374,-6.725,40.693,-25.053
7140.4,13.374,-7.725,40.693,-25.053
7150.3,13.374,-7.725,38.693,-26.053
7160.2,14.374,-8.725,38.693,-26.053
7170.0,13.374,-8.725,33.693,-27.053
7179.9,11.374,-8.725,33.693,-27.053
7189.8,10.374,-9.725,30.693,-28.053
7199.7,8.3741,-11.725,30.693,-28.053
7209.6,6.3741,-11.725,29.693,-31.053
7219.5,1.3741,-13.725,29.693,-31.053
7229.3,-0.62591,-14.725,27.693,-30.053
7239.2,-3.6259,-14.725,27.693,-30.053
7249.1,-3.6259,-13.725,29.693,-30.053
7259.0,-6.6259,-15.725,29.693,-30.053
7268.9,-9.6259,-16.725,21.693,-32.053
7278.8,-11.626,-17.725,21.693,-32.053
7288.7,-14.626,-17.725,17.693,-33.053
7298.6,-20.626,-18.725,17.693,-33.053
7308.4,-22.626,-20.725,17.693,-32.053
7318.3,-24.626,-22.725,17.693,-32.053
7328.2,-29.626,-23.725,15.693,-34.053
7338.1,-31.626,-24.725,12.693,-35.053
7348.0,-35.626,-26.725,9.6929,-37.053
7357.9,-38.626,-26.725,10.693,-36.053
7367.8,-38.626,-26.725,5.6929,-37.053
7377.6,-37.626,-23.725,2.6929,-38.053
7387.5,-32.626,-21.725,-0.30712,-39.053
7397.4,-29.626,-19.725,-6.3071,-42.053
7407.3,-20.626,-16.725,-7.3071,-43.053
7417.2,-17.626,-14.725,-8.3071,-43.053
7427.1,-11.626,-15.725,-7.3071,-44.053
7436.9,-3.6259,-13.725,-6.3071,-44.053
7446.8,-0.62591,-12.725,-1.3071,-43.053
7456.7,6.3741,-11.725,2.6929,-41.053
7466.6,10.374,-10.725,7.6929,-40.053
7476.5,13.374,-9.725,9.6929,-39.053
7486.4,17.374,-9.725,10.693,-39.053
7496.3,18.374,-10.725,12.693,-39.053
7506.1,20.374,-8.725,10.693,-39.053
7516.0,20.374,-9.725,12.693,-39.053
7525.9,18.374,-9.725,12.693,-40.053
7535.8,18.374,-10.725,12.693,-39.053
7545.7,18.374,-10.725,12.693,-39.053
7555.6,19.374,-10.725,11.693,-39.053
7565.5,18.374,-11.725,13.693,-39.053
7575.3,16.374,-10.725,13.693,-39.053
7585.2,17.374,-8.725,12.693,-38.053
7595.1,16.374,-9.725,12.693,-39.053
7605.0,16.374,-9.725,12.693,-39.053
7614.9,16.374,-9.725,8.6929,-39.053
7624.8,14.374,-10.725,8.6929,-38.053
7634.7,16.374,-9.725,9.6929,-40.053
7644.5,15.374,-10.725,5.6929,-40.053
7654.4,15.374,-10.725,6.6929,-40.053
7664.3,14.374,-9.725,5.6929,-40.053
7674.2,13.374,-10.725,4.6929,-41.053
7684.1,13.374,-10.725,3.6929,-41.053
7694.0,10.374,-11.725,2.6929,-41.053
7703.9,7.3741,-11.725,1.6929,-40.053
7713.7,7.3741,-13.725,1.6929,-40.053
7723.6,2.3741,-13.725,0.69288,-41.053
7733.5,2.3741,-13.725,-3.3071,-41.053
7743.4,2.3741,-13.725,-2.3071,-42.053
7753.3,-2.6259,-15.725,-4.3071,-42.053
7763.2,-2.6259,-15.725,-7.3071,-44.053
7773.1,-7.6259,-17.725,-9.3071,-43.053
7782.9,-7.6259,-17.725,-8.3071,-44.053
7792.8,-16.626,-19.725,-11.307,-44.053
7802.7,-16.626,-19.725,-13.307,-45.053
7812.6,-22.626,-21.725,-16.307,-45.053
7822.5,-22.626,-21.725,-20.307,-48.053
7832.4,-28.626,-23.725,-25.307,-49.053
7842.3,-28.626,-23.725,-28.307,-50.053
7852.1,-33.626,-24.725,-29.307,-50.053
7862.0,-33.626,-24.725,-29.307,-50.053
7871.9,-30.626,-20.725,-33.307,-51.053
7881.8,-30.626,-20.725,-36.307,-50.053
7891.7,-25.626,-18.725,-37.307,-51.053
7901.6,-19.626,-17.725,-39.307,-51.053
7911.5,-14.626,-14.725,-37.307,-49.053
7921.3,-10.626,-14.725,-34.307,-49.053
7931.2,-4.6259,-13.725,-30.307,-47.053
7941.1,2.3741,-12.725,-27.307,-47.053
7951.0,7.3741,-12.725,-22.307,-46.053
7960.9,13.374,-9.725,-18.307,-44.053
7970.8,17.374,-9.725,-16.307,-42.053
7980.7,20.374,-8.725,-14.307,-41.053
7990.5,21.374,-8.725,-10.307,-40.053
8000.4,22.374,-8.725,-10.307,-40.053
8010.3,23.374,-8.725,-8.3071,-38.053
8020.2,24.374,-8.725,-5.3071,-37.053
8030.1,21.374,-8.725,-7.3071,-37.053
8040.0,21.374,-9.725,-3.3071,-35.053
8049.9,21.374,-10.725,-1.3071,-34.053
8059.7,20.374,-9.725,-1.3071,-33.053
8069.6,20.374,-8.725,-0.30712,-33.053
8079.5,19.374,-9.725,-1.3071,-32.053
8089.4,20.374,-8.725,-2.3071,-32.053
8099.3,17.374,-9.725,-2.3071,-32.053
8109.2,17.374,-9.725,-2.3071,-32.053
8119.1,17.374,-9.725,-5.3071,-31.053
8128.9,16.374,-9.725,-5.3071,-31.053
8138.8,16.374,-9.725,-2.3071,-32.053
8148.7,15.374,-10.725,-2.3071,-32.053
8158.6,15.374,-9.725,-8.3071,-34.053
8168.5,14.374,-9.725,-8.3071,-34.053
8178.4,11.374,-11.725,-10.307,-33.053
8188.3,9.3741,-13.725,-10.307,-33.053
8198.1,5.3741,-13.725,-11.307,-33.053
8208.0,1.3741,-15.725,-11.307,-33.053
8217.9,0.37409,-16.725,-9.3071,-30.053
8227.8,-2.6259,-16.725,-9.3071,-30.053
8237.7,-3.6259,-17.725,-5.3071,-28.053
8247.6,-7.6259,-19.725,-5.3071,-28.053
8257.5,-9.6259,-18.725,-7.3071,-29.053
8267.3,-12.626,-19.725,-7.3071,-29.053
8277.2,-15.626,-22.725,-12.307,-31.053
8287.1,-19.626,-22.725,-12.307,-31.053
8297.0,-23.626,-22.725,-16.307,-31.053
8306.9,-25.626,-24.725,-16.307,-31.053
8316.8,-30.626,-26.725,-17.307,-32.053
8326.7,-34.626,-27.725,-18.307,-31.053
8336.5,-38.626,-29.725,-22.307,-32.053
8346.4,-41.626,-28.725,-22.307,-33.053
8356.3,-38.626,-27.725,-23.307,-35.053
8366.2,-37.626,-26.725,-24.307,-33.053
8376.1,-36.626,-24.725,-24.307,-32.053
8386.0,-31.626,-21.725,-28.307,-34.053
8395.9,-26.626,-19.725,-30.307,-36.053
8405.7,-22.626,-18.725,-28.307,-35.053
8415.6,-17.626,-17.725,-26.307,-34.053
8425.5,-11.626,-17.725,-23.307,-32.053
8435.4,-5.6259,-15.725,-18.307,-30.053
8445.3,-1.6259,-14.725,-17.307,-30.053
8455.2,4.3741,-14.725,-11.307,-29.053
8465.1,6.3741,-13.725,-12.307,-28.053
8474.9,6.3741,-13.725,-9.3071,-26.053
8484.8,9.3741,-12.725,-2.3071,-25.053
8494.7,9.3741,-12.725,-1.3071,-24.053
8504.6,10.374,-15.725,-1.3071,-24.053
8514.5,10.374,-15.725,0.69288,-24.053
8524.4,7.3741,-14.725,-1.3071,-24.053
8534.3,7.3741,-14.725,-1.3071,-23.053
8544.1,8.3741,-13.725,2.6929,-24.053
8554.0,8.3741,-13.725,2.6929,-23.053
8563.9,4.3741,-14.725,4.6929,-22.053
8573.8,4.3741,-14.725,3.6929,-22.053
8583.7,3.3741,-13.725,3.6929,-21.053
8593.6,3.3741,-13.725,3.6929,-20.053
8603.5,1.3741,-14.725,4.6929,-21.053
8613.3,1.3741,-14.725,4.6929,-20.053
8623.2,0.37409,-14.725,5.6929,-19.053
8633.1,0.37409,-15.725,2.6929,-20.053
8643.0,-1.6259,-16.725,-0.30712,-21.053
8652.9,-1.6259,-16.725,-1.3071,-20.053
8662.8,-3.6259,-16.725,1.6929,-20.053
8672.7,-4.6259,-16.725,1.6929,-21.053
8682.5,-7.6259,-18.725,1.6929,-20.053
8692.4,-9.6259,-19.725,2.6929,-19.053
8702.3,-12.626,-20.725,3.6929,-18.053
8712.2,-13.626,-21.725,2.6929,-18.053
8722.1,-17.626,-21.725,1.6929,-19.053
8732.0,-20.626,-22.725,-0.30712,-18.053
8741.9,-21.626,-24.725,1.6929,-18.053
8751.7,-24.626,-23.725,-0.30712,-17.053
8761.6,-29.626,-26.725,-1.3071,-18.053
8771.5,-32.626,-26.725,-0.30712,-19.053
8781.4,-36.626,-27.725,-3.3071,-18.053
8791.3,-39.626,-30.725,0.69288,-19.053
8801.2,-42.626,-31.725,-4.3071,-19.053
8811.1,-47.626,-32.725,-8.3071,-19.053
8820.9,-51.626,-32.725,-10.307,-21.053
8830.8,-54.626,-34.725,-10.307,-21.053
8840.7,-56.626,-35.725,-9.3071,-20.053
8850.6,-56.626,-33.725,-7.3071,-19.053
8860.5,-56.626,-32.725,-10.307,-20.053
8870.4,-55.626,-30.725,-12.307,-22.053
8880.3,-52.626,-28.725,-18.307,-23.053
8890.1,-46.626,-25.725,-19.307,-24.053
8900.0,-41.626,-24.725,-20.307,-24.053
8909.9,-37.626,-23.725,-15.307,-22.053
8919.8,-31.626,-23.725,-15.307,-22.053
8929.7,-27.626,-22.725,-9.3071,-21.053
8939.6,-24.626,-23.725,-3.3071,-19.053
8949.5,-19.626,-21.725,1.6929,-16.053
8959.3,-16.626,-21.725,4.6929,-16.053
8969.2,-14.626,-21.725,6.6929,-14.053
8979.1,-13.626,-20.725,8.6929,-15.053
8989.0,-12.626,-20.725,11.693,-13.053
8998.9,-13.626,-21.725,13.693,-13.053
9008.8,-11.626,-21.725,16.693,-12.053
9018.7,-14.626,-22.725,17.693,-11.053
9028.5,-15.626,-22.725,19.693,-11.053
9038.4,-17.626,-22.725,21.693,-9.0534
9048.3,-16.626,-21.725,23.693,-8.0534
9058.2,-18.626,-22.725,24.693,-7.0534
9068.1,-18.626,-21.725,22.693,-9.0534
9078.0,-20.626,-22.725,20.693,-9.0534
9087.9,-21.626,-22.725,16.693,-11.053
9097.7,-22.626,-22.725,14.693,-11.053
9107.6,-22.626,-23.725,15.693,-11.053
9117.5,-25.626,-22.725,15.693,-11.053
9127.4,-25.626,-23.725,15.693,-10.053
9137.3,-26.626,-22.725,15.693,-10.053
9147.2,-28.626,-23.725,14.693,-10.053
9157.1,-29.626,-23.725,14.693,-10.053
9166.9,-33.626,-25.725,12.693,-9.0534
9176.8,-33.626,-25.725,12.693,-9.0534
9186.7,-36.626,-26.725,10.693,-10.053
9196.6,-37.626,-26.725,10.693,-10.053
9206.5,-37.626,-26.725,9.6929,-11.053
9216.4,-43.626,-29.725,9.6929,-11.053
9226.3,-43.626,-29.725,9.6929,-11.053
9236.1,-49.626,-31.725,9.6929,-11.053
9246.0,-49.626,-31.725,10.693,-9.0534
9255.9,-56.626,-32.725,10.693,-9.0534
9265.8,-56.626,-32.725,7.6929,-10.053
9275.7,-63.626,-33.725,7.6929,-10.053
9285.6,-63.626,-33.725,4.6929,-11.053
9295.5,-69.626,-35.725,4.6929,-11.053
9305.3,-69.626,-35.725,3.6929,-11.053
9315.2,-76.626,-37.725,2.6929,-11.053
9325.1,-76.626,-37.725,-1.3071,-11.053
9335.0,-81.626,-37.725,-1.3071,-11.053
9344.9,-81.626,-37.725,-2.3071,-12.053
9354.8,-81.626,-37.725,-7.3071,-12.053
9364.7,-78.626,-34.725,-7.3071,-14.053
9374.5,-76.626,-33.725,-8.3071,-14.053
9384.4,-70.626,-32.725,-8.3071,-14.053
9394.3,-67.626,-29.725,-8.3071,-13.053
9404.2,-61.626,-27.725,-5.3071,-12.053
9414.1,-56.626,-26.725,-4.3071,-12.053
9424.0,-53.626,-26.725,1.6929,-9.0534
9433.9,-49.626,-25.725,6.6929,-6.0534
9443.7,-43.626,-25.725,9.6929,-8.0534
9453.6,-38.626,-23.725,10.693,-7.0534
9463.5,-38.626,-22.725,13.693,-6.0534
9473.4,-36.626,-23.725,16.693,-5.0534
9483.3,-33.626,-23.725,19.693,-5.0534
9493.2,-36.626,-23.725,23.693,-3.0534
9503.1,-35.626,-24.725,24.693,-3.0534
9512.9,-37.626,-24.725,23.693,-4.0534
9522.8,-38.626,-24.725,26.693,-2.0534
9532.7,-39.626,-23.725,25.693,-3.0534
9542.6,-42.626,-24.725,25.693,-2.0534
9552.5,-44.626,-24.725,26.693,-1.0534
9562.4,-44.626,-24.725,25.693,-2.0534
9572.3,-45.626,-25.725,23.693,-3.0534
9582.1,-46.626,-24.725,21.693,-3.0534
9592.0,-47.626,-24.725,20.693,-4.0534
9601.9,-48.626,-24.725,23.693,-3.0534
9611.8,-51.626,-27.725,22.693,-3.0534
9621.7,-52.626,-26.725,22.693,-2.0534
9631.6,-53.626,-26.725,23.693,-2.0534
9641.5,-55.626,-26.725,22.693,-0.053384
9651.3,-57.626,-28.725,22.693,-1.0534
9661.2,-57.626,-28.725,21.693,-1.0534
9671.1,-60.626,-29.725,20.693,-0.053384
9681.0,-63.626,-29.725,20.693,-0.053384
9690.9,-64.626,-31.725,18.693,-1.0534
9700.8,-69.626,-31.725,18.693,-1.0534
9710.7,-70.626,-32.725,18.693,-1.0534
9720.5,-73.626,-32.725,15.693,-1.0534
9730.4,-76.626,-33.725,13.693,-3.0534
9740.3,-79.626,-35.725,11.693,-5.0534
9750.2,-82.626,-35.725,9.6929,-4.0534
9760.1,-88.626,-37.725,7.6929,-4.0534
9770.0,-90.626,-38.725,7.6929,-4.0534
9779.8,-94.626,-40.725,8.6929,-4.0534
9789.7,-96.626,-40.725,6.6929,-4.0534
9799.6,-99.626,-41.725,2.6929,-5.0534
9809.5,-104.63,-42.725,-1.3071,-7.0534
9819.4,-108.63,-43.725,-2.3071,-8.0534
9829.3,-112.63,-44.725,-4.3071,-9.0534
9839.2,-111.63,-43.725,-5.3071,-9.0534
9849.1,-113.63,-40.725,-10.307,-10.053
9858.9,-110.63,-40.725,-13.307,-11.053
9868.8,-105.63,-36.725,-14.307,-11.053
9878.7,-101.63,-34.725,-19.307,-13.053
9888.6,-98.626,-34.725,-19.307,-15.053
9898.5,-96.626,-33.725,-18.307,-13.053
9908.4,-91.626,-32.725,-16.307,-12.053
9918.2,-86.626,-31.725,-15.307,-13.053
9928.1,-83.626,-31.725,-15.307,-13.053
9938.0,-83.626,-31.725,-13.307,-13.053
9947.9,-74.626,-30.725,-9.3071,-15.053
9957.8,-74.626,-30.725,-8.3071,-13.053
9967.7,-71.626,-29.725,-8.3071,-11.053
9977.6,-71.626,-29.725,-8.3071,-12.053
9987.5,-71.626,-29.725,-7.3071,-13.053
9997.3,-71.626,-29.725,-9.3071,-13.053
10007.0,-73.626,-30.725,-7.3071,-12.053
10017.0,-73.626,-30.725,-7.3071,-10.053
10027.0,-76.626,-30.725,-6.3071,-11.053
10037.0,-76.626,-30.725,-6.3071,-10.053
10047.0,-80.626,-28.725,-8.3071,-11.053
10057.0,-80.626,-28.725,-5.3071,-10.053
10067.0,-79.626,-29.725,-9.3071,-11.053
10076.0,-79.626,-29.725,-10.307,-10.053
10086.0,-81.626,-28.725,-10.307,-12.053
10096.0,-83.626,-29.725,-13.307,-13.053
10106.0,-82.626,-30.725,-13.307,-13.053
10116.0,-85.626,-29.725,-14.307,-13.053
10126.0,-84.626,-29.725,-14.307,-13.053
10136.0,-85.626,-29.725,-16.307,-15.053
10146.0,-85.626,-30.725,-16.307,-15.053
10156.0,-87.626,-30.725,-19.307,-13.053
10165.0,-90.626,-32.725,-19.307,-13.053
10175.0,-90.626,-31.725,-22.307,-14.053
10185.0,-94.626,-32.725,-22.307,-14.053
10195.0,-97.626,-32.725,-20.307,-12.053
10205.0,-100.63,-34.725,-20.307,-12.053
10215.0,-102.63,-34.725,-19.307,-13.053
10225.0,-105.63,-35.725,-19.307,-13.053
10235.0,-107.63,-37.725,-19.307,-11.053
10245.0,-109.63,-37.725,-19.307,-11.053
10254.0,-112.63,-37.725,-23.307,-13.053
10264.0,-116.63,-37.725,-23.307,-13.053
10274.0,-121.63,-38.725,-27.307,-15.053
10284.0,-123.63,-41.725,-27.307,-15.053
10294.0,-126.63,-41.725,-32.307,-17.053
10304.0,-131.63,-43.725,-35.307,-19.053
10314.0,-133.63,-44.725,-39.307,-20.053
10324.0,-139.63,-45.725,-40.307,-20.053
10333.0,-142.63,-44.725,-41.307,-20.053
10343.0,-139.63,-42.725,-43.307,-22.053
10353.0,-137.63,-41.725,-49.307,-22.053
10363.0,-134.63,-39.725,-51.307,-23.053
10373.0,-131.63,-35.725,-53.307,-24.053
10383.0,-126.63,-34.725,-55.307,-24.053
10393.0,-121.63,-34.725,-53.307,-25.053
10403.0,-120.63,-33.725,-53.307,-23.053
10413.0,-113.63,-31.725,-53.307,-24.053
10422.0,-109.63,-31.725,-51.307,-23.053
10432.0,-104.63,-29.725,-47.307,-22.053
10442.0,-98.626,-29.725,-44.307,-22.053
10452.0,-97.626,-28.725,-40.307,-21.053
10462.0,-94.626,-28.725,-38.307,-21.053
10472.0,-94.626,-28.725,-38.307,-20.053
10482.0,-94.626,-28.725,-36.307,-20.053
10492.0,-93.626,-28.725,-37.307,-20.053
10502.0,-95.626,-29.725,-36.307,-21.053
10511.0,-97.626,-29.725,-37.307,-21.053
10521.0,-97.626,-28.725,-37.307,-21.053
10531.0,-96.626,-28.725,-37.307,-22.053
10541.0,-98.626,-26.725,-42.307,-24.053
10551.0,-99.626,-26.725,-44.307,-25.053
10561.0,-100.63,-26.725,-45.307,-24.053
10571.0,-102.63,-26.725,-48.307,-25.053
10581.0,-98.626,-25.725,-46.307,-25.053
10591.0,-100.63,-26.725,-47.307,-26.053
10600.0,-100.63,-26.725,-48.307,-26.053
10610.0,-101.63,-26.725,-46.307,-25.053
10620.0,-100.63,-25.725,-46.307,-25.053
10630.0,-101.63,-25.725,-48.307,-24.053
10640.0,-102.63,-26.725,-50.307,-24.053
10650.0,-102.63,-26.725,-52.307,-27.053
10660.0,-104.63,-26.725,-56.307,-26.053
10670.0,-104.63,-26.725,-56.307,-28.053
10679.0,-106.63,-28.725,-55.307,-28.053
10689.0,-106.63,-28.725,-54.307,-27.053
10699.0,-110.63,-28.725,-54.307,-26.053
10709.0,-110.63,-28.725,-52.307,-26.053
10719.0,-113.63,-28.725,-55.307,-28.053
10729.0,-113.63,-28.725,-56.307,-29.053
10739.0,-118.63,-29.725,-59.307,-29.053
10749.0,-118.63,-29.725,-61.307,-28.053
10759.0,-126.63,-31.725,-59.307,-28.053
10768.0,-126.63,-31.725,-59.307,-29.053
10778.0,-132.63,-32.725,-62.307,-30.053
10788.0,-132.63,-32.725,-64.307,-30.053
10798.0,-133.63,-32.725,-63.307,-30.053
10808.0,-138.63,-34.725,-64.307,-28.053
10818.0,-139.63,-36.725,-61.307,-27.053
10828.0,-142.63,-35.725,-57.307,-25.053
10838.0,-139.63,-33.725,-59.307,-25.053
10848.0,-140.63,-33.725,-60.307,-25.053
10857.0,-138.63,-30.725,-60.307,-22.053
10867.0,-133.63,-27.725,-61.307,-22.053
10877.0,-127.63,-24.725,-57.307,-20.053
10887.0,-121.63,-23.725,-56.307,-20.053
10897.0,-118.63,-23.725,-53.307,-20.053
10907.0,-114.63,-21.725,-53.307,-21.053
10917.0,-107.63,-21.725,-53.307,-22.053
10927.0,-100.63,-18.725,-53.307,-22.053
10937.0,-94.626,-18.725,-53.307,-23.053
10946.0,-90.626,-17.725,-50.307,-24.053
10956.0,-88.626,-17.725,-49.307,-25.053
10966.0,-86.626,-17.725,-50.307,-25.053
10976.0,-86.626,-17.725,-47.307,-23.053
10986.0,-85.626,-16.725,-45.307,-22.053
10996.0,-86.626,-17.725,-45.307,-22.053
11006.0,-86.626,-17.725,-42.307,-22.053
11016.0,-85.626,-17.725,-43.307,-22.053
11025.0,-86.626,-16.725,-47.307,-24.053
11035.0,-87.626,-16.725,-44.307,-24.053
11045.0,-87.626,-15.725,-45.307,-22.053
11055.0,-87.626,-14.725,-45.307,-23.053
11065.0,-88.626,-14.725,-45.307,-23.053
11075.0,-87.626,-14.725,-45.307,-23.053
11085.0,-87.626,-13.725,-46.307,-22.053
11095.0,-87.626,-13.725,-46.307,-22.053
11105.0,-86.626,-13.725,-48.307,-25.053
11114.0,-86.626,-14.725,-48.307,-25.053
11124.0,-89.626,-14.725,-47.307,-24.053
11134.0,-89.626,-12.725,-47.307,-24.053
11144.0,-88.626,-13.725,-50.307,-26.053
11154.0,-89.626,-13.725,-50.307,-26.053
11164.0,-91.626,-12.725,-52.307,-24.053
11174.0,-91.626,-13.725,-52.307,-24.053
11184.0,-93.626,-14.725,-53.307,-25.053
11194.0,-94.626,-14.725,-53.307,-25.053
11203.0,-96.626,-14.725,-56.307,-27.053
11213.0,-99.626,-14.725,-56.307,-27.053
11223.0,-99.626,-15.725,-57.307,-28.053
11233.0,-101.63,-16.725,-57.307,-28.053
11243.0,-105.63,-17.725,-56.307,-26.053
11253.0,-109.63,-19.725,-56.307,-26.053
11263.0,-114.63,-19.725,-58.307,-25.053
11273.0,-115.63,-20.725,-58.307,-25.053
11283.0,-117.63,-21.725,-59.307,-26.053
11292.0,-120.63,-21.725,-59.307,-26.053
11302.0,-123.63,-22.725,-58.307,-27.053
11312.0,-122.63,-22.725,-59.307,-26.053
11322.0,-124.63,-20.725,-59.307,-26.053
11332.0,-121.63,-18.725,-62.307,-27.053
11342.0,-117.63,-15.725,-63.307,-28.053
11352.0,-112.63,-12.725,-64.307,-27.053
11362.0,-105.63,-11.725,-63.307,-27.053
11371.0,-100.63,-10.725,-63.307,-26.053
11381.0,-100.63,-10.725,-63.307,-27.053
11391.0,-89.626,-8.725,-61.307,-26.053
11401.0,-89.626,-8.725,-58.307,-25.053
11411.0,-77.626,-5.725,-56.307,-26.053
11421.0,-77.626,-5.725,-53.307,-25.053
11431.0,-71.626,-4.725,-48.307,-23.053
11441.0,-71.626,-4.725,-42.307,-21.053
11451.0,-66.626,-3.725,-39.307,-20.053
11460.0,-66.626,-3.725,-37.307,-18.053
11470.0,-65.626,-4.725,-36.307,-19.053
11480.0,-65.626,-4.725,-35.307,-19.053
11490.0,-65.626,-4.725,-35.307,-19.053
11500.0,-65.626,-4.725,-30.307,-17.053
11510.0,-65.626,-2.725,-29.307,-16.053
11520.0,-65.626,-2.725,-27.307,-15.053
11530.0,-66.626,-3.725,-26.307,-15.053
11540.0,-66.626,-3.725,-25.307,-14.053
11549.0,-67.626,-2.725,-25.307,-14.053
11559.0,-66.626,-2.725,-25.307,-13.053
11569.0,-65.626,-2.725,-25.307,-12.053
11579.0,-65.626,-1.725,-22.307,-12.053
11589.0,-66.626,-2.725,-23.307,-11.053
11599.0,-66.626,-1.725,-20.307,-11.053
11609.0,-65.626,-1.725,-20.307,-12.053
11619.0,-62.626,-0.72497,-24.307,-11.053
11629.0,-62.626,-0.72497,-19.307,-11.053
11638.0,-60.626,-0.72497,-23.307,-11.053
11648.0,-62.626,0.27503,-21.307,-11.053
11658.0,-60.626,2.275,-20.307,-12.053
11668.0,-59.626,2.275,-21.307,-10.053
11678.0,-60.626,2.275,-20.307,-12.053
11688.0,-60.626,4.275,-21.307,-11.053
11698.0,-64.626,1.275,-21.307,-12.053
11708.0,-66.626,1.275,-22.307,-11.053
11717.0,-66.626,2.275,-22.307,-11.053
11727.0,-69.626,2.275,-22.307,-11.053
11737.0,-70.626,1.275,-24.307,-11.053
11747.0,-71.626,2.275,-24.307,-11.053
11757.0,-72.626,1.275,-24.307,-12.053
11767.0,-74.626,1.275,-24.307,-12.053
11777.0,-76.626,2.275,-25.307,-13.053
11787.0,-78.626,0.27503,-26.307,-12.053
11797.0,-80.626,0.27503,-24.307,-13.053
11806.0,-76.626,4.275,-25.307,-12.053
11816.0,-75.626,6.275,-26.307,-10.053
11826.0,-71.626,9.275,-27.307,-10.053
11836.0,-65.626,10.275,-27.307,-10.053
11846.0,-58.626,13.275,-26.307,-11.053
11856.0,-51.626,16.275,-24.307,-10.053
11866.0,-46.626,17.275,-21.307,-9.0534
11876.0,-40.626,18.275,-21.307,-10.053
11886.0,-34.626,20.275,-17.307,-9.0534
11895.0,-26.626,21.275,-12.307,-7.0534
11905.0,-20.626,23.275,-9.3071,-7.0534
11915.0,-16.626,24.275,-5.3071,-5.0534
11925.0,-11.626,25.275,-0.30712,-4.0534
11935.0,-8.6259,26.275,0.69288,-4.0534
11945.0,-6.6259,29.275,4.6929,-3.0534
11955.0,-2.6259,30.275,6.6929,-2.0534
11965.0,-1.6259,30.275,7.6929,-1.0534
11975.0,-0.62591,31.275,11.693,-1.0534
11984.0,2.3741,32.275,11.693,-0.053384
11994.0,3.3741,33.275,13.693,0.94662
12004.0,5.3741,35.275,13.693,1.9466
12014.0,7.3741,37.275,14.693,0.94662
12024.0,8.3741,39.275,14.693,1.9466
12034.0,12.374,41.275,14.693,0.94662
12044.0,14.374,43.275,11.693,0.94662
12054.0,17.374,44.275,13.693,0.94662
12063.0,19.374,46.275,14.693,2.9466
12073.0,22.374,48.275,14.693,1.9466
12083.0,23.374,49.275,14.693,1.9466
12093.0,25.374,51.275,18.693,3.9466
12103.0,27.374,52.275,18.693,3.9466
12113.0,27.374,52.275,15.693,2.9466
12123.0,31.374,53.275,15.693,2.9466
12133.0,31.374,53.275,15.693,1.9466
12143.0,35.374,57.275,15.693,1.9466
12152.0,35.374,57.275,16.693,3.9466
12162.0,36.374,59.275,16.693,3.9466
12172.0,36.374,59.275,14.693,4.9466
12182.0,35.374,60.275,14.693,4.9466
12192.0,35.374,60.275,14.693,2.9466
12202.0,34.374,61.275,14.693,2.9466
12212.0,34.374,61.275,9.6929,2.9466
12222.0,33.374,62.275,9.6929,2.9466
12232.0,33.374,62.275,12.693,3.9466
12241.0,33.374,61.275,12.693,3.9466
12251.0,33.374,62.275,7.6929,1.9466
12261.0,32.374,62.275,7.6929,1.9466
12271.0,31.374,64.275,6.6929,1.9466
12281.0,30.374,63.275,6.6929,0.94662
12291.0,34.374,67.275,7.6929,0.94662
12301.0,37.374,68.275,7.6929,0.94662
12311.0,42.374,72.275,6.6929,0.94662
12321.0,47.374,74.275,6.6929,0.94662
12330.0,53.374,77.275,4.6929,-0.053384
12340.0,61.374,80.275,3.6929,0.94662
12350.0,66.374,82.275,6.6929,1.9466
12360.0,73.374,82.275,9.6929,1.9466
12370.0,80.374,84.275,13.693,3.9466
12380.0,85.374,87.275,19.693,5.9466
12390.0,90.374,88.275,24.693,5.9466
12400.0,96.374,88.275,26.693,6.9466
12409.0,101.37,89.275,29.693,6.9466
12419.0,103.37,91.275,31.693,7.9466
12429.0,104.37,91.275,34.693,9.9466
12439.0,107.37,92.275,37.693,8.9466
12449.0,108.37,92.275,37.693,9.9466
12459.0,108.37,93.275,41.693,9.9466
12469.0,108.37,92.275,40.693,11.947
12479.0,109.37,94.275,42.693,12.947
12489.0,109.37,94.275,41.693,9.9466
12498.0,109.37,94.275,41.693,9.9466
12508.0,112.37,94.275,40.693,10.947
12518.0,111.37,95.275,37.693,8.9466
12528.0,112.37,96.275,38.693,9.9466
12538.0,112.37,96.275,37.693,10.947
12548.0,114.37,96.275,38.693,10.947
12558.0,114.37,96.275,43.693,11.947
12568.0,114.37,96.275,42.693,14.947
12578.0,113.37,97.275,41.693,11.947
12587.0,114.37,95.275,38.693,11.947
12597.0,113.37,94.275,37.693,9.9466
12607.0,111.37,93.275,36.693,8.9466
12617.0,111.37,93.275,35.693,7.9466
12627.0,111.37,94.275,34.693,8.9466
12637.0,110.37,93.275,35.693,8.9466
12647.0,108.37,92.275,34.693,8.9466
12657.0,106.37,91.275,35.693,9.9466
12667.0,103.37,91.275,35.693,8.9466
12676.0,100.37,90.275,33.693,9.9466
12686.0,98.374,89.275,29.693,6.9466
12696.0,96.374,89.275,28.693,7.9466
12706.0,94.374,87.275,27.693,6.9466
12716.0,91.374,86.275,27.693,7.9466
12726.0,91.374,86.275,27.693,6.9466
12736.0,88.374,86.275,22.693,5.9466
12746.0,86.374,83.275,22.693,4.9466
12755.0,82.374,84.275,18.693,3.9466
12765.0,84.374,85.275,17.693,2.9466
12775.0,85.374,86.275,14.693,1.9466
12785.0,87.374,88.275,11.693,-0.053384
12795.0,90.374,90.275,9.6929,-0.053384
12805.0,95.374,91.275,7.6929,-0.053384
12815.0,100.37,92.275,8.6929,0.94662
12825.0,100.37,92.275,9.6929,-0.053384
12835.0,110.37,94.275,11.693,0.94662
12844.0,110.37,94.275,13.693,1.9466
12854.0,122.37,95.275,15.693,-0.053384
12864.0,122.37,95.275,17.693,0.94662
12874.0,131.37,98.275,17.693,-0.053384
12884.0,131.37,98.275,18.693,-0.053384
12894.0,135.37,98.275,20.693,-0.053384
12904.0,135.37,98.275,21.693,0.94662
12914.0,135.37,98.275,21.693,-0.053384
12924.0,135.37,98.275,19.693,0.94662
12933.0,131.37,97.275,22.693,-0.053384
12943.0,131.37,97.275,24.693,0.94662
12953.0,130.37,96.275,23.693,1.9466
12963.0,130.37,96.275,22.693,1.9466
12973.0,131.37,97.275,21.693,1.9466
12983.0,129.37,96.275,21.693,-0.053384
12993.0,128.37,96.275,20.693,-0.053384
13003.0,127.37,96.275,20.693,-0.053384
13013.0,128.37,96.275,19.693,-0.053384
13022.0,126.37,94.275,19.693,0.94662
13032.0,125.37,93.275,19.693,0.94662
13042.0,122.37,92.275,19.693,1.9466
13052.0,121.37,92.275,19.693,1.9466
13062.0,119.37,91.275,19.693,0.94662
13072.0,120.37,91.275,19.693,0.94662
13082.0,117.37,90.275,14.693,-0.053384
13092.0,116.37,88.275,14.693,-0.053384
13101.0,114.37,88.275,12.693,-1.0534
13111.0,111.37,86.275,12.693,-1.0534
13121.0,110.37,85.275,11.693,-1.0534
13131.0,107.37,85.275,11.693,-1.0534
13141.0,105.37,83.275,10.693,-3.0534
13151.0,102.37,83.275,10.693,-3.0534
13161.0,98.374,81.275,5.6929,-4.0534
13171.0,97.374,79.275,5.6929,-4.0534
13181.0,92.374,79.275,4.6929,-4.0534
13190.0,91.374,78.275,4.6929,-4.0534
13200.0,86.374,76.275,1.6929,-4.0534
13210.0,82.374,75.275,1.6929,-4.0534
13220.0,80.374,74.275,-4.3071,-5.0534
13230.0,75.374,74.275,-4.3071,-5.0534
13240.0,71.374,71.275,-5.3071,-6.0534
13250.0,72.374,72.275,-5.3071,-6.0534
13260.0,71.374,73.275,-7.3071,-8.0534
13270.0,73.374,74.275,-9.3071,-9.0534
13279.0,78.374,76.275,-14.307,-10.053
13289.0,82.374,76.275,-16.307,-11.053
13299.0,88.374,77.275,-17.307,-10.053
13309.0,91.374,78.275,-15.307,-9.0534
13319.0,95.374,78.275,-10.307,-8.0534
13329.0,102.37,78.275,-6.3071,-7.0534
13339.0,106.37,80.275,-2.3071,-7.0534
13349.0,113.37,80.275,0.69288,-5.0534
13359.0,115.37,80.275,1.6929,-4.0534
13368.0,117.37,80.275,5.6929,-3.0534
13378.0,119.37,80.275,8.6929,-3.0534
13388.0,120.37,80.275,5.6929,-3.0534
13398.0,120.37,81.275,6.6929,-3.0534
13408.0,121.37,79.275,11.693,-3.0534
13418.0,122.37,80.275,9.6929,-3.0534
13428.0,120.37,80.275,10.693,-2.0534
13438.0,118.37,79.275,10.693,-2.0534
13447.0,119.37,80.275,8.6929,-3.0534
13457.0,116.37,79.275,9.6929,-3.0534
13467.0,119.37,79.275,8.6929,-2.0534
13477.0,118.37,78.275,8.6929,-3.0534
13487.0,116.37,77.275,8.6929,-3.0534
13497.0,115.37,77.275,7.6929,-3.0534
13507.0,114.37,76.275,6.6929,-5.0534
13517.0,113.37,75.275,5.6929,-4.0534
13527.0,112.37,75.275,2.6929,-5.0534
13536.0,111.37,73.275,5.6929,-4.0534
13546.0,108.37,71.275,3.6929,-3.0534
13556.0,108.37,71.275,4.6929,-2.0534
13566.0,105.37,68.275,4.6929,-2.0534
13576.0,105.37,68.275,4.6929,-2.0534
13586.0,100.37,67.275,1.6929,-3.0534
13596.0,100.37,67.275,-0.30712,-4.0534
13606.0,94.374,64.275,-1.3071,-3.0534
13616.0,94.374,64.275,-0.30712,-3.0534
13625.0,87.374,61.275,0.69288,-3.0534
13635.0,87.374,61.275,-0.30712,-2.0534
13645.0,80.374,57.275,-1.3071,-2.0534
13655.0,80.374,57.275,-1.3071,-2.0534
13665.0,73.374,54.275,-1.3071,-2.0534
13675.0,73.374,54.275,-2.3071,-2.0534
13685.0,63.374,50.275,-5.3071,-3.0534
13695.0,63.374,50.275,-4.3071,-3.0534
13705.0,58.374,47.275,-8.3071,-3.0534
13714.0,53.374,45.275,-10.307,-5.0534
13724.0,51.374,44.275,-9.3071,-5.0534
13734.0,52.374,45.275,-10.307,-4.0534
13744.0,53.374,47.275,-12.307,-3.0534
13754.0,59.374,49.275,-14.307,-5.0534
13764.0,60.374,50.275,-15.307,-4.0534
13774.0,68.374,51.275,-15.307,-3.0534
13784.0,72.374,53.275,-11.307,-2.0534
13793.0,77.374,51.275,-5.3071,-1.0534
13803.0,81.374,51.275,-2.3071,0.94662
13813.0,88.374,53.275,2.6929,0.94662
13823.0,92.374,54.275,4.6929,0.94662
13833.0,96.374,55.275,6.6929,2.9466
13843.0,99.374,53.275,8.6929,1.9466
13853.0,100.37,54.275,11.693,2.9466
13863.0,101.37,53.275,13.693,3.9466
13873.0,102.37,53.275,15.693,4.9466
13882.0,102.37,52.275,18.693,4.9466
13892.0,102.37,51.275,18.693,6.9466
13902.0,101.37,50.275,19.693,5.9466
13912.0,100.37,49.275,22.693,8.9466
13922.0,98.374,48.275,21.693,7.9466
13932.0,97.374,47.275,22.693,7.9466
13942.0,97.374,48.275,18.693,5.9466
13952.0,97.374,46.275,17.693,5.9466
13962.0,94.374,46.275,16.693,7.9466
13971.0,92.374,45.275,16.693,6.9466
13981.0,92.374,44.275,18.693,5.9466
13991.0,91.374,43.275,14.693,7.9466
14001.0,89.374,42.275,14.693,6.9466
14011.0,88.374,41.275,15.693,7.9466
14021.0,87.374,40.275,14.693,7.9466
14031.0,84.374,39.275,14.693,7.9466
14041.0,80.374,37.275,15.693,7.9466
14051.0,81.374,37.275,13.693,7.9466
14060.0,80.374,35.275,13.693,7.9466
14070.0,74.374,33.275,10.693,6.9466
14080.0,72.374,32.275,10.693,6.9466
14090.0,70.374,31.275,9.6929,6.9466
14100.0,66.374,30.275,9.6929,6.9466
14110.0,63.374,28.275,7.6929,7.9466
14120.0,60.374,27.275,7.6929,7.9466
14130.0,55.374,24.275,7.6929,7.9466
14139.0,55.374,23.275,7.6929,7.9466
14149.0,51.374,23.275,3.6929,7.9466
14159.0,46.374,20.275,3.6929,7.9466
14169.0,44.374,19.275,5.6929,9.9466
14179.0,40.374,17.275,5.6929,9.9466
14189.0,37.374,17.275,5.6929,9.9466
14199.0,37.374,17.275,5.6929,9.9466
14209.0,39.374,18.275,-0.30712,7.9466
14219.0,42.374,21.275,-0.30712,7.9466
14228.0,46.374,23.275,-5.3071,4.9466
14238.0,51.374,22.275,-5.3071,4.9466
14248.0,58.374,25.275,-3.3071,5.9466
14258.0,64.374,26.275,-3.3071,5.9466
14268.0,67.374,27.275,-2.3071,6.9466
14278.0,75.374,27.275,0.69288,8.9466
14288.0,75.374,27.275,7.6929,8.9466
14298.0,82.374,29.275,11.693,9.9466
14308.0,82.374,29.275,18.693,12.947
14317.0,86.374,29.275,24.693,13.947
14327.0,86.374,29.275,26.693,14.947
14337.0,90.374,29.275,26.693,14.947
14347.0,90.374,29.275,26.693,14.947
14357.0,91.374,28.275,27.693,15.947
14367.0,91.374,28.275,29.693,16.947
14377.0,89.374,27.275,31.693,17.947
14387.0,89.374,27.275,31.693,17.947
14397.0,90.374,26.275,31.693,17.947
14406.0,90.374,26.275,26.693,15.947
14416.0,88.374,26.275,25.693,15.947
14426.0,88.374,26.275,25.693,15.947
14436.0,89.374,26.275,26.693,15.947
14446.0,88.374,24.275,27.693,16.947
14456.0,87.374,25.275,29.693,18.947
14466.0,90.374,26.275,31.693,18.947
14476.0,89.374,24.275,28.693,17.947
14485.0,89.374,24.275,28.693,17.947
14495.0,87.374,23.275,29.693,17.947
14505.0,85.374,22.275,28.693,19.947
14515.0,85.374,23.275,29.693,18.947
14525.0,82.374,22.275,29.693,18.947
14535.0,81.374,22.275,28.693,20.947
14545.0,78.374,19.275,25.693,18.947
14555.0,76.374,18.275,25.693,18.947
14565.0,73.374,17.275,22.693,16.947
14574.0,70.374,16.275,23.693,16.947
14584.0,66.374,15.275,25.693,17.947
14594.0,65.374,13.275,25.693,18.947
14604.0,61.374,12.275,28.693,19.947
14614.0,57.374,10.275,24.693,18.947
14624.0,51.374,8.275,21.693,17.947
14634.0,51.374,9.275,19.693,16.947
14644.0,46.374,4.275,18.693,17.947
14654.0,44.374,5.275,21.693,18.947
14663.0,39.374,4.275,21.693,17.947
14673.0,40.374,4.275,21.693,17.947
14683.0,41.374,6.275,18.693,16.947
14693.0,45.374,8.275,15.693,17.947
14703.0,49.374,9.275,12.693,14.947
14713.0,53.374,10.275,12.693,15.947
14723.0,57.374,12.275,14.693,16.947
14733.0,63.374,14.275,19.693,17.947
14743.0,69.374,14.275,22.693,19.947
14752.0,73.374,15.275,27.693,20.947
14762.0,75.374,14.275,33.693,20.947
14772.0,78.374,14.275,33.693,20.947
14782.0,79.374,13.275,36.693,21.947
14792.0,82.374,14.275,41.693,23.947
14802.0,84.374,15.275,43.693,24.947
14812.0,84.374,13.275,45.693,24.947
14822.0,83.374,14.275,47.693,25.947
14831.0,86.374,13.275,47.693,25.947
14841.0,82.374,10.275,50.693,26.947
14851.0,82.374,12.275,50.693,26.947
14861.0,81.374,10.275,54.693,28.947
14871.0,80.374,10.275,53.693,28.947
14881.0,79.374,10.275,53.693,28.947
14891.0,78.374,10.275,50.693,26.947
14901.0,78.374,9.275,50.693,26.947
14911.0,77.374,8.275,51.693,26.947
14920.0,76.374,9.275,51.693,26.947
14930.0,73.374,6.275,53.693,28.947
14940.0,73.374,6.275,55.693,29.947
14950.0,71.374,5.275,57.693,30.947
14960.0,69.374,3.275,53.693,27.947
14970.0,69.374,3.275,53.693,28.947
14980.0,67.374,1.275,54.693,28.947
14990.0,66.374,2.275,53.693,28.947
15000.0,63.374,0.27503,53.693,28.947
15009.0,61.374,-0.72497,54.693,27.947
15019.0,61.374,-0.72497,53.693,29.947
15029.0,55.374,-1.725,53.693,29.947
15039.0,55.374,-1.725,50.693,27.947
15049.0,49.374,-5.725,50.693,27.947
15059.0,49.374,-5.725,48.693,25.947
15069.0,45.374,-6.725,48.693,25.947
15079.0,45.374,-6.725,47.693,25.947
15089.0,39.374,-9.725,47.693,25.947
15098.0,39.374,-9.725,46.693,25.947
15108.0,34.374,-11.725,46.693,25.947
15118.0,34.374,-11.725,46.693,27.947
15128.0,24.374,-14.725,46.693,27.947
15138.0,24.374,-14.725,46.693,26.947
15148.0,27.374,-12.725,46.693,26.947
15158.0,27.374,-12.725,38.693,22.947
15168.0,28.374,-8.725,38.693,22.947
15177.0,35.374,-7.725,33.693,21.947
15187.0,38.374,-5.725,33.693,21.947
15197.0,44.374,-3.725,35.693,22.947
15207.0,50.374,-2.725,40.693,22.947
15217.0,54.374,-1.725,42.693,24.947
15227.0,58.374,-1.725,47.693,24.947
15237.0,64.374,-1.725,50.693,24.947
15247.0,66.374,-1.725,53.693,25.947
15257.0,70.374,-0.72497,55.693,24.947
15266.0,70.374,0.27503,58.693,26.947
15276.0,73.374,0.27503,60.693,24.947
15286.0,76.374,0.27503,65.693,27.947
15296.0,76.374,1.275,65.693,27.947
15306.0,76.374,1.275,65.693,28.947
15316.0,76.374,-0.72497,70.693,28.947
15326.0,75.374,-1.725,70.693,29.947
15336.0,74.374,-2.725,69.693,29.947
15346.0,73.374,-3.725,70.693,29.947
15355.0,74.374,-2.725,70.693,29.947
15365.0,72.374,-1.725,70.693,28.947
15375.0,72.374,-4.725,69.693,28.947
15385.0,72.374,-2.725,70.693,29.947
15395.0,71.374,-2.725,68.693,27.947
15405.0,70.374,-4.725,65.693,25.947
15415.0,70.374,-5.725,65.693,26.947
15425.0,67.374,-5.725,67.693,25.947
15434.0,66.374,-6.725,69.693,26.947
15444.0,67.374,-6.725,67.693,26.947
15454.0,65.374,-5.725,66.693,26.947
15464.0,62.374,-7.725,66.693,27.947
15474.0,59.374,-8.725,65.693,26.947
15484.0,59.374,-10.725,66.693,26.947
15494.0,56.374,-10.725,65.693,26.947
15504.0,54.374,-11.725,65.693,26.947
15514.0,50.374,-13.725,64.693,26.947
15523.0,48.374,-14.725,65.693,27.947
15533.0,44.374,-14.725,62.693,25.947
15543.0,43.374,-15.725,60.693,24.947
15553.0,41.374,-15.725,60.693,24.947
15563.0,38.374,-17.725,58.693,24.947
15573.0,34.374,-19.725,59.693,24.947
15583.0,28.374,-19.725,57.693,24.947
15593.0,27.374,-20.725,56.693,24.947
15603.0,24.374,-22.725,55.693,23.947
15612.0,24.374,-22.725,53.693,20.947
15622.0,21.374,-20.725,52.693,22.947
15632.0,23.374,-19.725,53.693,21.947
15642.0,26.374,-16.725,52.693,21.947
15652.0,30.374,-15.725,48.693,20.947
15662.0,37.374,-13.725,48.693,20.947
15672.0,43.374,-10.725,47.693,20.947
15682.0,49.374,-9.725,49.693,21.947
15692.0,53.374,-8.725,51.693,20.947
15701.0,55.374,-9.725,54.693,21.947
15711.0,58.374,-8.725,60.693,22.947
15721.0,63.374,-8.725,65.693,24.947
15731.0,66.374,-7.725,69.693,24.947
15741.0,68.374,-7.725,73.693,26.947
15751.0,68.374,-7.725,75.693,26.947
15761.0,72.374,-6.725,79.693,28.947
15771.0,72.374,-6.725,82.693,29.947
15780.0,74.374,-6.725,83.693,27.947
15790.0,74.374,-6.725,81.693,26.947
15800.0,73.374,-7.725,82.693,28.947
15810.0,73.374,-7.725,82.693,27.947
15820.0,71.374,-7.725,83.693,27.947
15830.0,71.374,-7.725,84.693,27.947
15840.0,73.374,-6.725,83.693,27.947
15850.0,73.374,-6.725,85.693,28.947
15860.0,72.374,-5.725,83.693,26.947
15869.0,72.374,-5.725,79.693,27.947
15879.0,71.374,-6.725,81.693,26.947
15889.0,71.374,-6.725,79.693,27.947
15899.0,70.374,-7.725,80.693,26.947
15909.0,69.374,-7.725,81.693,27.947
15919.0,69.374,-7.725,80.693,26.947
15929.0,68.374,-8.725,78.693,26.947
15939.0,66.374,-9.725,78.693,25.947
15949.0,63.374,-8.725,75.693,24.947
15958.0,62.374,-10.725,75.693,22.947
15968.0,60.374,-10.725,72.693,21.947
15978.0,56.374,-11.725,73.693,23.947
15988.0,53.374,-13.725,74.693,24.947
15998.0,54.374,-14.725,73.693,24.947
16008.0,50.374,-13.725,72.693,24.947
16018.0,48.374,-13.725,72.693,24.947
16028.0,44.374,-14.725,70.693,23.947
16038.0,42.374,-16.725,70.693,23.947
16047.0,40.374,-17.725,68.693,22.947
16057.0,36.374,-17.725,68.693,22.947
16067.0,34.374,-18.725,64.693,20.947
16077.0,32.374,-19.725,64.693,20.947
16087.0,28.374,-20.725,62.693,19.947
16097.0,25.374,-20.725,62.693,19.947
16107.0,25.374,-20.725,58.693,17.947
16117.0,29.374,-16.725,58.693,17.947
16126.0,31.374,-15.725,50.693,13.947
16136.0,35.374,-13.725,50.693,13.947
16146.0,40.374,-9.725,44.693,12.947
16156.0,47.374,-7.725,44.693,12.947
16166.0,50.374,-7.725,48.693,11.947
16176.0,55.374,-6.725,48.693,11.947
16186.0,59.374,-6.725,52.693,13.947
16196.0,64.374,-5.725,52.693,13.947
16206.0,67.374,-5.725,55.693,13.947
16215.0,71.374,-5.725,55.693,13.947
16225.0,74.374,-3.725,57.693,13.947
16235.0,76.374,-4.725,61.693,14.947
16245.0,77.374,-4.725,61.693,14.947
16255.0,78.374,-3.725,64.693,14.947
16265.0,78.374,-3.725,64.693,12.947
16275.0,78.374,-4.725,65.693,14.947
16285.0,76.374,-4.725,66.693,12.947
16295.0,77.374,-4.725,66.693,13.947
16304.0,79.374,-2.725,66.693,13.947
16314.0,77.374,-3.725,67.693,14.947
16324.0,79.374,-0.72497,68.693,13.947
16334.0,80.374,-0.72497,65.693,13.947
16344.0,79.374,-0.72497,63.693,12.947
16354.0,79.374,-1.725,61.693,12.947
16364.0,78.374,-1.725,62.693,11.947
16374.0,78.374,-1.725,61.693,13.947
16384.0,78.374,-0.72497,62.693,12.947
16393.0,77.374,0.27503,63.693,12.947
16403.0,76.374,-1.725,62.693,11.947
16413.0,77.374,-0.72497,59.693,11.947
16423.0,74.374,-2.725,58.693,10.947
16433.0,70.374,-2.725,56.693,9.9466
16443.0,71.374,-4.725,54.693,8.9466
16453.0,68.374,-3.725,55.693,9.9466
16463.0,65.374,-4.725,53.693,8.9466
16472.0,66.374,-3.725,52.693,8.9466
16482.0,66.374,-3.725,51.693,6.9466
16492.0,59.374,-6.725,48.693,6.9466
16502.0,59.374,-6.725,45.693,4.9466
16512.0,55.374,-7.725,42.693,2.9466
16522.0,55.374,-7.725,40.693,2.9466
16532.0,49.374,-9.725,37.693,0.94662
16542.0,49.374,-9.725,33.693,-1.0534
16552.0,43.374,-9.725,30.693,-1.0534
16561.0,43.374,-9.725,28.693,-2.0534
16571.0,38.374,-12.725,28.693,-2.0534
16581.0,38.374,-12.725,27.693,-3.0534
16591.0,37.374,-9.725,24.693,-4.0534
16601.0,37.374,-9.725,20.693,-5.0534
16611.0,43.374,-5.725,17.693,-7.0534
16621.0,43.374,-5.725,13.693,-8.0534
16631.0,49.374,-3.725,9.6929,-8.0534
16641.0,52.374,-2.725,11.693,-8.0534
16650.0,58.374,-0.72497,13.693,-8.0534
16660.0,64.374,0.27503,18.693,-7.0534
16670.0,69.374,-0.72497,23.693,-6.0534
16680.0,72.374,2.275,25.693,-6.0534
16690.0,77.374,0.27503,28.693,-5.0534
16700.0,81.374,3.275,31.693,-5.0534
16710.0,84.374,3.275,34.693,-4.0534
16720.0,89.374,4.275,35.693,-1.0534
16730.0,90.374,4.275,38.693,-1.0534
16739.0,90.374,5.275,38.693,-0.053384
16749.0,93.374,5.275,40.693,-2.0534
16759.0,91.374,4.275,40.693,-1.0534
16769.0,90.374,3.275,39.693,-2.0534
16779.0,92.374,4.275,38.693,-3.0534
16789.0,93.374,5.275,34.693,-4.0534
16799.0,92.374,4.275,32.693,-6.0534
16809.0,92.374,5.275,27.693,-6.0534
16818.0,94.374,5.275,27.693,-8.0534
16828.0,92.374,6.275,27.693,-8.0534
16838.0,93.374,5.275,27.693,-8.0534
16848.0,91.374,5.275,26.693,-8.0534
16858.0,89.374,4.275,25.693,-8.0534
16868.0,89.374,5.275,22.693,-9.0534
16878.0,89.374,4.275,19.693,-9.0534
16888.0,85.374,4.275,20.693,-10.053
16898.0,84.374,3.275,20.693,-10.053
16907.0,83.374,3.275,20.693,-10.053
16917.0,81.374,1.275,20.693,-10.053
16927.0,79.374,1.275,18.693,-9.0534
16937.0,75.374,0.27503,17.693,-8.0534
16947.0,73.374,-1.725,18.693,-8.0534
16957.0,70.374,-2.725,18.693,-8.0534
16967.0,67.374,-3.725,17.693,-7.0534
16977.0,63.374,-4.725,19.693,-7.0534
16987.0,62.374,-4.725,17.693,-8.0534
16996.0,59.374,-7.725,16.693,-8.0534
17006.0,55.374,-7.725,11.693,-9.0534
17016.0,51.374,-8.725,13.693,-9.0534
17026.0,49.374,-10.725,13.693,-9.0534
17036.0,46.374,-10.725,10.693,-9.0534
17046.0,42.374,-11.725,10.693,-9.0534
17056.0,39.374,-13.725,5.6929,-11.053
17066.0,36.374,-15.725,5.6929,-11.053
17076.0,35.374,-12.725,7.6929,-9.0534
17085.0,36.374,-11.725,7.6929,-9.0534
17095.0,39.374,-9.725,-0.30712,-12.053
17105.0,42.374,-7.725,-0.30712,-12.053
17115.0,50.374,-5.725,-0.30712,-13.053
17125.0,54.374,-3.725,-0.30712,-13.053
17135.0,59.374,-3.725,3.6929,-10.053
17145.0,64.374,-2.725,3.6929,-10.053
17155.0,69.374,-1.725,12.693,-8.0534
17164.0,73.374,-1.725,12.693,-8.0534
17174.0,77.374,-0.72497,19.693,-4.0534
17184.0,81.374,0.27503,19.693,-4.0534
17194.0,85.374,2.275,24.693,-4.0534
17204.0,88.374,2.275,24.693,-4.0534
17214.0,88.374,2.275,24.693,-5.0534
17224.0,91.374,2.275,26.693,-7.0534
17234.0,91.374,2.275,26.693,-5.0534
17244.0,89.374,1.275,29.693,-5.0534
17253.0,89.374,1.275,32.693,-6.0534
17263.0,90.374,1.275,32.693,-4.0534
17273.0,90.374,1.275,35.693,-2.0534
17283.0,90.374,3.275,33.693,-3.0534
17293.0,90.374,3.275,32.693,-2.0534
17303.0,92.374,3.275,32.693,-2.0534
17313.0,92.374,3.275,30.693,-3.0534
17323.0,90.374,2.275,32.693,-4.0534
17333.0,90.374,2.275,31.693,-4.0534
17342.0,89.374,1.275,32.693,-2.0534
17352.0,89.374,1.275,36.693,-2.0534
17362.0,89.374,1.275,32.693,-3.0534
17372.0,88.374,1.275,32.693,-3.0534
17382.0,87.374,1.275,29.693,-3.0534
17392.0,86.374,1.275,30.693,-5.0534
17402.0,84.374,0.27503,28.693,-4.0534
17412.0,84.374,0.27503,28.693,-3.0534
17422.0,82.374,-0.72497,29.693,-4.0534
17431.0,79.374,-0.72497,28.693,-3.0534
17441.0,77.374,-1.725,28.693,-4.0534
17451.0,74.374,-2.725,29.693,-4.0534
17461.0,73.374,-2.725,26.693,-4.0534
17471.0,69.374,-3.725,25.693,-4.0534
17481.0,66.374,-3.725,26.693,-5.0534
17491.0,64.374,-5.725,26.693,-5.0534
17501.0,59.374,-7.725,26.693,-4.0534
17510.0,56.374,-7.725,25.693,-5.0534
17520.0,53.374,-7.725,25.693,-5.0534
17530.0,51.374,-8.725,23.693,-6.0534
17540.0,49.374,-10.725,19.693,-7.0534
17550.0,45.374,-11.725,19.693,-7.0534
17560.0,44.374,-10.725,21.693,-7.0534
17570.0,44.374,-9.725,18.693,-6.0534
17580.0,45.374,-6.725,18.693,-5.0534
17590.0,51.374,-4.725,16.693,-5.0534
17599.0,57.374,-3.725,14.693,-7.0534
17609.0,62.374,-1.725,16.693,-6.0534
17619.0,67.374,0.27503,17.693,-5.0534
17629.0,73.374,2.275,19.693,-5.0534
17639.0,77.374,1.275,21.693,-5.0534
17649.0,81.374,2.275,25.693,-5.0534
17659.0,86.374,3.275,29.693,-5.0534
17669.0,90.374,4.275,31.693,-2.0534
17679.0,93.374,4.275,36.693,-2.0534
17688.0,97.374,6.275,37.693,-2.0534
17698.0,99.374,7.275,37.693,-3.0534
17708.0,101.37,7.275,40.693,-2.0534
17718.0,102.37,7.275,40.693,-2.0534
17728.0,101.37,7.275,43.693,-1.0534
17738.0,100.37,6.275,46.693,0.94662
17748.0,100.37,7.275,46.693,1.9466
17758.0,100.37,7.275,49.693,1.9466
17768.0,100.37,7.275,48.693,1.9466
17777.0,98.374,6.275,47.693,1.9466
17787.0,97.374,6.275,48.693,1.9466
17797.0,96.374,7.275,49.693,1.9466
17807.0,96.374,6.275,48.693,2.9466
17817.0,94.374,6.275,50.693,2.9466
17827.0,95.374,5.275,47.693,3.9466
17837.0,91.374,6.275,47.693,2.9466
17847.0,92.374,6.275,47.693,2.9466
17856.0,92.374,6.275,46.693,2.9466
17866.0,91.374,5.275,48.693,2.9466
17876.0,88.374,4.275,48.693,2.9466
17886.0,84.374,3.275,47.693,1.9466
17896.0,84.374,2.275,47.693,1.9466
17906.0,81.374,2.275,48.693,2.9466
17916.0,80.374,1.275,48.693,2.9466
17926.0,76.374,1.275,46.693,1.9466
17936.0,75.374,0.27503,45.693,0.94662
17945.0,75.374,0.27503,46.693,2.9466
17955.0,68.374,-1.725,46.693,2.9466
17965.0,68.374,-1.725,42.693,1.9466
17975.0,62.374,-3.725,42.693,1.9466
17985.0,62.374,-3.725,42.693,1.9466
17995.0,54.374,-5.725,42.693,1.9466
18005.0,54.374,-5.725,39.693,-1.0534
18015.0,49.374,-6.725,39.693,-1.0534
18025.0,49.374,-6.725,34.693,-2.0534
18034.0,41.374,-8.725,34.693,-2.0534
18044.0,41.374,-8.725,34.693,-4.0534
18054.0,40.374,-7.725,34.693,-4.0534
18064.0,40.374,-7.725,30.693,-3.0534
18074.0,47.374,-3.725,30.693,-3.0534
18084.0,47.374,-3.725,28.693,-4.0534
18094.0,52.374,-1.725,28.693,-4.0534
18104.0,57.374,0.27503,30.693,-4.0534
18114.0,59.374,1.275,30.693,-4.0534
18123.0,62.374,2.275,37.693,-1.0534
18133.0,67.374,1.275,37.693,-1.0534
18143.0,72.374,2.275,47.693,0.94662
18153.0,75.374,1.275,47.693,0.94662
18163.0,80.374,3.275,51.693,0.94662
18173.0,82.374,3.275,54.693,1.9466
18183.0,84.374,3.275,55.693,2.9466
18193.0,83.374,3.275,58.693,3.9466
18202.0,84.374,2.275,60.693,3.9466
18212.0,84.374,2.275,61.693,4.9466
18222.0,85.374,3.275,63.693,3.9466
18232.0,82.374,3.275,61.693,3.9466
18242.0,79.374,1.275,63.693,3.9466
18252.0,81.374,3.275,61.693,4.9466
18262.0,79.374,2.275,61.693,2.9466
18272.0,79.374,3.275,62.693,2.9466
18282.0,79.374,3.275,60.693,1.9466
18291.0,77.374,2.275,56.693,1.9466
18301.0,77.374,2.275,59.693,1.9466
18311.0,74.374,2.275,56.693,1.9466
18321.0,73.374,2.275,54.693,1.9466
18331.0,73.374,2.275,53.693,-0.053384
18341.0,73.374,2.275,50.693,-0.053384
18351.0,70.374,2.275,51.693,-1.0534
18361.0,69.374,1.275,47.693,-2.0534
18371.0,67.374,1.275,46.693,-3.0534
18380.0,64.374,1.275,45.693,-2.0534
18390.0,62.374,0.27503,42.693,-4.0534
18400.0,59.374,-0.72497,40.693,-5.0534
18410.0,54.374,-1.725,39.693,-5.0534
18420.0,52.374,-2.725,35.693,-6.0534
18430.0,50.374,-2.725,35.693,-7.0534
18440.0,47.374,-3.725,35.693,-7.0534
18450.0,43.374,-4.725,30.693,-10.053
18460.0,43.374,-4.725,27.693,-10.053
18469.0,38.374,-5.725,28.693,-10.053
18479.0,34.374,-6.725,25.693,-10.053
18489.0,31.374,-8.725,25.693,-10.053
18499.0,27.374,-9.725,23.693,-11.053
18509.0,23.374,-8.725,21.693,-11.053
18519.0,20.374,-10.725,17.693,-13.053
18529.0,15.374,-12.725,13.693,-14.053
18539.0,13.374,-13.725,10.693,-15.053
18548.0,13.374,-10.725,8.6929,-16.053
18558.0,15.374,-8.725,6.6929,-17.053
18568.0,17.374,-7.725,2.6929,-18.053
18578.0,19.374,-4.725,1.6929,-19.053
18588.0,25.374,-4.725,-1.3071,-18.053
18598.0,28.374,-4.725,-2.3071,-22.053
18608.0,31.374,-2.725,-2.3071,-20.053
18618.0,35.374,-3.725,-1.3071,-19.053
18628.0,40.374,-2.725,0.69288,-20.053
18637.0,45.374,-0.72497,2.6929,-20.053
18647.0,47.374,-1.725,7.6929,-19.053
18657.0,49.374,-0.72497,7.6929,-20.053
18667.0,51.374,0.27503,9.6929,-18.053
18677.0,51.374,0.27503,9.6929,-18.053
18687.0,53.374,1.275,11.693,-19.053
18697.0,53.374,1.275,11.693,-18.053
18707.0,52.374,0.27503,9.6929,-18.053
18717.0,52.374,0.27503,9.6929,-18.053
18726.0,49.374,1.275,10.693,-18.053
18736.0,49.374,1.275,14.693,-17.053
18746.0,48.374,1.275,11.693,-18.053
18756.0,48.374,1.275,9.6929,-19.053
18766.0,48.374,1.275,9.6929,-18.053
18776.0,48.374,1.275,8.6929,-19.053
18786.0,47.374,1.275,6.6929,-19.053
18796.0,47.374,1.275,7.6929,-19.053
18806.0,43.374,1.275,6.6929,-19.053
18815.0,43.374,1.275,7.6929,-19.053
18825.0,42.374,2.275,4.6929,-20.053
18835.0,43.374,0.27503,5.6929,-19.053
18845.0,41.374,1.275,3.6929,-18.053
18855.0,38.374,0.27503,3.6929,-20.053
18865.0,39.374,1.275,0.69288,-21.053
18875.0,36.374,-0.72497,-2.3071,-20.053
18885.0,33.374,-1.725,-1.3071,-22.053
18894.0,31.374,-0.72497,-0.30712,-21.053
18904.0,27.374,-0.72497,-4.3071,-21.053
18914.0,27.374,-2.725,-6.3071,-22.053
18924.0,24.374,-2.725,-8.3071,-23.053
18934.0,21.374,-2.725,-10.307,-23.053
18944.0,21.374,-1.725,-11.307,-25.053
18954.0,17.374,-3.725,-13.307,-26.053
18964.0,13.374,-3.725,-16.307,-26.053
18974.0,10.374,-5.725,-19.307,-28.053
18983.0,6.3741,-6.725,-24.307,-30.053
18993.0,1.3741,-7.725,-25.307,-30.053
19003.0,-0.62591,-8.725,-25.307,-30.053
19013.0,-3.6259,-8.725,-31.307,-32.053
19023.0,-8.6259,-9.725,-31.307,-32.053
19033.0,-11.626,-10.725,-35.307,-33.053
19043.0,-10.626,-9.725,-35.307,-33.053
19053.0,-9.6259,-5.725,-42.307,-36.053
19063.0,-8.6259,-3.725,-42.307,-36.053
19072.0,-4.6259,-2.725,-45.307,-37.053
19082.0,-0.62591,-1.725,-45.307,-37.053
19092.0,1.3741,-0.72497,-45.307,-35.053
19102.0,5.3741,0.27503,-45.307,-35.053
19112.0,10.374,1.275,-39.307,-33.053
19122.0,13.374,2.275,-39.307,-33.053
19132.0,18.374,3.275,-33.307,-33.053
19142.0,23.374,3.275,-33.307,-33.053
19152.0,27.374,5.275,-28.307,-32.053
19161.0,28.374,5.275,-28.307,-32.053
19171.0,27.374,5.275,-29.307,-32.053
19181.0,28.374,4.275,-29.307,-32.053
19191.0,30.374,4.275,-26.307,-31.053
19201.0,26.374,4.275,-27.307,-30.053
19211.0,25.374,3.275,-27.307,-31.053
19221.0,24.374,3.275,-25.307,-31.053
19231.0,24.374,3.275,-27.307,-31.053
19240.0,22.374,3.275,-27.307,-31.053
19250.0,22.374,3.275,-28.307,-32.053
19260.0,19.374,4.275,-28.307,-33.053
19270.0,18.374,3.275,-30.307,-33.053
19280.0,19.374,4.275,-33.307,-35.053
19290.0,17.374,3.275,-33.307,-33.053
19300.0,14.374,4.275,-30.307,-33.053
19310.0,15.374,4.275,-32.307,-33.053
19320.0,14.374,3.275,-31.307,-32.053
19329.0,13.374,3.275,-34.307,-31.053
19339.0,15.374,4.275,-32.307,-31.053
19349.0,11.374,4.275,-32.307,-31.053
19359.0,10.374,2.275,-35.307,-31.053
19369.0,7.3741,3.275,-37.307,-32.053
19379.0,6.3741,2.275,-38.307,-33.053
19389.0,5.3741,1.275,-39.307,-34.053
19399.0,2.3741,1.275,-41.307,-35.053
19409.0,2.3741,1.275,-43.307,-35.053
19418.0,-2.6259,0.27503,-44.307,-36.053
19428.0,-2.6259,0.27503,-44.307,-35.053
19438.0,-9.6259,-2.725,-46.307,-35.053
19448.0,-9.6259,-2.725,-47.307,-35.053
19458.0,-14.626,-4.725,-47.307,-38.053
19468.0,-14.626,-4.725,-49.307,-37.053
19478.0,-24.626,-7.725,-53.307,-38.053
19488.0,-24.626,-7.725,-54.307,-38.053
19498.0,-29.626,-8.725,-56.307,-39.053
19507.0,-29.626,-8.725,-58.307,-40.053
19517.0,-37.626,-10.725,-62.307,-40.053
19527.0,-37.626,-10.725,-64.307,-41.053
19537.0,-37.626,-7.725,-65.307,-40.053
19547.0,-37.626,-7.725,-68.307,-42.053
19557.0,-33.626,-4.725,-70.307,-42.053
19567.0,-28.626,-0.72497,-71.307,-41.053
19577.0,-27.626,-0.72497,-71.307,-42.053
19586.0,-22.626,-0.72497,-69.307,-41.053
19596.0,-18.626,0.27503,-67.307,-40.053
19606.0,-13.626,2.275,-65.307,-39.053
19616.0,-9.6259,1.275,-61.307,-39.053
19626.0,-5.6259,3.275,-59.307,-37.053
19636.0,-1.6259,3.275,-56.307,-37.053
19646.0,2.3741,5.275,-55.307,-39.053
19656.0,5.3741,6.275,-55.307,-38.053
19666.0,6.3741,6.275,-54.307,-39.053
19675.0,7.3741,5.275,-53.307,-37.053
19685.0,5.3741,5.275,-51.307,-37.053
19695.0,2.3741,4.275,-48.307,-35.053
19705.0,-0.62591,3.275,-48.307,-33.053
19715.0,0.37409,2.275,-44.307,-33.053
19725.0,-1.6259,1.275,-47.307,-34.053
19735.0,-1.6259,2.275,-46.307,-34.053
19745.0,-1.6259,2.275,-48.307,-34.053
19755.0,-4.6259,4.275,-49.307,-34.053
19764.0,-4.6259,4.275,-51.307,-35.053
19774.0,-6.6259,4.275,-53.307,-35.053
19784.0,-7.6259,2.275,-54.307,-36.053
19794.0,-9.6259,2.275,-56.307,-36.053
19804.0,-9.6259,3.275,-57.307,-35.053
19814.0,-10.626,2.275,-57.307,-36.053
19824.0,-11.626,1.275,-58.307,-35.053
19834.0,-11.626,2.275,-59.307,-36.053
19844.0,-14.626,1.275,-59.307,-35.053
19853.0,-16.626,1.275,-59.307,-35.053
19863.0,-17.626,1.275,-59.307,-36.053
19873.0,-18.626,0.27503,-61.307,-37.053
19883.0,-23.626,-1.725,-62.307,-37.053
19893.0,-25.626,-1.725,-60.307,-36.053
19903.0,-28.626,-1.725,-61.307,-37.053
19913.0,-29.626,-3.725,-65.307,-38.053
19923.0,-32.626,-3.725,-66.307,-39.053
19932.0,-36.626,-3.725,-69.307,-39.053
19942.0,-38.626,-5.725,-70.307,-39.053
19952.0,-41.626,-5.725,-71.307,-40.053
19962.0,-46.626,-7.725,-73.307,-40.053
19972.0,-50.626,-8.725,-73.307,-40.053
19982.0,-51.626,-8.725,-80.307,-42.053
19992.0,-56.626,-10.725,-80.307,-42.053
20002.0,-61.626,-11.725,-84.307,-45.053
20012.0,-64.626,-11.725,-84.307,-45.053
20021.0,-63.626,-10.725,-84.307,-43.053
20031.0,-61.626,-7.725,-84.307,-43.053
20041.0,-60.626,-6.725,-86.307,-44.053
20051.0,-55.626,-3.725,-86.307,-44.053
20061.0,-49.626,-0.72497,-91.307,-45.053
20071.0,-45.626,2.275,-91.307,-45.053
20081.0,-41.626,2.275,-87.307,-41.053
20091.0,-38.626,2.275,-87.307,-41.053
20101.0,-32.626,3.275,-81.307,-41.053
20110.0,-27.626,5.275,-81.307,-41.053
20120.0,-24.626,5.275,-76.307,-38.053
20130.0,-21.626,4.275,-76.307,-38.053
20140.0,-21.626,4.275,-72.307,-39.053
20150.0,-20.626,4.275,-72.307,-39.053
20160.0,-20.626,4.275,-69.307,-38.053
20170.0,-19.626,4.275,-69.307,-36.053
20180.0,-19.626,4.275,-70.307,-38.053
20190.0,-21.626,3.275,-67.307,-36.053
20199.0,-21.626,3.275,-67.307,-37.053
20209.0,-26.626,2.275,-67.307,-36.053
20219.0,-26.626,2.275,-66.307,-35.053
20229.0,-28.626,1.275,-64.307,-35.053
20239.0,-28.626,1.275,-67.307,-36.053
20249.0,-29.626,3.275,-68.307,-38.053
20259.0,-29.626,3.275,-71.307,-38.053
20269.0,-32.626,2.275,-75.307,-37.053
20278.0,-32.626,2.275,-74.307,-38.053
20288.0,-33.626,3.275,-72.307,-36.053
20298.0,-34.626,1.275,-71.307,-35.053
20308.0,-36.626,0.27503,-72.307,-35.053
20318.0,-36.626,2.275,-71.307,-35.053
20328.0,-37.626,1.275,-72.307,-35.053
20338.0,-38.626,1.275,-72.307,-35.053
20348.0,-39.626,0.27503,-74.307,-35.053
20358.0,-40.626,0.27503,-74.307,-36.053
20367.0,-42.626,-0.72497,-75.307,-35.053
20377.0,-45.626,-0.72497,-76.307,-36.053
20387.0,-45.626,-2.725,-76.307,-35.053
20397.0,-50.626,-2.725,-75.307,-35.053
20407.0,-52.626,-3.725,-76.307,-34.053
20417.0,-54.626,-4.725,-77.307,-36.053
20427.0,-56.626,-4.725,-77.307,-37.053
20437.0,-61.626,-5.725,-80.307,-35.053
20447.0,-63.626,-6.725,-80.307,-36.053
20456.0,-67.626,-7.725,-82.307,-36.053
20466.0,-71.626,-8.725,-81.307,-36.053
20476.0,-74.626,-9.725,-84.307,-36.053
20486.0,-75.626,-10.725,-82.307,-36.053
20496.0,-79.626,-10.725,-83.307,-36.053
20506.0,-83.626,-11.725,-85.307,-36.053
20516.0,-84.626,-11.725,-86.307,-36.053
20526.0,-84.626,-9.725,-85.307,-37.053
20535.0,-81.626,-8.725,-89.307,-38.053
20545.0,-78.626,-4.725,-91.307,-38.053
20555.0,-74.626,-2.725,-91.307,-38.053
20565.0,-69.626,0.27503,-89.307,-37.053
20575.0,-64.626,2.275,-86.307,-36.053
20585.0,-59.626,2.275,-83.307,-35.053
20595.0,-56.626,3.275,-82.307,-33.053
20605.0,-51.626,3.275,-76.307,-33.053
20615.0,-49.626,4.275,-74.307,-32.053
20624.0,-44.626,5.275,-69.307,-31.053
20634.0,-43.626,4.275,-67.307,-29.053
20644.0,-42.626,4.275,-65.307,-29.053
20654.0,-43.626,4.275,-61.307,-27.053
20664.0,-42.626,3.275,-60.307,-27.053
20674.0,-42.626,4.275,-59.307,-26.053
20684.0,-43.626,2.275,-60.307,-26.053
20694.0,-48.626,2.275,-58.307,-24.053
20704.0,-46.626,3.275,-57.307,-24.053
20713.0,-47.626,3.275,-57.307,-23.053
20723.0,-48.626,2.275,-55.307,-24.053
20733.0,-47.626,4.275,-55.307,-23.053
20743.0,-49.626,5.275,-54.307,-23.053
20753.0,-50.626,3.275,-52.307,-21.053
20763.0,-50.626,3.275,-54.307,-22.053
20773.0,-53.626,3.275,-53.307,-22.053
20783.0,-56.626,3.275,-52.307,-21.053
20793.0,-56.626,4.275,-54.307,-20.053
20802.0,-51.626,2.275,-55.307,-20.053
20812.0,-55.626,4.275,-58.307,-22.053
20822.0,-55.626,3.275,-58.307,-21.053
20832.0,-56.626,3.275,-57.307,-20.053
20842.0,-59.626,2.275,-57.307,-20.053
20852.0,-60.626,2.275,-58.307,-21.053
20862.0,-62.626,2.275,-57.307,-20.053
20872.0,-63.626,1.275,-57.307,-21.053
20881.0,-67.626,-0.72497,-56.307,-22.053
20891.0,-67.626,-0.72497,-59.307,-21.053
20901.0,-70.626,-0.72497,-60.307,-21.053
20911.0,-70.626,-0.72497,-59.307,-21.053
20921.0,-77.626,-1.725,-59.307,-21.053
20931.0,-77.626,-1.725,-57.307,-20.053
20941.0,-82.626,-3.725,-57.307,-20.053
20951.0,-82.626,-3.725,-62.307,-22.053
20961.0,-89.626,-5.725,-62.307,-22.053
20970.0,-89.626,-5.725,-64.307,-24.053
20980.0,-95.626,-6.725,-64.307,-24.053
20990.0,-95.626,-6.725,-64.307,-22.053
21000.0,-101.63,-8.725,-64.307,-22.053
21010.0,-101.63,-8.725,-64.307,-22.053
21020.0,-99.626,-4.725,-64.307,-22.053
21030.0,-94.626,-3.725,-67.307,-21.053
21040.0,-90.626,0.27503,-67.307,-21.053
21050.0,-85.626,3.275,-64.307,-19.053
21059.0,-79.626,5.275,-64.307,-19.053
21069.0,-73.626,5.275,-58.307,-16.053
21079.0,-67.626,7.275,-58.307,-16.053
21089.0,-64.626,7.275,-53.307,-15.053
21099.0,-59.626,9.275,-53.307,-15.053
21109.0,-56.626,10.275,-49.307,-15.053
21119.0,-55.626,10.275,-46.307,-15.053
21129.0,-51.626,9.275,-44.307,-14.053
21139.0,-49.626,10.275,-41.307,-13.053
21148.0,-50.626,9.275,-40.307,-14.053
21158.0,-48.626,9.275,-42.307,-13.053
21168.0,-49.626,8.275,-39.307,-12.053
21178.0,-52.626,7.275,-38.307,-12.053
21188.0,-54.626,8.275,-39.307,-12.053
21198.0,-54.626,6.275,-38.307,-11.053
21208.0,-54.626,8.275,-40.307,-12.053
21218.0,-57.626,6.275,-39.307,-11.053
21227.0,-56.626,8.275,-38.307,-11.053
21237.0,-57.626,8.275,-40.307,-10.053
21247.0,-58.626,8.275,-37.307,-9.0534
21257.0,-61.626,9.275,-37.307,-10.053
21267.0,-60.626,9.275,-38.307,-10.053
21277.0,-60.626,8.275,-39.307,-11.053
21287.0,-61.626,8.275,-41.307,-10.053
21297.0,-61.626,8.275,-41.307,-9.0534
21307.0,-61.626,9.275,-38.307,-9.0534
21316.0,-61.626,8.275,-37.307,-9.0534
21326.0,-61.626,9.275,-39.307,-8.0534
21336.0,-62.626,9.275,-40.307,-9.0534
21346.0,-62.626,9.275,-44.307,-10.053
21356.0,-65.626,9.275,-43.307,-12.053
21366.0,-68.626,9.275,-46.307,-13.053
21376.0,-70.626,8.275,-47.307,-12.053
21386.0,-70.626,7.275,-47.307,-11.053
21396.0,-74.626,7.275,-46.307,-12.053
21405.0,-75.626,7.275,-46.307,-11.053
21415.0,-77.626,7.275,-45.307,-12.053
21425.0,-79.626,6.275,-45.307,-11.053
21435.0,-83.626,5.275,-46.307,-11.053
21445.0,-86.626,3.275,-47.307,-12.053
21455.0,-89.626,2.275,-50.307,-14.053
21465.0,-94.626,1.275,-55.307,-14.053
21475.0,-96.626,0.27503,-55.307,-15.053
21485.0,-101.63,0.27503,-58.307,-16.053
21494.0,-99.626,0.27503,-59.307,-17.053
21504.0,-96.626,4.275,-60.307,-18.053
21514.0,-92.626,5.275,-62.307,-17.053
21524.0,-90.626,8.275,-65.307,-19.053
21534.0,-84.626,11.275,-68.307,-17.053
21544.0,-79.626,12.275,-66.307,-18.053
21554.0,-77.626,12.275,-65.307,-17.053
21564.0,-72.626,15.275,-62.307,-17.053
21573.0,-66.626,14.275,-57.307,-16.053
21583.0,-64.626,15.275,-55.307,-16.053
21593.0,-61.626,17.275,-51.307,-13.053
21603.0,-56.626,18.275,-51.307,-15.053
21613.0,-53.626,17.275,-51.307,-16.053
21623.0,-53.626,17.275,-49.307,-15.053
21633.0,-52.626,16.275,-48.307,-14.053
21643.0,-52.626,16.275,-47.307,-14.053
21653.0,-54.626,15.275,-47.307,-14.053
21662.0,-54.626,15.275,-46.307,-14.053
21672.0,-57.626,15.275,-47.307,-13.053
21682.0,-57.626,15.275,-48.307,-15.053
21692.0,-58.626,14.275,-51.307,-16.053
21702.0,-58.626,14.275,-50.307,-15.053
21712.0,-60.626,17.275,-51.307,-16.053
21722.0,-60.626,17.275,-54.307,-17.053
21732.0,-59.626,17.275,-53.307,-16.053
21742.0,-59.626,17.275,-54.307,-15.053
21751.0,-60.626,18.275,-51.307,-15.053
21761.0,-59.626,18.275,-52.307,-14.053
21771.0,-59.626,18.275,-51.307,-15.053
21781.0,-58.626,17.275,-52.307,-14.053
21791.0,-60.626,18.275,-56.307,-16.053
21801.0,-59.626,16.275,-56.307,-15.053
21811.0,-63.626,18.275,-55.307,-16.053
21821.0,-63.626,17.275,-54.307,-14.053
21831.0,-65.626,18.275,-55.307,-16.053
21840.0,-66.626,17.275,-56.307,-16.053
21850.0,-66.626,16.275,-58.307,-16.053
21860.0,-69.626,16.275,-60.307,-17.053
21870.0,-71.626,16.275,-61.307,-18.053
21880.0,-73.626,14.275,-61.307,-18.053
21890.0,-75.626,14.275,-60.307,-17.053
21900.0,-78.626,14.275,-61.307,-18.053
21910.0,-79.626,13.275,-62.307,-18.053
21919.0,-83.626,13.275,-63.307,-18.053
21929.0,-87.626,11.275,-65.307,-17.053
21939.0,-88.626,10.275,-66.307,-18.053
21949.0,-92.626,9.275,-66.307,-18.053
21959.0,-95.626,8.275,-68.307,-19.053
21969.0,-97.626,7.275,-68.307,-19.053
21979.0,-100.63,9.275,-79.307,-24.053
21989.0,-97.626,10.275,-79.307,-24.053
21999.0,-95.626,13.275,-91.307,-28.053
22008.0,-90.626,16.275,-91.307,-28.053
22018.0,-87.626,19.275,-95.307,-30.053
22028.0,-83.626,21.275,-95.307,-30.053
22038.0,-76.626,22.275,-91.307,-30.053
22048.0,-75.626,22.275,-91.307,-30.053
22058.0,-68.626,23.275,-84.307,-26.053
22068.0,-62.626,24.275,-84.307,-26.053
22078.0,-58.626,25.275,-77.307,-26.053
22088.0,-54.626,26.275,-77.307,-26.053
22097.0,-51.626,25.275,-74.307,-26.053
22107.0,-51.626,26.275,-74.307,-26.053
22117.0,-49.626,25.275,-72.307,-24.053
22127.0,-50.626,25.275,-72.307,-24.053
22137.0,-49.626,26.275,-69.307,-23.053
22147.0,-52.626,24.275,-71.307,-23.053
22157.0,-51.626,23.275,-70.307,-23.053
22167.0,-53.626,24.275,-67.307,-23.053
22177.0,-52.626,24.275,-68.307,-22.053
22186.0,-52.626,26.275,-69.307,-22.053
22196.0,-52.626,26.275,-68.307,-21.053
22206.0,-50.626,26.275,-67.307,-21.053
22216.0,-49.626,27.275,-69.307,-23.053
22226.0,-50.626,27.275,-72.307,-22.053
22236.0,-51.626,28.275,-73.307,-22.053
22246.0,-50.626,29.275,-74.307,-24.053
22256.0,-51.626,29.275,-76.307,-26.053
22265.0,-50.626,30.275,-77.307,-23.053
22275.0,-49.626,30.275,-77.307,-25.053
22285.0,-50.626,30.275,-82.307,-27.053
22295.0,-49.626,30.275,-81.307,-27.053
22305.0,-50.626,29.275,-83.307,-26.053
22315.0,-53.626,28.275,-82.307,-26.053
22325.0,-55.626,28.275,-83.307,-26.053
22335.0,-55.626,27.275,-85.307,-26.053
22345.0,-56.626,26.275,-82.307,-26.053
22354.0,-56.626,26.275,-86.307,-27.053
22364.0,-61.626,25.275,-87.307,-28.053
22374.0,-61.626,25.275,-87.307,-29.053
22384.0,-65.626,24.275,-90.307,-28.053
22394.0,-65.626,24.275,-90.307,-28.053
22404.0,-72.626,23.275,-89.307,-29.053
22414.0,-72.626,23.275,-90.307,-28.053
22424.0,-73.626,22.275,-90.307,-28.053
22434.0,-73.626,22.275,-93.307,-27.053
22443.0,-81.626,20.275,-92.307,-28.053
22453.0,-81.626,20.275,-93.307,-29.053
22463.0,-82.626,22.275,-94.307,-28.053
22473.0,-82.626,22.275,-98.307,-28.053
22483.0,-79.626,23.275,-98.307,-29.053
22493.0,-76.626,27.275,-99.307,-29.053
22503.0,-71.626,29.275,-98.307,-28.053
22513.0,-66.626,30.275,-93.307,-26.053
22523.0,-60.626,33.275,-92.307,-26.053
22532.0,-56.626,33.275,-91.307,-25.053
22542.0,-49.626,35.275,-86.307,-24.053
22552.0,-44.626,36.275,-85.307,-23.053
22562.0,-38.626,38.275,-80.307,-23.053
22572.0,-35.626,37.275,-77.307,-22.053
22582.0,-31.626,38.275,-74.307,-21.053
22592.0,-27.626,40.275,-70.307,-20.053
22602.0,-26.626,39.275,-67.307,-19.053
22611.0,-23.626,39.275,-64.307,-17.053
22621.0,-24.626,38.275,-65.307,-16.053
22631.0,-24.626,39.275,-66.307,-18.053
22641.0,-26.626,37.275,-68.307,-18.053
22651.0,-26.626,37.275,-64.307,-17.053
22661.0,-27.626,38.275,-63.307,-16.053
22671.0,-24.626,38.275,-63.307,-18.053
22681.0,-23.626,38.275,-65.307,-17.053
22691.0,-24.626,39.275,-65.307,-18.053
22700.0,-23.626,39.275,-66.307,-17.053
22710.0,-24.626,38.275,-65.307,-17.053
22720.0,-24.626,40.275,-65.307,-16.053
22730.0,-24.626,41.275,-66.307,-15.053
22740.0,-23.626,41.275,-67.307,-17.053
22750.0,-23.626,42.275,-69.307,-18.053
22760.0,-22.626,41.275,-71.307,-18.053
22770.0,-24.626,41.275,-73.307,-18.053
22780.0,-23.626,41.275,-72.307,-18.053
22789.0,-24.626,41.275,-72.307,-17.053
22799.0,-24.626,41.275,-72.307,-17.053
22809.0,-26.626,39.275,-71.307,-17.053
22819.0,-28.626,40.275,-70.307,-16.053
22829.0,-27.626,40.275,-71.307,-15.053
22839.0,-30.626,39.275,-69.307,-15.053
22849.0,-32.626,38.275,-70.307,-14.053
22859.0,-33.626,39.275,-68.307,-14.053
22869.0,-36.626,38.275,-68.307,-14.053
22878.0,-38.626,37.275,-70.307,-14.053
22888.0,-38.626,35.275,-69.307,-14.053
22898.0,-41.626,35.275,-66.307,-13.053
22908.0,-44.626,34.275,-67.307,-12.053
22918.0,-47.626,33.275,-68.307,-13.053
22928.0,-49.626,34.275,-69.307,-12.053
22938.0,-50.626,33.275,-69.307,-12.053
22948.0,-49.626,35.275,-69.307,-11.053
22957.0,-46.626,36.275,-69.307,-11.053
22967.0,-43.626,39.275,-70.307,-11.053
22977.0,-35.626,43.275,-70.307,-11.053
22987.0,-30.626,45.275,-67.307,-9.0534
22997.0,-24.626,47.275,-67.307,-9.0534
23007.0,-17.626,49.275,-58.307,-5.0534
23017.0,-14.626,49.275,-58.307,-5.0534
23027.0,-9.6259,50.275,-45.307,-0.053384
23037.0,-3.6259,51.275,-45.307,-0.053384
23046.0,1.3741,53.275,-36.307,2.9466
23056.0,7.3741,53.275,-36.307,2.9466
23066.0,7.3741,53.275,-31.307,3.9466
23076.0,9.3741,54.275,-31.307,3.9466
23086.0,9.3741,54.275,-27.307,4.9466
23096.0,15.374,55.275,-27.307,4.9466
23106.0,15.374,55.275,-26.307,6.9466
23116.0,14.374,53.275,-25.307,6.9466
23126.0,14.374,53.275,-22.307,7.9466
23135.0,15.374,56.275,-24.307,7.9466
23145.0,15.374,56.275,-23.307,6.9466
23155.0,16.374,57.275,-26.307,5.9466
23165.0,16.374,57.275,-29.307,4.9466
23175.0,17.374,58.275,-28.307,6.9466
23185.0,17.374,58.275,-27.307,6.9466
23195.0,16.374,56.275,-26.307,7.9466
23205.0,16.374,56.275,-27.307,8.9466
23215.0,15.374,56.275,-27.307,8.9466
23224.0,18.374,56.275,-27.307,8.9466
23234.0,15.374,56.275,-29.307,7.9466
23244.0,16.374,56.275,-31.307,6.9466
23254.0,18.374,56.275,-29.307,6.9466
23264.0,19.374,55.275,-30.307,5.9466
23274.0,16.374,56.275,-28.307,6.9466
23284.0,16.374,55.275,-27.307,6.9466
23294.0,14.374,54.275,-28.307,7.9466
23303.0,13.374,54.275,-27.307,7.9466
23313.0,13.374,53.275,-29.307,8.9466
23323.0,11.374,54.275,-30.307,6.9466
23333.0,8.3741,51.275,-32.307,6.9466
23343.0,4.3741,49.275,-33.307,5.9466
23353.0,5.3741,50.275,-34.307,4.9466
23363.0,-0.62591,49.275,-34.307,4.9466
23373.0,-3.6259,47.275,-36.307,5.9466
23383.0,-2.6259,48.275,-38.307,4.9466
23392.0,-7.6259,45.275,-37.307,4.9466
23402.0,-8.6259,44.275,-36.307,5.9466
23412.0,-12.626,44.275,-37.307,6.9466
23422.0,-14.626,43.275,-38.307,6.9466
23432.0,-13.626,45.275,-37.307,6.9466
23442.0,-12.626,46.275,-37.307,7.9466
23452.0,-9.6259,49.275,-38.307,8.9466
23462.0,-2.6259,51.275,-38.307,8.9466
23472.0,3.3741,54.275,-39.307,8.9466
23481.0,10.374,55.275,-39.307,7.9466
23491.0,15.374,57.275,-39.307,6.9466
23501.0,21.374,57.275,-36.307,6.9466
23511.0,25.374,58.275,-30.307,9.9466
23521.0,30.374,58.275,-26.307,9.9466
23531.0,34.374,60.275,-22.307,11.947
23541.0,38.374,59.275,-19.307,12.947
23551.0,41.374,61.275,-20.307,12.947
23561.0,44.374,60.275,-20.307,11.947
23570.0,43.374,61.275,-19.307,11.947
23580.0,45.374,60.275,-18.307,11.947
23590.0,45.374,59.275,-17.307,11.947
23600.0,42.374,58.275,-13.307,13.947
23610.0,43.374,58.275,-12.307,14.947
23620.0,42.374,60.275,-12.307,16.947
23630.0,44.374,59.275,-10.307,15.947
23640.0,44.374,58.275,-10.307,17.947
23649.0,44.374,60.275,-10.307,17.947
23659.0,44.374,60.275,-12.307,18.947
23669.0,43.374,59.275,-10.307,18.947
23679.0,44.374,59.275,-9.3071,18.947
23689.0,44.374,59.275,-9.3071,18.947
23699.0,43.374,60.275,-9.3071,21.947
23709.0,45.374,59.275,-7.3071,21.947
23719.0,43.374,59.275,-5.3071,22.947
23729.0,45.374,59.275,-7.3071,21.947
23738.0,44.374,60.275,-8.3071,21.947
23748.0,42.374,59.275,-9.3071,19.947
23758.0,42.374,57.275,-11.307,20.947
23768.0,38.374,56.275,-9.3071,22.947
23778.0,39.374,56.275,-9.3071,22.947
23788.0,36.374,55.275,-8.3071,23.947
23798.0,36.374,55.275,-9.3071,24.947
23808.0,33.374,54.275,-7.3071,24.947
23818.0,33.374,54.275,-9.3071,24.947
23827.0,29.374,51.275,-8.3071,24.947
23837.0,29.374,51.275,-11.307,24.947
23847.0,24.374,49.275,-13.307,24.947
23857.0,24.374,49.275,-11.307,23.947
23867.0,20.374,49.275,-11.307,23.947
23877.0,20.374,49.275,-11.307,24.947
23887.0,12.374,46.275,-11.307,24.947
23897.0,12.374,46.275,-12.307,25.947
23907.0,11.374,48.275,-12.307,25.947
23916.0,11.374,48.275,-13.307,26.947
23926.0,20.374,51.275,-13.307,26.947
23936.0,20.374,51.275,-11.307,26.947
23946.0,23.374,55.275,-11.307,26.947
23956.0,33.374,56.275,-4.3071,28.947
23966.0,37.374,58.275,-4.3071,28.947
23976.0,42.374,58.275,0.69288,30.947
23986.0,47.374,59.275,0.69288,30.947
23995.0,52.374,59.275,6.6929,32.947
24005.0,57.374,60.275,6.6929,32.947
24015.0,64.374,61.275,12.693,35.947
24025.0,67.374,62.275,12.693,35.947
24035.0,69.374,62.275,18.693,37.947
24045.0,71.374,63.275,18.693,37.947
24055.0,72.374,63.275,23.693,40.947
24065.0,73.374,62.275,23.693,40.947
24075.0,74.374,62.275,26.693,40.947
24084.0,74.374,62.275,25.693,40.947
24094.0,74.374,62.275,26.693,41.947
24104.0,74.374,62.275,27.693,41.947
24114.0,74.374,62.275,28.693,40.947
24124.0,73.374,62.275,29.693,42.947
24134.0,73.374,61.275,28.693,42.947
24144.0,73.374,61.275,28.693,42.947
24154.0,71.374,61.275,28.693,43.947
24164.0,73.374,60.275,29.693,44.947
24173.0,74.374,61.275,28.693,44.947
24183.0,71.374,60.275,29.693,44.947
24193.0,73.374,60.275,27.693,45.947
24203.0,73.374,60.275,30.693,45.947
24213.0,72.374,58.275,28.693,46.947
24223.0,71.374,59.275,30.693,46.947
24233.0,69.374,57.275,30.693,47.947
24243.0,69.374,56.275,29.693,47.947
24253.0,66.374,56.275,26.693,46.947
24262.0,65.374,54.275,26.693,46.947
24272.0,62.374,53.275,26.693,47.947
24282.0,59.374,53.275,27.693,48.947
24292.0,59.374,51.275,26.693,48.947
24302.0,55.374,52.275,26.693,47.947
24312.0,53.374,50.275,26.693,48.947
24322.0,49.374,49.275,27.693,50.947
24332.0,47.374,48.275,27.693,49.947
24341.0,44.374,46.275,28.693,48.947
24351.0,43.374,45.275,27.693,50.947
24361.0,38.374,46.275,28.693,52.947
24371.0,34.374,44.275,29.693,53.947
24381.0,34.374,43.275,29.693,52.947
24391.0,34.374,45.275,29.693,53.947
24401.0,37.374,46.275,24.693,51.947
24411.0,42.374,49.275,20.693,50.947
24421.0,47.374,49.275,21.693,50.947
24430.0,52.374,52.275,23.693,50.947
24440.0,58.374,54.275,27.693,51.947
24450.0,62.374,55.275,30.693,53.947
24460.0,66.374,54.275,31.693,54.947
24470.0,72.374,55.275,35.693,56.947
24480.0,77.374,55.275,39.693,56.947
24490.0,79.374,54.275,44.693,58.947
24500.0,82.374,55.275,50.693,59.947
24510.0,85.374,57.275,53.693,59.947
24519.0,86.374,56.275,55.693,61.947
24529.0,86.374,56.275,56.693,61.947
24539.0,88.374,55.275,57.693,62.947
24549.0,88.374,55.275,57.693,62.947
24559.0,86.374,54.275,58.693,63.947
24569.0,86.374,54.275,59.693,61.947
24579.0,85.374,52.275,60.693,63.947
24589.0,85.374,52.275,61.693,64.947
24599.0,83.374,54.275,57.693,64.947
24608.0,83.374,54.275,58.693,64.947
24618.0,81.374,53.275,57.693,65.947
24628.0,81.374,53.275,61.693,65.947
24638.0,83.374,51.275,60.693,66.947
24648.0,83.374,51.275,60.693,67.947
24658.0,81.374,50.275,61.693,67.947
24668.0,81.374,50.275,61.693,68.947
24678.0,80.374,49.275,60.693,67.947
24687.0,80.374,50.275,58.693,67.947
24697.0,78.374,49.275,59.693,67.947
24707.0,78.374,47.275,59.693,68.947
24717.0,76.374,46.275,58.693,66.947
24727.0,75.374,46.275,57.693,68.947
24737.0,72.374,46.275,60.693,69.947
24747.0,71.374,44.275,55.693,68.947
24757.0,70.374,44.275,54.693,66.947
24767.0,66.374,42.275,53.693,67.947
24776.0,62.374,41.275,53.693,67.947
24786.0,61.374,40.275,53.693,66.947
24796.0,58.374,38.275,53.693,69.947
24806.0,53.374,36.275,55.693,70.947
24816.0,50.374,34.275,52.693,68.947
24826.0,47.374,33.275,50.693,69.947
24836.0,46.374,33.275,49.693,69.947
24846.0,42.374,33.275,48.693,67.947
24856.0,38.374,31.275,46.693,67.947
24865.0,36.374,30.275,42.693,67.947
24875.0,36.374,30.275,43.693,66.947
24885.0,36.374,32.275,40.693,66.947
24895.0,40.374,34.275,40.693,66.947
24905.0,44.374,36.275,38.693,67.947
24915.0,49.374,38.275,38.693,67.947
24925.0,56.374,39.275,44.693,69.947
24935.0,60.374,39.275,44.693,69.947
24945.0,63.374,40.275,53.693,72.947
24954.0,70.374,41.275,53.693,72.947
24964.0,75.374,42.275,60.693,74.947
24974.0,79.374,41.275,60.693,74.947
24984.0,81.374,42.275,61.693,74.947
24994.0,84.374,42.275,61.693,74.947
25004.0,87.374,42.275,62.693,74.947
25014.0,87.374,43.275,62.693,74.947
25024.0,87.374,42.275,63.693,75.947
25033.0,87.374,40.275,63.693,75.947
25043.0,84.374,40.275,66.693,76.947
25053.0,83.374,39.275,66.693,76.947
25063.0,81.374,39.275,65.693,77.947
25073.0,82.374,39.275,65.693,77.947
25083.0,83.374,39.275,65.693,76.947
25093.0,81.374,38.275,65.693,76.947
25103.0,81.374,39.275,66.693,79.947
25113.0,82.374,39.275,66.693,79.947
25122.0,80.374,38.275,65.693,79.947
25132.0,80.374,38.275,64.693,79.947
25142.0,80.374,36.275,64.693,79.947
25152.0,76.374,35.275,63.693,79.947
25162.0,77.374,36.275,60.693,78.947
25172.0,76.374,36.275,62.693,78.947
25182.0,74.374,36.275,60.693,77.947
25192.0,75.374,34.275,58.693,76.947
25202.0,73.374,33.275,57.693,74.947
25211.0,68.374,32.275,55.693,74.947
25221.0,68.374,30.275,55.693,74.947
25231.0,65.374,30.275,56.693,76.947
25241.0,62.374,29.275,55.693,76.947
25251.0,59.374,28.275,54.693,77.947
25261.0,59.374,28.275,51.693,76.947
25271.0,53.374,26.275,48.693,76.947
25281.0,53.374,26.275,47.693,74.947
25291.0,44.374,22.275,43.693,72.947
25300.0,44.374,22.275,40.693,70.947
25310.0,39.374,21.275,34.693,69.947
25320.0,39.374,21.275,33.693,66.947
25330.0,31.374,17.275,29.693,65.947
25340.0,31.374,17.275,26.693,64.947
25350.0,26.374,16.275,25.693,64.947
25360.0,26.374,16.275,23.693,63.947
25370.0,30.374,21.275,20.693,62.947
25379.0,30.374,21.275,17.693,62.947
25389.0,38.374,24.275,12.693,61.947
25399.0,38.374,24.275,11.693,62.947
25409.0,46.374,25.275,13.693,61.947
25419.0,49.374,25.275,17.693,62.947
25429.0,53.374,26.275,20.693,63.947
25439.0,58.374,26.275,23.693,62.947
25449.0,62.374,27.275,24.693,63.947
25459.0,68.374,28.275,26.693,63.947
25468.0,73.374,29.275,30.693,64.947
25478.0,76.374,29.275,33.693,65.947
25488.0,78.374,29.275,34.693,66.947
25498.0,78.374,29.275,35.693,68.947
25508.0,80.374,28.275,34.693,66.947
25518.0,79.374,29.275,33.693,66.947
25528.0,78.374,27.275,33.693,66.947
25538.0,78.374,26.275,31.693,64.947
25548.0,77.374,26.275,33.693,65.947
25557.0,76.374,27.275,33.693,65.947
25567.0,77.374,27.275,32.693,65.947
25577.0,77.374,27.275,29.693,66.947
25587.0,76.374,26.275,31.693,66.947
25597.0,74.374,27.275,30.693,66.947
25607.0,76.374,26.275,30.693,65.947
25617.0,74.374,27.275,28.693,64.947
25627.0,74.374,26.275,27.693,64.947
25636.0,71.374,23.275,27.693,64.947
25646.0,72.374,22.275,27.693,66.947
25656.0,72.374,23.275,28.693,67.947
25666.0,72.374,23.275,30.693,66.947
25676.0,69.374,23.275,25.693,65.947
25686.0,66.374,21.275,24.693,65.947
25696.0,63.374,19.275,21.693,63.947
25706.0,60.374,17.275,20.693,62.947
25716.0,57.374,16.275,21.693,64.947
25725.0,56.374,15.275,23.693,64.947
25735.0,53.374,15.275,21.693,65.947
25745.0,49.374,14.275,19.693,63.947
25755.0,46.374,14.275,17.693,63.947
25765.0,41.374,13.275,15.693,62.947
25775.0,39.374,11.275,13.693,62.947
25785.0,35.374,10.275,12.693,62.947
25795.0,33.374,8.275,10.693,60.947
25805.0,29.374,8.275,6.6929,59.947
25814.0,28.374,6.275,4.6929,59.947
25824.0,21.374,4.275,2.6929,59.947
25834.0,20.374,2.275,1.6929,58.947
25844.0,20.374,5.275,1.6929,58.947
25854.0,22.374,6.275,-1.3071,56.947
25864.0,26.374,7.275,-1.3071,58.947
25874.0,30.374,10.275,-2.3071,58.947
25884.0,36.374,11.275,0.69288,59.947
25894.0,39.374,13.275,2.6929,59.947
25903.0,45.374,13.275,2.6929,59.947
25913.0,51.374,14.275,5.6929,59.947
25923.0,55.374,13.275,5.6929,59.947
25933.0,60.374,15.275,14.693,62.947
25943.0,65.374,16.275,14.693,62.947
25953.0,68.374,17.275,20.693,63.947
25963.0,70.374,17.275,20.693,63.947
25973.0,72.374,17.275,22.693,63.947
25982.0,73.374,17.275,22.693,63.947
25992.0,73.374,17.275,23.693,63.947
26002.0,71.374,15.275,23.693,63.947
26012.0,71.374,15.275,27.693,67.947
26022.0,70.374,14.275,27.693,67.947
26032.0,70.374,14.275,28.693,67.947
26042.0,67.374,13.275,28.693,67.947
26052.0,67.374,13.275,22.693,64.947
26062.0,66.374,12.275,22.693,64.947
26071.0,66.374,12.275,21.693,63.947
26081.0,63.374,12.275,21.693,64.947
26091.0,63.374,12.275,22.693,65.947
26101.0,62.374,11.275,23.693,67.947
26111.0,62.374,11.275,24.693,66.947
26121.0,61.374,9.275,25.693,68.947
26131.0,60.374,9.275,24.693,68.947
26141.0,58.374,8.275,26.693,68.947
26151.0,58.374,7.275,27.693,69.947
26160.0,53.374,7.275,27.693,68.947
26170.0,52.374,5.275,26.693,69.947
26180.0,51.374,4.275,23.693,67.947
26190.0,47.374,3.275,24.693,68.947
26200.0,45.374,2.275,23.693,68.947
26210.0,41.374,2.275,23.693,68.947
26220.0,38.374,0.27503,23.693,68.947
26230.0,37.374,-0.72497,20.693,69.947
26240.0,31.374,-0.72497,21.693,68.947
26249.0,30.374,-3.725,20.693,69.947
26259.0,25.374,-5.725,18.693,68.947
26269.0,22.374,-5.725,17.693,67.947
26279.0,20.374,-7.725,15.693,65.947
26289.0,16.374,-8.725,16.693,67.947
26299.0,12.374,-10.725,15.693,67.947
26309.0,8.3741,-10.725,15.693,69.947
26319.0,4.3741,-13.725,16.693,69.947
26328.0,3.3741,-13.725,16.693,69.947
26338.0,4.3741,-11.725,14.693,68.947
26348.0,6.3741,-9.725,11.693,68.947
26358.0,9.3741,-7.725,10.693,68.947
26368.0,14.374,-5.725,11.693,68.947
26378.0,19.374,-5.725,13.693,69.947
26388.0,24.374,-2.725,16.693,70.947
26398.0,31.374,-2.725,18.693,71.947
26408.0,34.374,-1.725,25.693,72.947
26417.0,38.374,-1.725,27.693,74.947
26427.0,43.374,-0.72497,31.693,75.947
26437.0,48.374,0.27503,35.693,76.947
26447.0,50.374,0.27503,37.693,76.947
26457.0,51.374,0.27503,38.693,77.947
26467.0,54.374,1.275,40.693,76.947
26477.0,53.374,0.27503,41.693,77.947
26487.0,52.374,0.27503,42.693,76.947
26497.0,52.374,-0.72497,43.693,78.947
26506.0,49.374,-1.725,45.693,80.947
26516.0,48.374,-1.725,46.693,80.947
26526.0,48.374,-2.725,45.693,80.947
26536.0,47.374,-2.725,43.693,80.947
26546.0,46.374,-2.725,46.693,79.947
26556.0,45.374,-3.725,47.693,80.947
26566.0,44.374,-3.725,48.693,82.947
26576.0,43.374,-3.725,49.693,81.947
26586.0,41.374,-5.725,47.693,82.947
26595.0,39.374,-4.725,49.693,83.947
26605.0,40.374,-6.725,49.693,83.947
26615.0,39.374,-6.725,48.693,84.947
26625.0,39.374,-6.725,47.693,84.947
26635.0,38.374,-7.725,49.693,84.947
26645.0,34.374,-7.725,49.693,84.947
26655.0,33.374,-8.725,50.693,85.947
26665.0,32.374,-9.725,49.693,85.947
26674.0,26.374,-10.725,48.693,83.947
26684.0,24.374,-12.725,48.693,83.947
26694.0,21.374,-13.725,47.693,84.947
26704.0,21.374,-13.725,46.693,84.947
26714.0,17.374,-15.725,47.693,84.947
26724.0,17.374,-15.725,47.693,84.947
26734.0,14.374,-15.725,43.693,84.947
26744.0,14.374,-15.725,43.693,84.947
26754.0,7.3741,-19.725,42.693,83.947
26763.0,7.3741,-19.725,41.693,82.947
26773.0,-3.6259,-20.725,42.693,83.947
26783.0,-3.6259,-20.725,42.693,84.947
26793.0,-7.6259,-24.725,42.693,86.947
26803.0,-7.6259,-24.725,42.693,86.947
26813.0,-14.626,-25.725,42.693,87.947
26823.0,-14.626,-25.725,39.693,84.947
26833.0,-12.626,-22.725,39.693,84.947
26843.0,-12.626,-22.725,33.693,82.947
26852.0,-6.6259,-20.725,33.693,82.947
26862.0,-2.6259,-18.725,35.693,83.947
26872.0,3.3741,-14.725,35.693,83.947
26882.0,9.3741,-14.725,40.693,85.947
26892.0,13.374,-14.725,40.693,85.947
26902.0,19.374,-14.725,46.693,85.947
26912.0,21.374,-13.725,46.693,85.947
26922.0,24.374,-13.725,49.693,86.947
26932.0,28.374,-13.725,49.693,86.947
26941.0,33.374,-12.725,57.693,88.947
26951.0,34.374,-12.725,57.693,88.947
26961.0,34.374,-12.725,60.693,90.947
26971.0,36.374,-12.725,60.693,90.947
26981.0,34.374,-13.725,65.693,93.947
26991.0,35.374,-13.725,65.693,93.947
27001.0,32.374,-13.725,68.693,94.947
27011.0,32.374,-13.725,68.693,94.947
27020.0,31.374,-12.725,67.693,94.947
27030.0,31.374,-13.725,67.693,94.947
27040.0,29.374,-13.725,69.693,95.947
27050.0,29.374,-13.725,70.693,95.947
27060.0,30.374,-14.725,68.693,94.947
27070.0,30.374,-14.725,65.693,94.947
27080.0,29.374,-13.725,66.693,94.947
27090.0,25.374,-15.725,64.693,93.947
27100.0,25.374,-16.725,64.693,93.947
27109.0,24.374,-14.725,64.693,92.947
27119.0,22.374,-16.725,64.693,93.947
27129.0,22.374,-16.725,65.693,94.947
27139.0,19.374,-16.725,64.693,95.947
27149.0,17.374,-18.725,63.693,93.947
27159.0,16.374,-19.725,57.693,91.947
27169.0,15.374,-18.725,58.693,90.947
27179.0,10.374,-20.725,58.693,92.947
27189.0,10.374,-22.725,61.693,93.947
27198.0,6.3741,-22.725,62.693,93.947
27208.0,4.3741,-23.725,63.693,93.947
27218.0,2.3741,-23.725,58.693,92.947
27228.0,0.37409,-24.725,57.693,91.947
27238.0,-5.6259,-24.725,55.693,90.947
27248.0,-6.6259,-26.725,53.693,90.947
27258.0,-10.626,-28.725,52.693,90.947
27268.0,-14.626,-28.725,53.693,90.947
27278.0,-16.626,-29.725,51.693,92.947
27287.0,-19.626,-30.725,50.693,90.947
27297.0,-23.626,-31.725,47.693,89.947
27307.0,-26.626,-32.725,46.693,88.947
27317.0,-27.626,-32.725,44.693,88.947
27327.0,-27.626,-30.725,44.693,88.947
27337.0,-23.626,-27.725,42.693,87.947
27347.0,-19.626,-26.725,39.693,86.947
27357.0,-17.626,-24.725,38.693,86.947
27366.0,-11.626,-21.725,38.693,86.947
27376.0,-6.6259,-19.725,39.693,86.947
27386.0,-0.62591,-18.725,40.693,86.947
27396.0,0.37409,-19.725,42.693,86.947
27406.0,5.3741,-19.725,44.693,85.947
27416.0,11.374,-18.725,46.693,87.947
27426.0,14.374,-17.725,49.693,84.947
27436.0,14.374,-17.725,50.693,85.947
27446.0,20.374,-15.725,51.693,86.947
27455.0,20.374,-15.725,55.693,88.947
27465.0,21.374,-16.725,55.693,88.947
27475.0,21.374,-16.725,59.693,89.947
27485.0,19.374,-18.725,60.693,91.947
27495.0,19.374,-18.725,59.693,90.947
27505.0,17.374,-18.725,59.693,89.947
27515.0,17.374,-18.725,59.693,89.947
27525.0,17.374,-17.725,61.693,91.947
27535.0,17.374,-17.725,63.693,93.947
27544.0,16.374,-17.725,63.693,91.947
27554.0,16.374,-17.725,62.693,91.947
27564.0,12.374,-18.725,63.693,93.947
27574.0,12.374,-18.725,64.693,92.947
27584.0,12.374,-18.725,63.693,93.947
27594.0,12.374,-18.725,64.693,94.947
27604.0,12.374,-18.725,63.693,94.947
27614.0,11.374,-19.725,61.693,94.947
27624.0,10.374,-20.725,59.693,92.947
27633.0,9.3741,-20.725,57.693,92.947
27643.0,6.3741,-21.725,57.693,91.947
27653.0,3.3741,-21.725,56.693,92.947
27663.0,2.3741,-21.725,56.693,91.947
27673.0,1.3741,-23.725,56.693,92.947
27683.0,-1.6259,-23.725,55.693,91.947
27693.0,-3.6259,-25.725,52.693,90.947
27703.0,-8.6259,-25.725,49.693,88.947
27712.0,-10.626,-26.725,47.693,87.947
27722.0,-10.626,-27.725,43.693,86.947
27732.0,-15.626,-27.725,43.693,85.947
27742.0,-17.626,-28.725,41.693,85.947
27752.0,-22.626,-30.725,40.693,87.947
27762.0,-24.626,-32.725,38.693,88.947
27772.0,-29.626,-33.725,40.693,88.947
27782.0,-31.626,-33.725,39.693,88.947
27792.0,-34.626,-33.725,36.693,87.947
27801.0,-38.626,-35.725,35.693,86.947
27811.0,-41.626,-36.725,34.693,87.947
27821.0,-46.626,-37.725,35.693,88.947
27831.0,-45.626,-36.725,35.693,88.947
27841.0,-43.626,-33.725,35.693,88.947
27851.0,-41.626,-32.725,31.693,87.947
27861.0,-35.626,-29.725,29.693,87.947
27871.0,-30.626,-27.725,30.693,86.947
27881.0,-23.626,-26.725,28.693,86.947
27890.0,-20.626,-25.725,29.693,88.947
27900.0,-16.626,-24.725,29.693,88.947
27910.0,-11.626,-23.725,39.693,88.947
27920.0,-4.6259,-22.725,39.693,88.947
27930.0,-1.6259,-20.725,43.693,89.947
27940.0,2.3741,-21.725,43.693,89.947
27950.0,4.3741,-21.725,47.693,90.947
27960.0,4.3741,-21.725,47.693,90.947
27970.0,7.3741,-20.725,47.693,88.947
27979.0,6.3741,-21.725,47.693,88.947
27989.0,6.3741,-22.725,47.693,88.947
27999.0,4.3741,-22.725,47.693,88.947
28009.0,3.3741,-23.725,47.693,89.947
28019.0,4.3741,-21.725,47.693,89.947
28029.0,3.3741,-21.725,48.693,91.947
28039.0,3.3741,-21.725,48.693,91.947
28049.0,2.3741,-20.725,48.693,92.947
28058.0,3.3741,-21.725,48.693,92.947
28068.0,3.3741,-21.725,49.693,94.947
28078.0,2.3741,-21.725,49.693,94.947
28088.0,1.3741,-21.725,48.693,93.947
28098.0,0.37409,-22.725,50.693,94.947
28108.0,0.37409,-22.725,50.693,93.947
28118.0,0.37409,-22.725,48.693,93.947
28128.0,-3.6259,-23.725,46.693,92.947
28138.0,-3.6259,-24.725,46.693,93.947
28147.0,-5.6259,-24.725,46.693,92.947
28157.0,-7.6259,-24.725,47.693,92.947
28167.0,-7.6259,-24.725,47.693,93.947
28177.0,-10.626,-25.725,44.693,92.947
28187.0,-10.626,-25.725,41.693,91.947
28197.0,-14.626,-26.725,37.693,91.947
28207.0,-14.626,-26.725,35.693,88.947
28217.0,-18.626,-28.725,34.693,87.947
28227.0,-18.626,-28.725,34.693,88.947
28236.0,-25.626,-29.725,33.693,87.947
28246.0,-25.626,-29.725,31.693,86.947
28256.0,-28.626,-30.725,28.693,85.947
28266.0,-28.626,-30.725,25.693,84.947
28276.0,-36.626,-32.725,22.693,83.947
28286.0,-36.626,-32.725,18.693,82.947
28296.0,-40.626,-33.725,16.693,81.947
28306.0,-40.626,-33.725,15.693,81.947
28316.0,-45.626,-34.725,12.693,80.947
28325.0,-50.626,-37.725,10.693,80.947
28335.0,-51.626,-36.725,6.6929,78.947
28345.0,-50.626,-35.725,0.69288,76.947
28355.0,-49.626,-33.725,-4.3071,73.947
28365.0,-44.626,-30.725,-7.3071,71.947
28375.0,-39.626,-28.725,-8.3071,71.947
28385.0,-33.626,-27.725,-8.3071,70.947
28395.0,-29.626,-26.725,-8.3071,69.947
28404.0,-23.626,-25.725,-6.3071,69.947
28414.0,-20.626,-23.725,-3.3071,71.947
28424.0,-15.626,-22.725,-0.30712,70.947
28434.0,-10.626,-22.725,-1.3071,70.947
28444.0,-7.6259,-20.725,1.6929,70.947
28454.0,-0.62591,-20.725,5.6929,72.947
28464.0,0.37409,-20.725,6.6929,71.947
28474.0,2.3741,-19.725,7.6929,71.947
28484.0,3.3741,-20.725,8.6929,69.947
28493.0,2.3741,-20.725,10.693,71.947
28503.0,1.3741,-20.725,9.6929,70.947
28513.0,1.3741,-21.725,10.693,72.947
28523.0,0.37409,-22.725,9.6929,70.947
28533.0,-0.62591,-21.725,6.6929,70.947
28543.0,0.37409,-20.725,5.6929,68.947
28553.0,0.37409,-20.725,4.6929,68.947
28563.0,0.37409,-18.725,5.6929,67.947
28573.0,0.37409,-19.725,6.6929,69.947
28582.0,-0.62591,-18.725,7.6929,69.947
28592.0,-0.62591,-18.725,5.6929,69.947
28602.0,0.37409,-19.725,3.6929,69.947
28612.0,-0.62591,-18.725,4.6929,68.947
28622.0,-1.6259,-18.725,5.6929,69.947
28632.0,0.37409,-18.725,8.6929,70.947
28642.0,-3.6259,-21.725,6.6929,70.947
28652.0,-3.6259,-18.725,6.6929,70.947
28662.0,-3.6259,-19.725,4.6929,69.947
28671.0,-4.6259,-20.725,3.6929,68.947
28681.0,-7.6259,-21.725,2.6929,68.947
28691.0,-7.6259,-20.725,3.6929,67.947
28701.0,-11.626,-20.725,5.6929,69.947
28711.0,-13.626,-22.725,4.6929,69.947
28721.0,-14.626,-21.725,3.6929,69.947
28731.0,-17.626,-23.725,3.6929,68.947
28741.0,-21.626,-23.725,0.69288,67.947
28750.0,-23.626,-24.725,0.69288,68.947
28760.0,-26.626,-25.725,-1.3071,66.947
28770.0,-29.626,-26.725,-4.3071,66.947
28780.0,-32.626,-27.725,-6.3071,65.947
28790.0,-34.626,-28.725,-10.307,64.947
28800.0,-36.626,-28.725,-11.307,64.947
28810.0,-40.626,-30.725,-10.307,64.947
28820.0,-43.626,-29.725,-10.307,64.947
28830.0,-48.626,-29.725,-11.307,65.947
28839.0,-46.626,-29.725,-11.307,65.947
28849.0,-45.626,-26.725,-12.307,64.947
28859.0,-42.626,-25.725,-15.307,62.947
28869.0,-36.626,-21.725,-15.307,62.947
28879.0,-32.626,-20.725,-14.307,63.947
28889.0,-26.626,-17.725,-14.307,63.947
28899.0,-26.626,-17.725,-5.3071,67.947
28909.0,-17.626,-16.725,-5.3071,67.947
28919.0,-17.626,-16.725,-2.3071,67.947
28928.0,-7.6259,-12.725,-2.3071,67.947
28938.0,-7.6259,-12.725,1.6929,66.947
28948.0,-0.62591,-13.725,1.6929,66.947
28958.0,-0.62591,-13.725,9.6929,70.947
28968.0,4.3741,-12.725,9.6929,70.947
28978.0,4.3741,-12.725,14.693,71.947
28988.0,4.3741,-12.725,14.693,71.947
28998.0,4.3741,-12.725,15.693,70.947
29008.0,4.3741,-12.725,15.693,70.947
29017.0,4.3741,-12.725,18.693,71.947
29027.0,1.3741,-13.725,18.693,71.947
29037.0,1.3741,-13.725,18.693,71.947
29047.0,-0.62591,-13.725,20.693,72.947
29057.0,-0.62591,-13.725,20.693,72.947
29067.0,-2.6259,-13.725,20.693,73.947
29077.0,-0.62591,-12.725,18.693,73.947
29087.0,-2.6259,-13.725,20.693,73.947
29096.0,-6.6259,-14.725,19.693,75.947
29106.0,-4.6259,-13.725,20.693,74.947
29116.0,-6.6259,-13.725,19.693,73.947
29126.0,-7.6259,-13.725,17.693,74.947
29136.0,-8.6259,-14.725,18.693,75.947
29146.0,-8.6259,-13.725,18.693,75.947
29156.0,-10.626,-15.725,19.693,75.947
29166.0,-12.626,-16.725,18.693,75.947
29176.0,-13.626,-15.725,17.693,75.947
29185.0,-17.626,-17.725,14.693,73.947
29195.0,-17.626,-17.725,12.693,73.947
29205.0,-19.626,-17.725,12.693,72.947
29215.0,-21.626,-18.725,11.693,71.947
29225.0,-25.626,-20.725,9.6929,71.947
29235.0,-27.626,-21.725,7.6929,71.947
29245.0,-29.626,-21.725,10.693,71.947
29255.0,-32.626,-21.725,8.6929,72.947
29265.0,-38.626,-22.725,9.6929,73.947
29274.0,-39.626,-23.725,9.6929,71.947
29284.0,-43.626,-25.725,9.6929,72.947
29294.0,-48.626,-27.725,8.6929,73.947
29304.0,-49.626,-27.725,8.6929,72.947
29314.0,-53.626,-28.725,7.6929,73.947
29324.0,-54.626,-29.725,6.6929,72.947
29334.0,-59.626,-29.725,4.6929,73.947
29344.0,-60.626,-29.725,6.6929,71.947
29354.0,-59.626,-28.725,3.6929,72.947
29363.0,-60.626,-25.725,1.6929,71.947
29373.0,-53.626,-24.725,2.6929,71.947
29383.0,-52.626,-21.725,2.6929,72.947
29393.0,-47.626,-18.725,3.6929,72.947
29403.0,-40.626,-16.725,6.6929,73.947
29413.0,-36.626,-16.725,6.6929,74.947
29423.0,-35.626,-15.725,9.6929,74.947
29433.0,-30.626,-15.725,13.693,75.947
29442.0,-26.626,-14.725,17.693,76.947
29452.0,-20.626,-13.725,20.693,75.947
29462.0,-18.626,-12.725,22.693,76.947
29472.0,-17.626,-14.725,24.693,76.947
29482.0,-17.626,-15.725,26.693,76.947
29492.0,-18.626,-15.725,25.693,77.947
29502.0,-18.626,-15.725,27.693,78.947
29512.0,-16.626,-15.725,29.693,79.947
29522.0,-21.626,-16.725,30.693,79.947
29531.0,-23.626,-17.725,31.693,80.947
29541.0,-24.626,-16.725,31.693,80.947
29551.0,-24.626,-17.725,32.693,81.947
29561.0,-26.626,-15.725,32.693,81.947
29571.0,-25.626,-16.725,32.693,82.947
29581.0,-26.626,-15.725,34.693,82.947
29591.0,-26.626,-16.725,31.693,80.947
29601.0,-29.626,-16.725,31.693,81.947
29611.0,-29.626,-16.725,28.693,81.947
29620.0,-30.626,-16.725,29.693,81.947
29630.0,-30.626,-16.725,29.693,82.947
29640.0,-32.626,-16.725,30.693,82.947
29650.0,-32.626,-16.725,30.693,81.947
29660.0,-31.626,-16.725,29.693,81.947
29670.0,-31.626,-16.725,30.693,82.947
29680.0,-36.626,-16.725,27.693,80.947
29690.0,-36.626,-16.725,28.693,82.947
29700.0,-41.626,-20.725,29.693,81.947
29709.0,-41.626,-20.725,29.693,82.947
29719.0,-45.626,-20.725,28.693,82.947
29729.0,-45.626,-20.725,29.693,82.947
29739.0,-50.626,-21.725,27.693,82.947
29749.0,-50.626,-21.725,27.693,82.947
29759.0,-56.626,-22.725,27.693,83.947
29769.0,-56.626,-22.725,28.693,83.947
29779.0,-58.626,-23.725,27.693,83.947
29788.0,-62.626,-23.725,24.693,82.947
29798.0,-65.626,-25.725,24.693,82.947
29808.0,-68.626,-26.725,20.693,78.947
29818.0,-72.626,-26.725,20.693,78.947
29828.0,-77.626,-27.725,20.693,79.947
29838.0,-79.626,-28.725,20.693,79.947
29848.0,-83.626,-29.725,18.693,79.947
29858.0,-86.626,-31.725,18.693,79.947
29868.0,-85.626,-29.725,12.693,77.947
29877.0,-82.626,-25.725,12.693,77.947
29887.0,-80.626,-25.725,10.693,76.947
29897.0,-77.626,-21.725,10.693,76.947
29907.0,-72.626,-19.725,13.693,79.947
29917.0,-65.626,-18.725,13.693,79.947
29927.0,-63.626,-16.725,18.693,79.947
29937.0,-60.626,-17.725,18.693,79.947
29947.0,-55.626,-17.725,22.693,80.947
29957.0,-51.626,-16.725,22.693,80.947
29966.0,-49.626,-16.725,26.693,83.947
29976.0,-46.626,-16.725,26.693,83.947
29986.0,-47.626,-15.725,32.693,85.947
29996.0,-46.626,-15.725,34.693,84.947
