t,carotid_880nm,carotid_660nm,brachial_880nm,brachial_660nm
3.9,-56.437,-30.317,124.02,144.3
13.7,-56.437,-31.317,125.02,143.3
23.6,-57.437,-31.317,127.02,144.3
33.5,-56.437,-31.317,129.02,144.3
43.4,-57.437,-31.317,128.02,144.3
53.3,-59.437,-32.317,130.02,143.3
63.2,-60.437,-32.317,129.02,143.3
73.1,-61.437,-32.317,127.02,142.3
82.9,-61.437,-32.317,129.02,142.3
92.8,-62.437,-31.317,129.02,142.3
102.7,-63.437,-32.317,127.02,141.3
112.6,-64.437,-31.317,124.02,141.3
122.5,-66.437,-33.317,123.02,140.3
132.4,-68.437,-34.317,123.02,140.3
142.3,-67.437,-34.317,123.02,140.3
152.1,-67.437,-33.317,126.02,141.3
162.0,-68.437,-34.317,127.02,140.3
171.9,-69.437,-34.317,123.02,140.3
181.8,-71.437,-35.317,121.02,139.3
191.7,-73.437,-36.317,118.02,138.3
201.6,-76.437,-37.317,118.02,139.3
211.5,-78.437,-37.317,117.02,139.3
221.3,-81.437,-39.317,120.02,140.3
231.2,-82.437,-39.317,122.02,139.3
241.1,-86.437,-39.317,120.02,140.3
251.0,-87.437,-40.317,117.02,139.3
260.9,-92.437,-41.317,116.02,138.3
270.8,-94.437,-41.317,116.02,138.3
280.7,-97.437,-42.317,116.02,137.3
290.5,-100.44,-42.317,115.02,136.3
300.4,-102.44,-44.317,115.02,136.3
310.3,-105.44,-43.317,113.02,136.3
320.2,-109.44,-46.317,113.02,136.3
330.1,-115.44,-47.317,111.02,134.3
340.0,-117.44,-48.317,111.02,134.3
349.9,-120.44,-47.317,106.02,132.3
359.7,-123.44,-48.317,106.02,132.3
369.6,-126.44,-49.317,102.02,132.3
379.5,-125.44,-47.317,102.02,132.3
389.4,-120.44,-44.317,101.02,133.3
399.3,-118.44,-42.317,101.02,133.3
409.2,-111.44,-39.317,97.024,131.3
419.1,-105.44,-36.317,97.024,131.3
428.9,-100.44,-34.317,96.024,131.3
438.8,-100.44,-34.317,96.024,131.3
448.7,-90.437,-34.317,101.02,131.3
458.6,-90.437,-34.317,101.02,131.3
468.5,-80.437,-31.317,111.02,134.3
478.4,-80.437,-31.317,111.02,134.3
488.3,-68.437,-28.317,116.02,134.3
498.1,-68.437,-28.317,116.02,134.3
508.0,-63.437,-28.317,120.02,135.3
517.9,-63.437,-28.317,122.02,136.3
527.8,-60.437,-27.317,125.02,136.3
537.7,-60.437,-27.317,127.02,137.3
547.6,-61.437,-27.317,128.02,138.3
557.5,-61.437,-27.317,130.02,136.3
567.3,-62.437,-27.317,133.02,139.3
577.2,-63.437,-27.317,132.02,139.3
587.1,-63.437,-28.317,134.02,140.3
597.0,-63.437,-27.317,136.02,140.3
606.9,-65.437,-26.317,136.02,140.3
616.8,-64.437,-27.317,136.02,140.3
626.7,-66.437,-26.317,136.02,140.3
636.5,-69.437,-28.317,137.02,140.3
646.4,-69.437,-28.317,136.02,140.3
656.3,-68.437,-28.317,135.02,140.3
666.2,-70.437,-28.317,133.02,141.3
676.1,-70.437,-28.317,132.02,140.3
686.0,-71.437,-27.317,132.02,139.3
695.9,-73.437,-28.317,131.02,140.3
705.7,-74.437,-28.317,133.02,140.3
715.6,-76.437,-30.317,133.02,142.3
725.5,-79.437,-29.317,132.02,140.3
735.4,-80.437,-31.317,130.02,140.3
745.3,-82.437,-32.317,130.02,139.3
755.2,-85.437,-32.317,131.02,140.3
765.1,-88.437,-34.317,132.02,140.3
774.9,-91.437,-35.317,132.02,141.3
784.8,-95.437,-35.317,132.02,141.3
794.7,-98.437,-36.317,131.02,141.3
804.6,-100.44,-37.317,130.02,140.3
814.5,-107.44,-39.317,129.02,139.3
824.4,-107.44,-39.317,129.02,139.3
834.3,-111.44,-41.317,129.02,139.3
844.1,-116.44,-41.317,126.02,139.3
854.0,-118.44,-41.317,126.02,139.3
863.9,-121.44,-42.317,124.02,138.3
873.8,-125.44,-42.317,121.02,137.3
883.7,-127.44,-43.317,118.02,135.3
893.6,-125.44,-41.317,120.02,136.3
903.5,-125.44,-39.317,117.02,135.3
913.3,-121.44,-37.317,118.02,135.3
923.2,-115.44,-33.317,117.02,133.3
933.1,-111.44,-30.317,114.02,135.3
943.0,-104.44,-28.317,113.02,134.3
952.9,-99.437,-28.317,113.02,134.3
962.8,-94.437,-28.317,114.02,134.3
972.7,-90.437,-28.317,118.02,134.3
982.5,-84.437,-27.317,122.02,135.3
992.4,-81.437,-27.317,127.02,137.3
1002.3,-73.437,-25.317,129.02,138.3
1012.2,-67.437,-22.317,131.02,138.3
1022.1,-64.437,-22.317,134.02,138.3
1032.0,-65.437,-21.317,137.02,140.3
1041.8,-63.437,-22.317,142.02,142.3
1051.7,-64.437,-22.317,144.02,142.3
1061.6,-65.437,-23.317,146.02,143.3
1071.5,-66.437,-23.317,146.02,143.3
1081.4,-67.437,-22.317,146.02,142.3
1091.3,-68.437,-22.317,146.02,142.3
1101.2,-67.437,-22.317,147.02,144.3
1111.1,-68.437,-20.317,148.02,144.3
1120.9,-69.437,-22.317,148.02,144.3
1130.8,-71.437,-22.317,146.02,142.3
1140.7,-71.437,-23.317,145.02,141.3
1150.6,-72.437,-23.317,143.02,142.3
1160.5,-74.437,-21.317,142.02,142.3
1170.4,-74.437,-21.317,144.02,142.3
1180.2,-76.437,-22.317,141.02,142.3
1190.1,-76.437,-22.317,140.02,142.3
1200.0,-76.437,-23.317,139.02,142.3
1209.9,-76.437,-23.317,138.02,142.3
1219.8,-79.437,-22.317,135.02,140.3
1229.7,-79.437,-22.317,133.02,141.3
1239.6,-82.437,-25.317,134.02,140.3
1249.5,-82.437,-25.317,134.02,140.3
1259.3,-87.437,-26.317,134.02,139.3
1269.2,-87.437,-26.317,134.02,139.3
1279.1,-92.437,-27.317,136.02,139.3
1289.0,-92.437,-27.317,136.02,139.3
1298.9,-101.44,-29.317,133.02,139.3
1308.8,-101.44,-29.317,133.02,139.3
1318.6,-103.44,-29.317,131.02,138.3
1328.5,-105.44,-31.317,131.02,138.3
1338.4,-106.44,-32.317,133.02,140.3
1348.3,-113.44,-32.317,133.02,140.3
1358.2,-116.44,-34.317,129.02,141.3
1368.1,-121.44,-34.317,129.02,141.3
1378.0,-124.44,-34.317,124.02,137.3
1387.8,-125.44,-34.317,124.02,137.3
1397.7,-132.44,-37.317,121.02,137.3
1407.6,-135.44,-38.317,121.02,137.3
1417.5,-134.44,-35.317,119.02,136.3
1427.4,-130.44,-32.317,119.02,136.3
1437.3,-127.44,-29.317,114.02,135.3
1447.2,-120.44,-27.317,112.02,133.3
1457.0,-114.44,-24.317,111.02,132.3
1466.9,-111.44,-24.317,109.02,133.3
1476.8,-108.44,-25.317,108.02,132.3
1486.7,-104.44,-24.317,110.02,133.3
1496.6,-99.437,-23.317,111.02,132.3
1506.5,-92.437,-22.317,112.02,132.3
1516.4,-86.437,-21.317,114.02,132.3
1526.2,-82.437,-19.317,117.02,132.3
1536.1,-78.437,-17.317,119.02,133.3
1546.0,-77.437,-18.317,123.02,135.3
1555.9,-75.437,-17.317,122.02,134.3
1565.8,-78.437,-18.317,123.02,134.3
1575.7,-78.437,-17.317,122.02,134.3
1585.6,-77.437,-18.317,123.02,135.3
1595.4,-80.437,-19.317,125.02,135.3
1605.3,-78.437,-18.317,127.02,136.3
1615.2,-79.437,-18.317,127.02,137.3
1625.1,-81.437,-17.317,126.02,137.3
1635.0,-82.437,-17.317,126.02,137.3
1644.9,-82.437,-18.317,125.02,136.3
1654.8,-84.437,-18.317,122.02,135.3
1664.6,-86.437,-17.317,123.02,136.3
1674.5,-85.437,-17.317,124.02,136.3
1684.4,-87.437,-17.317,121.02,136.3
1694.3,-87.437,-17.317,119.02,136.3
1704.2,-87.437,-18.317,117.02,134.3
1714.1,-89.437,-19.317,116.02,134.3
1724.0,-90.437,-18.317,113.02,133.3
1733.8,-92.437,-19.317,112.02,134.3
1743.7,-94.437,-20.317,111.02,132.3
1753.6,-94.437,-19.317,107.02,132.3
1763.5,-98.437,-20.317,105.02,132.3
1773.4,-99.437,-21.317,104.02,130.3
1783.3,-101.44,-21.317,102.02,130.3
1793.2,-104.44,-22.317,100.02,129.3
1803.0,-106.44,-21.317,99.024,130.3
1812.9,-109.44,-23.317,97.024,129.3
1822.8,-114.44,-24.317,95.024,128.3
1832.7,-117.44,-26.317,95.024,126.3
1842.6,-121.44,-26.317,89.024,126.3
1852.5,-125.44,-28.317,87.024,125.3
1862.4,-127.44,-28.317,85.024,124.3
1872.2,-129.44,-29.317,83.024,123.3
1882.1,-132.44,-29.317,80.024,123.3
1892.0,-136.44,-30.317,77.024,121.3
1901.9,-136.44,-30.317,74.024,121.3
1911.8,-145.44,-32.317,73.024,120.3
1921.7,-145.44,-32.317,72.024,119.3
1931.6,-141.44,-27.317,69.024,119.3
1941.4,-141.44,-27.317,67.024,117.3
1951.3,-131.44,-24.317,64.024,118.3
1961.2,-131.44,-24.317,61.024,117.3
1971.1,-121.44,-20.317,61.024,117.3
1981.0,-121.44,-20.317,60.024,117.3
1990.9,-114.44,-19.317,62.024,116.3
2000.8,-114.44,-19.317,62.024,117.3
2010.6,-101.44,-16.317,63.024,118.3
2020.5,-101.44,-16.317,68.024,117.3
2030.4,-89.437,-11.317,69.024,119.3
2040.3,-89.437,-11.317,72.024,119.3
2050.2,-85.437,-12.317,73.024,118.3
2060.1,-83.437,-12.317,74.024,120.3
2070.0,-83.437,-12.317,78.024,120.3
2079.8,-83.437,-12.317,78.024,119.3
2089.7,-84.437,-12.317,76.024,119.3
2099.6,-88.437,-14.317,76.024,119.3
2109.5,-89.437,-14.317,77.024,120.3
2119.4,-89.437,-13.317,79.024,121.3
2129.3,-87.437,-13.317,77.024,119.3
2139.2,-87.437,-12.317,76.024,119.3
2149.0,-90.437,-12.317,72.024,118.3
2158.9,-90.437,-13.317,70.024,117.3
2168.8,-90.437,-12.317,70.024,118.3
2178.7,-91.437,-13.317,70.024,117.3
2188.6,-93.437,-12.317,69.024,117.3
2198.5,-91.437,-12.317,68.024,117.3
2208.4,-93.437,-13.317,66.024,115.3
2218.2,-90.437,-11.317,63.024,115.3
2228.1,-92.437,-12.317,60.024,114.3
2238.0,-92.437,-11.317,60.024,112.3
2247.9,-95.437,-13.317,58.024,112.3
2257.8,-96.437,-13.317,58.024,112.3
2267.7,-97.437,-15.317,54.024,111.3
2277.6,-99.437,-15.317,54.024,111.3
2287.4,-103.44,-16.317,53.024,110.3
2297.3,-105.44,-16.317,53.024,110.3
2307.2,-106.44,-16.317,52.024,110.3
2317.1,-108.44,-17.317,52.024,110.3
2327.0,-111.44,-18.317,50.024,109.3
2336.9,-113.44,-18.317,50.024,109.3
2346.8,-119.44,-20.317,46.024,107.3
2356.6,-117.44,-20.317,46.024,107.3
2366.5,-123.44,-22.317,44.024,106.3
2376.4,-127.44,-23.317,44.024,106.3
2386.3,-129.44,-23.317,41.024,106.3
2396.2,-131.44,-24.317,41.024,106.3
2406.1,-134.44,-25.317,35.024,103.3
2416.0,-138.44,-26.317,35.024,103.3
2425.8,-138.44,-24.317,33.024,104.3
2435.7,-134.44,-22.317,33.024,104.3
2445.6,-128.44,-18.317,32.024,103.3
2455.5,-125.44,-15.317,28.024,101.3
2465.4,-116.44,-12.317,26.024,100.3
2475.3,-109.44,-10.317,24.024,100.3
2485.2,-104.44,-9.3175,22.024,100.3
2495.0,-97.437,-8.3175,22.024,100.3
2504.9,-90.437,-7.3175,23.024,99.298
2514.8,-84.437,-5.3175,27.024,100.3
2524.7,-76.437,-4.3175,31.024,99.298
2534.6,-69.437,-2.3175,33.024,102.3
2544.5,-64.437,-1.3175,37.024,103.3
2554.4,-60.437,-0.31749,40.024,103.3
2564.2,-57.437,0.68251,42.024,106.3
2574.1,-57.437,0.68251,45.024,107.3
2584.0,-56.437,-0.31749,47.024,107.3
2593.9,-55.437,-0.31749,50.024,107.3
2603.8,-57.437,-1.3175,53.024,109.3
2613.7,-56.437,-1.3175,54.024,109.3
2623.6,-54.437,-0.31749,57.024,110.3
2633.4,-54.437,-0.31749,58.024,111.3
2643.3,-55.437,1.6825,58.024,111.3
2653.2,-55.437,1.6825,55.024,111.3
2663.1,-54.437,1.6825,54.024,110.3
2673.0,-54.437,1.6825,53.024,110.3
2682.9,-53.437,0.68251,55.024,111.3
2692.8,-53.437,0.68251,56.024,112.3
2702.6,-53.437,0.68251,56.024,112.3
2712.5,-53.437,0.68251,58.024,112.3
2722.4,-52.437,0.68251,57.024,113.3
2732.3,-52.437,0.68251,55.024,113.3
2742.2,-53.437,-0.31749,56.024,112.3
2752.1,-53.437,-0.31749,56.024,112.3
2762.0,-54.437,-0.31749,57.024,114.3
2771.8,-54.437,-0.31749,60.024,114.3
2781.7,-57.437,-1.3175,62.024,116.3
2791.6,-60.437,-2.3175,60.024,115.3
2801.5,-60.437,-3.3175,60.024,115.3
2811.4,-61.437,-3.3175,59.024,115.3
2821.3,-63.437,-3.3175,58.024,113.3
2831.2,-63.437,-5.3175,59.024,114.3
2841.0,-68.437,-5.3175,61.024,113.3
2850.9,-69.437,-6.3175,59.024,114.3
2860.8,-74.437,-8.3175,56.024,113.3
2870.7,-78.437,-8.3175,56.024,112.3
2880.6,-80.437,-10.317,53.024,111.3
2890.5,-81.437,-9.3175,51.024,111.3
2900.4,-83.437,-10.317,49.024,109.3
2910.2,-87.437,-11.317,48.024,109.3
2920.1,-89.437,-11.317,44.024,108.3
2930.0,-91.437,-11.317,42.024,108.3
2939.9,-87.437,-9.3175,40.024,106.3
2949.8,-84.437,-5.3175,37.024,107.3
2959.7,-77.437,-4.3175,36.024,105.3
2969.6,-71.437,-0.31749,35.024,106.3
2979.4,-63.437,2.6825,36.024,105.3
2989.3,-57.437,2.6825,36.024,105.3
2999.2,-50.437,2.6825,40.024,107.3
3009.1,-43.437,4.6825,41.024,106.3
3019.0,-34.437,6.6825,46.024,108.3
3028.9,-28.437,8.6825,53.024,110.3
3038.8,-20.437,9.6825,56.024,111.3
3048.6,-15.437,10.683,59.024,111.3
3058.5,-12.437,12.683,62.024,111.3
3068.4,-9.4365,11.683,60.024,111.3
3078.3,-8.4365,12.683,63.024,111.3
3088.2,-8.4365,10.683,65.024,111.3
3098.1,-9.4365,10.683,65.024,113.3
3108.0,-7.4365,9.6825,68.024,113.3
3117.8,-8.4365,9.6825,71.024,114.3
3127.7,-7.4365,10.683,69.024,113.3
3137.6,-7.4365,9.6825,69.024,112.3
3147.5,-8.4365,10.683,68.024,112.3
3157.4,-7.4365,10.683,67.024,112.3
3167.3,-7.4365,10.683,66.024,110.3
3177.2,-8.4365,8.6825,65.024,112.3
3187.0,-9.4365,9.6825,64.024,110.3
3196.9,-7.4365,8.6825,64.024,110.3
3206.8,-8.4365,9.6825,64.024,110.3
3216.7,-6.4365,9.6825,63.024,110.3
3226.6,-8.4365,10.683,60.024,110.3
3236.5,-8.4365,8.6825,57.024,107.3
3246.4,-8.4365,8.6825,56.024,106.3
3256.2,-10.437,8.6825,56.024,106.3
3266.1,-10.437,7.6825,56.024,106.3
3276.0,-12.437,7.6825,58.024,107.3
3285.9,-13.437,6.6825,58.024,107.3
3295.8,-14.437,6.6825,56.024,108.3
3305.7,-17.437,5.6825,56.024,108.3
3315.6,-19.437,4.6825,60.024,110.3
3325.4,-21.437,4.6825,60.024,110.3
3335.3,-22.437,3.6825,61.024,110.3
3345.2,-25.437,3.6825,61.024,110.3
3355.1,-29.437,1.6825,57.024,108.3
3365.0,-29.437,1.6825,57.024,108.3
3374.9,-35.437,-0.31749,57.024,110.3
3384.8,-35.437,-0.31749,57.024,110.3
3394.6,-39.437,-1.3175,55.024,109.3
3404.5,-39.437,-1.3175,55.024,109.3
3414.4,-43.437,-1.3175,51.024,108.3
3424.3,-43.437,-1.3175,51.024,108.3
3434.2,-41.437,1.6825,48.024,107.3
3444.1,-41.437,1.6825,48.024,107.3
3454.0,-29.437,7.6825,49.024,108.3
3463.8,-29.437,7.6825,47.024,107.3
3473.7,-11.437,11.683,46.024,106.3
3483.6,-11.437,11.683,42.024,106.3
3493.5,-1.4365,11.683,45.024,107.3
3503.4,-1.4365,11.683,50.024,110.3
3513.3,5.5635,13.683,55.024,111.3
3523.2,10.563,12.683,60.024,112.3
3533.0,16.563,14.683,63.024,112.3
3542.9,22.563,16.683,66.024,113.3
3552.8,26.563,16.683,70.024,113.3
3562.7,27.563,17.683,73.024,115.3
3572.6,32.563,18.683,79.024,117.3
3582.5,33.563,16.683,81.024,118.3
3592.3,33.563,17.683,84.024,119.3
3602.2,32.563,15.683,85.024,120.3
3612.1,32.563,15.683,84.024,118.3
3622.0,32.563,15.683,86.024,119.3
3631.9,31.563,15.683,85.024,118.3
3641.8,31.563,16.683,86.024,119.3
3651.7,29.563,14.683,86.024,121.3
3661.6,30.563,15.683,88.024,120.3
3671.4,28.563,14.683,86.024,121.3
3681.3,27.563,13.683,84.024,119.3
3691.2,26.563,13.683,82.024,119.3
3701.1,25.563,12.683,86.024,121.3
3711.0,25.563,11.683,85.024,121.3
3720.9,25.563,11.683,85.024,121.3
3730.7,25.563,10.683,84.024,121.3
3740.6,24.563,11.683,81.024,120.3
3750.5,24.563,9.6825,83.024,120.3
3760.4,22.563,9.6825,84.024,121.3
3770.3,20.563,10.683,86.024,122.3
3780.2,19.563,7.6825,86.024,122.3
3790.1,15.563,6.6825,84.024,121.3
3800.0,14.563,5.6825,83.024,121.3
3809.8,12.563,5.6825,82.024,119.3
3819.7,8.5635,3.6825,84.024,120.3
3829.6,6.5635,2.6825,82.024,122.3
3839.5,2.5635,1.6825,84.024,122.3
3849.4,0.56347,0.68251,85.024,121.3
3859.3,-2.4365,-1.3175,83.024,120.3
3869.1,-7.4365,-2.3175,82.024,120.3
3879.0,-10.437,-3.3175,81.024,120.3
3888.9,-12.437,-3.3175,80.024,120.3
3898.8,-13.437,-5.3175,81.024,120.3
3908.7,-18.437,-5.3175,80.024,121.3
3918.6,-17.437,-5.3175,80.024,120.3
3928.5,-16.437,-3.3175,78.024,121.3
3938.3,-14.437,-1.3175,77.024,120.3
3948.2,-8.4365,1.6825,76.024,119.3
3958.1,-1.4365,4.6825,75.024,120.3
3968.0,4.5635,4.6825,76.024,121.3
3977.9,7.5635,5.6825,76.024,121.3
3987.8,15.563,5.6825,79.024,121.3
3997.7,22.563,7.6825,82.024,123.3
4007.5,29.563,9.6825,85.024,123.3
4017.4,34.563,9.6825,90.024,124.3
4027.3,39.563,10.683,98.024,127.3
4037.2,43.563,12.683,101.02,128.3
4047.1,47.563,13.683,104.02,129.3
4057.0,49.563,13.683,102.02,129.3
4066.9,49.563,13.683,108.02,131.3
4076.7,49.563,12.683,110.02,130.3
4086.6,50.563,12.683,112.02,131.3
4096.5,50.563,12.683,115.02,133.3
4106.4,48.563,12.683,116.02,135.3
4116.3,48.563,12.683,117.02,134.3
4126.2,45.563,11.683,115.02,133.3
4136.1,45.563,11.683,115.02,134.3
4145.9,44.563,11.683,117.02,134.3
4155.8,44.563,11.683,118.02,133.3
4165.7,41.563,9.6825,117.02,134.3
4175.6,41.563,9.6825,118.02,134.3
4185.5,40.563,8.6825,117.02,135.3
4195.4,40.563,8.6825,117.02,135.3
4205.3,38.563,7.6825,116.02,134.3
4215.1,38.563,7.6825,116.02,134.3
4225.0,34.563,6.6825,114.02,133.3
4234.9,34.563,6.6825,114.02,133.3
4244.8,32.563,5.6825,116.02,135.3
4254.7,29.563,3.6825,116.02,135.3
4264.6,27.563,2.6825,115.02,133.3
4274.5,23.563,2.6825,115.02,133.3
4284.3,23.563,2.6825,115.02,134.3
4294.2,19.563,-0.31749,115.02,134.3
4304.1,17.563,0.68251,115.02,134.3
4314.0,10.563,-2.3175,115.02,134.3
4323.9,8.5635,-2.3175,113.02,133.3
4333.8,6.5635,-4.3175,113.02,133.3
4343.7,3.5635,-5.3175,112.02,134.3
4353.5,-1.4365,-7.3175,112.02,134.3
4363.4,-7.4365,-7.3175,112.02,136.3
4373.3,-7.4365,-8.3175,112.02,136.3
4383.2,-11.437,-9.3175,111.02,133.3
4393.1,-13.437,-10.317,110.02,133.3
4403.0,-19.437,-11.317,105.02,133.3
4412.9,-23.437,-13.317,105.02,132.3
4422.7,-23.437,-12.317,104.02,131.3
4432.6,-22.437,-10.317,104.02,132.3
4442.5,-20.437,-7.3175,105.02,131.3
4452.4,-14.437,-5.3175,103.02,132.3
4462.3,-6.4365,-1.3175,102.02,131.3
4472.2,-2.4365,0.68251,101.02,131.3
4482.1,3.5635,-0.31749,100.02,131.3
4491.9,6.5635,-0.31749,102.02,131.3
4501.8,10.563,0.68251,105.02,131.3
4511.7,17.563,1.6825,108.02,132.3
4521.6,21.563,3.6825,112.02,135.3
4531.5,26.563,3.6825,117.02,135.3
4541.4,30.563,5.6825,118.02,134.3
4551.3,32.563,4.6825,119.02,136.3
4561.1,33.563,6.6825,122.02,135.3
4571.0,35.563,5.6825,127.02,137.3
4580.9,33.563,5.6825,129.02,139.3
4590.8,33.563,4.6825,129.02,139.3
4600.7,29.563,3.6825,129.02,139.3
4610.6,28.563,3.6825,131.02,140.3
4620.5,29.563,3.6825,132.02,141.3
4630.3,28.563,2.6825,132.02,140.3
4640.2,28.563,4.6825,134.02,140.3
4650.1,25.563,3.6825,131.02,139.3
4660.0,26.563,3.6825,130.02,139.3
4669.9,24.563,2.6825,128.02,138.3
4679.8,20.563,1.6825,130.02,140.3
4689.7,19.563,1.6825,128.02,138.3
4699.5,18.563,0.68251,127.02,139.3
4709.4,17.563,-0.31749,125.02,139.3
4719.3,18.563,-0.31749,125.02,138.3
4729.2,15.563,-1.3175,125.02,139.3
4739.1,12.563,-3.3175,125.02,139.3
4749.0,10.563,-3.3175,126.02,140.3
4758.9,7.5635,-5.3175,123.02,139.3
4768.7,5.5635,-5.3175,123.02,138.3
4778.6,3.5635,-5.3175,120.02,137.3
4788.5,-0.43653,-7.3175,120.02,138.3
4798.4,-2.4365,-7.3175,121.02,137.3
4808.3,-5.4365,-8.3175,119.02,137.3
4818.2,-7.4365,-8.3175,117.02,136.3
4828.1,-7.4365,-8.3175,118.02,136.3
4837.9,-15.437,-11.317,118.02,136.3
4847.8,-15.437,-11.317,119.02,135.3
4857.7,-23.437,-13.317,115.02,135.3
4867.6,-23.437,-13.317,114.02,136.3
4877.5,-30.437,-16.317,111.02,133.3
4887.4,-30.437,-16.317,109.02,133.3
4897.3,-37.437,-18.317,109.02,133.3
4907.1,-37.437,-18.317,108.02,133.3
4917.0,-44.437,-20.317,108.02,132.3
4926.9,-44.437,-20.317,105.02,131.3
4936.8,-37.437,-14.317,102.02,131.3
4946.7,-37.437,-14.317,98.024,128.3
4956.6,-33.437,-12.317,97.024,128.3
4966.5,-26.437,-8.3175,96.024,129.3
4976.3,-23.437,-10.317,96.024,129.3
4986.2,-20.437,-9.3175,96.024,129.3
4996.1,-16.437,-9.3175,99.024,130.3
5006.0,-10.437,-7.3175,101.02,130.3
5015.9,-4.4365,-6.3175,104.02,129.3
5025.8,1.5635,-4.3175,109.02,130.3
5035.7,5.5635,-3.3175,112.02,132.3
5045.5,10.563,-2.3175,118.02,132.3
5055.4,10.563,-1.3175,119.02,133.3
5065.3,10.563,-1.3175,120.02,133.3
5075.2,10.563,-3.3175,118.02,133.3
5085.1,9.5635,-3.3175,119.02,133.3
5095.0,9.5635,-4.3175,120.02,131.3
5104.9,4.5635,-5.3175,119.02,132.3
5114.7,6.5635,-4.3175,119.02,133.3
5124.6,5.5635,-5.3175,119.02,130.3
5134.5,3.5635,-6.3175,118.02,132.3
5144.4,3.5635,-6.3175,117.02,131.3
5154.3,4.5635,-5.3175,118.02,130.3
5164.2,2.5635,-4.3175,116.02,129.3
5174.1,-1.4365,-7.3175,114.02,129.3
5183.9,-1.4365,-7.3175,113.02,128.3
5193.8,-0.43653,-7.3175,113.02,129.3
5203.7,-0.43653,-6.3175,113.02,129.3
5213.6,-0.43653,-8.3175,116.02,131.3
5223.5,-2.4365,-8.3175,116.02,131.3
5233.4,-3.4365,-8.3175,115.02,129.3
5243.3,-5.4365,-9.3175,115.02,129.3
5253.1,-7.4365,-9.3175,114.02,129.3
5263.0,-9.4365,-11.317,114.02,129.3
5272.9,-10.437,-12.317,112.02,127.3
5282.8,-14.437,-12.317,112.02,127.3
5292.7,-17.437,-12.317,111.02,127.3
5302.6,-18.437,-15.317,111.02,127.3
5312.5,-23.437,-15.317,108.02,127.3
5322.3,-24.437,-15.317,108.02,127.3
5332.2,-27.437,-16.317,106.02,123.3
5342.1,-32.437,-18.317,106.02,123.3
5352.0,-34.437,-18.317,107.02,124.3
5361.9,-38.437,-20.317,107.02,124.3
5371.8,-39.437,-20.317,106.02,125.3
5381.7,-43.437,-21.317,106.02,125.3
5391.5,-46.437,-22.317,102.02,122.3
5401.4,-51.437,-23.317,102.02,122.3
5411.3,-54.437,-25.317,96.024,120.3
5421.2,-56.437,-23.317,96.024,120.3
5431.1,-52.437,-22.317,96.024,120.3
5441.0,-45.437,-18.317,94.024,121.3
5450.9,-41.437,-16.317,95.024,120.3
5460.7,-33.437,-13.317,92.024,119.3
5470.6,-28.437,-12.317,90.024,118.3
5480.5,-25.437,-12.317,89.024,119.3
5490.4,-20.437,-11.317,93.024,119.3
5500.3,-13.437,-9.3175,96.024,121.3
5510.2,-6.4365,-7.3175,101.02,121.3
5520.1,-1.4365,-7.3175,104.02,122.3
5529.9,2.5635,-5.3175,106.02,122.3
5539.8,6.5635,-4.3175,109.02,123.3
5549.7,9.5635,-5.3175,112.02,124.3
5559.6,9.5635,-5.3175,114.02,124.3
5569.5,10.563,-4.3175,116.02,123.3
5579.4,10.563,-4.3175,114.02,123.3
5589.3,10.563,-5.3175,115.02,121.3
5599.1,10.563,-5.3175,118.02,123.3
5609.0,8.5635,-6.3175,117.02,124.3
5618.9,8.5635,-6.3175,117.02,123.3
5628.8,6.5635,-7.3175,116.02,121.3
5638.7,6.5635,-7.3175,113.02,121.3
5648.6,4.5635,-7.3175,112.02,120.3
5658.5,4.5635,-7.3175,113.02,120.3
5668.3,3.5635,-7.3175,112.02,121.3
5678.2,3.5635,-7.3175,111.02,120.3
5688.1,2.5635,-7.3175,112.02,119.3
5698.0,0.56347,-7.3175,109.02,118.3
5707.9,-0.43653,-8.3175,106.02,118.3
5717.8,-3.4365,-9.3175,105.02,117.3
5727.7,-2.4365,-9.3175,105.02,116.3
5737.5,-2.4365,-10.317,104.02,117.3
5747.4,-3.4365,-10.317,105.02,116.3
5757.3,-4.4365,-11.317,106.02,115.3
5767.2,-8.4365,-11.317,104.02,116.3
5777.1,-11.437,-11.317,103.02,116.3
5787.0,-13.437,-12.317,102.02,114.3
5796.9,-16.437,-14.317,101.02,113.3
5806.7,-19.437,-15.317,100.02,114.3
5816.6,-22.437,-15.317,98.024,112.3
5826.5,-25.437,-16.317,97.024,112.3
5836.4,-26.437,-16.317,96.024,112.3
5846.3,-32.437,-17.317,94.024,110.3
5856.2,-37.437,-19.317,94.024,110.3
5866.1,-40.437,-21.317,93.024,109.3
5875.9,-43.437,-20.317,89.024,109.3
5885.8,-45.437,-22.317,89.024,107.3
5895.7,-45.437,-22.317,89.024,108.3
5905.6,-52.437,-24.317,86.024,107.3
5915.5,-55.437,-24.317,86.024,107.3
5925.4,-55.437,-22.317,87.024,108.3
5935.3,-53.437,-21.317,87.024,107.3
5945.1,-50.437,-19.317,87.024,107.3
5955.0,-41.437,-15.317,83.024,105.3
5964.9,-35.437,-12.317,80.024,105.3
5974.8,-30.437,-11.317,83.024,106.3
5984.7,-25.437,-12.317,84.024,107.3
5994.6,-19.437,-10.317,88.024,108.3
6004.5,-14.437,-8.3175,94.024,110.3
6014.3,-8.4365,-8.3175,98.024,111.3
6024.2,-5.4365,-7.3175,103.02,111.3
6034.1,-0.43653,-6.3175,106.02,113.3
6044.0,2.5635,-4.3175,109.02,113.3
6053.9,6.5635,-5.3175,110.02,112.3
6063.8,7.5635,-4.3175,111.02,114.3
6073.7,7.5635,-4.3175,114.02,113.3
6083.5,8.5635,-4.3175,117.02,114.3
6093.4,7.5635,-4.3175,120.02,115.3
6103.3,6.5635,-5.3175,121.02,116.3
6113.2,5.5635,-5.3175,123.02,117.3
6123.1,4.5635,-6.3175,123.02,117.3
6133.0,2.5635,-6.3175,122.02,117.3
6142.9,1.5635,-7.3175,124.02,116.3
6152.7,1.5635,-6.3175,123.02,116.3
6162.6,-0.43653,-6.3175,124.02,117.3
6172.5,-0.43653,-6.3175,122.02,117.3
6182.4,-0.43653,-7.3175,122.02,116.3
6192.3,-1.4365,-8.3175,121.02,116.3
6202.2,-4.4365,-9.3175,123.02,117.3
6212.1,-4.4365,-9.3175,123.02,117.3
6221.9,-5.4365,-9.3175,120.02,116.3
6231.8,-6.4365,-9.3175,120.02,116.3
6241.7,-6.4365,-9.3175,118.02,114.3
6251.6,-8.4365,-9.3175,118.02,114.3
6261.5,-9.4365,-11.317,120.02,115.3
6271.4,-14.437,-12.317,120.02,115.3
6281.2,-15.437,-12.317,117.02,114.3
6291.1,-15.437,-12.317,117.02,114.3
6301.0,-22.437,-14.317,117.02,115.3
6310.9,-22.437,-14.317,117.02,115.3
6320.8,-25.437,-14.317,115.02,114.3
6330.7,-25.437,-14.317,115.02,114.3
6340.6,-32.437,-15.317,116.02,115.3
6350.5,-32.437,-15.317,116.02,115.3
6360.3,-37.437,-17.317,112.02,114.3
6370.2,-37.437,-17.317,112.02,114.3
6380.1,-44.437,-19.317,111.02,113.3
6390.0,-44.437,-19.317,111.02,113.3
6399.9,-49.437,-20.317,110.02,111.3
6409.8,-49.437,-20.317,107.02,112.3
6419.6,-51.437,-20.317,107.02,112.3
6429.5,-49.437,-18.317,106.02,111.3
6439.4,-47.437,-16.317,105.02,108.3
6449.3,-44.437,-15.317,103.02,109.3
6459.2,-40.437,-12.317,102.02,108.3
6469.1,-32.437,-9.3175,102.02,110.3
6479.0,-27.437,-9.3175,100.02,109.3
6488.8,-23.437,-8.3175,103.02,111.3
6498.7,-17.437,-7.3175,108.02,111.3
6508.6,-12.437,-6.3175,110.02,112.3
6518.5,-7.4365,-5.3175,114.02,113.3
6528.4,-2.4365,-3.3175,119.02,113.3
6538.3,1.5635,-2.3175,123.02,115.3
6548.2,6.5635,-0.31749,126.02,116.3
6558.0,10.563,-0.31749,128.02,116.3
6567.9,12.563,-0.31749,132.02,118.3
6577.8,11.563,-0.31749,133.02,118.3
6587.7,13.563,-0.31749,134.02,119.3
6597.6,12.563,-1.3175,137.02,119.3
6607.5,10.563,-1.3175,138.02,119.3
6617.4,10.563,-1.3175,139.02,120.3
6627.2,11.563,-1.3175,138.02,118.3
6637.1,8.5635,-1.3175,137.02,120.3
6647.0,8.5635,-0.31749,138.02,120.3
6656.9,7.5635,-0.31749,139.02,120.3
6666.8,7.5635,-1.3175,140.02,121.3
6676.7,2.5635,-2.3175,141.02,121.3
6686.6,4.5635,-2.3175,140.02,121.3
6696.4,2.5635,-2.3175,141.02,120.3
6706.3,1.5635,-3.3175,138.02,121.3
6716.2,2.5635,-4.3175,137.02,120.3
6726.1,-0.43653,-3.3175,137.02,122.3
6736.0,-0.43653,-4.3175,139.02,122.3
6745.9,-1.4365,-3.3175,137.02,120.3
6755.8,-2.4365,-3.3175,135.02,120.3
6765.6,-5.4365,-4.3175,135.02,120.3
6775.5,-7.4365,-6.3175,133.02,120.3
6785.4,-9.4365,-7.3175,134.02,120.3
6795.3,-12.437,-6.3175,133.02,120.3
6805.2,-14.437,-8.3175,132.02,121.3
6815.1,-17.437,-7.3175,133.02,120.3
6825.0,-20.437,-9.3175,131.02,119.3
6834.8,-24.437,-9.3175,130.02,118.3
6844.7,-26.437,-10.317,130.02,119.3
6854.6,-30.437,-12.317,129.02,119.3
6864.5,-32.437,-13.317,132.02,120.3
6874.4,-36.437,-14.317,132.02,121.3
6884.3,-39.437,-13.317,130.02,120.3
6894.2,-41.437,-15.317,127.02,119.3
6904.0,-45.437,-17.317,124.02,118.3
6913.9,-51.437,-18.317,122.02,116.3
6923.8,-53.437,-18.317,121.02,116.3
6933.7,-52.437,-16.317,123.02,119.3
6943.6,-48.437,-13.317,121.02,118.3
6953.5,-44.437,-10.317,119.02,119.3
6963.4,-39.437,-9.3175,116.02,117.3
6973.2,-32.437,-5.3175,116.02,116.3
6983.1,-27.437,-4.3175,116.02,117.3
6993.0,-22.437,-3.3175,120.02,118.3
7002.9,-22.437,-3.3175,123.02,119.3
7012.8,-12.437,-2.3175,127.02,120.3
7022.7,-12.437,-2.3175,130.02,122.3
7032.6,0.56347,0.68251,132.02,122.3
7042.4,0.56347,0.68251,136.02,123.3
7052.3,11.563,3.6825,139.02,123.3
7062.2,11.563,3.6825,142.02,124.3
7072.1,12.563,4.6825,145.02,125.3
7082.0,12.563,4.6825,150.02,126.3
7091.9,13.563,2.6825,150.02,127.3
7101.8,13.563,2.6825,154.02,128.3
7111.6,10.563,0.68251,157.02,128.3
7121.5,10.563,0.68251,157.02,130.3
7131.4,9.5635,2.6825,159.02,130.3
7141.3,9.5635,2.6825,159.02,130.3
7151.2,9.5635,3.6825,156.02,128.3
7161.1,7.5635,4.6825,156.02,128.3
7171.0,8.5635,2.6825,155.02,129.3
7180.8,5.5635,1.6825,155.02,129.3
7190.7,3.5635,3.6825,155.02,129.3
7200.6,2.5635,0.68251,155.02,129.3
7210.5,2.5635,1.6825,154.02,128.3
7220.4,3.5635,1.6825,154.02,128.3
7230.3,2.5635,2.6825,153.02,129.3
7240.2,-0.43653,1.6825,153.02,129.3
7250.0,-2.4365,1.6825,152.02,128.3
7259.9,-2.4365,0.68251,152.02,128.3
7269.8,-4.4365,-0.31749,150.02,127.3
7279.7,-7.4365,-1.3175,150.02,127.3
7289.6,-9.4365,-1.3175,148.02,127.3
7299.5,-11.437,-1.3175,148.02,127.3
7309.4,-15.437,-3.3175,150.02,127.3
7319.2,-17.437,-3.3175,150.02,127.3
7329.1,-19.437,-5.3175,148.02,127.3
7339.0,-22.437,-5.3175,148.02,127.3
7348.9,-26.437,-6.3175,146.02,126.3
7358.8,-29.437,-7.3175,145.02,125.3
7368.7,-34.437,-7.3175,146.02,125.3
7378.6,-39.437,-9.3175,143.02,125.3
7388.4,-40.437,-9.3175,143.02,123.3
7398.3,-45.437,-12.317,138.02,123.3
7408.2,-49.437,-13.317,135.02,122.3
7418.1,-52.437,-14.317,132.02,119.3
7428.0,-56.437,-15.317,128.02,117.3
7437.9,-61.437,-16.317,126.02,117.3
7447.8,-62.437,-16.317,125.02,115.3
7457.6,-62.437,-14.317,123.02,116.3
7467.5,-57.437,-12.317,122.02,116.3
7477.4,-53.437,-10.317,121.02,115.3
7487.3,-48.437,-8.3175,118.02,114.3
7497.2,-45.437,-8.3175,115.02,113.3
7507.1,-39.437,-6.3175,114.02,114.3
7517.0,-37.437,-6.3175,115.02,113.3
7526.8,-30.437,-4.3175,118.02,113.3
7536.7,-24.437,-3.3175,121.02,114.3
7546.6,-19.437,-2.3175,122.02,113.3
7556.5,-15.437,-1.3175,124.02,113.3
7566.4,-12.437,0.68251,126.02,114.3
7576.3,-9.4365,0.68251,124.02,112.3
7586.2,-8.4365,0.68251,126.02,112.3
7596.0,-8.4365,-0.31749,129.02,111.3
7605.9,-8.4365,-0.31749,129.02,112.3
7615.8,-10.437,-1.3175,127.02,112.3
7625.7,-11.437,-2.3175,127.02,112.3
7635.6,-12.437,-1.3175,126.02,111.3
7645.5,-14.437,-2.3175,126.02,111.3
7655.4,-14.437,-0.31749,125.02,110.3
7665.2,-14.437,-1.3175,124.02,109.3
7675.1,-16.437,-1.3175,120.02,108.3
7685.0,-16.437,-0.31749,117.02,106.3
7694.9,-18.437,-2.3175,115.02,107.3
7704.8,-19.437,-3.3175,112.02,105.3
7714.7,-19.437,-3.3175,112.02,105.3
7724.6,-18.437,-1.3175,110.02,106.3
7734.4,-18.437,-1.3175,111.02,104.3
7744.3,-20.437,-2.3175,106.02,104.3
7754.2,-20.437,-2.3175,104.02,102.3
7764.1,-21.437,-3.3175,102.02,102.3
7774.0,-21.437,-3.3175,101.02,101.3
7783.9,-27.437,-5.3175,101.02,100.3
7793.8,-27.437,-5.3175,99.024,101.3
7803.6,-31.437,-5.3175,98.024,99.298
7813.5,-31.437,-5.3175,96.024,100.3
7823.4,-36.437,-7.3175,94.024,97.298
7833.3,-36.437,-7.3175,91.024,97.298
7843.2,-42.437,-9.3175,88.024,95.298
7853.1,-42.437,-9.3175,88.024,94.298
7863.0,-48.437,-10.317,85.024,93.298
7872.8,-48.437,-10.317,83.024,93.298
7882.7,-52.437,-11.317,84.024,92.298
7892.6,-54.437,-12.317,80.024,92.298
7902.5,-58.437,-13.317,79.024,91.298
7912.4,-62.437,-13.317,75.024,89.298
7922.3,-64.437,-15.317,72.024,89.298
7932.2,-67.437,-16.317,71.024,88.298
7942.0,-71.437,-17.317,70.024,88.298
7951.9,-74.437,-17.317,69.024,87.298
7961.8,-75.437,-16.317,65.024,87.298
7971.7,-71.437,-13.317,63.024,85.298
7981.6,-68.437,-10.317,59.024,84.298
7991.5,-61.437,-8.3175,57.024,83.298
8001.4,-56.437,-6.3175,56.024,82.298
8011.2,-53.437,-4.3175,56.024,83.298
8021.1,-46.437,-5.3175,53.024,82.298
8031.0,-42.437,-4.3175,54.024,82.298
8040.9,-34.437,-2.3175,57.024,81.298
8050.8,-28.437,-0.31749,59.024,81.298
8060.7,-22.437,1.6825,60.024,82.298
8070.6,-15.437,3.6825,64.024,82.298
8080.4,-12.437,4.6825,66.024,81.298
8090.3,-10.437,5.6825,67.024,81.298
8100.2,-9.4365,4.6825,66.024,81.298
8110.1,-8.4365,3.6825,65.024,80.298
8120.0,-8.4365,3.6825,66.024,80.298
8129.9,-10.437,2.6825,68.024,80.298
8139.8,-10.437,0.68251,68.024,81.298
8149.6,-11.437,1.6825,70.024,81.298
8159.5,-10.437,1.6825,70.024,81.298
8169.4,-12.437,1.6825,70.024,81.298
8179.3,-13.437,1.6825,67.024,82.298
8189.2,-11.437,0.68251,67.024,82.298
8199.1,-12.437,1.6825,71.024,82.298
8209.0,-12.437,0.68251,71.024,82.298
8218.8,-13.437,1.6825,66.024,81.298
8228.7,-15.437,0.68251,66.024,81.298
8238.6,-15.437,1.6825,64.024,79.298
8248.5,-16.437,1.6825,64.024,79.298
8258.4,-15.437,1.6825,62.024,79.298
8268.3,-17.437,0.68251,62.024,79.298
8278.2,-16.437,-0.31749,57.024,78.298
8288.0,-18.437,-0.31749,57.024,78.298
8297.9,-19.437,-0.31749,57.024,77.298
8307.8,-22.437,-2.3175,57.024,77.298
8317.7,-25.437,-2.3175,56.024,78.298
8327.6,-28.437,-4.3175,56.024,78.298
8337.5,-31.437,-6.3175,53.024,75.298
8347.4,-33.437,-5.3175,53.024,75.298
8357.2,-34.437,-8.3175,47.024,75.298
8367.1,-40.437,-8.3175,47.024,75.298
8377.0,-42.437,-9.3175,52.024,75.298
8386.9,-45.437,-10.317,52.024,75.298
8396.8,-49.437,-12.317,52.024,76.298
8406.7,-53.437,-13.317,49.024,76.298
8416.6,-56.437,-14.317,46.024,74.298
8426.4,-57.437,-14.317,45.024,74.298
8436.3,-61.437,-15.317,44.024,73.298
8446.2,-66.437,-15.317,45.024,74.298
8456.1,-67.437,-17.317,44.024,75.298
8466.0,-67.437,-17.317,41.024,73.298
8475.9,-64.437,-12.317,36.024,71.298
8485.8,-64.437,-12.317,35.024,70.298
8495.6,-51.437,-7.3175,33.024,71.298
8505.5,-51.437,-7.3175,33.024,70.298
8515.4,-39.437,-4.3175,33.024,70.298
8525.3,-39.437,-4.3175,32.024,72.298
8535.2,-26.437,-3.3175,35.024,71.298
8545.1,-26.437,-3.3175,37.024,71.298
8555.0,-12.437,1.6825,38.024,71.298
8564.8,-12.437,1.6825,43.024,72.298
8574.7,-2.4365,2.6825,46.024,73.298
8584.6,-2.4365,2.6825,53.024,74.298
8594.5,5.5635,4.6825,56.024,76.298
8604.4,5.5635,4.6825,59.024,76.298
8614.3,5.5635,4.6825,57.024,76.298
8624.2,5.5635,4.6825,59.024,76.298
8634.0,5.5635,2.6825,58.024,76.298
8643.9,3.5635,3.6825,61.024,76.298
8653.8,1.5635,1.6825,64.024,76.298
8663.7,1.5635,0.68251,66.024,79.298
8673.6,-0.43653,1.6825,65.024,76.298
8683.5,-0.43653,1.6825,65.024,76.298
8693.4,-2.4365,1.6825,62.024,76.298
8703.2,-1.4365,2.6825,64.024,76.298
8713.1,-2.4365,1.6825,63.024,78.298
8723.0,-4.4365,-0.31749,63.024,79.298
8732.9,-6.4365,-0.31749,59.024,76.298
8742.8,-6.4365,-0.31749,58.024,76.298
8752.7,-5.4365,-0.31749,55.024,76.298
8762.6,-8.4365,-1.3175,57.024,76.298
8772.4,-8.4365,-1.3175,58.024,77.298
8782.3,-9.4365,-2.3175,57.024,76.298
8792.2,-11.437,-1.3175,55.024,75.298
8802.1,-12.437,-3.3175,52.024,75.298
8812.0,-16.437,-5.3175,50.024,74.298
8821.9,-19.437,-6.3175,52.024,74.298
8831.7,-23.437,-7.3175,55.024,74.298
8841.6,-22.437,-7.3175,54.024,74.298
8851.5,-26.437,-9.3175,53.024,74.298
8861.4,-30.437,-9.3175,50.024,73.298
8871.3,-32.437,-10.317,46.024,71.298
8881.2,-36.437,-12.317,43.024,69.298
8891.1,-39.437,-13.317,43.024,69.298
8901.0,-43.437,-14.317,42.024,68.298
8910.8,-46.437,-15.317,40.024,69.298
8920.7,-48.437,-17.317,40.024,69.298
8930.6,-52.437,-18.317,38.024,67.298
8940.5,-55.437,-17.317,38.024,67.298
8950.4,-58.437,-18.317,33.024,66.298
8960.3,-61.437,-21.317,31.024,64.298
8970.1,-63.437,-18.317,29.024,63.298
8980.0,-61.437,-17.317,27.024,61.298
8989.9,-59.437,-15.317,24.024,61.298
8999.8,-54.437,-12.317,23.024,60.298
9009.7,-47.437,-9.3175,21.024,58.298
9019.6,-42.437,-7.3175,21.024,58.298
9029.5,-37.437,-8.3175,23.024,61.298
9039.4,-31.437,-7.3175,26.024,61.298
9049.2,-24.437,-6.3175,32.024,62.298
9059.1,-17.437,-3.3175,39.024,66.298
9069.0,-11.437,-2.3175,39.024,65.298
9078.9,-7.4365,-1.3175,42.024,65.298
9088.8,-5.4365,-0.31749,43.024,65.298
9098.7,1.5635,0.68251,42.024,65.298
9108.5,2.5635,0.68251,44.024,64.298
9118.4,3.5635,1.6825,49.024,65.298
9128.3,3.5635,0.68251,50.024,65.298
9138.2,2.5635,-0.31749,49.024,66.298
9148.1,-0.43653,-1.3175,48.024,65.298
9158.0,0.56347,-2.3175,48.024,65.298
9167.9,-3.4365,-1.3175,48.024,64.298
9177.7,-4.4365,-3.3175,48.024,64.298
9187.6,-7.4365,-3.3175,51.024,64.298
9197.5,-7.4365,-3.3175,51.024,64.298
9207.4,-8.4365,-3.3175,45.024,61.298
9217.3,-8.4365,-3.3175,45.024,61.298
9227.2,-8.4365,-3.3175,43.024,60.298
9237.1,-8.4365,-3.3175,43.024,60.298
9246.9,-10.437,-4.3175,44.024,61.298
9256.8,-10.437,-4.3175,44.024,61.298
9266.7,-14.437,-5.3175,41.024,59.298
9276.6,-14.437,-5.3175,41.024,59.298
9286.5,-17.437,-7.3175,39.024,58.298
9296.4,-17.437,-7.3175,39.024,58.298
9306.3,-21.437,-6.3175,36.024,58.298
9316.1,-21.437,-6.3175,36.024,58.298
9326.0,-25.437,-8.3175,34.024,56.298
9335.9,-25.437,-8.3175,34.024,56.298
9345.8,-28.437,-10.317,32.024,56.298
9355.7,-31.437,-12.317,29.024,55.298
9365.6,-36.437,-12.317,27.024,53.298
9375.5,-38.437,-11.317,27.024,53.298
9385.3,-41.437,-12.317,27.024,51.298
9395.2,-42.437,-13.317,25.024,52.298
9405.1,-44.437,-13.317,22.024,51.298
9415.0,-49.437,-13.317,21.024,49.298
9424.9,-49.437,-14.317,18.024,49.298
9434.8,-51.437,-14.317,17.024,49.298
9444.7,-55.437,-14.317,16.024,48.298
9454.5,-58.437,-15.317,15.024,47.298
9464.4,-61.437,-16.317,11.024,46.298
9474.3,-65.437,-15.317,10.024,45.298
9484.2,-63.437,-13.317,8.0244,46.298
9494.1,-58.437,-12.317,6.0244,44.298
9504.0,-53.437,-8.3175,5.0244,43.298
9513.9,-46.437,-5.3175,3.0244,43.298
9523.7,-41.437,-3.3175,-0.97561,42.298
9533.6,-36.437,-3.3175,-3.9756,41.298
9543.5,-33.437,-3.3175,-2.9756,41.298
9553.4,-26.437,-2.3175,1.0244,41.298
9563.3,-19.437,0.68251,5.0244,42.298
9573.2,-13.437,1.6825,9.0244,43.298
9583.1,-7.4365,2.6825,11.024,43.298
9592.9,-3.4365,4.6825,12.024,43.298
9602.8,0.56347,4.6825,14.024,43.298
9612.7,2.5635,4.6825,14.024,44.298
9622.6,1.5635,2.6825,17.024,45.298
9632.5,1.5635,3.6825,21.024,45.298
9642.4,0.56347,2.6825,23.024,46.298
9652.3,-0.43653,1.6825,19.024,45.298
9662.1,-5.4365,0.68251,20.024,44.298
9672.0,-3.4365,0.68251,18.024,44.298
9681.9,-5.4365,1.6825,19.024,43.298
9691.8,-6.4365,1.6825,19.024,45.298
9701.7,-10.437,0.68251,19.024,45.298
9711.6,-11.437,-0.31749,19.024,46.298
9721.5,-12.437,-1.3175,19.024,44.298
9731.3,-14.437,-2.3175,17.024,44.298
9741.2,-17.437,-2.3175,17.024,43.298
9751.1,-17.437,-3.3175,15.024,44.298
9761.0,-16.437,-3.3175,15.024,44.298
9770.9,-17.437,-3.3175,13.024,44.298
9780.8,-17.437,-3.3175,11.024,42.298
9790.7,-18.437,-3.3175,8.0244,42.298
9800.5,-21.437,-4.3175,9.0244,42.298
9810.4,-23.437,-5.3175,7.0244,42.298
9820.3,-25.437,-5.3175,6.0244,42.298
9830.2,-28.437,-7.3175,4.0244,40.298
9840.1,-30.437,-7.3175,4.0244,39.298
9850.0,-31.437,-7.3175,0.024387,39.298
9859.9,-33.437,-8.3175,-0.97561,37.298
9869.7,-36.437,-7.3175,-2.9756,37.298
9879.6,-38.437,-8.3175,-3.9756,35.298
9889.5,-42.437,-10.317,-7.9756,35.298
9899.4,-46.437,-10.317,-7.9756,35.298
9909.3,-49.437,-11.317,-7.9756,34.298
9919.2,-52.437,-13.317,-7.9756,34.298
9929.1,-52.437,-13.317,-10.976,33.298
9938.9,-59.437,-14.317,-14.976,33.298
9948.8,-59.437,-14.317,-17.976,30.298
9958.7,-66.437,-16.317,-19.976,29.298
9968.6,-66.437,-16.317,-19.976,29.298
9978.5,-70.437,-16.317,-20.976,29.298
9988.4,-70.437,-16.317,-21.976,27.298
9998.3,-64.437,-10.317,-25.976,28.298
10008.0,-64.437,-10.317,-27.976,26.298
10018.0,-51.437,-5.3175,-29.976,26.298
10028.0,-51.437,-5.3175,-32.976,25.298
10038.0,-43.437,-4.3175,-32.976,26.298
10048.0,-43.437,-4.3175,-29.976,27.298
10058.0,-30.437,-1.3175,-25.976,28.298
10068.0,-30.437,-1.3175,-21.976,29.298
10077.0,-20.437,0.68251,-16.976,31.298
10087.0,-16.437,2.6825,-15.976,30.298
10097.0,-10.437,3.6825,-13.976,30.298
10107.0,-7.4365,3.6825,-13.976,30.298
10117.0,-5.4365,4.6825,-9.9756,31.298
10127.0,-5.4365,2.6825,-9.9756,31.298
10137.0,-5.4365,4.6825,-4.9756,34.298
10147.0,-4.4365,4.6825,-4.9756,34.298
10156.0,-7.4365,3.6825,-0.97561,35.298
10166.0,-8.4365,2.6825,-0.97561,35.298
10176.0,-8.4365,2.6825,-3.9756,34.298
10186.0,-10.437,3.6825,-3.9756,34.298
10196.0,-9.4365,3.6825,-2.9756,34.298
10206.0,-12.437,2.6825,-2.9756,34.298
10216.0,-13.437,2.6825,-2.9756,34.298
10226.0,-14.437,1.6825,-2.9756,34.298
10236.0,-20.437,-1.3175,-5.9756,34.298
10245.0,-18.437,0.68251,-5.9756,34.298
10255.0,-19.437,-0.31749,-8.9756,32.298
10265.0,-21.437,-0.31749,-8.9756,32.298
10275.0,-20.437,-0.31749,-9.9756,34.298
10285.0,-21.437,-0.31749,-9.9756,34.298
10295.0,-22.437,-1.3175,-10.976,32.298
10305.0,-25.437,-2.3175,-12.976,33.298
10315.0,-27.437,-4.3175,-10.976,33.298
10325.0,-29.437,-4.3175,-14.976,33.298
10334.0,-31.437,-4.3175,-15.976,30.298
10344.0,-33.437,-6.3175,-17.976,29.298
10354.0,-35.437,-6.3175,-18.976,29.298
10364.0,-39.437,-7.3175,-16.976,30.298
10374.0,-41.437,-8.3175,-17.976,29.298
10384.0,-43.437,-9.3175,-17.976,31.298
10394.0,-47.437,-9.3175,-19.976,30.298
10404.0,-49.437,-10.317,-21.976,29.298
10414.0,-54.437,-12.317,-22.976,29.298
10423.0,-56.437,-12.317,-21.976,29.298
10433.0,-60.437,-13.317,-20.976,29.298
10443.0,-62.437,-15.317,-24.976,28.298
10453.0,-65.437,-16.317,-26.976,26.298
10463.0,-68.437,-16.317,-31.976,26.298
10473.0,-73.437,-18.317,-34.976,25.298
10483.0,-76.437,-18.317,-34.976,24.298
10493.0,-73.437,-15.317,-35.976,24.298
10502.0,-67.437,-11.317,-34.976,24.298
10512.0,-62.437,-9.3175,-38.976,23.298
10522.0,-56.437,-4.3175,-42.976,21.298
10532.0,-48.437,-3.3175,-45.976,22.298
10542.0,-44.437,-3.3175,-44.976,21.298
10552.0,-38.437,-2.3175,-43.976,22.298
10562.0,-29.437,0.68251,-39.976,22.298
10572.0,-19.437,1.6825,-35.976,25.298
10582.0,-13.437,3.6825,-32.976,24.298
10591.0,-8.4365,5.6825,-29.976,25.298
10601.0,-3.4365,6.6825,-27.976,26.298
10611.0,-0.43653,5.6825,-24.976,25.298
10621.0,0.56347,6.6825,-23.976,25.298
10631.0,0.56347,6.6825,-20.976,28.298
10641.0,1.5635,5.6825,-16.976,28.298
10651.0,-0.43653,5.6825,-15.976,29.298
10661.0,-0.43653,5.6825,-15.976,29.298
10671.0,-4.4365,4.6825,-15.976,29.298
10680.0,-4.4365,4.6825,-17.976,26.298
10690.0,-1.4365,5.6825,-17.976,26.298
10700.0,-1.4365,5.6825,-17.976,26.298
10710.0,-5.4365,3.6825,-18.976,27.298
10720.0,-5.4365,3.6825,-18.976,28.298
10730.0,-8.4365,3.6825,-19.976,27.298
10740.0,-8.4365,3.6825,-19.976,26.298
10750.0,-9.4365,2.6825,-22.976,26.298
10760.0,-9.4365,2.6825,-23.976,26.298
10769.0,-10.437,2.6825,-21.976,25.298
10779.0,-10.437,2.6825,-24.976,26.298
10789.0,-12.437,1.6825,-26.976,26.298
10799.0,-12.437,1.6825,-27.976,25.298
10809.0,-13.437,1.6825,-29.976,25.298
10819.0,-13.437,-0.31749,-29.976,24.298
10829.0,-15.437,-1.3175,-30.976,23.298
10839.0,-18.437,-1.3175,-31.976,23.298
10848.0,-21.437,-2.3175,-30.976,24.298
10858.0,-23.437,-4.3175,-32.976,24.298
10868.0,-27.437,-4.3175,-32.976,23.298
10878.0,-31.437,-5.3175,-34.976,23.298
10888.0,-33.437,-6.3175,-34.976,22.298
10898.0,-36.437,-8.3175,-34.976,22.298
10908.0,-39.437,-9.3175,-35.976,22.298
10918.0,-43.437,-10.317,-39.976,21.298
10928.0,-47.437,-11.317,-39.976,20.298
10937.0,-49.437,-13.317,-40.976,19.298
10947.0,-53.437,-13.317,-41.976,19.298
10957.0,-56.437,-13.317,-42.976,18.298
10967.0,-57.437,-15.317,-45.976,18.298
10977.0,-63.437,-17.317,-47.976,17.298
10987.0,-65.437,-15.317,-46.976,18.298
10997.0,-64.437,-13.317,-46.976,18.298
11007.0,-59.437,-12.317,-48.976,18.298
11017.0,-55.437,-8.3175,-51.976,17.298
11026.0,-47.437,-5.3175,-55.976,16.298
11036.0,-41.437,-4.3175,-56.976,16.298
11046.0,-35.437,-2.3175,-55.976,16.298
11056.0,-29.437,-2.3175,-51.976,17.298
11066.0,-22.437,-1.3175,-47.976,18.298
11076.0,-14.437,1.6825,-41.976,19.298
11086.0,-6.4365,3.6825,-40.976,21.298
11096.0,-1.4365,3.6825,-35.976,20.298
11106.0,3.5635,6.6825,-33.976,21.298
11115.0,9.5635,5.6825,-29.976,22.298
11125.0,8.5635,7.6825,-27.976,23.298
11135.0,11.563,5.6825,-27.976,23.298
11145.0,10.563,5.6825,-21.976,24.298
11155.0,11.563,6.6825,-21.976,24.298
11165.0,9.5635,4.6825,-24.976,23.298
11175.0,5.5635,2.6825,-24.976,23.298
11185.0,5.5635,2.6825,-23.976,21.298
11194.0,6.5635,2.6825,-23.976,21.298
11204.0,3.5635,3.6825,-23.976,24.298
11214.0,3.5635,2.6825,-23.976,24.298
11224.0,3.5635,3.6825,-24.976,23.298
11234.0,3.5635,3.6825,-24.976,23.298
11244.0,2.5635,1.6825,-25.976,24.298
11254.0,-0.43653,0.68251,-25.976,24.298
11264.0,-0.43653,-0.31749,-27.976,22.298
11274.0,-2.4365,-0.31749,-27.976,22.298
11283.0,-2.4365,-0.31749,-25.976,23.298
11293.0,-2.4365,0.68251,-25.976,23.298
11303.0,-5.4365,-1.3175,-29.976,23.298
11313.0,-6.4365,-2.3175,-29.976,23.298
11323.0,-8.4365,-2.3175,-27.976,24.298
11333.0,-10.437,-3.3175,-27.976,24.298
11343.0,-12.437,-3.3175,-28.976,24.298
11353.0,-15.437,-5.3175,-27.976,25.298
11363.0,-17.437,-7.3175,-29.976,24.298
11372.0,-21.437,-8.3175,-29.976,24.298
11382.0,-22.437,-9.3175,-31.976,22.298
11392.0,-22.437,-9.3175,-31.976,24.298
11402.0,-29.437,-10.317,-29.976,24.298
11412.0,-29.437,-10.317,-30.976,24.298
11422.0,-35.437,-13.317,-30.976,24.298
11432.0,-35.437,-13.317,-28.976,24.298
11442.0,-42.437,-15.317,-29.976,25.298
11452.0,-42.437,-15.317,-30.976,26.298
11461.0,-50.437,-18.317,-28.976,26.298
11471.0,-50.437,-18.317,-32.976,25.298
11481.0,-59.437,-20.317,-34.976,23.298
11491.0,-59.437,-20.317,-31.976,25.298
11501.0,-56.437,-16.317,-31.976,27.298
11511.0,-56.437,-16.317,-30.976,26.298
11521.0,-44.437,-10.317,-32.976,25.298
11531.0,-44.437,-10.317,-34.976,24.298
11540.0,-37.437,-8.3175,-38.976,23.298
11550.0,-29.437,-6.3175,-36.976,25.298
11560.0,-23.437,-6.3175,-35.976,27.298
11570.0,-17.437,-4.3175,-29.976,28.298
11580.0,-11.437,-3.3175,-27.976,28.298
11590.0,-4.4365,-2.3175,-22.976,29.298
11600.0,2.5635,-0.31749,-18.976,30.298
11610.0,6.5635,0.68251,-15.976,30.298
11620.0,11.563,2.6825,-13.976,32.298
11629.0,13.563,2.6825,-8.9756,35.298
11639.0,13.563,2.6825,-5.9756,34.298
11649.0,15.563,1.6825,-3.9756,35.298
11659.0,13.563,0.68251,-2.9756,34.298
11669.0,13.563,0.68251,-0.97561,35.298
11679.0,12.563,-0.31749,-0.97561,36.298
11689.0,13.563,-0.31749,3.0244,39.298
11699.0,11.563,-1.3175,6.0244,39.298
11709.0,9.5635,-1.3175,5.0244,38.298
11718.0,9.5635,-2.3175,2.0244,39.298
11728.0,9.5635,-0.31749,4.0244,38.298
11738.0,6.5635,-2.3175,4.0244,39.298
11748.0,6.5635,-3.3175,4.0244,38.298
11758.0,5.5635,-4.3175,5.0244,39.298
11768.0,5.5635,-3.3175,2.0244,38.298
11778.0,3.5635,-4.3175,2.0244,38.298
11788.0,4.5635,-4.3175,-0.97561,37.298
11797.0,2.5635,-5.3175,0.024387,37.298
11807.0,1.5635,-5.3175,-0.97561,37.298
11817.0,1.5635,-6.3175,3.0244,38.298
11827.0,-1.4365,-7.3175,0.024387,39.298
11837.0,-4.4365,-8.3175,1.0244,39.298
11847.0,-6.4365,-10.317,-0.97561,38.298
11857.0,-8.4365,-9.3175,-2.9756,37.298
11867.0,-9.4365,-11.317,0.024387,38.298
11877.0,-13.437,-12.317,-1.9756,38.298
11886.0,-14.437,-12.317,-1.9756,38.298
11896.0,-18.437,-12.317,-0.97561,38.298
11906.0,-19.437,-14.317,-0.97561,38.298
11916.0,-23.437,-13.317,-2.9756,38.298
11926.0,-25.437,-16.317,-4.9756,37.298
11936.0,-29.437,-16.317,-2.9756,37.298
11946.0,-31.437,-16.317,-2.9756,36.298
11956.0,-34.437,-16.317,-2.9756,38.298
11966.0,-34.437,-16.317,-1.9756,37.298
11975.0,-37.437,-17.317,-5.9756,37.298
11985.0,-41.437,-17.317,-8.9756,35.298
11995.0,-41.437,-19.317,-11.976,34.298
12005.0,-39.437,-16.317,-12.976,35.298
12015.0,-38.437,-14.317,-11.976,35.298
12025.0,-30.437,-10.317,-12.976,34.298
12035.0,-23.437,-7.3175,-12.976,35.298
12045.0,-15.437,-5.3175,-13.976,34.298
12055.0,-10.437,-5.3175,-12.976,33.298
12064.0,-6.4365,-4.3175,-11.976,34.298
12074.0,-1.4365,-4.3175,-8.9756,35.298
12084.0,7.5635,-3.3175,-3.9756,35.298
12094.0,12.563,-2.3175,2.0244,37.298
12104.0,18.563,-0.31749,5.0244,38.298
12114.0,23.563,0.68251,9.0244,40.298
12124.0,23.563,0.68251,9.0244,40.298
12134.0,27.563,1.6825,15.024,41.298
12143.0,27.563,1.6825,15.024,41.298
12153.0,27.563,0.68251,18.024,41.298
12163.0,27.563,0.68251,18.024,41.298
12173.0,26.563,-0.31749,22.024,42.298
12183.0,26.563,-0.31749,22.024,42.298
12193.0,25.563,-0.31749,25.024,45.298
12203.0,25.563,-0.31749,25.024,45.298
12213.0,25.563,-1.3175,24.024,43.298
12223.0,25.563,-1.3175,24.024,43.298
12232.0,25.563,0.68251,21.024,42.298
12242.0,25.563,0.68251,21.024,42.298
12252.0,21.563,-1.3175,26.024,43.298
12262.0,21.563,-1.3175,26.024,43.298
12272.0,20.563,-2.3175,23.024,44.298
12282.0,21.563,-2.3175,23.024,44.298
12292.0,21.563,-1.3175,20.024,43.298
12302.0,20.563,-2.3175,21.024,43.298
12312.0,17.563,-3.3175,19.024,42.298
12321.0,15.563,-4.3175,19.024,42.298
12331.0,15.563,-4.3175,20.024,42.298
12341.0,14.563,-5.3175,20.024,43.298
12351.0,11.563,-6.3175,19.024,42.298
12361.0,9.5635,-7.3175,19.024,43.298
12371.0,6.5635,-8.3175,19.024,43.298
12381.0,5.5635,-8.3175,20.024,43.298
12391.0,1.5635,-8.3175,19.024,42.298
12401.0,-0.43653,-10.317,18.024,42.298
12410.0,-5.4365,-12.317,17.024,42.298
12420.0,-6.4365,-12.317,16.024,41.298
12430.0,-12.437,-13.317,16.024,42.298
12440.0,-15.437,-15.317,19.024,42.298
12450.0,-18.437,-16.317,18.024,42.298
12460.0,-20.437,-17.317,16.024,42.298
12470.0,-22.437,-16.317,14.024,41.298
12480.0,-26.437,-17.317,13.024,40.298
12489.0,-32.437,-19.317,12.024,40.298
12499.0,-33.437,-20.317,12.024,41.298
12509.0,-31.437,-18.317,13.024,40.298
12519.0,-30.437,-15.317,14.024,40.298
12529.0,-26.437,-13.317,13.024,41.298
12539.0,-16.437,-9.3175,11.024,39.298
12549.0,-11.437,-6.3175,10.024,39.298
12559.0,-7.4365,-5.3175,8.0244,40.298
12569.0,-2.4365,-5.3175,10.024,40.298
12578.0,2.5635,-6.3175,11.024,41.298
12588.0,10.563,-3.3175,18.024,42.298
12598.0,18.563,-1.3175,21.024,42.298
12608.0,24.563,0.68251,24.024,43.298
12618.0,29.563,1.6825,27.024,44.298
12628.0,30.563,2.6825,28.024,45.298
12638.0,32.563,1.6825,32.024,45.298
12648.0,34.563,1.6825,36.024,45.298
12658.0,33.563,1.6825,38.024,44.298
12667.0,33.563,0.68251,38.024,47.298
12677.0,29.563,-1.3175,41.024,47.298
12687.0,28.563,-1.3175,43.024,47.298
12697.0,29.563,-1.3175,43.024,48.298
12707.0,28.563,-2.3175,43.024,46.298
12717.0,27.563,-1.3175,45.024,46.298
12727.0,26.563,-1.3175,41.024,46.298
12737.0,27.563,-0.31749,41.024,46.298
12747.0,25.563,-2.3175,39.024,46.298
12756.0,22.563,-2.3175,39.024,46.298
12766.0,21.563,-3.3175,39.024,46.298
12776.0,20.563,-3.3175,38.024,46.298
12786.0,20.563,-2.3175,39.024,45.298
12796.0,19.563,-3.3175,38.024,46.298
12806.0,19.563,-4.3175,36.024,45.298
12816.0,16.563,-5.3175,37.024,45.298
12826.0,14.563,-5.3175,35.024,44.298
12835.0,11.563,-6.3175,34.024,44.298
12845.0,8.5635,-7.3175,34.024,43.298
12855.0,8.5635,-7.3175,32.024,44.298
12865.0,4.5635,-8.3175,31.024,43.298
12875.0,4.5635,-8.3175,29.024,41.298
12885.0,1.5635,-10.317,27.024,42.298
12895.0,1.5635,-10.317,27.024,40.298
12905.0,-4.4365,-10.317,27.024,42.298
12915.0,-4.4365,-10.317,26.024,41.298
12924.0,-11.437,-12.317,23.024,41.298
12934.0,-11.437,-12.317,24.024,40.298
12944.0,-19.437,-15.317,23.024,39.298
12954.0,-19.437,-15.317,22.024,40.298
12964.0,-23.437,-16.317,20.024,39.298
12974.0,-23.437,-16.317,18.024,37.298
12984.0,-31.437,-18.317,14.024,37.298
12994.0,-31.437,-18.317,15.024,35.298
13004.0,-34.437,-20.317,13.024,35.298
13013.0,-36.437,-19.317,10.024,34.298
13023.0,-32.437,-17.317,9.0244,34.298
13033.0,-28.437,-15.317,4.0244,31.298
13043.0,-23.437,-12.317,1.0244,31.298
13053.0,-15.437,-9.3175,1.0244,31.298
13063.0,-10.437,-7.3175,-0.97561,31.298
13073.0,-5.4365,-7.3175,-0.97561,31.298
13083.0,-1.4365,-7.3175,5.0244,31.298
13093.0,6.5635,-4.3175,5.0244,31.298
13102.0,12.563,-2.3175,12.024,32.298
13112.0,19.563,-1.3175,12.024,32.298
13122.0,25.563,0.68251,17.024,34.298
13132.0,25.563,0.68251,17.024,34.298
13142.0,29.563,0.68251,21.024,37.298
13152.0,31.563,0.68251,21.024,37.298
13162.0,28.563,0.68251,21.024,34.298
13172.0,30.563,0.68251,21.024,34.298
13181.0,29.563,-0.31749,24.024,35.298
13191.0,27.563,-0.31749,24.024,35.298
13201.0,26.563,-2.3175,21.024,33.298
13211.0,28.563,-1.3175,21.024,33.298
13221.0,27.563,-1.3175,19.024,32.298
13231.0,26.563,-1.3175,19.024,32.298
13241.0,24.563,-2.3175,21.024,32.298
13251.0,24.563,-2.3175,20.024,31.298
13261.0,22.563,-2.3175,19.024,31.298
13270.0,19.563,-4.3175,18.024,31.298
13280.0,18.563,-4.3175,17.024,32.298
13290.0,18.563,-3.3175,16.024,32.298
13300.0,20.563,-4.3175,13.024,31.298
13310.0,20.563,-5.3175,12.024,30.298
13320.0,16.563,-5.3175,9.0244,28.298
13330.0,16.563,-6.3175,8.0244,28.298
13340.0,13.563,-7.3175,8.0244,27.298
13350.0,13.563,-8.3175,7.0244,27.298
13359.0,10.563,-9.3175,5.0244,26.298
13369.0,8.5635,-8.3175,4.0244,26.298
13379.0,7.5635,-9.3175,6.0244,25.298
13389.0,3.5635,-11.317,5.0244,26.298
13399.0,1.5635,-11.317,2.0244,25.298
13409.0,-2.4365,-12.317,0.024387,24.298
13419.0,-3.4365,-13.317,0.024387,24.298
13429.0,-8.4365,-14.317,-1.9756,24.298
13439.0,-10.437,-15.317,-2.9756,23.298
13448.0,-14.437,-15.317,-2.9756,23.298
13458.0,-15.437,-17.317,-4.9756,24.298
13468.0,-18.437,-16.317,-5.9756,21.298
13478.0,-21.437,-17.317,-8.9756,20.298
13488.0,-23.437,-17.317,-9.9756,20.298
13498.0,-28.437,-20.317,-11.976,19.298
13508.0,-32.437,-21.317,-11.976,19.298
13518.0,-29.437,-19.317,-14.976,19.298
13527.0,-28.437,-17.317,-13.976,18.298
13537.0,-24.437,-14.317,-17.976,18.298
13547.0,-15.437,-11.317,-19.976,17.298
13557.0,-6.4365,-7.3175,-22.976,15.298
13567.0,0.56347,-7.3175,-22.976,16.298
13577.0,3.5635,-7.3175,-20.976,16.298
13587.0,3.5635,-7.3175,-18.976,16.298
13597.0,18.563,-3.3175,-15.976,16.298
13607.0,18.563,-3.3175,-8.9756,17.298
13616.0,31.563,-0.31749,-9.9756,18.298
13626.0,31.563,-0.31749,-4.9756,19.298
13636.0,40.563,2.6825,-2.9756,20.298
13646.0,40.563,2.6825,0.024387,20.298
13656.0,44.563,2.6825,4.0244,21.298
13666.0,44.563,2.6825,5.0244,21.298
13676.0,44.563,1.6825,7.0244,21.298
13686.0,44.563,1.6825,7.0244,22.298
13696.0,41.563,-0.31749,7.0244,21.298
13705.0,41.563,-0.31749,8.0244,22.298
13715.0,40.563,-1.3175,8.0244,20.298
13725.0,40.563,-1.3175,10.024,22.298
13735.0,41.563,-1.3175,9.0244,21.298
13745.0,38.563,-1.3175,7.0244,20.298
13755.0,37.563,0.68251,8.0244,21.298
13765.0,38.563,-2.3175,9.0244,21.298
13775.0,35.563,-2.3175,5.0244,21.298
13785.0,36.563,-2.3175,3.0244,20.298
13794.0,35.563,-1.3175,2.0244,18.298
13804.0,35.563,-2.3175,3.0244,20.298
13814.0,37.563,-0.31749,1.0244,19.298
13824.0,35.563,-2.3175,1.0244,19.298
13834.0,33.563,-3.3175,0.024387,18.298
13844.0,34.563,-4.3175,1.0244,18.298
13854.0,29.563,-5.3175,1.0244,18.298
13864.0,26.563,-6.3175,1.0244,18.298
13873.0,26.563,-6.3175,0.024387,19.298
13883.0,23.563,-7.3175,-0.97561,18.298
13893.0,21.563,-8.3175,-0.97561,17.298
13903.0,19.563,-8.3175,2.0244,19.298
13913.0,15.563,-10.317,1.0244,19.298
13923.0,13.563,-11.317,1.0244,18.298
13933.0,10.563,-12.317,0.024387,19.298
13943.0,6.5635,-13.317,0.024387,17.298
13953.0,5.5635,-14.317,-3.9756,17.298
13962.0,0.56347,-15.317,-3.9756,16.298
13972.0,-0.43653,-15.317,-3.9756,16.298
13982.0,-4.4365,-16.317,-4.9756,16.298
13992.0,-8.4365,-17.317,-7.9756,15.298
14002.0,-12.437,-19.317,-8.9756,15.298
14012.0,-15.437,-20.317,-10.976,15.298
14022.0,-15.437,-19.317,-7.9756,15.298
14032.0,-12.437,-18.317,-10.976,15.298
14042.0,-10.437,-15.317,-10.976,14.298
14051.0,-2.4365,-12.317,-12.976,15.298
14061.0,5.5635,-9.3175,-15.976,14.298
14071.0,12.563,-7.3175,-12.976,15.298
14081.0,15.563,-7.3175,-10.976,16.298
14091.0,22.563,-6.3175,-7.9756,16.298
14101.0,29.563,-4.3175,-4.9756,17.298
14111.0,36.563,-4.3175,0.024387,18.298
14121.0,41.563,-2.3175,0.024387,18.298
14131.0,46.563,-1.3175,12.024,21.298
14140.0,48.563,-0.31749,12.024,21.298
14150.0,53.563,-0.31749,15.024,21.298
14160.0,55.563,0.68251,15.024,21.298
14170.0,52.563,1.6825,21.024,23.298
14180.0,53.563,-0.31749,21.024,23.298
14190.0,52.563,-1.3175,25.024,25.298
14200.0,54.563,-1.3175,25.024,25.298
14210.0,51.563,-1.3175,26.024,25.298
14219.0,52.563,-1.3175,26.024,25.298
14229.0,52.563,-3.3175,27.024,26.298
14239.0,49.563,-3.3175,27.024,26.298
14249.0,49.563,-4.3175,29.024,26.298
14259.0,48.563,-4.3175,29.024,26.298
14269.0,46.563,-5.3175,29.024,27.298
14279.0,45.563,-6.3175,29.024,27.298
14289.0,46.563,-5.3175,27.024,25.298
14299.0,44.563,-5.3175,27.024,25.298
14308.0,45.563,-5.3175,23.024,25.298
14318.0,45.563,-5.3175,27.024,26.298
14328.0,45.563,-4.3175,27.024,24.298
14338.0,45.563,-4.3175,27.024,24.298
14348.0,42.563,-5.3175,24.024,24.298
14358.0,42.563,-5.3175,24.024,23.298
14368.0,37.563,-7.3175,24.024,23.298
14378.0,37.563,-7.3175,25.024,24.298
14388.0,34.563,-7.3175,24.024,22.298
14397.0,34.563,-7.3175,25.024,23.298
14407.0,27.563,-10.317,24.024,24.298
14417.0,27.563,-10.317,23.024,25.298
14427.0,23.563,-12.317,24.024,24.298
14437.0,23.563,-12.317,22.024,23.298
14447.0,16.563,-15.317,22.024,24.298
14457.0,16.563,-15.317,21.024,23.298
14467.0,9.5635,-15.317,20.024,24.298
14477.0,7.5635,-16.317,19.024,22.298
14486.0,7.5635,-17.317,16.024,22.298
14496.0,3.5635,-18.317,16.024,21.298
14506.0,0.56347,-19.317,16.024,21.298
14516.0,-4.4365,-20.317,15.024,20.298
14526.0,-4.4365,-19.317,14.024,20.298
14536.0,-3.4365,-19.317,14.024,20.298
14546.0,0.56347,-16.317,13.024,20.298
14556.0,4.5635,-13.317,10.024,19.298
14565.0,12.563,-10.317,9.0244,19.298
14575.0,19.563,-9.3175,11.024,19.298
14585.0,25.563,-7.3175,11.024,19.298
14595.0,28.563,-7.3175,14.024,20.298
14605.0,37.563,-6.3175,18.024,20.298
14615.0,42.563,-5.3175,19.024,23.298
14625.0,49.563,-3.3175,23.024,22.298
14635.0,53.563,-1.3175,28.024,24.298
14645.0,58.563,-1.3175,33.024,24.298
14654.0,60.563,-0.31749,35.024,26.298
14664.0,62.563,-0.31749,38.024,25.298
14674.0,64.563,0.68251,41.024,27.298
14684.0,63.563,0.68251,43.024,27.298
14694.0,62.563,-0.31749,43.024,28.298
14704.0,60.563,-1.3175,46.024,29.298
14714.0,62.563,-2.3175,49.024,29.298
14724.0,61.563,-1.3175,52.024,30.298
14734.0,61.563,-2.3175,53.024,30.298
14743.0,59.563,-1.3175,53.024,31.298
14753.0,59.563,-1.3175,51.024,30.298
14763.0,58.563,-2.3175,51.024,31.298
14773.0,57.563,-4.3175,51.024,30.298
14783.0,55.563,-4.3175,50.024,31.298
14793.0,57.563,-3.3175,51.024,32.298
14803.0,55.563,-3.3175,53.024,32.298
14813.0,53.563,-4.3175,53.024,31.298
14823.0,52.563,-4.3175,50.024,31.298
14832.0,55.563,-4.3175,49.024,31.298
14842.0,51.563,-5.3175,51.024,32.298
14852.0,50.563,-6.3175,50.024,32.298
14862.0,49.563,-7.3175,51.024,31.298
14872.0,45.563,-8.3175,50.024,30.298
14882.0,44.563,-8.3175,50.024,30.298
14892.0,40.563,-8.3175,46.024,29.298
14902.0,36.563,-12.317,45.024,28.298
14911.0,34.563,-11.317,44.024,28.298
14921.0,31.563,-13.317,45.024,29.298
14931.0,27.563,-13.317,46.024,30.298
14941.0,24.563,-14.317,45.024,29.298
14951.0,20.563,-16.317,45.024,29.298
14961.0,17.563,-16.317,46.024,30.298
14971.0,15.563,-19.317,44.024,29.298
14981.0,12.563,-18.317,46.024,30.298
14991.0,10.563,-19.317,45.024,29.298
15000.0,6.5635,-20.317,43.024,29.298
15010.0,3.5635,-21.317,42.024,29.298
15020.0,-0.43653,-21.317,40.024,29.298
15030.0,0.56347,-19.317,38.024,28.298
15040.0,3.5635,-17.317,37.024,27.298
15050.0,3.5635,-17.317,37.024,27.298
15060.0,13.563,-12.317,32.024,26.298
15070.0,13.563,-12.317,32.024,26.298
15080.0,27.563,-10.317,34.024,27.298
15089.0,27.563,-10.317,34.024,27.298
15099.0,35.563,-8.3175,40.024,29.298
15109.0,35.563,-8.3175,40.024,29.298
15119.0,49.563,-5.3175,53.024,32.298
15129.0,49.563,-5.3175,53.024,32.298
15139.0,60.563,-2.3175,61.024,33.298
15149.0,60.563,-2.3175,61.024,33.298
15159.0,65.563,-0.31749,69.024,35.298
15169.0,65.563,-0.31749,69.024,35.298
15178.0,68.563,-2.3175,75.024,37.298
15188.0,68.563,-2.3175,75.024,37.298
15198.0,66.563,-2.3175,79.024,39.298
15208.0,68.563,-3.3175,79.024,39.298
15218.0,65.563,-3.3175,77.024,38.298
15228.0,65.563,-3.3175,77.024,38.298
15238.0,63.563,-3.3175,77.024,38.298
15248.0,62.563,-4.3175,77.024,39.298
15257.0,60.563,-4.3175,79.024,39.298
15267.0,59.563,-3.3175,79.024,40.298
15277.0,58.563,-5.3175,78.024,40.298
15287.0,59.563,-4.3175,77.024,38.298
15297.0,55.563,-6.3175,76.024,38.298
15307.0,54.563,-6.3175,77.024,38.298
15317.0,52.563,-6.3175,75.024,37.298
15327.0,52.563,-6.3175,74.024,38.298
15337.0,53.563,-6.3175,76.024,39.298
15346.0,51.563,-6.3175,73.024,39.298
15356.0,48.563,-7.3175,71.024,37.298
15366.0,46.563,-7.3175,71.024,37.298
15376.0,43.563,-9.3175,71.024,37.298
15386.0,42.563,-10.317,72.024,38.298
15396.0,39.563,-11.317,71.024,36.298
15406.0,37.563,-11.317,71.024,37.298
15416.0,35.563,-11.317,70.024,37.298
15426.0,30.563,-12.317,70.024,37.298
15435.0,30.563,-13.317,71.024,37.298
15445.0,24.563,-14.317,72.024,36.298
15455.0,21.563,-15.317,69.024,36.298
15465.0,16.563,-17.317,70.024,36.298
15475.0,13.563,-18.317,68.024,36.298
15485.0,10.563,-18.317,66.024,36.298
15495.0,8.5635,-19.317,68.024,35.298
15505.0,5.5635,-20.317,67.024,35.298
15515.0,0.56347,-21.317,63.024,34.298
15524.0,-3.4365,-22.317,62.024,34.298
15534.0,-8.4365,-23.317,57.024,32.298
15544.0,-7.4365,-23.317,57.024,32.298
15554.0,-7.4365,-22.317,55.024,31.298
15564.0,-2.4365,-19.317,55.024,29.298
15574.0,2.5635,-16.317,53.024,29.298
15584.0,10.563,-12.317,53.024,29.298
15594.0,15.563,-12.317,51.024,30.298
15603.0,19.563,-12.317,51.024,30.298
15613.0,24.563,-11.317,55.024,30.298
15623.0,31.563,-9.3175,56.024,31.298
15633.0,37.563,-8.3175,59.024,31.298
15643.0,44.563,-5.3175,64.024,32.298
15653.0,48.563,-7.3175,67.024,32.298
15663.0,52.563,-2.3175,69.024,33.298
15673.0,54.563,-3.3175,72.024,33.298
15683.0,54.563,-3.3175,76.024,34.298
15692.0,53.563,-4.3175,75.024,33.298
15702.0,51.563,-5.3175,76.024,33.298
15712.0,51.563,-6.3175,77.024,34.298
15722.0,47.563,-6.3175,80.024,35.298
15732.0,47.563,-6.3175,82.024,36.298
15742.0,47.563,-7.3175,79.024,35.298
15752.0,45.563,-6.3175,80.024,34.298
15762.0,45.563,-7.3175,77.024,33.298
15772.0,44.563,-6.3175,75.024,31.298
15781.0,44.563,-6.3175,75.024,32.298
15791.0,41.563,-8.3175,71.024,32.298
15801.0,41.563,-8.3175,73.024,31.298
15811.0,38.563,-8.3175,73.024,31.298
15821.0,38.563,-8.3175,70.024,31.298
15831.0,38.563,-8.3175,69.024,29.298
15841.0,38.563,-8.3175,67.024,29.298
15851.0,34.563,-9.3175,65.024,27.298
15861.0,34.563,-9.3175,61.024,25.298
15870.0,28.563,-11.317,59.024,26.298
15880.0,28.563,-11.317,58.024,25.298
15890.0,23.563,-13.317,60.024,26.298
15900.0,23.563,-13.317,57.024,24.298
15910.0,19.563,-14.317,54.024,24.298
15920.0,19.563,-14.317,55.024,23.298
15930.0,14.563,-16.317,54.024,24.298
15940.0,13.563,-16.317,52.024,21.298
15949.0,8.5635,-17.317,49.024,19.298
15959.0,5.5635,-18.317,49.024,19.298
15969.0,2.5635,-18.317,47.024,18.298
15979.0,-2.4365,-20.317,44.024,18.298
15989.0,-6.4365,-22.317,43.024,17.298
15999.0,-8.4365,-21.317,43.024,17.298
16009.0,-12.437,-22.317,37.024,15.298
16019.0,-15.437,-22.317,37.024,15.298
16029.0,-19.437,-24.317,29.024,10.298
16038.0,-23.437,-27.317,29.024,10.298
16048.0,-27.437,-27.317,23.024,8.2975
16058.0,-28.437,-25.317,23.024,8.2975
16068.0,-26.437,-24.317,21.024,7.2975
16078.0,-25.437,-22.317,21.024,7.2975
16088.0,-16.437,-19.317,13.024,5.2975
16098.0,-11.437,-15.317,13.024,5.2975
16108.0,-5.4365,-15.317,11.024,3.2975
16118.0,-3.4365,-14.317,11.024,3.2975
16127.0,-0.43653,-14.317,13.024,4.2975
16137.0,7.5635,-13.317,13.024,4.2975
16147.0,14.563,-10.317,18.024,4.2975
16157.0,20.563,-8.3175,18.024,4.2975
16167.0,26.563,-7.3175,24.024,4.2975
16177.0,28.563,-7.3175,24.024,4.2975
16187.0,28.563,-6.3175,24.024,4.2975
16197.0,30.563,-5.3175,24.024,5.2975
16207.0,29.563,-7.3175,26.024,5.2975
16216.0,28.563,-6.3175,25.024,3.2975
16226.0,28.563,-8.3175,26.024,3.2975
16236.0,24.563,-9.3175,25.024,1.2975
16246.0,24.563,-9.3175,22.024,1.2975
16256.0,22.563,-9.3175,25.024,1.2975
16266.0,23.563,-8.3175,25.024,1.2975
16276.0,22.563,-7.3175,25.024,2.2975
16286.0,22.563,-6.3175,22.024,1.2975
16295.0,22.563,-7.3175,19.024,0.29752
16305.0,19.563,-8.3175,18.024,-1.7025
16315.0,17.563,-9.3175,16.024,-0.70248
16325.0,17.563,-9.3175,17.024,-1.7025
16335.0,15.563,-10.317,16.024,-0.70248
16345.0,15.563,-9.3175,16.024,-1.7025
16355.0,12.563,-11.317,13.024,-3.7025
16365.0,10.563,-11.317,10.024,-3.7025
16375.0,7.5635,-12.317,8.0244,-4.7025
16384.0,6.5635,-14.317,8.0244,-3.7025
16394.0,2.5635,-15.317,7.0244,-5.7025
16404.0,-0.43653,-16.317,6.0244,-5.7025
16414.0,-2.4365,-16.317,7.0244,-5.7025
16424.0,-5.4365,-18.317,7.0244,-5.7025
16434.0,-10.437,-18.317,7.0244,-5.7025
16444.0,-13.437,-19.317,4.0244,-5.7025
16454.0,-15.437,-21.317,2.0244,-7.7025
16464.0,-18.437,-21.317,2.0244,-7.7025
16473.0,-22.437,-22.317,3.0244,-8.7025
16483.0,-24.437,-23.317,1.0244,-6.7025
16493.0,-28.437,-23.317,0.024387,-8.7025
16503.0,-31.437,-25.317,-3.9756,-9.7025
16513.0,-31.437,-25.317,-6.9756,-12.702
16523.0,-37.437,-26.317,-10.976,-14.702
16533.0,-37.437,-26.317,-14.976,-15.702
16543.0,-44.437,-28.317,-17.976,-17.702
16553.0,-44.437,-28.317,-20.976,-17.702
16562.0,-47.437,-28.317,-23.976,-20.702
16572.0,-47.437,-28.317,-26.976,-21.702
16582.0,-41.437,-22.317,-30.976,-22.702
16592.0,-41.437,-22.317,-32.976,-22.702
16602.0,-26.437,-16.317,-31.976,-23.702
16612.0,-26.437,-16.317,-33.976,-23.702
16622.0,-15.437,-15.317,-32.976,-23.702
16632.0,-15.437,-15.317,-31.976,-22.702
16641.0,-10.437,-13.317,-32.976,-24.702
16651.0,-1.4365,-12.317,-29.976,-22.702
16661.0,4.5635,-10.317,-25.976,-22.702
16671.0,9.5635,-10.317,-20.976,-21.702
16681.0,14.563,-8.3175,-15.976,-20.702
16691.0,18.563,-7.3175,-13.976,-19.702
16701.0,22.563,-5.3175,-12.976,-19.702
16711.0,22.563,-7.3175,-10.976,-18.702
16721.0,20.563,-7.3175,-11.976,-20.702
16730.0,21.563,-8.3175,-11.976,-20.702
16740.0,20.563,-9.3175,-11.976,-20.702
16750.0,18.563,-9.3175,-9.9756,-20.702
16760.0,18.563,-9.3175,-9.9756,-19.702
16770.0,16.563,-9.3175,-10.976,-20.702
16780.0,16.563,-10.317,-12.976,-21.702
16790.0,12.563,-10.317,-15.976,-22.702
16800.0,12.563,-10.317,-18.976,-23.702
16810.0,12.563,-12.317,-17.976,-24.702
16819.0,9.5635,-12.317,-18.976,-25.702
16829.0,6.5635,-13.317,-19.976,-24.702
16839.0,6.5635,-12.317,-21.976,-25.702
16849.0,7.5635,-12.317,-23.976,-26.702
16859.0,5.5635,-13.317,-24.976,-26.702
16869.0,4.5635,-13.317,-25.976,-26.702
16879.0,2.5635,-14.317,-26.976,-27.702
16889.0,0.56347,-16.317,-25.976,-28.702
16898.0,-2.4365,-16.317,-27.976,-27.702
16908.0,-5.4365,-18.317,-29.976,-28.702
16918.0,-7.4365,-18.317,-29.976,-29.702
16928.0,-9.4365,-19.317,-32.976,-30.702
16938.0,-13.437,-20.317,-29.976,-29.702
16948.0,-16.437,-21.317,-32.976,-28.702
16958.0,-19.437,-22.317,-29.976,-28.702
16968.0,-21.437,-23.317,-30.976,-29.702
16978.0,-26.437,-24.317,-32.976,-31.702
16987.0,-29.437,-26.317,-33.976,-31.702
16997.0,-33.437,-27.317,-36.976,-32.702
17007.0,-36.437,-26.317,-37.976,-33.702
17017.0,-39.437,-28.317,-38.976,-32.702
17027.0,-43.437,-29.317,-38.976,-32.702
17037.0,-45.437,-29.317,-41.976,-34.702
17047.0,-49.437,-29.317,-44.976,-34.702
17057.0,-54.437,-31.317,-44.976,-34.702
17067.0,-57.437,-31.317,-44.976,-34.702
17076.0,-55.437,-30.317,-45.976,-36.702
17086.0,-52.437,-28.317,-45.976,-36.702
17096.0,-48.437,-26.317,-46.976,-38.702
17106.0,-42.437,-23.317,-46.976,-38.702
17116.0,-35.437,-21.317,-52.976,-36.702
17126.0,-31.437,-19.317,-52.976,-36.702
17136.0,-25.437,-19.317,-46.976,-35.702
17146.0,-18.437,-17.317,-46.976,-35.702
17156.0,-11.437,-16.317,-40.976,-34.702
17165.0,-5.4365,-16.317,-40.976,-34.702
17175.0,0.56347,-13.317,-32.976,-31.702
17185.0,4.5635,-11.317,-32.976,-31.702
17195.0,7.5635,-11.317,-27.976,-31.702
17205.0,10.563,-11.317,-27.976,-31.702
17215.0,11.563,-9.3175,-25.976,-32.702
17225.0,11.563,-9.3175,-25.976,-32.702
17235.0,10.563,-11.317,-22.976,-32.702
17244.0,10.563,-11.317,-22.976,-32.702
17254.0,7.5635,-12.317,-20.976,-32.702
17264.0,7.5635,-12.317,-21.976,-32.702
17274.0,5.5635,-13.317,-19.976,-32.702
17284.0,5.5635,-13.317,-20.976,-31.702
17294.0,1.5635,-14.317,-23.976,-34.702
17304.0,1.5635,-14.317,-25.976,-34.702
17314.0,-1.4365,-14.317,-26.976,-34.702
17324.0,-1.4365,-14.317,-24.976,-33.702
17333.0,-2.4365,-15.317,-21.976,-32.702
17343.0,-2.4365,-15.317,-22.976,-31.702
17353.0,-3.4365,-14.317,-26.976,-32.702
17363.0,-3.4365,-14.317,-26.976,-33.702
17373.0,-5.4365,-15.317,-26.976,-33.702
17383.0,-5.4365,-16.317,-28.976,-34.702
17393.0,-7.4365,-16.317,-28.976,-34.702
17403.0,-10.437,-18.317,-29.976,-35.702
17413.0,-12.437,-18.317,-28.976,-35.702
17422.0,-13.437,-19.317,-30.976,-35.702
17432.0,-15.437,-18.317,-30.976,-36.702
17442.0,-19.437,-20.317,-32.976,-36.702
17452.0,-21.437,-20.317,-32.976,-37.702
17462.0,-25.437,-21.317,-31.976,-37.702
17472.0,-29.437,-22.317,-33.976,-37.702
17482.0,-31.437,-23.317,-32.976,-37.702
17492.0,-33.437,-24.317,-33.976,-38.702
17502.0,-40.437,-26.317,-34.976,-37.702
17511.0,-43.437,-27.317,-36.976,-39.702
17521.0,-48.437,-29.317,-38.976,-39.702
17531.0,-49.437,-30.317,-37.976,-39.702
17541.0,-52.437,-29.317,-40.976,-40.702
17551.0,-56.437,-33.317,-40.976,-40.702
17561.0,-60.437,-33.317,-41.976,-41.702
17571.0,-62.437,-33.317,-42.976,-40.702
17581.0,-62.437,-31.317,-43.976,-41.702
17590.0,-61.437,-29.317,-44.976,-41.702
17600.0,-57.437,-27.317,-46.976,-42.702
17610.0,-49.437,-22.317,-48.976,-43.702
17620.0,-42.437,-19.317,-49.976,-43.702
17630.0,-36.437,-18.317,-48.976,-43.702
17640.0,-32.437,-18.317,-47.976,-43.702
17650.0,-26.437,-18.317,-44.976,-42.702
17660.0,-20.437,-16.317,-39.976,-42.702
17670.0,-13.437,-16.317,-37.976,-40.702
17679.0,-7.4365,-15.317,-31.976,-40.702
17689.0,-4.4365,-12.317,-31.976,-41.702
17699.0,-0.43653,-12.317,-28.976,-39.702
17709.0,0.56347,-11.317,-24.976,-36.702
17719.0,5.5635,-11.317,-18.976,-36.702
17729.0,3.5635,-10.317,-16.976,-35.702
17739.0,4.5635,-12.317,-13.976,-34.702
17749.0,2.5635,-11.317,-13.976,-35.702
17759.0,0.56347,-12.317,-12.976,-34.702
17768.0,-0.43653,-14.317,-8.9756,-33.702
17778.0,-2.4365,-13.317,-9.9756,-33.702
17788.0,-5.4365,-15.317,-10.976,-32.702
17798.0,-4.4365,-14.317,-9.9756,-33.702
17808.0,-6.4365,-14.317,-10.976,-32.702
17818.0,-9.4365,-14.317,-10.976,-33.702
17828.0,-9.4365,-16.317,-10.976,-35.702
17838.0,-12.437,-16.317,-10.976,-35.702
17848.0,-14.437,-16.317,-11.976,-34.702
17857.0,-13.437,-15.317,-12.976,-34.702
17867.0,-13.437,-17.317,-13.976,-35.702
17877.0,-17.437,-17.317,-15.976,-34.702
17887.0,-18.437,-17.317,-15.976,-34.702
17897.0,-19.437,-19.317,-15.976,-34.702
17907.0,-20.437,-18.317,-15.976,-34.702
17917.0,-23.437,-21.317,-18.976,-35.702
17927.0,-27.437,-22.317,-20.976,-35.702
17936.0,-27.437,-21.317,-19.976,-36.702
17946.0,-30.437,-23.317,-19.976,-35.702
17956.0,-30.437,-23.317,-19.976,-35.702
17966.0,-35.437,-23.317,-20.976,-36.702
17976.0,-35.437,-23.317,-22.976,-36.702
17986.0,-42.437,-26.317,-24.976,-37.702
17996.0,-42.437,-26.317,-24.976,-37.702
18006.0,-51.437,-28.317,-25.976,-38.702
18016.0,-51.437,-28.317,-25.976,-38.702
18025.0,-58.437,-30.317,-28.976,-39.702
18035.0,-58.437,-30.317,-28.976,-39.702
18045.0,-64.437,-31.317,-32.976,-41.702
18055.0,-64.437,-31.317,-32.976,-41.702
18065.0,-70.437,-33.317,-33.976,-40.702
18075.0,-70.437,-33.317,-33.976,-40.702
18085.0,-72.437,-31.317,-35.976,-41.702
18095.0,-72.437,-31.317,-35.976,-41.702
18105.0,-70.437,-29.317,-38.976,-43.702
18114.0,-66.437,-26.317,-38.976,-43.702
18124.0,-59.437,-22.317,-38.976,-41.702
18134.0,-50.437,-21.317,-38.976,-41.702
18144.0,-47.437,-18.317,-37.976,-40.702
18154.0,-41.437,-18.317,-37.976,-40.702
18164.0,-34.437,-17.317,-36.976,-41.702
18174.0,-27.437,-14.317,-34.976,-40.702
18184.0,-22.437,-12.317,-26.976,-38.702
18194.0,-15.437,-11.317,-21.976,-36.702
18203.0,-12.437,-10.317,-17.976,-35.702
18213.0,-11.437,-10.317,-16.976,-35.702
18223.0,-9.4365,-10.317,-14.976,-34.702
18233.0,-11.437,-11.317,-11.976,-33.702
18243.0,-10.437,-12.317,-5.9756,-32.702
18253.0,-13.437,-14.317,-3.9756,-31.702
18263.0,-17.437,-14.317,-2.9756,-31.702
18273.0,-16.437,-15.317,-1.9756,-31.702
18282.0,-18.437,-14.317,-1.9756,-31.702
18292.0,-20.437,-14.317,-2.9756,-32.702
18302.0,-19.437,-15.317,-2.9756,-32.702
18312.0,-21.437,-14.317,-3.9756,-32.702
18322.0,-21.437,-14.317,-4.9756,-32.702
18332.0,-24.437,-15.317,-4.9756,-33.702
18342.0,-25.437,-15.317,-9.9756,-32.702
18352.0,-29.437,-15.317,-7.9756,-32.702
18362.0,-29.437,-16.317,-7.9756,-31.702
18371.0,-28.437,-16.317,-5.9756,-30.702
18381.0,-27.437,-16.317,-3.9756,-29.702
18391.0,-29.437,-16.317,-2.9756,-29.702
18401.0,-32.437,-17.317,-4.9756,-28.702
18411.0,-33.437,-16.317,-2.9756,-28.702
18421.0,-36.437,-17.317,-1.9756,-28.702
18431.0,-39.437,-19.317,-2.9756,-27.702
18441.0,-40.437,-20.317,-1.9756,-27.702
18451.0,-44.437,-20.317,-1.9756,-27.702
18460.0,-47.437,-21.317,-1.9756,-27.702
18470.0,-47.437,-20.317,-4.9756,-27.702
18480.0,-50.437,-22.317,-7.9756,-29.702
18490.0,-55.437,-23.317,-5.9756,-29.702
18500.0,-58.437,-24.317,-9.9756,-30.702
18510.0,-61.437,-24.317,-9.9756,-30.702
18520.0,-67.437,-25.317,-10.976,-30.702
18530.0,-69.437,-27.317,-13.976,-31.702
18540.0,-72.437,-28.317,-14.976,-32.702
18549.0,-75.437,-28.317,-19.976,-33.702
18559.0,-78.437,-29.317,-19.976,-35.702
18569.0,-83.437,-30.317,-22.976,-35.702
18579.0,-88.437,-31.317,-22.976,-35.702
18589.0,-87.437,-29.317,-22.976,-35.702
18599.0,-86.437,-27.317,-27.976,-36.702
18609.0,-81.437,-23.317,-29.976,-37.702
18619.0,-75.437,-21.317,-35.976,-39.702
18628.0,-68.437,-18.317,-36.976,-39.702
18638.0,-62.437,-16.317,-35.976,-39.702
18648.0,-59.437,-17.317,-34.976,-38.702
18658.0,-53.437,-15.317,-33.976,-39.702
18668.0,-45.437,-14.317,-32.976,-38.702
18678.0,-43.437,-13.317,-29.976,-38.702
18688.0,-43.437,-13.317,-24.976,-37.702
18698.0,-33.437,-12.317,-22.976,-38.702
18708.0,-33.437,-12.317,-20.976,-37.702
18717.0,-29.437,-11.317,-19.976,-36.702
18727.0,-29.437,-11.317,-19.976,-37.702
18737.0,-30.437,-11.317,-17.976,-36.702
18747.0,-30.437,-11.317,-17.976,-36.702
18757.0,-35.437,-12.317,-17.976,-37.702
18767.0,-35.437,-12.317,-15.976,-37.702
18777.0,-37.437,-13.317,-12.976,-36.702
18787.0,-37.437,-13.317,-12.976,-36.702
18797.0,-42.437,-14.317,-12.976,-36.702
18806.0,-42.437,-14.317,-13.976,-36.702
18816.0,-44.437,-15.317,-15.976,-35.702
18826.0,-44.437,-15.317,-11.976,-34.702
18836.0,-46.437,-14.317,-9.9756,-32.702
18846.0,-47.437,-16.317,-10.976,-32.702
18856.0,-47.437,-16.317,-11.976,-32.702
18866.0,-49.437,-16.317,-10.976,-32.702
18876.0,-50.437,-16.317,-12.976,-30.702
18886.0,-49.437,-15.317,-12.976,-31.702
18895.0,-50.437,-15.317,-13.976,-32.702
18905.0,-51.437,-15.317,-15.976,-33.702
18915.0,-53.437,-16.317,-17.976,-33.702
18925.0,-54.437,-16.317,-19.976,-34.702
18935.0,-57.437,-17.317,-18.976,-32.702
18945.0,-59.437,-18.317,-18.976,-32.702
18955.0,-61.437,-19.317,-19.976,-33.702
18965.0,-64.437,-20.317,-19.976,-33.702
18974.0,-65.437,-19.317,-20.976,-33.702
18984.0,-68.437,-20.317,-20.976,-33.702
18994.0,-70.437,-20.317,-25.976,-36.702
19004.0,-73.437,-22.317,-25.976,-36.702
19014.0,-76.437,-21.317,-27.976,-36.702
19024.0,-81.437,-23.317,-27.976,-36.702
19034.0,-84.437,-24.317,-30.976,-39.702
19044.0,-88.437,-25.317,-30.976,-39.702
19054.0,-90.437,-25.317,-36.976,-39.702
19063.0,-93.437,-26.317,-36.976,-39.702
19073.0,-98.437,-28.317,-36.976,-40.702
19083.0,-102.44,-28.317,-36.976,-40.702
19093.0,-102.44,-25.317,-38.976,-40.702
19103.0,-99.437,-23.317,-38.976,-40.702
19113.0,-96.437,-22.317,-41.976,-41.702
19123.0,-89.437,-18.317,-41.976,-41.702
19133.0,-83.437,-17.317,-46.976,-41.702
19143.0,-78.437,-16.317,-46.976,-41.702
19152.0,-75.437,-16.317,-45.976,-41.702
19162.0,-68.437,-14.317,-43.976,-39.702
19172.0,-62.437,-12.317,-39.976,-39.702
19182.0,-54.437,-11.317,-33.976,-36.702
19192.0,-48.437,-8.3175,-29.976,-37.702
19202.0,-44.437,-8.3175,-28.976,-35.702
19212.0,-39.437,-7.3175,-26.976,-36.702
19222.0,-38.437,-7.3175,-23.976,-34.702
19232.0,-38.437,-6.3175,-20.976,-35.702
19241.0,-38.437,-7.3175,-15.976,-33.702
19251.0,-38.437,-7.3175,-13.976,-31.702
19261.0,-41.437,-8.3175,-14.976,-32.702
19271.0,-41.437,-10.317,-15.976,-32.702
19281.0,-44.437,-9.3175,-15.976,-33.702
19291.0,-44.437,-8.3175,-12.976,-33.702
19301.0,-45.437,-8.3175,-15.976,-33.702
19311.0,-47.437,-8.3175,-14.976,-33.702
19320.0,-46.437,-8.3175,-16.976,-33.702
19330.0,-48.437,-9.3175,-15.976,-33.702
19340.0,-51.437,-9.3175,-16.976,-33.702
19350.0,-49.437,-10.317,-18.976,-35.702
19360.0,-50.437,-9.3175,-20.976,-35.702
19370.0,-52.437,-10.317,-20.976,-35.702
19380.0,-49.437,-9.3175,-22.976,-35.702
19390.0,-51.437,-9.3175,-20.976,-34.702
19400.0,-52.437,-10.317,-20.976,-34.702
19409.0,-54.437,-11.317,-26.976,-35.702
19419.0,-54.437,-11.317,-26.976,-37.702
19429.0,-58.437,-12.317,-26.976,-35.702
19439.0,-58.437,-12.317,-25.976,-36.702
19449.0,-60.437,-12.317,-23.976,-33.702
19459.0,-60.437,-12.317,-24.976,-33.702
19469.0,-64.437,-15.317,-26.976,-34.702
19479.0,-64.437,-15.317,-29.976,-36.702
19489.0,-68.437,-16.317,-30.976,-37.702
19498.0,-68.437,-16.317,-31.976,-38.702
19508.0,-75.437,-20.317,-29.976,-36.702
19518.0,-75.437,-20.317,-29.976,-35.702
19528.0,-83.437,-20.317,-30.976,-36.702
19538.0,-83.437,-20.317,-33.976,-37.702
19548.0,-87.437,-21.317,-36.976,-39.702
19558.0,-87.437,-21.317,-40.976,-41.702
19568.0,-88.437,-21.317,-42.976,-43.702
19578.0,-94.437,-22.317,-45.976,-42.702
19587.0,-93.437,-22.317,-44.976,-42.702
19597.0,-92.437,-21.317,-47.976,-42.702
19607.0,-87.437,-17.317,-48.976,-45.702
19617.0,-83.437,-15.317,-53.976,-45.702
19627.0,-75.437,-11.317,-55.976,-46.702
19637.0,-68.437,-8.3175,-57.976,-47.702
19647.0,-61.437,-8.3175,-56.976,-47.702
19657.0,-58.437,-8.3175,-53.976,-45.702
19666.0,-50.437,-6.3175,-50.976,-44.702
19676.0,-41.437,-3.3175,-47.976,-43.702
19686.0,-33.437,-1.3175,-45.976,-44.702
19696.0,-27.437,0.68251,-40.976,-41.702
19706.0,-22.437,0.68251,-38.976,-42.702
19716.0,-18.437,1.6825,-34.976,-40.702
19726.0,-17.437,1.6825,-30.976,-39.702
19736.0,-14.437,2.6825,-28.976,-39.702
19746.0,-16.437,1.6825,-28.976,-39.702
19755.0,-14.437,2.6825,-29.976,-39.702
19765.0,-16.437,-0.31749,-26.976,-39.702
19775.0,-17.437,0.68251,-24.976,-38.702
19785.0,-14.437,2.6825,-24.976,-37.702
19795.0,-15.437,2.6825,-23.976,-38.702
19805.0,-17.437,1.6825,-25.976,-39.702
19815.0,-17.437,2.6825,-29.976,-40.702
19825.0,-17.437,1.6825,-29.976,-41.702
19835.0,-18.437,0.68251,-29.976,-40.702
19844.0,-20.437,-1.3175,-28.976,-40.702
19854.0,-21.437,-0.31749,-28.976,-39.702
19864.0,-21.437,-0.31749,-31.976,-40.702
19874.0,-20.437,-0.31749,-36.976,-41.702
19884.0,-21.437,-1.3175,-37.976,-43.702
19894.0,-20.437,-0.31749,-37.976,-43.702
19904.0,-22.437,-0.31749,-36.976,-43.702
19914.0,-21.437,-0.31749,-35.976,-41.702
19924.0,-22.437,-2.3175,-34.976,-41.702
19933.0,-24.437,-2.3175,-39.976,-44.702
19943.0,-26.437,-2.3175,-42.976,-44.702
19953.0,-27.437,-2.3175,-42.976,-43.702
19963.0,-31.437,-4.3175,-40.976,-43.702
19973.0,-33.437,-5.3175,-42.976,-44.702
19983.0,-34.437,-4.3175,-41.976,-45.702
19993.0,-38.437,-7.3175,-45.976,-45.702
20003.0,-40.437,-7.3175,-48.976,-46.702
20012.0,-44.437,-9.3175,-48.976,-46.702
20022.0,-47.437,-9.3175,-48.976,-47.702
20032.0,-49.437,-10.317,-48.976,-47.702
20042.0,-54.437,-11.317,-53.976,-48.702
20052.0,-56.437,-11.317,-53.976,-48.702
20062.0,-60.437,-12.317,-54.976,-48.702
20072.0,-61.437,-13.317,-54.976,-48.702
20082.0,-61.437,-11.317,-56.976,-48.702
20092.0,-57.437,-10.317,-56.976,-48.702
20101.0,-53.437,-7.3175,-59.976,-49.702
20111.0,-45.437,-3.3175,-59.976,-49.702
20121.0,-38.437,-0.31749,-60.976,-51.702
20131.0,-31.437,0.68251,-60.976,-51.702
20141.0,-24.437,1.6825,-61.976,-49.702
20151.0,-24.437,1.6825,-61.976,-49.702
20161.0,-8.4365,3.6825,-52.976,-47.702
20171.0,-8.4365,3.6825,-52.976,-47.702
20181.0,3.5635,7.6825,-42.976,-44.702
20190.0,3.5635,7.6825,-42.976,-44.702
20200.0,13.563,8.6825,-39.976,-44.702
20210.0,13.563,8.6825,-39.976,-44.702
20220.0,16.563,9.6825,-36.976,-43.702
20230.0,16.563,9.6825,-35.976,-43.702
20240.0,18.563,8.6825,-30.976,-42.702
20250.0,18.563,8.6825,-31.976,-42.702
20260.0,16.563,6.6825,-31.976,-44.702
20270.0,16.563,6.6825,-28.976,-41.702
20279.0,17.563,5.6825,-28.976,-41.702
20289.0,14.563,5.6825,-28.976,-42.702
20299.0,15.563,5.6825,-28.976,-42.702
20309.0,15.563,5.6825,-28.976,-43.702
20319.0,12.563,4.6825,-28.976,-44.702
20329.0,12.563,5.6825,-27.976,-43.702
20339.0,9.5635,4.6825,-28.976,-42.702
20349.0,10.563,3.6825,-28.976,-43.702
20358.0,8.5635,4.6825,-27.976,-43.702
20368.0,9.5635,4.6825,-31.976,-45.702
20378.0,9.5635,3.6825,-33.976,-45.702
20388.0,7.5635,2.6825,-34.976,-46.702
20398.0,6.5635,3.6825,-34.976,-47.702
20408.0,7.5635,2.6825,-34.976,-48.702
20418.0,6.5635,0.68251,-36.976,-47.702
20428.0,3.5635,-0.31749,-36.976,-47.702
20438.0,0.56347,-0.31749,-37.976,-48.702
20447.0,0.56347,-1.3175,-39.976,-50.702
20457.0,-2.4365,-2.3175,-41.976,-50.702
20467.0,-4.4365,-3.3175,-43.976,-51.702
20477.0,-7.4365,-4.3175,-42.976,-51.702
20487.0,-9.4365,-3.3175,-41.976,-50.702
20497.0,-11.437,-5.3175,-41.976,-50.702
20507.0,-14.437,-5.3175,-41.976,-51.702
20517.0,-17.437,-7.3175,-44.976,-52.702
20527.0,-20.437,-8.3175,-44.976,-52.702
20536.0,-23.437,-9.3175,-47.976,-54.702
20546.0,-25.437,-10.317,-49.976,-54.702
20556.0,-30.437,-11.317,-47.976,-53.702
20566.0,-32.437,-11.317,-49.976,-52.702
20576.0,-29.437,-8.3175,-50.976,-52.702
20586.0,-27.437,-7.3175,-55.976,-55.702
20596.0,-23.437,-5.3175,-56.976,-57.702
20606.0,-16.437,-1.3175,-59.976,-57.702
20616.0,-7.4365,0.68251,-59.976,-59.702
20625.0,-0.43653,2.6825,-58.976,-57.702
20635.0,5.5635,2.6825,-54.976,-56.702
20645.0,12.563,4.6825,-52.976,-56.702
20655.0,21.563,6.6825,-50.976,-57.702
20665.0,28.563,7.6825,-51.976,-56.702
20675.0,34.563,9.6825,-45.976,-56.702
20685.0,40.563,11.683,-40.976,-53.702
20695.0,43.563,12.683,-36.976,-53.702
20704.0,47.563,12.683,-31.976,-52.702
20714.0,49.563,14.683,-29.976,-51.702
20724.0,50.563,13.683,-29.976,-50.702
20734.0,51.563,12.683,-27.976,-51.702
20744.0,50.563,12.683,-23.976,-50.702
20754.0,49.563,11.683,-21.976,-50.702
20764.0,50.563,13.683,-22.976,-49.702
20774.0,48.563,11.683,-22.976,-50.702
20784.0,49.563,11.683,-23.976,-52.702
20793.0,50.563,12.683,-22.976,-51.702
20803.0,49.563,11.683,-22.976,-51.702
20813.0,49.563,10.683,-24.976,-52.702
20823.0,46.563,10.683,-25.976,-53.702
20833.0,44.563,9.6825,-25.976,-51.702
20843.0,44.563,9.6825,-26.976,-52.702
20853.0,44.563,9.6825,-29.976,-52.702
20863.0,44.563,9.6825,-29.976,-53.702
20873.0,43.563,8.6825,-30.976,-53.702
20882.0,43.563,8.6825,-32.976,-54.702
20892.0,40.563,7.6825,-31.976,-54.702
20902.0,40.563,7.6825,-32.976,-53.702
20912.0,39.563,6.6825,-32.976,-53.702
20922.0,39.563,6.6825,-36.976,-54.702
20932.0,36.563,5.6825,-38.976,-55.702
20942.0,36.563,5.6825,-38.976,-55.702
20952.0,29.563,3.6825,-39.976,-57.702
20962.0,29.563,3.6825,-39.976,-57.702
20971.0,22.563,-0.31749,-42.976,-59.702
20981.0,22.563,-0.31749,-42.976,-59.702
20991.0,17.563,-1.3175,-44.976,-58.702
21001.0,17.563,-1.3175,-44.976,-58.702
21011.0,15.563,-2.3175,-46.976,-61.702
21021.0,13.563,-3.3175,-46.976,-61.702
21031.0,8.5635,-4.3175,-53.976,-61.702
21041.0,5.5635,-6.3175,-53.976,-61.702
21050.0,2.5635,-7.3175,-52.976,-61.702
21060.0,1.5635,-8.3175,-52.976,-61.702
21070.0,1.5635,-6.3175,-56.976,-62.702
21080.0,5.5635,-3.3175,-56.976,-62.702
21090.0,7.5635,-1.3175,-60.976,-63.702
21100.0,16.563,1.6825,-60.976,-63.702
21110.0,25.563,4.6825,-61.976,-64.702
21120.0,31.563,5.6825,-61.976,-64.702
21130.0,38.563,7.6825,-60.976,-63.702
21139.0,44.563,8.6825,-57.976,-63.702
21149.0,51.563,9.6825,-53.976,-61.702
21159.0,61.563,11.683,-49.976,-61.702
21169.0,66.563,12.683,-42.976,-58.702
21179.0,71.563,13.683,-41.976,-58.702
21189.0,75.563,14.683,-39.976,-58.702
21199.0,76.563,14.683,-35.976,-57.702
21209.0,77.563,14.683,-33.976,-57.702
21219.0,79.563,14.683,-28.976,-55.702
21228.0,82.563,14.683,-28.976,-54.702
21238.0,81.563,15.683,-27.976,-53.702
21248.0,83.563,13.683,-26.976,-54.702
21258.0,84.563,15.683,-26.976,-54.702
21268.0,84.563,15.683,-24.976,-54.702
21278.0,82.563,14.683,-24.976,-55.702
21288.0,82.563,14.683,-24.976,-54.702
21298.0,82.563,14.683,-24.976,-53.702
21308.0,81.563,14.683,-22.976,-53.702
21317.0,80.563,13.683,-22.976,-50.702
21327.0,81.563,13.683,-23.976,-51.702
21337.0,81.563,14.683,-24.976,-51.702
21347.0,80.563,13.683,-24.976,-51.702
21357.0,81.563,13.683,-25.976,-51.702
21367.0,80.563,14.683,-22.976,-50.702
21377.0,79.563,13.683,-26.976,-50.702
21387.0,77.563,14.683,-24.976,-51.702
21396.0,77.563,13.683,-23.976,-51.702
21406.0,76.563,13.683,-25.976,-51.702
21416.0,73.563,13.683,-24.976,-49.702
21426.0,77.563,14.683,-23.976,-50.702
21436.0,75.563,14.683,-25.976,-50.702
21446.0,74.563,14.683,-25.976,-50.702
21456.0,72.563,12.683,-24.976,-51.702
21466.0,72.563,12.683,-27.976,-50.702
21476.0,70.563,14.683,-26.976,-50.702
21485.0,68.563,13.683,-24.976,-48.702
21495.0,66.563,13.683,-25.976,-48.702
21505.0,63.563,13.683,-27.976,-50.702
21515.0,63.563,13.683,-29.976,-50.702
21525.0,59.563,14.683,-29.976,-49.702
21535.0,54.563,11.683,-30.976,-51.702
21545.0,50.563,9.6825,-29.976,-52.702
21555.0,48.563,10.683,-30.976,-50.702
21565.0,48.563,11.683,-28.976,-52.702
21574.0,49.563,13.683,-30.976,-49.702
21584.0,51.563,13.683,-30.976,-50.702
21594.0,51.563,13.683,-33.976,-51.702
21604.0,56.563,12.683,-33.976,-52.702
21614.0,56.563,12.683,-33.976,-52.702
21624.0,62.563,8.6825,-30.976,-50.702
21634.0,62.563,8.6825,-27.976,-50.702
21644.0,77.563,11.683,-20.976,-48.702
21654.0,77.563,11.683,-15.976,-46.702
21663.0,101.56,20.683,-10.976,-43.702
21673.0,101.56,20.683,-6.9756,-43.702
21683.0,123.56,31.683,-3.9756,-43.702
21693.0,123.56,31.683,-0.97561,-41.702
21703.0,141.56,41.683,3.0244,-41.702
21713.0,141.56,41.683,6.0244,-41.702
21723.0,148.56,44.683,10.024,-40.702
21733.0,148.56,44.683,14.024,-38.702
21742.0,149.56,46.683,15.024,-37.702
21752.0,150.56,46.683,15.024,-38.702
21762.0,151.56,48.683,13.024,-37.702
21772.0,154.56,50.683,15.024,-37.702
21782.0,155.56,52.683,18.024,-37.702
21792.0,156.56,52.683,16.024,-37.702
21802.0,156.56,53.683,16.024,-36.702
21812.0,155.56,53.683,16.024,-38.702
21822.0,153.56,52.683,15.024,-37.702
21831.0,150.56,51.683,13.024,-38.702
21841.0,149.56,49.683,15.024,-36.702
21851.0,144.56,48.683,14.024,-36.702
21861.0,141.56,46.683,12.024,-37.702
21871.0,140.56,46.683,12.024,-37.702
21881.0,138.56,44.683,11.024,-38.702
21891.0,133.56,42.683,11.024,-36.702
21901.0,132.56,40.683,12.024,-37.702
21911.0,126.56,39.683,12.024,-37.702
21920.0,123.56,36.683,13.024,-37.702
21930.0,119.56,35.683,13.024,-37.702
21940.0,114.56,34.683,13.024,-38.702
21950.0,110.56,32.683,13.024,-38.702
21960.0,108.56,29.683,13.024,-38.702
21970.0,105.56,29.683,13.024,-38.702
21980.0,98.563,27.683,11.024,-39.702
21990.0,95.563,26.683,11.024,-39.702
21999.0,90.563,25.683,7.0244,-40.702
22009.0,87.563,24.683,7.0244,-40.702
22019.0,85.563,23.683,6.0244,-40.702
22029.0,81.563,23.683,6.0244,-40.702
22039.0,77.563,21.683,1.0244,-42.702
22049.0,72.563,19.683,1.0244,-42.702
22059.0,70.563,20.683,0.024387,-44.702
22069.0,72.563,23.683,0.024387,-44.702
22079.0,73.563,25.683,-4.9756,-45.702
22088.0,80.563,27.683,-4.9756,-45.702
22098.0,88.563,28.683,-7.9756,-47.702
22108.0,93.563,31.683,-10.976,-47.702
22118.0,100.56,31.683,-10.976,-46.702
22128.0,107.56,33.683,-10.976,-47.702
22138.0,112.56,33.683,-7.9756,-47.702
22148.0,118.56,36.683,-4.9756,-48.702
22158.0,124.56,38.683,-0.97561,-48.702
22168.0,130.56,38.683,-1.9756,-48.702
22177.0,134.56,39.683,1.0244,-48.702
22187.0,137.56,41.683,1.0244,-46.702
22197.0,140.56,40.683,4.0244,-47.702
22207.0,141.56,42.683,7.0244,-47.702
22217.0,141.56,41.683,9.0244,-48.702
22227.0,141.56,40.683,8.0244,-48.702
22237.0,137.56,38.683,11.024,-47.702
22247.0,136.56,39.683,9.0244,-48.702
22257.0,136.56,39.683,9.0244,-48.702
22266.0,136.56,38.683,9.0244,-49.702
22276.0,134.56,39.683,8.0244,-49.702
22286.0,135.56,38.683,7.0244,-50.702
22296.0,135.56,40.683,6.0244,-50.702
22306.0,133.56,39.683,5.0244,-50.702
22316.0,133.56,38.683,4.0244,-50.702
22326.0,133.56,38.683,3.0244,-51.702
22336.0,132.56,38.683,3.0244,-51.702
22345.0,132.56,38.683,1.0244,-53.702
22355.0,130.56,38.683,-2.9756,-53.702
22365.0,130.56,38.683,-1.9756,-55.702
22375.0,129.56,38.683,-4.9756,-54.702
22385.0,129.56,38.683,-4.9756,-56.702
22395.0,125.56,36.683,-8.9756,-55.702
22405.0,125.56,36.683,-8.9756,-56.702
22415.0,118.56,36.683,-10.976,-56.702
22425.0,118.56,36.683,-11.976,-58.702
22434.0,113.56,33.683,-11.976,-57.702
22444.0,113.56,33.683,-11.976,-59.702
22454.0,107.56,31.683,-12.976,-58.702
22464.0,107.56,31.683,-15.976,-60.702
22474.0,104.56,29.683,-16.976,-61.702
22484.0,99.563,27.683,-20.976,-62.702
22494.0,95.563,26.683,-22.976,-63.702
22504.0,92.563,24.683,-22.976,-63.702
22514.0,87.563,24.683,-23.976,-64.702
22523.0,83.563,22.683,-24.976,-65.702
22533.0,80.563,21.683,-29.976,-66.702
22543.0,77.563,21.683,-30.976,-67.702
22553.0,73.563,20.683,-30.976,-67.702
22563.0,73.563,20.683,-31.976,-67.702
22573.0,73.563,23.683,-33.976,-69.702
22583.0,78.563,25.683,-40.976,-72.702
22593.0,82.563,26.683,-43.976,-73.702
22603.0,89.563,29.683,-44.976,-73.702
22612.0,98.563,31.683,-44.976,-72.702
22622.0,104.56,31.683,-43.976,-72.702
22632.0,109.56,32.683,-41.976,-72.702
22642.0,117.56,35.683,-37.976,-72.702
22652.0,125.56,36.683,-36.976,-71.702
22662.0,131.56,39.683,-31.976,-71.702
22672.0,136.56,40.683,-28.976,-71.702
22682.0,140.56,40.683,-26.976,-70.702
22691.0,144.56,42.683,-24.976,-69.702
22701.0,144.56,42.683,-22.976,-69.702
22711.0,146.56,40.683,-19.976,-69.702
22721.0,146.56,40.683,-20.976,-69.702
22731.0,144.56,38.683,-20.976,-69.702
22741.0,145.56,38.683,-22.976,-70.702
22751.0,143.56,38.683,-19.976,-70.702
22761.0,143.56,39.683,-20.976,-70.702
22771.0,140.56,38.683,-21.976,-71.702
22780.0,140.56,37.683,-23.976,-72.702
22790.0,139.56,37.683,-26.976,-72.702
22800.0,138.56,35.683,-24.976,-72.702
22810.0,135.56,36.683,-26.976,-72.702
22820.0,135.56,36.683,-27.976,-73.702
22830.0,133.56,36.683,-29.976,-72.702
22840.0,133.56,34.683,-31.976,-74.702
22850.0,130.56,34.683,-29.976,-74.702
22860.0,130.56,32.683,-30.976,-73.702
22869.0,129.56,33.683,-31.976,-75.702
22879.0,126.56,32.683,-33.976,-76.702
22889.0,123.56,30.683,-35.976,-76.702
22899.0,120.56,28.683,-33.976,-76.702
22909.0,117.56,27.683,-35.976,-76.702
22919.0,115.56,26.683,-37.976,-77.702
22929.0,113.56,25.683,-37.976,-76.702
22939.0,110.56,25.683,-38.976,-77.702
22949.0,105.56,22.683,-39.976,-78.702
22958.0,102.56,21.683,-39.976,-78.702
22968.0,100.56,19.683,-41.976,-80.702
22978.0,91.563,18.683,-41.976,-80.702
22988.0,90.563,15.683,-44.976,-82.702
22998.0,83.563,14.683,-44.976,-82.702
23008.0,82.563,13.683,-50.976,-84.702
23018.0,79.563,13.683,-50.976,-84.702
23028.0,73.563,11.683,-54.976,-84.702
23037.0,69.563,9.6825,-54.976,-84.702
23047.0,66.563,9.6825,-55.976,-85.702
23057.0,66.563,9.6825,-55.976,-85.702
23067.0,66.563,11.683,-59.976,-86.702
23077.0,66.563,11.683,-59.976,-86.702
23087.0,74.563,13.683,-63.976,-88.702
23097.0,74.563,13.683,-63.976,-88.702
23107.0,86.563,14.683,-62.976,-88.702
23117.0,86.563,14.683,-62.976,-88.702
23126.0,98.563,16.683,-59.976,-87.702
23136.0,98.563,16.683,-59.976,-87.702
23146.0,109.56,18.683,-50.976,-85.702
23156.0,109.56,18.683,-50.976,-85.702
23166.0,115.56,18.683,-47.976,-86.702
23176.0,115.56,18.683,-46.976,-85.702
23186.0,118.56,18.683,-41.976,-84.702
23196.0,121.56,18.683,-37.976,-82.702
23206.0,118.56,17.683,-35.976,-83.702
23215.0,117.56,15.683,-34.976,-82.702
23225.0,117.56,15.683,-36.976,-82.702
23235.0,114.56,13.683,-33.976,-83.702
23245.0,112.56,11.683,-33.976,-83.702
23255.0,110.56,12.683,-34.976,-83.702
23265.0,108.56,11.683,-33.976,-83.702
23275.0,107.56,11.683,-31.976,-82.702
23285.0,106.56,10.683,-33.976,-82.702
23295.0,106.56,10.683,-35.976,-83.702
23304.0,105.56,10.683,-35.976,-83.702
23314.0,103.56,9.6825,-37.976,-84.702
23324.0,103.56,9.6825,-37.976,-84.702
23334.0,100.56,7.6825,-38.976,-83.702
23344.0,99.563,5.6825,-37.976,-84.702
23354.0,97.563,6.6825,-35.976,-83.702
23364.0,95.563,5.6825,-37.976,-83.702
23374.0,92.563,3.6825,-37.976,-84.702
23383.0,91.563,2.6825,-41.976,-84.702
23393.0,89.563,1.6825,-43.976,-85.702
23403.0,84.563,0.68251,-42.976,-84.702
23413.0,84.563,0.68251,-39.976,-84.702
23423.0,81.563,0.68251,-39.976,-83.702
23433.0,82.563,-0.31749,-38.976,-83.702
23443.0,77.563,-1.3175,-40.976,-85.702
23453.0,75.563,-1.3175,-40.976,-84.702
23463.0,73.563,-2.3175,-41.976,-83.702
23472.0,70.563,-3.3175,-42.976,-84.702
23482.0,65.563,-3.3175,-43.976,-85.702
23492.0,63.563,-5.3175,-44.976,-85.702
23502.0,59.563,-4.3175,-42.976,-84.702
23512.0,56.563,-5.3175,-41.976,-85.702
23522.0,53.563,-7.3175,-40.976,-84.702
23532.0,50.563,-7.3175,-43.976,-85.702
23542.0,45.563,-9.3175,-43.976,-86.702
23552.0,43.563,-10.317,-44.976,-85.702
23561.0,44.563,-6.3175,-45.976,-87.702
23571.0,46.563,-6.3175,-46.976,-87.702
23581.0,50.563,-5.3175,-48.976,-87.702
23591.0,56.563,-3.3175,-46.976,-87.702
23601.0,62.563,0.68251,-47.976,-87.702
23611.0,69.563,1.6825,-50.976,-88.702
23621.0,75.563,1.6825,-47.976,-87.702
23631.0,79.563,1.6825,-45.976,-86.702
23641.0,83.563,2.6825,-38.976,-84.702
23650.0,88.563,4.6825,-33.976,-83.702
23660.0,90.563,4.6825,-28.976,-82.702
23670.0,95.563,6.6825,-26.976,-82.702
23680.0,99.563,5.6825,-26.976,-81.702
23690.0,100.56,5.6825,-22.976,-80.702
23700.0,99.563,4.6825,-19.976,-81.702
23710.0,97.563,5.6825,-16.976,-79.702
23720.0,96.563,3.6825,-13.976,-77.702
23729.0,93.563,1.6825,-13.976,-78.702
23739.0,91.563,1.6825,-13.976,-79.702
23749.0,90.563,1.6825,-13.976,-79.702
23759.0,89.563,0.68251,-14.976,-79.702
23769.0,89.563,0.68251,-13.976,-79.702
23779.0,88.563,1.6825,-12.976,-78.702
23789.0,88.563,1.6825,-12.976,-77.702
23799.0,88.563,2.6825,-11.976,-78.702
23809.0,88.563,2.6825,-9.9756,-76.702
23818.0,87.563,1.6825,-14.976,-78.702
23828.0,87.563,1.6825,-16.976,-79.702
23838.0,83.563,1.6825,-16.976,-79.702
23848.0,83.563,1.6825,-17.976,-79.702
23858.0,79.563,-0.31749,-15.976,-79.702
23868.0,79.563,-0.31749,-15.976,-79.702
23878.0,80.563,1.6825,-15.976,-79.702
23888.0,80.563,1.6825,-19.976,-80.702
23898.0,74.563,1.6825,-19.976,-79.702
23907.0,74.563,1.6825,-19.976,-79.702
23917.0,72.563,-0.31749,-20.976,-81.702
23927.0,71.563,0.68251,-20.976,-81.702
23937.0,69.563,0.68251,-22.976,-83.702
23947.0,66.563,-0.31749,-22.976,-83.702
23957.0,63.563,-0.31749,-23.976,-83.702
23967.0,62.563,-1.3175,-23.976,-83.702
23977.0,58.563,-2.3175,-22.976,-83.702
23987.0,55.563,-4.3175,-22.976,-83.702
23996.0,55.563,-3.3175,-22.976,-83.702
24006.0,51.563,-5.3175,-22.976,-83.702
24016.0,47.563,-4.3175,-26.976,-84.702
24026.0,45.563,-3.3175,-26.976,-84.702
24036.0,41.563,-4.3175,-32.976,-87.702
24046.0,39.563,-4.3175,-32.976,-87.702
24056.0,40.563,-2.3175,-30.976,-87.702
24066.0,41.563,-0.31749,-30.976,-87.702
24075.0,44.563,1.6825,-31.976,-87.702
24085.0,48.563,4.6825,-34.976,-88.702
24095.0,55.563,7.6825,-37.976,-88.702
24105.0,64.563,11.683,-38.976,-89.702
24115.0,72.563,13.683,-37.976,-90.702
24125.0,81.563,16.683,-36.976,-89.702
24135.0,85.563,17.683,-32.976,-88.702
24145.0,91.563,19.683,-28.976,-87.702
24155.0,99.563,20.683,-21.976,-84.702
24164.0,103.56,22.683,-13.976,-82.702
24174.0,109.56,24.683,-8.9756,-78.702
24184.0,114.56,25.683,-4.9756,-78.702
24194.0,118.56,27.683,-1.9756,-78.702
24204.0,116.56,28.683,0.024387,-76.702
24214.0,119.56,28.683,5.0244,-75.702
24224.0,118.56,27.683,10.024,-73.702
24234.0,116.56,27.683,13.024,-71.702
24244.0,115.56,26.683,17.024,-70.702
24253.0,116.56,28.683,16.024,-71.702
24263.0,112.56,28.683,15.024,-73.702
24273.0,114.56,28.683,14.024,-73.702
24283.0,113.56,28.683,13.024,-74.702
24293.0,111.56,29.683,15.024,-72.702
24303.0,111.56,29.683,12.024,-73.702
24313.0,109.56,29.683,11.024,-74.702
24323.0,107.56,28.683,10.024,-74.702
24333.0,106.56,27.683,9.0244,-75.702
24342.0,106.56,26.683,8.0244,-76.702
24352.0,105.56,27.683,9.0244,-77.702
24362.0,104.56,26.683,8.0244,-77.702
24372.0,102.56,24.683,8.0244,-77.702
24382.0,100.56,24.683,7.0244,-76.702
24392.0,97.563,23.683,6.0244,-78.702
24402.0,94.563,23.683,7.0244,-78.702
24412.0,93.563,22.683,6.0244,-78.702
24421.0,90.563,21.683,8.0244,-77.702
24431.0,84.563,19.683,8.0244,-77.702
24441.0,84.563,18.683,6.0244,-77.702
24451.0,80.563,17.683,7.0244,-78.702
24461.0,76.563,15.683,1.0244,-79.702
24471.0,72.563,15.683,2.0244,-79.702
24481.0,68.563,12.683,2.0244,-81.702
24491.0,65.563,12.683,2.0244,-82.702
24501.0,65.563,12.683,2.0244,-80.702
24510.0,56.563,8.6825,-0.97561,-81.702
24520.0,56.563,8.6825,-3.9756,-83.702
24530.0,48.563,6.6825,-6.9756,-84.702
24540.0,48.563,6.6825,-8.9756,-85.702
24550.0,38.563,2.6825,-9.9756,-84.702
24560.0,38.563,2.6825,-9.9756,-85.702
24570.0,34.563,2.6825,-9.9756,-85.702
24580.0,34.563,2.6825,-13.976,-87.702
24590.0,36.563,3.6825,-14.976,-88.702
24599.0,36.563,3.6825,-17.976,-89.702
24609.0,44.563,6.6825,-17.976,-89.702
24619.0,44.563,6.6825,-16.976,-89.702
24629.0,56.563,7.6825,-17.976,-89.702
24639.0,56.563,7.6825,-16.976,-89.702
24649.0,58.563,7.6825,-13.976,-88.702
24659.0,65.563,7.6825,-10.976,-88.702
24669.0,70.563,10.683,-3.9756,-86.702
24679.0,74.563,10.683,-1.9756,-86.702
24688.0,78.563,12.683,3.0244,-85.702
24698.0,79.563,13.683,3.0244,-85.702
24708.0,82.563,13.683,7.0244,-85.702
24718.0,81.563,12.683,10.024,-84.702
24728.0,81.563,13.683,13.024,-82.702
24738.0,81.563,13.683,16.024,-82.702
24748.0,77.563,10.683,18.024,-81.702
24758.0,73.563,9.6825,17.024,-81.702
24767.0,69.563,9.6825,16.024,-82.702
24777.0,69.563,7.6825,14.024,-81.702
24787.0,66.563,7.6825,15.024,-82.702
24797.0,63.563,6.6825,15.024,-81.702
24807.0,60.563,3.6825,14.024,-82.702
24817.0,57.563,3.6825,14.024,-82.702
24827.0,54.563,1.6825,12.024,-82.702
24837.0,51.563,0.68251,10.024,-83.702
24847.0,47.563,-1.3175,11.024,-83.702
24856.0,47.563,-3.3175,11.024,-83.702
24866.0,43.563,-5.3175,8.0244,-84.702
24876.0,40.563,-7.3175,8.0244,-84.702
24886.0,34.563,-11.317,4.0244,-87.702
24896.0,31.563,-11.317,4.0244,-87.702
24906.0,28.563,-12.317,4.0244,-86.702
24916.0,23.563,-14.317,4.0244,-86.702
24926.0,19.563,-14.317,4.0244,-88.702
24936.0,20.563,-14.317,4.0244,-88.702
24945.0,16.563,-14.317,-3.9756,-89.702
24955.0,14.563,-16.317,-3.9756,-89.702
24965.0,12.563,-15.317,-6.9756,-91.702
24975.0,9.5635,-15.317,-6.9756,-91.702
24985.0,9.5635,-15.317,-5.9756,-92.702
24995.0,6.5635,-13.317,-5.9756,-92.702
25005.0,6.5635,-12.317,-10.976,-91.702
25015.0,3.5635,-12.317,-10.976,-91.702
25025.0,2.5635,-11.317,-14.976,-94.702
25034.0,0.56347,-10.317,-14.976,-94.702
25044.0,-3.4365,-12.317,-20.976,-97.702
25054.0,-7.4365,-12.317,-20.976,-97.702
25064.0,-12.437,-14.317,-21.976,-97.702
25074.0,-13.437,-13.317,-23.976,-98.702
25084.0,-13.437,-11.317,-23.976,-98.702
25094.0,-9.4365,-9.3175,-26.976,-99.702
25104.0,-6.4365,-8.3175,-31.976,-102.7
25113.0,1.5635,-3.3175,-34.976,-103.7
25123.0,9.5635,0.68251,-36.976,-104.7
25133.0,14.563,1.6825,-37.976,-103.7
25143.0,20.563,3.6825,-36.976,-102.7
25153.0,27.563,4.6825,-34.976,-102.7
25163.0,32.563,5.6825,-32.976,-102.7
25173.0,38.563,7.6825,-31.976,-100.7
25183.0,42.563,7.6825,-27.976,-101.7
25193.0,44.563,6.6825,-26.976,-101.7
25202.0,44.563,7.6825,-23.976,-101.7
25212.0,49.563,7.6825,-23.976,-101.7
25222.0,49.563,8.6825,-21.976,-100.7
25232.0,49.563,8.6825,-22.976,-101.7
25242.0,42.563,4.6825,-20.976,-101.7
25252.0,42.563,4.6825,-21.976,-101.7
25262.0,36.563,1.6825,-22.976,-102.7
25272.0,36.563,1.6825,-23.976,-102.7
25282.0,28.563,-0.31749,-21.976,-103.7
25291.0,28.563,-0.31749,-19.976,-102.7
25301.0,24.563,-4.3175,-24.976,-102.7
25311.0,24.563,-4.3175,-25.976,-104.7
25321.0,18.563,-6.3175,-26.976,-104.7
25331.0,18.563,-6.3175,-28.976,-104.7
25341.0,14.563,-9.3175,-28.976,-106.7
25351.0,14.563,-9.3175,-31.976,-105.7
25361.0,9.5635,-11.317,-34.976,-105.7
25371.0,10.563,-12.317,-38.976,-107.7
25380.0,9.5635,-12.317,-39.976,-108.7
25390.0,5.5635,-15.317,-39.976,-109.7
25400.0,5.5635,-15.317,-40.976,-110.7
25410.0,0.56347,-16.317,-42.976,-110.7
25420.0,-0.43653,-17.317,-46.976,-111.7
25430.0,-2.4365,-18.317,-47.976,-112.7
25440.0,-6.4365,-19.317,-51.976,-114.7
25450.0,-7.4365,-21.317,-52.976,-114.7
25459.0,-7.4365,-20.317,-54.976,-115.7
25469.0,-9.4365,-20.317,-54.976,-115.7
25479.0,-9.4365,-22.317,-55.976,-116.7
25489.0,-10.437,-20.317,-58.976,-117.7
25499.0,-10.437,-20.317,-61.976,-119.7
25509.0,-5.4365,-19.317,-66.976,-120.7
25519.0,-5.4365,-18.317,-68.976,-122.7
25529.0,-6.4365,-18.317,-71.976,-122.7
25539.0,-7.4365,-18.317,-71.976,-124.7
25548.0,-10.437,-19.317,-72.976,-124.7
25558.0,-12.437,-19.317,-78.976,-126.7
25568.0,-18.437,-21.317,-81.976,-127.7
25578.0,-22.437,-22.317,-82.976,-129.7
25588.0,-22.437,-20.317,-84.976,-129.7
25598.0,-22.437,-18.317,-86.976,-130.7
25608.0,-19.437,-16.317,-89.976,-131.7
25618.0,-17.437,-13.317,-95.976,-133.7
25628.0,-13.437,-12.317,-100.98,-136.7
25637.0,-11.437,-12.317,-101.98,-137.7
25647.0,-10.437,-15.317,-99.976,-134.7
25657.0,-9.4365,-15.317,-95.976,-134.7
25667.0,-2.4365,-15.317,-91.976,-133.7
25677.0,4.5635,-14.317,-89.976,-133.7
25687.0,7.5635,-13.317,-90.976,-134.7
25697.0,9.5635,-14.317,-90.976,-134.7
25707.0,11.563,-14.317,-87.976,-134.7
25717.0,11.563,-14.317,-84.976,-134.7
25726.0,10.563,-16.317,-83.976,-134.7
25736.0,10.563,-17.317,-83.976,-134.7
25746.0,8.5635,-17.317,-83.976,-135.7
25756.0,5.5635,-19.317,-84.976,-135.7
25766.0,2.5635,-22.317,-85.976,-136.7
25776.0,1.5635,-22.317,-88.976,-137.7
25786.0,-1.4365,-21.317,-88.976,-138.7
25796.0,-3.4365,-21.317,-89.976,-139.7
25805.0,-4.4365,-20.317,-90.976,-140.7
25815.0,-3.4365,-17.317,-95.976,-141.7
25825.0,-1.4365,-13.317,-97.976,-143.7
25835.0,0.56347,-8.3175,-100.98,-144.7
25845.0,3.5635,-6.3175,-103.98,-144.7
25855.0,2.5635,-4.3175,-103.98,-145.7
25865.0,3.5635,-1.3175,-105.98,-145.7
25875.0,5.5635,-0.31749,-107.98,-146.7
25885.0,5.5635,1.6825,-108.98,-148.7
25894.0,3.5635,2.6825,-113.98,-149.7
25904.0,3.5635,3.6825,-115.98,-150.7
25914.0,0.56347,4.6825,-115.98,-149.7
25924.0,2.5635,2.6825,-115.98,-149.7
25934.0,-1.4365,4.6825,-117.98,-151.7
25944.0,-7.4365,2.6825,-117.98,-151.7
25954.0,-10.437,2.6825,-123.98,-155.7
25964.0,-10.437,2.6825,-123.98,-155.7
25974.0,-17.437,-1.3175,-128.98,-156.7
25983.0,-17.437,-1.3175,-128.98,-156.7
25993.0,-25.437,-2.3175,-130.98,-155.7
26003.0,-25.437,-2.3175,-130.98,-155.7
26013.0,-34.437,-6.3175,-132.98,-158.7
26023.0,-34.437,-6.3175,-132.98,-158.7
26033.0,-43.437,-8.3175,-140.98,-161.7
26043.0,-43.437,-8.3175,-140.98,-161.7
26053.0,-49.437,-11.317,-140.98,-162.7
26063.0,-49.437,-11.317,-140.98,-162.7
26072.0,-58.437,-15.317,-147.98,-163.7
26082.0,-58.437,-15.317,-147.98,-163.7
26092.0,-62.437,-15.317,-152.98,-165.7
26102.0,-62.437,-13.317,-152.98,-166.7
26112.0,-59.437,-11.317,-157.98,-169.7
26122.0,-57.437,-10.317,-162.98,-171.7
26132.0,-49.437,-7.3175,-166.98,-173.7
26142.0,-42.437,-4.3175,-169.98,-172.7
26151.0,-36.437,-3.3175,-169.98,-173.7
26161.0,-30.437,-4.3175,-171.98,-174.7
26171.0,-25.437,-1.3175,-170.98,-174.7
26181.0,-16.437,-0.31749,-168.98,-174.7
26191.0,-14.437,1.6825,-164.98,-173.7
26201.0,-6.4365,3.6825,-162.98,-175.7
26211.0,2.5635,7.6825,-163.98,-176.7
26221.0,4.5635,8.6825,-164.98,-176.7
26231.0,8.5635,10.683,-164.98,-176.7
26240.0,11.563,9.6825,-162.98,-176.7
26250.0,7.5635,8.6825,-161.98,-176.7
26260.0,7.5635,8.6825,-161.98,-176.7
26270.0,5.5635,7.6825,-162.98,-177.7
26280.0,3.5635,7.6825,-164.98,-178.7
26290.0,4.5635,7.6825,-164.98,-178.7
26300.0,3.5635,8.6825,-163.98,-179.7
26310.0,2.5635,9.6825,-163.98,-179.7
26320.0,1.5635,7.6825,-166.98,-181.7
26329.0,1.5635,7.6825,-172.98,-182.7
26339.0,-3.4365,6.6825,-175.98,-184.7
26349.0,-4.4365,5.6825,-175.98,-184.7
26359.0,-6.4365,6.6825,-176.98,-183.7
26369.0,-5.4365,7.6825,-177.98,-183.7
26379.0,-6.4365,7.6825,-178.98,-185.7
26389.0,-6.4365,6.6825,-183.98,-186.7
26399.0,-7.4365,4.6825,-187.98,-188.7
26409.0,-10.437,4.6825,-189.98,-188.7
26418.0,-12.437,2.6825,-189.98,-188.7
26428.0,-15.437,3.6825,-189.98,-189.7
26438.0,-16.437,2.6825,-191.98,-189.7
26448.0,-19.437,2.6825,-192.98,-190.7
26458.0,-20.437,1.6825,-196.98,-192.7
26468.0,-22.437,0.68251,-198.98,-192.7
26478.0,-25.437,0.68251,-199.98,-193.7
26488.0,-27.437,-1.3175,-197.98,-193.7
26497.0,-30.437,-2.3175,-199.98,-194.7
26507.0,-34.437,-2.3175,-201.98,-195.7
26517.0,-38.437,-3.3175,-205.98,-195.7
26527.0,-41.437,-4.3175,-206.98,-196.7
26537.0,-45.437,-5.3175,-209.98,-196.7
26547.0,-48.437,-7.3175,-208.98,-198.7
26557.0,-52.437,-6.3175,-213.98,-199.7
26567.0,-55.437,-8.3175,-217.98,-202.7
26577.0,-60.437,-10.317,-219.98,-201.7
26586.0,-62.437,-10.317,-219.98,-201.7
26596.0,-61.437,-9.3175,-220.98,-201.7
26606.0,-57.437,-7.3175,-224.98,-202.7
26616.0,-56.437,-5.3175,-226.98,-203.7
26626.0,-50.437,-2.3175,-229.98,-205.7
26636.0,-42.437,-0.31749,-231.98,-205.7
26646.0,-37.437,0.68251,-232.98,-204.7
26656.0,-31.437,0.68251,-230.98,-205.7
26666.0,-25.437,2.6825,-227.98,-204.7
26675.0,-18.437,3.6825,-223.98,-203.7
26685.0,-12.437,4.6825,-220.98,-202.7
26695.0,-12.437,4.6825,-217.98,-202.7
26705.0,-6.4365,5.6825,-213.98,-200.7
26715.0,-6.4365,5.6825,-210.98,-200.7
26725.0,-1.4365,5.6825,-209.98,-200.7
26735.0,-1.4365,5.6825,-209.98,-201.7
26745.0,-2.4365,4.6825,-208.98,-201.7
26755.0,-2.4365,4.6825,-209.98,-200.7
26764.0,-8.4365,1.6825,-207.98,-200.7
26774.0,-8.4365,1.6825,-205.98,-200.7
26784.0,-9.4365,0.68251,-207.98,-200.7
26794.0,-9.4365,0.68251,-208.98,-200.7
26804.0,-10.437,0.68251,-206.98,-200.7
26814.0,-10.437,0.68251,-206.98,-202.7
26824.0,-11.437,-0.31749,-208.98,-202.7
26834.0,-13.437,-1.3175,-210.98,-201.7
26843.0,-17.437,-2.3175,-209.98,-201.7
26853.0,-16.437,-3.3175,-209.98,-201.7
26863.0,-17.437,-1.3175,-211.98,-200.7
26873.0,-17.437,-2.3175,-211.98,-200.7
26883.0,-17.437,-1.3175,-209.98,-200.7
26893.0,-18.437,-1.3175,-209.98,-200.7
26903.0,-18.437,-1.3175,-211.98,-201.7
26913.0,-22.437,-2.3175,-211.98,-201.7
26923.0,-23.437,-2.3175,-214.98,-202.7
26932.0,-26.437,-3.3175,-214.98,-202.7
26942.0,-24.437,-4.3175,-211.98,-200.7
26952.0,-28.437,-3.3175,-211.98,-200.7
26962.0,-29.437,-4.3175,-212.98,-201.7
26972.0,-34.437,-5.3175,-212.98,-201.7
26982.0,-36.437,-5.3175,-214.98,-201.7
26992.0,-38.437,-5.3175,-214.98,-201.7
27002.0,-42.437,-9.3175,-215.98,-201.7
27012.0,-45.437,-9.3175,-215.98,-201.7
27021.0,-49.437,-10.317,-216.98,-201.7
27031.0,-53.437,-11.317,-214.98,-201.7
27041.0,-57.437,-12.317,-214.98,-200.7
27051.0,-60.437,-13.317,-217.98,-201.7
27061.0,-62.437,-12.317,-218.98,-202.7
27071.0,-66.437,-14.317,-219.98,-203.7
27081.0,-71.437,-16.317,-222.98,-203.7
27091.0,-72.437,-15.317,-221.98,-203.7
27100.0,-70.437,-13.317,-222.98,-202.7
27110.0,-65.437,-11.317,-221.98,-201.7
27120.0,-59.437,-6.3175,-225.98,-203.7
27130.0,-52.437,-3.3175,-226.98,-204.7
27140.0,-43.437,-0.31749,-228.98,-205.7
27150.0,-41.437,-1.3175,-227.98,-204.7
27160.0,-33.437,1.6825,-225.98,-202.7
27170.0,-29.437,2.6825,-223.98,-203.7
27180.0,-19.437,4.6825,-220.98,-201.7
27189.0,-13.437,7.6825,-216.98,-200.7
27199.0,-8.4365,9.6825,-213.98,-198.7
27209.0,-5.4365,8.6825,-207.98,-198.7
27219.0,-1.4365,8.6825,-208.98,-197.7
27229.0,-2.4365,7.6825,-203.98,-197.7
27239.0,-3.4365,7.6825,-200.98,-194.7
27249.0,-2.4365,8.6825,-197.98,-193.7
27259.0,-2.4365,8.6825,-194.98,-192.7
27269.0,-5.4365,7.6825,-193.98,-193.7
27278.0,-5.4365,7.6825,-191.98,-192.7
27288.0,-4.4365,8.6825,-192.98,-191.7
27298.0,-7.4365,9.6825,-187.98,-189.7
27308.0,-6.4365,9.6825,-186.98,-189.7
27318.0,-6.4365,10.683,-186.98,-188.7
27328.0,-4.4365,11.683,-187.98,-188.7
27338.0,-5.4365,9.6825,-186.98,-189.7
27348.0,-6.4365,11.683,-186.98,-188.7
27358.0,-7.4365,12.683,-187.98,-187.7
27367.0,-5.4365,12.683,-183.98,-186.7
27377.0,-6.4365,13.683,-184.98,-186.7
27387.0,-5.4365,14.683,-187.98,-186.7
27397.0,-5.4365,13.683,-186.98,-186.7
27407.0,-7.4365,14.683,-184.98,-187.7
27417.0,-8.4365,13.683,-187.98,-187.7
27427.0,-8.4365,13.683,-185.98,-185.7
27437.0,-10.437,15.683,-185.98,-184.7
27446.0,-10.437,15.683,-184.98,-184.7
27456.0,-14.437,14.683,-187.98,-185.7
27466.0,-14.437,14.683,-185.98,-184.7
27476.0,-16.437,14.683,-186.98,-185.7
27486.0,-16.437,14.683,-185.98,-185.7
27496.0,-19.437,16.683,-187.98,-185.7
27506.0,-19.437,16.683,-186.98,-184.7
27516.0,-24.437,14.683,-188.98,-183.7
27526.0,-24.437,14.683,-186.98,-183.7
27535.0,-30.437,13.683,-185.98,-182.7
27545.0,-30.437,13.683,-186.98,-182.7
27555.0,-33.437,12.683,-188.98,-183.7
27565.0,-33.437,12.683,-189.98,-183.7
27575.0,-36.437,12.683,-190.98,-184.7
27585.0,-39.437,11.683,-189.98,-183.7
27595.0,-39.437,12.683,-190.98,-183.7
27605.0,-38.437,14.683,-191.98,-184.7
27615.0,-32.437,17.683,-191.98,-183.7
27624.0,-27.437,20.683,-193.98,-185.7
27634.0,-19.437,24.683,-192.98,-184.7
27644.0,-12.437,26.683,-190.98,-183.7
27654.0,-4.4365,28.683,-190.98,-181.7
27664.0,4.5635,32.683,-187.98,-181.7
27674.0,9.5635,32.683,-183.98,-180.7
27684.0,16.563,35.683,-177.98,-180.7
27694.0,23.563,36.683,-172.98,-178.7
27704.0,30.563,39.683,-170.98,-176.7
27713.0,35.563,40.683,-166.98,-175.7
27723.0,38.563,42.683,-163.98,-174.7
27733.0,40.563,42.683,-162.98,-174.7
27743.0,41.563,44.683,-162.98,-173.7
27753.0,46.563,44.683,-159.98,-172.7
27763.0,45.563,45.683,-156.98,-171.7
27773.0,44.563,45.683,-154.98,-170.7
27783.0,44.563,45.683,-152.98,-169.7
27792.0,41.563,46.683,-151.98,-169.7
27802.0,42.563,46.683,-151.98,-169.7
27812.0,44.563,46.683,-152.98,-169.7
27822.0,41.563,47.683,-152.98,-169.7
27832.0,42.563,48.683,-152.98,-168.7
27842.0,40.563,48.683,-152.98,-168.7
27852.0,41.563,49.683,-156.98,-169.7
27862.0,42.563,49.683,-156.98,-169.7
27872.0,41.563,50.683,-154.98,-167.7
27881.0,42.563,50.683,-154.98,-167.7
27891.0,44.563,52.683,-152.98,-166.7
27901.0,42.563,52.683,-152.98,-166.7
27911.0,42.563,52.683,-151.98,-167.7
27921.0,43.563,53.683,-151.98,-167.7
27931.0,40.563,52.683,-154.98,-167.7
27941.0,39.563,52.683,-154.98,-167.7
27951.0,38.563,53.683,-152.98,-165.7
27961.0,36.563,52.683,-152.98,-165.7
27970.0,34.563,51.683,-150.98,-164.7
27980.0,32.563,51.683,-150.98,-164.7
27990.0,29.563,50.683,-153.98,-164.7
28000.0,25.563,50.683,-153.98,-164.7
28010.0,22.563,49.683,-153.98,-166.7
28020.0,18.563,48.683,-153.98,-166.7
28030.0,16.563,47.683,-152.98,-164.7
28040.0,13.563,47.683,-154.98,-165.7
28050.0,11.563,46.683,-154.98,-164.7
28059.0,7.5635,46.683,-155.98,-165.7
28069.0,2.5635,45.683,-157.98,-166.7
28079.0,0.56347,44.683,-157.98,-165.7
28089.0,2.5635,44.683,-157.98,-166.7
28099.0,4.5635,47.683,-157.98,-165.7
28109.0,7.5635,49.683,-159.98,-165.7
28119.0,11.563,52.683,-160.98,-165.7
28129.0,19.563,53.683,-160.98,-166.7
28138.0,25.563,57.683,-162.98,-165.7
28148.0,32.563,57.683,-164.98,-166.7
28158.0,32.563,57.683,-163.98,-164.7
28168.0,43.563,60.683,-161.98,-165.7
28178.0,43.563,60.683,-158.98,-164.7
28188.0,55.563,61.683,-152.98,-163.7
28198.0,55.563,61.683,-150.98,-162.7
28208.0,60.563,65.683,-146.98,-161.7
28218.0,60.563,65.683,-143.98,-160.7
28227.0,66.563,65.683,-141.98,-159.7
28237.0,66.563,65.683,-140.98,-159.7
28247.0,71.563,66.683,-139.98,-160.7
28257.0,71.563,66.683,-138.98,-159.7
28267.0,67.563,66.683,-136.98,-157.7
28277.0,67.563,66.683,-136.98,-156.7
28287.0,66.563,67.683,-133.98,-157.7
28297.0,66.563,67.683,-134.98,-158.7
28307.0,66.563,65.683,-134.98,-157.7
28316.0,65.563,67.683,-134.98,-157.7
28326.0,65.563,68.683,-133.98,-156.7
28336.0,64.563,67.683,-136.98,-157.7
28346.0,63.563,67.683,-134.98,-156.7
28356.0,63.563,67.683,-134.98,-155.7
28366.0,62.563,66.683,-136.98,-157.7
28376.0,61.563,66.683,-135.98,-156.7
28386.0,59.563,65.683,-135.98,-155.7
28396.0,59.563,66.683,-135.98,-155.7
28405.0,58.563,65.683,-135.98,-154.7
28415.0,56.563,64.683,-136.98,-155.7
28425.0,55.563,63.683,-139.98,-155.7
28435.0,52.563,63.683,-139.98,-156.7
28445.0,50.563,63.683,-138.98,-155.7
28455.0,48.563,61.683,-137.98,-153.7
28465.0,47.563,60.683,-135.98,-154.7
28475.0,42.563,60.683,-138.98,-154.7
28484.0,39.563,59.683,-139.98,-155.7
28494.0,38.563,59.683,-140.98,-155.7
28504.0,35.563,60.683,-140.98,-155.7
28514.0,33.563,58.683,-140.98,-155.7
28524.0,31.563,58.683,-140.98,-155.7
28534.0,28.563,56.683,-141.98,-156.7
28544.0,24.563,55.683,-144.98,-158.7
28554.0,21.563,56.683,-146.98,-158.7
28564.0,19.563,55.683,-148.98,-157.7
28573.0,16.563,54.683,-150.98,-159.7
28583.0,13.563,54.683,-150.98,-158.7
28593.0,15.563,57.683,-152.98,-159.7
28603.0,18.563,58.683,-156.98,-161.7
28613.0,19.563,60.683,-158.98,-162.7
28623.0,27.563,63.683,-161.98,-163.7
28633.0,33.563,65.683,-161.98,-162.7
28643.0,38.563,65.683,-160.98,-162.7
28653.0,43.563,67.683,-158.98,-163.7
28662.0,51.563,69.683,-155.98,-162.7
28672.0,56.563,69.683,-150.98,-161.7
28682.0,63.563,71.683,-149.98,-160.7
28692.0,67.563,71.683,-146.98,-159.7
28702.0,69.563,72.683,-141.98,-157.7
28712.0,69.563,70.683,-140.98,-158.7
28722.0,68.563,69.683,-135.98,-156.7
28732.0,68.563,67.683,-135.98,-156.7
28742.0,66.563,66.683,-135.98,-157.7
28751.0,62.563,65.683,-136.98,-157.7
28761.0,60.563,61.683,-136.98,-157.7
28771.0,59.563,61.683,-137.98,-157.7
28781.0,54.563,60.683,-136.98,-157.7
28791.0,53.563,60.683,-138.98,-158.7
28801.0,51.563,58.683,-137.98,-157.7
28811.0,48.563,58.683,-140.98,-159.7
28821.0,48.563,57.683,-143.98,-159.7
28830.0,46.563,57.683,-144.98,-161.7
28840.0,43.563,56.683,-144.98,-161.7
28850.0,43.563,56.683,-147.98,-161.7
28860.0,43.563,56.683,-149.98,-163.7
28870.0,41.563,55.683,-149.98,-163.7
28880.0,40.563,55.683,-152.98,-164.7
28890.0,40.563,55.683,-152.98,-164.7
28900.0,40.563,53.683,-156.98,-166.7
28910.0,40.563,53.683,-156.98,-166.7
28919.0,34.563,53.683,-159.98,-167.7
28929.0,34.563,53.683,-159.98,-167.7
28939.0,32.563,51.683,-158.98,-166.7
28949.0,32.563,51.683,-158.98,-166.7
28959.0,27.563,50.683,-161.98,-166.7
28969.0,27.563,50.683,-161.98,-166.7
28979.0,21.563,47.683,-163.98,-168.7
28989.0,21.563,47.683,-163.98,-168.7
28999.0,14.563,46.683,-163.98,-168.7
29008.0,14.563,46.683,-163.98,-168.7
29018.0,9.5635,44.683,-167.98,-170.7
29028.0,9.5635,44.683,-167.98,-170.7
29038.0,6.5635,43.683,-169.98,-171.7
29048.0,2.5635,41.683,-170.98,-172.7
29058.0,-1.4365,41.683,-173.98,-172.7
29068.0,-4.4365,40.683,-174.98,-173.7
29078.0,-4.4365,41.683,-175.98,-174.7
29088.0,-2.4365,43.683,-176.98,-174.7
29097.0,1.5635,45.683,-179.98,-174.7
29107.0,5.5635,49.683,-181.98,-175.7
29117.0,10.563,51.683,-182.98,-175.7
29127.0,18.563,54.683,-183.98,-175.7
29137.0,24.563,55.683,-183.98,-176.7
29147.0,32.563,57.683,-185.98,-176.7
29157.0,39.563,58.683,-185.98,-176.7
29167.0,48.563,60.683,-183.98,-176.7
29176.0,54.563,62.683,-178.98,-175.7
29186.0,61.563,63.683,-174.98,-176.7
29196.0,67.563,65.683,-171.98,-174.7
29206.0,73.563,67.683,-167.98,-173.7
29216.0,76.563,66.683,-164.98,-172.7
29226.0,78.563,68.683,-164.98,-173.7
29236.0,77.563,66.683,-162.98,-173.7
29246.0,76.563,65.683,-161.98,-172.7
29256.0,75.563,64.683,-160.98,-171.7
29265.0,75.563,63.683,-157.98,-171.7
29275.0,73.563,62.683,-158.98,-171.7
29285.0,72.563,64.683,-161.98,-172.7
29295.0,70.563,62.683,-164.98,-172.7
29305.0,72.563,64.683,-163.98,-173.7
29315.0,71.563,63.683,-164.98,-174.7
29325.0,70.563,63.683,-164.98,-173.7
29335.0,67.563,63.683,-165.98,-174.7
29345.0,68.563,61.683,-166.98,-174.7
29354.0,67.563,61.683,-168.98,-174.7
29364.0,68.563,60.683,-171.98,-175.7
29374.0,69.563,61.683,-172.98,-177.7
29384.0,68.563,59.683,-176.98,-179.7
29394.0,67.563,59.683,-177.98,-178.7
29404.0,64.563,58.683,-178.98,-179.7
29414.0,62.563,58.683,-178.98,-179.7
29424.0,62.563,58.683,-179.98,-179.7
29434.0,58.563,57.683,-178.98,-180.7
29443.0,57.563,56.683,-180.98,-180.7
29453.0,55.563,55.683,-179.98,-181.7
29463.0,52.563,53.683,-179.98,-181.7
29473.0,50.563,53.683,-182.98,-182.7
29483.0,46.563,51.683,-183.98,-182.7
29493.0,43.563,51.683,-183.98,-182.7
29503.0,41.563,49.683,-185.98,-182.7
29513.0,36.563,48.683,-187.98,-183.7
29522.0,33.563,47.683,-190.98,-184.7
29532.0,29.563,46.683,-190.98,-186.7
29542.0,26.563,44.683,-193.98,-186.7
29552.0,23.563,42.683,-193.98,-186.7
29562.0,19.563,42.683,-195.98,-186.7
29572.0,21.563,44.683,-193.98,-187.7
29582.0,23.563,45.683,-196.98,-187.7
29592.0,25.563,48.683,-198.98,-189.7
29602.0,32.563,50.683,-200.98,-189.7
29611.0,39.563,52.683,-200.98,-189.7
29621.0,39.563,52.683,-201.98,-189.7
29631.0,55.563,56.683,-201.98,-189.7
29641.0,55.563,56.683,-196.98,-190.7
29651.0,70.563,60.683,-194.98,-188.7
29661.0,70.563,60.683,-190.98,-187.7
29671.0,83.563,64.683,-188.98,-186.7
29681.0,83.563,64.683,-182.98,-185.7
29691.0,93.563,66.683,-181.98,-185.7
29700.0,93.563,66.683,-179.98,-185.7
29710.0,99.563,66.683,-175.98,-184.7
29720.0,99.563,66.683,-172.98,-184.7
29730.0,99.563,66.683,-172.98,-184.7
29740.0,99.563,66.683,-169.98,-183.7
29750.0,96.563,65.683,-170.98,-184.7
29760.0,96.563,64.683,-169.98,-183.7
29770.0,96.563,64.683,-170.98,-184.7
29780.0,95.563,63.683,-168.98,-184.7
29789.0,94.563,64.683,-169.98,-184.7
29799.0,91.563,63.683,-169.98,-184.7
29809.0,91.563,63.683,-169.98,-184.7
29819.0,93.563,62.683,-169.98,-184.7
29829.0,92.563,61.683,-170.98,-184.7
29839.0,90.563,61.683,-170.98,-184.7
29849.0,90.563,61.683,-170.98,-183.7
29859.0,89.563,61.683,-170.98,-183.7
29868.0,89.563,60.683,-172.98,-184.7
29878.0,90.563,61.683,-172.98,-184.7
29888.0,88.563,60.683,-173.98,-185.7
29898.0,88.563,59.683,-173.98,-185.7
29908.0,86.563,59.683,-173.98,-185.7
29918.0,86.563,59.683,-173.98,-185.7
29928.0,82.563,57.683,-173.98,-184.7
29938.0,81.563,56.683,-173.98,-184.7
29948.0,79.563,57.683,-174.98,-186.7
29957.0,75.563,55.683,-174.98,-186.7
29967.0,73.563,54.683,-174.98,-185.7
29977.0,73.563,54.683,-174.98,-185.7
29987.0,67.563,51.683,-174.98,-187.7
29997.0,63.563,50.683,-174.98,-186.7
