t,lead_I,lead_II,v3,v4
0.0,18985,-21343,124111,114458
2.0,19408,-20768,124360,114728
4.0,18879,-20725,124468,114809
6.0,18376,-20931,124307,114591
8.0,19094,-20778,124156,114396
10.0,19768,-20685,123987,114196
12.0,19144,-21016,123490,113652
14.0,18449,-21031,123035,113144
16.0,18760,-20329,123234,113318
18.0,18841,-19878,123679,113755
20.0,17734,-20495,123604,113644
22.0,16584,-21623,123216,113195
24.0,16341,-22356,123066,113011
26.0,16488,-22466,123091,113059
28.0,16942,-22014,123144,113162
30.0,18261,-21152,123304,113358
32.0,19637,-20530,123371,113440
34.0,19709,-20667,123151,113214
36.0,18970,-21044,122984,113020
38.0,18563,-21108,123163,113162
40.0,18157,-21423,123427,113404
42.0,17418,-22290,123468,113446
44.0,17162,-22649,123307,113283
46.0,17460,-21959,123102,113055
48.0,17529,-21219,123033,112947
50.0,17717,-20939,123135,113017
52.0,18527,-20572,123175,113036
54.0,18972,-20386,123034,112879
56.0,18483,-21071,122962,112804
58.0,17966,-21975,123114,112967
60.0,17604,-22318,123293,113144
62.03,16796,-22691,123364,113180
64.05,16207,-23272,123395,113187
66.08,16727,-22982,123386,113221
68.1,17702,-21909,123306,113223
70.1,18409,-21507,123237,113186
72.1,19059,-21680,123212,113111
74.1,19285,-21161,123170,112986
76.1,18307,-20613,123125,112888
78.1,16810,-21331,123088,112841
80.1,16332,-21858,122907,112668
82.1,16934,-20530,122544,112317
84.1,17271,-19590,122312,112105
86.1,16970,-21377,122501,112309
88.1,17294,-23263,122953,112738
90.1,18592,-22417,123254,112988
92.1,19009,-21488,123242,112949
94.1,17737,-23074,123170,112884
96.1,16988,-24022,123313,113027
98.1,17981,-21703,123433,113137
100.1,18442,-19499,123062,112784
102.1,16959,-20428,122455,112218
104.1,15661,-22155,122468,112273
106.1,16225,-22295,123143,113008
108.1,17449,-22045,123540,113482
110.1,18074,-22538,123353,113332
112.1,18316,-22893,123304,113255
114.1,18481,-22280,123582,113481
116.1,18519,-20952,123490,113328
118.1,18255,-20126,122951,112701
120.1,17377,-21018,122787,112467
122.1,16462,-22496,123266,112971
124.1,16948,-21996,123704,113503
126.1,18599,-20037,123587,113456
128.1,19396,-19630,123171,113064
130.1,19066,-20819,122973,112883
132.1,19215,-21017,123147,113071
134.1,19626,-20092,123399,113322
136.1,18745,-19833,123437,113372
138.1,17487,-20002,123382,113357
140.1,17842,-19525,123444,113449
142.1,18840,-19300,123463,113473
144.1,18463,-20242,123279,113308
146.1,17614,-21124,123205,113265
148.1,17978,-20653,123536,113607
150.1,18546,-19442,123973,114045
152.1,17998,-18848,124060,114153
154.1,17595,-19448,123849,113959
156.1,18609,-20684,123674,113767
158.1,19697,-21300,123585,113668
160.1,19255,-20818,123451,113571
162.1,17935,-20216,123347,113506
164.1,17222,-20149,123372,113511
166.1,17528,-19915,123392,113484
168.1,18584,-19176,123418,113507
170.1,19920,-18612,123670,113794
172.1,20484,-18339,123903,114042
174.1,19522,-18022,123587,113723
176.1,18028,-18143,123033,113186
178.1,17618,-18998,123093,113254
180.1,18128,-19768,123650,113771
182.1,18217,-20096,123828,113907
184.1,17892,-20512,123537,113622
186.1,18229,-20753,123353,113456
188.1,19095,-20192,123304,113398
190.1,19282,-19638,123049,113131
192.1,18503,-20271,122694,112776
194.1,17702,-21473,122546,112606
196.1,17706,-21686,122591,112605
198.1,18237,-20819,122644,112628
200.1,18299,-20305,122621,112595
202.1,17760,-20825,122582,112547
204.1,17799,-21366,122625,112590
206.1,18652,-21272,122630,112621
208.1,18654,-21469,122455,112482
210.1,17365,-22297,122391,112428
212.1,16904,-22419,122708,112712
214.1,18091,-21388,122974,112916
216.1,18852,-20618,122791,112680
218.1,18315,-20785,122554,112416
220.1,18320,-21038,122528,112373
222.1,19418,-21000,122324,112149
224.1,19780,-21078,121987,111807
226.1,18838,-21310,122080,111922
228.1,17882,-21584,122403,112253
230.1,17310,-21939,122272,112088
232.1,16908,-21988,121873,111662
234.1,17322,-21422,121825,111656
236.1,18328,-20898,122038,111950
238.1,18372,-21028,122124,112080
240.1,17739,-21309,122057,112018
242.1,18315,-21306,121918,111890
244.1,19583,-21493,121841,111839
246.1,19406,-21992,122098,112107
248.1,18045,-22291,122500,112487
250.1,17169,-22463,122433,112363
252.1,16928,-22612,121900,111746
254.1,17129,-22014,121518,111282
256.1,18183,-20963,121460,111158
258.1,19391,-21249,121413,111031
260.1,19610,-22938,121287,110791
262.1,19307,-23889,121214,110604
264.1,19141,-23525,121320,110648
266.1,18510,-23351,121734,111064
268.1,17509,-23709,122266,111670
270.1,17512,-23484,122463,112040
272.1,18650,-22294,122472,112306
274.1,19517,-20616,122975,113095
276.1,19663,-18857,123986,114410
278.1,19859,-17186,124800,115606
280.1,20173,-15398,125234,116490
282.1,20070,-13335,125819,117507
284.1,19913,-11538,126838,118932
286.1,20202,-10240,127904,120440
288.1,20109,-8703,128448,121405
290.1,19083,-7075,128455,121682
292.1,18527,-6940,128621,121971
294.1,19358,-8765,129328,122741
296.1,20085,-11203,129857,123243
298.1,19780,-13268,129578,122778
300.1,19848,-14761,129068,121931
302.1,20697,-15316,128714,121081
304.1,20588,-15223,127668,119315
306.1,19256,-15755,125723,116520
308.1,18567,-17263,124315,114446
310.1,19113,-18715,124195,114052
312.13,19697,-19537,124219,114078
314.15,19576,-20115,123581,113472
316.18,18897,-20688,122995,112853
318.2,18227,-21063,122947,112776
320.2,18352,-21081,122919,112778
322.2,19044,-20830,122650,112548
324.2,19003,-20606,122392,112298
326.2,18161,-20574,122129,112036
328.2,17685,-20703,121826,111759
330.2,17399,-21292,121850,111815
332.2,16473,-22554,122208,112182
334.2,16024,-23434,122243,112213
336.2,17367,-22772,121727,111701
338.2,18999,-21675,121325,111307
340.2,18973,-22017,121507,111494
342.2,18393,-22864,121865,111864
344.2,19063,-22018,121921,111948
346.2,19888,-20453,121866,111917
348.2,19112,-20638,121986,112027
350.2,17850,-21563,121949,111959
352.2,17892,-20815,121440,111439
354.2,18365,-19842,121035,111055
356.2,17897,-21177,121461,111500
358.2,17522,-22909,122311,112349
360.2,18461,-21978,122571,112614
362.2,19626,-19947,122100,112170
364.2,19655,-20029,121606,111693
366.2,18966,-21656,121555,111638
368.2,18402,-22369,121875,111969
370.2,17978,-21965,122236,112350
372.2,17687,-21693,122247,112344
374.2,17840,-21771,121911,111978
376.2,18345,-21564,121722,111808
378.2,18779,-20810,121851,111993
380.2,19004,-19913,121921,112083
382.2,18890,-19624,121929,112063
384.2,18156,-20320,122266,112384
386.2,17378,-21375,122669,112807
388.2,17743,-21830,122432,112602
390.2,18827,-21799,121732,111913
392.2,18806,-22122,121476,111637
394.2,17737,-22522,121849,111970
396.2,17592,-21824,122151,112233
398.2,18618,-20386,122025,112082
400.2,19152,-19978,121862,111917
402.2,18861,-20806,121946,112025
404.2,18779,-21295,122046,112164
406.2,18917,-21038,121998,112138
408.2,18521,-21150,121977,112111
410.2,17624,-21800,122084,112204
412.2,16800,-22002,122186,112302
414.2,16474,-21505,122181,112295
416.2,16916,-20853,122062,112167
418.2,18022,-20275,121956,112054
420.2,19251,-19901,122204,112295
422.2,20196,-20080,122893,112989
424.2,20669,-20657,123440,113569
426.2,20232,-21047,123274,113450
428.2,18756,-21254,122694,112883
430.2,17438,-21570,122417,112572
432.2,17661,-21592,122586,112713
434.2,18833,-20973,122771,112900
436.2,19333,-20434,122644,112765
438.2,19145,-20586,122319,112407
440.2,19090,-20835,122173,112252
442.2,18712,-20662,122410,112533
444.2,17744,-20504,122795,112976
446.2,17568,-20578,122997,113202
448.2,18662,-20445,123041,113248
450.2,19421,-19996,123110,113343
452.2,19168,-19492,123178,113461
454.2,19017,-19076,123168,113486
456.2,19202,-19051,123123,113457
458.2,18890,-19563,123035,113383
460.2,18323,-19994,122909,113245
462.2,18375,-19995,122953,113224
464.2,18797,-20224,123235,113434
466.2,18757,-20839,123453,113643
468.2,18194,-20891,123438,113682
470.2,17652,-20113,123360,113654
472.2,17404,-19506,123234,113546
474.2,17219,-19745,122978,113285
476.2,17089,-20240,122881,113183
478.2,17747,-19892,123167,113476
480.2,19300,-18674,123384,113716
482.2,19924,-18196,123178,113530
484.2,18371,-19364,123068,113419
486.2,16830,-20379,123413,113766
488.2,17807,-19587,123517,113897
490.2,19775,-18371,122954,113369
492.2,20129,-18257,122652,113077
494.2,19744,-18433,123311,113719
496.2,20047,-18677,124017,114393
498.2,19535,-20150,123786,114117
500.2,17583,-21874,123122,113404
502.2,16733,-21651,122887,113140
504.2,17770,-20367,122960,113211
506.2,18190,-20187,122868,113129
508.2,17453,-20383,122636,112905
510.2,17641,-19657,122536,112810
512.2,18598,-19325,122681,112941
514.2,18385,-20320,122913,113133
516.2,17563,-20983,122919,113099
518.2,17830,-20445,122727,112893
520.2,18538,-19959,122714,112881
522.2,18618,-19742,122824,112999
524.2,18879,-18936,122626,112818
526.2,19530,-18539,122339,112548
528.2,19112,-19936,122604,112808
530.2,17667,-21690,123194,113375
532.2,17107,-21856,123326,113490
534.2,17645,-21303,123058,113235
536.2,17667,-21334,123029,113247
538.2,16990,-21150,123236,113498
540.2,16866,-20322,123317,113607
542.2,17542,-20052,123409,113721
544.2,18374,-20299,123600,113941
546.2,19142,-19543,123468,113839
548.2,19568,-18098,123044,113439
550.2,19037,-17983,122973,113387
552.23,17790,-19423,123236,113631
554.25,17158,-20354,123218,113545
556.28,17908,-19462,123090,113353
558.3,19032,-17970,123356,113592
560.3,18948,-17937,123538,113760
562.3,17773,-19421,123054,113270
564.3,17170,-20585,122483,112733
566.3,17607,-20659,122521,112824
568.3,17731,-20728,122908,113214
570.3,17094,-21263,123239,113486
572.3,16948,-21334,123477,113668
574.3,17643,-20638,123443,113629
576.3,17923,-20056,123021,113242
578.3,17365,-20089,122614,112853
580.3,17000,-20310,122533,112742
582.3,17228,-20240,122624,112791
584.3,17243,-19879,122848,113014
586.3,16723,-19505,123272,113464
588.3,16413,-19385,123563,113768
590.3,16763,-19663,123462,113668
592.3,17194,-20226,123290,113485
594.3,17096,-20600,123225,113367
596.3,16711,-20474,123010,113054
598.3,16634,-20278,122800,112757
600.3,17009,-20377,123047,112967
602.3,17458,-20248,123437,113350
604.3,17481,-19686,123362,113280
606.3,16974,-19663,123148,113098
608.3,16446,-20532,123383,113389
610.3,16411,-21029,123750,113798
612.3,16721,-20465,123723,113780
614.3,16929,-19871,123498,113531
616.3,16808,-19958,123438,113413
618.3,16246,-20160,123561,113478
620.3,15407,-20179,123845,113762
622.3,14898,-20322,124232,114182
624.3,15055,-20341,124489,114433
626.3,15665,-19863,124515,114413
628.3,16560,-19421,124350,114226
630.3,17064,-19489,124063,113953
632.3,15752,-19490,124067,113975
634.3,13145,-18945,124754,114668
636.3,12541,-18379,125503,115399
638.3,15077,-18341,125334,115192
640.3,17298,-18689,124579,114419
642.3,16856,-19094,124332,114205
644.3,16011,-19314,124563,114485
646.3,16537,-19208,124459,114417
648.3,16727,-19025,124119,114115
650.3,15793,-19180,124187,114218
652.3,15437,-19683,124444,114459
654.3,15795,-20159,124389,114342
656.3,15287,-20078,124465,114375
658.3,14347,-19173,125084,114996
660.3,14581,-18204,125453,115383
662.3,15551,-18324,124951,114911
664.3,15995,-19159,124359,114370
666.3,16114,-19315,124332,114389
668.3,16358,-18891,124339,114399
670.3,16253,-19092,124027,114077
672.3,15709,-19747,123815,113884
674.3,15487,-19886,123802,113893
676.3,15818,-19892,123764,113837
678.3,15957,-20431,123770,113803
680.3,15421,-20638,123728,113728
682.3,14773,-19829,123437,113407
684.3,14669,-19341,123362,113314
686.3,14769,-20342,123881,113839
688.3,14411,-21698,124314,114264
690.3,13829,-21987,124064,113965
692.3,13701,-21624,123616,113471
694.3,14038,-21413,123489,113336
696.3,14390,-21121,123541,113387
698.3,14636,-20618,123617,113448
700.3,14950,-20428,123683,113512
702.3,15366,-20642,123591,113429
704.3,15607,-20894,123431,113270
706.3,15261,-21124,123493,113334
708.3,14367,-21273,123671,113526
710.3,13705,-21134,123724,113578
712.3,13825,-20973,123842,113675
714.3,14143,-21053,124146,113961
716.3,14048,-20889,124220,114023
718.3,14283,-20221,123943,113735
720.3,15721,-19665,123950,113744
722.3,17458,-19565,124428,114240
724.3,17816,-19738,124512,114343
726.3,16602,-20332,123844,113676
728.3,15084,-21160,123409,113238
730.3,14441,-21200,123779,113622
732.3,14913,-20424,124061,113928
734.3,15721,-20288,123629,113495
736.3,15810,-21241,123147,112963
738.3,15271,-22060,123076,112820
740.3,15193,-22106,123016,112688
742.3,15667,-21915,122897,112471
744.3,15570,-21877,123048,112489
746.3,14717,-22130,123230,112556
748.3,14189,-22830,123069,112339
750.3,14375,-23417,122872,112123
752.3,14858,-23004,122958,112253
754.3,15732,-21880,123091,112578
756.3,16899,-21020,123259,113072
758.3,17417,-20185,123923,114076
760.3,17255,-18425,125023,115503
762.3,17280,-16249,125799,116663
764.3,16921,-14998,126072,117356
766.3,15365,-14224,126697,118355
768.3,14199,-12469,128118,120134
770.3,14927,-10297,129476,121878
772.3,16182,-9328,129977,122694
774.3,16701,-9272,130063,122930
776.3,17374,-9245,130340,123238
778.3,18472,-9846,130589,123438
780.3,19034,-11006,130616,123300
782.3,19125,-11258,130719,123128
784.3,19113,-11114,130790,122819
786.3,18241,-12765,130305,121754
788.3,16290,-15867,129252,119929
790.3,14417,-18126,128018,117987
792.3,13510,-19072,126789,116344
794.3,13676,-19414,125811,115204
796.3,14769,-19027,125425,114759
798.3,16086,-18384,125434,114754
800.3,16686,-18971,125280,114598
802.33,16539,-20530,124836,114122
804.35,16367,-21040,124355,113603
806.38,16432,-20227,123999,113246
808.4,16259,-19951,123872,113125
810.4,15602,-20724,124055,113302
812.4,15064,-21084,124409,113670
814.4,15150,-20752,124602,113887
816.4,15380,-20994,124415,113699
818.4,15370,-21599,124048,113324
820.4,15662,-21197,123951,113222
822.4,16406,-20407,124130,113342
824.4,16867,-20783,124116,113235
826.4,16719,-21662,123932,113039
828.4,16071,-21716,124078,113248
830.4,14986,-21469,124387,113530
832.4,14316,-21434,124273,113262
834.4,14972,-20929,123984,112863
836.4,16018,-20297,124111,113011
838.4,16287,-20566,124415,113369
840.4,16632,-20997,124464,113419
842.4,17574,-20577,124434,113369
844.4,17510,-20323,124458,113397
846.4,15895,-21149,124339,113296
848.4,14714,-21933,124209,113187
850.4,15109,-21682,124365,113359
852.4,15802,-21087,124647,113628
854.4,15698,-20892,124748,113690
856.4,15637,-20660,124678,113593
858.4,16778,-19752,124512,113436
860.4,18242,-18709,124300,113254
862.4,17910,-18899,124268,113242
864.4,16021,-20410,124471,113431
866.4,15227,-21447,124490,113420
868.4,15903,-21017,124149,113076
870.4,15672,-20408,124052,113006
872.4,14543,-20613,124610,113584
874.4,14998,-20803,125185,114168
876.4,16698,-20572,125103,114107
878.4,16976,-20736,124749,113763
880.4,15760,-21132,124742,113732
882.4,14838,-20708,124902,113866
884.4,14452,-19900,124866,113811
886.4,14452,-19935,124809,113729
888.4,15544,-20460,124969,113872
890.4,16986,-20575,125217,114127
892.4,16887,-20689,125403,114323
894.4,15730,-21031,125549,114474
896.4,15589,-20659,125633,114562
898.4,16070,-19815,125563,114466
900.4,15371,-20175,125370,114192
902.4,14321,-21523,125204,113959
904.4,14798,-21838,125178,113953
906.4,15797,-21029,125272,114124
908.4,15643,-20643,125371,114298
910.4,15467,-20710,125360,114348
912.4,16216,-20599,125271,114290
914.4,16120,-20836,125378,114360
916.4,14703,-21301,125836,114733
918.4,14252,-20884,126249,115081
920.4,15235,-20035,126191,114992
922.4,15852,-19731,126076,114825
924.4,16123,-19074,126494,115165
926.4,17049,-17811,126989,115615
928.4,17665,-17916,126792,115434
930.4,17119,-19542,126284,114965
932.4,16487,-20173,126274,114976
934.4,16300,-19447,126550,115215
936.4,15911,-19419,126486,115055
938.4,15548,-20066,126242,114719
940.4,15879,-19719,126237,114695
942.4,16539,-18745,126348,114844
944.4,16919,-18612,126376,114908
946.4,16942,-19062,126465,115016
948.4,16704,-19032,126687,115241
950.4,16630,-18539,126833,115365
952.4,17175,-18127,126733,115242
954.4,17768,-17948,126494,115006
956.4,17410,-18056,126415,114935
958.4,16291,-18507,126659,115159
960.4,15455,-18986,126977,115455
962.4,15355,-18996,127081,115569
964.4,15738,-18553,127082,115593
966.4,16260,-18265,127123,115623
968.4,16747,-18428,127062,115508
970.4,17318,-18466,126950,115334
972.4,17992,-18035,127012,115349
974.4,18057,-18002,127046,115348
976.4,17071,-18856,126895,115175
978.4,16180,-19314,126973,115257
980.4,16329,-18734,127193,115486
982.4,16261,-18812,126762,115025
984.4,15154,-20049,126042,114259
986.4,14934,-19990,126318,114544
988.4,16472,-18169,127191,115472
990.4,17116,-17747,127198,115508
992.4,15677,-19325,126788,115080
994.4,14967,-19665,127241,115483
996.4,16266,-18406,127767,115928
998.4,17134,-18470,127179,115251
1000.4,16548,-19693,126423,114449
1002.4,15981,-19748,126500,114518
1004.4,15495,-19396,126582,114583
1006.4,14638,-20044,126173,114134
1008.4,14849,-20242,126067,113992
1010.4,16157,-19524,126339,114242
1012.4,16075,-19892,126346,114224
1014.4,14841,-20995,126375,114220
1016.4,15369,-20498,126851,114672
1018.4,16894,-19252,127172,114989
1020.4,16152,-19570,126978,114809
1022.4,14135,-20503,126832,114685
1024.4,14276,-20244,126895,114770
1026.4,16163,-19605,126780,114634
1028.4,17233,-19480,126613,114395
1030.4,17348,-19207,126662,114403
1032.4,17374,-18943,126604,114399
1034.4,17073,-19278,126293,114155
1036.4,16543,-19259,126199,114048
1038.4,16217,-18600,126419,114240
1040.4,15508,-19116,126475,114326
1042.43,14345,-20961,126360,114246
1044.45,14071,-21621,126593,114459
1046.48,14855,-20584,127151,115002
1048.5,15355,-20036,127451,115335
1050.5,15742,-20307,127316,115227
1052.5,17098,-19865,127085,114979
1054.5,18146,-19190,126953,114837
1056.5,16986,-19710,126859,114761
1058.5,15035,-20573,126757,114657
1060.5,14971,-20474,126656,114519
1062.5,16299,-20104,126588,114418
1064.5,16741,-20125,126537,114351
1066.5,16195,-19902,126389,114193
1068.5,16153,-19429,126231,114043
1070.5,16875,-19388,126388,114225
1072.5,17481,-19444,126807,114647
1074.5,17494,-19185,126986,114806
1076.5,16862,-19483,126812,114618
1078.5,15738,-20718,126714,114502
1080.5,15032,-21384,126968,114715
1082.5,15767,-20313,127402,115110
1084.5,17270,-18795,127596,115280
1086.5,17540,-18815,127276,114914
1088.5,16029,-20122,126869,114449
1090.5,14508,-20712,127138,114698
1092.5,14476,-19912,127863,115425
1094.5,15317,-19171,127960,115522
1096.5,15751,-19521,127272,114878
1098.5,15582,-20127,126863,114542
1100.5,15235,-20010,127246,114929
1102.5,14887,-19610,127706,115329
1104.5,14846,-19717,127627,115238
1106.5,15645,-20015,127361,115000
1108.5,17026,-19698,127434,115054
1110.5,17885,-18865,127704,115279
1112.5,17793,-18313,127727,115281
1114.5,17416,-18318,127495,114984
1116.5,17163,-18485,127321,114683
1118.5,16844,-18471,127343,114658
1120.5,16686,-18192,127525,114928
1122.5,17072,-17808,127765,115234
1124.5,17513,-17745,127830,115261
1126.5,17388,-18056,127652,115046
1128.5,17102,-18109,127528,114949
1130.5,17182,-17897,127559,114987
1132.5,17198,-18526,127469,114861
1134.5,16742,-20065,127378,114770
1136.5,16286,-20748,127751,115174
1138.5,16172,-19916,128317,115726
1140.5,16049,-19323,128283,115644
1142.5,15905,-19936,127666,115017
1144.5,16138,-20297,127250,114614
1146.5,16507,-19510,127370,114716
1148.5,16620,-18792,127648,114970
1150.5,16909,-18995,127686,115019
1152.5,17490,-19392,127484,114839
1154.5,17487,-19424,127316,114691
1156.5,16889,-19354,127291,114703
1158.5,16788,-19285,127173,114614
1160.5,17020,-19228,126914,114322
1162.5,16499,-19543,126902,114228
1164.5,15741,-20228,127213,114480
1166.5,15952,-20576,127368,114624
1168.5,16703,-20137,127176,114445
1170.5,16993,-19437,126961,114245
1172.5,16774,-19509,126841,114128
1174.5,16213,-20727,126665,113948
1176.5,15652,-22030,126541,113815
1178.5,15811,-22068,126589,113842
1180.5,16243,-21273,126572,113800
1182.5,15854,-21019,126407,113630
1184.5,15584,-20992,126468,113688
1186.5,16830,-20188,126824,114009
1188.5,18045,-19593,126975,114122
1190.5,17390,-20323,126793,113952
1192.5,16336,-20963,126757,113958
1194.5,16444,-20318,126939,114148
1196.5,16471,-19793,126862,114033
1198.5,15899,-20186,126549,113652
1200.5,16298,-20199,126462,113493
1202.5,17295,-19756,126550,113550
1204.5,16754,-20174,126502,113534
1206.5,15379,-20932,126485,113574
1208.5,15597,-20693,126672,113801
1210.5,16739,-20225,126729,113901
1212.5,16464,-20652,126496,113720
1214.5,15365,-21118,126366,113607
1216.5,15523,-20817,126560,113754
1218.5,16366,-20759,126724,113853
1220.5,16110,-21715,126512,113611
1222.5,15456,-22581,126107,113181
1224.5,15969,-22293,125931,112909
1226.5,16631,-21873,126051,112832
1228.5,15862,-22797,126157,112719
1230.5,15059,-24056,126127,112558
1232.5,16208,-23384,126120,112541
1234.5,18046,-21277,126087,112578
1236.5,18300,-20463,125880,112508
1238.5,17447,-21216,125870,112710
1240.5,17175,-21034,126592,113675
1242.5,17548,-19203,127749,115076
1244.5,17818,-17628,128519,116157
1246.5,17801,-16895,128882,116942
1248.5,17488,-15529,129635,118109
1250.5,17028,-13407,130876,119677
1252.5,17051,-12063,131706,120851
1254.5,17828,-11501,131826,121392
1256.5,18682,-10480,132053,121955
1258.5,18984,-9459,132739,122748
1260.5,19161,-9462,133256,123211
1262.5,19947,-9549,133381,123212
1264.5,20911,-9114,133517,123146
1266.5,20767,-9871,133546,122911
1268.5,19273,-12458,133060,122109
1270.5,17601,-14888,132205,120785
1272.5,16797,-16141,131174,119113
1274.5,16918,-17109,129912,117270
1276.5,17264,-18016,128848,115909
1278.5,16970,-18603,128452,115465
1280.5,16121,-19311,128246,115303
1282.53,15659,-20081,127702,114809
1284.55,15576,-20369,127251,114354
1286.58,15248,-20355,127129,114155
1288.6,15454,-19990,126745,113700
1290.6,16885,-18955,126082,113033
1292.6,17933,-18565,125935,112891
1294.6,17527,-19964,126433,113344
1296.6,17362,-21153,126984,113838
1298.6,18184,-20364,127251,114083
1300.6,18018,-19764,126996,113818
1302.6,16330,-21240,126149,112946
1304.6,15217,-22626,125571,112350
1306.6,15506,-22005,126043,112828
1308.6,16121,-20904,126808,113599
1310.6,16787,-20597,126930,113717
1312.6,17668,-20244,126869,113666
1314.6,17931,-19819,127038,113853
1316.6,17241,-20258,126809,113613
1318.6,16539,-20982,126171,112932
1320.6,16191,-20991,126035,112770
1322.6,15723,-20845,126386,113135
1324.6,15434,-21076,126363,113133
1326.6,15911,-21091,125974,112741
1328.6,16547,-20904,125895,112658
1330.6,16534,-21225,126207,112987
1332.6,16314,-21690,126545,113338
1334.6,16490,-21456,126771,113534
1336.6,16618,-20852,126893,113599
1338.6,16362,-20640,126859,113537
1340.6,16374,-20755,126672,113362
1342.6,17023,-20780,126480,113179
1344.6,17610,-20586,126475,113160
1346.6,17541,-20213,126615,113283
1348.6,17109,-19928,126573,113239
1350.6,16852,-20050,126246,112915
1352.6,16855,-20382,126016,112671
1354.6,16756,-20538,126192,112801
1356.6,16394,-20638,126604,113164
1358.6,16329,-20817,126950,113507
1360.6,16856,-20822,127079,113676
1362.6,17016,-20736,126993,113620
1364.6,16194,-20850,126924,113565
1366.6,15479,-20907,127022,113704
1368.6,15674,-20888,126930,113657
1370.6,16261,-21128,126498,113210
1372.6,17311,-20758,126473,113140
1374.6,18757,-19134,127142,113796
1376.6,18496,-18488,127352,114008
1378.6,16078,-20245,126634,113272
1380.6,15271,-21081,126448,113091
1382.6,17589,-18745,127443,114112
1384.6,18772,-17126,128012,114655
1386.6,16666,-19150,127302,113870
1388.6,15149,-21294,126561,113096
1390.6,16454,-20607,126436,112991
1392.6,17805,-19462,126259,112809
1394.6,17696,-19722,126153,112665
1396.6,17806,-19916,126671,113168
1398.6,18353,-19675,127174,113667
1400.6,17758,-20243,127099,113565
1402.6,16336,-20971,127151,113605
1404.6,16039,-20458,127574,114062
1406.6,17236,-19507,127572,114086
1408.6,18214,-19365,127146,113663
1410.6,17746,-19385,127057,113615
1412.6,16828,-18804,127182,113819
1414.6,17057,-18383,127073,113748
1416.6,18047,-18741,127117,113753
1418.6,18224,-19227,127520,114076
1420.6,17673,-19275,127667,114152
1422.6,17828,-19124,127405,113887
1424.6,18770,-18925,127314,113864
1426.6,19334,-18535,127498,114089
1428.6,19370,-18068,127602,114148
1430.6,19439,-17851,127630,114109
1432.6,19065,-18151,127661,114114
1434.6,17756,-18926,127571,114023
1436.6,16660,-19401,127559,114026
1438.6,16922,-18780,127902,114396
1440.6,17689,-17834,128167,114654
1442.6,17685,-18080,127832,114266
1444.6,17253,-19081,127320,113733
1446.6,17429,-18900,127323,113780
1448.6,18270,-17500,127630,114124
1450.6,18871,-16994,127629,114105
1452.6,18495,-18145,127394,113830
1454.6,17622,-19195,127383,113812
1456.6,17515,-18779,127552,114037
1458.6,18312,-17847,127529,114101
1460.6,18659,-17886,127286,113901
1462.6,17925,-18741,127070,113646
1464.6,17327,-19244,126930,113442
1466.6,18074,-18975,126804,113286
1468.6,19497,-18383,126830,113296
1470.6,19873,-17872,127112,113541
1472.6,18813,-17745,127377,113766
1474.6,17720,-18334,127281,113679
1476.6,17430,-19308,126924,113370
1478.6,17267,-19617,126681,113127
1480.6,17380,-18837,126698,113041
1482.6,18932,-17780,126827,113062
1484.6,20840,-17370,126942,113185
1486.6,20462,-17701,127063,113384
1488.6,18237,-18361,127163,113533
1490.6,16875,-18989,127084,113492
1492.6,16577,-19359,126816,113283
1494.6,16077,-19340,126653,113145
1496.6,16195,-19069,126751,113230
1498.6,17526,-19031,126793,113277
1500.6,18168,-19482,126564,113021
1502.6,17341,-19912,126412,112752
1504.6,16865,-19735,126637,112876
1506.6,17464,-19148,126940,113194
1508.6,18241,-18579,126961,113258
1510.6,19033,-18186,126839,113142
1512.6,19341,-18327,126869,113225
1514.6,17969,-19138,127002,113433
1516.6,16147,-19741,126924,113314
1518.6,16324,-19533,126575,112857
1520.6,17539,-19238,126366,112644
1522.6,17392,-19276,126523,112878
1524.6,16663,-19089,126588,112950
1526.6,16978,-18887,126226,112545
1528.6,17592,-19327,125980,112309
1530.6,17909,-19634,126302,112673
1532.63,18446,-18993,126678,113054
1534.65,18566,-18349,126584,112950
1536.68,18027,-18419,126295,112687
1538.7,18323,-18609,126144,112581
1540.7,18787,-19145,126058,112509
1542.7,17063,-20417,126126,112547
1544.7,15171,-20666,126563,112935
1546.7,16820,-18887,127012,113344
1548.7,19464,-17727,126890,113183
1550.7,18573,-18885,126368,112630
1552.7,16429,-19791,126106,112384
1554.7,17281,-18760,126147,112454
1556.7,19087,-17939,126059,112324
1558.7,18166,-18472,126013,112201
1560.7,16154,-18784,126441,112659
1562.7,16268,-18652,126868,113222
1564.7,17779,-19209,126565,113015
1566.7,18111,-19638,126061,112513
1568.7,17007,-18769,126352,112783
1570.7,16252,-17918,127057,113476
1572.7,16729,-18479,127012,113414
1574.7,17422,-19413,126230,112629
1576.7,17530,-19397,125794,112198
1578.7,17808,-18747,126149,112546
1580.7,18576,-18230,126648,113068
1582.7,18740,-18166,126666,113134
1584.7,18132,-18599,126399,112817
1586.7,17895,-19074,126340,112619
1588.7,17931,-19043,126454,112700
1590.7,17456,-18691,126384,112738
1592.7,17349,-18367,126210,112613
1594.7,18218,-18049,126286,112615
1596.7,18360,-18093,126530,112808
1598.7,17103,-18857,126581,112890
1600.7,16605,-19471,126447,112794
1602.7,17622,-19042,126422,112788
1604.7,18076,-18309,126546,112936
1606.7,17393,-18116,126604,113020
1608.7,17255,-17897,126570,113006
1610.7,17844,-17279,126636,113074
1612.7,17986,-16981,126744,113137
1614.7,17822,-17218,126609,112937
1616.7,17680,-17467,126413,112742
1618.7,16832,-17777,126649,113048
1620.7,15727,-18318,126997,113455
1622.7,16025,-18498,126674,113143
1624.7,17355,-18058,126042,112527
1626.7,17730,-17756,126093,112630
1628.7,17085,-18035,126519,113098
1630.7,17027,-18199,126428,112983
1632.7,17965,-17584,126222,112715
1634.7,18820,-16835,126505,112968
1636.7,18693,-17163,126570,113036
1638.7,17999,-18114,126056,112511
1640.7,18236,-17763,125995,112410
1642.7,19685,-16267,126578,112953
1644.7,20126,-16348,126538,112898
1646.7,18202,-18530,125687,112061
1648.7,16140,-19962,125240,111636
1650.7,16167,-19525,125433,111844
1652.7,17176,-19179,125482,111914
1654.7,17566,-19535,125366,111822
1656.7,17707,-19314,125507,111956
1658.7,17844,-18827,125645,112078
1660.7,17325,-19263,125469,111932
1662.7,16601,-19925,125244,111761
1664.7,16760,-19775,125155,111677
1666.7,17388,-19487,125089,111578
1668.7,17483,-19683,125099,111577
1670.7,17471,-19632,125289,111766
1672.7,18037,-18960,125551,112004
1674.7,18159,-18500,125770,112211
1676.7,16696,-18889,125822,112290
1678.7,15112,-19655,125502,111977
1680.7,15735,-19894,124984,111434
1682.7,17667,-19451,124794,111276
1684.7,17969,-19138,124927,111509
1686.7,16795,-19354,124921,111536
1688.7,16770,-19353,124826,111375
1690.7,17440,-18951,124945,111468
1692.7,16211,-19211,124973,111569
1694.7,14496,-20011,124700,111358
1696.7,15987,-19648,124688,111352
1698.7,19364,-18240,125107,111786
1700.7,20011,-18012,125193,111897
1702.7,17909,-19293,124693,111384
1704.7,16827,-20081,124295,110956
1706.7,17541,-19793,124287,110919
1708.7,17947,-19738,124284,110854
1710.7,17485,-20348,124153,110626
1712.7,16978,-20848,123992,110377
1714.7,16775,-20730,123800,110091
1716.7,17265,-20029,123739,109922
1718.7,18310,-19415,123901,110042
1720.7,18318,-19816,123969,110156
1722.7,17033,-20584,123927,110172
1724.7,16978,-19745,124278,110594
1726.7,18989,-17415,124949,111444
1728.7,20142,-16143,125288,112071
1730.7,19053,-16744,125383,112474
1732.7,18369,-17060,125963,113356
1734.7,19649,-15504,127176,114890
1736.7,21028,-12794,128591,116622
1738.7,21330,-10110,129809,118136
1740.7,21406,-8065,130516,119142
1742.7,21314,-7117,130777,119673
1744.7,20630,-7289,131058,120115
1746.7,20371,-7877,131308,120421
1748.7,21230,-8193,131085,120196
1750.7,22032,-8254,130841,119845
1752.7,21917,-8712,131260,119999
1754.7,21385,-10144,131504,119909
1756.7,20695,-12187,130344,118439
1758.7,19809,-13874,128436,116170
1760.7,19245,-14982,127283,114538
1762.7,19114,-15949,126883,113709
1764.7,18737,-16713,126321,112975
1766.7,18021,-17114,125571,112241
1768.7,17679,-17575,125175,111839
1770.7,18067,-17952,125113,111719
1772.73,18658,-17592,124974,111589
1774.75,18458,-17305,124580,111275
1776.78,17332,-18258,124054,110794
1778.8,16810,-19138,123697,110413
1780.8,17801,-18331,123715,110409
1782.8,18519,-17434,123908,110613
1784.8,17475,-18343,123961,110670
1786.8,16351,-19669,123938,110614
1788.8,16804,-19795,124001,110630
1790.8,17642,-19565,124019,110629
1792.8,17778,-19465,123943,110567
1794.8,17923,-18785,123989,110613
1796.8,17799,-18389,124099,110683
1798.8,16394,-19470,123936,110471
1800.8,15296,-20330,123585,110098
1802.8,16649,-18980,123548,110044
1804.8,18666,-16992,123945,110401
1806.8,18357,-16894,124321,110752
1808.8,16805,-18283,124252,110716
1810.8,16747,-19326,123785,110303
1812.8,17682,-19447,123323,109870
1814.8,17757,-18945,123216,109766
1816.8,17305,-18329,123406,109950
1818.8,17236,-18301,123619,110149
1820.8,17253,-18644,123838,110357
1822.8,17379,-18247,124144,110674
1824.8,18015,-17330,124286,110819
1826.8,18418,-17338,124070,110567
1828.8,17810,-18218,123854,110300
1830.8,16852,-18729,123911,110334
1832.8,16343,-18916,123896,110329
1834.8,16365,-19242,123589,110044
1836.8,16917,-18867,123343,109805
1838.8,17433,-17643,123355,109806
1840.8,16962,-17270,123433,109888
1842.8,16164,-18276,123568,110055
1844.8,16544,-19018,123806,110293
1846.8,17610,-18757,123872,110298
1848.8,17988,-18357,123663,110047
1850.8,17973,-18089,123499,109920
1852.8,18103,-17798,123465,109949
1854.8,17957,-17841,123370,109906
1856.8,17987,-17813,123424,110033
1858.8,18939,-16845,123903,110575
1860.8,19574,-15861,124306,110958
1862.8,18642,-16391,123981,110559
1864.8,17371,-17669,123307,109850
1866.8,17116,-18055,123167,109715
1868.8,17296,-17825,123531,110063
1870.8,17187,-17990,123684,110171
1872.8,16928,-18323,123576,110012
1874.8,16663,-18225,123734,110126
1876.8,16685,-17831,124069,110448
1878.8,17272,-17576,124033,110438
1880.8,17653,-17697,123706,110142
1882.8,17001,-18129,123595,110041
1884.8,16126,-18466,123713,110178
1886.8,16297,-18321,123824,110338
1888.8,17184,-17681,124012,110557
1890.8,17479,-16829,124297,110809
1892.8,17051,-16162,124378,110833
1894.8,17308,-15878,124192,110637
1896.8,18941,-15813,124024,110512
1898.8,20291,-15906,123958,110485
1900.8,19638,-16394,123838,110370
1902.8,18106,-17075,123668,110191
1904.8,17742,-17229,123618,110135
1906.8,18118,-16736,123788,110304
1908.8,17794,-16293,124134,110660
1910.8,17406,-16215,124456,110997
1912.8,18235,-15972,124483,111018
1914.8,19444,-15297,124198,110709
1916.8,19454,-14934,123942,110450
1918.8,18604,-15455,123977,110516
1920.8,18328,-15980,124150,110724
1922.8,18747,-15519,124148,110752
1924.8,18866,-14923,123954,110602
1926.8,18499,-15362,123834,110531
1928.8,18407,-15904,123920,110630
1930.8,18782,-15318,124007,110697
1932.8,18848,-14724,123940,110614
1934.8,17932,-15516,123928,110600
1936.8,16323,-16648,124133,110806
1938.8,15283,-16641,124289,110979
1940.8,15969,-15977,124196,110925
1942.8,17901,-15599,124121,110862
1944.8,19392,-15382,124205,110910
1946.8,19729,-15201,124109,110786
1948.8,19484,-15437,123676,110377
1950.8,18946,-15981,123275,110016
1952.8,18162,-16227,123179,109928
1954.8,17829,-15975,123223,109964
1956.8,18332,-15552,123150,109893
1958.8,18800,-15399,122872,109615
1960.8,18436,-15680,122548,109279
1962.8,17801,-16002,122547,109267
1964.8,17788,-15987,122909,109616
1966.8,18087,-16034,123113,109781
1968.8,17813,-16418,122942,109567
1970.8,17356,-16329,122889,109511
1972.8,17792,-15513,123085,109728
1974.8,18480,-15436,122948,109581
1976.8,18052,-16614,122475,109073
1978.8,17452,-17045,122417,109018
1980.8,18106,-15821,122789,109437
1982.8,18416,-15131,122825,109500
1984.8,16758,-16161,122502,109169
1986.8,15316,-16993,122449,109123
1988.8,16255,-16647,122598,109306
1990.8,17925,-16540,122442,109176
1992.8,18347,-16825,122134,108872
1994.8,17937,-16247,122118,108849
1996.8,17225,-15444,122323,109037
1998.8,16380,-15725,122459,109140
2000.8,16422,-16202,122444,109091
2002.8,17387,-16007,122284,108915
2004.8,17607,-16229,122090,108718
2006.8,16877,-16985,122116,108742
2008.8,16918,-16654,122376,109009
2010.8,18023,-15393,122515,109179
2012.8,18609,-15105,122345,109041
2014.8,17928,-15849,122173,108847
2016.8,16911,-16200,122257,108859
2018.8,16723,-16178,122285,108856
2020.9,17326,-16607,121950,108573
2022.9,17545,-17019,121683,108366
2024.9,16997,-16627,121920,108604
2026.9,16767,-15957,122179,108836
2028.9,17054,-15883,122008,108651
2030.9,16697,-16129,121963,108580
2032.9,16143,-15968,122330,108905
2034.9,17115,-15659,122278,108847
2036.9,18745,-15969,121566,108163
2038.9,18473,-16617,121264,107859
2040.9,16698,-16560,121721,108287
2042.9,16149,-15707,121957,108525
2044.9,17268,-15046,121677,108275
2046.9,17986,-15217,121633,108232
2048.9,17333,-15986,121801,108377
2050.9,16394,-16781,121493,108060
2052.9,16251,-17061,121037,107598
2054.9,16775,-16664,121234,107772
2056.9,17231,-16037,121723,108236
2058.9,17246,-15691,121719,108223
2060.9,17124,-15717,121485,107976
2062.9,17165,-16075,121553,108013
2064.9,17040,-16582,121594,108022
2066.9,16667,-16584,121299,107708
2068.9,16848,-15713,121184,107582
2070.9,17655,-14768,121596,107999
2072.9,17756,-14684,122042,108469
2074.9,16885,-15168,122055,108507
2076.9,16595,-15421,121812,108268
2078.9,17266,-15369,121616,108067
2080.9,17372,-15360,121530,107978
2082.9,16398,-15538,121561,107990
2084.9,15627,-15790,121683,108067
2086.9,16059,-15630,121760,108109
2088.9,17453,-14733,121718,108073
2090.9,18725,-13912,121634,108021
2092.9,18723,-14229,121574,107988
2094.9,17593,-15126,121554,107988
2096.9,16816,-15156,121605,108056
2098.9,17254,-14165,121720,108170
2100.9,18293,-13182,121834,108265
2102.9,18943,-12855,121885,108313
2104.9,18699,-13108,121795,108257
2106.9,17755,-13610,121547,108049
2108.9,16907,-14061,121310,107830
2110.9,16759,-14421,121217,107751
2112.9,17123,-14787,121154,107716
2114.9,17387,-15076,121071,107649
2116.9,17017,-15242,121152,107712
2118.9,16064,-15459,121362,107889
2120.9,15562,-15618,121344,107874
2122.9,16394,-15269,121075,107674
2124.9,17745,-14414,120974,107687
2126.9,18167,-13695,121118,107911
2128.9,17682,-13699,121051,107852
2130.9,17135,-14510,120632,107398
2132.9,16715,-15565,120285,107010
2134.9,16720,-15789,120204,106891
2136.9,17640,-14882,120083,106753
2138.9,18374,-14307,119828,106509
2140.9,17528,-15191,119799,106483
2142.9,16443,-16093,120155,106838
2144.9,16861,-15558,120533,107251
2146.9,17270,-15093,120501,107263
2148.9,16176,-16134,120104,106856
2150.9,15436,-16947,119830,106540
2152.9,16189,-16142,119894,106591
2154.9,16648,-15352,119880,106584
2156.9,16435,-15609,119540,106240
2158.9,17030,-15701,119304,105999
2160.9,17777,-15423,119343,106050
2162.9,17350,-15627,119236,105958
2164.9,16964,-15627,119055,105791
2166.9,17470,-14859,119290,106023
2168.9,17428,-14739,119573,106265
2170.9,16647,-15686,119306,105947
2172.9,16643,-15918,119082,105732
2174.9,17180,-15085,119502,106226
2176.9,17081,-14898,119779,106564
2178.9,16891,-15554,119397,106182
2180.9,17107,-15658,119250,106030
2182.9,16830,-15279,119647,106471
2184.9,16267,-15410,119623,106495
2186.9,16650,-15558,119142,106015
2188.9,17308,-14971,119186,106025
2190.9,16959,-14489,119518,106307
2192.9,16476,-14960,119210,105927
2194.9,16631,-15858,118695,105332
2196.9,16313,-16587,118739,105309
2198.9,15706,-17025,118842,105331
2200.9,16398,-17079,118515,104884
2202.9,17318,-17306,118199,104449
2204.9,16532,-18147,118072,104273
2206.9,15848,-18132,117991,104231
2208.9,17335,-16124,118328,104660
2210.9,18829,-14172,119110,105567
2212.9,18497,-14184,119533,106168
2214.9,18325,-14437,119442,106325
2216.9,19167,-13057,119696,106892
2218.9,19013,-11166,120679,108229
2220.9,17871,-10034,121924,109826
2222.9,17803,-9081,122986,111208
2224.9,18612,-7753,123734,112274
2226.9,18905,-6221,124244,113154
2228.9,19133,-4583,124732,114013
2230.9,19857,-3300,125205,114746
2232.9,20176,-3191,125476,115140
2234.9,19815,-4211,125594,115283
2236.9,19607,-5497,125690,115286
2238.9,19625,-6420,125655,114998
2240.9,19407,-6846,125371,114344
2242.9,19130,-7190,124768,113299
2244.9,18849,-8356,123672,111676
2246.9,18157,-10486,122270,109725
2248.9,17311,-12265,121227,108294
2250.9,16830,-12713,120718,107640
2252.9,16390,-12629,120229,107123
2254.9,15951,-12994,119612,106467
2256.9,16312,-13593,119185,106011
2258.9,17054,-14232,118885,105729
2260.9,16831,-15055,118572,105436
2262.93,16482,-15298,118571,105431
2264.95,17717,-14475,118770,105633
2266.98,19042,-14080,118418,105295
2269.0,18084,-15064,117715,104597
2271.0,16283,-15744,117741,104626
2273.0,16075,-15118,118294,105175
2275.0,16536,-14776,118187,105009
2277.0,16233,-15326,117654,104392
2279.0,16168,-15359,117750,104480
2281.0,16937,-14827,118045,104850
2283.0,17407,-14759,117712,104559
2285.0,17156,-14536,117494,104314
2287.0,16717,-13698,118043,104840
2289.0,16273,-13832,118307,105104
2291.0,16079,-15325,117632,104414
2293.0,16354,-15997,117099,103862
2295.0,16614,-15084,117406,104180
2297.0,16643,-14532,117765,104554
2299.0,16727,-15365,117566,104349
2301.0,16566,-16272,117204,103988
2303.0,16073,-16024,117187,103987
2305.0,16128,-14939,117599,104390
2307.0,16787,-14052,118113,104859
2309.0,17051,-13920,118178,104887
2311.0,16965,-14267,117728,104448
2313.0,17080,-14635,117375,104137
2315.0,16945,-14902,117420,104203
2317.0,16615,-14850,117440,104207
2319.0,17046,-14260,117202,103952
2321.0,17624,-13758,117057,103806
2323.0,17074,-14114,117205,103937
2325.0,16493,-14827,117314,104027
2327.0,17131,-14987,117138,103876
2329.0,17454,-14743,117003,103798
2331.0,16680,-14531,117266,104089
2333.0,16913,-14209,117607,104440
2335.0,18207,-13804,117645,104504
2337.0,17592,-13568,117790,104669
2339.0,15451,-13300,118289,105162
2341.0,15551,-12966,118259,105136
2343.0,17716,-13089,117237,104124
2345.0,18259,-13639,116405,103264
2347.0,17117,-13975,116683,103499
2349.0,16981,-14005,117280,104100
2351.0,17438,-13972,117363,104192
2353.0,16661,-13781,117217,104007
2355.0,15806,-13604,117129,103894
2357.0,16461,-13886,116969,103779
2359.0,17322,-14372,116883,103734
2361.0,16907,-14520,117013,103825
2363.0,16160,-14404,117129,103885
2365.0,16464,-14086,117198,103960
2367.0,17528,-13448,117330,104132
2369.0,18004,-13106,117279,104084
2371.0,17405,-13455,117044,103821
2373.0,17047,-13342,117165,103935
2375.0,17959,-12245,117562,104360
2377.0,18678,-11893,117445,104267
2379.0,17886,-12936,116876,103702
2381.0,17195,-13194,116778,103619
2383.0,17791,-11904,117267,104137
2385.0,17946,-11348,117636,104530
2387.0,17095,-12188,117754,104680
2389.0,17308,-12302,117948,104933
2391.0,18674,-11393,118039,105073
2393.0,18910,-11354,117794,104826
2395.0,18040,-12002,117656,104659
2397.0,18068,-11502,117976,104956
2399.0,18965,-10239,118285,105256
2401.0,19221,-10044,118133,105111
2403.0,18670,-10846,117824,104828
2405.0,18135,-11247,117753,104780
2407.0,17997,-11023,117792,104823
2409.0,18232,-10917,117716,104748
2411.0,18553,-11017,117574,104629
2413.0,18499,-10830,117484,104575
2415.0,18081,-10438,117475,104608
2417.0,17824,-10428,117523,104697
2419.0,18001,-10707,117592,104783
2421.0,18380,-10643,117669,104845
2423.0,18633,-10510,117639,104812
2425.0,18591,-11015,117370,104578
2427.0,18366,-11420,117213,104448
2429.0,18231,-10616,117636,104847
2431.0,18180,-9625,118132,105303
2433.0,17939,-10085,117802,104962
2435.0,17564,-11263,117033,104201
2437.0,17426,-11470,116878,104050
2439.0,17568,-10832,117201,104376
2441.0,17623,-10401,117241,104416
2443.0,17295,-10501,117110,104270
2445.0,16706,-11078,117105,104238
2447.0,16513,-11755,116821,103933
2449.0,17219,-11749,116214,103312
2451.0,18100,-11193,116059,103141
2453.0,18036,-11132,116531,103586
2455.0,17426,-11499,116785,103809
2457.0,17386,-11336,116460,103461
2459.0,17569,-10874,116212,103198
2461.0,17164,-10988,116375,103351
2463.0,16815,-11439,116413,103399
2465.0,17183,-11683,116053,103057
2467.0,17485,-11947,115751,102745
2469.0,17291,-12196,115773,102747
2471.0,17372,-11866,115881,102876
2473.0,17775,-11141,115968,103002
2475.0,17712,-10751,116102,103136
2477.0,17341,-10797,116141,103155
2479.0,17310,-11036,115975,102996
2481.0,17408,-11354,115760,102807
2483.0,17364,-11323,115656,102732
2485.0,17456,-10671,115766,102881
2487.0,17502,-10130,116082,103236
2489.0,16982,-10425,116199,103372
2491.0,16294,-11050,115775,102963
2493.0,16346,-11217,115322,102523
2495.0,17131,-11082,115495,102675
2497.0,17765,-11232,115900,103031
2499.0,17674,-11681,115835,102944
2501.0,17178,-11815,115601,102718
2503.0,16907,-11228,115749,102866
2505.0,16856,-10461,115913,103014
2507.0,16452,-10457,115620,102715
2509.0,15658,-11248,115290,102394
2511.1,15300,-11994,115379,102490
2513.1,15884,-12238,115585,102693
2515.1,16748,-12214,115559,102666
2517.1,16934,-12208,115385,102505
2519.1,16473,-12219,115184,102317
2521.1,16312,-11882,115083,102208
2523.1,17019,-10858,115237,102340
2525.1,17912,-9784,115398,102475
2527.1,17902,-9816,115269,102323
2529.1,17233,-10697,115192,102238
2531.1,17199,-11093,115422,102483
2533.1,17647,-11040,115506,102586
2535.1,16907,-11457,115377,102459
2537.1,15180,-11715,115554,102624
2539.1,14892,-10921,115726,102777
2541.1,16430,-10324,115175,102230
2543.1,17445,-10971,114531,101646
2545.1,17235,-11295,114796,101990
2547.1,17352,-10319,115389,102583
2549.1,17754,-9791,115343,102437
2551.1,17101,-10376,115102,102093
2553.1,16198,-10153,115297,102260
2555.1,16710,-8956,115402,102375
2557.1,17729,-9120,115068,102047
2559.1,17384,-10725,115052,102051
2561.1,16219,-11352,115668,102705
2563.1,15972,-10724,116004,103046
2565.1,16621,-10640,115556,102560
2567.1,16983,-11168,115039,102017
2569.1,16868,-11114,114911,101912
2571.1,16766,-10667,114814,101849
2573.1,16487,-10477,114813,101860
2575.1,15817,-10198,115352,102402
2577.1,15633,-9669,115918,102985
2579.1,16713,-9343,115647,102741
2581.1,18127,-9123,114969,102085
2583.1,18432,-8729,114904,102026
2585.1,17750,-8622,115303,102436
2587.1,17168,-9100,115354,102530
2589.1,16995,-9591,115068,102304
2591.1,17042,-9655,114980,102253
2593.1,17458,-9484,115044,102333
2595.1,17935,-9332,114876,102182
2597.1,17497,-9382,114631,101948
2599.1,16320,-9658,114730,102042
2601.1,15873,-9664,115000,102318
2603.1,16313,-9072,114970,102313
2605.1,16310,-8550,114766,102139
2607.1,16036,-8629,114825,102243
2609.1,16913,-8718,115019,102507
2611.1,18189,-8610,114898,102439
2613.1,17784,-9230,114464,102023
2615.1,16222,-10555,114033,101620
2617.1,15607,-11177,113713,101344
2619.1,15906,-10805,113481,101120
2621.1,16033,-10492,113447,101049
2623.1,16410,-10376,113654,101232
2625.1,17317,-9974,113773,101354
2627.1,17627,-9825,113466,101054
2629.1,17153,-10306,113069,100672
2631.1,17099,-10490,113234,100871
2633.1,17529,-9983,113768,101421
2635.1,17439,-9833,113783,101399
2637.1,16859,-10470,113228,100787
2639.1,16554,-10849,113006,100539
2641.1,16605,-10377,113321,100852
2643.1,16530,-9965,113366,100875
2645.1,15970,-10378,112963,100422
2647.1,15163,-10818,112932,100348
2649.1,14905,-10478,113434,100832
2651.1,15479,-10244,113563,100951
2653.1,16350,-10813,113004,100385
2655.1,17287,-10821,112554,99942
2657.1,18160,-9545,112670,100064
2659.1,18105,-8911,112906,100288
2661.1,16990,-10026,112882,100269
2663.1,16211,-11072,112696,100127
2665.1,16348,-10817,112499,99971
2667.1,16470,-10239,112417,99909
2669.1,16397,-9704,112569,100111
2671.1,16663,-8778,112844,100484
2673.1,16798,-8446,113003,100717
2675.1,16461,-9589,112935,100651
2677.1,16559,-10760,112675,100353
2679.1,17128,-10700,112387,100026
2681.1,16723,-10666,112229,99805
2683.1,15350,-11703,112137,99601
2685.1,14941,-12501,112056,99374
2687.1,16026,-12084,112089,99278
2689.1,16935,-11701,112084,99194
2691.1,16714,-12289,111774,98857
2693.1,16152,-12751,111507,98600
2695.1,15928,-12021,111801,98956
2697.1,16071,-10524,112368,99682
2699.1,16711,-8970,112723,100283
2701.1,17521,-7631,113145,100967
2703.1,17651,-6700,113940,102029
2705.1,17289,-5961,114672,103114
2707.1,17387,-4750,115117,104006
2709.1,17606,-3062,115828,105159
2711.1,17060,-1636,116962,106681
2713.1,16436,-694,117806,107904
2715.1,16850,321,118147,108586
2717.1,17941,1687,118681,109330
2719.1,18889,2718,119469,110180
2721.1,19476,2433,119571,110253
2723.1,19438,922,118799,109379
2725.1,18732,-625,118149,108493
2727.1,18064,-1720,117978,107881
2729.1,17815,-3094,117497,106741
2731.1,17637,-4853,116358,104842
2733.1,17496,-6101,115138,102985
2735.1,17514,-6792,114194,101677
2737.1,17210,-7712,113402,100754
2739.1,16319,-8685,112863,100182
2741.1,15525,-8919,112768,100082
2743.1,15440,-8707,112776,100114
2745.1,15752,-9016,112364,99754
2747.1,15980,-9740,111711,99167
2749.1,16367,-9641,111522,99033
2751.1,17236,-8350,111845,99360
2753.13,17798,-7446,111900,99349
2755.15,17024,-8239,111435,98803
2757.18,15679,-9492,111171,98513
2759.2,15445,-9543,111403,98745
2761.2,16205,-9143,111534,98814
2763.2,16595,-9557,111384,98547
2765.2,16438,-10099,111421,98500
2767.2,16247,-10039,111577,98638
2769.2,15829,-10139,111388,98468
2771.2,15334,-10533,111077,98194
2773.2,15682,-10178,111143,98298
2775.2,16833,-9133,111426,98580
2777.2,17654,-8567,111531,98644
2779.2,17572,-8778,111419,98487
2781.2,16757,-9300,111130,98159
2783.2,15595,-9845,110777,97786
2785.2,14976,-9930,110767,97825
2787.2,15602,-9153,111232,98402
2789.2,16689,-8286,111606,98850
2791.2,16913,-8424,111464,98687
2793.2,16311,-9188,111181,98349
2795.2,15967,-9319,111223,98363
2797.2,16406,-8709,111385,98524
2799.2,17130,-8444,111250,98415
2801.2,17489,-8869,110987,98213
2803.2,17549,-8927,111089,98364
2805.2,17639,-8126,111401,98671
2807.2,17329,-7873,111199,98455
2809.2,16255,-9133,110506,97801
2811.2,15552,-10181,110319,97673
2813.2,16320,-9266,111007,98368
2815.2,17484,-7800,111653,98976
2817.2,17514,-7837,111583,98873
2819.2,16811,-8624,111239,98523
2821.2,16353,-8753,111092,98389
2823.2,16104,-8761,111003,98322
2825.2,16189,-9037,110925,98242
2827.2,17093,-8608,111011,98281
2829.2,18049,-7594,111053,98267
2831.2,17853,-7322,110818,98011
2833.2,17041,-7756,110661,97863
2835.2,16757,-8018,110969,98194
2837.2,16554,-8290,111404,98662
2839.2,15786,-8732,111393,98660
2841.2,15559,-8616,111005,98241
2843.2,16711,-7963,110830,98045
2845.2,17657,-7650,111137,98368
2847.2,16901,-7737,111512,98734
2849.2,15788,-7808,111452,98613
2851.2,16020,-7983,111070,98196
2853.2,16695,-8114,110854,98020
2855.2,16608,-7641,110907,98120
2857.2,16670,-6956,110953,98159
2859.2,17344,-7021,110966,98126
2861.2,17163,-7625,111218,98328
2863.2,16039,-7778,111734,98815
2865.2,16016,-7365,112116,99214
2867.2,17322,-7028,111990,99134
2869.2,17950,-7031,111500,98664
2871.2,17552,-7165,111245,98418
2873.2,17596,-7155,111548,98775
2875.2,18196,-6843,111972,99241
2877.2,18250,-6510,111962,99178
2879.2,17722,-6699,111690,98855
2881.2,17377,-7205,111651,98905
2883.2,17424,-7146,111800,99184
2885.2,17691,-6353,111841,99207
2887.2,18082,-5405,111884,99145
2889.2,18392,-4469,112042,99295
2891.2,18354,-3729,111951,99270
2893.2,17985,-4008,111460,98794
2895.2,17647,-5282,111134,98447
2897.2,17740,-6164,111348,98683
2899.2,18185,-6122,111662,99030
2901.2,18284,-6142,111652,99004
2903.2,17557,-6733,111499,98816
2905.2,16671,-7379,111414,98730
2907.2,16701,-7632,111370,98693
2909.2,17424,-7279,111457,98768
2911.2,17691,-6363,111697,99019
2913.2,17592,-5538,111758,99133
2915.2,18116,-5283,111533,98941
2917.2,18670,-5248,111478,98863
2919.2,17943,-5165,111817,99176
2921.2,16811,-5315,112036,99392
2923.2,16808,-5716,111634,98963
2925.2,17067,-5912,110922,98205
2927.2,16475,-5697,110664,97930
2929.2,16285,-5510,111003,98256
2931.2,17409,-5756,111267,98458
2933.2,18445,-5867,111039,98170
2935.2,18253,-5261,110743,97866
2937.2,17141,-5022,110726,97841
2939.2,15753,-6053,110760,97839
2941.2,15355,-6463,110796,97877
2943.2,16839,-4819,111001,98145
2945.2,18333,-3806,111015,98213
2947.2,17639,-5704,110502,97713
2949.2,16211,-7730,110046,97273
2951.2,16296,-7005,110214,97464
2953.2,16821,-5613,110501,97748
2955.2,16270,-6059,110314,97536
2957.2,15858,-6785,109995,97192
2959.2,16620,-6019,109975,97144
2961.2,17275,-5206,109981,97123
2963.2,16886,-5683,109778,96915
2965.2,16263,-6276,109694,96847
2967.2,16111,-6107,109891,97065
2969.2,16286,-6022,110011,97200
2971.2,16624,-6281,109902,97094
2973.2,16813,-6228,109860,97037
2975.2,16430,-6210,109978,97147
2977.2,15973,-6809,110116,97294
2979.2,16291,-7278,110299,97471
2981.2,16796,-7144,110423,97562
2983.2,16498,-7152,110208,97311
2985.2,16315,-7070,109927,97001
2987.2,17389,-5896,110081,97127
2989.2,18348,-4710,110282,97331
2991.2,17546,-5401,109956,97038
2993.23,16081,-7150,109586,96674
2995.25,15558,-7905,109675,96726
2997.28,15661,-7527,109722,96733
2999.3,16005,-6728,109528,96499
3001.3,16855,-5686,109680,96594
3003.3,17348,-5166,110022,96897
3005.3,16653,-5837,109858,96730
3007.3,15964,-6622,109562,96432
3009.3,16295,-6460,109799,96659
3011.3,16775,-5967,110083,96949
3013.3,16967,-5570,109917,96802
3015.3,17413,-4907,109777,96670
3017.3,17514,-4557,109792,96689
3019.3,16518,-5145,109441,96338
3021.3,15570,-5683,108958,95819
3023.3,15807,-5517,108979,95772
3025.3,16441,-5699,109194,95939
3027.3,16509,-6595,109097,95841
3029.3,16194,-7099,109055,95815
3031.3,15846,-6869,109373,96114
3033.3,15655,-6477,109704,96398
3035.3,15851,-5946,109977,96655
3037.3,16121,-5351,110340,97056
3039.3,15980,-5268,110386,97145
3041.3,15849,-5421,109902,96658
3043.3,16277,-5024,109500,96229
3045.3,16720,-4471,109468,96175
3047.3,16652,-4522,109414,96088
3049.3,16734,-4799,109437,96072
3051.3,17449,-4856,109896,96512
3053.3,18007,-5009,110287,96890
3055.3,17802,-5168,110074,96630
3057.3,17388,-4943,109766,96260
3059.3,17237,-4801,109865,96336
3061.3,17142,-5091,110015,96503
3063.3,17043,-5042,109907,96413
3065.3,16930,-4393,109704,96218
3067.3,16530,-4046,109510,96016
3069.3,16188,-4139,109391,95884
3071.3,16596,-3975,109455,95978
3073.3,17163,-3912,109498,96113
3075.3,16919,-4581,109377,96075
3077.3,16581,-5128,109407,96114
3079.3,17005,-4794,109593,96275
3081.3,17199,-4415,109450,96135
3083.3,16566,-4472,109135,95824
3085.3,16332,-4281,109290,95946
3087.3,16728,-4001,109686,96314
3089.3,16552,-4319,109648,96310
3091.3,16245,-4513,109363,96100
3093.3,16976,-3923,109319,96102
3095.3,17498,-3580,109312,96100
3097.3,16445,-4057,109050,95835
3099.3,15503,-4533,108654,95432
3101.3,16142,-4929,108273,95013
3103.3,16703,-5571,108141,94822
3105.3,16181,-5499,108462,95110
3107.3,16380,-4429,108705,95340
3109.3,17384,-4133,108360,94955
3111.3,16288,-5296,108270,94813
3113.3,13140,-6184,109166,95694
3115.3,12249,-5882,109755,96308
3117.3,15056,-5431,108740,95320
3119.3,17710,-5386,107292,93874
3121.3,17690,-5292,107054,93603
3123.3,16884,-5155,107590,94091
3125.3,16894,-5304,107832,94326
3127.3,16820,-5550,107881,94414
3129.3,16209,-5590,107976,94535
3131.3,15882,-5425,107780,94331
3133.3,15997,-5186,107358,93912
3135.3,16042,-5184,107210,93783
3137.3,16061,-5635,107361,93924
3139.3,16423,-6035,107538,94076
3141.3,16995,-5755,107702,94235
3143.3,17183,-5245,107814,94345
3145.3,16626,-5400,107762,94263
3147.3,15713,-6037,107627,94095
3149.3,15292,-6294,107572,94021
3151.3,15796,-6025,107674,94106
3153.3,16618,-5798,107866,94306
3155.3,16577,-5955,107842,94332
3157.3,15607,-6144,107472,93992
3159.3,15248,-5751,107232,93713
3161.3,16118,-5116,107393,93805
3163.3,16539,-5539,107368,93720
3165.3,15635,-7031,106853,93104
3167.3,15072,-7787,106474,92551
3169.3,15706,-7295,106531,92432
3171.3,16115,-7188,106591,92388
3173.3,15898,-7839,106613,92366
3175.3,16341,-7665,106863,92592
3177.3,17258,-6507,107079,92824
3179.3,17261,-5771,107122,92976
3181.3,16736,-5341,107532,93592
3183.3,17002,-4100,108443,94774
3185.3,17657,-2481,109272,95952
3187.3,17590,-1253,109899,97024
3189.3,17071,279,110687,98260
3191.3,16860,2400,111508,99419
3193.3,16879,3939,112088,100296
3195.3,16870,4660,112689,101283
3197.3,16880,5747,113463,102453
3199.3,17039,7342,114130,103357
3201.3,17761,8271,114723,104042
3203.3,18977,7820,115365,104709
3205.3,19154,6195,115524,104761
3207.3,17597,4412,114888,103843
3209.3,16452,3729,114197,102790
3211.3,17054,3547,113908,102059
3213.3,17221,1809,113303,100806
3215.3,15764,-1125,111956,98700
3217.3,15033,-2673,110588,96813
3219.3,15896,-2666,109813,95898
3221.3,16089,-3099,109332,95445
3223.3,15326,-3911,108653,94757
3225.3,15703,-3881,107822,93896
3227.3,16882,-3869,107376,93460
3229.3,16755,-4910,107548,93667
3231.3,15640,-5710,107579,93725
3233.33,15240,-5139,106818,92972
3235.35,15539,-4412,106222,92368
3237.38,15640,-4824,106909,93045
3239.4,15469,-5766,107878,93982
3241.4,15315,-6121,107578,93601
3243.4,15303,-5904,106657,92585
3245.4,15514,-5707,106540,92440
3247.4,15748,-5534,106833,92762
3249.4,15649,-5068,106555,92498
3251.4,15335,-4677,106197,92135
3253.4,15268,-4985,106512,92478
3255.4,15488,-5645,106993,92999
3257.4,15599,-5851,106955,92948
3259.4,15457,-5733,106629,92563
3261.4,15322,-5841,106421,92307
3263.4,15329,-5844,106319,92180
3265.4,15320,-5264,106350,92177
3267.4,15207,-4725,106606,92397
3269.4,15073,-4931,106819,92608
3271.4,15013,-5264,106690,92521
3273.4,15219,-4858,106493,92381
3275.4,15833,-4207,106639,92574
3277.4,16358,-4329,106946,92903
3279.4,15876,-5169,107011,92954
3281.4,14512,-5800,106973,92878
3283.4,13930,-5533,107169,93049
3285.4,15147,-4535,107389,93270
3287.4,16620,-3838,107203,93075
3289.4,16396,-4232,106698,92545
3291.4,15240,-5010,106277,92139
3293.4,15048,-5023,106041,91971
3295.4,15438,-4486,105964,91943
3297.4,15084,-4190,106283,92246
3299.4,14733,-4096,107007,92939
3301.4,15539,-4166,107497,93421
3303.4,16473,-4791,107291,93210
3305.4,16173,-5607,106832,92737
3307.4,15123,-5997,106671,92564
3309.4,14356,-6333,106656,92542
3311.4,14187,-6727,106574,92433
3313.4,14650,-6220,106663,92471
3315.4,15462,-4831,106958,92721
3317.4,15925,-3928,107036,92791
3319.4,15630,-3793,106789,92562
3321.4,14707,-3578,106609,92414
3323.4,13749,-3377,106666,92533
3325.4,13769,-3784,106710,92668
3327.4,15082,-4429,106676,92693
3329.4,16433,-4797,106793,92802
3331.4,16498,-5095,106980,92947
3333.4,15606,-5319,106826,92743
3335.4,15120,-4995,106422,92286
3337.4,15705,-4298,106366,92208
3339.4,16560,-4057,106657,92533
3341.4,16461,-4384,106693,92609
3343.4,15602,-4423,106502,92418
3345.4,15203,-3836,106602,92512
3347.4,15319,-3427,106836,92762
3349.4,15234,-3636,106834,92770
3351.4,15326,-3771,106918,92865
3353.4,15789,-3637,107171,93158
3355.4,15409,-4047,106921,92947
3357.4,14291,-4761,106295,92321
3359.4,14536,-4467,106415,92433
3361.4,16100,-3504,107273,93312
3363.4,16425,-3441,107565,93626
3365.4,15347,-3816,106996,93067
3367.4,15301,-2971,106643,92757
3369.4,16462,-1647,106960,93143
3371.4,16691,-1959,107295,93529
3373.4,15705,-3651,107284,93574
3375.4,15138,-4546,107247,93619
3377.4,15514,-3668,107322,93724
3379.4,16004,-2026,107218,93559
3381.4,15952,-1361,106832,93116
3383.4,15395,-2422,106532,92835
3385.4,15061,-3824,106738,93078
3387.4,15608,-3787,107348,93714
3389.4,16414,-2775,107769,94199
3391.4,16499,-2135,107641,94153
3393.4,16320,-1521,107256,93790
3395.4,16577,-618,107043,93528
3397.4,16439,-933,106975,93392
3399.4,15286,-2819,106808,93168
3401.4,14368,-3996,106606,92935
3403.4,14654,-3437,106693,93039
3405.4,15262,-2895,107154,93563
3407.4,15382,-3079,107519,93988
3409.4,15291,-2779,107247,93715
3411.4,15002,-2301,106612,93005
3413.4,14435,-2954,106451,92763
3415.4,14414,-3594,106835,93130
3417.4,15225,-2661,106970,93307
3419.4,15706,-1838,106638,93013
3421.4,15397,-2817,106446,92823
3423.4,15104,-3701,106597,92950
3425.4,14734,-3060,106731,93045
3427.4,13823,-2894,106829,93110
3429.4,13594,-4102,107033,93317
3431.4,14893,-4552,107037,93340
3433.4,15942,-3735,106669,92985
3435.4,15377,-3531,106414,92748
3437.4,14573,-3923,106560,92916
3439.4,14641,-3457,106719,93048
3441.4,14671,-2848,106649,92912
3443.4,14203,-3399,106565,92799
3445.4,13997,-4032,106449,92716
3447.4,14160,-3565,106140,92446
3449.4,14200,-3133,105992,92316
3451.4,14260,-3671,106352,92698
3453.4,14607,-4001,106776,93137
3455.4,14978,-3246,106722,93066
3457.4,15142,-2419,106443,92770
3459.4,15096,-2400,106361,92703
3461.4,14801,-2650,106347,92715
3463.4,14460,-2642,106281,92666
3465.4,14415,-2819,106411,92823
3467.4,14433,-3545,106655,93097
3469.4,14109,-4180,106539,92990
3471.4,13937,-3810,106172,92632
3473.4,14606,-2633,106189,92693
3475.4,15440,-1891,106499,93057
3477.4,15214,-2140,106368,92936
3479.4,14238,-2598,105922,92469
3481.4,13836,-2770,106104,92652
3483.43,14194,-3175,106945,93516
3485.45,14534,-3697,107431,94010
3487.48,14611,-3420,107233,93796
3489.5,14379,-2902,106987,93537
3491.5,13554,-3742,106906,93455
3493.5,12751,-5256,106603,93156
3495.5,13050,-5190,106214,92771
3497.5,13871,-3915,106308,92882
3499.5,13889,-3665,106779,93392
3501.5,13733,-4108,106953,93590
3503.5,14718,-3411,106698,93310
3505.5,15905,-2394,106479,93055
3507.5,15574,-2762,106377,92964
3509.5,14348,-3258,106062,92684
3511.5,14027,-2121,105733,92353
3513.5,14521,-915,105909,92512
3515.5,14376,-1977,106379,93003
3517.5,13608,-4388,106681,93346
3519.5,13680,-5528,107089,93788
3521.5,14637,-4821,107698,94417
3523.5,14718,-3723,107629,94328
3525.5,13549,-3193,106670,93303
3527.5,12969,-3013,106066,92660
3529.5,13718,-2967,106452,93076
3531.5,14468,-2990,106953,93619
3533.5,14723,-2479,107025,93695
3535.5,15171,-1277,107056,93712
3537.5,15376,-744,107093,93731
3539.5,14681,-1832,106975,93588
3541.5,14248,-3060,107139,93748
3543.5,15005,-2645,107715,94365
3545.5,15659,-1389,107969,94663
3547.5,15187,-1055,107586,94286
3549.5,14573,-1378,107061,93746
3551.5,14485,-1230,106636,93325
3553.5,14226,-1268,106391,93121
3555.5,13705,-2638,106761,93564
3557.5,13678,-4197,107537,94409
3559.5,14147,-3928,107696,94602
3561.5,14602,-2363,107230,94148
3563.5,14847,-1897,107154,94073
3565.5,14480,-3145,107379,94266
3567.5,13450,-4261,107055,93891
3569.5,13228,-3728,106658,93490
3571.5,14739,-2273,107093,93983
3573.5,16035,-1722,107682,94629
3575.5,15242,-2490,107430,94410
3577.5,13950,-3006,106871,93880
3579.5,14205,-2248,106749,93757
3581.5,14777,-1580,106635,93580
3583.5,14011,-2438,106210,93122
3585.5,13260,-3752,106127,93111
3587.5,14057,-3840,106622,93692
3589.5,15013,-3203,106896,93964
3591.5,14506,-3291,106534,93579
3593.5,13516,-4076,106206,93286
3595.5,13491,-4614,106433,93562
3597.5,13934,-4635,106735,93866
3599.5,13917,-4317,106550,93656
3601.5,13880,-3704,106215,93311
3603.5,14408,-3154,106294,93410
3605.5,14831,-3218,106507,93654
3607.5,14433,-3591,106248,93378
3609.5,13768,-3536,105752,92815
3611.5,13606,-3390,105711,92753
3613.5,13785,-3832,106089,93204
3615.5,13928,-4108,106295,93483
3617.5,13959,-3441,106120,93313
3619.5,13663,-3114,105857,93037
3621.5,13211,-4236,105902,93088
3623.5,13526,-5168,106369,93563
3625.5,14640,-4265,106795,94004
3627.5,15120,-2927,106649,93892
3629.5,14446,-2893,106198,93473
3631.5,13920,-3096,106038,93335
3633.5,14256,-2279,106117,93429
3635.5,14517,-2145,106201,93482
3637.5,14136,-4343,106489,93691
3639.5,13783,-6466,106864,94011
3641.5,13757,-5304,106590,93719
3643.5,13575,-2508,105571,92634
3645.5,13536,-2165,104930,91880
3647.5,14476,-4351,105585,92477
3649.5,15630,-6178,106826,93720
3651.5,15288,-7011,107098,93946
3653.5,13751,-7644,106089,92849
3655.5,12876,-7279,105105,91846
3657.5,13130,-5633,105121,91935
3659.5,13737,-4614,105693,92620
3661.5,14469,-4987,106254,93341
3663.5,15089,-4897,107006,94326
3665.5,15050,-3190,108018,95627
3667.5,14856,-1007,108809,96784
3669.5,15353,569,109225,97645
3671.5,15982,1979,109672,98504
3673.5,16003,3785,110443,99608
3675.5,16005,5486,111481,101016
3677.5,16437,6505,112554,102488
3679.5,16681,7168,113360,103485
3681.5,16573,7577,113807,103858
3683.5,16765,7046,114112,104032
3685.5,17215,6006,114242,104044
3687.5,17087,6060,113865,103417
3689.5,16304,6736,113248,102425
3691.5,15761,5506,113084,101885
3693.5,15773,2260,113008,101376
3695.5,15679,-78,111938,99755
3697.5,15255,-273,110185,97552
3699.5,14851,-322,109115,96354
3701.5,14127,-1677,108759,96052
3703.5,12856,-3258,108160,95461
3705.5,12337,-3807,107553,94823
3707.5,13439,-3637,107615,94918
3709.5,14648,-3465,107691,95060
3711.5,14449,-3493,107107,94511
3713.5,13637,-3904,106659,94089
3715.5,13532,-4602,107012,94466
3717.5,14061,-4762,107422,94881
3719.5,14496,-4144,107238,94710
3721.5,14495,-3715,106876,94404
3723.53,14297,-3767,106798,94368
3725.55,14383,-3525,106919,94452
3727.58,14571,-3310,107069,94513
3729.6,13993,-4245,107074,94459
3731.6,12618,-5619,106725,94106
3733.6,11744,-5517,106260,93662
3735.6,12257,-4028,106292,93717
3737.6,13290,-3304,106845,94299
3739.6,13464,-4238,107171,94664
3741.6,13015,-4953,106940,94461
3743.6,13270,-3802,106752,94274
3745.6,14047,-2409,106986,94496
3747.6,13956,-3066,107199,94719
3749.6,13421,-4494,107220,94764
3751.6,14038,-4108,107487,95040
3753.6,15077,-2649,107809,95371
3755.6,14500,-2344,107394,95006
3757.6,12819,-3063,106541,94211
3759.6,12252,-3671,106487,94158
3761.6,13093,-4034,107298,94941
3763.6,13831,-4043,107836,95499
3765.6,13663,-3699,107754,95472
3767.6,13009,-3698,107629,95351
3769.6,12570,-3944,107546,95210
3771.6,12632,-3875,107363,94995
3773.6,12779,-4483,107457,95135
3775.6,12539,-6096,107826,95549
3777.6,12496,-5920,107827,95488
3779.6,13614,-2629,107522,95054
3781.6,15188,-106,107514,94993
3783.6,15246,-1602,107549,95079
3785.6,13618,-4453,107212,94789
3787.6,12399,-5217,107086,94654
3789.6,12551,-5040,107562,95113
3791.6,12772,-5585,108017,95559
3793.6,12611,-5057,108153,95662
3795.6,13296,-2595,108331,95826
3797.6,14567,-1444,108495,96062
3799.6,14473,-3536,108374,96076
3801.6,13106,-5603,108205,96015
3803.6,12727,-4548,108201,96037
3805.6,13748,-2394,108239,96024
3807.6,14220,-2297,108303,96016
3809.6,13465,-3479,108366,96050
3811.6,12930,-3540,108300,95995
3813.6,13425,-2689,108343,96039
3815.6,14098,-2627,108751,96442
3817.6,14108,-3517,109098,96820
3819.6,13616,-4298,108970,96728
3821.6,13272,-4397,108748,96482
3823.6,13423,-3960,108818,96483
3825.6,13681,-3587,108900,96513
3827.6,13627,-3763,108816,96408
3829.6,13820,-3796,108871,96473
3831.6,14658,-2779,109071,96716
3833.6,14943,-1768,109019,96702
3835.6,13879,-2201,108769,96460
3837.6,13025,-2807,108767,96454
3839.6,13676,-1953,109053,96708
3841.6,14588,-1382,109459,97045
3843.6,14530,-2936,110000,97562
3845.6,14181,-4224,110244,97895
3847.6,14199,-2458,109572,97343
3849.6,14370,430,108634,96481
3851.6,14643,782,108723,96643
3853.6,14822,-1501,109597,97578
3855.6,14570,-3503,110031,98013
3857.6,14577,-3127,109962,97956
3859.6,15343,-1232,109971,98042
3861.6,15559,-493,109898,97990
3863.6,14508,-1657,109670,97667
3865.6,13857,-2326,109851,97796
3867.6,14461,-1269,110420,98421
3869.6,14706,-690,110654,98699
3871.6,13891,-1670,110369,98435
3873.6,13523,-1996,110011,98148
3875.6,14214,-903,109920,98067
3877.6,14748,-546,110096,98094
3879.6,14524,-1242,110146,98015
3881.6,14196,-953,109695,97595
3883.6,14112,131,109168,97094
3885.6,14102,16,109238,97084
3887.6,14291,-894,109656,97458
3889.6,14740,-979,109820,97671
3891.6,14918,-928,109866,97725
3893.6,14547,-1843,110044,97850
3895.6,14108,-2601,110005,97791
3897.6,13802,-2397,109552,97340
3899.6,13351,-2314,109138,96898
3901.6,13246,-2320,109176,96929
3903.6,14208,-1110,109503,97318
3905.6,15240,169,109673,97571
3907.6,14786,-883,109532,97469
3909.6,13686,-3042,109470,97368
3911.6,14015,-3021,109845,97646
3913.6,15333,-1235,110273,98022
3915.6,15412,-722,110160,97965
3917.6,14224,-1579,109719,97592
3919.6,13584,-1831,109555,97388
3921.6,13394,-2080,109568,97296
3923.6,12380,-3643,109341,97019
3925.6,11644,-4481,109128,96832
3927.6,12764,-2824,109369,97095
3929.6,14028,-1246,109672,97353
3931.6,13466,-1702,109439,97036
3933.6,12757,-1975,109050,96603
3935.6,13550,-1350,109292,96857
3937.6,14142,-2333,109951,97537
3939.6,13344,-4218,110150,97729
3941.6,12600,-3639,109766,97319
3943.6,12579,-1570,109478,97000
3945.6,12602,-1296,109645,97126
3947.6,12887,-2152,109977,97428
3949.6,13444,-2206,110144,97610
3951.6,13328,-2156,110113,97636
3953.6,12987,-2299,109991,97545
3955.6,13471,-1723,109826,97329
3957.6,13757,-1466,109638,97058
3959.6,13144,-2414,109621,97054
3961.7,13426,-2459,109980,97536
3963.7,14898,-809,110383,98036
3965.7,14910,-282,110251,97884
3967.7,13075,-1851,109780,97346
3969.7,12259,-2873,109722,97252
3971.7,13190,-2300,110069,97590
3973.7,13635,-1847,110124,97661
3975.7,12837,-2182,109785,97366
3977.7,12249,-2418,109604,97214
3979.7,12707,-2066,109762,97373
3981.7,13702,-1247,109913,97535
3983.7,14357,-611,109862,97470
3985.7,14181,-871,109725,97268
3987.7,13601,-1332,109584,97115
3989.7,13257,-1136,109440,97050
3991.7,12927,-1356,109454,97073
3993.7,12521,-2327,109738,97250
3995.7,12783,-1865,109990,97474
3997.7,13521,-26,109986,97562
3999.7,13485,-78,110110,97698
4001.7,12858,-1813,110514,98000
4003.7,12798,-1701,110535,97990
4005.7,13020,-407,110057,97582
4007.7,13064,-834,110044,97620
4009.7,13807,-1029,110626,98214
4011.7,14890,1138,110648,98244
4013.7,14401,1969,109954,97529
4015.7,12884,-433,109672,97230
4017.7,12752,-1357,109964,97545
4019.7,13552,902,110065,97615
4021.7,13281,1684,110116,97540
4023.7,12766,-12,110545,97896
4025.7,13449,-73,110786,98188
4027.7,13941,1555,110458,97905
4029.7,13081,1423,110194,97637
4031.7,12468,84,110345,97802
4033.7,13199,128,110599,98072
4035.7,14114,886,110894,98361
4037.7,14309,921,111139,98633
4039.7,13986,820,110871,98387
4041.7,13309,790,110245,97702
4043.7,12692,220,110012,97430
4045.7,12811,-186,110149,97651
4047.7,13369,404,110082,97633
4049.7,13564,1040,109934,97397
4051.7,13537,787,110099,97515
4053.7,13759,482,110301,97779
4055.7,13964,1037,110162,97631
4057.7,13801,1711,109868,97258
4059.7,13447,1401,109660,97112
4061.7,13214,675,109495,97092
4063.7,13239,1008,109335,96908
4065.7,13308,2172,109154,96587
4067.7,13037,2507,108919,96315
4069.7,12765,2053,108851,96290
4071.7,13209,2415,109156,96598
4073.7,13829,3203,109477,96932
4075.7,13603,2536,109408,96919
4077.7,13277,1090,109303,96821
4079.7,13998,1040,109588,97073
4081.7,14647,1692,109795,97310
4083.7,13806,1051,109424,96977
4085.7,12675,144,108969,96456
4087.7,12821,829,108940,96313
4089.7,13340,1827,108893,96236
4091.7,12997,1534,108487,95900
4093.7,12549,1359,108291,95815
4095.7,12802,2393,108597,96224
4097.7,12986,2951,108766,96437
4099.7,12630,2293,108509,96128
4101.7,12610,2047,108520,96036
4103.7,13209,2467,109157,96606
4105.7,13402,2220,109652,97116
4107.7,12766,1710,109352,96891
4109.7,12148,2007,108748,96375
4111.7,12100,2318,108580,96259
4113.7,12351,2072,108724,96397
4115.7,12762,2462,108732,96386
4117.7,13372,3722,108692,96361
4119.7,13764,4324,108784,96458
4121.7,13455,3577,108727,96337
4123.7,12739,2349,108376,95889
4125.7,12457,1673,108112,95540
4127.7,12856,1895,108143,95447
4129.7,13163,2383,108148,95277
4131.7,12941,2539,107941,94959
4133.7,13134,3102,107831,94849
4135.7,14292,4358,108093,95105
4137.7,14890,4357,108481,95442
4139.7,13692,2231,108542,95551
4141.7,12322,780,108334,95551
4143.7,12860,2312,108544,95995
4145.7,14569,5112,109548,97180
4147.7,15433,6811,110709,98558
4149.7,15253,7749,111254,99408
4151.7,15200,9217,111459,99931
4153.7,15680,11439,112067,100826
4155.7,16197,14041,113037,102059
4157.7,16606,16490,113885,103111
4159.7,17276,18187,114628,104004
4161.7,18047,18925,115416,104959
4163.7,18161,18611,115971,105657
4165.7,17656,17123,116178,105812
4167.7,17435,15320,116289,105643
4169.7,17480,14604,116162,105160
4171.7,16862,14629,115437,104075
4173.7,15754,13707,114365,102601
4175.7,15171,11683,113361,101191
4177.7,14902,9783,112284,99829
4179.7,14095,8302,111121,98530
4181.7,13170,7195,110385,97728
4183.7,12902,7156,110133,97428
4185.7,12821,7690,109752,97043
4187.7,12489,7059,109151,96494
4189.7,12709,5723,108929,96311
4191.7,13645,5720,109145,96491
4193.7,13715,6286,109068,96346
4195.7,12334,5369,108436,95716
4197.7,11596,4545,107992,95345
4199.7,12994,6262,108270,95663
4201.8,14688,8333,108693,96040
4203.8,14509,7502,108564,95852
4205.8,13317,5384,108186,95469
4207.8,12819,4977,108126,95420
4209.8,12599,5418,108192,95467
4211.8,11840,5091,108024,95277
4213.8,11343,5043,107885,95137
4215.8,11728,5779,108096,95339
4217.8,12231,5982,108407,95614
4219.8,12503,6035,108460,95623
4221.8,12953,7312,108284,95412
4223.8,13128,8308,108031,95132
4225.8,12354,7024,107731,94823
4227.8,11449,5263,107574,94676
4229.8,11574,5434,107868,94981
4231.8,12359,6098,108428,95536
4233.8,12672,5225,108655,95751
4235.8,12264,4322,108512,95626
4237.8,11786,5291,108505,95679
4239.8,11819,6666,108616,95838
4241.8,12311,6598,108505,95715
4243.8,12902,6261,108443,95614
4245.8,13433,7079,108653,95801
4247.8,13821,7974,108696,95814
4249.8,13962,8077,108617,95682
4251.8,14027,8422,108954,95999
4253.8,13984,8987,109180,96264
4255.8,13226,8258,108509,95633
4257.8,11856,6672,107783,94905
4259.8,11256,6345,107959,95056
4261.8,12081,7521,108211,95287
4263.8,13138,8632,107853,94923
4265.8,13191,8784,107765,94852
4267.8,12512,8127,108297,95405
4269.8,12076,7232,108531,95623
4271.8,12265,6842,108316,95364
4273.8,12793,7182,108403,95421
4275.8,13372,7794,108762,95775
4277.8,13854,8283,108850,95874
4279.8,13895,8517,108723,95776
4281.8,13375,8578,108597,95687
4283.8,12911,8848,108380,95494
4285.8,12923,9421,108142,95278
4287.8,12986,9915,108110,95284
4289.8,13001,10308,108254,95448
4291.8,13434,10606,108471,95629
4293.8,14029,10124,108802,95901
4295.8,14220,8916,109218,96285
4297.8,14219,8322,109523,96580
4299.8,14010,8461,109509,96570
4301.8,13152,8007,109169,96243
4303.8,12521,7401,108861,95925
4305.8,13298,8362,109007,96016
4307.8,14363,10080,109421,96389
4309.8,14073,10263,109440,96432
4311.8,13226,9260,108967,96015
4313.8,13076,9030,108708,95805
4315.8,12910,9546,109042,96184
4317.8,12230,9692,109428,96581
4319.8,12255,9716,109413,96517
4321.8,13307,10165,109352,96411
4323.8,13853,10474,109542,96610
4325.8,13348,10235,109633,96699
4327.8,13067,10047,109513,96520
4329.8,13422,10410,109657,96608
4331.8,13346,11090,110051,96986
4333.8,12839,11650,110016,96940
4335.8,13271,11948,109486,96406
4337.8,14636,12243,109242,96197
4339.8,15259,12688,109588,96590
4341.8,14668,12776,109894,96915
4343.8,14159,12247,109693,96723
4345.8,14315,12021,109334,96373
4347.8,14389,12685,109247,96270
4349.8,14120,13144,109292,96295
4351.8,14055,12527,109274,96294
4353.8,14202,11655,109350,96398
4355.8,14093,11294,109489,96530
4357.8,13904,11198,109396,96420
4359.8,14107,11367,109256,96293
4361.8,14479,11883,109455,96486
4363.8,14623,12136,109667,96589
4365.8,14688,12053,109485,96234
4367.8,14686,12240,109272,95956
4369.8,14370,12285,109254,96062
4371.8,14209,11802,109110,96089
4373.8,14599,12027,109087,96111
4375.8,14498,13125,109568,96533
4377.8,13294,12915,109741,96663
4379.8,12476,11184,109024,95928
4381.8,12812,10632,108553,95415
4383.8,12765,11679,108996,95817
4385.8,11963,11853,109066,95883
4387.8,12191,10813,108097,94899
4389.8,13473,10518,107380,94122
4391.8,13812,11164,107767,94450
4393.8,13100,11388,108512,95187
4395.8,12921,11078,108809,95499
4397.8,13372,11089,108544,95218
4399.8,13543,11554,108004,94618
4401.8,13448,11830,107816,94361
4403.8,13375,11450,108265,94781
4405.8,13134,10823,108678,95216
4407.8,12736,10683,108510,95063
4409.8,12424,10858,108210,94738
4411.8,12341,10768,108190,94697
4413.8,12706,10793,108168,94697
4415.8,13371,11392,108031,94590
4417.8,13509,11776,108112,94667
4419.8,12800,11310,108407,94944
4421.8,12148,10816,108507,95030
4423.8,12380,11026,108297,94810
4425.8,13134,11459,108119,94635
4427.8,13484,11656,108242,94781
4429.8,13045,11713,108460,95019
4431.8,12355,11488,108345,94902
4433.8,12297,11071,107913,94462
4435.8,13012,11339,107721,94264
4437.8,13783,12335,107985,94508
4439.8,14085,12648,108137,94621
4441.8,13907,12010,107848,94289
4443.83,13140,12011,107715,94113
4445.85,11972,12900,108123,94488
4447.88,11448,12949,108426,94791
4449.9,12053,11859,108180,94579
4451.9,12663,11206,107957,94396
4453.9,12510,11472,108082,94546
4455.9,12457,11863,108029,94501
4457.9,12833,12119,107691,94162
4459.9,12568,12174,107720,94190
4461.9,11681,11702,108234,94700
4463.9,11517,11023,108564,95018
4465.9,12099,10728,108388,94821
4467.9,12405,10736,108074,94480
4469.9,12504,10894,107976,94344
4471.9,12674,11247,107974,94299
4473.9,12511,11486,107804,94094
4475.9,12511,11616,107647,93911
4477.9,13417,12245,107897,94136
4479.9,14037,13138,108247,94473
4481.9,13219,13244,108055,94278
4483.9,12235,12475,107712,93925
4485.9,12178,11579,108090,94304
4487.9,12172,10886,108836,95072
4489.9,11941,10620,108983,95215
4491.9,12288,11079,108662,94843
4493.9,12829,11753,108522,94665
4495.9,12709,11839,108511,94669
4497.9,12391,11569,108456,94627
4499.9,12501,11678,108492,94637
4501.9,12888,12180,108402,94526
4503.9,13342,12613,107995,94124
4505.9,13479,12802,107866,93993
4507.9,12986,12932,108394,94515
4509.9,12699,13212,108884,95030
4511.9,13174,13377,108790,94975
4513.9,13010,12804,108552,94743
4515.9,11519,11687,108558,94731
4517.9,10770,11180,108605,94777
4519.9,11937,11579,108586,94788
4521.9,12938,11795,108620,94859
4523.9,12393,11484,108683,94930
4525.9,11963,11666,108784,95001
4527.9,12608,12461,108962,95146
4529.9,12816,12609,108988,95159
4531.9,12117,11997,108736,94907
4533.9,12064,12092,108558,94726
4535.9,12780,13202,108640,94801
4537.9,12797,13844,108619,94756
4539.9,12335,13238,108305,94387
4541.9,12658,12198,108010,94035
4543.9,13141,11517,107926,93947
4545.9,12709,11319,107916,93995
4547.9,12177,11498,107928,94078
4549.9,12264,11612,108048,94220
4551.9,12207,11380,108202,94347
4553.9,11969,11453,108150,94270
4555.9,12303,12116,107797,93914
4557.9,12528,12214,107385,93495
4559.9,11783,11317,107250,93329
4561.9,11138,10829,107388,93435
4563.9,11458,11156,107507,93556
4565.9,11748,11056,107464,93542
4567.9,11547,10835,107281,93382
4569.9,11669,11903,106989,93087
4571.9,11914,13101,106799,92896
4573.9,11559,12235,106977,93110
4575.9,11417,10294,107330,93518
4577.9,12071,9637,107468,93677
4579.9,12144,10043,107539,93739
4581.9,11211,10276,107851,94056
4583.9,11158,10684,108039,94264
4585.9,12262,11457,107667,93904
4587.9,12250,11560,107174,93421
4589.9,10975,11056,107116,93383
4591.9,10857,11280,107211,93492
4593.9,11800,12129,107184,93476
4595.9,11462,12237,107432,93765
4597.9,10365,11658,107964,94354
4599.9,10741,11472,108083,94496
4601.9,11800,11471,107665,94070
4603.9,11693,10895,107247,93644
4605.9,11370,10333,106870,93228
4607.9,11936,10519,106371,92626
4609.9,12130,10708,106167,92306
4611.9,11493,10246,106439,92498
4613.9,11470,9907,106610,92594
4615.9,12071,10126,106449,92354
4617.9,12052,10112,106403,92280
4619.9,11873,9783,106626,92532
4621.9,12391,10131,106885,92854
4623.9,12661,11192,107174,93279
4625.9,12201,12172,107658,93983
4627.9,12414,13317,108398,94968
4629.9,13673,15149,109299,96144
4631.9,14340,16844,110019,97220
4633.9,13773,17722,110405,97980
4635.9,13261,18863,110973,98858
4637.9,13665,21147,112090,100298
4639.9,14443,23447,113207,101806
4641.9,14879,24499,113839,102740
4643.9,14920,24654,114259,103265
4645.9,15035,24471,114545,103555
4647.9,15542,23574,114365,103336
4649.9,15978,22071,114028,102820
4651.9,15645,21077,114124,102588
4653.9,14736,20747,114209,102315
4655.9,13930,19788,113442,101166
4657.9,13218,17788,112102,99364
4659.9,12267,15986,111032,97868
4661.9,11388,15109,110211,96863
4663.9,11026,14518,109244,95938
4665.9,11102,13839,108452,95221
4667.9,11515,13536,108231,95019
4669.9,12168,13722,108100,94916
4671.9,12388,13829,107573,94442
4673.9,11804,13473,107070,93958
4675.9,11271,12916,106983,93861
4677.9,11383,12753,106904,93803
4679.9,11360,13133,106626,93570
4681.9,10847,13371,106650,93607
4683.93,10785,12896,107074,94021
4685.95,11308,12144,107312,94267
4687.98,11309,11799,107203,94170
4690.0,10807,11845,107136,94083
4692.0,11011,11980,107148,94048
4694.0,11768,12157,106988,93867
4696.0,11745,12421,106773,93697
4698.0,10987,12763,106760,93768
4700.0,10762,13038,106859,93927
4702.0,11272,13080,106896,93981
4704.0,11596,13120,106935,94032
4706.0,11353,13380,107026,94141
4708.0,10915,13341,107048,94167
4710.0,10567,12683,107051,94164
4712.0,10408,12293,107305,94430
4714.0,10538,12743,107735,94892
4716.0,10949,13041,107817,95012
4718.0,11446,12443,107397,94628
4720.0,11743,11799,106993,94251
4722.0,11739,11948,106955,94219
4724.0,11675,12570,107057,94313
4726.0,11594,13211,107136,94387
4728.0,11135,13768,107282,94553
4730.0,10557,13895,107397,94717
4732.0,10739,13310,107322,94701
4734.0,11461,12536,107238,94650
4736.0,11499,12337,107335,94760
4738.0,10873,12681,107441,94899
4740.0,10795,13040,107359,94865
4742.0,11434,13286,107201,94733
4744.0,11861,13525,107224,94773
4746.0,11775,13570,107486,95093
4748.0,11569,13462,107717,95401
4750.0,11356,13736,107654,95367
4752.0,11025,14241,107519,95223
4754.0,10798,13912,107669,95388
4756.0,11086,12708,107908,95676
4758.0,11751,12178,107909,95713
4760.0,11909,13025,107924,95745
4762.0,11140,13870,108192,96032
4764.0,10425,13608,108321,96184
4766.0,10786,13137,108092,95974
4768.0,11688,13408,107910,95825
4770.0,11975,13623,107911,95878
4772.0,11610,13065,107769,95765
4774.0,11477,12859,107592,95574
4776.0,12024,13899,107820,95786
4778.0,12723,14893,108291,96284
4780.0,12850,14549,108485,96525
4782.0,12506,13794,108424,96489
4784.0,12306,13891,108503,96560
4786.0,12232,14294,108761,96811
4788.0,11799,14046,108919,96991
4790.0,11219,13609,108869,96982
4792.0,11287,13898,108745,96900
4794.0,12036,14672,108712,96911
4796.0,12423,15036,108864,97105
4798.0,11840,14931,109170,97444
4800.0,11337,15012,109400,97711
4802.0,12099,15317,109320,97678
4804.0,13227,15396,109056,97440
4806.0,13119,15625,108986,97368
4808.0,12325,16544,109199,97599
4810.0,12303,17181,109425,97890
4812.0,12673,16363,109550,98096
4814.0,12501,15073,109719,98340
4816.0,12268,14892,109919,98599
4818.0,12294,15283,109990,98698
4820.0,11915,15094,110037,98763
4822.0,11392,14938,110264,99034
4824.0,11705,15535,110442,99256
4826.0,12506,15967,110184,99018
4828.0,12916,15723,109746,98600
4830.0,13081,15910,109809,98697
4832.0,13053,16850,110367,99281
4834.0,12364,17206,110626,99577
4836.0,11724,16525,110246,99263
4838.0,12369,16012,109828,98876
4840.0,13536,16286,109845,98854
4842.0,13520,16637,109968,98935
4844.0,12732,16508,109902,98859
4846.0,12647,15998,109966,98898
4848.0,12908,15298,110343,99251
4850.0,12541,14748,110599,99554
4852.0,12287,14758,110439,99501
4854.0,12781,15128,110210,99362
4856.0,12977,15318,110208,99414
4858.0,12648,15332,110202,99447
4860.0,12820,15384,110100,99361
4862.0,12741,15247,110291,99541
4864.0,11299,14873,110772,100008
4866.0,10522,14748,110831,100078
4868.0,11939,14865,110319,99608
4870.0,12725,14608,110055,99403
4872.0,11233,14150,110273,99661
4874.0,10504,14367,110238,99634
4876.0,11580,15104,109977,99392
4878.0,11304,15291,110312,99787
4880.0,9656,14828,110922,100454
4882.0,10146,14540,110710,100267
4884.0,12298,14445,109994,99564
4886.0,12684,13979,109919,99503
4888.0,11719,13558,110333,99910
4890.0,11812,14011,110405,99975
4892.0,12325,14920,110319,99903
4894.0,11962,15277,110576,100161
4896.0,11692,15198,110862,100419
4898.0,12008,15332,110841,100403
4900.0,11858,15424,110803,100425
4902.0,11367,15044,110902,100568
4904.0,11491,14733,110943,100613
4906.0,11679,14954,111049,100756
4908.0,11185,15135,111415,101197
4910.0,10887,14873,111643,101460
4912.0,11482,14661,111365,101171
4914.0,12130,14749,111014,100822
4916.0,12109,14800,111073,100898
4918.0,11719,14720,111246,101077
4920.0,11504,14605,111165,101015
4922.0,11928,14540,111136,101038
4924.03,12737,14958,111523,101480
4926.05,12475,15810,112016,102008
4928.08,10754,15905,112071,102074
4930.1,9818,14868,111687,101670
4932.1,11029,14170,111309,101255
4934.1,12309,14557,111183,101124
4936.1,12010,14907,111238,101202
4938.1,11675,14641,111436,101415
4940.1,12334,14400,111783,101771
4942.1,12396,14193,112076,102091
4944.1,11256,13649,112114,102171
4946.1,10701,13437,112018,102122
4948.1,11518,14237,111977,102126
4950.1,12332,15339,111994,102155
4952.1,12151,15627,112122,102258
4954.1,11570,15004,112490,102612
4956.1,11578,14299,112956,103106
4958.1,12344,14290,113228,103412
4960.1,13044,14911,113313,103520
4962.1,12962,15388,113422,103658
4964.1,12470,15247,113558,103821
4966.1,12074,14771,113596,103852
4968.1,11547,14476,113546,103771
4970.1,11114,14650,113516,103726
4972.1,11650,15261,113619,103834
4974.1,12857,15926,113869,104089
4976.1,13315,16147,114038,104276
4978.1,12584,15796,113990,104257
4980.1,11409,15279,114082,104364
4982.1,10420,15138,114593,104877
4984.1,10019,15452,115029,105344
4986.1,10555,15738,114856,105215
4988.1,11712,15655,114407,104773
4990.1,12611,15503,114227,104580
4992.1,12750,15674,114249,104630
4994.1,12394,15974,114293,104727
4996.1,12188,15943,114422,104894
4998.1,12449,15553,114496,105004
5000.1,12722,15225,114371,104924
5002.1,12447,15272,114443,105013
5004.1,11983,15611,114955,105502
5006.1,12135,16022,115335,105863
5008.1,12812,16299,115199,105729
5010.1,13113,16207,115054,105601
5012.1,12636,15829,115236,105825
5014.1,11887,15673,115345,105991
5016.1,11525,15843,115213,105892
5018.1,11734,15838,115151,105855
5020.1,12201,15622,115150,105907
5022.1,12507,15691,114977,105770
5024.1,12665,15981,114751,105512
5026.1,12930,16013,114643,105349
5028.1,12980,15668,114654,105330
5030.1,12312,14911,114924,105564
5032.1,11550,13830,115450,106036
5034.1,11713,13155,115787,106361
5036.1,12307,13306,115767,106393
5038.1,12216,13567,115766,106444
5040.1,11747,13421,115864,106552
5042.1,11576,13340,115810,106491
5044.1,11192,13513,115777,106446
5046.1,10490,13594,116003,106652
5048.1,10639,13685,116138,106799
5050.1,11765,13870,115884,106611
5052.1,12368,13675,115655,106455
5054.1,11742,13235,115968,106806
5056.1,10655,13393,116691,107541
5058.1,9992,14014,117182,108022
5060.1,10379,14174,117022,107820
5062.1,11873,13954,116488,107256
5064.1,13273,14008,116193,106978
5066.1,13290,14124,116336,107142
5068.1,12242,13929,116648,107449
5070.1,11289,13795,116822,107630
5072.1,10957,13845,116693,107539
5074.1,11228,13647,116420,107290
5076.1,11828,13452,116502,107353
5078.1,12139,13870,117045,107863
5080.1,11774,14307,117406,108199
5082.1,11147,13762,117172,107939
5084.1,10944,12759,116865,107571
5086.1,11338,12443,117041,107640
5088.1,11922,12503,117409,107889
5090.1,12095,12043,117477,107849
5092.1,11482,11452,117417,107669
5094.1,10440,11450,117573,107708
5096.1,10094,11567,117703,107784
5098.1,11014,11288,117520,107605
5100.1,12122,11214,117398,107492
5102.1,12247,11846,117724,107891
5104.1,12018,12875,118300,108691
5106.1,12387,14242,119003,109705
5108.1,12733,16079,120001,111006
5110.1,12447,17641,121070,112408
5112.1,12353,18249,121840,113574
5114.1,12821,18760,122533,114659
5116.1,12947,20226,123442,115940
5118.1,12658,22019,124326,117227
5120.1,13057,23060,125034,118282
5122.1,14184,23683,125802,119208
5124.1,14801,24502,126601,120043
5126.1,14528,24774,127049,120513
5128.1,14232,23746,127033,120422
5130.1,14206,22314,126893,120014
5132.1,13842,21576,126925,119668
5134.1,13186,20972,126811,119122
5136.1,12934,19465,125944,117688
5138.1,12868,17440,124524,115634
5140.1,12309,16009,123512,114181
5142.1,11594,15246,123189,113702
5144.1,11214,14346,122922,113399
5146.1,10828,13261,122473,112916
5148.1,10597,13003,122193,112651
5150.1,11278,13854,122112,112621
5152.1,12298,14425,121941,112453
5154.1,12317,13637,121615,112093
5156.1,11477,12483,121291,111776
5158.1,10807,12397,121281,111811
5160.1,10603,13149,121780,112338
5162.1,10876,13708,122253,112811
5164.1,11609,13759,121996,112530
5166.1,12080,13428,121465,111943
5168.1,11701,12851,121660,112071
5170.1,11078,12385,122384,112763
5172.1,10932,12243,122678,113062
5174.13,11135,12192,122504,112886
5176.15,11458,12047,122485,112822
5178.18,11782,11873,122662,112932
5180.2,11616,11789,122753,112971
5182.2,10867,11968,122871,113064
5184.2,10424,12337,123138,113315
5186.2,10789,12388,123363,113519
5188.2,11323,12021,123491,113603
5190.2,11586,11886,123651,113695
5192.2,11848,12243,123773,113767
5194.2,12028,12626,123795,113797
5196.2,11845,12863,123911,113944
5198.2,11735,13123,124128,114164
5200.2,12059,13180,124175,114180
5202.2,12220,12812,124105,114061
5204.2,11822,12370,124230,114132
5206.2,11428,12235,124463,114329
5208.2,11367,12372,124534,114389
5210.2,11294,12615,124585,114436
5212.2,11271,12833,124787,114648
5214.2,11679,12984,124918,114814
5216.2,12104,13222,124920,114831
5218.2,11890,13561,125072,114946
5220.2,11414,13678,125313,115146
5222.2,11401,13515,125328,115151
5224.2,11666,13419,125277,115080
5226.2,11664,13295,125477,115241
5228.2,11340,12656,125798,115558
5230.2,10772,11847,126119,115902
5232.2,10229,11827,126562,116318
5234.2,10420,12375,126879,116578
5236.2,11309,12324,126694,116399
5238.2,11753,11900,126338,116084
5240.2,11470,12459,126336,116061
5242.2,11395,13632,126574,116238
5244.2,11497,13672,126844,116490
5246.2,10977,12668,127290,116933
5248.2,10571,12202,127747,117326
5250.2,11484,12300,127705,117209
5252.2,12739,11981,127277,116779
5254.2,12647,11642,127176,116710
5256.2,11753,12000,127662,117180
5258.2,11541,12359,128291,117771
5260.2,11807,12111,128672,118137
5262.2,11760,12008,128853,118299
5264.2,11889,12563,128933,118330
5266.2,12569,13096,128796,118148
5268.2,12814,13107,128476,117799
5270.2,12165,13015,128379,117652
5272.2,11789,13169,128748,117947
5274.2,12346,13287,129258,118404
5276.2,12819,13105,129524,118666
5278.2,12463,12778,129608,118760
5280.2,11976,12493,129718,118849
5282.2,12045,12308,129917,118990
5284.2,12283,12346,130204,119222
5286.2,12201,12562,130478,119480
5288.2,12126,12705,130554,119591
5290.2,12502,12995,130551,119650
5292.2,12832,13828,130829,119993
5294.2,12196,14548,131374,120606
5296.2,10856,14182,131780,121079
5298.2,10384,13317,131861,121208
5300.2,11473,13155,131795,121147
5302.2,12576,13309,131761,121059
5304.2,12141,12936,131811,121008
5306.2,11270,12810,131934,121031
5308.2,11978,13774,132058,121103
5310.2,13634,14781,132101,121134
5312.2,13959,14717,132053,121073
5314.2,12906,14273,131974,120961
5316.2,12475,14302,131956,120918
5318.2,13103,14273,132073,121047
5320.2,13330,13711,132325,121337
5322.2,12762,13275,132599,121639
5324.2,12481,13373,132721,121747
5326.2,12604,13376,132658,121634
5328.2,12165,12999,132645,121554
5330.2,11360,12826,132831,121664
5332.2,11330,12929,132960,121722
5334.2,11918,12682,132824,121533
5336.2,12081,12238,132665,121317
5338.2,11835,12328,132696,121270
5340.2,11684,12658,132785,121292
5342.2,11466,12462,132907,121384
5344.2,11223,12034,133226,121675
5346.2,11377,11908,133611,122012
5348.2,11594,11719,133763,122125
5350.2,11359,11342,133735,122074
5352.2,11072,11413,133760,122056
5354.2,11124,11864,133809,122045
5356.2,11271,11991,133775,121988
5358.2,11392,12005,133847,122071
5360.2,11370,12366,134246,122458
5362.2,10972,12441,134699,122880
5364.2,10807,11843,134708,122879
5366.2,11461,11506,134364,122520
5368.2,11767,11772,134287,122384
5370.2,10700,11648,134616,122641
5372.2,9810,11109,134834,122806
5374.2,10678,11433,134711,122622
5376.2,11927,12463,134593,122428
5378.2,11691,12525,134703,122475
5380.2,10776,11479,134909,122628
5382.2,10895,10917,135053,122712
5384.2,11759,11223,135041,122669
5386.2,11939,11364,134947,122592
5388.2,11300,11309,135090,122761
5390.2,10997,11801,135525,123189
5392.2,11463,12279,135799,123429
5394.2,11754,11741,135733,123314
5396.2,11289,10860,135723,123237
5398.2,10906,10831,135917,123365
5400.2,11266,11244,136025,123428
5402.2,11612,11096,136054,123431
5404.2,11273,10519,136278,123632
5406.2,10864,10095,136579,123912
5408.2,10942,9975,136628,123938
5410.2,11102,10233,136478,123745
5412.2,11102,10680,136446,123659
5414.2,11231,10664,136681,123862
5416.2,11341,10219,137070,124238
5418.2,11080,10170,137350,124471
5420.2,10762,10438,137319,124345
5422.2,10687,10237,137107,124061
5424.23,10626,10005,137084,124025
5426.25,10794,10628,137303,124243
5428.28,11530,11283,137427,124335
5430.3,11836,10742,137425,124299
5432.3,10749,9824,137741,124605
5434.3,9465,9905,138383,125249
5436.3,9334,10373,138672,125531
5438.3,9548,10062,138371,125216
5440.3,9430,9582,138106,124938
5442.3,10063,9965,138229,125042
5444.3,11542,10711,138384,125148
5446.3,12234,10969,138454,125135
5448.3,11876,10937,138723,125321
5450.3,11796,10927,139035,125592
5452.3,12189,10823,139006,125548
5454.3,12389,10903,138894,125397
5456.3,12556,11426,139166,125610
5458.3,12774,11740,139615,126036
5460.3,12485,11421,139798,126222
5462.3,11966,11234,139755,126148
5464.3,11997,11650,139736,126062
5466.3,12162,11943,139822,126109
5468.3,11766,11656,140036,126344
5470.3,11289,11314,140294,126670
5472.3,11188,11295,140398,126870
5474.3,11120,11430,140367,126923
5476.3,11196,11585,140392,126973
5478.3,11772,11719,140427,126981
5480.3,12131,11744,140342,126850
5482.3,11524,11685,140315,126756
5484.3,10664,11591,140552,126905
5486.3,10579,11411,140814,127111
5488.3,11185,11170,140730,127022
5490.3,11727,10949,140451,126742
5492.3,11658,10738,140499,126790
5494.3,11153,10586,140917,127253
5496.3,10984,10554,141180,127574
5498.3,11293,10516,141094,127487
5500.3,11261,10386,141007,127344
5502.3,10718,10265,141031,127308
5504.3,10456,10077,140995,127209
5506.3,10596,9612,140995,127145
5508.3,10619,9033,141060,127172
5510.3,10741,8759,140807,126910
5512.3,11307,8826,140263,126351
5514.3,11755,8891,140079,126156
5516.3,11698,8871,140415,126513
5518.3,11670,9046,140664,126791
5520.3,11847,9277,140553,126661
5522.3,11618,8888,140516,126552
5524.3,10967,8038,140837,126790
5526.3,10701,8012,141184,127073
5528.3,11039,9013,141176,127015
5530.3,11382,9453,140939,126740
5532.3,11481,8730,140853,126633
5534.3,11531,8286,141011,126802
5536.3,11450,8746,141260,127098
5538.3,11205,8908,141519,127415
5540.3,11123,8372,141775,127686
5542.3,11071,8089,141968,127837
5544.3,10633,8193,142005,127816
5546.3,10299,8097,141817,127576
5548.3,10620,8089,141609,127281
5550.3,10850,8505,141771,127320
5552.3,10505,8728,142149,127618
5554.3,10559,8525,142133,127612
5556.3,11143,8463,141862,127372
5558.3,10947,8378,142061,127560
5560.3,10229,7693,142524,127978
5562.3,10677,6989,142435,127825
5564.3,11910,6973,141966,127250
5566.3,12125,6957,141841,126965
5568.3,11455,6345,141953,126896
5570.3,11135,5878,141886,126669
5572.3,11107,5872,141815,126489
5574.3,11039,5519,141978,126586
5576.3,11357,4990,142275,126823
5578.3,11921,5590,142678,127204
5580.3,12052,7251,143209,127858
5582.3,11918,8510,143749,128666
5584.3,12006,9040,144308,129501
5586.3,12096,9838,145014,130458
5588.3,12058,11286,145798,131596
5590.3,12339,12910,146560,132817
5592.3,12877,14409,147359,134005
5594.3,12861,15715,148178,135108
5596.3,12125,16793,148946,136184
5598.3,11653,17815,149761,137307
5600.3,12126,18812,150616,138329
5602.3,12985,19309,151156,138929
5604.3,13502,18869,151119,138953
5606.3,13663,17651,150780,138607
5608.3,13490,16258,150683,138332
5610.3,12771,15221,150990,138318
5612.3,11783,14367,151171,138039
5614.3,11062,12929,150467,136679
5616.3,10728,10852,148829,134302
5618.3,10850,9272,147177,132072
5620.3,11471,8906,146381,130956
5622.3,11847,8974,146275,130720
5624.3,11194,8516,146145,130565
5626.3,10193,7778,145779,130207
5628.3,10203,7559,145377,129784
5630.3,11240,7931,144928,129270
5632.3,11958,8129,144482,128765
5634.3,11508,7517,144428,128726
5636.3,10623,6375,144752,129147
5638.3,10538,5556,144853,129329
5640.3,11261,5437,144627,129077
5642.3,11823,5621,144609,128994
5644.3,11780,5656,144842,129222
5646.3,11262,5534,144902,129265
5648.3,10457,5441,144838,129081
5650.3,10084,5537,144893,129005
5652.3,10736,5933,144900,128987
5654.3,11577,6517,144821,128927
5656.3,11796,6870,144920,128995
5658.3,12027,6644,145084,129127
5660.3,12166,5952,145093,129156
5662.3,11003,5268,145159,129222
5664.33,9541,5011,145278,129280
5666.35,9997,5187,145123,129081
5668.38,11249,5366,145009,128992
5670.4,10824,5196,145446,129483
5672.4,9964,4948,145914,129994
5674.4,10973,5155,145733,129840
5676.4,12399,5778,145399,129526
5678.4,12051,6235,145538,129699
5680.4,11080,6184,145704,129909
5682.4,10987,5772,145513,129712
5684.4,10763,5319,145591,129719
5686.4,9902,5110,146287,130341
5688.4,9944,5134,146762,130774
5690.4,11229,5012,146378,130360
5692.4,12172,4730,145845,129813
5694.4,12304,4982,145998,129985
5696.4,12319,5943,146493,130507
5698.4,11956,6546,146629,130654
5700.4,11116,6009,146470,130496
5702.4,11038,5104,146396,130383
5704.4,11920,4929,146445,130354
5706.4,12257,5358,146552,130425
5708.4,11764,5544,146671,130597
5710.4,11597,5239,146672,130644
5712.4,11827,4921,146602,130544
5714.4,11826,4951,146667,130567
5716.4,11899,5109,146764,130663
5718.4,12235,5057,146689,130573
5720.4,12187,4926,146659,130506
5722.4,11813,5068,146901,130758
5724.4,11939,5341,147082,130991
5726.4,12453,5157,146897,130808
5728.4,12488,4382,146710,130557
5730.4,12029,3776,146938,130736
5732.4,11841,4110,147313,131116
5734.4,12172,5059,147396,131217
5736.4,12441,5515,147314,131134
5738.4,12098,5084,147373,131179
5740.4,11365,4571,147453,131224
5742.4,10993,4677,147346,131063
5744.4,11397,5020,147258,130936
5746.4,12250,5041,147408,131101
5748.4,12903,4978,147604,131358
5750.4,12934,5103,147645,131459
5752.4,12339,4957,147664,131497
5754.4,11566,4319,147784,131593
5756.4,11348,3948,147887,131661
5758.4,11964,4389,147894,131639
5760.4,12698,5052,147915,131616
5762.4,12797,5305,148017,131646
5764.4,12663,5401,148072,131665
5766.4,12951,5647,147987,131639
5768.4,13156,5773,147968,131744
5770.4,12637,5651,148273,132148
5772.4,12045,5579,148689,132589
5774.4,12192,5565,148709,132565
5776.4,12781,5341,148327,132094
5778.4,13274,5108,148095,131777
5780.4,13551,5318,148252,131914
5782.4,13472,5822,148445,132150
5784.4,13082,6080,148427,132172
5786.4,12825,5996,148402,132156
5788.4,12861,5936,148516,132275
5790.4,13021,6103,148577,132346
5792.4,13246,6204,148494,132258
5794.4,13226,5823,148531,132251
5796.4,12606,5100,148830,132454
5798.4,12001,4638,149069,132571
5800.4,12282,4542,148929,132376
5802.4,12955,4368,148637,132140
5804.4,12798,4238,148680,132256
5806.4,11727,4670,149094,132657
5808.4,10898,5238,149394,132891
5810.4,11267,5132,149245,132692
5812.4,12510,4823,148875,132294
5814.4,13321,5108,148694,132085
5816.4,12850,5264,148757,132133
5818.4,11689,4418,148851,132230
5820.4,11125,3586,148892,132265
5822.4,11641,4001,148932,132266
5824.4,12496,4912,148935,132204
5826.4,12816,5097,148824,132033
5828.4,12690,4808,148709,131884
5830.4,12667,4590,148773,131937
5832.4,12623,4060,148953,132106
5834.4,12128,3113,149073,132208
5836.4,11517,2594,149209,132325
5838.4,11565,2975,149454,132531
5840.4,12347,3662,149529,132540
5842.4,13063,3928,149258,132230
5844.4,12977,3704,149035,132034
5846.4,12408,3452,149154,132192
5848.4,12236,3567,149326,132350
5850.4,12316,3833,149338,132332
5852.4,11877,3793,149364,132359
5854.4,11506,3659,149404,132389
5856.4,12185,3901,149314,132259
5858.4,12791,4106,149264,132214
5860.4,11779,3590,149436,132442
5862.4,10317,2816,149658,132678
5864.4,10424,2753,149759,132737
5866.4,11642,3283,149723,132669
5868.4,12351,3589,149523,132448
5870.4,12439,3533,149311,132201
5872.4,12615,3539,149352,132235
5874.4,12906,3657,149451,132367
5876.4,13090,3706,149248,132156
5878.4,13209,3818,149023,131871
5880.4,13113,4053,149239,132043
5882.4,12616,3961,149626,132415
5884.4,12182,3231,149696,132459
5886.4,12304,2298,149537,132265
5888.4,12441,1788,149372,132078
5890.4,11971,1814,149164,131843
5892.4,11607,2117,149022,131666
5894.4,12037,2437,149175,131806
5896.4,12401,2625,149493,132126
5898.4,12202,2681,149688,132309
5900.4,12444,2703,149770,132378
5902.4,12978,2778,149899,132511
5904.43,12176,2902,150058,132673
5906.45,10683,2923,150062,132662
5908.48,11017,2697,149764,132363
5910.5,12917,2465,149348,131974
5912.5,13785,2604,149252,131900
5914.5,13151,2929,149579,132225
5916.5,12409,2923,149941,132593
5918.5,11836,2636,150108,132777
5920.5,11185,2579,150230,132883
5922.5,11036,2823,150310,132920
5924.5,11620,2938,150153,132753
5926.5,12368,2800,149862,132477
5928.5,12962,2781,149750,132354
5930.5,13197,3014,149856,132425
5932.5,12784,3127,150000,132550
5934.5,12238,3043,150108,132654
5936.5,12367,3228,150163,132698
5938.5,12764,3653,150149,132657
5940.5,12622,3575,150166,132625
5942.5,12372,2930,150278,132681
5944.5,12737,2674,150349,132735
5946.5,13248,3147,150333,132763
5948.5,13137,3428,150386,132881
5950.5,12579,2876,150488,133021
5952.5,12171,2121,150483,133025
5954.5,12135,1985,150503,133053
5956.5,12290,2261,150677,133245
5958.5,12285,2203,150697,133271
5960.5,12194,1862,150348,132898
5962.5,12574,1984,150019,132548
5964.5,13079,2474,150096,132637
5966.5,12492,2363,150363,132918
5968.5,11363,1820,150419,132963
5970.5,11751,2213,150296,132833
5972.5,13252,3454,150342,132891
5974.5,13350,3771,150584,133143
5976.5,12089,2760,150563,133135
5978.5,11575,1835,150066,132681
5980.5,11849,1519,149604,132258
5982.5,11933,1149,149551,132180
5984.5,12295,761,149511,132065
5986.5,12766,762,149279,131783
5988.5,12197,799,149351,131837
5990.5,11481,600,149743,132192
5992.5,11994,456,149721,132134
5994.5,12414,352,149256,131696
5996.5,11827,274,149113,131609
5998.5,12052,750,149351,131851
6000.5,13304,1582,149385,131842
6002.5,13216,1588,149225,131656
6004.5,11869,623,149232,131657
6006.5,11583,-92,149306,131717
6008.5,12164,-104,149281,131683
6010.5,12037,-158,149271,131690
6012.5,11734,-562,149250,131687
6014.5,11998,-815,149150,131583
6016.5,11989,-637,149191,131600
6018.5,11712,-268,149431,131795
6020.5,12153,-2,149574,131866
6022.5,12650,108,149550,131789
6024.5,12163,205,149533,131777
6026.5,11784,292,149441,131726
6028.5,12400,170,149240,131553
6030.5,12530,-103,149242,131573
6032.5,11452,-194,149445,131814
6034.5,10954,-168,149398,131794
6036.5,11693,-383,149140,131505
6038.5,11748,-654,149210,131504
6040.5,10513,-617,149504,131746
6042.5,10042,-670,149384,131587
6044.5,11194,-1339,148897,131027
6046.5,12127,-2173,148638,130651
6048.5,11653,-2502,148633,130529
6050.5,10969,-2522,148502,130322
6052.5,11285,-2582,148268,130066
6054.5,12194,-2452,148170,129982
6056.5,12950,-2004,148277,130129
6058.5,13450,-1471,148667,130635
6060.5,13645,-739,149314,131510
6062.5,13404,427,149869,132348
6064.5,13118,1714,150228,132986
6066.5,13304,2820,150771,133833
6068.5,13664,3987,151589,134996
6070.5,13523,5349,152351,136093
6072.5,13114,6762,153063,137151
6074.5,13307,8314,153919,138418
6076.5,14053,9882,154680,139528
6078.5,14399,10634,155139,140141
6080.5,14254,10049,155537,140611
6082.5,14483,8717,155822,141010
6084.5,15004,7503,155622,140788
6086.5,14824,6763,155239,140084
6088.5,14126,6415,155241,139623
6090.5,13954,5835,155130,139034
6092.5,13964,4261,154067,137367
6094.5,13023,2079,152534,135149
6096.5,11651,705,151562,133743
6098.5,11340,609,150994,133114
6100.5,12027,796,150222,132391
6102.5,12405,515,149655,131779
6104.5,12186,2,149765,131828
6106.5,12142,-532,149867,131938
6108.5,12182,-1169,149467,131550
6110.5,11298,-1666,149354,131415
6112.5,9834,-1804,149904,131966
6114.5,9724,-1946,150043,132159
6116.5,11417,-2317,149211,131401
6118.5,12857,-2535,148412,130651
6120.5,12715,-2475,148334,130552
6122.5,12064,-2440,148434,130558
6124.5,12014,-2201,148403,130454
6126.5,12326,-1394,148572,130667
6128.5,12566,-751,148799,130999
6130.5,12529,-1099,148662,130924
6132.5,12046,-1676,148413,130691
6134.5,11481,-1481,148466,130727
6136.5,11359,-1284,148607,130778
6138.5,11523,-2108,148554,130609
6140.5,11764,-3046,148500,130546
6142.5,12229,-2821,148626,130749
6144.53,12548,-2011,148789,130908
6146.55,12247,-1751,148837,130841
6148.58,11883,-1859,148784,130711
6150.6,12008,-1784,148733,130674
6152.6,12036,-1775,148767,130729
6154.6,11642,-2051,148821,130789
6156.6,11598,-2243,148756,130762
6158.6,12117,-2135,148604,130652
6160.6,12254,-1937,148520,130561
6162.6,11635,-1906,148546,130558
6164.6,11186,-2165,148580,130599
6166.6,11650,-2540,148484,130529
6168.6,12465,-2643,148244,130296
6170.6,12579,-2463,148101,130145
6172.6,11943,-2344,148252,130306
6174.6,11525,-2255,148462,130546
6176.6,11771,-2014,148450,130568
6178.6,12027,-1966,148448,130574
6180.6,11828,-2395,148690,130780
6182.6,11603,-2738,148864,130901
6184.6,11632,-2438,148793,130809
6186.6,11493,-1964,148865,130896
6188.6,11092,-2013,149119,131165
6190.6,11175,-2306,148985,131032
6192.6,12102,-2154,148444,130501
6194.6,12980,-1737,148195,130273
6196.6,12928,-1722,148372,130455
6198.6,12466,-1968,148452,130516
6200.6,12551,-1893,148377,130428
6202.6,13014,-1707,148457,130508
6204.6,13079,-1967,148556,130592
6206.6,12640,-2407,148511,130506
6208.6,12233,-2465,148579,130541
6210.6,12366,-2316,148746,130696
6212.6,12886,-2370,148672,130616
6214.6,12920,-2451,148535,130477
6216.6,12272,-2260,148671,130623
6218.6,12136,-2022,148754,130703
6220.6,12946,-2010,148561,130490
6222.6,13325,-1914,148547,130494
6224.6,12769,-1353,148767,130797
6226.6,12561,-739,148724,130827
6228.6,12954,-848,148616,130721
6230.6,12883,-1619,148929,131013
6232.6,12631,-2189,149205,131291
6234.6,13231,-2104,148943,131044
6236.6,13982,-1826,148690,130802
6238.6,13693,-1912,148821,130950
6240.6,13025,-2193,148834,130971
6242.6,13157,-2068,148644,130781
6244.6,13704,-1463,148746,130920
6246.6,13760,-1021,149000,131250
6248.6,13557,-1146,148922,131251
6250.6,13728,-1442,148749,131142
6252.6,14006,-1418,148876,131307
6254.6,13773,-1216,149074,131491
6256.6,13217,-1265,149046,131428
6258.6,12974,-1536,148892,131280
6260.6,13120,-1566,148749,131167
6262.6,13306,-1237,148689,131103
6264.6,13421,-1023,148792,131173
6266.6,13480,-1144,148907,131264
6268.6,13347,-1195,148767,131125
6270.6,12993,-1051,148522,130913
6272.6,12662,-1186,148590,131022
6274.6,12582,-1672,148909,131348
6276.6,12767,-1916,148968,131387
6278.6,13110,-1589,148641,131052
6280.6,13425,-958,148341,130741
6282.6,13518,-494,148242,130586
6284.6,13431,-581,148087,130359
6286.6,13358,-1189,147946,130189
6288.6,13188,-1847,148211,130457
6290.6,12740,-2237,148671,130906
6292.6,12476,-2395,148684,130889
6294.6,12893,-2387,148307,130489
6296.6,13339,-2378,148103,130255
6298.6,13013,-2564,148072,130158
6300.6,12495,-2745,147901,129912
6302.6,12472,-2751,147737,129733
6304.6,12402,-2868,147774,129826
6306.6,12163,-3000,147819,129933
6308.6,12678,-2539,147791,129936
6310.6,13653,-1720,147829,129998
6312.6,13694,-1498,147833,130016
6314.6,12989,-1955,147687,129849
6316.6,12727,-2414,147657,129799
6318.6,12709,-2652,147863,130032
6320.6,12363,-2768,147918,130123
6322.6,12260,-2750,147615,129808
6324.6,12539,-2827,147330,129490
6326.6,12320,-3207,147341,129504
6328.6,11722,-3486,147421,129616
6330.6,11760,-3279,147368,129594
6332.6,12260,-2935,147328,129577
6334.6,12387,-2842,147376,129632
6336.6,12364,-2781,147380,129614
6338.6,12529,-2596,147377,129579
6340.6,12208,-2680,147501,129698
6342.6,11233,-3227,147595,129825
6344.6,10669,-3766,147442,129711
6346.6,10957,-3869,147181,129454
6348.6,11429,-3627,147030,129250
6350.6,11973,-3280,146966,129112
6352.6,12821,-3020,146969,129098
6354.6,13151,-3017,147123,129304
6356.6,12365,-3172,147331,129537
6358.6,11635,-3295,147371,129534
6360.6,11996,-3465,147248,129392
6362.6,12671,-3607,147154,129347
6364.6,12847,-3384,147175,129387
6366.6,12869,-3028,147205,129359
6368.6,12847,-3125,147073,129178
6370.6,12431,-3475,146772,128880
6372.6,12067,-3521,146537,128636
6374.6,12438,-3325,146543,128610
6376.6,13107,-3059,146641,128714
6378.6,13119,-2792,146614,128724
6380.6,12359,-3031,146514,128639
6382.6,11605,-3769,146551,128676
6384.63,11583,-3902,146750,128884
6386.65,12140,-3233,146844,128974
6388.68,12514,-2966,146638,128734
6390.7,12479,-3221,146379,128441
6392.7,12472,-3081,146392,128451
6394.7,12634,-2947,146532,128607
6396.7,12712,-3474,146588,128673
6398.7,12648,-3618,146820,128898
6400.7,12500,-2778,147286,129343
6402.7,12332,-2341,147360,129403
6404.7,12366,-2961,146805,128870
6406.7,12549,-3452,146361,128483
6408.7,12313,-3352,146538,128705
6410.7,11408,-3399,146935,129100
6412.7,10419,-3575,147141,129293
6414.7,10166,-3366,147209,129374
6416.7,10991,-3060,147168,129359
6418.7,12461,-2937,146986,129207
6420.7,13594,-2563,146812,129083
6422.7,13681,-1948,146716,129027
6424.7,12876,-1717,146604,128906
6426.7,11951,-1780,146522,128812
6428.7,11708,-1631,146521,128849
6430.7,12321,-1786,146405,128776
6432.7,13090,-2858,146082,128463
6434.7,13289,-3846,145843,128260
6436.7,13001,-3575,145939,128425
6438.7,12638,-2783,146176,128682
6440.7,12338,-2671,146251,128713
6442.7,12272,-2893,146230,128669
6444.7,12606,-2765,146317,128792
6446.7,12922,-2663,146351,128889
6448.7,12735,-2955,146090,128701
6450.7,12529,-3227,145757,128439
6452.7,12922,-3132,145629,128346
6454.7,13139,-2809,145497,128202
6456.7,12192,-2652,145237,127907
6458.7,11063,-3140,145188,127829
6460.7,11246,-4240,145377,128007
6462.7,12082,-5123,145314,127964
6464.7,12284,-5192,144948,127643
6466.7,12344,-4796,144782,127504
6468.7,12730,-4451,144947,127653
6470.7,12502,-4249,145095,127788
6472.7,11745,-4221,145052,127774
6474.7,11805,-4433,144905,127646
6476.7,12335,-4723,144698,127405
6478.7,12064,-4867,144466,127159
6480.7,11714,-4826,144330,127068
6482.7,12305,-4699,144359,127106
6484.7,12722,-4685,144462,127130
6486.7,12137,-4921,144472,127091
6488.7,11826,-5105,144371,127064
6490.7,12328,-4800,144364,127174
6492.7,12267,-4294,144568,127430
6494.7,11375,-4320,144761,127592
6496.7,11209,-4851,144654,127423
6498.7,12102,-5227,144304,127047
6500.7,12588,-5313,143996,126779
6502.7,12217,-5311,143856,126686
6504.7,12113,-5019,143793,126619
6506.7,12658,-4497,143757,126555
6508.7,13050,-4461,143798,126601
6510.7,12950,-4965,143889,126715
6512.7,12718,-5197,143896,126729
6514.7,12495,-5186,143774,126607
6516.7,12278,-5700,143615,126457
6518.7,12173,-6402,143474,126291
6520.7,12118,-6407,143286,126007
6522.7,12075,-6158,142995,125587
6524.7,12184,-6553,142683,125183
6526.7,12285,-7220,142532,124976
6528.7,12125,-7452,142586,124971
6530.7,12005,-7447,142649,124993
6532.7,12198,-7388,142643,125024
6534.7,12299,-6850,142888,125410
6536.7,11957,-5729,143656,126407
6538.7,11556,-4399,144651,127700
6540.7,11882,-2955,145342,128754
6542.7,13314,-1372,145644,129453
6544.7,14844,62,145933,130103
6546.7,14721,1213,146560,131012
6548.7,13199,2359,147508,132236
6550.7,12694,3703,148469,133554
6552.7,13893,5102,149222,134672
6554.7,14808,6134,149781,135446
6556.7,14717,6367,150095,135801
6558.7,15133,5900,150019,135669
6560.7,16191,5259,149742,135241
6562.7,16150,4491,149650,134903
6564.7,14829,3359,149626,134609
6566.7,13973,2314,149126,133804
6568.7,14111,1706,148007,132228
6570.7,13940,700,146659,130312
6572.7,12874,-1175,145445,128677
6574.7,11985,-2778,144543,127636
6576.7,12072,-3352,144092,127193
6578.7,12481,-3794,144028,127103
6580.7,12438,-4661,143972,126971
6582.7,12221,-5289,143590,126540
6584.7,12259,-5476,142998,125952
6586.7,12224,-5673,142631,125612
6588.7,11846,-5724,142663,125673
6590.7,11631,-5432,142753,125789
6592.7,11952,-5374,142658,125687
6594.7,12341,-5763,142632,125608
6596.7,12332,-5974,142713,125645
6598.7,12075,-5836,142466,125415
6600.7,11715,-5816,142028,125017
6602.7,11285,-5923,142090,125085
6604.7,11366,-5846,142445,125425
6606.7,12288,-5734,142307,125285
6608.7,12836,-5810,142002,124992
6610.7,11816,-5830,142270,125285
6612.7,10448,-5544,142574,125616
6614.7,10733,-5200,142154,125206
6616.7,12189,-5227,141626,124686
6618.7,12759,-5616,141785,124872
6620.7,12109,-5907,142236,125317
6622.7,11530,-5914,142341,125355
6624.73,11505,-5955,142196,125165
6626.75,11631,-5986,142081,125088
6628.78,12022,-5477,141995,125048
6630.8,12742,-4699,141945,124982
6632.8,12838,-4725,142042,125067
6634.8,11842,-5555,142232,125281
6636.8,11025,-6040,142178,125211
6638.8,11390,-5991,141679,124657
6640.8,12050,-6179,141148,124143
6642.8,12156,-6337,141178,124271
6644.8,12304,-5669,141635,124783
6646.8,12705,-4895,141842,124971
6648.8,12500,-5176,141633,124763
6650.8,11804,-5901,141466,124641
6652.8,11750,-5926,141568,124762
6654.8,12196,-5590,141670,124837
6656.8,12118,-5499,141584,124729
6658.8,11864,-5226,141461,124606
6660.8,12331,-4712,141466,124599
6662.8,12838,-4724,141584,124675
6664.8,12443,-5189,141737,124801
6666.8,12013,-5290,141806,124903
6668.8,12546,-5053,141681,124841
6670.8,13126,-4887,141532,124713
6672.8,12653,-4629,141658,124819
6674.8,11761,-4453,141929,125087
6676.8,11425,-4920,141957,125123
6678.8,11581,-5579,141732,124880
6680.8,12057,-5587,141428,124551
6682.8,12876,-5364,141006,124136
6684.8,13300,-5562,140715,123852
6686.8,12507,-5628,141104,124218
6688.8,11199,-5136,141926,125024
6690.8,10880,-4842,142178,125289
6692.8,11796,-5185,141643,124767
6694.8,12800,-5563,141142,124279
6696.8,12904,-5634,141174,124354
6698.8,12234,-5566,141476,124714
6700.8,11670,-5108,141744,125022
6702.8,11886,-4122,141864,125169
6704.8,12800,-3458,141725,125055
6706.8,13822,-3728,141387,124735
6708.8,14243,-4199,141176,124534
6710.8,13703,-4197,141303,124660
6712.8,12896,-4140,141582,124933
6714.8,12923,-4209,141684,125064
6716.8,13427,-3894,141582,125044
6718.8,13154,-3463,141492,125019
6720.8,12429,-3731,141452,124966
6722.8,12482,-4295,141398,124885
6724.8,12932,-4195,141478,124991
6726.8,12835,-3835,141703,125257
6728.8,12688,-4151,141742,125301
6730.8,13052,-4723,141562,125119
6732.8,13428,-4555,141489,125071
6734.8,13652,-3810,141452,125078
6736.8,13909,-3399,141229,124905
6738.8,13832,-3464,141122,124848
6740.8,13515,-3341,141318,125077
6742.8,13451,-2835,141455,125224
6744.8,12922,-2741,141515,125293
6746.8,11590,-3612,141744,125556
6748.8,11412,-4655,141650,125504
6750.8,13259,-4787,140865,124716
6752.8,14444,-4209,140327,124129
6754.8,13230,-3810,140791,124560
6756.8,11943,-3755,141388,125161
6758.8,12598,-3771,141225,124993
6760.8,13743,-3916,140771,124531
6762.8,13806,-4119,140619,124416
6764.8,13472,-4049,140556,124419
6766.8,13406,-3918,140441,124334
6768.8,13178,-4193,140497,124402
6770.8,12911,-4555,140657,124590
6772.8,13084,-4512,140679,124591
6774.8,13221,-4373,140608,124410
6776.8,12924,-4413,140520,124217
6778.8,12697,-4282,140357,124040
6780.8,12484,-4094,140254,123958
6782.8,11876,-4362,140340,124039
6784.8,11862,-4703,140312,124019
6786.8,13154,-4543,139920,123660
6788.8,14053,-4445,139553,123291
6790.8,13300,-4912,139599,123305
6792.8,12439,-5299,139733,123453
6794.8,12654,-5235,139605,123377
6796.8,12936,-5194,139512,123307
6798.8,12790,-5149,139697,123487
6800.8,12775,-4838,139802,123610
6802.8,12506,-4925,139614,123452
6804.8,11621,-5737,139441,123262
6806.8,11128,-6093,139440,123186
6808.8,11519,-5276,139433,123118
6810.8,12001,-4434,139359,123077
6812.8,12236,-4532,139247,123077
6814.8,12408,-4911,139114,123032
6816.8,12374,-4893,139158,123082
6818.8,12377,-4851,139407,123307
6820.8,12799,-5025,139450,123355
6822.8,12983,-4979,139213,123141
6824.8,12537,-4591,139155,123110
6826.8,12485,-4289,139232,123241
6828.8,13037,-4272,139004,123077
6830.8,12788,-4394,138798,122885
6832.8,11645,-4603,139112,123167
6834.8,11322,-4848,139379,123406
6836.8,12148,-4907,138995,123003
6838.8,12675,-4721,138592,122563
6840.8,12402,-4611,138802,122748
6842.8,12067,-4853,139111,123069
6844.8,11924,-5221,139021,122998
6846.8,11839,-5295,138909,122905
6848.8,11984,-5147,139059,123124
6850.8,12295,-5146,139159,123309
6852.8,12415,-5133,139028,123157
6854.8,12364,-4754,138836,122837
6856.8,12265,-4458,138651,122558
6858.8,12102,-4822,138469,122378
6860.8,12292,-5288,138415,122363
6862.8,13088,-5127,138501,122508
6864.83,13458,-4831,138578,122671
6866.85,12529,-5013,138648,122785
6868.88,11509,-5184,138763,122861
6870.9,11852,-4903,138752,122834
6872.9,12688,-4635,138619,122776
6874.9,12578,-4587,138720,122950
6876.9,12149,-4326,139024,123236
6878.9,12398,-3986,138996,123151
6880.9,12556,-4225,138629,122762
6882.9,12086,-4894,138453,122605
6884.9,12164,-5194,138415,122617
6886.9,13055,-5014,138174,122428
6888.9,13122,-4882,138114,122363
6890.9,12073,-4856,138521,122715
6892.9,11800,-4548,138738,122915
6894.9,12888,-4034,138495,122728
6896.9,13655,-3813,138499,122798
6898.9,13233,-3899,138813,123136
6900.9,12592,-3791,138702,123015
6902.9,12423,-3329,138336,122650
6904.9,12421,-2894,138436,122804
6906.9,12454,-2834,138654,123111
6908.9,12621,-3246,138367,122847
6910.9,12677,-3996,137999,122412
6912.9,12607,-4617,137982,122366
6914.9,12845,-4716,137890,122357
6916.9,13115,-4565,137635,122210
6918.9,12585,-4587,137793,122428
6920.9,11710,-4683,138228,122904
6922.9,11872,-4768,138099,122809
6924.9,12873,-5053,137431,122143
6926.9,13254,-5296,137104,121813
6928.9,12915,-5029,137301,122039
6930.9,12886,-4599,137384,122145
6932.9,13130,-4551,137167,121888
6934.9,12882,-4595,137009,121634
6936.9,12268,-4536,136888,121434
6938.9,11950,-4890,136649,121208
6940.9,12006,-5527,136692,121349
6942.9,11966,-5606,137196,121919
6944.9,11518,-5340,137382,122079
6946.9,11143,-5569,136764,121437
6948.9,11708,-5845,136109,120824
6950.9,12900,-5397,136136,120874
6952.9,13339,-4972,136403,121113
6954.9,12883,-5369,136311,121033
6956.9,12765,-5780,136053,120843
6958.9,13103,-5522,136014,120841
6960.9,12921,-5352,136090,120921
6962.9,12367,-5697,136004,120846
6964.9,12184,-5814,135863,120667
6966.9,12039,-5468,136003,120718
6968.9,11618,-5332,136345,121063
6970.9,11526,-5561,136401,121251
6972.9,11653,-5738,136106,121067
6974.9,11210,-5838,135900,120891
6976.9,10807,-5978,135853,120872
6978.9,11600,-5985,135673,120712
6980.9,12828,-5912,135438,120440
6982.9,12965,-6010,135392,120369
6984.9,12235,-6098,135432,120449
6986.9,11837,-5950,135446,120481
6988.9,11991,-5862,135486,120500
6990.9,12190,-6016,135440,120508
6992.9,12280,-6085,135233,120413
6994.9,12472,-5939,135045,120229
6996.9,12744,-5917,134931,119972
6998.9,12657,-6248,134752,119637
7000.9,12032,-6779,134549,119331
7002.9,11473,-7152,134441,119140
7004.9,11441,-7198,134428,119073
7006.9,11535,-7247,134489,119139
7008.9,11657,-7469,134519,119221
7010.9,12430,-7191,134481,119276
7012.9,13609,-5999,134745,119690
7014.9,14132,-4689,135534,120677
7016.9,14072,-3768,136355,121743
7018.9,14211,-2494,136843,122555
7020.9,14287,-605,137360,123455
7022.9,14030,1023,138100,124549
7024.9,14318,2178,138802,125562
7026.9,15313,3519,139527,126645
7028.9,15811,4853,140417,127951
7030.9,15651,5355,141082,128941
7032.9,15914,5134,141294,129276
7034.9,16349,4887,141474,129439
7036.9,15834,4673,141829,129719
7038.9,14995,4207,142014,129730
7040.9,15177,3536,141814,129239
7042.9,15721,2603,141236,128324
7044.9,15208,990,140152,126871
7046.9,13967,-1138,138698,124961
7048.9,12949,-2711,137510,123306
7050.9,12026,-3181,136898,122404
7052.9,11236,-3371,136408,121835
7054.9,11448,-4058,135680,121102
7056.9,12512,-4827,135008,120418
7058.9,13053,-5189,134696,120102
7060.9,12601,-5520,134597,120007
7062.9,11909,-6055,134540,119964
7064.9,11506,-6231,134531,119992
7066.9,11480,-5747,134497,119976
7068.9,11814,-5218,134381,119806
7070.9,12117,-5251,134297,119643
7072.9,12113,-5581,134248,119575
7074.9,12195,-5598,134130,119457
7076.9,12477,-5385,133997,119268
7078.9,12394,-5603,133819,119032
7080.9,12027,-6293,133408,118647
7082.9,12106,-6569,133060,118359
7084.9,12407,-5935,133362,118683
7086.9,12133,-5139,134024,119357
7088.9,11592,-5103,134127,119498
7090.9,11684,-5647,133644,119024
7092.9,12306,-5926,133358,118689
7094.9,12626,-5708,133497,118785
7096.9,12285,-5492,133701,119010
7098.9,11675,-5516,133854,119216
7100.9,11403,-5483,133972,119367
7102.9,11596,-5398,133867,119265
7104.9,11917,-5662,133515,118917
7106.9,12286,-6054,133266,118687
7108.9,12722,-5878,133414,118850
7110.9,12633,-5306,133779,119213
7113.0,11760,-5162,133849,119286
7115.0,11173,-5393,133451,118902
7117.0,11655,-5312,133048,118507
7119.0,12155,-5072,133045,118511
7121.0,11504,-5297,133290,118764
7123.0,10403,-5727,133558,119015
7125.0,10385,-5670,133768,119183
7127.0,11708,-5275,133684,119070
7129.0,13168,-5189,133285,118668
7131.0,13678,-5435,133058,118449
7133.0,13366,-5545,133208,118610
7135.0,12864,-5394,133356,118768
7137.0,12240,-5169,133353,118770
7139.0,11524,-4891,133353,118794
7141.0,11397,-4606,133248,118738
7143.0,12145,-4596,133028,118537
7145.0,12913,-4786,133048,118525
7147.0,13080,-4605,133305,118749
7149.0,13131,-4056,133377,118817
7151.0,13296,-4025,133263,118706
7153.0,12926,-4862,133257,118718
7155.0,12045,-5732,133282,118790
7157.0,11729,-5883,133204,118740
7159.0,12186,-5491,133191,118711
7161.0,12391,-4999,133266,118770
7163.0,12222,-4598,133215,118714
7165.0,12691,-4398,133076,118553
7167.0,13602,-4462,133078,118531
7169.0,13558,-4680,133222,118686
7171.0,12648,-4838,133378,118862
7173.0,12376,-4787,133508,118978
7175.0,12849,-4649,133594,119044
7177.0,12815,-4748,133638,119093
7179.0,12212,-5054,133667,119131
7181.0,12095,-5095,133635,119100
7183.0,12546,-4715,133530,118999
7185.0,12774,-4329,133482,118956
7187.0,12591,-4263,133541,119022
7189.0,12429,-4450,133573,119070
7191.0,12530,-4632,133523,119036
7193.0,12804,-4453,133513,119011
7195.0,13147,-3821,133562,119013
7197.0,13671,-3274,133484,118912
7199.0,14352,-3267,133225,118682
7201.0,14565,-3362,133087,118584
7203.0,13875,-3099,133302,118816
7205.0,12982,-3012,133570,119098
7207.0,12727,-3549,133498,119052
7209.0,13030,-3873,133294,118863
7211.0,13616,-3153,133409,118976
7213.0,14286,-2164,133717,119303
7215.0,14314,-2151,133700,119338
7217.0,13468,-2954,133269,118950
7219.0,12938,-3489,132903,118584
7221.0,13481,-3354,132983,118652
7223.0,14046,-3049,133265,118953
7225.0,13716,-3089,133221,118940
7227.0,13250,-3379,132845,118539
7229.0,13500,-3379,132643,118257
7231.0,13925,-2919,132819,118377
7233.0,13781,-2590,133008,118593
7235.0,13494,-2882,132891,118555
7237.0,13563,-3390,132607,118342
7239.0,13307,-3519,132502,118258
7241.0,12384,-3358,132599,118344
7243.0,12105,-3214,132547,118281
7245.0,13220,-3042,132232,117959
7247.0,14234,-2926,132044,117749
7249.0,13865,-3227,132144,117817
7251.0,12957,-3792,132183,117825
7253.0,12551,-3969,132094,117692
7255.0,12500,-3725,132216,117761
7257.0,12652,-3650,132442,117964
7259.0,13113,-3816,132336,117862
7261.0,13452,-3788,132044,117570
7263.0,13335,-3579,132031,117554
7265.0,13103,-3543,132231,117755
7267.0,12728,-3784,132308,117818
7269.0,11818,-4314,132292,117772
7271.0,11168,-4963,132281,117743
7273.0,12021,-5086,132147,117597
7275.0,13514,-4474,131946,117372
7277.0,13560,-3994,131982,117396
7279.0,12364,-4175,132231,117661
7281.0,12032,-4314,132316,117765
7283.0,12896,-4012,132102,117569
7285.0,13345,-4021,131828,117317
7287.0,12861,-4662,131699,117203
7289.0,12372,-5044,131698,117214
7291.0,12261,-4602,131710,117258
7293.0,12246,-4005,131676,117258
7295.0,12412,-3936,131620,117201
7297.0,12877,-4089,131537,117106
7299.0,13247,-3923,131429,117003
7301.0,13273,-3596,131411,116980
7303.0,13271,-3603,131506,117059
7305.0,13361,-3963,131506,117075
7307.0,13171,-4178,131375,116988
7309.0,12657,-3941,131336,116954
7311.0,12245,-3720,131331,116923
7313.0,12000,-4182,131147,116743
7315.0,11840,-4925,130999,116639
7317.0,12180,-4833,131147,116814
7319.0,12983,-3962,131319,116983
7321.0,13217,-3500,131286,116949
