t,lead_I,lead_II,v3,v4
8.0,-43148,-94315,-8638,2347
10.0,-43414,-94600,-8352,2615
12.0,-43464,-94732,-8219,2722
14.0,-43182,-94456,-8145,2755
16.0,-42865,-94065,-8069,2800
18.0,-42767,-93908,-7936,2932
20.0,-42648,-93831,-7739,3146
22.0,-42380,-93810,-7745,3206
24.0,-42347,-94151,-8089,3040
26.0,-42727,-94703,-8415,2999
28.0,-43174,-94991,-8476,3242
30.0,-43384,-94993,-8418,3548
32.0,-43322,-94808,-8130,3963
34.0,-42986,-94192,-7326,4689
36.0,-42389,-93143,-6266,5464
38.0,-41618,-92098,-5375,5965
40.0,-40828,-91295,-4511,6361
42.0,-40292,-90697,-3430,6850
44.0,-40197,-90281,-2355,7280
46.0,-40368,-89793,-1555,7441
48.0,-40513,-88810,-1010,7197
50.0,-40676,-87476,-649,6628
52.0,-41096,-86535,-483,6215
54.0,-41731,-86492,-637,6218
56.0,-42306,-87353,-1481,5978
58.0,-42853,-89073,-3460,4637
60.0,-43788,-91544,-6639,2149
62.0,-45224,-94199,-10429,-901
64.0,-46537,-96244,-13707,-3759
66.0,-47062,-97438,-15506,-5610
68.0,-46957,-98249,-15881,-6163
70.0,-46867,-99049,-15743,-6049
72.0,-46976,-99610,-15715,-5958
74.0,-46934,-99686,-15668,-5841
76.0,-46542,-99553,-15360,-5425
78.0,-45945,-99426,-14810,-4768
80.0,-45245,-98987,-14090,-4010
82.0,-44455,-98094,-13329,-3269
84.0,-43806,-97279,-12701,-2692
86.0,-43595,-96935,-12079,-2100
88.0,-43702,-96725,-11204,-1101
90.0,-43695,-96221,-10254,157
92.0,-43448,-95480,-9594,1109
94.0,-43221,-94763,-9138,1650
96.0,-43049,-94227,-8706,2008
98.0,-42657,-93932,-8499,2137
100.0,-42149,-93787,-8529,2098
102.0,-42083,-93637,-8338,2361
104.0,-42541,-93551,-7882,2963
106.0,-42948,-93703,-7751,3260
108.0,-43041,-93927,-8097,3023
110.0,-43068,-93849,-8340,2803
112.0,-42992,-93566,-8163,2942
114.0,-42644,-93603,-7881,3165
116.0,-42393,-93995,-7750,3245
118.0,-42523,-94087,-7685,3269
120.0,-42585,-93593,-7613,3299
122.0,-42331,-93136,-7560,3318
124.0,-42268,-93239,-7498,3382
126.0,-42615,-93548,-7430,3490
128.0,-42906,-93609,-7469,3503
130.0,-42963,-93644,-7646,3361
132.0,-43023,-93904,-7795,3221
134.0,-42970,-93975,-7746,3265
136.0,-42554,-93482,-7538,3463
138.0,-42083,-92852,-7401,3569
140.0,-42013,-92694,-7462,3441
142.0,-42223,-92925,-7562,3279
144.0,-42291,-93083,-7501,3336
146.0,-42212,-93079,-7375,3488
148.0,-42347,-93148,-7408,3436
150.0,-42728,-93345,-7544,3241
152.0,-42884,-93425,-7530,3228
154.0,-42573,-93243,-7352,3444
156.0,-42194,-93022,-7246,3622
158.0,-42116,-92996,-7285,3640
160.0,-42139,-92994,-7280,3647
162.0,-42011,-92787,-7157,3735
164.0,-41880,-92565,-7095,3785
166.0,-41942,-92617,-7186,3722
168.0,-42152,-92883,-7255,3679
170.0,-42384,-93139,-7171,3764
172.0,-42461,-93238,-7069,3831
174.0,-42218,-93081,-7108,3714
176.0,-41836,-92769,-7180,3569
178.0,-41730,-92607,-7061,3685
180.0,-41942,-92663,-6799,3990
182.0,-42122,-92698,-6689,4122
184.0,-42120,-92638,-6838,3989
186.0,-42051,-92587,-6996,3876
188.0,-41925,-92486,-6957,3955
190.0,-41787,-92323,-6862,4044
192.0,-41882,-92360,-6898,3967
194.0,-42186,-92626,-6948,3860
196.0,-42259,-92726,-6806,3965
198.0,-41931,-92543,-6533,4283
200.0,-41568,-92394,-6356,4557
202.0,-41510,-92343,-6357,4586
204.0,-41728,-92205,-6440,4447
206.0,-41997,-92096,-6492,4349
208.0,-42074,-92200,-6461,4371
210.0,-41911,-92353,-6379,4418
212.03,-41726,-92376,-6310,4414
214.05,-41617,-92302,-6268,4397
216.08,-41434,-92132,-6223,4422
218.1,-41207,-91874,-6159,4516
220.1,-41152,-91608,-6053,4707
222.1,-41211,-91318,-5906,4931
224.1,-41236,-91147,-5834,5007
226.1,-41328,-91449,-5878,4931
228.1,-41461,-91945,-5859,4947
230.1,-41377,-91810,-5683,5128
232.1,-41176,-91155,-5542,5276
234.1,-41196,-90990,-5544,5327
236.1,-41286,-91418,-5558,5365
238.1,-41114,-91620,-5535,5340
240.1,-40882,-91444,-5509,5276
242.1,-40927,-91338,-5369,5391
244.1,-41126,-91281,-5142,5625
246.1,-41262,-91145,-5119,5622
248.1,-41306,-91172,-5336,5404
250.1,-41168,-91316,-5466,5319
252.1,-40872,-91215,-5433,5348
254.1,-40748,-90969,-5453,5262
256.1,-40857,-90859,-5487,5197
258.1,-40831,-90750,-5341,5366
260.1,-40570,-90582,-5121,5611
262.1,-40393,-90640,-5031,5750
264.1,-40520,-90922,-5032,5832
266.1,-40936,-91115,-5044,5842
268.1,-41364,-91160,-5111,5705
270.1,-41357,-91153,-5211,5552
272.1,-41007,-91094,-5288,5502
274.1,-40998,-91062,-5371,5456
276.1,-41336,-91059,-5460,5373
278.1,-41241,-90847,-5472,5356
280.1,-40705,-90495,-5424,5394
282.1,-40560,-90463,-5402,5393
284.1,-40879,-90742,-5430,5365
286.1,-41022,-90806,-5509,5324
288.1,-41040,-90635,-5635,5240
290.1,-41379,-90772,-5760,5147
292.1,-41713,-91259,-5871,5076
294.1,-41533,-91531,-5980,5005
296.1,-41235,-91406,-6029,4971
298.1,-41386,-91283,-6013,4972
300.1,-41699,-91363,-6080,4866
302.1,-41702,-91417,-6267,4620
304.1,-41615,-91368,-6413,4426
306.1,-41757,-91458,-6476,4377
308.1,-41911,-91781,-6576,4377
310.1,-41878,-92085,-6688,4404
312.1,-41903,-92164,-6697,4477
314.1,-42083,-92111,-6704,4463
316.1,-42096,-92107,-6863,4276
318.1,-41876,-92179,-7073,4075
320.1,-41833,-92244,-7167,4004
322.1,-42081,-92226,-7181,3997
324.1,-42195,-92105,-7218,3976
326.1,-42066,-92028,-7289,3944
328.1,-42174,-92252,-7388,3865
330.1,-42597,-92732,-7475,3750
332.1,-42727,-93012,-7467,3711
334.1,-42397,-92875,-7418,3715
336.1,-42269,-92656,-7469,3604
338.1,-42634,-92622,-7576,3448
340.1,-42845,-92618,-7635,3404
342.1,-42416,-92547,-7705,3391
344.1,-41833,-92537,-7746,3369
346.1,-41842,-92612,-7570,3508
348.1,-42431,-92722,-7337,3711
350.1,-42901,-92856,-7415,3643
352.1,-42830,-92878,-7661,3429
354.1,-42525,-92688,-7661,3452
356.1,-42352,-92532,-7548,3577
358.1,-42209,-92610,-7675,3474
360.1,-42068,-92693,-7847,3352
362.1,-42210,-92630,-7724,3494
364.1,-42508,-92625,-7495,3664
366.1,-42531,-92697,-7447,3628
368.1,-42461,-92585,-7476,3571
370.1,-42660,-92342,-7490,3582
372.1,-42735,-92335,-7645,3465
374.1,-42332,-92579,-7860,3283
376.1,-42012,-92688,-7803,3356
378.1,-42177,-92499,-7507,3634
380.1,-42350,-92304,-7381,3716
382.1,-42267,-92366,-7530,3518
384.1,-42220,-92512,-7640,3371
386.1,-42167,-92449,-7578,3422
388.1,-41971,-92324,-7560,3456
390.1,-42082,-92537,-7674,3358
392.1,-42628,-92978,-7738,3300
394.1,-42822,-93066,-7699,3348
396.1,-42337,-92682,-7710,3330
398.1,-41939,-92359,-7788,3206
400.1,-42051,-92390,-7772,3156
402.1,-42203,-92529,-7631,3250
404.1,-42194,-92660,-7513,3358
406.1,-42275,-92869,-7534,3396
408.1,-42328,-92944,-7650,3406
410.1,-42203,-92744,-7741,3414
412.1,-42289,-92669,-7762,3380
414.1,-42673,-92896,-7765,3298
416.1,-42729,-92893,-7767,3239
418.1,-42300,-92481,-7738,3248
420.1,-42038,-92305,-7729,3239
422.1,-42172,-92589,-7811,3164
424.1,-42288,-92743,-7900,3132
426.1,-42328,-92615,-7898,3199
428.1,-42484,-92690,-7854,3251
430.1,-42511,-92913,-7797,3265
432.1,-42280,-92790,-7704,3334
434.1,-42248,-92476,-7702,3355
436.1,-42498,-92438,-7911,3161
438.1,-42451,-92529,-8099,2960
440.1,-42079,-92474,-7996,3049
442.1,-42032,-92504,-7810,3218
444.1,-42337,-92717,-7855,3103
446.1,-42421,-92754,-7957,2870
448.1,-42328,-92568,-7873,2823
450.1,-42495,-92532,-7822,2817
452.1,-42737,-92661,-7959,2754
454.1,-42703,-92688,-7978,2921
456.1,-42564,-92711,-7799,3267
458.1,-42433,-92881,-7785,3305
460.1,-42205,-92938,-7932,3093
462.1,-42235,-92718,-7835,3171
464.1,-42781,-92531,-7572,3472
466.1,-43103,-92585,-7600,3459
468.1,-42597,-92712,-7879,3169
470.1,-41989,-92816,-8002,3036
472.1,-42057,-92965,-7944,3059
474.1,-42410,-93084,-7962,2976
476.1,-42463,-93037,-8057,2866
478.1,-42308,-92855,-8029,2956
480.1,-42155,-92660,-7903,3142
482.1,-42038,-92523,-7922,3121
484.1,-42082,-92471,-8127,2884
486.1,-42350,-92543,-8267,2717
488.1,-42673,-92761,-8203,2764
490.1,-42810,-92934,-8065,2905
492.1,-42562,-92734,-7969,3019
494.1,-42024,-92288,-7920,3076
496.1,-41739,-92196,-7947,3050
498.1,-42016,-92594,-8017,2990
500.1,-42385,-92936,-8020,2973
502.1,-42384,-92945,-7978,2963
504.1,-42276,-92848,-7977,2928
506.1,-42406,-92744,-7970,2945
508.1,-42599,-92671,-7957,2990
510.1,-42612,-92818,-8044,2925
512.1,-42478,-93023,-8159,2806
514.1,-42313,-92913,-8142,2789
516.1,-42253,-92713,-8104,2785
518.1,-42401,-92802,-8223,2627
520.1,-42556,-92891,-8370,2431
522.1,-42438,-92749,-8335,2457
524.1,-42194,-92771,-8153,2749
526.1,-42142,-92984,-7976,3084
528.1,-42231,-92831,-7914,3195
530.1,-42265,-92414,-8035,3016
532.1,-42285,-92400,-8261,2757
534.1,-42336,-92710,-8352,2678
536.1,-42324,-92777,-8218,2796
538.1,-42306,-92636,-8062,2925
540.1,-42379,-92552,-8080,2934
542.1,-42367,-92429,-8219,2847
544.1,-42168,-92350,-8299,2771
546.1,-42052,-92579,-8209,2809
548.1,-42159,-92793,-7984,2957
550.1,-42316,-92572,-7789,3093
552.1,-42462,-92340,-7745,3131
554.1,-42557,-92505,-7771,3126
556.1,-42344,-92550,-7735,3122
558.1,-41919,-92123,-7696,3070
560.1,-41819,-91844,-7750,3002
562.1,-42061,-92051,-7802,3036
564.1,-42085,-92169,-7748,3154
566.1,-41881,-91938,-7670,3249
568.1,-41966,-91860,-7648,3356
570.1,-42314,-92047,-7634,3536
572.1,-42423,-91990,-7626,3657
574.1,-42237,-91667,-7670,3598
576.1,-42151,-91690,-7719,3458
578.1,-42285,-92145,-7724,3344
580.1,-42345,-92309,-7740,3246
582.1,-42136,-91839,-7768,3214
584.1,-41876,-91355,-7719,3329
586.1,-41839,-91398,-7630,3477
588.1,-41950,-91607,-7619,3489
590.1,-41978,-91537,-7666,3399
592.1,-41929,-91498,-7691,3329
594.1,-41905,-91803,-7726,3278
596.1,-41832,-92000,-7786,3229
598.1,-41675,-91686,-7777,3244
600.1,-41654,-91384,-7672,3316
602.1,-41889,-91688,-7578,3331
604.1,-42098,-92173,-7560,3238
606.1,-42023,-92118,-7571,3142
608.1,-41872,-91790,-7566,3171
610.1,-41952,-91908,-7598,3282
612.1,-42145,-92290,-7727,3307
614.1,-42182,-92283,-7886,3198
616.1,-42071,-92137,-8005,3035
618.1,-41940,-92515,-8167,2825
620.1,-41891,-93077,-8352,2630
622.1,-42109,-93032,-8312,2674
624.1,-42581,-92579,-8086,2904
626.1,-42829,-92427,-8109,2885
628.1,-42525,-92528,-8420,2574
630.1,-42035,-92485,-8505,2485
632.1,-41882,-92449,-8272,2718
634.1,-42045,-92628,-8199,2792
636.1,-42185,-92724,-8363,2624
638.1,-42179,-92578,-8372,2607
640.1,-42173,-92570,-8240,2714
642.1,-42260,-92843,-8281,2619
644.1,-42308,-92954,-8377,2464
646.1,-42207,-92694,-8239,2561
648.1,-42092,-92440,-8032,2739
650.1,-42077,-92444,-8065,2691
652.1,-42052,-92554,-8278,2516
654.1,-41990,-92704,-8438,2440
656.1,-42080,-92935,-8480,2464
658.1,-42267,-93036,-8462,2480
660.1,-42176,-92816,-8443,2426
662.1,-41799,-92507,-8440,2309
664.1,-41667,-92458,-8433,2241
666.1,-41986,-92717,-8436,2351
668.1,-42217,-93094,-8488,2635
670.1,-41989,-93403,-8542,2994
672.1,-41738,-93557,-8490,3372
674.1,-41870,-93485,-8269,3800
676.1,-42048,-93056,-7829,4325
678.1,-41859,-92308,-7176,4896
680.1,-41386,-91582,-6447,5371
682.1,-40815,-91062,-5696,5743
684.1,-40287,-90535,-4734,6189
686.1,-40044,-89876,-3518,6768
688.1,-39990,-89124,-2402,7259
690.1,-39600,-88062,-1629,7444
692.1,-38907,-86643,-999,7339
694.1,-38727,-85470,-413,7079
696.1,-39454,-85001,-237,6750
698.1,-40569,-85123,-781,6330
700.1,-41567,-86062,-2001,5620
702.1,-42550,-88280,-4011,4241
704.1,-43809,-91210,-7124,1913
706.1,-45235,-93646,-10922,-1081
708.1,-46231,-95227,-14024,-3800
710.1,-46305,-96213,-15426,-5348
712.1,-45786,-96673,-15550,-5729
714.1,-45457,-96935,-15459,-5690
716.1,-45518,-97543,-15571,-5734
718.1,-45528,-98231,-15623,-5710
720.1,-45270,-98288,-15392,-5361
722.1,-44927,-97849,-14916,-4760
724.1,-44550,-97488,-14265,-4064
726.1,-44035,-97087,-13460,-3281
728.1,-43545,-96365,-12574,-2406
730.1,-43324,-95654,-11723,-1528
732.1,-43146,-95144,-10949,-670
734.1,-42588,-94389,-10211,235
736.1,-41863,-93376,-9574,1058
738.1,-41632,-92859,-9209,1521
740.1,-41934,-93000,-9097,1665
742.1,-42142,-93033,-8982,1835
744.1,-42020,-92703,-8715,2154
746.1,-41922,-92562,-8368,2465
748.1,-41969,-92685,-8073,2698
750.1,-41945,-92635,-7988,2825
752.1,-41876,-92496,-8178,2760
754.1,-41948,-92557,-8382,2656
756.1,-42050,-92601,-8279,2806
758.1,-41976,-92483,-8007,3085
760.1,-41835,-92459,-7918,3137
762.1,-41827,-92481,-7992,3014
764.1,-41871,-92312,-7995,2992
766.1,-41779,-92176,-7927,3055
768.1,-41594,-92222,-7867,3098
770.1,-41536,-92108,-7774,3198
772.1,-41643,-91868,-7709,3302
774.1,-41689,-92007,-7800,3240
776.1,-41553,-92378,-7880,3174
778.1,-41448,-92332,-7714,3375
780.1,-41538,-91952,-7499,3598
782.1,-41619,-91852,-7577,3446
784.1,-41514,-92059,-7797,3120
786.1,-41417,-92116,-7798,3056
788.1,-41494,-91943,-7667,3144
790.1,-41606,-91830,-7684,3088
792.1,-41648,-91857,-7726,3087
794.1,-41663,-91838,-7560,3377
796.1,-41575,-91730,-7413,3603
798.1,-41335,-91716,-7594,3410
800.1,-41186,-91829,-7836,3129
802.1,-41293,-91855,-7694,3228
804.1,-41380,-91688,-7307,3561
806.1,-41217,-91493,-7133,3733
808.1,-41131,-91456,-7179,3758
810.1,-41511,-91576,-7149,3840
812.1,-42071,-91735,-7105,3865
814.1,-42191,-91870,-7313,3625
816.1,-41805,-92004,-7607,3308
818.1,-41391,-92032,-7594,3268
820.1,-41223,-91730,-7338,3450
822.1,-41185,-91231,-7202,3562
824.1,-41188,-91074,-7177,3639
826.1,-41245,-91418,-7049,3849
828.1,-41282,-91776,-6936,4012
830.1,-41269,-91786,-6982,3956
832.1,-41340,-91624,-6980,3922
834.1,-41490,-91517,-6846,4046
836.1,-41466,-91498,-6834,4073
838.1,-41218,-91574,-6954,3949
840.1,-41053,-91666,-6935,3919
842.13,-41082,-91560,-6817,3967
844.15,-41009,-91200,-6788,3969
846.18,-40714,-90832,-6719,4099
848.2,-40505,-90709,-6540,4387
850.2,-40560,-90791,-6490,4493
852.2,-40692,-90847,-6570,4359
854.2,-40778,-90813,-6500,4301
856.2,-40862,-90875,-6336,4345
858.2,-40864,-91081,-6316,4319
860.2,-40714,-91185,-6331,4367
862.2,-40586,-91066,-6219,4634
864.2,-40612,-90900,-6114,4882
866.2,-40636,-90783,-6087,4916
868.2,-40528,-90627,-6020,4853
870.2,-40423,-90481,-5961,4798
872.2,-40453,-90494,-6010,4749
874.2,-40510,-90564,-6042,4756
876.2,-40431,-90466,-5976,4792
878.2,-40270,-90292,-5945,4784
880.2,-40184,-90315,-5918,4881
882.2,-40148,-90438,-5723,5205
884.2,-40067,-90321,-5501,5457
886.2,-40082,-90040,-5534,5347
888.2,-40273,-89959,-5676,5136
890.2,-40292,-90048,-5607,5182
892.2,-39950,-90057,-5448,5336
894.2,-39768,-90075,-5484,5322
896.2,-40144,-90170,-5565,5269
898.2,-40587,-90089,-5401,5397
900.2,-40556,-89861,-5177,5557
902.2,-40271,-89839,-5256,5475
904.2,-40131,-89950,-5534,5227
906.2,-40141,-89924,-5620,5136
908.2,-40186,-89924,-5451,5305
910.2,-40162,-89997,-5291,5504
912.2,-39994,-89827,-5284,5503
914.2,-39891,-89632,-5374,5359
916.2,-40062,-89880,-5476,5272
918.2,-40203,-90129,-5519,5319
920.2,-40027,-89842,-5488,5390
922.2,-39864,-89576,-5499,5358
924.2,-39942,-89721,-5595,5246
926.2,-39937,-89598,-5608,5213
928.2,-39830,-89146,-5479,5297
930.2,-40078,-89334,-5460,5318
932.2,-40537,-90065,-5683,5175
934.2,-40505,-90187,-5905,5035
936.2,-40075,-89800,-5944,5030
938.2,-40148,-89996,-5951,5037
940.2,-40909,-90645,-6065,4923
942.2,-41463,-90813,-6199,4765
944.2,-41206,-90562,-6255,4705
946.2,-40593,-90459,-6247,4764
948.2,-40339,-90443,-6264,4801
950.2,-40578,-90461,-6425,4638
952.2,-40962,-90789,-6688,4347
954.2,-41114,-91141,-6797,4247
956.2,-41037,-91041,-6728,4381
958.2,-41115,-90932,-6830,4361
960.2,-41424,-91312,-7159,4062
962.2,-41465,-91600,-7286,3874
964.2,-41106,-91316,-7108,3964
966.2,-40971,-91068,-7062,4005
968.2,-41318,-91245,-7260,3900
970.2,-41571,-91357,-7362,3887
972.2,-41433,-91279,-7360,3883
974.2,-41344,-91457,-7521,3627
976.2,-41559,-91795,-7701,3355
978.2,-41733,-91826,-7620,3437
980.2,-41583,-91649,-7474,3670
982.2,-41325,-91563,-7518,3703
984.2,-41319,-91476,-7590,3632
986.2,-41577,-91381,-7533,3640
988.2,-41787,-91547,-7506,3610
990.2,-41751,-91856,-7596,3467
992.2,-41599,-91874,-7662,3401
994.2,-41537,-91631,-7625,3542
996.2,-41573,-91540,-7579,3744
998.2,-41580,-91653,-7641,3755
1000.2,-41531,-91692,-7770,3567
1002.2,-41518,-91613,-7775,3460
1004.2,-41505,-91592,-7639,3532
1006.2,-41346,-91620,-7631,3486
1008.2,-41222,-91542,-7784,3257
1010.2,-41517,-91409,-7739,3260
1012.2,-42031,-91435,-7469,3577
1014.2,-42099,-91640,-7416,3700
1016.2,-41652,-91779,-7646,3464
1018.2,-41293,-91703,-7784,3278
1020.2,-41311,-91560,-7782,3276
1022.2,-41482,-91519,-7834,3227
1024.2,-41615,-91545,-7804,3188
1026.2,-41588,-91522,-7585,3342
1028.2,-41298,-91416,-7460,3531
1030.2,-40999,-91308,-7542,3577
1032.2,-41117,-91336,-7583,3589
1034.2,-41523,-91527,-7566,3592
1036.2,-41651,-91682,-7705,3445
1038.2,-41411,-91638,-7900,3244
1040.2,-41284,-91521,-7889,3230
1042.2,-41462,-91538,-7732,3367
1044.2,-41634,-91706,-7653,3427
1046.2,-41648,-91909,-7660,3373
1048.2,-41661,-91967,-7626,3365
1050.2,-41630,-91743,-7536,3456
1052.2,-41415,-91446,-7508,3481
1054.2,-41277,-91506,-7620,3331
1056.2,-41484,-91839,-7771,3178
1058.2,-41708,-91854,-7809,3223
1060.2,-41567,-91493,-7765,3351
1062.2,-41344,-91377,-7769,3350
1064.2,-41442,-91675,-7823,3271
1066.2,-41673,-91843,-7860,3234
1068.2,-41658,-91683,-7875,3182
1070.2,-41443,-91571,-7839,3095
1072.2,-41324,-91636,-7747,3056
1074.2,-41431,-91707,-7760,3003
1076.2,-41617,-91791,-7948,2863
1078.2,-41622,-91850,-8065,2823
1080.2,-41439,-91693,-7965,2993
1082.2,-41390,-91530,-7905,3134
1084.2,-41585,-91735,-8003,3123
1086.2,-41686,-92012,-7958,3205
1088.2,-41538,-91862,-7683,3455
1090.2,-41457,-91549,-7558,3578
1092.2,-41604,-91522,-7733,3467
1094.2,-41752,-91580,-7886,3347
1096.2,-41759,-91499,-7863,3303
1098.2,-41699,-91574,-7874,3194
1100.2,-41599,-91868,-7979,3027
1102.2,-41486,-91931,-8001,2960
1104.2,-41449,-91658,-7914,3003
1106.2,-41493,-91482,-7876,3027
1108.2,-41573,-91605,-7928,2989
1110.2,-41654,-91770,-7955,2965
1112.2,-41608,-91748,-7886,3025
1114.2,-41423,-91591,-7808,3104
1116.2,-41403,-91544,-7857,3075
1118.2,-41654,-91769,-8001,2948
1120.2,-41773,-92033,-8076,2873
1122.2,-41585,-91940,-8030,2908
1124.2,-41500,-91594,-7965,2962
1126.2,-41679,-91464,-7946,2972
1128.2,-41701,-91570,-7973,2956
1130.2,-41421,-91508,-8034,2922
1132.2,-41247,-91279,-8076,2886
1134.2,-41393,-91335,-8053,2874
1136.2,-41637,-91800,-8006,2897
1138.2,-41750,-92194,-7949,2966
1140.2,-41624,-92094,-7879,3052
1142.2,-41313,-91724,-7914,3035
1144.2,-41154,-91604,-8082,2911
1146.2,-41308,-91788,-8156,2872
1148.2,-41416,-91912,-8056,2949
1150.2,-41316,-91875,-8010,2947
1152.2,-41452,-91862,-8042,2898
1154.2,-41917,-91859,-7929,3026
1156.2,-42078,-91749,-7794,3193
1158.2,-41713,-91620,-7938,3092
1160.2,-41380,-91567,-8180,2872
1162.2,-41342,-91582,-8176,2843
1164.2,-41315,-91727,-8090,2878
1166.2,-41270,-91930,-8180,2775
1168.2,-41381,-91895,-8237,2725
1170.2,-41482,-91660,-8071,2885
1172.2,-41398,-91635,-7928,3026
1174.2,-41268,-91766,-8004,2961
1176.2,-41188,-91599,-8125,2818
1178.2,-41198,-91329,-8158,2744
1180.2,-41444,-91570,-8197,2728
1182.2,-41758,-92126,-8270,2697
1184.2,-41716,-92242,-8265,2619
1186.2,-41421,-91890,-8148,2577
1188.2,-41317,-91649,-8013,2679
1190.2,-41352,-91701,-7960,2858
1192.2,-41284,-91816,-7987,2983
1194.2,-41286,-91864,-7991,3096
1196.2,-41452,-91792,-7907,3251
1198.2,-41520,-91604,-7800,3321
1200.2,-41502,-91480,-7750,3234
1202.2,-41623,-91479,-7746,3146
1204.2,-41699,-91357,-7748,3194
1206.2,-41481,-91058,-7736,3332
1208.2,-41254,-90923,-7709,3457
1210.2,-41332,-91109,-7681,3517
1212.2,-41499,-91314,-7647,3536
1214.2,-41437,-91253,-7568,3583
1216.2,-41171,-91017,-7459,3677
1218.2,-40929,-90859,-7420,3721
1220.2,-40933,-90889,-7527,3609
1222.2,-41225,-91027,-7718,3385
1224.2,-41520,-91171,-7852,3212
1226.2,-41487,-91268,-7857,3183
1228.2,-41215,-91198,-7789,3241
1230.2,-41057,-90907,-7703,3319
1232.2,-41146,-90691,-7588,3427
1234.2,-41331,-90819,-7485,3510
1236.2,-41417,-90944,-7512,3442
1238.2,-41305,-90705,-7662,3261
1240.2,-41129,-90567,-7761,3159
1242.2,-41116,-90943,-7711,3219
1244.2,-41155,-91187,-7606,3323
1246.2,-40948,-90745,-7573,3333
1248.2,-40672,-90306,-7607,3269
1250.2,-40740,-90526,-7620,3243
1252.2,-40976,-90873,-7595,3281
1254.2,-41006,-90875,-7594,3294
1256.2,-41051,-91019,-7637,3256
1258.2,-41302,-91532,-7723,3201
1260.2,-41304,-91819,-7891,3086
1262.2,-40983,-91693,-8079,2922
1264.2,-41082,-91680,-8136,2845
1266.2,-41717,-91888,-8092,2859
1268.2,-41994,-91895,-8110,2827
1270.2,-41623,-91701,-8148,2772
1272.2,-41298,-91655,-8096,2789
1274.2,-41301,-91690,-8083,2772
1276.2,-41309,-91550,-8210,2658
1278.2,-41300,-91406,-8282,2628
1280.2,-41386,-91539,-8157,2759
1282.2,-41360,-91843,-8027,2855
1284.2,-41220,-92075,-8103,2776
1286.2,-41292,-92205,-8296,2616
1288.2,-41549,-92261,-8389,2498
1290.2,-41669,-92182,-8328,2462
1292.2,-41574,-91945,-8217,2505
1294.2,-41341,-91688,-8124,2610
1296.2,-41070,-91630,-8051,2738
1298.2,-41010,-91803,-8048,2826
1300.2,-41195,-91962,-8153,2823
1302.2,-41271,-91935,-8268,2745
1304.2,-41171,-91858,-8298,2646
1306.2,-41265,-91858,-8321,2550
1308.2,-41546,-91883,-8412,2452
1310.2,-41549,-91993,-8470,2416
1312.2,-41229,-92285,-8393,2601
1314.2,-41055,-92563,-8289,3017
1316.2,-41233,-92639,-8331,3398
1318.2,-41452,-92631,-8407,3611
1320.2,-41370,-92502,-8144,3949
1322.2,-40988,-91938,-7411,4597
1324.2,-40577,-91075,-6523,5235
1326.2,-40300,-90454,-5717,5642
1328.2,-39986,-90052,-4827,6076
1330.2,-39415,-89371,-3757,6655
1332.2,-38686,-88407,-2782,7106
1334.2,-38058,-87476,-2067,7285
1336.2,-37686,-86499,-1425,7272
1338.2,-37772,-85399,-779,7059
1340.2,-38541,-84638,-408,6753
1342.2,-39766,-84643,-566,6620
1344.2,-40828,-85414,-1304,6487
1346.2,-41553,-86927,-2831,5606
1348.2,-42458,-89147,-5560,3442
1350.2,-43825,-91609,-9326,296
1352.2,-45073,-93637,-12892,-2830
1354.2,-45490,-94921,-14924,-4875
1356.2,-45185,-95627,-15372,-5525
1358.2,-44866,-96135,-15254,-5425
1360.2,-44910,-96685,-15283,-5357
1362.2,-45051,-97175,-15423,-5469
1364.2,-44877,-97384,-15468,-5480
1366.2,-44351,-97263,-15235,-5144
1368.2,-43772,-96888,-14548,-4384
1370.2,-43327,-96355,-13573,-3406
1372.2,-42944,-95791,-12734,-2576
1374.2,-42611,-95226,-12049,-1905
1376.2,-42418,-94558,-11218,-1060
1378.2,-42212,-93801,-10339,-40
1380.2,-41778,-93159,-9760,765
1382.2,-41327,-92729,-9438,1237
1384.2,-41185,-92407,-9111,1613
1386.2,-41234,-92148,-8749,2018
1388.2,-41187,-92005,-8425,2390
1390.2,-40994,-91881,-8171,2695
1392.2,-40721,-91613,-8079,2898
1394.2,-40556,-91348,-8131,2966
1396.2,-40816,-91391,-8097,2985
1398.2,-41377,-91677,-7958,2999
1400.2,-41614,-91885,-7985,2891
1402.2,-41331,-91922,-8167,2696
1404.2,-41051,-91833,-8149,2702
1406.2,-41093,-91581,-7911,2949
1408.2,-41136,-91309,-7817,3104
1410.2,-40915,-91265,-7888,3077
1412.2,-40666,-91357,-7783,3161
1414.2,-40677,-91367,-7540,3378
1416.2,-40827,-91393,-7541,3401
1418.2,-40867,-91526,-7761,3220
1420.2,-40851,-91548,-7833,3145
1422.2,-40905,-91335,-7725,3210
1424.2,-40855,-91102,-7699,3200
1426.2,-40628,-91091,-7782,3089
1428.2,-40580,-91318,-7794,3030
1430.2,-40880,-91553,-7658,3114
1432.2,-41124,-91547,-7455,3294
1434.2,-41032,-91360,-7352,3396
1436.2,-40840,-91244,-7449,3301
1438.2,-40747,-91238,-7587,3181
1440.2,-40663,-91203,-7538,3273
1442.2,-40573,-91117,-7378,3486
1444.2,-40594,-91072,-7342,3570
1446.2,-40690,-91137,-7434,3492
1448.2,-40645,-91209,-7487,3397
1450.2,-40416,-91055,-7431,3385
1452.23,-40316,-90794,-7326,3453
1454.25,-40566,-90907,-7288,3511
1456.28,-40793,-91293,-7369,3492
1458.3,-40595,-91250,-7426,3503
1460.3,-40303,-90809,-7303,3651
1462.3,-40399,-90765,-7147,3781
1464.3,-40630,-91153,-7173,3706
1466.3,-40575,-91228,-7246,3577
1468.3,-40415,-90897,-7117,3660
1470.3,-40481,-90729,-6904,3878
1472.3,-40692,-90852,-6905,3954
1474.3,-40813,-90959,-7078,3869
1476.3,-40738,-90941,-7123,3857
1478.3,-40504,-90814,-6950,4009
1480.3,-40274,-90557,-6761,4156
1482.3,-40145,-90325,-6724,4150
1484.3,-40040,-90307,-6788,4045
1486.3,-39983,-90351,-6819,3972
1488.3,-40132,-90276,-6760,4000
1490.3,-40366,-90277,-6629,4139
1492.3,-40283,-90459,-6498,4315
1494.3,-39807,-90471,-6478,4365
1496.3,-39442,-90229,-6572,4247
1498.3,-39638,-90222,-6604,4175
1500.3,-40110,-90528,-6443,4308
1502.3,-40224,-90578,-6232,4472
1504.3,-39972,-90299,-6190,4487
1506.3,-39871,-90225,-6290,4490
1508.3,-39950,-90327,-6324,4640
1510.3,-39783,-90129,-6202,4804
1512.3,-39458,-89810,-6010,4838
1514.3,-39461,-89836,-5839,4862
1516.3,-39725,-90005,-5742,4959
1518.3,-39763,-89901,-5778,4961
1520.3,-39527,-89641,-5903,4810
1522.3,-39403,-89522,-5910,4772
1524.3,-39548,-89572,-5723,4970
1526.3,-39651,-89665,-5548,5151
1528.3,-39355,-89606,-5489,5208
1530.3,-38848,-89324,-5382,5343
1532.3,-38755,-89126,-5226,5526
1534.3,-39252,-89303,-5242,5472
1536.3,-39737,-89614,-5411,5253
1538.3,-39662,-89631,-5486,5222
1540.3,-39174,-89318,-5413,5390
1542.3,-38756,-88923,-5320,5494
1544.3,-38651,-88686,-5278,5452
1546.3,-38800,-88772,-5325,5330
1548.3,-39093,-89103,-5430,5195
1550.3,-39448,-89309,-5437,5174
1552.3,-39628,-89158,-5300,5339
1554.3,-39392,-88903,-5185,5555
1556.3,-39038,-88946,-5193,5645
1558.3,-39116,-89278,-5260,5592
1560.3,-39462,-89485,-5327,5484
1562.3,-39418,-89310,-5369,5405
1564.3,-38989,-88971,-5380,5369
1566.3,-38809,-88812,-5394,5341
1568.3,-39050,-88887,-5400,5346
1570.3,-39283,-89041,-5361,5415
1572.3,-39267,-89170,-5375,5427
1574.3,-39236,-89268,-5517,5310
1576.3,-39431,-89356,-5631,5221
1578.3,-39687,-89442,-5627,5252
1580.3,-39708,-89542,-5691,5225
1582.3,-39617,-89691,-5904,5048
1584.3,-39700,-89825,-6051,4909
1586.3,-39783,-89800,-6023,4923
1588.3,-39659,-89736,-5997,4944
1590.3,-39706,-89954,-6132,4814
1592.3,-40056,-90287,-6366,4595
1594.3,-40053,-90148,-6516,4495
1596.3,-39539,-89609,-6501,4580
1598.3,-39382,-89477,-6459,4647
1600.3,-39880,-89982,-6580,4514
1602.3,-40258,-90451,-6825,4285
1604.3,-40226,-90501,-6982,4154
1606.3,-40249,-90491,-7000,4126
1608.3,-40321,-90639,-7045,4078
1610.3,-40199,-90740,-7217,3956
1612.3,-40321,-90809,-7370,3848
1614.3,-40919,-91035,-7326,3885
1616.3,-41197,-91153,-7203,3982
1618.3,-40729,-90851,-7266,3867
1620.3,-40364,-90568,-7493,3533
1622.3,-40612,-90808,-7618,3344
1624.3,-40717,-91102,-7577,3486
1626.3,-40356,-90923,-7545,3707
1628.3,-40432,-90830,-7572,3761
1630.3,-41129,-91278,-7551,3723
1632.3,-41222,-91471,-7479,3722
1634.3,-40382,-90908,-7499,3694
1636.3,-39948,-90515,-7666,3570
1638.3,-40488,-90864,-7811,3471
1640.3,-40901,-91122,-7759,3539
1642.3,-40624,-90824,-7618,3675
1644.3,-40465,-90710,-7598,3695
1646.3,-40794,-91086,-7649,3633
1648.3,-40909,-91242,-7614,3626
1650.3,-40492,-90891,-7584,3612
1652.3,-40192,-90649,-7710,3470
1654.3,-40459,-90900,-7858,3315
1656.3,-40791,-91240,-7817,3334
1658.3,-40634,-91239,-7647,3471
1660.3,-40389,-91129,-7547,3534
1662.3,-40666,-91293,-7542,3511
1664.3,-41035,-91471,-7532,3527
1666.3,-40805,-91241,-7547,3553
1668.3,-40426,-90948,-7667,3461
1670.3,-40569,-91067,-7771,3354
1672.3,-40773,-91212,-7704,3415
1674.3,-40537,-90979,-7615,3512
1676.3,-40431,-90826,-7703,3426
1678.3,-40791,-91028,-7800,3323
1680.3,-40924,-91076,-7708,3416
1682.3,-40581,-90884,-7627,3499
1684.3,-40439,-90994,-7742,3376
1686.3,-40621,-91295,-7853,3251
1688.3,-40528,-91179,-7824,3273
1690.3,-40289,-90823,-7798,3295
1692.3,-40602,-90845,-7771,3308
1694.3,-41160,-91120,-7601,3448
1696.3,-40994,-91142,-7446,3577
1698.3,-40314,-91000,-7560,3473
1700.3,-40212,-91056,-7793,3284
1702.3,-40660,-91175,-7818,3284
1704.3,-40709,-91034,-7668,3410
1706.3,-40408,-90827,-7628,3427
1708.3,-40534,-90942,-7748,3333
1710.3,-40866,-91213,-7823,3286
1712.3,-40705,-91200,-7790,3300
1714.3,-40383,-90989,-7798,3249
1716.3,-40552,-91017,-7881,3129
1718.3,-40846,-91255,-7879,3093
1720.3,-40643,-91253,-7760,3193
1722.3,-40254,-90960,-7711,3298
1724.3,-40334,-90842,-7797,3320
1726.3,-40773,-91058,-7843,3345
1728.3,-40902,-91182,-7776,3405
1730.3,-40518,-91051,-7774,3365
1732.3,-40202,-91081,-7891,3209
1734.3,-40437,-91334,-7912,3165
1736.3,-40862,-91304,-7792,3277
1738.3,-40873,-90999,-7802,3253
1740.3,-40552,-90947,-7987,3025
1742.3,-40408,-91084,-8037,2927
1744.3,-40557,-91035,-7905,3050
1746.3,-40702,-91038,-7876,3110
1748.3,-40644,-91278,-7964,3069
1750.3,-40510,-91310,-7950,3136
1752.3,-40510,-91091,-7889,3224
1754.3,-40568,-91130,-7935,3131
1756.3,-40480,-91318,-7983,2987
1758.3,-40392,-91227,-7958,2974
1760.3,-40567,-91151,-7995,3004
1762.3,-40781,-91355,-8088,3013
1764.3,-40686,-91357,-8063,3078
1766.3,-40473,-91016,-7948,3157
1768.3,-40442,-90904,-7914,3138
1770.3,-40466,-91099,-7960,3079
1772.3,-40465,-91115,-7970,3094
1774.3,-40652,-91007,-7959,3119
1776.3,-40951,-91171,-8017,3041
1778.3,-40969,-91411,-8111,2935
1780.3,-40707,-91322,-8138,2935
1782.3,-40559,-91110,-8109,2985
1784.3,-40606,-91117,-8109,2966
1786.3,-40608,-91191,-8137,2915
1788.3,-40599,-91169,-8157,2905
1790.3,-40735,-91231,-8178,2900
1792.3,-40747,-91320,-8182,2885
1794.3,-40401,-91165,-8143,2897
1796.3,-40115,-90998,-8092,2938
1798.3,-40250,-91137,-8031,3023
1800.3,-40456,-91215,-7979,3111
1802.3,-40475,-91007,-8056,3026
1804.3,-40571,-91037,-8211,2804
1806.3,-40723,-91364,-8174,2770
1808.3,-40603,-91281,-7968,2932
1810.3,-40406,-90870,-7936,2921
1812.3,-40501,-90968,-8129,2706
1814.3,-40707,-91462,-8261,2637
1816.3,-40762,-91535,-8197,2828
1818.3,-40778,-91234,-7997,3120
1820.3,-40810,-91145,-7791,3356
1822.3,-40763,-91220,-7787,3373
1824.3,-40648,-91116,-8009,3154
1826.3,-40471,-90924,-8124,3019
1828.3,-40269,-90866,-7924,3203
1830.3,-40240,-90889,-7685,3448
1832.3,-40316,-90821,-7714,3409
1834.3,-40167,-90619,-7898,3195
1836.3,-40017,-90422,-7906,3179
1838.3,-40390,-90378,-7698,3406
1840.3,-40946,-90414,-7571,3539
1842.3,-40925,-90392,-7645,3455
1844.3,-40545,-90423,-7669,3446
1846.3,-40508,-90607,-7550,3615
1848.3,-40635,-90689,-7545,3662
1850.3,-40413,-90471,-7673,3534
1852.3,-40173,-90255,-7659,3518
1854.3,-40380,-90387,-7580,3560
1856.3,-40609,-90667,-7733,3359
1858.3,-40398,-90685,-7918,3115
1860.3,-40156,-90417,-7756,3253
1862.3,-40277,-90144,-7460,3576
1864.3,-40444,-90097,-7451,3616
1866.3,-40424,-90295,-7584,3493
1868.3,-40423,-90500,-7540,3544
1870.3,-40435,-90441,-7483,3600
1872.3,-40302,-90246,-7609,3430
1874.3,-40198,-90215,-7667,3321
1876.3,-40247,-90233,-7527,3454
1878.3,-40252,-90114,-7515,3472
1880.3,-40213,-90181,-7717,3256
1882.3,-40279,-90627,-7762,3210
1884.3,-40289,-90945,-7630,3376
1886.3,-40143,-90836,-7737,3296
1888.3,-40125,-90745,-8082,2935
1890.3,-40281,-90889,-8226,2748
1892.3,-40322,-90942,-8095,2840
1894.3,-40259,-90875,-7988,2933
1896.3,-40251,-90913,-7974,2958
1898.3,-40183,-90957,-7938,3010
1900.3,-40054,-90961,-7944,3026
1902.3,-40099,-91115,-8070,2936
1904.3,-40264,-91237,-8210,2827
1906.3,-40390,-91090,-8317,2723
1908.3,-40597,-91095,-8459,2579
1910.3,-40790,-91509,-8498,2544
1912.3,-40602,-91654,-8244,2777
1914.3,-40248,-91129,-7944,3021
1916.3,-40296,-90699,-8024,2883
1918.3,-40544,-90985,-8358,2522
1920.3,-40431,-91484,-8442,2457
1922.3,-40191,-91593,-8219,2746
1924.3,-40306,-91474,-8096,2949
1926.3,-40487,-91434,-8221,2879
1928.3,-40340,-91397,-8347,2773
1930.3,-40197,-91331,-8338,2752
1932.3,-40378,-91417,-8327,2690
1934.3,-40557,-91585,-8386,2575
1936.3,-40492,-91549,-8426,2543
1938.3,-40421,-91378,-8403,2603
1940.3,-40442,-91447,-8375,2699
1942.3,-40390,-91832,-8376,2871
1944.3,-40324,-92248,-8407,3124
1946.3,-40325,-92413,-8429,3385
1948.3,-40179,-92160,-8291,3723
1950.3,-39860,-91513,-7854,4238
1952.3,-39715,-90789,-7171,4778
1954.3,-39742,-90287,-6362,5196
1956.3,-39501,-89923,-5439,5643
1958.3,-38926,-89423,-4412,6229
1960.3,-38374,-88615,-3335,6831
1962.3,-37912,-87460,-2251,7384
1964.3,-37422,-86179,-1318,7771
1966.3,-37146,-85197,-753,7653
1968.3,-37380,-84642,-473,7121
1970.3,-38052,-84383,-320,6837
1972.3,-39026,-84746,-653,6858
1974.3,-40177,-86205,-1989,6339
1976.3,-41166,-88288,-4268,4844
1978.3,-41936,-90093,-7193,2648
1980.3,-42910,-91699,-10617,-132
1982.3,-43968,-93580,-13846,-3172
1984.3,-44355,-95185,-15619,-5256
1986.3,-44145,-95777,-15656,-5630
1988.3,-44192,-95890,-15187,-5227
1990.3,-44446,-96369,-15248,-5219
1992.3,-44200,-96888,-15517,-5407
1994.3,-43670,-96807,-15321,-5113
1996.3,-43453,-96393,-14730,-4458
1998.3,-43163,-96079,-14131,-3862
2000.3,-42299,-95669,-13519,-3260
2002.3,-41430,-95060,-12757,-2498
2004.3,-41143,-94511,-11973,-1711
2006.3,-40992,-93899,-11313,-972
2008.3,-40565,-93003,-10664,-136
2010.3,-40303,-92304,-9970,754
2012.3,-40415,-92217,-9428,1419
2014.3,-40337,-92229,-9135,1791
2016.3,-39944,-91890,-8846,2129
2018.3,-39926,-91563,-8394,2569
2020.3,-40426,-91495,-8002,2901
2022.3,-40691,-91389,-7907,2960
2024.3,-40376,-91187,-7989,2907
2026.3,-39974,-91149,-8063,2914
2028.3,-39873,-91278,-8160,2897
2030.3,-39953,-91382,-8280,2807
2032.3,-40012,-91352,-8273,2797
2034.3,-39922,-91126,-8141,2911
2036.3,-39633,-90790,-8027,3016
2038.3,-39358,-90571,-7903,3119
2040.3,-39496,-90567,-7709,3295
2042.3,-40132,-90764,-7641,3379
2044.3,-40731,-91071,-7811,3231
2046.3,-40656,-91184,-7933,3101
2048.3,-40104,-90989,-7814,3210
2050.3,-39861,-90901,-7709,3323
2052.3,-39970,-91065,-7792,3224
2054.3,-39767,-90970,-7832,3140
2056.3,-39358,-90588,-7708,3255
2058.3,-39455,-90561,-7623,3372
2060.3,-39816,-90811,-7619,3388
2062.33,-39706,-90668,-7521,3462
2064.35,-39451,-90389,-7377,3593
2066.38,-39701,-90653,-7385,3593
2068.4,-40003,-91020,-7515,3469
2070.4,-39753,-90777,-7594,3376
2072.4,-39443,-90396,-7587,3355
2074.4,-39634,-90480,-7573,3347
2076.4,-39891,-90533,-7598,3324
2078.4,-39715,-90165,-7581,3359
2080.4,-39425,-89982,-7403,3539
2082.4,-39421,-90263,-7185,3737
2084.4,-39526,-90412,-7181,3726
2086.4,-39514,-90296,-7314,3612
2088.4,-39488,-90403,-7288,3669
2090.4,-39457,-90598,-7147,3816
2092.4,-39283,-90413,-7118,3814
2094.4,-39147,-90177,-7145,3755
2096.4,-39340,-90383,-7119,3765
2098.4,-39609,-90645,-7134,3730
2100.4,-39443,-90433,-7146,3691
2102.4,-38956,-89998,-6943,3886
2104.4,-38796,-89821,-6635,4211
2106.4,-39189,-89931,-6580,4288
2108.4,-39650,-90115,-6805,4082
2110.4,-39742,-90238,-6974,3924
2112.4,-39583,-90263,-6910,3978
2114.4,-39382,-90191,-6780,4091
2116.4,-39063,-90016,-6740,4128
2118.4,-38692,-89789,-6676,4186
2120.4,-38620,-89644,-6481,4343
2122.4,-38878,-89620,-6332,4444
2124.4,-39107,-89621,-6380,4384
2126.4,-39115,-89626,-6449,4332
2128.4,-38926,-89650,-6404,4393
2130.4,-38606,-89606,-6374,4427
2132.4,-38512,-89507,-6346,4438
2134.4,-38933,-89533,-6129,4621
2136.4,-39363,-89681,-5866,4854
2138.4,-39143,-89701,-5887,4814
2140.4,-38562,-89478,-6050,4608
2142.4,-38288,-89171,-5986,4595
2144.4,-38356,-89038,-5808,4716
2146.4,-38551,-89218,-5813,4718
2148.4,-38881,-89529,-5849,4749
2150.4,-39098,-89558,-5693,4997
2152.4,-38790,-89141,-5600,5170
2154.4,-38218,-88616,-5750,5044
2156.4,-38061,-88400,-5769,4983
2158.4,-38299,-88476,-5426,5265
2160.4,-38312,-88490,-5103,5571
2162.4,-37981,-88345,-5077,5637
2164.4,-37783,-88381,-5100,5673
2166.4,-37899,-88727,-5025,5771
2168.4,-38058,-88973,-5064,5693
2170.4,-38153,-88880,-5266,5427
2172.4,-38246,-88772,-5393,5268
2174.4,-38195,-88803,-5323,5339
2176.4,-37940,-88682,-5160,5486
2178.4,-37804,-88440,-5058,5554
2180.4,-37969,-88490,-5071,5535
2182.4,-38185,-88781,-5111,5534
2184.4,-38285,-88853,-5099,5591
2186.4,-38346,-88660,-5127,5580
2188.4,-38272,-88459,-5239,5461
2190.4,-37947,-88234,-5287,5388
2192.4,-37665,-87992,-5238,5405
2194.4,-37761,-88076,-5247,5377
2196.4,-38069,-88490,-5306,5321
2198.4,-38210,-88684,-5283,5369
2200.4,-38164,-88522,-5262,5442
2202.4,-38193,-88482,-5384,5390
2204.4,-38389,-88640,-5565,5267
2206.4,-38578,-88663,-5720,5147
2208.4,-38628,-88725,-5896,5005
2210.4,-38628,-89068,-6008,4926
2212.4,-38664,-89216,-5917,5023
2214.4,-38674,-88893,-5788,5147
2216.4,-38624,-88695,-5863,5094
2218.4,-38650,-88923,-6048,4939
2220.4,-38900,-89163,-6182,4811
2222.4,-39242,-89335,-6340,4660
2224.4,-39267,-89585,-6508,4534
2226.4,-38867,-89563,-6481,4598
2228.4,-38591,-89194,-6363,4708
2230.4,-38887,-89167,-6518,4539
2232.4,-39359,-89694,-6896,4188
2234.4,-39475,-90133,-7077,4039
2236.4,-39408,-90209,-7026,4100
2238.4,-39455,-90252,-7088,4071
2240.4,-39422,-90361,-7280,3942
2242.4,-39279,-90417,-7291,3955
2244.4,-39448,-90511,-7133,4094
2246.4,-39899,-90679,-7146,4109
2248.4,-40012,-90743,-7395,3939
2250.4,-39694,-90686,-7620,3750
2252.4,-39554,-90648,-7694,3638
2254.4,-39778,-90596,-7693,3597
2256.4,-39870,-90456,-7636,3645
2258.4,-39652,-90414,-7520,3771
2260.4,-39521,-90583,-7426,3871
2262.4,-39620,-90659,-7424,3860
2264.4,-39612,-90413,-7521,3732
2266.4,-39445,-90218,-7687,3557
2268.4,-39521,-90455,-7782,3489
2270.4,-39910,-90798,-7674,3593
2272.4,-40127,-90797,-7529,3659
2274.4,-39966,-90657,-7607,3472
2276.4,-39811,-90678,-7779,3230
2278.4,-39837,-90551,-7709,3292
2280.4,-39746,-90057,-7472,3578
2282.4,-39480,-89716,-7443,3691
2284.4,-39335,-89923,-7644,3557
2286.4,-39354,-90294,-7738,3452
2288.4,-39392,-90493,-7647,3467
2290.4,-39502,-90703,-7611,3455
2292.4,-39684,-90898,-7660,3459
2294.4,-39716,-90769,-7599,3635
2296.4,-39586,-90485,-7483,3804
2298.4,-39516,-90430,-7567,3680
2300.4,-39538,-90500,-7784,3434
2302.4,-39562,-90547,-7809,3442
2304.4,-39606,-90771,-7633,3632
2306.4,-39652,-91034,-7548,3648
2308.4,-39623,-90865,-7625,3472
2310.4,-39511,-90441,-7671,3371
2312.4,-39272,-90331,-7618,3430
2314.4,-38949,-90423,-7567,3544
2316.4,-38959,-90351,-7543,3634
2318.4,-39515,-90368,-7502,3673
2320.4,-39980,-90638,-7452,3664
2322.4,-39708,-90659,-7456,3627
2324.4,-39155,-90315,-7580,3518
2326.4,-39157,-90228,-7794,3323
2328.4,-39622,-90530,-7918,3200
2330.4,-39855,-90666,-7845,3268
2332.4,-39653,-90555,-7719,3372
2334.4,-39376,-90577,-7687,3360
2336.4,-39316,-90654,-7680,3325
2338.4,-39437,-90561,-7644,3349
2340.4,-39527,-90499,-7653,3358
2342.4,-39521,-90563,-7679,3372
2344.4,-39629,-90571,-7638,3458
2346.4,-39916,-90639,-7650,3481
2348.4,-39963,-90896,-7837,3311
2350.4,-39566,-90945,-8011,3130
2352.4,-39297,-90610,-7947,3162
2354.4,-39550,-90388,-7757,3318
2356.4,-39785,-90484,-7685,3369
2358.4,-39625,-90576,-7759,3272
2360.4,-39585,-90706,-7852,3152
2362.4,-39851,-91010,-7881,3116
2364.4,-39753,-90978,-7837,3173
2366.4,-39170,-90374,-7769,3253
2368.4,-38928,-90010,-7769,3277
2370.4,-39318,-90400,-7877,3217
2372.4,-39677,-90865,-7997,3123
2374.4,-39597,-90850,-7979,3108
2376.4,-39366,-90718,-7805,3223
2378.4,-39313,-90761,-7661,3342
2380.4,-39487,-90762,-7710,3306
2382.4,-39766,-90714,-7847,3198
2384.4,-39861,-90767,-7836,3241
2386.4,-39569,-90717,-7674,3423
2388.4,-39205,-90488,-7605,3500
2390.4,-39297,-90483,-7743,3347
2392.4,-39724,-90742,-7976,3072
2394.4,-39809,-90738,-8175,2831
2396.4,-39467,-90495,-8232,2776
2398.4,-39339,-90586,-8030,2994
2400.4,-39525,-90843,-7696,3289
2402.4,-39460,-90605,-7615,3320
2404.4,-39196,-90181,-7871,3101
2406.4,-39325,-90375,-8085,2981
2408.4,-39638,-90905,-8024,3090
2410.4,-39510,-90891,-7883,3239
2412.4,-39240,-90447,-7843,3304
2414.4,-39425,-90340,-7854,3293
2416.4,-39674,-90569,-7853,3231
2418.4,-39420,-90528,-7835,3205
2420.4,-39126,-90208,-7790,3287
2422.4,-39406,-90130,-7740,3376
2424.4,-39818,-90332,-7712,3368
2426.4,-39669,-90337,-7688,3340
2428.4,-39216,-90073,-7636,3393
2430.4,-39146,-89974,-7544,3502
2432.4,-39498,-90200,-7435,3586
2434.4,-39799,-90445,-7407,3578
2436.4,-39754,-90434,-7473,3520
2438.4,-39428,-90167,-7478,3550
2440.4,-39124,-89855,-7399,3656
2442.4,-39138,-89820,-7432,3653
2444.4,-39380,-90090,-7572,3559
2446.4,-39470,-90209,-7572,3587
2448.4,-39336,-89938,-7437,3713
2450.4,-39254,-89681,-7408,3737
2452.4,-39298,-89715,-7463,3701
2454.4,-39309,-89703,-7395,3769
2456.4,-39292,-89484,-7245,3874
2458.4,-39361,-89420,-7192,3880
2460.4,-39401,-89548,-7180,3870
2462.4,-39243,-89455,-7101,3948
2464.4,-39040,-89189,-7091,3977
2466.4,-39072,-89237,-7277,3823
2468.4,-39243,-89559,-7449,3645
2470.4,-39222,-89658,-7398,3629
2472.4,-39035,-89474,-7299,3660
2474.4,-39022,-89365,-7368,3575
2476.4,-39197,-89451,-7471,3488
2478.4,-39273,-89599,-7448,3536
2480.4,-39243,-89780,-7437,3582
2482.4,-39293,-89996,-7566,3490
2484.4,-39331,-90122,-7738,3333
2486.4,-39246,-90140,-7884,3180
2488.4,-39217,-90266,-8028,3013
2490.4,-39261,-90555,-8118,2891
2492.4,-39133,-90693,-8111,2874
2494.4,-38952,-90484,-8074,2902
2496.4,-39049,-90207,-8027,2945
2498.4,-39203,-90138,-7916,3058
2500.4,-39056,-90177,-7794,3199
2502.4,-38945,-90278,-7775,3250
2504.4,-39308,-90639,-7876,3173
2506.4,-39831,-91136,-8035,3016
2508.4,-39990,-91268,-8182,2853
2510.4,-39795,-90953,-8268,2733
2512.4,-39515,-90663,-8301,2650
2514.4,-39314,-90627,-8266,2639
2516.4,-39271,-90606,-8084,2809
2518.4,-39342,-90512,-7844,3074
2520.4,-39423,-90559,-7850,3100
2522.4,-39513,-90770,-8146,2825
2524.4,-39557,-90894,-8343,2651
2526.4,-39407,-90835,-8226,2789
2528.4,-39187,-90749,-8092,2910
2530.4,-39188,-90737,-8180,2771
2532.4,-39326,-90768,-8283,2617
2534.4,-39337,-90833,-8225,2652
2536.4,-39310,-90979,-8182,2703
2538.4,-39331,-91201,-8295,2677
2540.4,-39201,-91408,-8422,2781
2542.4,-39020,-91533,-8431,3132
2544.4,-39173,-91587,-8284,3649
2546.4,-39447,-91473,-7875,4288
2548.4,-39310,-90909,-7183,4941
2550.4,-38933,-89890,-6413,5362
2552.4,-38680,-88968,-5664,5564
2554.4,-38201,-88512,-4772,5878
2556.4,-37313,-88126,-3697,6417
2558.4,-36733,-87389,-2660,6969
2560.4,-36840,-86510,-1796,7372
2562.4,-37021,-85691,-1035,7515
2564.4,-36989,-84751,-393,7300
2566.4,-37303,-83874,-113,6933
2568.4,-38154,-83815,-484,6729
2570.4,-39014,-84989,-1619,6489
2572.4,-39701,-87029,-3509,5595
2574.4,-40638,-89274,-6260,3675
2576.4,-41965,-91270,-9780,865
2578.4,-43186,-92897,-13146,-2135
2580.4,-43752,-94125,-15071,-4265
2582.4,-43609,-94784,-15382,-5020
2584.4,-43198,-94931,-15155,-5007
2586.4,-42970,-95133,-15181,-5035
2588.4,-42887,-95687,-15246,-5142
2590.4,-42614,-96073,-15016,-5004
2592.4,-42133,-95865,-14576,-4596
2594.4,-41707,-95401,-14023,-4018
2596.4,-41369,-95034,-13311,-3253
2598.4,-41035,-94627,-12534,-2389
2600.4,-40791,-94105,-11857,-1626
2602.4,-40562,-93600,-11259,-949
2604.4,-40064,-93027,-10624,-183
2606.4,-39470,-92278,-9978,645
2608.4,-39298,-91582,-9436,1326
2610.4,-39484,-91183,-9009,1821
2612.4,-39542,-91029,-8625,2250
2614.4,-39471,-91028,-8316,2583
2616.4,-39499,-91083,-8149,2725
2618.4,-39422,-90912,-8001,2833
2620.4,-39121,-90437,-7728,3100
2622.4,-39002,-90135,-7534,3346
2624.4,-39213,-90369,-7675,3303
2626.4,-39313,-90741,-7940,3112
2628.4,-39141,-90750,-7966,3042
2630.4,-39018,-90524,-7867,3032
2632.4,-39039,-90386,-7900,2959
2634.4,-39050,-90331,-7875,3000
2636.4,-39132,-90297,-7569,3286
2638.4,-39342,-90343,-7275,3559
2640.4,-39427,-90391,-7324,3558
2642.4,-39295,-90338,-7532,3410
2644.4,-39178,-90282,-7602,3356
2646.4,-39115,-90286,-7590,3391
2648.4,-38975,-90241,-7623,3395
2650.4,-38912,-90191,-7644,3360
2652.4,-39062,-90278,-7596,3346
2654.4,-39125,-90351,-7497,3397
2656.4,-38889,-90152,-7349,3509
2658.4,-38702,-89840,-7227,3596
2660.4,-38837,-89769,-7268,3577
2662.4,-38997,-89919,-7410,3546
2664.4,-38905,-89981,-7426,3654
2666.4,-38744,-89857,-7293,3830
2668.4,-38679,-89739,-7170,3892
2670.4,-38650,-89824,-7094,3854
2672.43,-38741,-90099,-7034,3824
2674.45,-39013,-90313,-7064,3773
2676.48,-39159,-90229,-7150,3713
2678.5,-39005,-89970,-7062,3825
2680.5,-38904,-89870,-6800,4116
2682.5,-39028,-89948,-6693,4272
2684.5,-39040,-89960,-6844,4141
2686.5,-38830,-89866,-6969,3969
2688.5,-38661,-89777,-6949,3936
2690.5,-38542,-89692,-6972,3912
2692.5,-38372,-89644,-7027,3860
2694.5,-38351,-89659,-6902,3941
2696.5,-38506,-89525,-6707,4086
2698.5,-38472,-89195,-6723,4065
2700.5,-38212,-89087,-6816,4014
2702.5,-38135,-89325,-6673,4235
2704.5,-38343,-89438,-6442,4537
2706.5,-38544,-89330,-6454,4515
2708.5,-38648,-89440,-6609,4295
2710.5,-38784,-89684,-6621,4253
2712.5,-38865,-89561,-6526,4343
2714.5,-38695,-89264,-6451,4371
2716.5,-38381,-89337,-6317,4446
2718.5,-38229,-89547,-6081,4658
2720.5,-38271,-89345,-5882,4836
2722.5,-38246,-88928,-5806,4883
2724.5,-38071,-88818,-5840,4864
2726.5,-37959,-88973,-5974,4773
2728.5,-38016,-89092,-6110,4631
2730.5,-38078,-89154,-6090,4627
2732.5,-38010,-89155,-5905,4836
2734.5,-37916,-88946,-5672,5090
2736.5,-37936,-88643,-5474,5236
2738.5,-37982,-88557,-5384,5246
2740.5,-37849,-88646,-5437,5158
2742.5,-37593,-88593,-5482,5122
2744.5,-37497,-88373,-5356,5294
2746.5,-37635,-88265,-5163,5571
2748.5,-37800,-88366,-5095,5709
2750.5,-37837,-88458,-5126,5666
2752.5,-37742,-88348,-5143,5566
2754.5,-37569,-88145,-5134,5486
2756.5,-37452,-88078,-5074,5510
2758.5,-37452,-88136,-4949,5676
2760.5,-37410,-88130,-4918,5770
2762.5,-37247,-88016,-5068,5607
2764.5,-37133,-87864,-5138,5444
2766.5,-37124,-87702,-4936,5572
2768.5,-37108,-87626,-4748,5739
2770.5,-37153,-87726,-4892,5581
2772.5,-37380,-87820,-5169,5292
2774.5,-37639,-87763,-5217,5269
2776.5,-37727,-87784,-5069,5458
2778.5,-37660,-87955,-4976,5566
2780.5,-37511,-87933,-4983,5553
2782.5,-37347,-87741,-4964,5556
2784.5,-37296,-87847,-4908,5603
2786.5,-37328,-88132,-4932,5647
2788.5,-37256,-88019,-5053,5678
2790.5,-37177,-87673,-5123,5711
2792.5,-37369,-87677,-5096,5706
2794.5,-37624,-87798,-5139,5585
2796.5,-37468,-87545,-5297,5413
2798.5,-37104,-87366,-5351,5397
2800.5,-37207,-87825,-5265,5523
2802.5,-37780,-88416,-5332,5497
2804.5,-38197,-88498,-5635,5236
2806.5,-38254,-88417,-5891,5008
2808.5,-38208,-88585,-5961,4958
2810.5,-38087,-88631,-5963,4975
2812.5,-37863,-88380,-5952,4999
2814.5,-37803,-88381,-5941,5019
2816.5,-37979,-88759,-6007,4968
2818.5,-38102,-88921,-6150,4854
2820.5,-38166,-88796,-6315,4740
2822.5,-38418,-88919,-6542,4576
2824.5,-38697,-89252,-6775,4367
2826.5,-38710,-89350,-6840,4255
2828.5,-38666,-89378,-6791,4234
2830.5,-38816,-89641,-6842,4181
2832.5,-38918,-89765,-6949,4161
2834.5,-38772,-89484,-6963,4249
2836.5,-38623,-89304,-6998,4271
2838.5,-38668,-89505,-7160,4136
2840.5,-38788,-89619,-7279,4043
2842.5,-38903,-89492,-7263,4079
2844.5,-39057,-89597,-7290,4046
2846.5,-39162,-89952,-7432,3878
2848.5,-39075,-90022,-7512,3773
2850.5,-38856,-89788,-7444,3825
2852.5,-38738,-89720,-7362,3890
2854.5,-38867,-89828,-7376,3841
2856.5,-39141,-89782,-7450,3722
2858.5,-39260,-89652,-7475,3672
2860.5,-39053,-89676,-7404,3743
2862.5,-38761,-89765,-7337,3825
2864.5,-38772,-89791,-7407,3795
2866.5,-39025,-89815,-7575,3699
2868.5,-39086,-89813,-7700,3641
2870.5,-38908,-89714,-7752,3616
2872.5,-38923,-89703,-7764,3605
2874.5,-39171,-89916,-7715,3641
2876.5,-39158,-90061,-7623,3679
2878.5,-38859,-89885,-7570,3626
2880.5,-38872,-89685,-7518,3572
2882.5,-39225,-89797,-7383,3660
2884.5,-39239,-89966,-7289,3772
2886.5,-38848,-89814,-7397,3706
2888.5,-38703,-89521,-7568,3565
2890.5,-38819,-89429,-7590,3560
2892.5,-38650,-89429,-7544,3654
2894.5,-38405,-89321,-7562,3744
2896.5,-38659,-89275,-7555,3851
2898.5,-39057,-89425,-7497,3908
2900.5,-38981,-89552,-7521,3806
2902.5,-38749,-89536,-7570,3692
2904.5,-38800,-89566,-7483,3747
2906.5,-38854,-89718,-7377,3825
2908.5,-38827,-89815,-7426,3768
2910.5,-39065,-89740,-7496,3711
2912.5,-39287,-89586,-7446,3741
2914.5,-39015,-89569,-7438,3688
2916.5,-38799,-89836,-7604,3488
2918.5,-39209,-90175,-7744,3373
2920.5,-39485,-90144,-7636,3517
2922.5,-38959,-89715,-7399,3768
2924.5,-38459,-89390,-7304,3873
2926.5,-38715,-89432,-7346,3845
2928.5,-39013,-89523,-7346,3848
2930.5,-38772,-89435,-7400,3780
2932.5,-38613,-89410,-7682,3485
2934.5,-38893,-89604,-7901,3251
2936.5,-39023,-89768,-7709,3407
2938.5,-38819,-89750,-7405,3648
2940.5,-38790,-89714,-7434,3573
2942.5,-38962,-89704,-7619,3401
2944.5,-38983,-89588,-7664,3431
2946.5,-39007,-89473,-7692,3487
2948.5,-39204,-89582,-7766,3434
2950.5,-39178,-89814,-7706,3443
2952.5,-38787,-89885,-7563,3528
2954.5,-38539,-89781,-7529,3551
2956.5,-38678,-89748,-7546,3547
2958.5,-38901,-89908,-7533,3552
2960.5,-39055,-90056,-7567,3491
2962.5,-39212,-89981,-7633,3412
2964.5,-39252,-89851,-7673,3387
2966.5,-39057,-89874,-7734,3352
2968.5,-38824,-89877,-7787,3320
2970.5,-38796,-89772,-7754,3365
2972.5,-38905,-89821,-7733,3371
2974.5,-38905,-89929,-7766,3278
2976.5,-38798,-89711,-7711,3284
2978.5,-38867,-89472,-7621,3414
2980.5,-39101,-89693,-7721,3404
2982.5,-39065,-89889,-7897,3254
2984.5,-38690,-89566,-7855,3241
2986.5,-38485,-89351,-7695,3330
2988.5,-38628,-89682,-7721,3285
2990.5,-38800,-89900,-7873,3208
2992.5,-38988,-89741,-7914,3300
2994.5,-39303,-89813,-7860,3394
2996.5,-39338,-90078,-7800,3343
2998.5,-38905,-89902,-7658,3364
3000.5,-38640,-89483,-7495,3524
3002.5,-38890,-89432,-7541,3527
3004.5,-39108,-89589,-7743,3346
3006.5,-38997,-89604,-7837,3279
3008.5,-38947,-89655,-7865,3305
3010.5,-39057,-89861,-7989,3199
3012.5,-39042,-90074,-8058,3096
3014.5,-39009,-90293,-7945,3179
3016.5,-39148,-90368,-7834,3286
3018.5,-39148,-89941,-7798,3312
3020.5,-38850,-89272,-7704,3391
3022.5,-38675,-89049,-7587,3523
3024.5,-38783,-89227,-7542,3628
3026.5,-38841,-89341,-7496,3754
3028.5,-38861,-89514,-7465,3833
3030.5,-39086,-89852,-7542,3743
3032.5,-39210,-89790,-7583,3664
3034.5,-38918,-89140,-7486,3748
3036.5,-38649,-88641,-7450,3781
3038.5,-38751,-88717,-7479,3708
3040.5,-38803,-88929,-7305,3807
3042.5,-38558,-88892,-7053,4021
3044.5,-38432,-88705,-7109,4011
3046.5,-38625,-88607,-7370,3862
3048.5,-38859,-88790,-7454,3868
3050.5,-38985,-89101,-7373,3939
3052.5,-39034,-89060,-7331,3887
3054.5,-38973,-88732,-7323,3804
3056.5,-38855,-88741,-7337,3749
3058.5,-38749,-88973,-7415,3673
3060.5,-38605,-88763,-7422,3714
3062.5,-38594,-88449,-7253,3965
3064.5,-38920,-88765,-7146,4126
3066.5,-39120,-89156,-7296,3962
3068.5,-38675,-88786,-7430,3772
3070.5,-38147,-88258,-7265,3861
3072.5,-38255,-88391,-7085,3955
3074.5,-38563,-88722,-7270,3706
3076.5,-38500,-88667,-7562,3396
3078.5,-38489,-88544,-7484,3486
3080.5,-38821,-88644,-7203,3788
3082.5,-39002,-88827,-7212,3793
3084.5,-38905,-89124,-7444,3550
3086.5,-38936,-89519,-7513,3486
3088.5,-39009,-89682,-7500,3586
3090.5,-38837,-89609,-7694,3491
3092.5,-38694,-89639,-7948,3213
3094.5,-38809,-89699,-7981,3068
3096.5,-38891,-89537,-7878,3123
3098.5,-38776,-89368,-7803,3229
3100.5,-38659,-89463,-7733,3325
3102.5,-38665,-89683,-7733,3340
3104.5,-38796,-89873,-7922,3164
3106.5,-39035,-90052,-8140,2912
3108.5,-39224,-90176,-8176,2824
3110.5,-39215,-90182,-8163,2869
3112.5,-39050,-90063,-8252,2877
3114.5,-38815,-89762,-8271,2911
3116.5,-38580,-89388,-8100,3080
3118.5,-38516,-89333,-7945,3217
3120.5,-38710,-89691,-7960,3140
3122.5,-38936,-89994,-8015,2981
3124.5,-38951,-89943,-8001,2956
3126.5,-38869,-89832,-7999,3046
3128.5,-38932,-89922,-8061,3096
3130.5,-39029,-90001,-8124,3064
3132.5,-38894,-89892,-8121,3035
3134.5,-38691,-89801,-8037,3090
3136.5,-38807,-89859,-7934,3169
3138.5,-39045,-89848,-7963,3126
3140.5,-38874,-89701,-8170,2979
3142.5,-38458,-89746,-8345,2987
3144.5,-38433,-90114,-8281,3340
3146.5,-38706,-90408,-8041,3920
3148.5,-38644,-90299,-7769,4491
3150.5,-38307,-89945,-7405,4958
3152.5,-38234,-89510,-6798,5377
3154.5,-38230,-88828,-5939,5835
3156.5,-37722,-87907,-4923,6356
3158.5,-36961,-87131,-3785,6907
3160.5,-36552,-86558,-2530,7507
3162.5,-36346,-85665,-1317,8077
3164.5,-36011,-84266,-450,8213
3166.5,-35899,-82949,-56,7647
3168.5,-36345,-82210,67,6899
3170.5,-37045,-81976,30,6658
3172.5,-37755,-82319,-506,6614
3174.5,-38626,-83717,-2008,5791
3176.5,-39686,-86184,-4664,3776
3178.5,-40808,-88866,-8282,913
3180.5,-41897,-90887,-12052,-2124
3182.5,-42619,-92184,-14684,-4449
3184.5,-42674,-93209,-15602,-5496
3186.5,-42422,-94108,-15598,-5700
3188.5,-42383,-94670,-15590,-5818
3190.5,-42438,-94948,-15544,-5859
3192.5,-42266,-95185,-15222,-5511
3194.5,-41905,-95186,-14861,-4942
3196.5,-41410,-94692,-14542,-4395
3198.5,-40787,-94116,-13937,-3704
3200.5,-40329,-93836,-13020,-2779
3202.5,-40180,-93373,-12139,-1847
3204.5,-39921,-92422,-11393,-980
3206.5,-39363,-91641,-10616,-18
3208.5,-39007,-91372,-9815,995
3210.5,-39053,-90935,-9163,1791
3212.5,-38991,-90102,-8754,2231
3214.5,-38687,-89684,-8564,2428
3216.5,-38643,-89949,-8472,2574
3218.5,-38901,-90063,-8296,2798
3220.5,-38976,-89647,-7970,3108
3222.5,-38817,-89347,-7661,3383
3224.5,-38727,-89509,-7584,3457
3226.5,-38694,-89673,-7738,3283
3228.5,-38602,-89572,-7920,3042
3230.5,-38537,-89489,-7974,2967
3232.5,-38557,-89592,-7929,3096
3234.5,-38642,-89717,-7833,3315
3236.5,-38739,-89643,-7661,3552
3238.5,-38676,-89315,-7479,3742
3240.5,-38500,-89077,-7468,3755
3242.5,-38556,-89356,-7638,3577
3244.5,-38760,-89783,-7759,3425
3246.5,-38640,-89537,-7692,3463
3248.5,-38324,-88842,-7554,3565
3250.5,-38349,-88752,-7503,3532
3252.5,-38570,-89273,-7554,3405
3254.5,-38444,-89309,-7595,3402
3256.5,-38019,-88638,-7500,3618
3258.5,-37761,-88305,-7294,3891
3260.5,-37812,-88788,-7169,3995
3262.5,-37975,-89281,-7233,3901
3264.5,-38124,-89167,-7360,3773
3266.5,-38299,-88905,-7410,3712
3268.5,-38460,-89002,-7398,3671
3270.5,-38431,-89217,-7375,3619
3272.53,-38228,-89210,-7337,3634
3274.55,-38083,-89064,-7259,3771
3276.58,-38033,-88910,-7147,3952
3278.6,-37953,-88795,-7059,4035
3280.6,-37922,-88838,-7063,3983
3282.6,-38022,-88960,-7092,3928
3284.6,-38090,-88846,-7014,4010
3286.6,-38090,-88566,-6878,4169
3288.6,-38200,-88550,-6883,4213
3290.6,-38337,-88779,-7057,4083
3292.6,-38231,-88809,-7181,3950
3294.6,-37974,-88609,-7097,3985
3296.6,-37881,-88541,-6920,4117
3298.6,-37943,-88613,-6851,4162
3300.6,-37939,-88522,-6869,4140
3302.6,-37870,-88288,-6799,4230
3304.6,-37882,-88252,-6645,4416
3306.6,-37976,-88487,-6593,4491
3308.6,-38011,-88654,-6659,4444
3310.6,-37847,-88485,-6663,4454
3312.6,-37490,-88161,-6567,4529
3314.6,-37262,-88058,-6496,4544
3316.6,-37540,-88226,-6468,4537
3318.6,-38116,-88368,-6349,4648
3320.6,-38323,-88312,-6103,4845
3322.6,-37995,-88154,-5915,4964
3324.6,-37608,-87960,-5990,4925
3326.6,-37431,-87749,-6239,4809
3328.6,-37368,-87698,-6351,4756
3330.6,-37442,-87878,-6234,4801
3332.6,-37628,-88005,-6090,4874
3334.6,-37645,-87927,-6014,4963
3336.6,-37481,-87910,-5885,5131
3338.6,-37386,-88028,-5692,5342
3340.6,-37283,-87935,-5584,5463
3342.6,-37085,-87611,-5564,5483
3344.6,-37147,-87459,-5460,5554
3346.6,-37489,-87505,-5261,5732
3348.6,-37432,-87418,-5207,5834
3350.6,-36791,-87225,-5374,5735
3352.6,-36352,-87173,-5476,5632
3354.6,-36622,-87203,-5316,5709
3356.6,-37136,-87168,-5118,5802
3358.6,-37291,-87079,-5095,5753
3360.6,-37081,-86939,-5113,5713
3362.6,-36858,-86853,-5067,5786
3364.6,-36823,-87030,-5067,5854
3366.6,-36861,-87257,-5106,5895
3368.6,-36799,-87073,-5066,5979
3370.6,-36711,-86666,-5027,6003
3372.6,-36754,-86651,-5098,5878
3374.6,-36838,-86990,-5170,5754
3376.6,-36786,-87122,-5128,5765
3378.6,-36706,-86937,-5032,5862
3380.6,-36794,-86723,-4962,5971
3382.6,-36893,-86548,-4948,6031
3384.6,-36759,-86392,-5005,5982
3386.6,-36617,-86442,-5048,5922
3388.6,-36825,-86768,-4977,6012
3390.6,-37157,-87108,-4893,6138
3392.6,-37140,-87207,-4990,6045
3394.6,-36859,-87084,-5220,5784
3396.6,-36754,-86922,-5359,5634
3398.6,-36883,-86851,-5370,5633
3400.6,-37002,-86849,-5413,5600
3402.6,-37062,-86850,-5511,5530
3404.6,-37180,-86959,-5536,5544
3406.6,-37334,-87246,-5513,5580
3408.6,-37372,-87413,-5598,5516
3410.6,-37305,-87244,-5790,5402
3412.6,-37378,-87178,-5973,5289
3414.6,-37622,-87577,-6120,5131
3416.6,-37648,-87866,-6220,5012
3418.6,-37315,-87547,-6203,5080
3420.6,-37151,-87300,-6137,5207
3422.6,-37519,-87776,-6216,5145
3424.6,-37972,-88314,-6443,4919
3426.6,-38036,-88225,-6617,4738
3428.6,-37959,-88073,-6655,4649
3430.6,-38149,-88425,-6698,4559
3432.6,-38454,-88722,-6853,4434
3434.6,-38483,-88496,-7061,4296
3436.6,-38255,-88300,-7199,4177
3438.6,-38123,-88534,-7229,4115
3440.6,-38225,-88729,-7220,4108
3442.6,-38371,-88610,-7270,4109
3444.6,-38393,-88563,-7390,4113
3446.6,-38300,-88688,-7511,4141
3448.6,-38179,-88646,-7586,4139
3450.6,-38176,-88517,-7618,4047
3452.6,-38350,-88682,-7619,3915
3454.6,-38489,-89011,-7633,3805
3456.6,-38425,-89119,-7716,3683
3458.6,-38365,-89039,-7798,3582
3460.6,-38471,-88933,-7735,3641
3462.6,-38545,-88771,-7554,3838
3464.6,-38466,-88648,-7460,3933
3466.6,-38367,-88695,-7520,3843
3468.6,-38242,-88702,-7582,3782
3470.6,-38063,-88511,-7539,3880
3472.6,-38064,-88431,-7500,3967
3474.6,-38341,-88638,-7579,3886
3476.6,-38574,-88804,-7681,3757
3478.6,-38539,-88741,-7670,3739
3480.6,-38403,-88686,-7605,3781
3482.6,-38336,-88707,-7579,3827
3484.6,-38330,-88635,-7518,3946
3486.6,-38372,-88595,-7428,4048
3488.6,-38431,-88796,-7507,3891
3490.6,-38409,-88979,-7753,3539
3492.6,-38347,-88842,-7864,3352
3494.6,-38400,-88642,-7721,3451
3496.6,-38492,-88688,-7538,3660
3498.6,-38395,-88770,-7492,3874
3500.6,-38221,-88671,-7570,4018
3502.6,-38295,-88588,-7691,3982
3504.6,-38512,-88641,-7703,3871
3506.6,-38471,-88645,-7545,3894
3508.6,-38219,-88540,-7417,3960
3510.6,-38133,-88457,-7467,3923
3512.6,-38188,-88410,-7530,3925
3514.6,-38089,-88344,-7506,4019
3516.6,-37954,-88334,-7576,3947
3518.6,-38143,-88460,-7735,3693
3520.6,-38495,-88618,-7713,3590
3522.6,-38454,-88577,-7529,3686
3524.6,-38029,-88276,-7516,3680
3526.6,-37916,-88060,-7717,3515
3528.6,-38364,-88359,-7827,3453
3530.6,-38638,-89004,-7730,3609
3532.6,-38199,-89266,-7593,3836
3534.6,-37632,-88861,-7529,3951
3536.6,-37675,-88404,-7532,3873
3538.6,-38100,-88501,-7591,3667
3540.6,-38332,-88909,-7638,3524
3542.6,-38392,-89074,-7610,3549
3544.6,-38534,-88948,-7613,3625
3546.6,-38662,-88783,-7731,3633
3548.6,-38622,-88652,-7797,3660
3550.6,-38532,-88621,-7707,3763
3552.6,-38542,-88888,-7671,3785
3554.6,-38619,-89304,-7784,3664
3556.6,-38602,-89348,-7804,3591
3558.6,-38391,-88955,-7680,3619
3560.6,-38163,-88723,-7678,3568
3562.6,-38149,-88896,-7778,3463
3564.6,-38220,-88935,-7682,3529
3566.6,-38165,-88565,-7475,3689
3568.6,-38186,-88341,-7497,3650
3570.6,-38455,-88631,-7705,3442
3572.6,-38666,-88977,-7817,3339
3574.6,-38610,-88993,-7826,3401
3576.6,-38548,-88937,-7862,3499
3578.6,-38619,-88988,-7871,3575
3580.6,-38602,-88880,-7790,3616
3582.6,-38422,-88588,-7724,3592
3584.6,-38293,-88567,-7745,3547
3586.6,-38361,-88959,-7745,3598
3588.6,-38522,-89202,-7641,3749
3590.6,-38521,-88870,-7533,3850
3592.6,-38287,-88425,-7571,3788
3594.6,-38152,-88516,-7730,3630
3596.6,-38380,-88924,-7876,3486
3598.6,-38655,-89036,-7971,3362
3600.6,-38586,-88910,-8037,3268
3602.6,-38366,-88922,-7998,3299
3604.6,-38354,-88947,-7805,3458
3606.6,-38459,-88778,-7629,3574
3608.6,-38436,-88635,-7664,3533
3610.6,-38335,-88678,-7827,3441
3612.6,-38336,-88736,-7920,3426
3614.6,-38416,-88734,-7969,3425
3616.6,-38414,-88738,-8076,3315
3618.6,-38319,-88728,-8107,3196
3620.6,-38343,-88754,-7919,3262
3622.6,-38540,-88868,-7717,3410
3624.6,-38615,-88865,-7741,3382
3626.6,-38439,-88664,-7857,3267
3628.6,-38342,-88606,-7859,3351
3630.6,-38490,-88846,-7852,3549
3632.6,-38577,-89030,-7981,3548
3634.6,-38487,-88963,-8098,3384
3636.6,-38453,-88816,-8003,3360
3638.6,-38438,-88623,-7790,3495
3640.6,-38261,-88410,-7757,3500
3642.6,-38217,-88503,-7982,3302
3644.6,-38518,-88939,-8127,3211
3646.6,-38603,-89130,-7923,3406
3648.6,-38137,-88811,-7651,3590
3650.6,-37874,-88493,-7672,3525
3652.6,-38332,-88503,-7765,3486
3654.6,-38745,-88541,-7614,3697
3656.6,-38486,-88463,-7461,3865
3658.6,-38105,-88439,-7571,3786
3660.6,-38063,-88354,-7682,3731
3662.6,-38034,-88073,-7573,3836
3664.6,-37919,-87942,-7446,3875
3666.6,-37948,-88152,-7423,3820
3668.6,-37966,-88307,-7395,3853
3670.6,-37889,-88192,-7374,3932
3672.6,-38027,-88074,-7393,3975
3674.6,-38248,-88053,-7348,4066
3676.6,-38192,-88048,-7327,4114
3678.6,-38225,-88146,-7510,3940
3680.6,-38575,-88209,-7656,3775
3682.6,-38540,-87922,-7462,3918
3684.6,-37966,-87585,-7239,4099
3686.6,-37789,-87738,-7374,3966
3688.6,-38197,-88083,-7603,3759
3690.6,-38344,-88017,-7577,3795
3692.6,-38065,-87745,-7487,3882
3694.6,-37898,-87755,-7547,3793
3696.6,-37871,-87924,-7601,3654
3698.6,-37765,-87941,-7575,3575
3700.6,-37722,-87857,-7590,3511
3702.6,-37825,-87850,-7596,3542
3704.6,-37960,-87996,-7489,3742
3706.6,-38133,-88259,-7404,3909
3708.6,-38269,-88423,-7476,3842
3710.6,-38192,-88330,-7602,3629
3712.6,-38062,-88210,-7655,3440
3714.6,-38119,-88373,-7651,3333
3716.6,-38210,-88700,-7664,3308
3718.6,-38174,-88845,-7750,3337
3720.6,-38168,-88743,-7895,3351
3722.6,-38223,-88641,-8006,3311
3724.6,-38191,-88691,-8023,3254
3726.6,-38162,-88767,-7973,3246
3728.6,-38251,-88750,-7912,3300
3730.6,-38288,-88748,-7902,3333
3732.6,-38298,-88845,-7979,3244
3734.6,-38589,-88914,-8076,3101
3736.6,-38880,-88872,-8093,3091
3738.6,-38486,-88825,-8079,3217
3740.6,-37736,-88835,-8110,3311
3742.6,-37700,-88836,-8080,3352
3744.6,-38289,-88789,-7917,3428
3746.6,-38413,-88726,-7853,3418
3748.6,-38028,-88703,-8066,3197
3750.6,-38054,-88759,-8276,3027
3752.6,-38518,-88866,-8206,3151
3754.6,-38622,-88940,-8100,3267
3756.6,-38258,-88951,-8237,3065
3758.6,-38000,-88939,-8386,2825
3760.6,-38068,-88946,-8301,2854
3762.6,-38183,-89007,-8155,2980
3764.6,-38144,-89140,-8078,3072
3766.6,-38111,-89330,-7974,3290
3768.6,-38293,-89543,-7949,3579
3770.6,-38395,-89679,-8159,3737
3772.6,-37974,-89561,-8291,3962
3774.6,-37413,-89143,-7926,4548
3776.6,-37443,-88617,-7155,5305
3778.6,-37796,-88138,-6307,5907
3780.6,-37646,-87607,-5471,6347
3782.6,-37005,-86885,-4608,6716
3784.6,-36350,-86018,-3686,7060
3786.6,-35700,-85151,-2616,7536
3788.6,-35150,-84340,-1476,8073
3790.6,-35128,-83477,-584,8198
3792.6,-35493,-82451,-74,7749
3794.6,-35734,-81453,174,7245
3796.6,-36056,-80970,77,7056
3798.6,-36930,-81430,-674,6793
3800.6,-38114,-83049,-2334,5781
3802.6,-39324,-85723,-5142,3613
3804.6,-40785,-88681,-8969,466
3806.6,-42175,-90789,-12661,-2667
3808.6,-42562,-91770,-14786,-4641
3810.6,-42086,-92447,-15310,-5364
3812.6,-41919,-93374,-15397,-5618
3814.6,-42220,-94132,-15652,-5776
3816.6,-42088,-94314,-15748,-5629
3818.6,-41497,-94180,-15483,-5151
3820.6,-41183,-94007,-14987,-4494
3822.6,-41004,-93699,-14289,-3669
3824.6,-40427,-93270,-13469,-2803
3826.6,-39853,-92859,-12734,-2107
3828.6,-39698,-92271,-12008,-1413
3830.6,-39331,-91368,-11137,-481
3832.6,-38422,-90552,-10338,462
3834.6,-37830,-90090,-9771,1197
3836.6,-38057,-89705,-9213,1884
3838.6,-38408,-89371,-8682,2491
3840.6,-38350,-89339,-8464,2768
3842.6,-38172,-89278,-8368,2924
3844.6,-38040,-88812,-8079,3241
3846.6,-37768,-88443,-7928,3371
3848.6,-37526,-88562,-8157,3112
3850.6,-37745,-88671,-8244,3017
3852.6,-38329,-88552,-7940,3338
3854.6,-38663,-88632,-7789,3531
3856.6,-38442,-88864,-7974,3397
3858.6,-38041,-88890,-8017,3359
3860.6,-37905,-88885,-7808,3495
3862.6,-37938,-88918,-7673,3528
3864.6,-37841,-88603,-7638,3516
3866.6,-37732,-88182,-7559,3632
3868.6,-37886,-88326,-7504,3759
3870.6,-38159,-88731,-7506,3790
3872.63,-38216,-88660,-7503,3767
3874.65,-38043,-88370,-7556,3669
3876.68,-37837,-88410,-7663,3541
3878.7,-37720,-88504,-7674,3544
3880.7,-37754,-88350,-7608,3640
3882.7,-37887,-88288,-7595,3669
3884.7,-37925,-88401,-7527,3716
3886.7,-37824,-88317,-7302,3907
3888.7,-37734,-88102,-7135,4075
3890.7,-37668,-88127,-7181,4058
3892.7,-37600,-88278,-7260,3989
3894.7,-37752,-88317,-7240,3980
3896.7,-38162,-88408,-7240,3905
3898.7,-38356,-88592,-7335,3671
3900.7,-38048,-88555,-7444,3423
3902.7,-37633,-88270,-7470,3398
3904.7,-37509,-88035,-7337,3672
3906.7,-37582,-87920,-7079,4016
3908.7,-37658,-87872,-6932,4115
3910.7,-37678,-87964,-7030,4032
3912.7,-37594,-88084,-7159,4117
3914.7,-37526,-88015,-7129,4387
3916.7,-37677,-87944,-7071,4507
3918.7,-37812,-88088,-7058,4434
3920.7,-37572,-88132,-6928,4451
3922.7,-37255,-87845,-6705,4574
3924.7,-37332,-87614,-6598,4606
3926.7,-37533,-87674,-6572,4614
3928.7,-37438,-87678,-6499,4711
3930.7,-37295,-87498,-6538,4695
3932.7,-37364,-87507,-6750,4489
3934.7,-37386,-87812,-6827,4406
3936.7,-37281,-88027,-6684,4533
3938.7,-37303,-87912,-6644,4561
3940.7,-37366,-87667,-6733,4471
3942.7,-37238,-87537,-6630,4573
3944.7,-37108,-87468,-6395,4790
3946.7,-37182,-87327,-6367,4773
3948.7,-37310,-87263,-6467,4603
3950.7,-37369,-87453,-6393,4629
3952.7,-37339,-87630,-6223,4813
3954.7,-37128,-87459,-6209,4877
3956.7,-36895,-87168,-6251,4863
3958.7,-36975,-87110,-6118,4990
3960.7,-37244,-87187,-5896,5190
3962.7,-37297,-87255,-5816,5244
3964.7,-37101,-87336,-5804,5237
3966.7,-36807,-87206,-5635,5415
3968.7,-36547,-86757,-5415,5675
3970.7,-36651,-86516,-5439,5699
3972.7,-37061,-86734,-5604,5554
3974.7,-36975,-86793,-5540,5592
3976.7,-36248,-86489,-5277,5791
3978.7,-35943,-86484,-5172,5816
3980.7,-36369,-86789,-5245,5667
3982.7,-36493,-86617,-5203,5639
3984.7,-36109,-86077,-5048,5755
3986.7,-36174,-86042,-5016,5816
3988.7,-36668,-86437,-5071,5833
3990.7,-36649,-86526,-5035,5885
3992.7,-36226,-86359,-5019,5829
3994.7,-36176,-86373,-5166,5634
3996.7,-36372,-86385,-5242,5623
3998.7,-36363,-86162,-5051,5941
4000.7,-36347,-85983,-4861,6231
4002.7,-36458,-85999,-4917,6232
4004.7,-36419,-86047,-5005,6170
4006.7,-36338,-86208,-4933,6233
4008.7,-36495,-86477,-4875,6267
4010.7,-36542,-86350,-4908,6221
4012.7,-36138,-85747,-4874,6256
4014.7,-35763,-85461,-4836,6308
4016.7,-35910,-85851,-4984,6178
4018.7,-36291,-86257,-5160,5999
4020.7,-36479,-86251,-5153,5985
4022.7,-36489,-86178,-5173,5953
4024.7,-36455,-86270,-5394,5737
4026.7,-36438,-86404,-5507,5627
4028.7,-36474,-86546,-5338,5801
4030.7,-36493,-86656,-5251,5909
4032.7,-36483,-86605,-5450,5736
4034.7,-36624,-86495,-5617,5584
4036.7,-36865,-86510,-5591,5608
4038.7,-36895,-86586,-5664,5522
4040.7,-36796,-86683,-5974,5232
4042.7,-36933,-86909,-6268,5017
4044.7,-37248,-87169,-6356,5009
4046.7,-37428,-87243,-6323,5054
4048.7,-37411,-87121,-6298,5056
4050.7,-37268,-86962,-6327,5039
4052.7,-37173,-86997,-6402,4996
4054.7,-37426,-87393,-6509,4902
4056.7,-37863,-87855,-6650,4767
4058.7,-37875,-87875,-6819,4622
4060.7,-37490,-87623,-6940,4526
4062.7,-37393,-87670,-6949,4530
4064.7,-37699,-87924,-6898,4577
4066.7,-37866,-87919,-6898,4568
4068.7,-37745,-87775,-6987,4501
4070.7,-37712,-87836,-7141,4391
4072.7,-37948,-87970,-7333,4193
4074.7,-38202,-87980,-7477,3949
4076.7,-38131,-87973,-7475,3835
4078.7,-37750,-87993,-7386,3885
4080.7,-37533,-87976,-7352,3961
4082.7,-37779,-88012,-7336,4042
4084.7,-38087,-88095,-7252,4163
4086.7,-38032,-88032,-7261,4142
4088.7,-37913,-87951,-7476,3918
4090.7,-38100,-88186,-7622,3847
4092.7,-38254,-88493,-7502,4102
4094.7,-38038,-88362,-7365,4297
4096.7,-37838,-88026,-7392,4206
4098.7,-37972,-88054,-7401,4110
4100.7,-38046,-88262,-7340,4117
4102.7,-37817,-88206,-7386,4024
4104.7,-37725,-88136,-7484,3910
4106.7,-37966,-88315,-7465,3987
4108.7,-38089,-88342,-7412,4081
4110.7,-37914,-88061,-7407,3995
4112.7,-37801,-87965,-7313,3927
4114.7,-37846,-88135,-7191,3989
4116.7,-37789,-88110,-7335,3935
4118.7,-37660,-87943,-7675,3739
4120.7,-37718,-88072,-7781,3734
4122.7,-37925,-88373,-7564,3972
4124.7,-38001,-88383,-7352,4137
4126.7,-37823,-88098,-7310,4110
4128.7,-37557,-87883,-7319,4067
4130.7,-37473,-87924,-7307,4097
4132.7,-37620,-88092,-7300,4135
4134.7,-37768,-88191,-7343,4103
4136.7,-37802,-88212,-7472,3971
4138.7,-37835,-88200,-7587,3851
4140.7,-37796,-88022,-7493,3922
4142.7,-37500,-87667,-7263,4104
4144.7,-37178,-87501,-7192,4139
4146.7,-37278,-87734,-7280,4043
4148.7,-37753,-88065,-7283,4045
4150.7,-38112,-88240,-7219,4129
4152.7,-38106,-88347,-7281,4111
4154.7,-37947,-88404,-7405,4003
4156.7,-37914,-88306,-7440,3924
4158.7,-38018,-88165,-7433,3886
4160.7,-38095,-88170,-7471,3853
4162.7,-38059,-88251,-7535,3796
4164.7,-37923,-88251,-7625,3683
4166.7,-37755,-88208,-7720,3584
4168.7,-37698,-88245,-7711,3628
4170.7,-37773,-88305,-7572,3795
4172.7,-37763,-88206,-7415,3953
4174.7,-37612,-87996,-7318,4035
4176.7,-37593,-87957,-7299,4017
4178.7,-37761,-88099,-7397,3856
4180.7,-37828,-88107,-7583,3612
4182.7,-37778,-87938,-7728,3460
4184.7,-37876,-87879,-7775,3486
4186.7,-38060,-87961,-7762,3614
4188.7,-38070,-87997,-7683,3738
4190.7,-37985,-88086,-7547,3807
4192.7,-37961,-88362,-7475,3805
4194.7,-37890,-88529,-7504,3767
4196.7,-37814,-88371,-7517,3737
4198.7,-38019,-88265,-7527,3671
4200.7,-38368,-88483,-7657,3553
4202.7,-38311,-88580,-7792,3541
4204.7,-37812,-88198,-7698,3738
4206.7,-37457,-87786,-7475,3931
4208.7,-37519,-87771,-7422,3860
4210.7,-37690,-87830,-7577,3588
4212.7,-37754,-87703,-7755,3380
4214.7,-37794,-87752,-7805,3421
4216.7,-37802,-88122,-7671,3699
4218.7,-37745,-88387,-7445,3992
4220.7,-37828,-88406,-7329,4069
4222.7,-38153,-88454,-7376,3970
4224.7,-38374,-88496,-7470,3863
4226.7,-38213,-88339,-7585,3747
4228.7,-37978,-88230,-7713,3603
4230.7,-38031,-88379,-7736,3556
4232.7,-38135,-88444,-7642,3624
4234.7,-37935,-88187,-7602,3657
4236.7,-37679,-87984,-7649,3629
4238.7,-37747,-88166,-7658,3642
4240.7,-37935,-88477,-7612,3697
4242.7,-37904,-88546,-7574,3736
4244.7,-37794,-88400,-7539,3749
4246.7,-37784,-88266,-7545,3688
4248.7,-37756,-88209,-7684,3497
4250.7,-37794,-88163,-7861,3302
4252.7,-38134,-88150,-7818,3331
4254.7,-38463,-88246,-7538,3599
4256.7,-38292,-88398,-7363,3844
4258.7,-37910,-88458,-7534,3825
4260.7,-37872,-88380,-7830,3633
4262.7,-38005,-88286,-7872,3569
4264.7,-37945,-88306,-7672,3699
4266.7,-37871,-88382,-7573,3765
4268.7,-37870,-88330,-7681,3652
4270.7,-37661,-88142,-7722,3600
4272.7,-37428,-88036,-7556,3744
4274.7,-37666,-88095,-7454,3816
4276.7,-38132,-88160,-7626,3593
4278.7,-38203,-88175,-7847,3324
4280.7,-37935,-88227,-7831,3364
4282.7,-37750,-88258,-7675,3627
4284.7,-37726,-88176,-7643,3738
4286.7,-37803,-88116,-7737,3605
4288.7,-37932,-88178,-7755,3492
4290.7,-37932,-88235,-7673,3538
4292.7,-37813,-88306,-7668,3564
4294.7,-37858,-88516,-7764,3479
4296.7,-37992,-88587,-7754,3481
4298.7,-37847,-88193,-7589,3627
4300.7,-37534,-87729,-7513,3655
4302.7,-37467,-87762,-7655,3451
4304.7,-37637,-88079,-7833,3250
4306.7,-37802,-88243,-7879,3241
4308.7,-37914,-88394,-7800,3378
4310.7,-37927,-88625,-7654,3578
4312.7,-37784,-88508,-7549,3746
4314.7,-37670,-87988,-7598,3769
4316.7,-37691,-87645,-7689,3729
4318.7,-37567,-87652,-7584,3820
4320.7,-37223,-87601,-7350,3964
4322.7,-37129,-87500,-7299,3893
4324.7,-37519,-87737,-7471,3642
4326.7,-37934,-88105,-7574,3559
4328.7,-37973,-88019,-7442,3801
4330.7,-37854,-87527,-7221,4155
4332.7,-37890,-87202,-7099,4334
4334.7,-37995,-87275,-7125,4256
4336.7,-37976,-87524,-7238,4055
4338.7,-37872,-87710,-7316,3938
4340.7,-37781,-87713,-7305,3952
4342.7,-37686,-87563,-7316,3932
4344.7,-37578,-87464,-7431,3796
4346.7,-37530,-87506,-7500,3722
4348.7,-37558,-87483,-7389,3835
4350.7,-37587,-87282,-7272,3962
4352.7,-37606,-87185,-7328,3953
4354.7,-37655,-87411,-7381,3968
4356.7,-37673,-87663,-7223,4146
4358.7,-37598,-87534,-7062,4271
4360.7,-37535,-87165,-7182,4121
4362.7,-37548,-87043,-7400,3887
4364.7,-37466,-87219,-7375,3868
4366.7,-37280,-87308,-7221,3959
4368.7,-37318,-87277,-7258,3890
4370.7,-37601,-87497,-7407,3745
4372.7,-37617,-87879,-7379,3759
4374.7,-37239,-87865,-7211,3875
4376.7,-37059,-87469,-7140,3928
4378.7,-37380,-87372,-7201,3956
4380.7,-37765,-87783,-7301,3993
4382.7,-37884,-88173,-7416,3909
4384.7,-37877,-88214,-7537,3688
4386.7,-37825,-88099,-7643,3500
4388.7,-37661,-87953,-7736,3440
4390.7,-37490,-87731,-7756,3482
4392.7,-37410,-87564,-7637,3598
4394.7,-37364,-87637,-7502,3687
4396.7,-37444,-87909,-7538,3595
4398.7,-37789,-88247,-7706,3359
4400.7,-38164,-88565,-7819,3182
4402.7,-38176,-88738,-7820,3145
4404.7,-37828,-88633,-7777,3184
4406.7,-37480,-88277,-7723,3295
4408.7,-37400,-87924,-7654,3487
4410.7,-37532,-87869,-7583,3670
4412.7,-37632,-88081,-7545,3738
4414.7,-37602,-88223,-7590,3670
4416.7,-37550,-88198,-7713,3521
4418.7,-37507,-88275,-7821,3391
4420.7,-37466,-88490,-7855,3336
4422.7,-37636,-88572,-7879,3295
4424.7,-38043,-88533,-7922,3249
4426.7,-38181,-88545,-7896,3295
4428.7,-37783,-88416,-7806,3389
4430.7,-37389,-88055,-7782,3352
4432.7,-37458,-87997,-7842,3251
4434.7,-37664,-88554,-7901,3317
4436.7,-37595,-89104,-7959,3537
4438.7,-37424,-89051,-7958,3847
4440.7,-37391,-88650,-7664,4429
4442.7,-37242,-88213,-7010,5281
4444.7,-36698,-87539,-6262,5974
4446.7,-36145,-86709,-5595,6311
4448.7,-36139,-86279,-4841,6608
4450.7,-36311,-86168,-3822,7068
4452.7,-35780,-85594,-2649,7542
4454.7,-34730,-84388,-1589,7939
4456.7,-34246,-83163,-767,8251
4458.7,-34539,-82150,-102,8312
4460.7,-34876,-81135,385,8016
4462.7,-35183,-80395,385,7544
4464.7,-36032,-80589,-327,7035
4466.7,-37263,-81972,-1695,6240
4468.7,-38288,-84280,-3877,4666
4470.7,-39346,-86945,-7169,2096
4472.7,-40848,-89233,-10952,-940
4474.7,-42077,-90710,-13740,-3402
4476.7,-42133,-91576,-14853,-4686
4478.7,-41539,-92248,-15023,-5086
4480.7,-41360,-92883,-15067,-5157
4482.7,-41479,-93373,-15081,-5103
4484.7,-41179,-93529,-14977,-4911
4486.7,-40526,-93334,-14730,-4572
4488.7,-39974,-93045,-14193,-4017
4490.7,-39531,-92814,-13358,-3200
4492.7,-39114,-92434,-12532,-2297
4494.7,-38829,-91767,-11838,-1503
4496.7,-38577,-91026,-11059,-718
4498.7,-38172,-90355,-10184,219
4500.7,-37739,-89675,-9517,1151
4502.7,-37492,-89116,-9113,1833
4504.7,-37456,-88950,-8699,2356
4506.7,-37546,-88968,-8230,2868
4508.7,-37562,-88671,-7958,3215
4510.7,-37341,-88119,-7877,3320
4512.7,-37133,-87837,-7678,3466
4514.7,-37272,-87896,-7366,3752
4516.7,-37528,-87934,-7308,3841
4518.7,-37484,-87938,-7555,3622
4520.7,-37291,-88130,-7731,3457
4522.7,-37312,-88292,-7656,3543
4524.7,-37439,-88103,-7501,3680
4526.7,-37384,-87786,-7367,3744
4528.7,-37215,-87675,-7235,3794
4530.7,-37136,-87663,-7177,3804
4532.7,-37137,-87603,-7229,3763
4534.7,-37154,-87614,-7266,3796
4536.7,-37247,-87694,-7242,3921
4538.7,-37358,-87690,-7247,3983
4540.7,-37197,-87628,-7261,3950
4542.73,-36736,-87570,-7203,3918
4544.75,-36498,-87493,-7142,3899
4546.78,-36855,-87544,-7143,3887
4548.8,-37401,-87840,-7101,3951
4550.8,-37548,-88015,-6975,4077
4552.8,-37335,-87722,-6872,4179
4554.8,-37144,-87335,-6821,4266
4556.8,-37105,-87384,-6807,4312
4558.8,-37105,-87682,-6919,4192
4560.8,-37045,-87722,-7100,4010
4562.8,-36940,-87519,-7105,4040
4564.8,-36920,-87431,-6956,4198
4566.8,-37005,-87505,-6924,4159
4568.8,-36974,-87480,-6942,4033
4570.8,-36755,-87278,-6730,4170
4572.8,-36671,-87120,-6454,4427
4574.8,-36909,-87209,-6488,4419
4576.8,-37130,-87432,-6716,4250
4578.8,-36999,-87492,-6778,4266
4580.8,-36738,-87355,-6685,4428
4582.8,-36739,-87337,-6637,4509
4584.8,-36919,-87546,-6610,4537
4586.8,-36911,-87611,-6520,4612
4588.8,-36661,-87278,-6443,4661
4590.8,-36405,-86805,-6423,4639
4592.8,-36264,-86534,-6376,4645
4594.8,-36274,-86541,-6284,4724
4596.8,-36483,-86763,-6247,4796
4598.8,-36727,-87027,-6279,4817
4600.8,-36771,-87132,-6258,4849
4602.8,-36695,-87123,-6110,4945
4604.8,-36667,-87130,-5953,5044
4606.8,-36607,-87045,-5954,5029
4608.8,-36466,-86811,-6085,4906
4610.8,-36357,-86657,-6146,4842
4612.8,-36257,-86672,-6044,4942
4614.8,-36126,-86709,-5890,5111
4616.8,-36128,-86765,-5784,5226
4618.8,-36257,-86848,-5693,5302
4620.8,-36218,-86730,-5600,5375
4622.8,-35976,-86413,-5576,5393
4624.8,-35858,-86286,-5656,5309
4626.8,-35954,-86418,-5752,5205
4628.8,-35973,-86444,-5724,5224
4630.8,-35804,-86325,-5538,5368
4632.8,-35758,-86324,-5331,5478
4634.8,-35999,-86302,-5223,5502
4636.8,-36143,-85982,-5156,5608
4638.8,-35867,-85666,-5050,5837
4640.8,-35524,-85727,-4985,5968
4642.8,-35556,-85902,-5007,5909
4644.8,-35735,-85881,-5004,5834
4646.8,-35641,-85848,-4951,5810
4648.8,-35394,-85880,-4972,5764
4650.8,-35368,-85798,-5024,5793
4652.8,-35589,-85741,-4901,6040
4654.8,-35740,-85840,-4609,6370
4656.8,-35580,-85714,-4411,6517
4658.8,-35296,-85294,-4472,6424
4660.8,-35266,-85199,-4648,6256
4662.8,-35440,-85537,-4692,6206
4664.8,-35423,-85652,-4582,6285
4666.8,-35225,-85450,-4528,6320
4668.8,-35213,-85406,-4586,6259
4670.8,-35387,-85418,-4560,6278
4672.8,-35443,-85201,-4432,6391
4674.8,-35373,-85129,-4436,6365
4676.8,-35395,-85424,-4564,6194
4678.8,-35572,-85562,-4556,6142
4680.8,-35822,-85364,-4458,6221
4682.8,-35957,-85336,-4547,6204
4684.8,-35726,-85484,-4750,6125
4686.8,-35189,-85242,-4752,6214
4688.8,-34859,-84773,-4557,6442
4690.8,-35068,-84902,-4448,6554
4692.8,-35505,-85627,-4567,6437
4694.8,-35712,-85974,-4813,6201
4696.8,-35673,-85527,-4999,6028
4698.8,-35607,-85043,-5019,6018
4700.8,-35582,-85209,-4961,6084
4702.8,-35639,-85711,-5000,6066
4704.8,-35881,-85973,-5135,5954
4706.8,-36173,-86018,-5223,5876
4708.8,-36234,-86090,-5222,5867
4710.8,-36126,-86130,-5229,5850
4712.8,-36094,-86060,-5315,5780
4714.8,-36104,-86060,-5470,5665
4716.8,-36073,-86223,-5635,5519
4718.8,-36116,-86385,-5767,5375
4720.8,-36217,-86473,-5916,5223
4722.8,-36245,-86611,-6144,5012
4724.8,-36354,-86802,-6345,4820
4726.8,-36690,-86918,-6339,4824
4728.8,-36958,-86990,-6191,4981
4730.8,-36854,-87072,-6148,5040
4732.8,-36537,-86984,-6248,4939
4734.8,-36364,-86715,-6342,4837
4736.8,-36468,-86669,-6426,4745
4738.8,-36665,-86974,-6577,4593
4740.8,-36685,-87200,-6673,4505
4742.8,-36583,-87188,-6612,4580
4744.8,-36667,-87282,-6586,4623
4746.8,-36952,-87536,-6742,4502
4748.8,-37151,-87614,-6897,4394
4750.8,-37154,-87484,-6907,4409
4752.8,-37018,-87385,-6903,4409
4754.8,-36782,-87348,-6927,4357
4756.8,-36634,-87324,-6842,4385
4758.8,-36796,-87375,-6698,4458
4760.8,-37087,-87480,-6688,4445
4762.8,-37116,-87505,-6761,4398
4764.8,-36893,-87431,-6743,4422
4766.8,-36811,-87392,-6698,4440
4768.8,-37005,-87460,-6797,4327
4770.8,-37133,-87467,-6989,4128
4772.8,-36961,-87238,-7069,4021
4774.8,-36749,-87011,-6958,4123
4776.8,-36751,-87155,-6781,4348
4778.8,-36832,-87480,-6697,4480
4780.8,-36889,-87526,-6712,4455
4782.8,-36991,-87363,-6712,4425
4784.8,-37022,-87333,-6678,4458
4786.8,-36901,-87380,-6710,4433
4788.8,-36865,-87287,-6802,4313
4790.8,-36947,-87140,-6836,4215
4792.8,-36891,-87159,-6811,4167
4794.8,-36810,-87415,-6826,4134
4796.8,-36935,-87700,-6838,4207
4798.8,-36979,-87634,-6750,4430
4800.8,-36754,-87199,-6655,4583
4802.8,-36648,-86913,-6675,4512
4804.8,-36771,-87033,-6722,4394
4806.8,-36705,-87154,-6700,4382
4808.8,-36466,-87054,-6691,4386
4810.8,-36538,-87093,-6717,4372
4812.8,-36912,-87386,-6677,4426
4814.8,-37067,-87513,-6637,4451
4816.8,-36803,-87331,-6737,4317
4818.8,-36484,-87186,-6843,4196
4820.8,-36511,-87180,-6770,4269
4822.8,-36818,-87068,-6689,4344
4824.8,-36985,-86900,-6811,4229
4826.8,-36854,-86981,-6954,4120
4828.8,-36739,-87261,-6880,4211
4830.8,-36836,-87443,-6766,4304
4832.8,-36884,-87507,-6851,4187
4834.8,-36748,-87573,-6967,4046
4836.8,-36752,-87590,-6849,4133
4838.8,-37016,-87518,-6634,4314
4840.8,-37127,-87449,-6624,4309
4842.8,-36930,-87402,-6791,4156
4844.8,-36834,-87364,-6888,4090
4846.8,-36929,-87413,-6865,4146
4848.8,-36814,-87507,-6824,4220
4850.8,-36518,-87465,-6744,4336
4852.8,-36453,-87284,-6589,4506
4854.8,-36551,-87154,-6522,4552
4856.8,-36557,-87172,-6660,4375
4858.8,-36650,-87286,-6845,4162
4860.8,-36881,-87393,-6918,4069
4862.8,-36901,-87431,-6939,4019
4864.8,-36742,-87445,-6933,3988
4866.8,-36778,-87496,-6837,4058
4868.8,-36929,-87530,-6776,4118
4870.8,-36970,-87538,-6901,4011
4872.8,-37063,-87583,-7028,3908
4874.8,-37176,-87545,-6956,4006
4876.8,-36950,-87331,-6876,4107
4878.8,-36574,-87268,-6957,4030
4880.8,-36635,-87582,-6986,3985
4882.8,-37021,-87824,-6878,4087
4884.8,-37115,-87619,-6882,4093
4886.8,-36863,-87352,-7014,3964
4888.8,-36684,-87394,-6997,3968
4890.8,-36721,-87506,-6885,4079
4892.8,-36808,-87493,-6950,4028
4894.8,-36838,-87464,-7083,3884
4896.8,-36882,-87366,-7040,3886
4898.8,-37059,-87202,-6975,3934
4900.8,-37254,-87286,-7067,3869
4902.8,-37137,-87599,-7087,3870
4904.8,-36729,-87693,-6896,4055
4906.8,-36511,-87565,-6791,4160
4908.8,-36635,-87590,-6938,4021
4910.8,-36702,-87679,-7056,3881
4912.8,-36548,-87544,-6981,3924
4914.8,-36492,-87403,-6938,3974
4916.8,-36688,-87521,-7025,3905
4918.8,-36899,-87650,-7027,3878
4920.8,-36907,-87531,-6889,3988
4922.8,-36757,-87351,-6840,4065
4924.8,-36626,-87356,-6976,3964
4926.8,-36599,-87511,-7156,3742
4928.8,-36641,-87693,-7271,3512
4930.8,-36755,-87814,-7293,3385
4932.8,-36903,-87710,-7168,3486
4934.8,-36895,-87343,-6966,3776
4936.8,-36713,-87076,-6922,3999
4938.8,-36590,-87203,-7092,3993
4940.8,-36509,-87359,-7232,3885
4942.8,-36318,-87125,-7184,3831
4944.8,-36338,-86919,-7074,3825
4946.8,-36837,-87322,-7028,3853
4948.8,-37247,-87962,-7003,3948
4950.8,-37019,-88074,-6979,4029
4952.8,-36610,-87717,-7007,3975
4954.8,-36597,-87521,-7067,3841
4956.8,-36729,-87643,-7104,3765
4958.8,-36639,-87688,-7118,3762
4960.8,-36526,-87470,-7091,3782
4962.8,-36584,-87294,-7022,3808
4964.8,-36629,-87399,-6988,3840
4966.8,-36638,-87504,-6994,3901
4968.8,-36824,-87325,-6947,4000
4970.8,-37049,-87162,-6908,4017
4972.8,-36962,-87425,-7027,3859
4974.8,-36676,-87874,-7170,3705
4976.8,-36558,-87933,-7069,3799
4978.8,-36573,-87525,-6804,4041
4980.8,-36534,-87147,-6709,4122
4982.8,-36538,-87185,-6853,3976
4984.8,-36605,-87428,-7008,3827
4986.8,-36551,-87463,-7029,3820
4988.8,-36470,-87357,-6982,3871
4990.8,-36589,-87431,-6975,3864
4992.8,-36702,-87561,-7044,3796
4994.8,-36545,-87411,-7147,3722
4996.8,-36381,-87097,-7161,3712
4998.8,-36536,-86989,-7016,3823
5000.8,-36826,-87168,-6849,3968
5002.8,-36924,-87481,-6856,3972
5004.8,-36822,-87673,-6978,3876
5006.8,-36695,-87472,-6989,3911
5008.8,-36642,-87009,-6880,4081
5010.8,-36647,-86787,-6821,4159
5012.8,-36629,-86909,-6818,4123
5014.8,-36544,-86957,-6754,4164
5016.8,-36444,-86762,-6652,4286
5018.8,-36403,-86587,-6618,4322
5020.8,-36437,-86602,-6644,4257
5022.8,-36519,-86722,-6656,4227
5024.8,-36582,-86789,-6619,4291
5026.8,-36543,-86713,-6561,4389
5028.8,-36405,-86616,-6545,4421
5030.8,-36277,-86642,-6607,4338
5032.8,-36265,-86621,-6693,4189
5034.8,-36352,-86421,-6740,4077
5036.8,-36378,-86396,-6707,4080
5038.8,-36290,-86754,-6576,4202
5040.8,-36335,-87051,-6422,4339
5042.8,-36667,-86939,-6371,4382
5044.8,-36909,-86662,-6412,4366
5046.8,-36639,-86436,-6457,4376
5048.8,-36116,-86237,-6538,4367
5050.8,-35924,-86228,-6680,4290
5052.8,-36131,-86531,-6764,4216
5054.8,-36359,-86813,-6747,4139
5056.8,-36404,-86760,-6733,3955
5058.8,-36313,-86552,-6710,3765
5060.8,-36174,-86482,-6584,3839
5062.8,-36108,-86597,-6450,4167
5064.8,-36194,-86809,-6458,4436
5066.8,-36280,-86924,-6570,4439
5068.8,-36168,-86785,-6691,4249
5070.8,-36012,-86651,-6812,4023
5072.8,-36145,-86896,-6923,3846
5074.8,-36492,-87275,-6991,3737
5076.8,-36648,-87324,-7004,3717
5078.8,-36569,-87259,-6952,3808
5080.8,-36553,-87440,-6875,3918
5082.8,-36584,-87501,-6877,3889
5084.8,-36450,-87198,-6960,3744
5086.8,-36355,-87143,-7027,3645
5088.8,-36564,-87575,-7078,3623
5090.8,-36741,-87735,-7146,3618
5092.8,-36502,-87369,-7169,3648
5094.8,-36157,-87184,-7142,3682
5096.8,-36146,-87322,-7133,3659
5098.8,-36327,-87212,-7071,3700
5100.8,-36393,-86973,-6896,3902
5102.8,-36370,-87162,-6803,4022
5104.8,-36381,-87541,-6937,3863
5106.8,-36435,-87611,-7128,3635
5108.8,-36494,-87550,-7225,3545
5110.8,-36463,-87602,-7285,3491
5112.8,-36373,-87565,-7295,3437
5114.8,-36471,-87406,-7179,3511
5116.8,-36691,-87374,-7075,3627
5118.8,-36566,-87479,-7137,3613
5120.8,-36107,-87587,-7213,3619
5122.8,-35901,-87723,-7160,3838
5124.8,-36053,-87898,-7143,4106
5126.8,-36161,-88044,-7188,4326
5128.8,-36208,-88062,-6947,4775
5130.8,-36276,-87701,-6278,5506
5132.8,-36032,-86888,-5486,6127
5134.8,-35515,-86118,-4744,6502
5136.8,-35223,-85734,-3895,6907
5138.8,-34878,-85208,-2897,7398
5140.8,-33909,-84096,-1858,7843
5142.8,-33038,-82924,-817,8305
5144.8,-33244,-82138,119,8680
5146.8,-33877,-81304,757,8556
5148.8,-33951,-80272,1041,7987
5150.8,-34032,-79821,935,7550
5152.8,-34922,-80462,283,7355
5154.8,-36127,-81956,-1042,6805
5156.8,-37085,-84145,-3306,5266
5158.8,-38172,-86824,-6801,2558
5160.8,-39537,-89083,-10809,-725
5162.8,-40534,-90270,-13601,-3305
5164.8,-40812,-90983,-14429,-4413
5166.8,-40695,-91869,-14342,-4588
5168.8,-40421,-92503,-14362,-4654
5170.8,-39983,-92460,-14358,-4643
5172.8,-39535,-92241,-14105,-4350
5174.8,-39235,-92316,-13835,-3944
5176.8,-39017,-92407,-13516,-3505
5178.8,-38785,-92140,-12850,-2844
5180.8,-38439,-91502,-11969,-2016
5182.8,-37832,-90650,-11243,-1305
5184.8,-37134,-89878,-10645,-677
5186.8,-36749,-89396,-9920,164
5188.8,-36652,-89003,-9099,1202
5190.8,-36499,-88503,-8431,2077
5192.8,-36287,-88103,-8000,2613
5194.8,-36185,-87847,-7707,2956
5196.8,-36155,-87417,-7486,3218
5198.8,-36206,-86928,-7325,3362
5200.8,-36312,-86873,-7148,3455
5202.8,-36161,-87130,-6892,3654
5204.8,-35753,-87109,-6665,3918
5206.8,-35627,-86808,-6625,4045
5208.8,-35942,-86746,-6759,3970
5210.8,-36272,-87042,-6926,3803
5212.8,-36406,-87343,-6985,3703
5214.8,-36387,-87399,-6857,3770
5216.8,-36126,-87225,-6641,3927
5218.8,-35788,-86946,-6541,4004
5220.8,-35799,-86728,-6537,4058
5222.8,-36053,-86665,-6427,4258
5224.8,-36055,-86682,-6298,4438
5226.8,-35833,-86743,-6414,4330
5228.8,-35778,-86941,-6646,4112
5230.8,-35865,-87197,-6669,4102
5232.8,-35812,-87215,-6546,4195
5234.8,-35631,-86922,-6490,4201
5236.8,-35557,-86626,-6417,4242
5238.8,-35688,-86600,-6233,4394
5240.8,-35866,-86776,-6104,4482
5242.8,-35857,-86882,-6109,4456
5244.8,-35691,-86741,-6132,4446
5246.8,-35647,-86460,-6152,4460
5248.8,-35772,-86327,-6217,4433
5250.8,-35807,-86499,-6265,4408
5252.8,-35695,-86816,-6243,4413
5254.8,-35637,-86944,-6208,4392
5256.8,-35618,-86706,-6185,4357
5258.8,-35479,-86302,-6127,4394
5260.8,-35362,-86093,-6036,4504
5262.8,-35485,-86144,-5962,4597
5264.8,-35660,-86202,-5919,4607
5266.8,-35613,-86172,-5900,4553
5268.8,-35495,-86255,-5888,4514
5270.9,-35546,-86463,-5855,4567
5272.9,-35650,-86474,-5815,4683
5274.9,-35643,-86257,-5852,4736
5276.9,-35588,-86184,-5951,4703
5278.9,-35483,-86253,-5920,4736
5280.9,-35262,-86094,-5707,4886
5282.9,-35138,-85891,-5564,4961
5284.9,-35303,-86087,-5615,4903
5286.9,-35493,-86306,-5609,4948
5288.9,-35424,-85997,-5423,5152
5290.9,-35244,-85628,-5320,5220
5292.9,-35153,-85756,-5437,5057
5294.9,-35122,-85919,-5539,4923
5296.9,-35132,-85710,-5488,4947
5298.9,-35186,-85609,-5397,5021
5300.9,-35168,-85857,-5271,5158
5302.9,-35072,-86000,-5045,5394
5304.9,-35042,-85942,-4912,5510
5306.9,-35028,-85974,-5067,5350
5308.9,-34892,-85907,-5258,5194
5310.9,-34806,-85522,-5140,5325
5312.9,-34958,-85259,-4892,5509
5314.9,-35072,-85381,-4860,5436
5316.9,-34883,-85438,-4861,5349
5318.9,-34687,-85271,-4593,5584
5320.9,-34751,-85251,-4354,5892
5322.9,-34749,-85280,-4491,5918
5324.9,-34480,-85013,-4673,5873
5326.9,-34382,-84840,-4532,6027
5328.9,-34669,-85188,-4305,6182
5330.9,-34887,-85553,-4233,6173
5332.9,-34759,-85407,-4160,6172
5334.9,-34522,-85039,-4037,6239
5336.9,-34337,-84795,-3994,6274
5338.9,-34169,-84641,-3947,6338
5340.9,-34048,-84562,-3819,6458
5342.9,-33994,-84525,-3782,6458
5344.9,-34059,-84487,-3871,6329
5346.9,-34346,-84666,-3876,6294
5348.9,-34532,-84965,-3757,6409
5350.9,-34126,-84725,-3668,6531
5352.9,-33519,-84014,-3654,6579
5354.9,-33560,-83855,-3674,6540
5356.9,-34051,-84383,-3711,6431
5358.9,-34148,-84600,-3734,6341
5360.9,-33969,-84292,-3739,6334
5362.9,-34176,-84160,-3760,6397
5364.9,-34501,-84230,-3749,6538
5366.9,-34248,-84085,-3670,6705
5368.9,-33668,-84011,-3662,6710
5370.9,-33536,-84374,-3813,6502
5372.9,-33922,-84754,-3940,6325
5374.9,-34285,-84736,-3874,6370
5376.9,-34334,-84534,-3751,6516
5378.9,-34244,-84398,-3772,6557
5380.9,-34273,-84340,-3930,6459
5382.9,-34422,-84399,-4070,6339
5384.9,-34472,-84494,-4107,6303
5386.9,-34393,-84430,-4108,6300
5388.9,-34470,-84363,-4196,6189
5390.9,-34710,-84541,-4373,5989
5392.9,-34672,-84720,-4489,5886
5394.9,-34332,-84674,-4460,5959
5396.9,-34363,-84751,-4401,6066
5398.9,-34975,-85151,-4484,6037
5400.9,-35428,-85442,-4720,5861
5402.9,-35262,-85388,-4938,5685
5404.9,-34994,-85323,-5027,5611
5406.9,-35091,-85443,-5087,5565
5408.9,-35267,-85570,-5213,5465
5410.9,-35168,-85578,-5314,5393
5412.9,-34983,-85490,-5356,5378
5414.9,-35079,-85445,-5495,5258
5416.9,-35434,-85670,-5742,5012
5418.9,-35617,-86074,-5862,4871
5420.9,-35418,-86222,-5766,4926
5422.9,-35268,-86094,-5656,4995
5424.9,-35507,-86107,-5716,4930
5426.9,-35680,-86220,-5914,4774
5428.9,-35405,-86043,-6046,4697
5430.9,-35238,-85773,-5956,4821
5432.9,-35632,-85939,-5793,4996
5434.9,-36028,-86378,-5846,4936
5436.9,-35863,-86483,-6079,4687
5438.9,-35516,-86276,-6206,4551
5440.9,-35560,-86313,-6182,4551
5442.9,-35895,-86599,-6171,4481
5444.9,-36005,-86546,-6198,4356
5446.9,-35709,-86139,-6227,4331
5448.9,-35450,-86053,-6293,4398
5450.9,-35636,-86354,-6338,4491
5452.9,-35959,-86398,-6272,4583
5454.9,-35905,-86164,-6197,4594
5456.9,-35591,-86204,-6213,4513
5458.9,-35442,-86396,-6205,4497
5460.9,-35534,-86299,-6121,4584
5462.9,-35707,-86202,-6123,4594
5464.9,-35829,-86452,-6258,4476
5466.9,-35794,-86618,-6343,4410
5468.9,-35659,-86398,-6299,4444
5470.9,-35617,-86230,-6247,4445
5472.9,-35670,-86370,-6251,4394
5474.9,-35623,-86457,-6259,4385
5476.9,-35441,-86293,-6220,4417
5478.9,-35338,-86131,-6121,4451
5480.9,-35439,-86146,-6038,4478
5482.9,-35531,-86263,-6108,4442
5484.9,-35411,-86369,-6278,4349
5486.9,-35372,-86359,-6267,4376
5488.9,-35738,-86187,-6035,4556
5490.9,-36111,-86012,-5906,4618
5492.9,-35919,-86033,-6043,4448
5494.9,-35460,-86194,-6227,4292
5496.9,-35401,-86301,-6293,4302
5498.9,-35620,-86291,-6281,4370
5500.9,-35546,-86184,-6207,4446
5502.9,-35262,-86054,-6104,4531
5504.9,-35286,-86060,-6108,4519
5506.9,-35596,-86203,-6225,4381
5508.9,-35730,-86284,-6304,4258
5510.9,-35647,-86347,-6316,4227
5512.9,-35654,-86573,-6298,4288
5514.9,-35687,-86660,-6202,4456
5516.9,-35528,-86298,-6099,4584
5518.9,-35442,-86019,-6175,4457
5520.9,-35668,-86279,-6343,4228
5522.9,-35816,-86462,-6313,4248
5524.9,-35632,-86144,-6127,4461
5526.9,-35499,-86028,-6075,4520
5528.9,-35522,-86407,-6184,4389
5530.9,-35352,-86516,-6264,4283
5532.9,-35212,-86273,-6291,4241
5534.9,-35591,-86473,-6325,4194
5536.9,-36035,-86918,-6318,4179
5538.9,-35802,-86654,-6262,4205
5540.9,-35303,-85967,-6261,4182
5542.9,-35364,-85984,-6320,4107
5544.9,-35738,-86598,-6334,4090
5546.9,-35731,-86753,-6303,4149
5548.9,-35518,-86371,-6306,4202
5550.9,-35596,-86255,-6324,4211
5552.9,-35692,-86409,-6283,4219
5554.9,-35404,-86162,-6218,4247
5556.9,-35188,-85755,-6256,4247
5558.9,-35523,-86016,-6394,4192
5560.9,-35878,-86630,-6467,4158
5562.9,-35639,-86590,-6403,4187
5564.9,-35247,-86115,-6330,4194
5566.9,-35354,-86222,-6326,4135
5568.9,-35720,-86804,-6328,4082
5570.9,-35786,-86941,-6323,4053
5572.9,-35561,-86583,-6344,4024
5574.9,-35396,-86372,-6335,4055
5576.9,-35479,-86471,-6328,4118
5578.9,-35694,-86609,-6446,4054
5580.9,-35773,-86642,-6577,3919
5582.9,-35671,-86491,-6484,3956
5584.9,-35586,-86129,-6261,4119
5586.9,-35514,-85828,-6194,4153
5588.9,-35381,-85956,-6305,4063
5590.9,-35451,-86439,-6431,4031
5592.9,-35769,-86767,-6495,4065
5594.9,-35808,-86662,-6497,4074
5596.9,-35465,-86458,-6458,4057
5598.9,-35319,-86505,-6424,4054
5600.9,-35411,-86568,-6406,4066
5602.9,-35258,-86356,-6426,4035
5604.9,-35082,-86181,-6529,3929
5606.9,-35398,-86390,-6630,3847
5608.9,-35790,-86662,-6592,3890
5610.9,-35694,-86582,-6488,3965
5612.9,-35526,-86339,-6464,3964
5614.9,-35712,-86277,-6451,3976
5616.9,-35789,-86338,-6366,4079
5618.9,-35479,-86390,-6342,4113
5620.9,-35320,-86509,-6477,3965
5622.9,-35533,-86639,-6597,3820
5624.9,-35658,-86573,-6531,3878
5626.9,-35609,-86450,-6397,4018
5628.9,-35679,-86553,-6378,4014
5630.9,-35657,-86686,-6406,3901
5632.9,-35321,-86553,-6382,3812
5634.9,-35192,-86435,-6442,3706
5636.9,-35553,-86590,-6642,3601
5638.9,-35747,-86618,-6720,3697
5640.9,-35419,-86294,-6555,3964
5642.9,-35117,-86087,-6408,4088
5644.9,-35141,-86185,-6402,4013
5646.9,-35180,-86157,-6365,3983
5648.9,-35198,-85927,-6316,4018
5650.9,-35419,-85938,-6440,3949
5652.9,-35701,-86299,-6612,3864
5654.9,-35786,-86665,-6553,3955
5656.9,-35718,-86805,-6350,4128
5658.9,-35634,-86744,-6283,4169
5660.9,-35577,-86655,-6353,4095
5662.9,-35520,-86674,-6394,4027
5664.9,-35365,-86640,-6415,3967
5666.9,-35148,-86393,-6467,3899
5668.9,-35162,-86235,-6471,3888
5670.9,-35471,-86427,-6419,3930
5672.9,-35658,-86556,-6452,3918
5674.9,-35441,-86265,-6563,3860
5676.9,-35123,-85969,-6553,3893
5678.9,-35101,-86079,-6419,4011
5680.9,-35332,-86348,-6400,4027
5682.9,-35545,-86508,-6552,3891
5684.9,-35670,-86648,-6652,3783
5686.9,-35766,-86721,-6572,3822
5688.9,-35773,-86548,-6425,3914
5690.9,-35622,-86256,-6313,3971
5692.9,-35464,-86061,-6238,4038
5694.9,-35486,-85971,-6213,4141
5696.9,-35565,-85987,-6210,4242
5698.9,-35447,-86072,-6140,4336
5700.9,-35240,-86034,-6040,4397
5702.9,-35316,-85921,-6064,4349
5704.9,-35635,-85988,-6172,4253
5706.9,-35670,-86003,-6135,4311
5708.9,-35271,-85584,-5929,4539
5710.9,-35015,-85224,-5784,4709
5712.9,-35249,-85577,-5814,4688
5714.9,-35488,-86081,-5909,4579
5716.9,-35302,-85863,-5973,4495
5718.9,-35017,-85356,-6027,4432
5720.9,-35015,-85439,-6076,4368
5722.9,-35117,-85812,-6084,4313
5724.9,-35106,-85737,-6052,4279
5726.9,-35140,-85448,-6002,4289
5728.9,-35341,-85495,-5902,4385
5730.9,-35485,-85610,-5755,4543
5732.9,-35360,-85342,-5695,4628
5734.9,-35159,-85040,-5824,4540
5736.9,-35212,-85212,-6027,4373
5738.9,-35430,-85574,-6093,4310
5740.9,-35423,-85593,-6000,4377
5742.9,-35186,-85414,-5924,4416
5744.9,-35073,-85463,-5977,4325
5746.9,-35118,-85629,-6065,4189
5748.9,-35030,-85570,-6071,4118
5750.9,-34805,-85393,-6047,4101
5752.9,-34744,-85410,-6055,4141
5754.9,-34969,-85614,-6001,4316
5756.9,-35291,-85826,-5914,4495
5758.9,-35440,-86007,-6048,4353
5760.9,-35305,-86132,-6365,3977
5762.9,-35068,-86124,-6453,3851
5764.9,-35028,-86077,-6309,3983
5766.9,-35225,-86196,-6390,3902
5768.9,-35397,-86378,-6634,3665
5770.9,-35333,-86328,-6554,3747
5772.9,-35145,-86167,-6289,3990
5774.9,-35095,-86269,-6352,3916
5776.9,-35217,-86466,-6590,3715
5778.9,-35295,-86337,-6587,3749
5780.9,-35245,-86132,-6540,3758
5782.9,-35263,-86350,-6705,3515
5784.9,-35438,-86700,-6786,3372
5786.9,-35527,-86617,-6600,3520
5788.9,-35342,-86286,-6460,3663
5790.9,-35111,-86189,-6513,3670
5792.9,-35099,-86260,-6528,3688
5794.9,-35128,-86211,-6456,3696
5796.9,-34994,-86106,-6485,3595
5798.9,-35045,-86189,-6602,3503
5800.9,-35542,-86475,-6618,3557
5802.9,-35883,-86671,-6512,3700
5804.9,-35505,-86538,-6433,3797
5806.9,-34949,-86314,-6466,3761
5808.9,-34928,-86431,-6539,3661
5810.9,-35168,-86793,-6554,3741
5812.9,-35177,-86950,-6586,4057
5814.9,-35072,-86883,-6755,4347
5816.9,-34956,-86855,-6827,4602
5818.9,-34735,-86762,-6383,5175
5820.9,-34676,-86329,-5544,5938
5822.9,-34887,-85643,-4807,6336
5824.9,-34678,-84929,-4087,6532
5826.9,-33698,-84170,-2932,7147
5828.9,-32778,-83321,-1587,7950
5830.9,-32593,-82540,-645,8301
5832.9,-32696,-81912,0,8377
5834.9,-32671,-81242,729,8482
5836.9,-32840,-80381,1358,8238
5838.9,-33345,-79555,1592,7651
5840.9,-33844,-79220,1421,7391
5842.9,-34384,-79839,624,7315
5844.9,-35376,-81677,-1185,6452
5846.9,-36700,-84334,-4005,4526
5848.9,-37793,-86741,-7508,1961
5850.9,-38510,-88256,-11051,-871
5852.9,-39092,-89308,-13466,-3215
5854.9,-39503,-90381,-14030,-4136
5856.9,-39506,-91190,-13576,-3963
5858.9,-39216,-91471,-13417,-3946
5860.9,-38981,-91603,-13655,-4351
5862.9,-38816,-91857,-13667,-4483
5864.9,-38475,-91923,-13365,-4147
5866.9,-37934,-91494,-12899,-3566
5868.9,-37356,-90710,-12099,-2641
5870.9,-36808,-89944,-11044,-1485
5872.9,-36357,-89428,-10264,-710
5874.9,-36094,-89039,-9879,-411
5876.9,-35883,-88518,-9425,57
5878.9,-35558,-87924,-8693,971
5880.9,-35269,-87482,-7943,1932
5882.9,-35173,-87145,-7380,2654
5884.9,-35114,-86820,-7003,3163
5886.9,-34981,-86604,-6735,3496
5888.9,-34902,-86423,-6463,3707
5890.9,-34946,-86093,-6227,3861
5892.9,-35075,-85840,-6214,3899
5894.9,-35268,-85953,-6343,3859
5896.9,-35383,-86170,-6328,3922
5898.9,-35247,-86174,-6200,4066
5900.9,-34970,-86142,-6166,4121
5902.9,-34768,-86219,-6163,4113
5904.9,-34669,-86208,-6101,4090
5906.9,-34713,-86113,-6127,3956
5908.9,-35025,-86179,-6214,3810
5910.9,-35427,-86295,-6080,3935
5912.9,-35481,-86129,-5735,4291
5914.9,-35129,-85794,-5552,4504
5916.9,-34794,-85652,-5690,4405
5918.9,-34751,-85659,-5899,4218
5920.9,-34818,-85573,-5955,4204
5922.9,-34787,-85526,-5923,4338
5924.9,-34741,-85678,-5909,4443
5926.9,-34770,-85737,-5834,4495
5928.9,-34746,-85493,-5663,4575
5930.9,-34599,-85288,-5536,4650
5932.9,-34505,-85394,-5500,4686
5934.9,-34592,-85574,-5463,4733
5936.9,-34722,-85630,-5494,4723
5938.9,-34728,-85678,-5697,4537
5940.9,-34655,-85745,-5864,4340
5942.9,-34636,-85690,-5759,4394
5944.9,-34678,-85501,-5545,4589
5946.9,-34685,-85305,-5489,4639
5948.9,-34657,-85248,-5519,4581
5950.9,-34663,-85376,-5439,4629
5952.9,-34602,-85471,-5304,4744
5954.9,-34358,-85338,-5286,4733
5956.9,-34182,-85230,-5382,4605
5958.9,-34367,-85377,-5447,4535
5960.9,-34605,-85435,-5417,4589
5962.9,-34411,-85117,-5327,4716
5964.9,-34063,-84847,-5175,4903
5966.9,-34166,-85051,-4979,5096
5968.9,-34502,-85400,-4892,5122
5970.9,-34403,-85369,-5008,4939
5972.9,-34070,-85048,-5119,4815
5974.9,-34268,-84939,-4994,4992
5976.9,-34812,-85171,-4772,5305
5978.9,-34756,-85323,-4744,5420
5980.9,-34118,-85114,-4866,5327
5982.93,-33920,-84863,-4876,5278
5984.95,-34352,-84874,-4786,5322
5986.98,-34507,-84900,-4779,5312
5989.0,-34128,-84764,-4767,5303
5991.0,-33938,-84753,-4560,5451
5993.0,-34101,-84885,-4324,5603
5995.0,-34070,-84796,-4307,5572
5997.0,-33906,-84594,-4334,5600
5999.0,-34023,-84697,-4182,5880
6001.0,-34058,-84880,-4078,6059
6003.0,-33599,-84688,-4204,5883
6005.0,-33257,-84361,-4270,5737
6007.0,-33543,-84302,-4094,5886
6009.0,-33875,-84308,-3961,6000
6011.0,-33782,-84144,-3959,5946
6013.0,-33643,-84028,-3783,6076
6015.0,-33650,-84069,-3479,6387
6017.0,-33561,-84084,-3480,6412
6019.0,-33504,-84079,-3747,6141
6021.0,-33653,-84161,-3795,6047
6023.0,-33632,-84175,-3592,6192
6025.0,-33280,-83980,-3502,6251
6027.0,-33043,-83735,-3481,6273
6029.0,-33066,-83589,-3222,6561
6031.0,-33033,-83510,-2901,6942
6033.0,-32932,-83506,-2936,6975
6035.0,-32945,-83569,-3214,6718
6037.0,-32967,-83535,-3284,6609
6039.0,-32967,-83393,-3126,6714
6041.0,-33134,-83385,-3082,6735
6043.0,-33319,-83526,-3191,6630
6045.0,-33211,-83504,-3206,6634
6047.0,-32995,-83293,-3108,6733
6049.0,-32995,-83224,-3099,6679
6051.0,-33067,-83365,-3185,6480
6053.0,-33043,-83475,-3199,6397
6055.0,-33095,-83484,-3105,6547
6057.0,-33200,-83428,-3002,6797
6059.0,-33114,-83257,-2973,6952
6061.0,-33047,-83126,-3050,6898
6063.0,-33339,-83286,-3196,6686
6065.0,-33618,-83519,-3315,6494
6067.0,-33363,-83418,-3346,6452
6069.0,-32947,-83160,-3297,6528
6071.0,-33018,-83205,-3261,6573
6073.0,-33388,-83444,-3376,6450
6075.0,-33523,-83447,-3601,6240
6077.0,-33492,-83262,-3709,6195
6079.0,-33607,-83289,-3699,6312
6081.0,-33745,-83548,-3831,6307
6083.0,-33679,-83707,-4072,6147
6085.0,-33616,-83753,-4149,6051
6087.0,-33857,-83977,-4137,5986
6089.0,-34197,-84261,-4231,5836
6091.0,-34164,-84210,-4236,5826
6093.0,-33828,-83996,-4063,6035
6095.0,-33750,-84113,-4127,6032
6097.0,-34038,-84471,-4532,5663
6099.0,-34220,-84694,-4757,5421
6101.0,-34182,-84817,-4672,5477
6103.0,-34277,-84852,-4775,5394
6105.0,-34439,-84544,-5128,5115
6107.0,-34297,-84172,-5224,5103
6109.0,-34091,-84404,-5008,5378
6111.0,-34307,-85033,-4928,5484
6113.0,-34644,-85223,-5065,5355
6115.0,-34558,-84979,-5155,5246
6117.0,-34327,-84991,-5204,5129
6119.0,-34459,-85276,-5332,4911
6121.0,-34714,-85298,-5385,4817
6123.0,-34726,-85136,-5286,4950
6125.0,-34765,-85313,-5321,4995
6127.0,-35016,-85707,-5615,4773
6129.0,-35087,-85739,-5816,4600
6131.0,-34846,-85439,-5664,4736
6133.0,-34747,-85338,-5444,4944
6135.0,-34944,-85465,-5490,4907
6137.0,-35020,-85406,-5666,4723
6139.0,-34803,-85200,-5707,4650
6141.0,-34628,-85238,-5697,4647
6143.0,-34694,-85484,-5800,4565
6145.0,-34809,-85582,-5851,4516
6147.0,-34842,-85508,-5694,4650
6149.0,-34905,-85470,-5551,4800
6151.0,-35014,-85470,-5628,4774
6153.0,-34993,-85406,-5726,4713
6155.0,-34828,-85325,-5663,4770
6157.0,-34714,-85317,-5637,4768
6159.0,-34697,-85383,-5796,4583
6161.0,-34674,-85510,-5895,4458
6163.0,-34682,-85623,-5739,4581
6165.0,-34778,-85559,-5553,4720
6167.0,-34856,-85344,-5578,4644
6169.0,-34849,-85270,-5667,4533
6171.0,-34787,-85395,-5615,4606
6173.0,-34662,-85408,-5542,4714
6175.0,-34555,-85223,-5618,4669
6177.0,-34611,-85144,-5718,4615
6179.0,-34707,-85250,-5674,4698
6181.0,-34705,-85315,-5598,4744
6183.0,-34784,-85297,-5635,4611
6185.0,-34951,-85297,-5689,4482
6187.0,-34860,-85280,-5661,4494
6189.0,-34581,-85259,-5660,4485
6191.0,-34536,-85305,-5757,4329
6193.0,-34639,-85306,-5817,4207
6195.0,-34615,-85205,-5735,4309
6197.0,-34694,-85216,-5622,4549
6199.0,-34953,-85396,-5605,4712
6201.0,-34943,-85490,-5651,4728
6203.0,-34657,-85403,-5684,4662
6205.0,-34608,-85303,-5716,4569
6207.0,-34777,-85294,-5753,4495
6209.0,-34753,-85339,-5751,4488
6211.0,-34626,-85320,-5741,4505
6213.0,-34660,-85141,-5774,4483
6215.0,-34700,-85004,-5749,4485
6217.0,-34612,-85214,-5608,4567
6219.0,-34599,-85563,-5554,4587
6221.0,-34740,-85607,-5718,4450
6223.0,-34861,-85475,-5878,4322
6225.0,-34878,-85569,-5839,4341
6227.0,-34843,-85699,-5736,4411
6229.0,-34817,-85476,-5716,4425
6231.0,-34873,-85142,-5720,4392
6233.0,-34940,-85138,-5695,4329
6235.0,-34807,-85328,-5705,4260
6237.0,-34560,-85375,-5814,4212
6239.0,-34588,-85330,-5970,4183
6241.0,-34864,-85367,-6019,4210
6243.0,-34923,-85463,-5881,4352
6245.0,-34694,-85552,-5695,4517
6247.0,-34539,-85550,-5613,4564
6249.0,-34520,-85393,-5613,4521
6251.0,-34514,-85328,-5673,4466
6253.0,-34649,-85604,-5817,4386
6255.0,-34884,-85857,-5908,4329
6257.0,-34897,-85678,-5805,4376
6259.0,-34792,-85433,-5684,4422
6261.0,-34907,-85530,-5769,4339
6263.0,-34967,-85595,-5935,4244
6265.0,-34677,-85360,-5970,4273
6267.0,-34494,-85260,-5935,4316
6269.0,-34689,-85445,-5952,4253
6271.0,-34789,-85490,-5949,4204
6273.0,-34716,-85377,-5831,4306
6275.0,-34943,-85473,-5683,4472
6277.0,-35213,-85646,-5646,4518
6279.0,-34863,-85539,-5709,4437
6281.0,-34245,-85303,-5786,4342
6283.0,-34193,-85261,-5909,4235
6285.0,-34620,-85393,-6115,4074
6287.0,-34886,-85521,-6252,3990
6289.0,-34814,-85514,-6170,4110
6291.0,-34646,-85342,-5973,4295
6293.0,-34598,-85231,-5848,4346
6295.0,-34698,-85434,-5833,4287
6297.0,-34798,-85739,-5892,4215
6299.0,-34789,-85739,-5978,4144
6301.0,-34761,-85487,-5989,4105
6303.0,-34769,-85383,-5894,4142
6305.0,-34753,-85549,-5811,4191
6307.0,-34739,-85744,-5847,4158
6309.0,-34774,-85775,-5965,4069
6311.0,-34812,-85673,-6067,4035
6313.0,-34832,-85532,-6063,4112
6315.0,-34847,-85380,-5968,4229
6317.0,-34821,-85237,-5931,4244
6319.0,-34784,-85162,-6035,4124
6321.0,-34776,-85202,-6153,3999
6323.0,-34668,-85310,-6145,3977
6325.0,-34427,-85368,-6063,4001
6327.0,-34351,-85326,-5998,4010
6329.0,-34602,-85312,-5939,4045
6331.0,-34903,-85473,-5894,4131
6333.0,-34985,-85706,-5905,4220
6335.0,-34902,-85757,-5915,4298
6337.0,-34782,-85598,-5871,4357
6339.0,-34686,-85459,-5907,4291
6341.0,-34703,-85521,-6076,4081
6343.0,-34842,-85720,-6157,3932
6345.0,-34957,-85835,-6044,3960
6347.0,-34959,-85719,-5972,3996
6349.0,-34889,-85480,-6060,3933
6351.0,-34762,-85338,-6095,3910
6353.0,-34584,-85268,-5969,3994
6355.0,-34444,-85094,-5853,4077
6357.0,-34383,-84953,-5862,4099
6359.0,-34369,-85179,-5950,4090
6361.0,-34450,-85626,-6030,4087
6363.0,-34591,-85700,-6011,4150
6365.0,-34582,-85306,-5921,4248
6367.0,-34546,-85075,-5932,4237
6369.0,-34894,-85324,-6036,4150
6371.0,-35333,-85526,-5988,4219
6373.0,-35050,-85240,-5783,4413
6375.0,-34302,-84868,-5704,4454
6377.0,-34215,-84935,-5782,4344
6379.0,-34800,-85248,-5774,4339
6381.0,-35029,-85333,-5669,4448
6383.0,-34782,-85178,-5665,4465
6385.0,-34762,-85047,-5766,4365
6387.0,-34874,-84922,-5806,4312
6389.0,-34590,-84604,-5721,4418
6391.0,-34244,-84259,-5578,4638
6393.0,-34368,-84350,-5489,4797
6395.0,-34629,-84876,-5512,4776
6397.0,-34593,-85174,-5559,4702
6399.0,-34474,-84871,-5527,4725
6401.0,-34467,-84499,-5494,4729
6403.0,-34405,-84576,-5553,4592
6405.0,-34370,-84771,-5594,4482
6407.0,-34603,-84725,-5534,4539
6409.0,-34917,-84783,-5498,4601
6411.0,-34940,-85055,-5532,4569
6413.0,-34687,-84890,-5512,4584
6415.0,-34446,-84182,-5464,4645
6417.0,-34410,-83825,-5510,4618
6419.0,-34558,-84126,-5546,4593
6421.0,-34692,-84354,-5483,4663
6423.0,-34637,-84281,-5512,4629
6425.0,-34432,-84410,-5669,4438
6427.0,-34225,-84660,-5667,4392
6429.0,-34091,-84567,-5458,4559
6431.0,-34043,-84374,-5338,4643
6433.0,-34114,-84495,-5391,4550
6435.0,-34331,-84700,-5467,4427
6437.0,-34595,-84797,-5584,4281
6439.0,-34711,-85024,-5777,4137
6441.0,-34675,-85324,-5872,4172
6443.0,-34717,-85343,-5826,4312
6445.0,-34850,-85195,-5869,4226
6447.0,-34800,-85243,-6056,3903
6449.0,-34560,-85435,-6134,3716
6451.0,-34468,-85553,-6012,3827
6453.0,-34604,-85620,-5917,4001
6455.0,-34726,-85635,-5952,4068
6457.0,-34747,-85497,-5935,4117
6459.0,-34765,-85333,-5860,4149
6461.0,-34765,-85360,-5989,3976
6463.0,-34674,-85469,-6293,3680
6465.0,-34548,-85452,-6355,3665
6467.0,-34486,-85400,-6102,3963
6469.0,-34524,-85452,-5943,4112
6471.0,-34631,-85530,-6004,3961
6473.0,-34698,-85547,-5981,3889
6475.0,-34603,-85511,-5845,4029
6477.0,-34435,-85427,-5879,4095
6479.0,-34465,-85413,-6046,4011
6481.0,-34699,-85600,-6111,3942
6483.0,-34786,-85793,-6154,3859
6485.0,-34629,-85732,-6299,3718
6487.0,-34580,-85559,-6333,3714
6489.0,-34738,-85491,-6150,3869
6491.0,-34761,-85487,-6030,3920
6493.0,-34564,-85626,-6117,3861
6495.0,-34448,-86038,-6215,3965
6497.0,-34516,-86393,-6260,4226
6499.0,-34603,-86287,-6313,4486
6501.0,-34581,-85865,-6160,4908
6503.0,-34396,-85432,-5574,5629
6505.0,-34123,-85000,-4762,6338
6507.0,-33866,-84510,-3994,6792
6509.0,-33404,-83881,-3148,7213
6511.0,-32558,-82974,-2044,7787
6513.0,-31846,-81969,-838,8356
6515.0,-31799,-81202,184,8730
6517.0,-31973,-80463,942,8792
6519.0,-31774,-79318,1579,8499
6521.0,-31641,-78049,2173,8071
6523.0,-32268,-77396,2392,7740
6525.0,-33423,-77681,1752,7279
6527.0,-34481,-78885,203,6306
6529.0,-35449,-81028,-2097,4682
6531.0,-36641,-83806,-5314,2285
6533.0,-37810,-86398,-9203,-756
6535.0,-38381,-88179,-12407,-3474
6537.0,-38362,-89233,-13778,-4834
6539.0,-38332,-89941,-13837,-5036
6541.0,-38495,-90483,-13780,-5014
6543.0,-38494,-90907,-13886,-5061
6545.0,-38199,-91248,-13803,-4898
6547.0,-37868,-91393,-13450,-4471
6549.0,-37502,-91108,-12899,-3898
6551.0,-36952,-90407,-12125,-3163
6553.0,-36458,-89676,-11267,-2324
6555.0,-36205,-89163,-10541,-1544
6557.0,-35804,-88594,-9858,-743
6559.0,-35055,-87725,-9011,294
6561.0,-34529,-86920,-8140,1443
6563.0,-34608,-86581,-7519,2344
6565.0,-34779,-86410,-7089,2937
6567.0,-34563,-85974,-6655,3419
6569.0,-34281,-85507,-6319,3777
6571.0,-34396,-85424,-6221,3886
6573.0,-34775,-85562,-6136,3921
6575.0,-34982,-85530,-5853,4121
6577.0,-34838,-85350,-5609,4346
6579.0,-34506,-85245,-5666,4360
6581.0,-34259,-85248,-5832,4270
6583.0,-34204,-85277,-5852,4255
6585.0,-34209,-85290,-5837,4215
6587.0,-34195,-85262,-5920,4068
6589.0,-34304,-85246,-5925,4012
6591.0,-34564,-85329,-5759,4142
6593.0,-34670,-85394,-5651,4235
6595.0,-34455,-85253,-5681,4207
6597.0,-34259,-85053,-5614,4282
6599.0,-34382,-85062,-5476,4448
6601.0,-34533,-85156,-5579,4422
6603.0,-34358,-85100,-5810,4289
6605.0,-34114,-85058,-5761,4385
6607.0,-34200,-85219,-5559,4555
6609.0,-34403,-85308,-5578,4480
6611.0,-34284,-85057,-5557,4461
6613.0,-33934,-84662,-5155,4822
6615.0,-33770,-84388,-4837,5103
6617.0,-33893,-84270,-5087,4864
6619.0,-34087,-84350,-5469,4520
6621.0,-34208,-84678,-5454,4515
6623.0,-34278,-85044,-5286,4592
6625.0,-34316,-85161,-5310,4510
6627.0,-34291,-85031,-5380,4473
6629.0,-34228,-84858,-5352,4571
6631.0,-34173,-84731,-5303,4658
6633.0,-34035,-84637,-5198,4763
6635.0,-33797,-84633,-4993,4950
6637.0,-33752,-84769,-4870,5059
6639.0,-34055,-84880,-4940,5026
6641.0,-34298,-84762,-5051,5004
6643.0,-34130,-84508,-5081,5018
6645.0,-33832,-84398,-5058,4983
6647.0,-33765,-84519,-5025,4941
6649.0,-33835,-84695,-5022,4933
6651.0,-33875,-84644,-5080,4884
6653.0,-33952,-84248,-5103,4841
6655.0,-34063,-83845,-4983,4956
6657.0,-33993,-83941,-4800,5174
6659.0,-33688,-84448,-4678,5310
6661.0,-33506,-84799,-4594,5372
6663.0,-33762,-84819,-4507,5449
6665.0,-34143,-84749,-4490,5455
6667.0,-34110,-84618,-4563,5291
6669.0,-33753,-84326,-4587,5108
6671.0,-33506,-84002,-4456,5149
6673.0,-33402,-83792,-4264,5416
6675.0,-33332,-83734,-4159,5693
6677.0,-33423,-83846,-4160,5827
6679.0,-33600,-83949,-4187,5847
6681.1,-33556,-83841,-4199,5814
6683.1,-33345,-83732,-4179,5769
6685.1,-33172,-83808,-4075,5801
6687.1,-32985,-83742,-3911,5949
6689.1,-32888,-83473,-3801,6087
6691.1,-33126,-83522,-3734,6135
6693.1,-33390,-83837,-3599,6191
6695.1,-33213,-83727,-3464,6284
6697.1,-32895,-83303,-3471,6314
6699.1,-32926,-83292,-3513,6311
6701.1,-33097,-83546,-3443,6369
6703.1,-33087,-83468,-3385,6407
6705.1,-33045,-83259,-3418,6377
6707.1,-32993,-83242,-3341,6455
6709.1,-32692,-83071,-3118,6665
6711.1,-32318,-82677,-3045,6730
6713.1,-32327,-82634,-3161,6591
6715.1,-32652,-82954,-3106,6569
6717.1,-32875,-83001,-2815,6768
6719.1,-32903,-82770,-2690,6878
6721.1,-32834,-82762,-2844,6815
6723.1,-32590,-82816,-2887,6874
6725.1,-32248,-82537,-2721,7057
6727.1,-32224,-82333,-2731,6985
6729.1,-32581,-82634,-2945,6706
6731.1,-32750,-82895,-2910,6711
6733.1,-32476,-82650,-2610,7000
6735.1,-32300,-82457,-2546,7064
6737.1,-32571,-82723,-2785,6830
6739.1,-32839,-82895,-2899,6715
6741.1,-32740,-82663,-2815,6813
6743.1,-32605,-82539,-2853,6868
6745.1,-32756,-82729,-3028,6851
6747.1,-32956,-82782,-3062,6913
6749.1,-32862,-82540,-2969,6977
6751.1,-32585,-82394,-3014,6878
6753.1,-32601,-82603,-3159,6745
6755.1,-33087,-82937,-3127,6808
6757.1,-33491,-82972,-3002,6942
6759.1,-33247,-82662,-3146,6823
6761.1,-32716,-82501,-3479,6524
6763.1,-32628,-82799,-3570,6409
6765.1,-32932,-83147,-3474,6452
6767.1,-33132,-83174,-3628,6329
6769.1,-33230,-83176,-3970,6087
6771.1,-33465,-83420,-4102,6011
6773.1,-33688,-83592,-4090,6012
6775.1,-33658,-83466,-4236,5849
6777.1,-33478,-83339,-4397,5658
6779.1,-33419,-83458,-4347,5627
6781.1,-33573,-83627,-4321,5572
6783.1,-33803,-83664,-4548,5352
6785.1,-33908,-83758,-4748,5237
6787.1,-33877,-84070,-4673,5413
6789.1,-33879,-84345,-4583,5581
6791.1,-34002,-84330,-4753,5438
6793.1,-34150,-84274,-5014,5155
6795.1,-34173,-84463,-5112,5052
6797.1,-34052,-84620,-5088,5137
6799.1,-34003,-84434,-5057,5227
6801.1,-34206,-84235,-5015,5237
6803.1,-34421,-84424,-5037,5128
6805.1,-34297,-84763,-5241,4868
6807.1,-34062,-84887,-5508,4580
6809.1,-34204,-84882,-5601,4463
6811.1,-34544,-84853,-5541,4515
6813.1,-34517,-84655,-5507,4583
6815.1,-34209,-84389,-5494,4631
6817.1,-34147,-84406,-5428,4696
6819.1,-34304,-84655,-5402,4720
6821.1,-34320,-84779,-5477,4656
6823.1,-34342,-84754,-5531,4608
6825.1,-34603,-84748,-5510,4624
6827.1,-34692,-84688,-5526,4601
6829.1,-34268,-84536,-5584,4518
6831.1,-33855,-84528,-5559,4512
6833.1,-33994,-84739,-5468,4604
6835.1,-34346,-84928,-5453,4638
6837.1,-34394,-84991,-5523,4572
6839.1,-34269,-85042,-5547,4548
6841.1,-34293,-85091,-5484,4623
6843.1,-34397,-85070,-5442,4659
6845.1,-34375,-85018,-5501,4559
6847.1,-34219,-84965,-5570,4460
6849.1,-34068,-84850,-5523,4517
6851.1,-34042,-84667,-5429,4643
6853.1,-34134,-84481,-5401,4690
6855.1,-34197,-84315,-5383,4691
6857.1,-34118,-84243,-5353,4670
6859.1,-33993,-84402,-5445,4549
6861.1,-34048,-84687,-5574,4460
6863.1,-34354,-84749,-5482,4620
6865.1,-34666,-84549,-5325,4795
6867.1,-34660,-84472,-5469,4629
6869.1,-34360,-84652,-5710,4375
6871.1,-34102,-84761,-5612,4451
6873.1,-34037,-84661,-5363,4622
6875.1,-34051,-84614,-5388,4519
6877.1,-34126,-84741,-5527,4385
6879.1,-34248,-84809,-5464,4528
6881.1,-34187,-84654,-5383,4681
6883.1,-34002,-84501,-5524,4554
6885.1,-34164,-84648,-5672,4356
6887.1,-34578,-84901,-5620,4339
6889.1,-34517,-84767,-5542,4397
6891.1,-34014,-84340,-5558,4409
6893.1,-33875,-84233,-5536,4460
6895.1,-34131,-84508,-5475,4565
6897.1,-34136,-84646,-5520,4581
6899.1,-33983,-84601,-5586,4485
6901.1,-34144,-84717,-5515,4390
6903.1,-34358,-84867,-5457,4323
6905.1,-34229,-84744,-5571,4269
6907.1,-34032,-84554,-5680,4311
6909.1,-34081,-84610,-5636,4468
6911.1,-34234,-84775,-5586,4594
6913.1,-34321,-84777,-5590,4607
6915.1,-34346,-84617,-5505,4596
6917.1,-34360,-84516,-5379,4598
6919.1,-34440,-84640,-5416,4537
6921.1,-34489,-84798,-5593,4404
6923.1,-34267,-84647,-5716,4284
6925.1,-33975,-84340,-5728,4244
6927.1,-34121,-84418,-5687,4269
6929.1,-34539,-84892,-5643,4288
6931.1,-34538,-85201,-5619,4268
6933.1,-34126,-85100,-5600,4276
6935.1,-33956,-84847,-5587,4320
6937.1,-34177,-84691,-5654,4274
6939.1,-34395,-84728,-5770,4147
6941.1,-34417,-84937,-5747,4156
6943.1,-34279,-85077,-5575,4320
6945.1,-34070,-84981,-5484,4399
6947.1,-34111,-84900,-5519,4358
6949.1,-34533,-85021,-5500,4388
6951.1,-34798,-85045,-5480,4428
6953.1,-34515,-84789,-5662,4270
6955.1,-34219,-84622,-5888,4050
6957.1,-34394,-84767,-5843,4047
6959.1,-34601,-84882,-5654,4152
6961.1,-34442,-84803,-5647,4106
6963.1,-34308,-84843,-5738,4028
6965.1,-34440,-85006,-5686,4137
6967.1,-34415,-84888,-5635,4263
6969.1,-34152,-84642,-5792,4165
6971.1,-34168,-84892,-5950,4009
6973.1,-34457,-85484,-5869,4032
6975.1,-34393,-85534,-5688,4156
6977.1,-33978,-84920,-5572,4290
6979.1,-33871,-84486,-5479,4482
6981.1,-34086,-84608,-5458,4585
6983.1,-34039,-84796,-5628,4402
6985.1,-33828,-84819,-5827,4134
6987.1,-34031,-84982,-5811,4106
6989.1,-34449,-85198,-5691,4216
6991.1,-34463,-85014,-5723,4188
6993.1,-34234,-84619,-5893,4032
6995.1,-34242,-84635,-5984,3920
6997.1,-34305,-84970,-5888,3898
6999.1,-34183,-85082,-5746,3877
7001.1,-34196,-85033,-5768,3797
7003.1,-34399,-85130,-5884,3795
7005.1,-34327,-85120,-5814,4041
7007.1,-34079,-84836,-5640,4336
7009.1,-34243,-84759,-5705,4341
7011.1,-34612,-85029,-5868,4239
7013.1,-34489,-85064,-5732,4379
7015.1,-34061,-84787,-5519,4493
7017.1,-33986,-84801,-5681,4239
7019.1,-34118,-85075,-5935,4013
7021.1,-34016,-85034,-5829,4197
7023.1,-33927,-84850,-5663,4355
7025.1,-34134,-85019,-5802,4131
7027.1,-34236,-85190,-5905,3961
7029.1,-33966,-84882,-5716,4128
7031.1,-33771,-84562,-5647,4192
7033.1,-33978,-84747,-5935,3921
7035.1,-34239,-85056,-6142,3751
7037.1,-34234,-85014,-5946,3954
7039.1,-34161,-84822,-5635,4221
7041.1,-34235,-84792,-5554,4256
7043.1,-34299,-84857,-5652,4146
7045.1,-34173,-84844,-5740,4046
7047.1,-34004,-84723,-5811,3945
7049.1,-34019,-84619,-5900,3835
7051.1,-34191,-84707,-5902,3830
7053.1,-34332,-84948,-5757,3963
7055.1,-34344,-85053,-5641,4060
7057.1,-34235,-84891,-5682,4016
7059.1,-34068,-84673,-5734,3989
7061.1,-33995,-84629,-5689,4086
7063.1,-34111,-84808,-5701,4143
7065.1,-34247,-85108,-5816,4072
7067.1,-34190,-85244,-5835,4033
7069.1,-34092,-85035,-5735,4057
7071.1,-34261,-84831,-5731,3982
7073.1,-34550,-85019,-5824,3878
7075.1,-34471,-85174,-5814,3978
7077.1,-34019,-84736,-5750,4158
7079.1,-33766,-84207,-5789,4128
7081.1,-33945,-84358,-5794,4008
7083.1,-34132,-84766,-5615,4082
7085.1,-34108,-84689,-5465,4251
7087.1,-34143,-84482,-5480,4343
7089.1,-34193,-84632,-5408,4497
7091.1,-33934,-84635,-5197,4694
7093.1,-33704,-84216,-5208,4598
7095.1,-34092,-84089,-5454,4293
7097.1,-34676,-84476,-5469,4332
7099.1,-34655,-84650,-5169,4781
7101.1,-34306,-84427,-4972,5101
7103.1,-34299,-84344,-5014,5056
7105.1,-34378,-84419,-5087,4906
7107.1,-34118,-84311,-5174,4787
7109.1,-33901,-84190,-5363,4624
7111.1,-34032,-84284,-5524,4482
7113.1,-34132,-84387,-5527,4479
7115.1,-34037,-84390,-5469,4548
7117.1,-34038,-84403,-5463,4543
7119.1,-34097,-84301,-5472,4479
7121.1,-33978,-84001,-5388,4511
7123.1,-33877,-83778,-5196,4663
7125.1,-33960,-83759,-5075,4715
7127.1,-33961,-83782,-5198,4532
7129.1,-33822,-83923,-5413,4339
7131.1,-33834,-84267,-5434,4374
7133.1,-33956,-84444,-5287,4532
7135.1,-33967,-84319,-5202,4613
7137.1,-34012,-84369,-5191,4613
7139.1,-34077,-84570,-5130,4594
7141.1,-33779,-84273,-5068,4561
7143.1,-33369,-83738,-5138,4519
7145.1,-33612,-83962,-5326,4457
7147.1,-34250,-84696,-5522,4315
7149.1,-34293,-84809,-5672,4108
7151.1,-33873,-84476,-5759,3952
7153.1,-33921,-84676,-5769,3897
7155.1,-34320,-85121,-5761,3860
7157.1,-34244,-84964,-5805,3800
7159.1,-33820,-84601,-5855,3807
7161.1,-33830,-84791,-5823,3929
7163.1,-34257,-85170,-5747,4050
7165.1,-34404,-85130,-5723,4073
7167.1,-34112,-84920,-5765,4034
7169.1,-33922,-84953,-5854,3948
7171.1,-34105,-85100,-5986,3782
7173.1,-34285,-85125,-6085,3618
7175.1,-34181,-85059,-6036,3609
7177.1,-34121,-85029,-5872,3731
7179.1,-34363,-85097,-5774,3799
7181.1,-34518,-85164,-5824,3767
7183.1,-34223,-85058,-5869,3823
7185.1,-33811,-84867,-5788,4037
7187.1,-33732,-84854,-5747,4132
7189.1,-33893,-85015,-5921,3876
7191.1,-33999,-85148,-6127,3513
7193.1,-34013,-85239,-6113,3410
7195.1,-34009,-85348,-5975,3557
7197.1,-34004,-85376,-5893,3793
7199.1,-33960,-85257,-5808,4119
7201.1,-33820,-85144,-5723,4431
7203.1,-33699,-85258,-5861,4484
7205.1,-33853,-85601,-6134,4427
7207.1,-34151,-85833,-6044,4752
7209.1,-34121,-85608,-5442,5489
7211.1,-33749,-85017,-4693,6168
7213.1,-33423,-84326,-3938,6662
7215.1,-33074,-83499,-2978,7229
7217.1,-32393,-82523,-1905,7794
7219.1,-31669,-81732,-991,8110
7221.1,-31359,-81177,-121,8361
7223.1,-31279,-80338,828,8665
7225.1,-31132,-79035,1573,8605
7227.1,-31197,-77875,2000,8090
7229.1,-31721,-77344,2312,7716
7231.1,-32402,-77344,2246,7594
7233.1,-33069,-77971,1178,6990
7235.1,-34073,-79726,-1017,5432
7237.1,-35557,-82471,-4122,3057
7239.1,-37038,-85165,-7870,107
7241.1,-38018,-87081,-11327,-2800
7243.1,-38349,-88360,-13184,-4603
7245.1,-38085,-89201,-13371,-4972
7247.1,-37606,-89599,-13115,-4748
7249.1,-37517,-89870,-13172,-4669
7251.1,-37786,-90348,-13253,-4600
7253.1,-37671,-90759,-13025,-4236
7255.1,-36961,-90692,-12564,-3668
7257.1,-36310,-90193,-11938,-3047
7259.1,-36019,-89459,-11110,-2305
7261.1,-35654,-88613,-10151,-1361
7263.1,-35076,-87872,-9268,-366
7265.1,-34659,-87317,-8632,435
7267.1,-34451,-86740,-8158,1071
7269.1,-34171,-86111,-7552,1830
7271.1,-33919,-85659,-6789,2738
7273.1,-33940,-85398,-6263,3387
7275.1,-33997,-85155,-6147,3568
7277.1,-33848,-84962,-6079,3622
7279.1,-33810,-84959,-5819,3834
7281.1,-34048,-85072,-5619,4024
7283.1,-34107,-85086,-5621,4074
7285.1,-33862,-84957,-5588,4202
7287.1,-33854,-84911,-5470,4433
7289.1,-34105,-85056,-5476,4507
7291.1,-34005,-85074,-5574,4416
7293.1,-33609,-84750,-5573,4371
7295.1,-33531,-84446,-5545,4357
7297.1,-33690,-84459,-5591,4263
7299.1,-33676,-84544,-5585,4185
7301.1,-33725,-84558,-5479,4231
7303.1,-34019,-84688,-5390,4360
7305.1,-34074,-84827,-5329,4512
7307.1,-33755,-84732,-5265,4607
7309.1,-33578,-84602,-5259,4574
7311.1,-33642,-84669,-5302,4490
7313.1,-33629,-84753,-5321,4453
7315.1,-33616,-84699,-5348,4426
7317.1,-33713,-84558,-5376,4407
7319.1,-33626,-84319,-5312,4452
7321.1,-33369,-84065,-5206,4471
7323.1,-33351,-84033,-5161,4399
7325.1,-33539,-84205,-5116,4390
7327.1,-33649,-84407,-5083,4468
7329.1,-33780,-84646,-5191,4438
7331.1,-33925,-84786,-5295,4366
7333.13,-33743,-84525,-5136,4502
7335.15,-33377,-84095,-4875,4718
7337.18,-33333,-84087,-4799,4747
7339.2,-33491,-84378,-4778,4718
7341.2,-33445,-84341,-4673,4777
7343.2,-33370,-84042,-4711,4716
7345.2,-33495,-84070,-4936,4526
7347.2,-33533,-84373,-5018,4541
7349.2,-33395,-84424,-4906,4747
7351.2,-33447,-84237,-4873,4803
7353.2,-33650,-84189,-4884,4737
7355.2,-33601,-84223,-4722,4808
7357.2,-33402,-84107,-4525,4920
7359.2,-33393,-83971,-4545,4870
7361.2,-33354,-83981,-4689,4759
7363.2,-33002,-84011,-4731,4725
7365.2,-32727,-83959,-4643,4755
7367.2,-32941,-83880,-4522,4866
7369.2,-33335,-83821,-4458,5044
7371.2,-33434,-83818,-4456,5182
7373.2,-33250,-83853,-4400,5293
7375.2,-33055,-83810,-4264,5441
7377.2,-32987,-83738,-4199,5492
7379.2,-33026,-83797,-4222,5383
7381.2,-33057,-83831,-4147,5343
7383.2,-33031,-83639,-3993,5473
7385.2,-33026,-83438,-3946,5592
7387.2,-33012,-83389,-3938,5665
7389.2,-32834,-83282,-3841,5769
7391.2,-32569,-83171,-3831,5758
7393.2,-32509,-83300,-3965,5608
7395.2,-32688,-83397,-3899,5674
7397.2,-32835,-83202,-3555,6008
7399.2,-32815,-83122,-3348,6166
7401.2,-32751,-83296,-3383,6077
7403.2,-32750,-83181,-3319,6129
7405.2,-32760,-82782,-3186,6275
7407.2,-32667,-82699,-3307,6147
7409.2,-32447,-82809,-3512,5927
7411.2,-32221,-82612,-3420,6012
7413.2,-32165,-82451,-3181,6218
7415.2,-32301,-82741,-3120,6233
7417.2,-32430,-82954,-3117,6248
7419.2,-32341,-82673,-2989,6449
7421.2,-32068,-82347,-2894,6610
7423.2,-31849,-82245,-2936,6588
7425.2,-31815,-82101,-2921,6568
7427.2,-31869,-82003,-2772,6616
7429.2,-31938,-82229,-2670,6607
7431.2,-32088,-82484,-2685,6588
7433.2,-32233,-82402,-2691,6688
7435.2,-32098,-82226,-2682,6770
7437.2,-31758,-82261,-2765,6642
7439.2,-31736,-82377,-2843,6482
7441.2,-32141,-82402,-2722,6579
7443.2,-32390,-82345,-2545,6797
7445.2,-32188,-82238,-2598,6796
7447.2,-32009,-82208,-2756,6641
7449.2,-32175,-82383,-2688,6639
7451.2,-32341,-82534,-2528,6713
7453.2,-32246,-82375,-2676,6526
7455.2,-32125,-82155,-3019,6197
7457.2,-32156,-82250,-3059,6253
7459.2,-32206,-82445,-2778,6732
7461.2,-32238,-82357,-2690,7000
7463.2,-32357,-82150,-2939,6750
7465.2,-32484,-82144,-3088,6463
7467.2,-32449,-82261,-2972,6477
7469.2,-32350,-82371,-3004,6447
7471.2,-32414,-82576,-3359,6155
7473.2,-32596,-82823,-3625,5973
7475.2,-32674,-82884,-3580,6085
7477.2,-32629,-82782,-3547,6139
7479.2,-32616,-82713,-3718,5980
7481.2,-32689,-82705,-3828,5896
7483.2,-32816,-82783,-3767,5968
7485.2,-32939,-82999,-3824,5902
7487.2,-32939,-83106,-4103,5629
7489.2,-32854,-82933,-4300,5451
7491.2,-32976,-82947,-4266,5486
7493.2,-33349,-83534,-4258,5472
7495.2,-33562,-84139,-4434,5256
7497.2,-33429,-84096,-4601,5031
7499.2,-33282,-83702,-4636,4953
7501.2,-33313,-83570,-4683,4952
7503.2,-33386,-83722,-4792,4973
7505.2,-33516,-83953,-4850,5021
7507.2,-33743,-84270,-4866,5008
7509.2,-33796,-84525,-4930,4879
7511.2,-33568,-84407,-4999,4760
7513.2,-33425,-83995,-5031,4721
7515.2,-33542,-83728,-5123,4646
7517.2,-33632,-83804,-5278,4493
7519.2,-33584,-84049,-5337,4413
7521.2,-33645,-84291,-5267,4469
7523.2,-33892,-84493,-5225,4537
7525.2,-34113,-84583,-5259,4539
