t,lead_I,lead_II,v3,v4
1.1,-34167,-74106,22732,14866
3.1,-34438,-74796,22633,14758
5.1,-34567,-74935,22604,14704
7.1,-34375,-74778,22661,14722
9.1,-34125,-74722,22792,14811
11.1,-34214,-74642,22907,14894
13.1,-34473,-74492,22913,14887
15.1,-34437,-74598,22860,14834
17.1,-34228,-74856,22842,14821
19.1,-34255,-74716,22826,14825
21.1,-34287,-74213,22819,14852
23.1,-33944,-73953,22971,15026
25.1,-33720,-74144,23222,15264
27.1,-34169,-74522,23199,15217
29.1,-34637,-74811,22855,14867
31.1,-34325,-74820,22679,14685
33.1,-33800,-74630,22858,14844
35.1,-33908,-74583,22938,14924
37.1,-34264,-74662,22730,14754
39.1,-34228,-74551,22683,14727
41.1,-34078,-74366,22951,14974
43.1,-34140,-74379,23089,15095
45.1,-34141,-74389,22963,14975
47.1,-34048,-74286,22983,14985
49.1,-34148,-74365,23213,15181
51.1,-34222,-74523,23258,15199
53.1,-33918,-74316,23099,15028
55.1,-33633,-73988,23109,15032
57.1,-33883,-74114,23251,15183
59.1,-34328,-74514,23187,15142
61.1,-34394,-74652,23027,14995
63.1,-34222,-74541,23095,15063
65.1,-34183,-74374,23228,15207
67.1,-34163,-74130,23142,15133
69.1,-34028,-74017,23058,15026
71.1,-33979,-74266,23256,15170
73.1,-33926,-74419,23524,15406
75.1,-33555,-74041,23610,15503
77.1,-33261,-73742,23624,15533
79.1,-33635,-74128,23670,15570
81.1,-34193,-74584,23622,15516
83.13,-34152,-74471,23433,15351
85.15,-33810,-74244,23283,15223
87.18,-33730,-74245,23352,15271
89.2,-33734,-74056,23575,15459
91.2,-33697,-73737,23710,15592
93.2,-33850,-73855,23699,15605
95.2,-33971,-74185,23763,15678
97.2,-33798,-74129,23926,15828
99.2,-33743,-73947,23887,15777
101.2,-33985,-74152,23640,15520
103.2,-33972,-74484,23585,15441
105.2,-33603,-74453,23800,15623
107.2,-33427,-74110,23929,15741
109.2,-33508,-73805,23903,15728
111.2,-33461,-73691,23983,15812
113.2,-33315,-73632,24141,15950
115.2,-33289,-73539,24146,15936
117.2,-33369,-73706,24051,15847
119.2,-33602,-74268,23997,15802
121.2,-33937,-74520,23903,15706
123.2,-33888,-73862,23807,15619
125.2,-33310,-73078,23948,15783
127.2,-32936,-73235,24214,16048
129.2,-33210,-73906,24258,16052
131.2,-33537,-74081,24216,15974
133.2,-33446,-73937,24420,16174
135.2,-33297,-74116,24636,16392
137.2,-33356,-74321,24536,16275
139.2,-33407,-74094,24428,16152
141.2,-33404,-73782,24620,16357
143.2,-33419,-73659,24813,16566
145.2,-33250,-73419,24763,16513
147.2,-32905,-73145,24706,16454
149.2,-32770,-73311,24762,16526
151.2,-32835,-73628,24777,16553
153.2,-32728,-73449,24788,16549
155.2,-32530,-73089,24922,16666
157.2,-32549,-73189,25075,16825
159.2,-32603,-73450,25130,16896
161.2,-32450,-73323,25150,16921
163.2,-32342,-73062,25165,16934
165.2,-32484,-73070,25133,16895
167.2,-32632,-73169,25096,16841
169.2,-32578,-73067,25151,16876
171.2,-32465,-72807,25314,17031
173.2,-32465,-72589,25477,17201
175.2,-32383,-72377,25538,17278
177.2,-31818,-71814,25628,17389
179.2,-30987,-70984,25901,17694
181.2,-30918,-70939,26067,17905
183.2,-32014,-72220,25711,17590
185.2,-33192,-73540,25141,17026
187.2,-33467,-73608,25080,16944
189.2,-33246,-73051,25489,17350
191.2,-33113,-72906,25655,17530
193.2,-32855,-72916,25393,17256
195.2,-32445,-72716,25199,17042
197.2,-32407,-72759,25264,17127
199.2,-32724,-73081,25256,17155
201.2,-32742,-72965,25090,16980
203.2,-32328,-72374,25068,16925
205.2,-32084,-72148,25184,17035
207.2,-32382,-72551,25040,16910
209.2,-32921,-72936,24604,16495
211.2,-33241,-72969,24336,16250
213.2,-33259,-72977,24409,16340
215.2,-33204,-73077,24466,16396
217.2,-33270,-73089,24293,16225
219.2,-33433,-73193,24108,16063
221.2,-33572,-73583,24086,16061
223.23,-33708,-73869,24122,16089
225.25,-33938,-73734,24108,16060
227.28,-34116,-73500,24041,15985
229.3,-33966,-73453,23894,15829
231.3,-33580,-73478,23694,15627
233.3,-33316,-73496,23598,15556
235.3,-33202,-73443,23694,15678
237.3,-32995,-73122,23859,15834
239.3,-32739,-72699,23917,15877
241.3,-32797,-72761,23784,15762
243.3,-33363,-73475,23469,15472
245.3,-34164,-74275,23131,15137
247.3,-34622,-74531,23012,15016
249.3,-34421,-74206,23126,15135
251.3,-33985,-73860,23235,15253
253.3,-34001,-74007,23226,15268
255.3,-34499,-74479,23177,15246
257.3,-34949,-74731,23111,15171
259.3,-35155,-74666,23066,15097
261.3,-35274,-74563,23179,15205
263.3,-35149,-74425,23363,15392
265.3,-34513,-74128,23326,15345
267.3,-33740,-73906,23102,15127
269.3,-33488,-73975,23009,15059
271.3,-33688,-74046,23095,15140
273.3,-33721,-73807,23165,15175
275.3,-33511,-73489,23173,15172
277.3,-33555,-73476,23145,15167
279.3,-33940,-73717,23049,15093
281.3,-34218,-73912,22964,15012
283.3,-34228,-74010,22981,15032
285.3,-34203,-74193,23003,15059
287.3,-34217,-74487,22967,15020
289.3,-34181,-74660,23003,15042
291.3,-34145,-74501,23111,15147
293.3,-34124,-74107,23112,15166
295.3,-34049,-73838,23024,15099
297.3,-34019,-73907,23014,15087
299.3,-34115,-74092,23031,15086
301.3,-34124,-74109,22968,15012
303.3,-33922,-74083,22957,15004
305.3,-33713,-74116,23079,15131
307.3,-33617,-73907,23134,15192
309.3,-33585,-73522,23043,15103
311.3,-33742,-73655,23007,15056
313.3,-34142,-74312,23054,15091
315.3,-34402,-74485,22990,15042
317.3,-34153,-73848,22892,14973
319.3,-33606,-73309,22991,15080
321.3,-33342,-73485,23143,15223
323.3,-33675,-73999,23054,15132
325.3,-34288,-74345,22862,14940
327.3,-34592,-74393,22880,14947
329.3,-34516,-74290,23019,15084
331.3,-34464,-74285,23000,15076
333.3,-34473,-74369,22840,14906
335.3,-34334,-74355,22746,14786
337.3,-34357,-74418,22776,14819
339.3,-34753,-74725,22820,14889
341.3,-34826,-74779,22806,14870
343.3,-34210,-74229,22801,14837
345.3,-33853,-73703,22907,14938
347.3,-34285,-73762,23068,15104
349.3,-34525,-74013,23095,15117
351.3,-34083,-74068,22920,14940
353.3,-33994,-74175,22699,14745
355.3,-34652,-74418,22624,14668
357.3,-34908,-74456,22713,14714
359.3,-34279,-74266,22839,14824
361.3,-33752,-74156,22904,14924
363.33,-33839,-74179,22895,14941
365.35,-33974,-74217,22796,14838
367.38,-33953,-74316,22638,14689
369.4,-34110,-74416,22560,14631
371.4,-34297,-74283,22626,14681
373.4,-34160,-73979,22722,14732
375.4,-33953,-73890,22761,14764
377.4,-34049,-74155,22765,14810
379.4,-34281,-74512,22706,14783
381.4,-34401,-74646,22579,14645
383.4,-34465,-74440,22529,14579
385.4,-34486,-74146,22629,14685
387.4,-34355,-74198,22758,14815
389.4,-34183,-74534,22814,14847
391.4,-34181,-74592,22789,14819
393.4,-34302,-74351,22713,14777
395.4,-34353,-74391,22681,14770
397.4,-34320,-74639,22731,14808
399.4,-34281,-74425,22723,14783
401.4,-34222,-73920,22620,14678
403.4,-34135,-73924,22604,14660
405.4,-34107,-74324,22681,14731
407.4,-34159,-74369,22646,14692
409.4,-34166,-74111,22561,14607
411.4,-34046,-74094,22659,14711
413.4,-33864,-74202,22834,14902
415.4,-33723,-74061,22827,14907
417.4,-33722,-73914,22708,14791
419.4,-33978,-74187,22668,14755
421.4,-34441,-74744,22652,14736
423.4,-34767,-75095,22560,14625
425.4,-34710,-75002,22479,14529
427.4,-34469,-74667,22497,14549
429.4,-34281,-74406,22574,14627
431.4,-34054,-74219,22676,14730
433.4,-33789,-73980,22793,14859
435.4,-33846,-73933,22818,14907
437.4,-34318,-74346,22673,14766
439.4,-34759,-74832,22477,14560
441.4,-34876,-74836,22405,14487
443.4,-34828,-74538,22428,14522
445.4,-34737,-74442,22429,14517
447.4,-34582,-74533,22435,14488
449.4,-34483,-74549,22506,14525
451.4,-34555,-74513,22547,14573
453.4,-34663,-74488,22494,14560
455.4,-34626,-74432,22476,14575
457.4,-34445,-74463,22574,14679
459.4,-34274,-74666,22645,14749
461.4,-34308,-74782,22596,14718
463.4,-34550,-74654,22568,14703
465.4,-34724,-74498,22653,14753
467.4,-34637,-74390,22705,14742
469.4,-34388,-74166,22615,14630
471.4,-34099,-73973,22549,14592
473.4,-33865,-74084,22650,14728
475.4,-33870,-74212,22759,14864
477.4,-34030,-73956,22699,14831
479.4,-34009,-73712,22576,14707
481.4,-33947,-74153,22528,14615
483.4,-34265,-74951,22496,14543
485.4,-34596,-75086,22467,14513
487.4,-34290,-74444,22534,14597
489.4,-33807,-74011,22605,14675
491.4,-33985,-74258,22508,14577
493.4,-34460,-74533,22356,14417
495.4,-34441,-74398,22359,14409
497.4,-34187,-74310,22474,14531
499.4,-34215,-74474,22554,14638
501.4,-34205,-74368,22587,14686
503.43,-33912,-73944,22606,14691
505.45,-33856,-73916,22618,14681
507.48,-34209,-74337,22606,14679
509.5,-34395,-74412,22519,14629
511.5,-34330,-74144,22381,14502
513.5,-34583,-74401,22314,14406
515.5,-35059,-75024,22310,14391
517.5,-35064,-74937,22258,14371
519.5,-34660,-74276,22232,14371
521.5,-34465,-74157,22368,14490
523.5,-34501,-74542,22564,14658
525.5,-34479,-74573,22677,14760
527.5,-34496,-74325,22732,14813
529.5,-34528,-74240,22763,14838
531.5,-34293,-74052,22790,14854
533.5,-33994,-73678,22911,14966
535.5,-34001,-73605,23087,15147
537.5,-34076,-73758,23134,15211
539.5,-34060,-73697,23095,15179
541.5,-34340,-73651,23167,15233
543.5,-34603,-73731,23312,15355
545.5,-33842,-73299,23399,15436
547.5,-32453,-72469,23425,15465
549.5,-32203,-72458,23309,15342
551.5,-33375,-73457,22973,15005
553.5,-34263,-74220,22681,14753
555.5,-34041,-74256,22687,14835
557.5,-33739,-74243,22785,15000
559.5,-33878,-74227,22760,15011
561.5,-33605,-73652,22781,15051
563.5,-32800,-72967,22920,15189
565.5,-32687,-73210,22913,15155
567.5,-33610,-74253,22682,14905
569.5,-34303,-74961,22492,14725
571.5,-34073,-74744,22482,14717
573.5,-33680,-74026,22531,14737
575.5,-33599,-73536,22584,14769
577.5,-33392,-73613,22727,14921
579.5,-33086,-73941,22945,15155
581.5,-33271,-73981,23056,15286
583.5,-33794,-73782,22933,15189
585.5,-33981,-73873,22694,14958
587.5,-33836,-74296,22576,14812
589.5,-33801,-74553,22631,14834
591.5,-33903,-74529,22694,14894
593.5,-33937,-74498,22658,14870
595.5,-33830,-74379,22602,14836
597.5,-33578,-74013,22627,14896
599.5,-33390,-73805,22664,14957
601.5,-33619,-74097,22558,14839
603.5,-34149,-74463,22324,14574
605.5,-34455,-74480,22176,14395
607.5,-34453,-74422,22229,14393
609.5,-34496,-74555,22321,14411
611.5,-34609,-74656,22298,14366
613.5,-34570,-74635,22266,14380
615.5,-34505,-74704,22366,14499
617.5,-34574,-74761,22509,14602
619.5,-34507,-74482,22578,14659
621.5,-34142,-74033,22650,14780
623.5,-33841,-73882,22754,14908
625.5,-33892,-74097,22686,14815
627.5,-34196,-74458,22390,14509
629.5,-34631,-74852,22210,14320
631.5,-34978,-75091,22374,14404
633.5,-34946,-74989,22613,14527
635.5,-34852,-74828,22721,14555
637.5,-35225,-74954,22936,14685
639.5,-35571,-75049,23360,15002
641.5,-35101,-74698,23711,15335
643.5,-34307,-74140,23895,15662
645.5,-34034,-73706,24064,16071
647.5,-33956,-73293,24179,16476
649.5,-33474,-72782,24249,16924
651.6,-32704,-72078,24587,17742
653.6,-31779,-70886,25231,18945
655.6,-30716,-69308,25803,20157
657.6,-29928,-68023,26184,21215
659.6,-29526,-67319,26507,22116
661.6,-28957,-66911,26619,22652
663.6,-28188,-66756,26371,22782
665.6,-27941,-66942,25968,22816
667.6,-28452,-67131,25509,22773
669.6,-29243,-67139,24833,22329
671.6,-29966,-67490,23984,21408
673.6,-30656,-68684,23006,19992
675.6,-31508,-70527,21568,17796
677.6,-32566,-72409,19641,15043
679.6,-33425,-73783,18025,12819
681.6,-33758,-74446,17397,11829
683.6,-34060,-74702,17475,11610
685.6,-34907,-75038,17765,11563
687.6,-35812,-75532,18314,11788
689.6,-35963,-75820,19185,12385
691.6,-35532,-75670,19974,12943
693.6,-35173,-75279,20440,13244
695.6,-34880,-74891,20910,13617
697.6,-34364,-74487,21596,14205
699.6,-33913,-74108,22172,14647
701.6,-33963,-74046,22387,14757
703.6,-34313,-74350,22428,14767
705.6,-34460,-74558,22455,14779
707.6,-34280,-74287,22413,14690
709.6,-33994,-73792,22372,14591
711.6,-33909,-73675,22422,14605
713.6,-34222,-74154,22433,14610
715.6,-34700,-74797,22390,14584
717.6,-34889,-75076,22510,14725
719.6,-34820,-74998,22737,14953
721.6,-34850,-74910,22783,14989
723.6,-34924,-74931,22702,14901
725.6,-34781,-74910,22705,14885
727.6,-34551,-74733,22690,14828
729.6,-34473,-74515,22560,14665
731.6,-34460,-74541,22504,14610
733.6,-34336,-74795,22571,14690
735.6,-34102,-74767,22592,14716
737.6,-33888,-74257,22608,14753
739.6,-33815,-73865,22774,14955
741.6,-33812,-73985,22945,15141
743.6,-33742,-74175,22922,15102
745.6,-33757,-74171,22819,14977
747.6,-34059,-74333,22796,14931
749.6,-34422,-74676,22747,14858
751.6,-34503,-74711,22602,14716
753.6,-34345,-74425,22570,14718
755.6,-34176,-74313,22756,14918
757.6,-34179,-74533,22877,15021
759.6,-34452,-74809,22767,14892
761.6,-34759,-74894,22698,14821
763.6,-34712,-74773,22839,14962
765.6,-34405,-74556,22953,15073
767.6,-34103,-74267,22947,15057
769.6,-33720,-73861,23030,15124
771.6,-33479,-73610,23172,15260
773.6,-34003,-73934,23125,15223
775.6,-34920,-74594,22946,15048
777.6,-35023,-74831,22857,14960
779.6,-34308,-74514,22857,14978
781.6,-33921,-74252,22866,15002
783.6,-34112,-74301,22898,15016
785.6,-34183,-74297,22956,15041
787.6,-34002,-74063,23044,15115
789.6,-33925,-73907,23169,15234
791.7,-33948,-74103,23239,15290
793.7,-33948,-74462,23224,15261
795.7,-33959,-74533,23259,15302
797.7,-33914,-74205,23367,15434
799.7,-33832,-73949,23406,15491
801.7,-33996,-74093,23351,15442
803.7,-34341,-74248,23291,15381
805.7,-34362,-74055,23253,15326
807.7,-34035,-73931,23289,15331
809.7,-33909,-74245,23450,15470
811.7,-34079,-74519,23594,15599
813.7,-34077,-74317,23582,15548
815.7,-33815,-74026,23520,15450
817.7,-33652,-73994,23538,15492
819.7,-33587,-73903,23603,15610
821.7,-33330,-73575,23697,15720
823.7,-32989,-73385,23866,15878
825.7,-32899,-73485,24034,16058
827.7,-33010,-73516,24081,16118
829.7,-33040,-73304,24035,16049
831.7,-32948,-73095,24023,15998
833.7,-32872,-73082,24076,16035
835.7,-32902,-73275,24113,16080
837.7,-33118,-73700,24087,16055
839.7,-33550,-74198,24015,15965
841.7,-34006,-74328,23882,15808
843.7,-34152,-73970,23721,15643
845.7,-33860,-73656,23764,15697
847.7,-33401,-73815,24112,16042
849.7,-33151,-74119,24407,16323
851.7,-33096,-74039,24371,16281
853.7,-32959,-73617,24294,16205
855.7,-32778,-73307,24430,16340
857.7,-32788,-73288,24535,16446
859.7,-32860,-73347,24488,16399
861.7,-32782,-73341,24538,16436
863.7,-32818,-73415,24673,16552
865.7,-33186,-73627,24652,16522
867.7,-33489,-73707,24602,16467
869.7,-33352,-73492,24733,16590
871.7,-33032,-73248,24832,16696
873.7,-32906,-73246,24736,16642
875.7,-32899,-73293,24725,16677
877.7,-32748,-73050,24921,16876
879.7,-32514,-72643,25024,16959
881.7,-32464,-72527,24945,16884
883.7,-32510,-72727,24982,16932
885.7,-32310,-72805,25196,17131
887.7,-32032,-72634,25305,17234
889.7,-32079,-72466,25256,17225
891.7,-32041,-72206,25305,17310
893.7,-31340,-71617,25534,17527
895.7,-30659,-71093,25755,17736
897.7,-30969,-71146,25810,17822
899.7,-31786,-71589,25658,17709
901.7,-32203,-72098,25347,17408
903.7,-32485,-72679,25040,17100
905.7,-33051,-73053,24830,16901
907.7,-33404,-72896,24646,16717
909.7,-33224,-72709,24535,16573
911.7,-33012,-72997,24647,16648
913.7,-33073,-73266,24797,16791
915.7,-33158,-73134,24661,16674
917.7,-33140,-73102,24412,16446
919.7,-33127,-73289,24409,16463
921.7,-33174,-73176,24490,16564
923.7,-33288,-72906,24346,16424
925.7,-33392,-73008,24144,16207
927.7,-33383,-73262,24113,16164
929.7,-33346,-73279,24127,16173
931.7,-33251,-73126,24099,16144
933.73,-32824,-72743,24130,16184
935.75,-32368,-72289,24135,16202
937.78,-32760,-72616,23926,15998
939.8,-33830,-73688,23588,15662
941.8,-34310,-74102,23334,15412
943.8,-34018,-73643,23219,15299
945.8,-34074,-73763,23202,15286
947.8,-34601,-74623,23223,15318
949.8,-34621,-74823,23202,15309
951.8,-34170,-74236,23150,15268
953.8,-34110,-73957,23160,15293
955.8,-34294,-74047,23226,15368
957.8,-34084,-73966,23257,15401
959.8,-33764,-73936,23222,15377
961.8,-33776,-74103,23164,15334
963.8,-33817,-74027,23156,15319
965.8,-33651,-73694,23213,15370
967.8,-33439,-73427,23247,15430
969.8,-33156,-73161,23218,15429
971.8,-32943,-73044,23196,15392
973.8,-33329,-73492,23145,15312
975.8,-34151,-74059,22945,15109
977.8,-34548,-74030,22703,14876
979.8,-34450,-73903,22657,14832
981.8,-34498,-74364,22799,14990
983.8,-34660,-74779,22938,15154
985.8,-34512,-74503,22967,15189
987.8,-34305,-74150,22897,15110
989.8,-34414,-74222,22833,15044
991.8,-34546,-74229,22875,15084
993.8,-34373,-73973,22913,15109
995.8,-34095,-73927,22809,15000
997.8,-33947,-74097,22721,14925
999.8,-33860,-74048,22821,15047
1001.8,-33750,-73826,22938,15183
1003.8,-33649,-73705,22918,15164
1005.8,-33582,-73574,22878,15104
1007.8,-33566,-73361,22886,15090
1009.8,-33667,-73369,22852,15051
1011.8,-33914,-73703,22792,14991
1013.8,-34182,-74053,22769,14966
1015.8,-34270,-74183,22747,14955
1017.8,-34140,-74104,22709,14935
1019.8,-33971,-73903,22690,14910
1021.8,-33971,-73783,22683,14890
1023.8,-34212,-73974,22722,14940
1025.8,-34572,-74366,22813,15057
1027.8,-34758,-74561,22812,15064
1029.8,-34619,-74416,22695,14937
1031.8,-34425,-74240,22696,14931
1033.8,-34419,-74314,22841,15076
1035.8,-34335,-74381,22828,15066
1037.8,-33933,-74028,22637,14878
1039.8,-33612,-73520,22613,14856
1041.8,-33701,-73507,22796,15045
1043.8,-33814,-73886,22878,15137
1045.8,-33700,-73984,22827,15091
1047.8,-33781,-73786,22835,15089
1049.8,-34116,-73833,22804,15031
1051.8,-34160,-74162,22601,14794
1053.8,-33976,-74400,22499,14683
1055.8,-34157,-74455,22688,14909
1057.8,-34547,-74421,22836,15105
1059.8,-34623,-74333,22733,15019
1061.8,-34608,-74232,22683,14965
1063.8,-34772,-74133,22761,15056
1065.8,-34641,-74030,22622,14924
1067.8,-34044,-74028,22351,14622
1069.8,-33681,-74132,22406,14644
1071.8,-33922,-74175,22659,14901
1073.83,-34245,-74154,22638,14900
1075.85,-34186,-74177,22481,14743
1077.88,-33901,-74174,22559,14825
1079.9,-33763,-74143,22713,14995
1081.9,-33871,-74185,22667,14962
1083.9,-33938,-74066,22557,14863
1085.9,-33718,-73619,22544,14855
1087.9,-33554,-73431,22551,14836
1089.9,-33953,-74001,22506,14754
1091.9,-34607,-74722,22423,14671
1093.9,-34731,-74760,22387,14641
1095.9,-34344,-74250,22530,14749
1097.9,-34200,-73847,22738,14949
1099.9,-34500,-73880,22677,14959
1101.9,-34718,-74270,22366,14703
1103.9,-34597,-74640,22192,14500
1105.9,-34403,-74627,22263,14540
1107.9,-34303,-74398,22353,14636
1109.9,-34235,-74361,22374,14630
1111.9,-34199,-74410,22382,14585
1113.9,-34205,-74252,22370,14572
1115.9,-34159,-74131,22369,14603
1117.9,-34063,-74353,22443,14669
1119.9,-34019,-74577,22523,14733
1121.9,-33955,-74358,22553,14794
1123.9,-33740,-73897,22606,14888
1125.9,-33537,-73663,22677,14964
1127.9,-33582,-73702,22663,14943
1129.9,-33739,-73776,22589,14875
1131.9,-33801,-73847,22549,14837
1133.9,-34043,-74092,22509,14795
1135.9,-34770,-74490,22445,14746
1137.9,-35482,-74685,22444,14769
1139.9,-35390,-74464,22465,14796
1141.9,-34617,-74184,22327,14649
1143.9,-33984,-74261,22114,14427
1145.9,-33862,-74505,22149,14445
1147.9,-34053,-74518,22411,14684
1149.9,-34298,-74364,22513,14782
1151.9,-34310,-74269,22382,14666
1153.9,-34017,-74216,22317,14613
1155.9,-33894,-74226,22359,14656
1157.9,-34208,-74392,22291,14584
1159.9,-34419,-74509,22168,14452
1161.9,-34222,-74377,22213,14492
1163.9,-34186,-74237,22363,14656
1165.9,-34535,-74309,22410,14723
1167.9,-34660,-74368,22336,14652
1169.9,-34305,-74208,22262,14570
1171.9,-33934,-74004,22291,14604
1173.9,-33872,-74024,22412,14737
1175.9,-34043,-74318,22446,14769
1177.9,-34278,-74617,22300,14613
1179.9,-34366,-74571,22190,14511
1181.9,-34280,-74294,22258,14601
1183.9,-34291,-74262,22313,14644
1185.9,-34427,-74422,22266,14544
1187.9,-34389,-74225,22306,14545
1189.9,-34273,-73753,22421,14678
1191.9,-34422,-73723,22403,14695
1193.9,-34579,-74178,22303,14597
1195.9,-34298,-74393,22282,14555
1197.9,-33883,-74155,22285,14550
1199.9,-33846,-73953,22295,14582
1201.9,-33968,-73950,22420,14747
1203.9,-33872,-73859,22522,14882
1205.9,-33747,-73666,22439,14792
1207.9,-33744,-73606,22407,14719
1209.9,-33648,-73651,22619,14898
1211.9,-33591,-73598,22780,15048
1213.93,-33942,-73470,22672,14935
1215.95,-34441,-73480,22553,14814
1217.98,-34550,-73665,22634,14903
1220.0,-34274,-73763,22782,15050
1222.0,-33844,-73549,22879,15128
1224.0,-33397,-73169,22968,15206
1226.0,-33309,-72944,23045,15297
1228.0,-33751,-73029,23045,15313
1230.0,-34160,-73428,22946,15224
1232.0,-34169,-74001,22794,15085
1234.0,-34194,-74394,22659,14957
1236.0,-34324,-74365,22579,14875
1238.0,-34000,-74043,22580,14888
1240.0,-33305,-73676,22681,15026
1242.0,-33082,-73495,22751,15137
1244.0,-33491,-73691,22619,15035
1246.0,-33757,-73999,22436,14875
1248.0,-33466,-73880,22483,14937
1250.0,-33104,-73473,22608,15057
1252.0,-33116,-73358,22486,14915
1254.0,-33207,-73391,22283,14702
1256.0,-32974,-73158,22346,14775
1258.0,-32716,-73141,22556,14986
1260.0,-32945,-73770,22635,15030
1262.0,-33416,-74224,22633,14996
1264.0,-33471,-73836,22674,15056
1266.0,-33141,-73398,22691,15108
1268.0,-33059,-73599,22614,15024
1270.0,-33384,-73785,22481,14857
1272.0,-33635,-73468,22370,14728
1274.0,-33581,-73298,22407,14751
1276.0,-33562,-73670,22598,14928
1278.0,-33804,-74048,22684,15034
1280.0,-34052,-74115,22492,14894
1282.0,-34104,-74123,22292,14726
1284.0,-34077,-74092,22381,14808
1286.0,-34016,-73858,22541,14954
1288.0,-33835,-73658,22420,14820
1290.0,-33687,-73810,22157,14520
1292.0,-33830,-74192,22088,14405
1294.0,-34159,-74513,22148,14437
1296.0,-34377,-74675,22093,14366
1298.0,-34458,-74671,21981,14240
1300.0,-34548,-74509,21973,14236
1302.0,-34618,-74308,22030,14302
1304.0,-34565,-74259,22082,14349
1306.0,-34488,-74428,22150,14434
1308.0,-34526,-74654,22198,14536
1310.0,-34555,-74696,22196,14542
1312.0,-34388,-74477,22224,14492
1314.0,-34169,-74180,22297,14481
1316.0,-34196,-74075,22340,14480
1318.0,-34438,-74223,22405,14472
1320.0,-34572,-74373,22596,14544
1322.0,-34465,-74283,22866,14710
1324.0,-34315,-74076,23114,14891
1326.0,-34306,-73987,23316,15082
1328.0,-34266,-73838,23505,15387
1330.0,-33867,-73339,23735,15879
1332.0,-33153,-72719,24006,16465
1334.0,-32510,-72255,24214,16995
1336.0,-32018,-71528,24359,17533
1338.0,-31413,-70188,24636,18328
1340.0,-30764,-68883,25111,19435
1342.0,-30356,-68251,25627,20622
1344.0,-29917,-67807,26065,21645
1346.0,-28998,-67053,26345,22357
1348.0,-27993,-66552,26302,22690
1350.0,-27738,-66756,25865,22708
1352.0,-28350,-67114,25160,22469
1354.03,-29274,-67267,24361,21946
1356.05,-30029,-67673,23635,21207
1358.08,-30450,-68570,22919,20173
1360.1,-30805,-69776,21718,18343
1362.1,-31645,-71384,19832,15654
1364.1,-32927,-73291,18054,13190
1366.1,-33865,-74685,17251,11955
1368.1,-34247,-75116,17284,11663
1370.1,-34778,-75124,17651,11668
1372.1,-35559,-75129,18268,11932
1374.1,-35737,-74932,18978,12373
1376.1,-35184,-74588,19443,12640
1378.1,-34814,-74484,19841,12869
1380.1,-34856,-74509,20548,13423
1382.1,-34653,-74268,21301,14036
1384.1,-34254,-73911,21682,14288
1386.1,-34298,-73866,21883,14385
1388.1,-34533,-74092,22198,14634
1390.1,-34316,-74258,22430,14840
1392.1,-34014,-74283,22376,14779
1394.1,-34178,-74268,22238,14607
1396.1,-34349,-74247,22197,14500
1398.1,-34085,-74219,22185,14444
1400.1,-33843,-74156,22195,14470
1402.1,-33859,-73980,22326,14633
1404.1,-33702,-73716,22479,14792
1406.1,-33433,-73531,22459,14767
1408.1,-33581,-73539,22327,14628
1410.1,-33964,-73733,22307,14576
1412.1,-34044,-74039,22402,14619
1414.1,-34011,-74329,22390,14587
1416.1,-34268,-74526,22197,14414
1418.1,-34554,-74672,22025,14263
1420.1,-34454,-74715,22091,14333
1422.1,-34062,-74437,22359,14594
1424.1,-33724,-73935,22591,14807
1426.1,-33697,-73722,22613,14807
1428.1,-33996,-73990,22465,14661
1430.1,-34281,-74288,22314,14526
1432.1,-34254,-74304,22288,14493
1434.1,-34172,-74311,22363,14546
1436.1,-34361,-74466,22397,14579
1438.1,-34563,-74464,22337,14540
1440.1,-34417,-74207,22329,14551
1442.1,-34130,-74074,22476,14707
1444.1,-34102,-74242,22642,14880
1446.1,-34318,-74407,22681,14924
1448.1,-34471,-74309,22649,14881
1450.1,-34359,-74066,22601,14813
1452.1,-34060,-73922,22533,14734
1454.1,-33827,-73954,22552,14755
1456.1,-33796,-74051,22711,14914
1458.1,-33910,-74091,22798,14984
1460.1,-34186,-74094,22717,14873
1462.1,-34601,-74124,22718,14848
1464.1,-34727,-74134,22861,14997
1466.1,-34242,-74066,22884,15069
1468.1,-33659,-73987,22823,15057
1470.1,-33648,-73980,22944,15166
1472.1,-33981,-73967,23049,15214
1474.1,-34067,-73787,22836,14963
1476.1,-33947,-73507,22604,14727
1478.1,-33928,-73480,22712,14836
1480.1,-33840,-73743,22952,15077
1482.1,-33346,-73661,23111,15246
1484.1,-32636,-72902,23298,15448
1486.1,-32366,-72347,23433,15588
1488.1,-32875,-72860,23293,15433
1490.1,-33676,-73800,23021,15135
1492.1,-34066,-74126,22888,14988
1494.1,-34058,-74080,22902,15003
1496.1,-34095,-74282,23006,15099
1498.1,-34162,-74363,23171,15242
1500.1,-33986,-73940,23248,15312
1502.2,-33724,-73593,23201,15275
1504.2,-33626,-73708,23226,15303
1506.2,-33556,-73751,23352,15432
1508.2,-33437,-73435,23359,15458
1510.2,-33425,-73212,23268,15372
1512.2,-33360,-73272,23385,15449
1514.2,-33003,-73328,23709,15722
1516.2,-32752,-73311,23849,15840
1518.2,-32968,-73275,23701,15683
1520.2,-33144,-73092,23633,15606
1522.2,-32948,-72922,23774,15767
1524.2,-32989,-73181,23788,15827
1526.2,-33466,-73675,23618,15669
1528.2,-33614,-73775,23640,15654
1530.2,-33229,-73463,23887,15868
1532.2,-32977,-73192,23998,15977
1534.2,-32937,-72980,23960,15944
1536.2,-32640,-72636,24042,16024
1538.2,-32272,-72416,24180,16164
1540.2,-32383,-72653,24156,16151
1542.2,-32869,-73129,24031,16036
1544.2,-33223,-73383,23968,15967
1546.2,-33219,-73324,24001,15986
1548.2,-32986,-73189,24138,16126
1550.2,-32786,-73096,24313,16310
1552.2,-32742,-72996,24365,16341
1554.2,-32723,-72939,24301,16248
1556.2,-32647,-73022,24326,16276
1558.2,-32619,-73100,24484,16446
1560.2,-32599,-72946,24599,16558
1562.2,-32387,-72597,24627,16594
1564.2,-32044,-72229,24726,16719
1566.2,-31877,-71948,24931,16932
1568.2,-32029,-71925,25022,17014
1570.2,-32357,-72231,24881,16875
1572.2,-32554,-72462,24727,16726
1574.2,-32377,-72195,24782,16793
1576.2,-31979,-71735,24912,16961
1578.2,-31832,-71696,24894,16975
1580.2,-32093,-72074,24825,16888
1582.2,-32410,-72339,24898,16940
1584.2,-32469,-72193,24983,17051
1586.2,-32320,-71842,24841,16942
1588.2,-32170,-71687,24596,16690
1590.2,-32202,-71830,24560,16649
1592.2,-32459,-71967,24697,16811
1594.2,-32710,-71936,24705,16840
1596.2,-32662,-71954,24575,16710
1598.2,-32311,-71978,24556,16705
1600.2,-31923,-71672,24594,16771
1602.2,-31872,-71404,24365,16536
1604.2,-32415,-71983,23911,16042
1606.2,-33209,-72998,23641,15758
1608.2,-33420,-73123,23703,15845
1610.2,-32874,-72359,23836,15990
1612.2,-32425,-72030,23821,15948
1614.2,-32666,-72480,23664,15776
1616.2,-33181,-72838,23444,15589
1618.2,-33478,-72887,23263,15442
1620.2,-33620,-73102,23176,15347
1622.2,-33739,-73337,23120,15282
1624.2,-33818,-73237,23040,15233
1626.2,-33924,-73160,22975,15190
1628.2,-33989,-73377,22932,15118
1630.2,-33790,-73455,22901,15077
1632.2,-33452,-73182,22924,15162
1634.2,-33343,-72934,22944,15229
1636.2,-33433,-72849,22845,15073
1638.2,-33432,-72761,22728,14868
1640.2,-33397,-72803,22722,14850
1642.2,-33624,-73233,22695,14856
1644.23,-34085,-73853,22598,14773
1646.25,-34344,-74129,22643,14814
1648.28,-34072,-73817,22762,14931
1650.3,-33609,-73314,22665,14829
1652.3,-33644,-73231,22516,14678
1654.3,-34177,-73577,22629,14804
1656.3,-34465,-73818,22762,14952
1658.3,-34250,-73736,22603,14801
1660.3,-34045,-73553,22402,14607
1662.3,-34020,-73405,22431,14643
1664.3,-33793,-73287,22549,14761
1666.3,-33434,-73194,22599,14796
1668.3,-33440,-72993,22540,14714
1670.3,-33732,-72705,22349,14522
1672.3,-33811,-72750,22250,14467
1674.3,-33700,-73287,22505,14766
1676.3,-33802,-73849,22812,15073
1678.3,-34115,-74086,22719,14963
1680.3,-34305,-74113,22442,14683
1682.3,-34214,-73971,22437,14666
1684.3,-33925,-73636,22605,14801
1686.3,-33646,-73389,22625,14809
1688.3,-33601,-73424,22537,14746
1690.3,-33729,-73472,22520,14757
1692.3,-33680,-73317,22569,14812
1694.3,-33399,-73182,22600,14843
1696.3,-33311,-73289,22568,14816
1698.3,-33645,-73489,22465,14716
1700.3,-34028,-73546,22368,14619
1702.3,-34074,-73484,22371,14617
1704.3,-33974,-73489,22438,14666
1706.3,-34111,-73599,22473,14680
1708.3,-34405,-73699,22466,14684
1710.3,-34484,-73737,22430,14688
1712.3,-34279,-73686,22339,14598
1714.3,-33998,-73455,22241,14438
1716.3,-33752,-73156,22247,14396
1718.3,-33629,-73155,22326,14506
1720.3,-33778,-73501,22344,14574
1722.3,-34045,-73740,22306,14529
1724.3,-34046,-73612,22299,14496
1726.3,-33842,-73426,22302,14510
1728.3,-33825,-73467,22295,14525
1730.3,-33918,-73558,22363,14590
1732.3,-33813,-73480,22460,14685
1734.3,-33780,-73373,22411,14651
1736.3,-34145,-73433,22265,14504
1738.3,-34381,-73497,22258,14471
1740.3,-33934,-73271,22393,14591
1742.3,-33316,-72864,22468,14671
1744.3,-33258,-72770,22431,14629
1746.3,-33613,-73216,22376,14557
1748.3,-33913,-73764,22343,14521
1750.3,-34040,-73828,22314,14509
1752.3,-33957,-73506,22267,14475
1754.3,-33730,-73417,22189,14403
1756.3,-33684,-73627,22153,14375
1758.3,-33806,-73565,22247,14473
1760.3,-33734,-73207,22386,14609
1762.3,-33629,-73236,22393,14623
1764.3,-33897,-73730,22251,14507
1766.3,-34175,-73956,22130,14389
1768.3,-33982,-73694,22141,14348
1770.3,-33808,-73524,22186,14354
1772.3,-34142,-73716,22126,14338
1774.3,-34363,-73854,22054,14327
1776.3,-33928,-73600,22156,14395
1778.3,-33529,-73233,22303,14465
1780.3,-33804,-73242,22238,14400
1782.3,-34180,-73562,22094,14304
1784.33,-34108,-73619,22102,14304
1786.35,-34041,-73346,22084,14241
1788.38,-34266,-73338,21900,14049
1790.4,-34274,-73620,21858,14020
1792.4,-33916,-73484,22088,14242
1794.4,-33686,-72944,22250,14398
1796.4,-33679,-72879,22207,14383
1798.4,-33640,-73433,22196,14407
1800.4,-33720,-73826,22239,14447
1802.4,-34057,-73852,22138,14315
1804.4,-34274,-74008,21950,14123
1806.4,-34145,-74248,21902,14103
1808.4,-33986,-74106,22013,14217
1810.4,-34021,-73793,22109,14272
1812.4,-34066,-73812,22095,14226
1814.4,-33930,-73885,22063,14204
1816.4,-33739,-73551,22123,14277
1818.4,-33798,-73299,22183,14334
1820.4,-34188,-73652,22101,14243
1822.4,-34542,-73870,21943,14076
1824.4,-34478,-73211,21860,13980
1826.4,-34162,-72582,21882,13999
1828.4,-34015,-73111,22013,14140
1830.4,-34113,-74131,22239,14376
1832.4,-34281,-74417,22369,14523
1834.4,-34416,-74143,22230,14425
1836.4,-34349,-73965,22005,14230
1838.4,-33896,-73668,21997,14203
1840.4,-33352,-73124,22165,14330
1842.4,-33312,-72982,22250,14389
1844.4,-33813,-73429,22217,14330
1846.4,-34243,-73756,22219,14318
1848.4,-34190,-73598,22254,14403
1850.4,-33897,-73394,22144,14368
1852.4,-33849,-73466,21864,14088
1854.4,-34089,-73540,21684,13840
1856.4,-34103,-73294,21820,13944
1858.4,-33695,-72991,22053,14209
1860.4,-33560,-73251,22025,14208
1862.4,-34078,-74006,21853,14024
1864.4,-34349,-74294,21947,14098
1866.4,-33732,-73670,22238,14390
1868.4,-33126,-72941,22278,14449
1870.4,-33322,-72864,22087,14260
1872.4,-33731,-73191,22060,14215
1874.4,-33832,-73513,22159,14306
1876.4,-34043,-73852,22055,14216
1878.4,-34446,-74079,21879,14025
1880.4,-34479,-73847,21964,14058
1882.4,-34070,-73264,22194,14253
1884.4,-33722,-72878,22288,14344
1886.4,-33721,-72943,22319,14380
1888.4,-33991,-73165,22429,14518
1890.4,-34221,-73168,22513,14646
1892.4,-34054,-72956,22511,14650
1894.4,-33672,-72824,22554,14658
1896.4,-33632,-72889,22646,14743
1898.4,-33819,-72969,22630,14751
1900.4,-33625,-72941,22529,14644
1902.4,-33232,-72897,22571,14663
1904.4,-33291,-72875,22803,14905
1906.4,-33575,-72805,22942,15071
1908.4,-33453,-72727,22760,14906
1910.4,-33096,-72698,22450,14622
1912.4,-32945,-72631,22350,14574
1914.4,-32897,-72538,22423,14688
1916.4,-32906,-72607,22373,14635
1918.4,-33160,-72792,22214,14443
1920.4,-33346,-72821,22219,14442
1922.4,-33094,-72777,22344,14614
1924.43,-32857,-72960,22280,14590
1926.45,-33073,-73191,22050,14324
1928.48,-33277,-73103,21982,14185
1930.5,-33093,-72918,22155,14341
1932.5,-32956,-73031,22360,14578
1934.5,-33131,-73220,22499,14737
1936.5,-33258,-73080,22595,14834
1938.5,-33146,-72735,22578,14821
1940.5,-32979,-72576,22416,14664
1942.5,-32891,-72761,22249,14492
1944.5,-33033,-73146,22128,14374
1946.5,-33482,-73329,21954,14203
1948.5,-33820,-73074,21808,14043
1950.5,-33688,-72865,21919,14132
1952.5,-33552,-73325,22183,14393
1954.5,-33879,-74080,22217,14438
1956.5,-34199,-74249,21989,14205
1958.5,-34059,-73897,21832,14028
1960.5,-33893,-73793,21862,14029
1962.5,-33968,-73952,21890,14027
1964.5,-33795,-73721,21874,13982
1966.5,-33336,-73211,21920,14014
1968.5,-33352,-73258,21967,14068
1970.5,-33968,-73858,21896,14009
1972.5,-34387,-74057,21769,13885
1974.5,-34314,-73670,21694,13815
1976.5,-34273,-73573,21692,13833
1978.5,-34380,-73912,21805,13960
1980.5,-34182,-73777,22003,14145
1982.5,-33786,-73164,22051,14165
1984.5,-33827,-73200,21882,13959
1986.5,-34229,-73909,21869,13874
1988.5,-34308,-74016,22252,14158
1990.5,-34107,-73394,22657,14481
1992.5,-34291,-73272,22730,14479
1994.5,-34752,-73834,22741,14411
1996.5,-34716,-73990,23031,14703
1998.5,-34140,-73448,23419,15226
2000.5,-33727,-72911,23602,15611
2002.5,-33689,-72581,23642,15891
2004.5,-33480,-72094,23751,16357
2006.5,-32723,-71365,23995,17076
2008.5,-31651,-70428,24349,17946
2010.5,-30589,-69115,24803,18979
2012.5,-29597,-67546,25335,20169
2014.5,-28788,-66345,25796,21217
2016.5,-28370,-65971,25951,21782
2018.5,-28148,-66150,25765,21965
2020.5,-27787,-66272,25436,22087
2022.5,-27672,-66164,25006,22088
2024.5,-28346,-66159,24362,21697
2026.5,-29325,-66577,23578,20910
2028.5,-29923,-67608,22666,19656
2030.5,-30579,-69374,21279,17574
2032.5,-31812,-71481,19406,14881
2034.5,-32988,-73047,17793,12629
2036.5,-33536,-73735,17066,11515
2038.5,-33950,-74061,17089,11249
2040.5,-34553,-74379,17480,11320
2042.5,-34887,-74498,18027,11519
2044.5,-34827,-74339,18582,11771
2046.5,-34750,-74100,19112,12093
2048.5,-34684,-73903,19719,12553
2050.5,-34437,-73747,20412,13105
2052.5,-34000,-73446,21150,13718
2054.5,-33301,-72718,21888,14368
2056.5,-32607,-71951,22339,14719
2058.5,-32824,-72172,22187,14453
2060.5,-34050,-73450,21703,13925
2062.5,-34867,-74419,21512,13773
2064.53,-34443,-74236,21723,13989
2066.55,-33798,-73675,21914,14109
2068.58,-33865,-73601,21902,14040
2070.6,-34175,-73765,21884,14031
2072.6,-34223,-73658,21924,14086
2074.6,-34248,-73423,21888,14025
2076.6,-34332,-73464,21825,13924
2078.6,-34236,-73795,21885,13971
2080.6,-34072,-74055,21977,14071
2082.6,-34076,-74010,21951,14037
2084.6,-34098,-73812,21890,13953
2086.6,-33991,-73667,21889,13970
2088.6,-33958,-73559,21909,14047
2090.6,-34091,-73537,21976,14125
2092.6,-34123,-73733,22133,14224
2094.6,-33963,-73931,22222,14271
2096.6,-33908,-73789,22124,14190
2098.6,-34053,-73458,22011,14091
2100.6,-34031,-73277,22056,14112
2102.6,-33667,-73175,22182,14210
2104.6,-33348,-73075,22274,14295
2106.6,-33406,-73290,22350,14379
2108.6,-33679,-73806,22398,14448
2110.6,-33921,-74011,22329,14399
2112.6,-34132,-73769,22155,14223
2114.6,-34307,-73735,22033,14078
2116.6,-34324,-74024,22045,14080
2118.6,-34180,-73913,22115,14150
2120.6,-33989,-73351,22186,14205
2122.6,-33820,-73199,22319,14310
2124.6,-33785,-73619,22496,14479
2126.6,-33992,-73823,22572,14552
2128.6,-34208,-73526,22535,14494
2130.6,-34065,-73264,22558,14500
2132.6,-33754,-73372,22638,14606
2134.6,-33721,-73589,22580,14589
2136.6,-33738,-73484,22431,14447
2138.6,-33419,-73010,22466,14459
2140.6,-33299,-72717,22651,14627
2142.6,-33858,-73004,22692,14671
2144.6,-34266,-73390,22615,14591
2146.6,-33760,-73357,22648,14601
2148.6,-33098,-73233,22702,14639
2150.6,-33169,-73367,22591,14546
2152.6,-33627,-73514,22470,14446
2154.6,-33874,-73578,22529,14498
2156.6,-33835,-73648,22657,14615
2158.6,-33536,-73446,22730,14696
2160.6,-33242,-73003,22783,14748
2162.6,-33438,-72990,22798,14734
2164.6,-33815,-73385,22772,14679
2166.6,-33604,-73365,22849,14746
2168.6,-33090,-72953,23029,14930
2170.6,-33008,-72787,23101,15018
2172.6,-32890,-72535,23108,15038
2174.6,-32155,-71780,23315,15230
2176.6,-31793,-71559,23555,15444
2178.6,-32729,-72657,23390,15271
2180.6,-33833,-73748,22976,14854
2182.6,-33712,-73502,22903,14746
2184.6,-33064,-72840,23184,14981
2186.6,-33225,-73084,23342,15126
2188.6,-33838,-73680,23292,15091
2190.6,-33824,-73586,23297,15114
2192.6,-33368,-73138,23374,15206
2194.6,-33289,-73051,23412,15251
2196.6,-33495,-73122,23475,15293
2198.6,-33371,-72936,23588,15380
2200.6,-32899,-72613,23682,15470
2202.6,-32518,-72348,23768,15557
2204.6,-32443,-72208,23816,15586
2206.6,-32581,-72335,23725,15474
2208.6,-32753,-72662,23604,15345
2210.6,-32846,-72821,23660,15387
2212.7,-32877,-72721,23824,15543
2214.7,-32906,-72641,23912,15655
2216.7,-32894,-72628,23928,15690
2218.7,-32688,-72437,23928,15663
2220.7,-32250,-72093,23938,15645
2222.7,-31934,-71924,24033,15752
2224.7,-32136,-72039,24180,15907
2226.7,-32549,-72216,24214,15926
2228.7,-32470,-72242,24178,15893
2230.7,-31975,-72040,24228,15968
2232.7,-31828,-71696,24256,15997
2234.7,-32148,-71536,24170,15884
2236.7,-32225,-71724,24239,15940
2238.7,-31729,-71783,24576,16290
2240.7,-31217,-71359,24818,16546
2242.7,-31307,-71104,24735,16469
2244.7,-31864,-71635,24562,16304
2246.7,-32241,-72205,24502,16261
2248.7,-32186,-71876,24511,16289
2250.7,-32087,-71177,24567,16346
2252.7,-32160,-71066,24673,16435
2254.7,-32086,-71279,24738,16502
2256.7,-31837,-71234,24722,16525
2258.7,-31942,-71306,24655,16497
2260.7,-32446,-71835,24520,16364
2262.7,-32651,-72191,24337,16191
2264.7,-32371,-71971,24201,16099
2266.7,-32211,-71731,24096,16017
2268.7,-32335,-71775,23983,15872
2270.7,-32296,-71674,23961,15821
2272.7,-32118,-71375,24014,15898
2274.7,-32149,-71350,23942,15871
2276.7,-32273,-71636,23753,15704
2278.7,-32469,-71967,23649,15596
2280.7,-33114,-72411,23582,15515
2282.7,-33815,-72869,23387,15310
2284.7,-33645,-72807,23178,15099
2286.7,-33025,-72324,23088,15009
2288.7,-33168,-72345,22976,14892
2290.7,-33764,-73027,22774,14694
2292.7,-33673,-73350,22661,14597
2294.7,-33218,-72911,22681,14634
2296.7,-33378,-72602,22678,14643
2298.7,-33764,-72891,22642,14608
2300.7,-33486,-73020,22696,14650
2302.7,-32855,-72559,22789,14731
2304.7,-32738,-72213,22737,14686
2306.7,-33214,-72477,22539,14504
2308.7,-33691,-72853,22391,14361
2310.7,-33763,-72966,22388,14363
2312.7,-33605,-73118,22452,14443
2314.7,-33617,-73351,22513,14506
2316.7,-33799,-73272,22547,14518
2318.7,-33880,-73041,22496,14455
2320.7,-33927,-73185,22375,14345
2322.7,-34084,-73500,22301,14280
2324.7,-34044,-73431,22306,14275
2326.7,-33644,-73150,22301,14269
2328.7,-33334,-73061,22288,14275
2330.7,-33388,-73013,22310,14317
2332.7,-33503,-72889,22299,14310
2334.7,-33476,-72858,22260,14261
2336.7,-33341,-72679,22380,14366
2338.7,-33046,-72138,22633,14612
2340.7,-32841,-71928,22643,14624
2342.7,-33264,-72617,22270,14245
2344.7,-34074,-73462,21919,13881
2346.7,-34363,-73587,21950,13910
2348.7,-34058,-73307,22192,14167
2350.7,-33937,-73268,22311,14300
2352.7,-34074,-73332,22269,14252
2354.73,-33829,-73098,22210,14175
2356.75,-33301,-72725,22192,14150
2358.78,-33220,-72670,22168,14144
2360.8,-33579,-72946,22139,14142
2362.8,-33747,-73093,22203,14211
2364.8,-33713,-72954,22354,14333
2366.8,-33921,-72950,22335,14290
2368.8,-34202,-73287,22046,14014
2370.8,-34038,-73575,21865,13860
2372.8,-33603,-73564,22047,14050
2374.8,-33492,-73441,22220,14228
2376.8,-33716,-73275,22083,14098
2378.8,-33827,-72995,21969,13956
2380.8,-33698,-72762,22128,14063
2382.8,-33523,-72737,22256,14184
2384.8,-33435,-72851,22177,14151
2386.8,-33514,-73018,22129,14134
2388.8,-33727,-73141,22171,14166
2390.8,-33829,-73092,22133,14125
2392.8,-33723,-73038,22095,14099
2394.8,-33681,-73243,22177,14175
2396.8,-33805,-73504,22198,14170
2398.8,-33827,-73460,22063,14025
2400.8,-33687,-73215,22005,13975
2402.8,-33648,-73055,22129,14114
2404.8,-33760,-73013,22256,14264
2406.8,-33877,-73090,22273,14306
2408.8,-33941,-73251,22230,14266
2410.8,-33739,-73121,22244,14259
2412.8,-33110,-72483,22422,14430
2414.8,-32708,-71997,22585,14604
2416.8,-33326,-72454,22331,14349
2418.8,-34340,-73439,21802,13803
2420.8,-34442,-73813,21677,13666
2422.8,-33812,-73442,21997,13980
2424.8,-33674,-73254,22099,14077
2426.8,-34070,-73578,21907,13892
2428.8,-34094,-73664,21938,13943
2430.8,-33805,-73092,22110,14124
2432.8,-33912,-72572,21973,13969
2434.8,-34184,-72831,21747,13715
2436.8,-33914,-73452,21856,13811
2438.8,-33374,-73597,22061,14027
2440.8,-33361,-73370,21992,13975
2442.8,-33831,-73440,21837,13820
2444.8,-34068,-73681,21868,13841
2446.8,-33799,-73459,21989,13958
2448.8,-33441,-72977,22038,14010
2450.8,-33448,-72969,22013,13980
2452.8,-33783,-73378,21925,13891
2454.8,-34024,-73545,21812,13792
2456.8,-33945,-73368,21789,13772
2458.8,-33778,-73258,21852,13807
2460.8,-33752,-73321,21853,13778
2462.8,-33768,-73384,21794,13723
2464.8,-33762,-73411,21809,13761
2466.8,-33809,-73386,21856,13819
2468.8,-33807,-73221,21814,13774
2470.8,-33681,-73052,21799,13755
2472.8,-33661,-73106,21933,13882
2474.8,-33793,-73227,22035,13979
2476.8,-33808,-73127,21996,13941
2478.8,-33804,-72938,22010,13959
2480.8,-34089,-72947,22106,14054
2482.8,-34261,-73045,22047,13991
2484.8,-33675,-72925,21893,13832
2486.8,-32741,-72610,21939,13870
2488.8,-32542,-72506,22085,14012
2490.8,-33281,-72931,22001,13934
2492.8,-34125,-73607,21736,13688
2494.83,-34494,-73935,21599,13565
2496.85,-34566,-73866,21642,13607
2498.88,-34547,-73835,21670,13625
2500.9,-34316,-73814,21569,13518
2502.9,-33938,-73432,21478,13418
2504.9,-33769,-72973,21633,13556
2506.9,-33888,-73077,21956,13867
2508.9,-34017,-73530,22037,13953
2510.9,-33994,-73558,21787,13715
2512.9,-33865,-73210,21641,13584
2514.9,-33660,-73192,21831,13783
2516.9,-33449,-73451,22009,13950
2518.9,-33456,-73317,21917,13830
2520.9,-33822,-72955,21797,13693
2522.9,-34281,-73112,21878,13778
2524.9,-34383,-73623,22009,13919
2526.9,-34117,-73757,22012,13939
2528.9,-33910,-73577,21955,13900
2530.9,-33888,-73493,21929,13870
2532.9,-33779,-73377,21922,13831
2534.9,-33607,-73148,21963,13843
2536.9,-33615,-73032,22066,13927
2538.9,-33648,-72930,22135,13966
2540.9,-33512,-72714,22171,13971
2542.9,-33451,-72629,22278,14077
2544.9,-33541,-72532,22367,14182
2546.9,-33471,-72070,22316,14143
2548.9,-33320,-71769,22331,14177
2550.9,-33433,-72174,22544,14415
2552.9,-33568,-72622,22612,14473
2554.9,-33336,-72559,22356,14176
2556.9,-33015,-72564,22205,14011
2558.9,-32912,-72848,22427,14263
2560.9,-32763,-72756,22654,14526
2562.9,-32505,-72300,22577,14478
2564.9,-32570,-72127,22394,14333
2566.9,-32988,-72253,22314,14279
2568.9,-33304,-72450,22217,14185
2570.9,-33403,-72895,21991,13972
2572.9,-33457,-73382,21801,13817
2574.9,-33389,-73317,21848,13870
2576.9,-33159,-72937,22014,14003
2578.9,-33028,-72992,22013,13989
2580.9,-33085,-73346,21863,13845
2582.9,-33123,-73375,21853,13813
2584.9,-33077,-73154,22035,13968
2586.9,-33021,-73010,22172,14128
2588.9,-32927,-72830,22181,14176
2590.9,-32876,-72657,22182,14162
2592.9,-33068,-72817,22168,14106
2594.9,-33387,-73104,22052,13982
2596.9,-33489,-73049,21941,13887
2598.9,-33315,-72772,22019,13966
2600.9,-33057,-72548,22219,14152
2602.9,-32874,-72390,22267,14187
2604.9,-32930,-72543,22073,13986
2606.9,-33220,-73083,21872,13802
2608.9,-33394,-73304,21847,13811
2610.9,-33307,-72920,21841,13806
2612.9,-33355,-72801,21717,13629
2614.9,-33721,-73320,21676,13535
2616.9,-33990,-73685,21816,13660
2618.9,-33903,-73548,21846,13686
2620.9,-33708,-73391,21668,13489
2622.9,-33619,-73369,21623,13438
2624.9,-33606,-73348,21810,13657
2626.9,-33643,-73408,21904,13790
2628.9,-33729,-73440,21812,13713
2630.9,-33824,-73290,21769,13668
2632.9,-33915,-73299,21777,13675
2634.93,-34029,-73639,21675,13568
2636.95,-34235,-73852,21583,13444
2638.98,-34534,-73788,21672,13465
2641.0,-34703,-73801,21797,13512
2643.0,-34611,-73803,21832,13479
2645.0,-34562,-73499,21952,13511
2647.0,-34722,-73274,22236,13671
2649.0,-34722,-73525,22506,13857
2651.0,-34436,-73754,22770,14161
2653.0,-34225,-73424,23175,14722
2655.0,-33995,-72848,23500,15281
2657.0,-33322,-72423,23455,15562
2659.0,-32541,-71925,23355,15886
2661.0,-32212,-71106,23660,16694
2663.0,-31889,-70067,24196,17834
2665.0,-30887,-68816,24631,18984
2667.0,-29580,-67324,25137,20186
2669.0,-28662,-66019,25783,21364
2671.0,-28057,-65397,26063,22069
2673.0,-27497,-65289,25734,22207
2675.0,-27269,-65183,25208,22180
2677.0,-27687,-65039,24699,22062
2679.0,-28548,-65296,23979,21522
2681.0,-29438,-66280,23049,20473
2683.0,-30155,-67820,22010,18919
2685.0,-30802,-69428,20564,16636
2687.0,-31627,-70858,18665,13892
2689.0,-32620,-72253,17136,11762
2691.0,-33402,-73554,16674,10912
2693.0,-33848,-74365,16930,10835
2695.0,-34297,-74603,17286,10846
2697.0,-34682,-74464,17781,11005
2699.0,-34396,-73877,18662,11592
2701.0,-33638,-73065,19647,12358
2703.0,-33553,-72946,20240,12805
2705.0,-34348,-73714,20467,12910
2707.0,-34874,-74222,20774,13090
2709.0,-34571,-73865,21258,13465
2711.0,-34100,-73404,21583,13713
2713.0,-33948,-73304,21683,13740
2715.0,-34047,-73247,21813,13794
2717.0,-34319,-73259,21918,13846
2719.0,-34386,-73450,21804,13708
2721.0,-33830,-73374,21748,13642
2723.0,-33323,-73083,22006,13902
2725.0,-33748,-73357,22157,14063
2727.0,-34421,-74088,21852,13760
2729.0,-34266,-74289,21561,13457
2731.0,-33778,-73886,21695,13581
2733.0,-33833,-73580,21850,13729
2735.0,-34081,-73437,21684,13537
2737.0,-34087,-73253,21606,13417
2739.0,-34189,-73337,21884,13679
2741.0,-34331,-73736,22043,13855
2743.0,-33957,-73849,21786,13613
2745.0,-33343,-73495,21608,13431
2747.0,-33307,-73193,21881,13707
2749.0,-33788,-73203,22188,14035
2751.0,-34079,-73318,22121,13971
2753.0,-33966,-73431,21947,13763
2755.0,-33707,-73546,22014,13797
2757.0,-33497,-73596,22164,13944
2759.0,-33520,-73658,22106,13879
2761.0,-33826,-73784,21902,13646
2763.0,-33933,-73636,21875,13611
2765.0,-33418,-73017,22151,13928
2767.0,-32850,-72509,22425,14242
2769.0,-33035,-72686,22357,14170
2771.0,-33616,-73144,22121,13914
2773.0,-33713,-73197,22106,13897
2775.0,-33449,-73021,22253,14045
2777.0,-33515,-73210,22269,14038
2779.0,-33863,-73698,22177,13906
2781.0,-34001,-73916,22122,13830
2783.1,-33904,-73726,22105,13829
2785.1,-33797,-73519,22166,13926
2787.1,-33685,-73431,22308,14095
2789.1,-33527,-73175,22339,14141
2791.1,-33439,-72840,22255,14063
2793.1,-33551,-73022,22303,14094
2795.1,-33825,-73668,22421,14179
2797.1,-33974,-73835,22356,14095
2799.1,-33788,-73260,22272,14007
2801.1,-33547,-72901,22418,14145
2803.1,-33616,-73225,22570,14296
2805.1,-33766,-73481,22497,14236
2807.1,-33579,-73275,22412,14149
2809.1,-33310,-73175,22524,14239
2811.1,-33479,-73337,22714,14425
2813.1,-33874,-73208,22830,14557
2815.1,-33819,-72791,22848,14571
2817.1,-33248,-72674,22800,14492
2819.1,-32754,-72864,22770,14437
2821.1,-32663,-72878,22805,14462
2823.1,-32780,-72731,22840,14480
2825.1,-32945,-72810,22838,14455
2827.1,-33170,-73068,22852,14466
2829.1,-33330,-73133,22890,14521
2831.1,-33228,-72941,22931,14575
2833.1,-32912,-72711,23012,14649
2835.1,-32612,-72549,23135,14751
2837.1,-32506,-72433,23218,14822
2839.1,-32546,-72342,23247,14847
2841.1,-32471,-72214,23299,14878
2843.1,-32244,-72122,23372,14921
2845.1,-32313,-72350,23378,14923
2847.1,-32888,-72876,23297,14855
2849.1,-33434,-73209,23207,14759
2851.1,-33524,-73160,23168,14694
2853.1,-33457,-73015,23173,14685
2855.1,-33468,-72791,23231,14739
2857.1,-33310,-72429,23355,14853
2859.1,-32971,-72399,23470,14961
2861.1,-32728,-72815,23515,15005
2863.1,-32524,-72833,23610,15082
2865.1,-32238,-72201,23836,15281
2867.1,-32142,-71931,24003,15447
2869.1,-32355,-72440,23964,15426
2871.1,-32536,-72844,23896,15359
2873.1,-32533,-72676,23944,15408
2875.1,-32554,-72438,24005,15489
2877.1,-32583,-72354,24046,15534
2879.1,-32403,-72158,24141,15596
2881.1,-32126,-71867,24192,15625
2883.1,-32071,-71713,24098,15541
2885.1,-32196,-71735,24031,15473
2887.1,-32123,-71823,24157,15581
2889.1,-31736,-71773,24368,15795
2891.1,-31417,-71482,24493,15948
2893.1,-31479,-71279,24498,15976
2895.1,-31692,-71508,24438,15925
2897.1,-31740,-71858,24402,15889
2899.1,-31820,-71866,24458,15950
2901.1,-32176,-71689,24574,16088
2903.1,-32454,-71613,24655,16197
2905.1,-32264,-71494,24627,16178
2907.1,-31963,-71278,24488,16043
2909.1,-32026,-71243,24346,15923
2911.1,-32162,-71323,24328,15923
2913.1,-31904,-71162,24384,15980
2915.1,-31546,-70901,24357,15959
2917.1,-31662,-70983,24213,15836
2919.1,-32206,-71366,24031,15659
2921.1,-32641,-71669,23867,15488
2923.1,-32534,-71649,23818,15457
2925.13,-31876,-71211,23978,15655
2927.15,-31230,-70653,24172,15871
2929.18,-31351,-70751,24045,15745
2931.2,-32281,-71753,23557,15251
2933.2,-33337,-72839,23088,14758
2935.2,-34011,-73280,22915,14551
2937.2,-34204,-73183,22915,14548
2939.2,-33932,-72845,22898,14565
2941.2,-33533,-72515,22870,14562
2943.2,-33502,-72570,22835,14521
2945.2,-33668,-72884,22703,14387
2947.2,-33503,-72821,22519,14222
2949.2,-33186,-72431,22460,14176
2951.2,-33184,-72356,22552,14259
2953.2,-33237,-72493,22672,14376
2955.2,-32942,-72307,22743,14453
2957.2,-32645,-72102,22702,14416
2959.2,-32855,-72492,22518,14237
2961.2,-33436,-73138,22336,14062
2963.2,-33857,-73231,22298,14025
2965.2,-33837,-72802,22304,14034
2967.2,-33629,-72603,22251,13998
2969.2,-33639,-72860,22207,13973
2971.2,-33756,-73007,22167,13938
2973.2,-33578,-72822,22090,13861
2975.2,-33272,-72832,22103,13877
2977.2,-33321,-73149,22230,13988
2979.2,-33572,-73115,22233,13948
2981.2,-33545,-72637,22083,13762
2983.2,-33322,-72478,22070,13745
2985.2,-33289,-72835,22254,13951
2987.2,-33435,-73030,22395,14123
2989.2,-33455,-72752,22400,14153
2991.2,-33210,-72394,22366,14126
2993.2,-32901,-72303,22344,14096
2995.2,-32888,-72474,22321,14063
2997.2,-33220,-72731,22262,13997
2999.2,-33523,-72887,22137,13866
3001.2,-33605,-72988,22009,13735
3003.2,-33722,-73197,21940,13676
3005.2,-33998,-73371,21887,13644
3007.2,-34160,-73295,21857,13633
3009.2,-34065,-73156,21936,13720
3011.2,-33947,-73129,22071,13849
3013.2,-33990,-72995,22120,13879
3015.2,-34081,-72806,22070,13809
3017.2,-34020,-72987,22000,13732
3019.2,-33725,-73342,21991,13722
3021.2,-33369,-73231,22090,13812
3023.2,-33340,-72869,22174,13891
3025.2,-33673,-72897,22087,13813
3027.2,-33695,-72939,22016,13746
3029.2,-33014,-72400,22203,13927
3031.2,-32460,-71933,22369,14098
3033.2,-32859,-72222,22153,13894
3035.2,-33561,-72603,21839,13563
3037.2,-33673,-72554,21847,13532
3039.2,-33617,-72743,22017,13687
3041.2,-33913,-73309,22077,13752
3043.2,-33993,-73355,22124,13793
3045.2,-33624,-72860,22184,13861
3047.2,-33537,-72722,22092,13810
3049.2,-33773,-72892,21976,13734
3051.2,-33581,-72720,22087,13857
3053.2,-33192,-72515,22223,13998
3055.2,-33440,-72816,22066,13846
3057.2,-33967,-73155,21808,13576
3059.2,-33825,-72956,21782,13535
3061.2,-33197,-72521,21888,13643
3063.2,-32934,-72387,21904,13667
3065.23,-33151,-72598,21904,13660
3067.25,-33321,-72853,21988,13737
3069.28,-33213,-72862,22032,13789
3071.3,-33185,-72750,21929,13696
3073.3,-33620,-72981,21779,13535
3075.3,-34215,-73454,21731,13472
3077.3,-34274,-73415,21822,13563
3079.3,-33844,-72834,21931,13677
3081.3,-33663,-72673,21918,13664
3083.3,-33834,-73193,21829,13586
3085.3,-33758,-73429,21824,13594
3087.3,-33394,-72925,21880,13642
3089.3,-33301,-72481,21861,13599
3091.3,-33596,-72711,21773,13505
3093.3,-33919,-73207,21700,13447
3095.3,-34105,-73459,21654,13403
3097.3,-34159,-73437,21648,13376
3099.3,-34008,-73158,21692,13399
3101.3,-33696,-72665,21688,13394
3103.3,-33456,-72361,21588,13306
3105.3,-33409,-72546,21550,13268
3107.3,-33483,-72882,21690,13411
3109.3,-33614,-72957,21888,13633
3111.3,-33736,-72889,21982,13744
3113.3,-33691,-72879,21975,13716
3115.3,-33444,-72845,21943,13658
3117.3,-33271,-72832,21928,13645
3119.3,-33425,-73003,21920,13638
3121.3,-33790,-73168,21830,13539
3123.3,-34022,-73098,21626,13353
3125.3,-33889,-73031,21497,13267
3127.3,-33570,-73218,21612,13396
3129.3,-33528,-73406,21780,13551
3131.3,-33681,-73208,21779,13538
3133.3,-33294,-72635,21787,13537
3135.3,-32485,-72145,21992,13733
3137.3,-32494,-72240,22116,13865
3139.3,-33474,-72840,21874,13638
3141.3,-34064,-73352,21524,13286
3143.3,-33899,-73553,21458,13214
3145.3,-33998,-73677,21629,13398
3147.3,-34427,-73668,21735,13517
3149.3,-34332,-73355,21675,13454
3151.3,-33830,-73039,21598,13377
3153.3,-33553,-72963,21640,13431
3155.3,-33432,-72869,21740,13539
3157.3,-33404,-72735,21729,13526
3159.3,-33742,-72915,21590,13382
3161.3,-34156,-73298,21490,13275
3163.3,-34147,-73422,21550,13329
3165.3,-33916,-73298,21679,13464
3167.3,-33797,-73187,21707,13499
3169.3,-33736,-73047,21625,13408
3171.3,-33777,-72826,21633,13398
3173.3,-33947,-72676,21845,13609
3175.3,-33881,-72594,22064,13831
3177.3,-33488,-72475,22071,13810
3179.3,-33194,-72356,21996,13688
3181.3,-33056,-72168,22090,13756
3183.3,-32825,-71787,22267,13932
3185.3,-32804,-71569,22230,13886
3187.3,-33316,-71959,21987,13615
3189.3,-33818,-72634,21891,13500
3191.3,-33802,-72970,22085,13708
3193.3,-33648,-72965,22260,13918
3195.3,-33626,-72867,22191,13865
3197.3,-33332,-72641,22124,13790
3199.3,-32764,-72334,22280,13949
3201.3,-32504,-72090,22401,14093
3203.3,-32586,-71818,22247,13963
3205.33,-32615,-71607,22062,13807
3207.35,-32659,-71813,22110,13907
3209.38,-32813,-72242,22232,14097
3211.4,-32792,-72364,22216,14129
3213.4,-32707,-72332,22099,14026
3215.4,-32886,-72456,21958,13875
3217.4,-32904,-72368,21824,13722
3219.4,-32446,-72011,21781,13654
3221.4,-32281,-72133,21819,13667
3223.4,-32811,-72833,21795,13630
3225.4,-33214,-73265,21720,13559
3227.4,-33131,-73170,21770,13614
3229.4,-33169,-73000,21954,13791
3231.4,-33344,-72844,22069,13914
3233.4,-33186,-72630,22011,13887
3235.4,-32985,-72555,21890,13768
3237.4,-33155,-72558,21855,13685
3239.4,-33320,-72457,21911,13705
3241.4,-33204,-72465,21935,13745
3243.4,-33159,-72591,21876,13704
3245.4,-33295,-72471,21839,13662
3247.4,-33307,-72338,21883,13713
3249.4,-33184,-72702,21896,13752
3251.4,-33176,-73180,21775,13628
3253.4,-33260,-73194,21588,13402
3255.4,-33213,-73005,21495,13284
3257.4,-33020,-72924,21583,13379
3259.4,-32967,-72850,21717,13511
3261.4,-33322,-73029,21650,13409
3263.4,-33939,-73639,21407,13128
3265.4,-34355,-73989,21282,13007
3267.4,-34325,-73686,21341,13109
3269.4,-34056,-73448,21373,13174
3271.4,-33922,-73644,21349,13143
3273.4,-34086,-73689,21390,13158
3275.4,-34319,-73440,21431,13183
3277.4,-34244,-73351,21392,13144
3279.4,-33901,-73380,21381,13127
3281.4,-33782,-73310,21462,13161
3283.4,-34032,-73354,21601,13205
3285.4,-34162,-73397,21858,13347
3287.4,-33929,-73046,22231,13603
3289.4,-33713,-72672,22520,13783
3291.4,-33681,-72748,22655,13864
3293.4,-33494,-72777,22798,14073
3295.4,-33153,-72411,22973,14433
3297.4,-33059,-72182,23025,14740
3299.4,-33111,-72121,22993,15043
3301.4,-32816,-71537,23130,15638
3303.4,-32125,-70448,23540,16620
3305.4,-31318,-69297,24064,17813
3307.4,-30504,-67972,24537,19025
3309.4,-29717,-66536,24938,20110
3311.4,-28897,-65506,25285,20952
3313.4,-27864,-64850,25517,21567
3315.4,-27008,-64453,25492,21980
3317.4,-27254,-64942,25048,22006
3319.4,-28597,-66260,24218,21490
3321.4,-29832,-67173,23299,20630
3323.4,-30398,-67627,22408,19498
3325.4,-31069,-69035,21155,17624
3327.4,-32293,-71343,19280,14841
3329.4,-33330,-72864,17378,12094
3331.4,-33600,-73292,16329,10500
3333.4,-33636,-73820,16226,10063
3335.4,-34128,-74578,16515,10052
3337.4,-34889,-74764,16907,10140
3339.4,-35297,-74536,17528,10481
3341.4,-35176,-74484,18371,11074
3343.4,-34792,-74291,19158,11663
3345.43,-34373,-73623,19778,12146
3347.45,-34003,-73033,20419,12670
3349.48,-33779,-72950,21119,13260
3351.5,-33784,-73113,21567,13630
3353.5,-33937,-73318,21577,13582
3355.5,-33977,-73506,21424,13358
3357.5,-33707,-73356,21456,13329
3359.5,-33266,-72813,21643,13493
3361.5,-33027,-72448,21744,13572
3363.5,-33177,-72624,21702,13472
3365.5,-33492,-73027,21657,13386
3367.5,-33618,-73277,21668,13424
3369.5,-33531,-73344,21641,13447
3371.5,-33519,-73313,21537,13348
3373.5,-33695,-73245,21438,13222
3375.5,-33872,-73247,21372,13148
3377.5,-33940,-73407,21327,13099
3379.5,-33981,-73626,21374,13117
3381.5,-34047,-73686,21502,13211
3383.5,-34115,-73543,21520,13225
3385.5,-34135,-73414,21428,13145
3387.5,-34030,-73434,21491,13222
3389.5,-33884,-73441,21709,13467
3391.5,-33856,-73290,21791,13577
3393.5,-33750,-73057,21771,13537
3395.5,-33304,-72843,21899,13593
3397.5,-32964,-72739,21987,13629
3399.5,-33300,-72890,21748,13404
3401.5,-33840,-73222,21499,13195
3403.5,-33771,-73362,21632,13345
3405.5,-33367,-73196,21884,13598
3407.5,-33390,-73093,21892,13614
3409.5,-33737,-73279,21799,13526
3411.5,-33892,-73454,21787,13499
3413.5,-33901,-73301,21768,13460
3415.5,-33947,-72996,21761,13451
3417.5,-33837,-72951,21886,13592
3419.5,-33526,-73218,22048,13761
3421.5,-33317,-73407,22083,13778
3423.5,-33302,-73244,22007,13690
3425.5,-33245,-72941,21944,13639
3427.5,-33035,-72751,22015,13721
3429.5,-32852,-72591,22212,13913
3431.5,-32914,-72465,22318,14033
3433.5,-33184,-72618,22222,13969
3435.5,-33348,-72935,22134,13868
3437.5,-33285,-73027,22172,13839
3439.5,-33332,-72997,22179,13792
3441.5,-33618,-73166,22135,13740
3443.5,-33671,-73297,22186,13795
3445.5,-33323,-73090,22278,13888
3447.5,-33165,-72867,22272,13900
3449.5,-33398,-72925,22238,13888
3451.5,-33455,-73022,22242,13898
3453.5,-33277,-72994,22224,13875
3455.5,-33397,-72918,22247,13891
3457.5,-33541,-72622,22434,14056
3459.5,-33042,-72055,22651,14248
3461.5,-32443,-71793,22689,14292
3463.5,-32693,-72251,22624,14257
3465.5,-33326,-72942,22632,14283
3467.5,-33409,-73237,22656,14304
3469.5,-33248,-73184,22580,14212
3471.5,-33442,-73100,22491,14099
3473.5,-33566,-73041,22533,14124
3475.5,-33204,-72958,22701,14297
3477.5,-32898,-72856,22901,14498
3479.5,-33049,-72740,23015,14582
3481.5,-33192,-72686,22977,14512
3483.5,-32946,-72752,22897,14436
3485.5,-32585,-72700,22924,14480
3487.5,-32436,-72333,22979,14545
3489.5,-32516,-72037,22974,14554
3491.5,-32698,-72213,23067,14652
3493.6,-32773,-72489,23304,14867
3495.6,-32605,-72378,23420,14960
3497.6,-32306,-72123,23339,14882
3499.6,-32020,-72052,23303,14844
3501.6,-31793,-71982,23371,14881
3503.6,-31767,-71852,23387,14874
3505.6,-32035,-71938,23379,14868
3507.6,-32322,-72226,23459,14953
3509.6,-32336,-72427,23579,15073
3511.6,-32218,-72401,23635,15144
3513.6,-32198,-72085,23579,15104
3515.6,-32160,-71585,23473,14999
3517.6,-31899,-71349,23558,15075
3519.6,-31530,-71557,23916,15415
3521.6,-31401,-71766,24179,15659
3523.6,-31697,-71763,24061,15544
3525.6,-32223,-71935,23820,15339
3527.6,-32581,-72296,23781,15330
3529.6,-32512,-72214,23898,15444
3531.6,-32050,-71558,24044,15575
3533.6,-31490,-71070,24193,15717
3535.6,-31294,-71222,24251,15775
3537.6,-31722,-71664,24148,15685
3539.6,-32373,-71956,24007,15576
3541.6,-32502,-71974,23993,15596
3543.6,-32011,-71701,24114,15742
3545.6,-31591,-71346,24250,15902
3547.6,-31638,-71266,24275,15944
3549.6,-31763,-71335,24188,15852
3551.6,-31722,-71235,24121,15769
3553.6,-31859,-71241,24131,15775
3555.6,-32223,-71520,24103,15741
3557.6,-32339,-71409,23950,15570
3559.6,-32115,-70773,23753,15370
3561.6,-31922,-70656,23645,15284
3563.6,-31868,-71350,23683,15334
3565.6,-31916,-71748,23809,15456
3567.6,-32143,-71460,23840,15501
3569.6,-32342,-71345,23646,15343
3571.6,-32357,-71657,23395,15119
3573.6,-32723,-71803,23332,15056
3575.6,-33580,-71770,23319,15029
3577.6,-33871,-72007,23093,14777
3579.6,-33166,-72410,22808,14469
3581.6,-32665,-72609,22745,14405
3583.6,-32972,-72560,22771,14446
3585.6,-33110,-72381,22678,14355
3587.6,-32766,-72297,22568,14241
3589.6,-32837,-72534,22521,14216
3591.6,-33232,-72718,22476,14206
3593.6,-32930,-72247,22504,14241
3595.6,-32265,-71597,22611,14332
3597.6,-32413,-71779,22537,14247
3599.6,-33125,-72489,22233,13938
3601.6,-33384,-72661,22010,13714
3603.6,-33342,-72457,21988,13704
3605.6,-33580,-72709,22003,13746
3607.6,-33793,-73180,22027,13787
3609.6,-33703,-73189,22086,13843
3611.6,-33736,-72966,22053,13811
3613.6,-33937,-72993,21951,13723
3615.6,-33803,-73090,21989,13766
3617.6,-33423,-72981,22104,13874
3619.6,-33302,-72789,22081,13848
3621.6,-33326,-72672,22035,13818
3623.6,-33196,-72630,22133,13940
3625.6,-33172,-72648,22151,13970
3627.6,-33398,-72652,21969,13771
3629.6,-33425,-72514,21926,13701
3631.6,-33116,-72320,22138,13908
3633.6,-33023,-72413,22201,13983
3635.63,-33409,-72918,21981,13763
3637.65,-33836,-73407,21836,13605
3639.68,-33926,-73410,21874,13643
3641.7,-33800,-73109,21865,13638
3643.7,-33721,-72983,21833,13599
3645.7,-33723,-72984,21973,13727
3647.7,-33640,-72798,22170,13927
3649.7,-33435,-72602,22180,13958
3651.7,-33357,-72691,22043,13838
3653.7,-33482,-72812,21952,13743
3655.7,-33470,-72698,21974,13744
3657.7,-33322,-72726,22053,13819
3659.7,-33601,-73147,22136,13923
3661.7,-34232,-73394,22190,13978
3663.7,-34281,-73010,22139,13891
3665.7,-33574,-72522,21919,13655
3667.7,-33145,-72583,21677,13437
3669.7,-33532,-73014,21658,13434
3671.7,-34031,-73289,21828,13600
3673.7,-34005,-73279,21942,13727
3675.7,-33723,-73149,21962,13771
3677.7,-33638,-73021,21982,13789
3679.7,-33706,-72913,21942,13735
3681.7,-33677,-72810,21829,13616
3683.7,-33567,-72806,21809,13577
3685.7,-33563,-72979,21871,13623
3687.7,-33638,-73078,21843,13610
3689.7,-33607,-72864,21794,13576
3691.7,-33508,-72707,21894,13651
3693.7,-33519,-72990,22005,13738
3695.7,-33569,-73239,21933,13697
3697.7,-33491,-72943,21815,13627
3699.7,-33384,-72568,21856,13670
3701.7,-33369,-72625,21985,13763
3703.7,-33366,-72731,22033,13782
3705.7,-33436,-72599,22015,13761
3707.7,-33727,-72640,22045,13804
3709.7,-33915,-72875,22107,13878
3711.7,-33595,-72794,22060,13825
3713.7,-33195,-72567,21883,13636
3715.7,-33386,-72787,21732,13499
3717.7,-33837,-73175,21694,13496
3719.7,-33889,-73161,21688,13494
3721.7,-33834,-73097,21670,13440
3723.7,-34101,-73384,21703,13446
3725.7,-34087,-73357,21778,13529
3727.7,-33341,-72532,21818,13582
3729.7,-32790,-71869,21828,13596
3731.7,-33247,-72363,21859,13621
3733.7,-33988,-73413,21863,13601
3735.7,-34135,-73879,21803,13518
3737.7,-34059,-73751,21801,13533
3739.7,-34290,-73615,21911,13687
3741.7,-34495,-73509,21921,13710
3743.7,-34340,-73298,21722,13490
3745.7,-34059,-73202,21599,13348
3747.7,-33848,-73280,21728,13466
3749.7,-33698,-73287,21823,13547
3751.7,-33681,-73251,21718,13445
3753.7,-33759,-73348,21690,13442
3755.7,-33829,-73461,21815,13579
3757.7,-34002,-73450,21791,13532
3759.7,-34187,-73368,21643,13366
3761.7,-33949,-73183,21707,13452
3763.7,-33393,-72903,21891,13674
3765.7,-33205,-72817,21875,13669
3767.7,-33486,-73044,21765,13545
3769.7,-33763,-73299,21746,13516
3771.7,-33939,-73427,21634,13407
3773.7,-34111,-73518,21415,13191
3775.73,-34085,-73479,21450,13223
3777.75,-33870,-73203,21754,13525
3779.78,-33798,-72952,21910,13683
3781.8,-33840,-72959,21817,13596
3783.8,-33734,-73060,21738,13527
3785.8,-33576,-73082,21741,13544
3787.8,-33551,-73086,21740,13541
3789.8,-33605,-73047,21785,13560
3791.8,-33750,-72850,21859,13610
3793.8,-34018,-72665,21776,13527
3795.8,-34120,-72771,21582,13338
3797.8,-33822,-73009,21575,13324
3799.8,-33416,-72938,21775,13538
3801.8,-33313,-72572,21878,13683
3803.8,-33547,-72462,21794,13606
3805.8,-33977,-72928,21744,13513
3807.8,-34443,-73569,21839,13578
3809.8,-34555,-73727,21963,13709
3811.8,-34041,-73260,22034,13767
3813.8,-33432,-72671,22058,13751
3815.8,-33490,-72492,22056,13746
3817.8,-33968,-72691,22081,13811
3819.8,-34039,-72851,22161,13905
3821.8,-33749,-72784,22230,13949
3823.8,-33697,-72668,22268,13970
3825.8,-33724,-72604,22288,13997
3827.8,-33387,-72487,22218,13932
3829.8,-33060,-72369,22088,13797
3831.8,-33177,-72501,22133,13849
3833.8,-33248,-72794,22366,14104
3835.8,-32886,-72763,22445,14211
3837.8,-32675,-72331,22265,14059
3839.8,-32978,-72134,22106,13935
3841.8,-33223,-72516,22084,13968
3843.8,-33182,-72881,22051,13996
3845.8,-33452,-72707,21993,13965
3847.8,-33948,-72417,21989,13941
3849.8,-33698,-72495,21968,13898
3851.8,-32791,-72720,21894,13828
3853.8,-32605,-72894,21867,13795
3855.8,-33429,-73194,21896,13789
3857.8,-33893,-73459,21924,13798
3859.8,-33380,-73310,22016,13907
3861.8,-32874,-72916,22184,14086
3863.8,-32892,-72615,22267,14147
3865.8,-32770,-72348,22205,14060
3867.8,-32467,-72237,22146,13992
3869.8,-32896,-72700,22135,13974
3871.8,-33988,-73468,22040,13867
3873.8,-34444,-73737,21859,13688
3875.8,-33846,-73445,21770,13621
3877.8,-33226,-73163,21805,13692
3879.8,-33299,-73039,21783,13714
3881.8,-33675,-73029,21615,13571
3883.8,-33923,-73360,21448,13372
3885.8,-34064,-73794,21409,13272
3887.8,-34071,-73630,21432,13277
3889.8,-33910,-73090,21448,13311
3891.8,-33878,-73139,21482,13326
3893.8,-34168,-73715,21492,13287
3895.8,-34454,-73923,21431,13219
3897.8,-34395,-73731,21453,13268
3899.8,-34180,-73721,21645,13467
3901.8,-34139,-73812,21744,13561
3903.8,-34224,-73704,21580,13415
3905.8,-34251,-73624,21445,13293
3907.8,-34282,-73709,21522,13356
3909.8,-34376,-73711,21533,13341
3911.8,-34389,-73608,21403,13161
3913.8,-34345,-73554,21530,13200
3915.8,-34432,-73439,22008,13585
3917.8,-34536,-73239,22365,13862
3919.8,-34456,-73233,22400,13793
3921.8,-34419,-73444,22481,13778
3923.8,-34630,-73541,22812,14141
3925.83,-34755,-73415,23107,14601
3927.85,-34437,-73157,23145,14839
3929.88,-33726,-72622,23134,15075
3931.9,-32855,-71693,23369,15706
3933.9,-32171,-70705,23830,16708
3935.9,-31938,-69967,24255,17761
3937.9,-31764,-69230,24523,18751
3939.9,-30966,-68121,24815,19793
3941.9,-29660,-66797,25255,20831
3943.9,-28651,-65835,25566,21558
3945.9,-28357,-65684,25419,21793
3947.9,-28579,-66189,24943,21710
3949.9,-29019,-66661,24465,21528
3951.9,-29633,-66843,23912,21107
3953.9,-30562,-67492,22948,20049
3955.9,-31725,-69248,21523,18122
3957.9,-32714,-71535,19828,15511
3959.9,-33388,-73431,18076,12808
3961.9,-34033,-74713,16681,10791
3963.9,-34675,-75396,16117,9897
3965.9,-35066,-75414,16329,9847
3967.9,-35292,-75084,16826,10072
3969.9,-35501,-74824,17412,10399
3971.9,-35479,-74616,18168,10935
3973.9,-35174,-74377,18945,11547
3975.9,-34869,-74152,19562,12045
3977.9,-34602,-73765,20171,12537
3979.9,-34315,-73212,20869,13131
3981.9,-34258,-72980,21415,13614
3983.9,-34414,-73185,21676,13813
3985.9,-34340,-73367,21797,13838
3987.9,-34126,-73495,21822,13785
3989.9,-34324,-73834,21685,13622
3991.9,-34735,-74047,21523,13428
3993.9,-34678,-73798,21528,13372
3995.9,-34322,-73528,21637,13468
3997.9,-34315,-73586,21726,13600
3999.9,-34483,-73690,21827,13712
4001.9,-34316,-73710,21950,13785
4003.9,-34144,-73747,21972,13770
4005.9,-34488,-73595,21884,13686
4007.9,-34927,-73316,21826,13630
4009.9,-34829,-73540,21799,13594
4011.9,-34368,-74153,21723,13518
4013.9,-33925,-74079,21726,13533
4015.9,-33552,-73225,21931,13759
4017.9,-33506,-72869,22087,13954
4019.9,-34054,-73456,21946,13842
4021.9,-34683,-73962,21747,13630
4023.9,-34741,-73838,21799,13643
4025.9,-34500,-73664,21948,13760
4027.9,-34523,-73773,21970,13758
4029.9,-34725,-73875,21981,13758
4031.9,-34756,-73821,22056,13850
4033.9,-34545,-73664,22030,13846
4035.9,-34203,-73470,21897,13720
4037.9,-33967,-73455,21868,13708
4039.9,-34062,-73633,21958,13832
4041.9,-34315,-73643,22002,13882
4043.9,-34401,-73514,21983,13835
4045.9,-34368,-73673,21992,13838
4047.9,-34373,-73914,22024,13901
4049.9,-34326,-73705,22032,13926
4051.9,-34216,-73368,22037,13906
4053.9,-34222,-73475,22088,13917
4055.9,-34296,-73670,22197,14002
4057.9,-34260,-73506,22317,14123
4059.9,-34180,-73383,22380,14208
4061.9,-34128,-73494,22393,14247
4063.9,-33957,-73304,22420,14287
4065.93,-33730,-72880,22450,14320
4067.95,-33825,-73013,22405,14269
4069.98,-34247,-73615,22296,14124
4072.0,-34493,-73775,22241,14006
4074.0,-34382,-73479,22323,14056
4076.0,-34318,-73502,22484,14242
4078.0,-34415,-73770,22564,14358
4080.0,-34280,-73562,22511,14304
4082.0,-34026,-73094,22478,14254
4084.0,-34256,-73179,22602,14376
4086.0,-34641,-73539,22805,14584
4088.0,-34194,-73222,22968,14751
4090.0,-33310,-72510,23081,14860
4092.0,-33389,-72561,23086,14842
4094.0,-34250,-73355,22893,14615
4096.0,-34462,-73840,22642,14358
4098.0,-34037,-73729,22616,14351
4100.0,-34083,-73470,22816,14558
4102.0,-34417,-73165,22980,14709
4104.0,-34187,-72880,22999,14724
4106.0,-33752,-72963,23019,14736
4108.0,-33689,-73173,23132,14811
4110.0,-33491,-72852,23236,14874
4112.0,-32980,-72321,23231,14867
4114.0,-33039,-72536,23170,14831
4116.0,-33752,-73284,23168,14836
4118.0,-33947,-73371,23271,14939
4120.0,-33355,-72658,23445,15130
4122.0,-33088,-72336,23561,15261
4124.0,-33562,-72931,23471,15162
4126.0,-33896,-73472,23281,14965
4128.0,-33654,-73173,23323,15027
4130.0,-33474,-72638,23626,15334
4132.0,-33727,-72635,23785,15451
4134.0,-33901,-72878,23642,15267
4136.0,-33631,-72876,23538,15179
4138.0,-33322,-72861,23662,15343
4140.0,-33376,-73084,23775,15475
4142.0,-33496,-73165,23760,15467
4144.0,-33252,-72807,23775,15500
4146.0,-32885,-72382,23862,15591
4148.0,-32893,-72289,23952,15656
4150.0,-33115,-72330,24075,15768
4152.0,-32985,-72158,24215,15928
4154.0,-32517,-71832,24243,15968
4156.0,-32316,-71584,24183,15890
4158.0,-32677,-71560,24177,15874
4160.0,-33201,-71904,24212,15936
4162.0,-33307,-72464,24234,15997
4164.0,-32917,-72650,24306,16075
4166.0,-32567,-72327,24420,16146
4168.0,-32719,-72169,24432,16111
4170.0,-33106,-72432,24354,16030
4172.0,-33157,-72483,24375,16074
4174.0,-32847,-72043,24519,16229
4176.0,-32592,-71629,24610,16333
4178.0,-32610,-71569,24586,16351
4180.0,-32817,-71710,24560,16367
4182.0,-33060,-71857,24582,16392
4184.0,-33217,-71816,24570,16366
4186.0,-33309,-71578,24497,16286
4188.0,-33429,-71532,24426,16200
4190.0,-33493,-71842,24339,16093
4192.0,-33431,-72113,24151,15902
4194.0,-33417,-72124,23924,15681
4196.0,-33456,-72010,23851,15597
4198.0,-33262,-71776,23937,15673
4200.0,-33007,-71603,23927,15699
4202.0,-33282,-71995,23714,15548
4204.0,-33957,-72786,23522,15384
4206.0,-34186,-73088,23485,15331
4208.0,-33815,-72707,23409,15238
4210.0,-33626,-72367,23199,15024
4212.0,-34016,-72462,23068,14887
4214.0,-34507,-72761,23084,14894
4216.03,-34657,-73048,23043,14855
4218.05,-34580,-73199,22928,14745
4220.08,-34494,-73096,22914,14733
4222.1,-34396,-72896,22996,14815
4224.1,-34264,-72831,23044,14871
4226.1,-34177,-72753,23008,14863
4228.1,-34174,-72512,22880,14771
4230.1,-34164,-72377,22746,14643
4232.1,-34068,-72491,22743,14617
4234.1,-34010,-72575,22735,14600
4236.1,-34199,-72611,22523,14395
4238.1,-34535,-72888,22347,14219
4240.1,-34701,-73191,22429,14310
4242.1,-34753,-73082,22432,14349
4244.1,-34995,-72924,22201,14147
4246.1,-35257,-73323,22191,14128
4248.1,-35147,-73969,22488,14409
4250.1,-34958,-74211,22598,14521
4252.1,-35217,-74053,22482,14412
4254.1,-35549,-73732,22497,14436
4256.1,-35252,-73309,22507,14460
4258.1,-34616,-73056,22320,14275
4260.1,-34387,-73144,22342,14271
4262.1,-34490,-73161,22719,14615
4264.1,-34483,-72949,22851,14739
4266.1,-34540,-73067,22487,14389
4268.1,-34902,-73586,22158,14068
4270.1,-35157,-73745,22177,14087
4272.1,-34968,-73432,22283,14201
4274.1,-34755,-73441,22319,14262
4276.1,-34905,-73853,22388,14354
4278.1,-35102,-73857,22481,14443
4280.1,-35014,-73357,22505,14450
4282.1,-34868,-73119,22466,14419
4284.1,-34867,-73306,22400,14380
4286.1,-34829,-73350,22334,14325
4288.1,-34728,-73164,22315,14287
4290.1,-34763,-73168,22340,14286
4292.1,-34784,-73286,22373,14301
4294.1,-34549,-73082,22420,14338
4296.1,-34391,-72716,22449,14373
4298.1,-34630,-72727,22412,14359
4300.1,-34789,-73009,22408,14383
4302.1,-34454,-73014,22542,14536
4304.1,-34198,-72818,22653,14654
4306.1,-34570,-72925,22534,14524
4308.1,-35103,-73268,22299,14271
4310.1,-35227,-73483,22192,14166
4312.1,-35131,-73652,22225,14211
4314.1,-35084,-73798,22253,14240
4316.1,-35000,-73544,22243,14233
4318.1,-34962,-73063,22232,14248
4320.1,-35184,-73091,22183,14228
4322.1,-35459,-73548,22100,14144
4324.1,-35472,-73677,22144,14162
4326.1,-35348,-73511,22391,14368
4328.1,-35305,-73591,22579,14520
4330.1,-35224,-73731,22462,14399
4332.1,-35047,-73548,22239,14201
4334.1,-35035,-73342,22243,14224
4336.1,-35222,-73360,22412,14403
4338.1,-35220,-73317,22470,14493
4340.1,-34972,-73241,22387,14444
4342.1,-34976,-73476,22293,14346
4344.1,-35329,-73760,22206,14235
4346.1,-35462,-73658,22096,14128
4348.1,-35229,-73535,22036,14076
4350.1,-35145,-73760,22103,14118
4352.1,-35298,-73754,22215,14202
4354.1,-35246,-73192,22210,14215
4356.13,-35026,-72917,22115,14147
4358.15,-35015,-73346,22134,14152
4360.18,-35079,-73555,22273,14255
4362.2,-34939,-73104,22310,14283
4364.2,-34802,-72889,22248,14245
4366.2,-34874,-73338,22340,14362
4368.2,-35039,-73776,22511,14537
4370.2,-35236,-73918,22412,14440
4372.2,-35372,-74014,22152,14194
4374.2,-35188,-73841,22199,14243
4376.2,-34890,-73315,22496,14509
4378.2,-35078,-73175,22519,14509
4380.2,-35596,-73675,22242,14249
4382.2,-35651,-73980,22134,14163
4384.2,-35190,-73653,22255,14287
4386.2,-34883,-73246,22267,14310
4388.2,-34914,-73134,22149,14211
4390.2,-35005,-73169,22122,14173
4392.2,-35193,-73353,22150,14179
4394.2,-35559,-73782,22134,14172
4396.2,-35750,-74169,22150,14211
4398.2,-35539,-74141,22205,14261
4400.2,-35288,-73843,22227,14269
4402.2,-35357,-73775,22262,14307
4404.2,-35559,-74013,22258,14307
4406.2,-35555,-74021,22064,14109
4408.2,-35346,-73549,21891,13935
4410.2,-35140,-73144,22068,14105
4412.2,-35057,-73250,22346,14370
4414.2,-35121,-73552,22291,14323
4416.2,-35316,-73719,22061,14129
4418.2,-35555,-73858,22026,14111
4420.2,-35711,-73917,22123,14197
4422.2,-35702,-73699,22180,14249
4424.2,-35541,-73472,22253,14325
4426.2,-35346,-73489,22374,14425
4428.2,-35257,-73399,22487,14503
4430.2,-35297,-73022,22613,14604
4432.2,-35335,-72792,22728,14693
4434.2,-35226,-72834,22773,14712
4436.2,-35030,-72790,22823,14764
4438.2,-34980,-72703,22891,14867
4440.2,-35121,-72852,22829,14847
4442.2,-35174,-73013,22688,14736
4444.2,-35017,-72932,22682,14729
4446.2,-34952,-72849,22748,14761
4448.2,-35129,-72914,22704,14685
4450.2,-35213,-72955,22627,14615
4452.2,-35041,-72978,22633,14640
4454.2,-34942,-73047,22678,14684
4456.2,-34993,-73007,22759,14777
4458.2,-34840,-72924,22849,14930
4460.2,-34533,-73074,22766,14929
4462.2,-34581,-73272,22511,14729
4464.2,-34965,-73152,22364,14608
4466.2,-35093,-72947,22388,14643
4468.2,-34826,-73058,22370,14628
4470.2,-34622,-73307,22310,14564
4472.2,-34682,-73379,22365,14603
4474.2,-34735,-73364,22455,14670
4476.2,-34638,-73367,22433,14647
4478.2,-34579,-73278,22415,14651
4480.2,-34686,-73130,22542,14790
4482.2,-34850,-73092,22693,14927
4484.2,-34980,-73201,22676,14901
4486.2,-35096,-73380,22522,14750
4488.2,-35088,-73421,22421,14639
4490.2,-34818,-73105,22485,14686
4492.2,-34542,-72712,22632,14837
4494.2,-34661,-72845,22679,14896
4496.2,-35041,-73417,22543,14749
4498.2,-35259,-73739,22341,14523
4500.2,-35288,-73684,22222,14397
4502.2,-35256,-73631,22182,14366
4504.2,-35064,-73532,22188,14378
4506.23,-34853,-73226,22305,14490
4508.25,-35080,-73138,22457,14633
4510.28,-35715,-73650,22384,14543
4512.3,-36212,-74377,22083,14213
4514.3,-36318,-74682,21866,13971
4516.3,-36194,-74353,21853,13946
4518.3,-35980,-73694,21897,13992
4520.3,-35776,-73312,21988,14105
4522.3,-35669,-73508,22167,14323
4524.3,-35639,-73890,22281,14460
4526.3,-35784,-74050,22265,14431
4528.3,-36217,-74166,22278,14420
4530.3,-36510,-74357,22328,14460
4532.3,-36150,-74314,22281,14375
4534.3,-35607,-74031,22231,14230
4536.3,-35736,-73895,22387,14288
4538.3,-36282,-73899,22712,14546
4540.3,-36367,-73770,23008,14757
4542.3,-36006,-73628,23195,14838
4544.3,-35801,-73601,23335,14963
4546.3,-35771,-73419,23506,15257
4548.3,-35574,-73016,23686,15636
4550.3,-35207,-72686,23806,16026
4552.3,-34828,-72372,23934,16552
4554.3,-34476,-71755,24215,17341
4556.3,-34107,-70882,24631,18351
4558.3,-33537,-69911,25061,19505
4560.3,-32678,-68775,25483,20722
4562.3,-31825,-67648,25871,21746
4564.3,-31229,-66954,26068,22337
4566.3,-30767,-66776,25946,22561
4568.3,-30477,-66881,25545,22570
4570.3,-30619,-67076,24990,22350
4572.3,-31082,-67270,24374,21860
4574.3,-31659,-67797,23610,20998
4576.3,-32594,-69361,22394,19362
4578.3,-33927,-71839,20593,16733
4580.3,-35054,-73972,18635,13786
4582.3,-35682,-75017,17206,11628
4584.3,-36235,-75503,16598,10657
4586.3,-36884,-75911,16645,10476
4588.3,-37269,-76031,17111,10688
4590.3,-37331,-75813,17799,11128
4592.3,-37371,-75554,18484,11612
4594.3,-37346,-75285,19103,12060
4596.3,-36995,-74886,19819,12629
4598.3,-36477,-74463,20666,13356
4600.3,-36117,-74073,21422,14008
4602.3,-35813,-73577,21975,14475
4604.3,-35350,-73089,22398,14837
4606.3,-35021,-73022,22629,15000
4608.3,-35255,-73439,22544,14830
4610.3,-35881,-73869,22304,14523
4612.3,-36324,-74016,22164,14353
4614.3,-36363,-74072,22135,14307
4616.3,-36242,-74153,22139,14301
4618.3,-36196,-74103,22219,14390
4620.3,-36234,-74004,22372,14562
4622.3,-36313,-74085,22497,14701
4624.3,-36393,-74181,22549,14761
4626.3,-36327,-74045,22525,14730
4628.3,-36085,-73902,22424,14597
4630.3,-36000,-74033,22342,14473
4632.3,-36220,-74240,22381,14496
4634.3,-36206,-74197,22485,14613
4636.3,-35602,-73931,22571,14722
4638.3,-35067,-73704,22644,14826
4640.3,-35244,-73670,22673,14878
4642.3,-35636,-73701,22622,14813
4644.3,-35542,-73622,22611,14769
4646.33,-35289,-73588,22693,14848
4648.35,-35551,-73884,22651,14833
4650.38,-36115,-74314,22418,14616
4652.4,-36216,-74359,22322,14517
4654.4,-35794,-73994,22517,14701
4656.4,-35549,-73683,22666,14823
4658.4,-35736,-73610,22556,14684
4660.4,-35876,-73632,22457,14589
4662.4,-35830,-73862,22593,14749
4664.4,-36001,-74409,22791,14950
4666.4,-36268,-74730,22860,15013
4668.4,-36077,-74264,22841,15008
4670.4,-35636,-73530,22806,14977
4672.4,-35619,-73457,22757,14897
4674.4,-35871,-73908,22756,14867
4676.4,-35743,-74041,22885,15011
4678.4,-35335,-73762,23078,15242
4680.4,-35213,-73614,23149,15341
4682.4,-35427,-73663,23040,15246
4684.4,-35699,-73667,22909,15101
4686.4,-35945,-73768,22896,15036
4688.4,-36059,-74080,22963,15048
4690.4,-35889,-74264,23025,15098
4692.4,-35667,-74127,23079,15166
4694.4,-35748,-73915,23136,15223
4696.4,-36002,-73797,23192,15270
4698.4,-36043,-73738,23247,15337
4700.4,-35811,-73755,23278,15390
4702.4,-35547,-73784,23272,15383
4704.4,-35466,-73672,23289,15390
4706.4,-35553,-73496,23363,15467
4708.4,-35561,-73446,23438,15538
4710.4,-35427,-73499,23497,15567
4712.4,-35386,-73523,23569,15616
4714.4,-35374,-73410,23614,15672
4716.4,-35045,-73067,23617,15693
4718.4,-34663,-72662,23706,15780
4720.4,-34803,-72587,23919,15979
4722.4,-35190,-72866,24052,16107
4724.4,-35230,-73163,23943,15997
4726.4,-35190,-73433,23717,15766
4728.4,-35460,-73749,23613,15650
4730.4,-35615,-73812,23688,15708
4732.4,-35387,-73556,23782,15778
4734.4,-35296,-73544,23751,15718
4736.4,-35486,-73859,23681,15633
4738.4,-35393,-73743,23768,15735
4740.4,-34995,-73129,23981,15979
4742.4,-34932,-72946,24061,16077
4744.4,-35259,-73348,23960,15977
4746.4,-35367,-73497,23961,15980
4748.4,-35054,-73267,24190,16207
4750.4,-34669,-73191,24372,16359
4752.4,-34474,-73127,24331,16271
4754.4,-34492,-72813,24295,16214
4756.4,-34666,-72808,24406,16337
4758.4,-34861,-73319,24441,16395
4760.4,-34965,-73528,24325,16295
4762.4,-34999,-73155,24306,16289
4764.4,-34974,-72992,24439,16434
4766.4,-34883,-73318,24519,16516
4768.4,-34828,-73510,24541,16524
4770.4,-34836,-73324,24660,16629
4772.4,-34737,-73055,24821,16796
4774.4,-34507,-72747,24883,16874
4776.4,-34375,-72385,24859,16853
4778.4,-34390,-72242,24843,16825
4780.4,-34338,-72334,24900,16892
4782.4,-34199,-72339,25033,17056
4784.4,-34142,-72241,25130,17167
4786.43,-34063,-72171,25159,17182
4788.45,-33747,-71946,25274,17291
4790.48,-33396,-71584,25452,17491
4792.5,-33430,-71553,25430,17495
4794.5,-33939,-71975,25242,17313
4796.5,-34669,-72435,25197,17262
4798.5,-35220,-72654,25257,17320
4800.5,-35229,-72594,25165,17243
4802.5,-34844,-72335,25043,17136
4804.5,-34676,-72235,25096,17185
4806.5,-34858,-72431,25123,17199
4808.5,-34895,-72411,24962,17045
4810.5,-34721,-72020,24854,16949
4812.5,-34771,-71955,24894,16973
4814.5,-34950,-72435,24813,16859
4816.5,-34843,-72760,24569,16600
4818.5,-34683,-72716,24434,16461
4820.5,-34913,-72814,24445,16470
4822.5,-35275,-73053,24424,16469
4824.5,-35337,-72975,24363,16452
4826.5,-35258,-72700,24295,16405
4828.5,-35348,-72688,24106,16205
4830.5,-35527,-72929,23858,15960
4832.5,-35619,-73161,23821,15936
4834.5,-35632,-73286,23955,16054
4836.5,-35611,-73223,23925,16017
4838.5,-35630,-73060,23701,15841
4840.5,-35803,-73204,23548,15735
4842.5,-36013,-73623,23512,15676
4844.5,-35951,-73598,23454,15569
4846.5,-35669,-73035,23405,15515
4848.5,-35594,-72881,23459,15582
4850.5,-35805,-73436,23529,15648
4852.5,-35976,-73848,23501,15609
4854.5,-36003,-73783,23397,15513
4856.5,-35943,-73696,23327,15477
4858.5,-35645,-73490,23387,15576
4860.5,-35258,-72957,23513,15712
4862.5,-35328,-72772,23521,15697
4864.5,-35742,-73151,23437,15604
4866.5,-35803,-73166,23463,15645
4868.5,-35622,-72740,23520,15695
4870.5,-35869,-72961,23380,15513
4872.5,-36343,-73771,23164,15280
4874.5,-36489,-74090,23124,15278
4876.5,-36598,-74023,23175,15375
4878.5,-36962,-74308,23165,15370
4880.5,-36990,-74514,23135,15329
4882.5,-36386,-74040,23066,15267
4884.5,-35877,-73510,22913,15131
4886.5,-35939,-73555,22860,15078
4888.5,-36081,-73712,23009,15208
4890.5,-35892,-73531,23127,15310
4892.5,-35716,-73383,23071,15261
4894.5,-35903,-73561,23012,15230
4896.5,-36179,-73716,23049,15296
4898.5,-36148,-73598,23100,15349
4900.5,-35942,-73488,23139,15369
4902.5,-35944,-73608,23178,15387
4904.5,-36157,-73770,23156,15351
4906.5,-36296,-73800,23078,15273
4908.5,-36309,-73795,23042,15260
4910.5,-36354,-73843,23058,15302
4912.5,-36369,-73821,23074,15306
4914.5,-36133,-73569,23127,15321
4916.5,-35735,-73168,23270,15438
4918.5,-35594,-72931,23400,15568
4920.5,-35830,-73019,23369,15570
4922.5,-36077,-73262,23223,15475
4924.5,-36115,-73499,23153,15418
4926.53,-36126,-73663,23183,15404
4928.55,-36125,-73511,23144,15327
4930.58,-35901,-73017,23033,15224
4932.6,-35627,-72739,23094,15299
4934.6,-35690,-73002,23335,15535
4936.6,-36018,-73382,23387,15595
4938.6,-36343,-73623,23156,15387
4940.6,-36681,-73986,23045,15278
4942.6,-36942,-74386,23189,15411
4944.6,-36840,-74435,23216,15461
4946.6,-36526,-74243,23060,15350
4948.6,-36416,-74056,23100,15401
4950.6,-36407,-73724,23299,15562
4952.6,-36178,-73341,23240,15470
4954.6,-35921,-73378,23006,15239
4956.6,-36012,-73756,22981,15221
4958.6,-36371,-73884,23070,15308
4960.6,-36625,-73641,23022,15283
4962.6,-36563,-73357,22992,15287
4964.6,-36264,-73169,23084,15357
4966.6,-35994,-73130,23059,15266
4968.6,-35960,-73432,22900,15078
4970.6,-36136,-73998,22881,15084
4972.6,-36376,-74372,22990,15227
4974.6,-36510,-74298,22995,15260
4976.6,-36410,-74029,22915,15204
4978.6,-36181,-73972,22906,15207
4980.6,-36108,-74161,22971,15276
4982.6,-36226,-74189,23031,15348
4984.6,-36280,-73766,23021,15336
4986.6,-36153,-73231,22926,15205
4988.6,-36001,-73141,22863,15114
4990.6,-35992,-73508,22927,15193
4992.6,-36143,-73870,22987,15271
4994.6,-36265,-73920,22948,15224
4996.6,-36093,-73699,22987,15269
4998.6,-35756,-73469,23156,15473
5000.6,-35785,-73558,23198,15525
5002.6,-36271,-73981,23039,15334
5004.6,-36579,-74303,22931,15211
5006.6,-36396,-74257,22959,15256
5008.6,-36247,-74101,22961,15257
5010.6,-36391,-73981,22940,15210
5012.6,-36299,-73681,23015,15277
5014.6,-35870,-73353,23113,15388
5016.6,-35787,-73448,23120,15401
5018.6,-36033,-73671,23096,15387
5020.6,-35859,-73407,23116,15436
5022.6,-35578,-73119,23136,15476
5024.6,-36229,-73631,23110,15429
5026.6,-37391,-74455,23034,15307
5028.6,-37676,-74593,22930,15170
5030.6,-37051,-74222,22856,15082
5032.6,-36524,-74020,22824,15047
5034.6,-36380,-73973,22799,15034
5036.6,-36412,-73916,22833,15089
5038.6,-36662,-73943,22951,15225
5040.6,-36894,-73898,23019,15294
5042.6,-36685,-73621,22991,15254
5044.6,-36291,-73403,23058,15305
5046.6,-36162,-73369,23283,15517
5048.6,-36071,-73256,23461,15681
5050.6,-35796,-73101,23488,15689
5052.6,-35724,-73064,23472,15653
5054.6,-35988,-72923,23486,15655
5056.6,-36126,-72699,23531,15698
5058.6,-36000,-72869,23580,15752
5060.6,-35996,-73315,23538,15721
5062.6,-36206,-73421,23372,15569
5064.6,-36293,-73291,23244,15454
5066.63,-36098,-73429,23305,15532
5068.65,-35803,-73614,23489,15726
5070.68,-35644,-73454,23600,15847
5072.7,-35684,-73256,23548,15826
5074.7,-35765,-73347,23439,15755
5076.7,-35730,-73473,23402,15729
5078.7,-35658,-73422,23377,15715
5080.7,-35597,-73301,23290,15682
5082.7,-35351,-73129,23275,15727
5084.7,-34953,-72910,23379,15837
5086.7,-34864,-72863,23367,15800
5088.7,-35193,-73071,23178,15607
5090.7,-35430,-73302,23105,15540
5092.7,-35384,-73431,23226,15636
5094.7,-35494,-73593,23265,15627
5096.7,-35903,-73843,23154,15494
5098.7,-36170,-74027,23104,15460
5100.7,-36102,-73996,23137,15505
5102.7,-35991,-73823,23132,15479
5104.7,-36031,-73748,23150,15471
5106.7,-36149,-73831,23242,15562
5108.7,-36280,-73806,23268,15599
5110.7,-36383,-73580,23215,15551
5112.7,-36409,-73491,23242,15599
5114.7,-36339,-73669,23275,15666
5116.7,-36152,-73757,23111,15521
5118.7,-35986,-73696,22917,15325
5120.7,-36174,-73864,22960,15357
5122.7,-36636,-74159,23071,15439
5124.7,-36710,-74102,22992,15322
5126.7,-36150,-73875,22887,15205
5128.7,-35591,-73967,22940,15259
5130.7,-35550,-74109,22950,15246
5132.7,-35883,-73923,22809,15074
5134.7,-36339,-73841,22766,15047
5136.7,-36730,-74164,22918,15252
5138.7,-36761,-74361,22993,15364
5140.7,-36492,-74209,22840,15218
5142.7,-36449,-74220,22658,15037
5144.7,-36767,-74471,22636,15017
5146.7,-36988,-74488,22707,15076
5148.7,-36898,-74273,22770,15077
5150.7,-36790,-74218,22866,15039
5152.7,-36888,-74358,23020,15037
5154.7,-37067,-74421,23162,15081
5156.7,-37019,-74162,23367,15233
5158.7,-36552,-73577,23823,15610
5160.7,-35900,-73047,24394,16112
5162.7,-35569,-72901,24673,16440
5164.7,-35745,-72938,24586,16538
5166.7,-36157,-72956,24438,16663
5168.7,-36485,-73087,24399,16988
5170.7,-36491,-73095,24470,17542
5172.7,-35990,-72398,24750,18425
5174.7,-35081,-71026,25239,19650
5176.7,-34096,-69529,25715,20953
5178.7,-33158,-68202,26095,22067
5180.7,-32213,-67217,26464,22938
5182.7,-31436,-66820,26685,23540
5184.7,-31087,-66867,26513,23774
5186.7,-31171,-66944,26000,23628
5188.7,-31691,-67133,25344,23199
5190.7,-32769,-67902,24551,22473
5192.7,-34086,-69352,23485,21173
5194.7,-34977,-71164,22011,18970
5196.7,-35434,-73044,20160,16051
5198.7,-36073,-74763,18395,13347
5200.7,-36929,-75967,17374,11772
5202.7,-37415,-76348,17271,11364
5204.7,-37496,-76088,17685,11515
5206.73,-37706,-75817,18247,11803
5208.75,-38020,-75804,18875,12174
5210.78,-37854,-75535,19573,12663
5212.8,-37180,-74676,20356,13284
5214.8,-36698,-73946,21202,14004
5216.8,-36774,-74082,21958,14673
5218.8,-36931,-74563,22506,15160
5220.8,-36719,-74534,22883,15454
5222.8,-36453,-74253,23085,15549
5224.8,-36515,-74316,23067,15470
5226.8,-36590,-74392,22980,15375
5228.8,-36340,-74071,22988,15346
5230.8,-36119,-73875,22992,15272
5232.8,-36261,-74206,22908,15149
5234.8,-36460,-74464,22879,15149
5236.8,-36452,-74194,22968,15275
5238.8,-36417,-73876,23047,15355
5240.8,-36397,-73930,23063,15351
5242.8,-36224,-74057,23088,15349
5244.8,-36067,-73991,23142,15365
5246.8,-36291,-73966,23186,15373
5248.8,-36868,-74237,23175,15352
5250.8,-37364,-74641,23105,15298
5252.8,-37356,-74772,23074,15293
5254.8,-36834,-74515,23152,15391
5256.8,-36293,-74270,23215,15466
5258.8,-36193,-74326,23165,15426
5260.8,-36391,-74341,23119,15397
5262.8,-36487,-74056,23180,15470
5264.8,-36472,-73920,23261,15542
5266.8,-36524,-74224,23297,15553
5268.8,-36514,-74443,23323,15549
5270.8,-36233,-74171,23329,15513
5272.8,-35817,-73753,23337,15480
5274.8,-35542,-73488,23448,15592
5276.8,-35525,-73306,23587,15775
5278.8,-35815,-73360,23520,15742
5280.8,-36368,-73801,23317,15538
5282.8,-36849,-74248,23290,15497
5284.8,-36960,-74448,23394,15583
5286.8,-36856,-74692,23339,15502
5288.8,-36783,-74954,23240,15383
5290.8,-36720,-74821,23377,15519
5292.8,-36647,-74485,23559,15715
5294.8,-36593,-74415,23510,15682
5296.8,-36422,-74388,23429,15609
5298.8,-36161,-74094,23526,15698
5300.8,-36122,-73893,23616,15779
5302.8,-36327,-74042,23587,15758
5304.8,-36465,-74215,23615,15805
5306.8,-36390,-74144,23763,15956
5308.8,-36056,-73792,23907,16080
5310.8,-35532,-73239,23962,16104
5312.8,-35405,-73008,23894,16003
5314.8,-36030,-73550,23758,15843
5316.8,-36619,-74264,23742,15827
5318.8,-36469,-74326,23874,15985
5320.8,-36210,-74102,23934,16069
5322.8,-36479,-74293,23859,15992
5324.8,-36749,-74501,23836,15948
5326.8,-36590,-74099,23932,16022
5328.8,-36419,-73573,24046,16119
5330.8,-36360,-73669,24113,16180
5332.8,-36040,-74060,24105,16176
5334.8,-35615,-73986,24045,16108
5336.8,-35540,-73531,24097,16133
5338.8,-35658,-73338,24324,16347
5340.8,-35598,-73584,24504,16543
5342.8,-35402,-73798,24524,16568
5344.8,-35155,-73509,24602,16612
5346.83,-34907,-72950,24773,16744
5348.85,-35046,-72963,24726,16689
5350.88,-35677,-73738,24446,16418
5352.9,-36073,-74262,24341,16309
5354.9,-35839,-73936,24507,16461
5356.9,-35718,-73636,24620,16568
5358.9,-36174,-73943,24620,16583
5360.9,-36451,-74026,24748,16725
5362.9,-36000,-73501,24931,16894
5364.9,-35431,-73312,24874,16812
5366.9,-35335,-73803,24653,16581
5368.9,-35465,-74085,24583,16503
5370.9,-35465,-73823,24701,16600
5372.9,-35374,-73615,24822,16716
5374.9,-35317,-73604,24904,16824
5376.9,-35330,-73428,24999,16937
5378.9,-35381,-73165,25058,16989
5380.9,-35324,-73081,25028,16953
5382.9,-35112,-73022,25004,16921
5384.9,-34961,-72844,25104,16997
5386.9,-34984,-72794,25288,17162
5388.9,-35016,-73019,25400,17286
5390.9,-34995,-73254,25381,17281
5392.9,-35018,-73223,25327,17213
5394.9,-35033,-73017,25321,17201
5396.9,-34960,-72906,25321,17245
5398.9,-34909,-72926,25300,17275
5400.9,-34893,-72875,25328,17304
5402.9,-34779,-72733,25431,17384
5404.9,-34638,-72719,25525,17487
5406.9,-34617,-72813,25569,17556
5408.9,-34656,-72745,25588,17562
5410.9,-34741,-72538,25559,17503
5412.9,-34949,-72497,25495,17454
5414.9,-35084,-72617,25523,17535
5416.9,-34926,-72599,25659,17699
5418.9,-34708,-72405,25722,17757
5420.9,-34750,-72338,25634,17668
5422.9,-35002,-72581,25506,17554
5424.9,-35290,-72917,25384,17442
5426.9,-35467,-72930,25224,17280
5428.9,-35323,-72497,25117,17168
5430.9,-34960,-72090,25168,17221
5432.9,-34940,-72286,25245,17309
5434.9,-35462,-72925,25158,17233
5436.9,-35899,-73230,24956,17040
5438.9,-35733,-72942,24819,16924
5440.9,-35385,-72656,24812,16946
5442.9,-35501,-72775,24826,16983
5444.9,-35948,-73020,24695,16856
5446.9,-36173,-73218,24402,16547
5448.9,-36110,-73554,24172,16278
5450.9,-36053,-73828,24160,16218
5452.9,-36021,-73607,24208,16254
5454.9,-35888,-73134,24164,16251
5456.9,-35801,-73038,24126,16262
5458.9,-35931,-73351,24119,16272
5460.9,-36185,-73640,24011,16157
5462.9,-36419,-73698,23889,16019
5464.9,-36503,-73577,23952,16057
5466.9,-36254,-73429,24042,16126
5468.9,-35864,-73513,23898,15984
5470.9,-35898,-73854,23695,15797
5472.9,-36317,-74056,23706,15830
5474.9,-36371,-73880,23786,15942
5476.9,-36012,-73672,23727,15908
5478.9,-36116,-73779,23666,15838
5480.9,-36756,-73969,23715,15854
5482.9,-36879,-73896,23713,15834
5484.9,-36284,-73723,23624,15749
5486.9,-36051,-73720,23611,15739
5488.9,-36467,-73704,23655,15776
5490.9,-36583,-73511,23619,15735
5492.9,-36183,-73435,23568,15682
5495.0,-36105,-73635,23610,15723
5497.0,-36453,-73831,23697,15812
5499.0,-36494,-73880,23786,15906
5501.0,-36133,-73778,23859,15986
5503.0,-35841,-73341,23824,15948
5505.0,-35739,-72857,23705,15813
5507.0,-35842,-73172,23686,15793
5509.0,-36235,-74141,23769,15913
5511.0,-36540,-74497,23739,15917
5513.0,-36390,-74022,23594,15741
5515.0,-36220,-73815,23556,15637
5517.0,-36437,-74049,23649,15714
5519.0,-36634,-73840,23679,15787
5521.0,-36498,-73346,23615,15757
5523.0,-36401,-73557,23604,15744
5525.0,-36505,-74257,23683,15807
5527.0,-36426,-74372,23758,15869
5529.0,-36033,-73807,23782,15881
5531.0,-35711,-73322,23735,15826
5533.0,-35793,-73283,23607,15700
5535.0,-36181,-73601,23501,15605
5537.0,-36514,-74087,23515,15636
5539.0,-36612,-74386,23559,15687
5541.0,-36656,-74288,23524,15645
5543.0,-36772,-74115,23478,15603
5545.0,-36763,-74157,23490,15631
5547.0,-36573,-74130,23540,15674
5549.0,-36501,-73823,23627,15728
5551.0,-36669,-73630,23706,15792
5553.0,-36841,-73840,23644,15739
5555.0,-36895,-74120,23481,15572
5557.0,-36872,-74141,23421,15507
5559.0,-36677,-74059,23459,15575
5561.0,-36345,-74074,23422,15588
5563.0,-36227,-74105,23366,15550
5565.0,-36376,-74009,23439,15605
5567.0,-36400,-73814,23521,15663
5569.0,-36271,-73690,23453,15579
5571.0,-36314,-73718,23397,15523
5573.0,-36310,-73673,23547,15689
5575.0,-35898,-73434,23696,15854
5577.0,-35650,-73416,23571,15730
5579.0,-36141,-73854,23356,15516
5581.0,-36649,-74168,23385,15558
5583.0,-36470,-73978,23516,15692
5585.0,-36265,-73857,23426,15578
5587.0,-36517,-74096,23276,15398
5589.0,-36528,-74113,23374,15487
5591.0,-36174,-73810,23507,15634
5593.0,-36290,-73791,23384,15531
5595.0,-36688,-73947,23266,15424
5597.0,-36446,-73710,23418,15578
5599.0,-35991,-73410,23549,15717
5601.0,-36241,-73604,23449,15624
5603.0,-36674,-73900,23399,15559
5605.0,-36504,-73811,23499,15634
5607.0,-36201,-73635,23434,15569
5609.0,-36263,-73688,23186,15334
5611.0,-36350,-73825,23116,15248
5613.0,-36365,-73970,23253,15357
5615.0,-36610,-74204,23273,15394
5617.0,-36877,-74493,23152,15318
5619.0,-36840,-74766,23149,15318
5621.0,-36777,-74929,23286,15417
5623.0,-36944,-74833,23370,15491
5625.0,-37053,-74521,23369,15508
5627.0,-36893,-74266,23380,15512
5629.0,-36670,-74234,23402,15507
5631.0,-36516,-74327,23384,15487
5633.0,-36336,-74309,23355,15468
5635.0,-36174,-74052,23344,15460
5637.03,-36172,-73762,23309,15447
5639.05,-36246,-73748,23249,15429
5641.08,-36269,-73928,23251,15447
5643.1,-36372,-74002,23354,15534
5645.1,-36637,-74009,23447,15618
5647.1,-36807,-74163,23397,15566
5649.1,-36660,-74363,23214,15368
5651.1,-36360,-74388,23046,15188
5653.1,-36217,-74312,23026,15179
5655.1,-36377,-74283,23159,15319
5657.1,-36631,-74192,23328,15478
5659.1,-36529,-73979,23426,15574
5661.1,-36080,-73887,23466,15626
5663.1,-35906,-73895,23511,15681
5665.1,-36172,-73492,23562,15732
5667.1,-36321,-72765,23579,15732
5669.1,-36262,-72690,23570,15686
5671.1,-36386,-73435,23618,15702
5673.1,-36439,-73774,23797,15878
5675.1,-36023,-73157,24041,16128
5677.1,-35634,-72579,24169,16256
5679.1,-35746,-72702,24098,16203
5681.1,-35995,-73097,23895,16044
5683.1,-36151,-73545,23651,15817
5685.1,-36396,-74103,23477,15615
5687.1,-36485,-74267,23521,15628
5689.1,-36156,-73768,23748,15848
5691.1,-35852,-73333,23898,16005
5693.1,-35882,-73444,23823,15961
5695.1,-35878,-73569,23633,15841
5697.1,-35742,-73351,23490,15766
5699.1,-35843,-73207,23436,15743
5701.1,-36066,-73375,23413,15744
5703.1,-35887,-73535,23369,15742
5705.1,-35387,-73520,23366,15768
5707.1,-35170,-73524,23437,15829
5709.1,-35393,-73627,23425,15781
5711.1,-35699,-73769,23269,15588
5713.1,-35918,-74025,23205,15505
5715.1,-36083,-74350,23343,15647
5717.1,-36033,-74371,23464,15775
5719.1,-35767,-73962,23474,15777
5721.1,-35682,-73575,23498,15794
5723.1,-35868,-73551,23511,15814
5725.1,-35975,-73707,23457,15770
5727.1,-36052,-73840,23509,15836
5729.1,-36289,-73869,23721,16072
5731.1,-36207,-73620,23825,16169
5733.1,-35540,-73247,23665,15962
5735.1,-35131,-73339,23405,15683
5737.1,-35590,-73963,23211,15534
5739.1,-36260,-74467,23099,15465
5741.1,-36507,-74542,23046,15405
5743.1,-36564,-74455,23004,15338
5745.1,-36637,-74364,22918,15230
5747.1,-36588,-74301,22841,15122
5749.1,-36455,-74359,22880,15125
5751.1,-36343,-74401,22981,15207
5753.1,-36233,-74273,22982,15207
5755.1,-36252,-74221,22917,15157
5757.1,-36467,-74340,23015,15281
5759.1,-36558,-74250,23266,15557
5761.1,-36366,-73894,23348,15646
5763.1,-36243,-73723,23145,15437
5765.1,-36410,-73855,22954,15234
5767.1,-36643,-74025,23011,15266
5769.1,-36756,-74149,23192,15387
5771.1,-36773,-74202,23283,15384
5773.1,-36708,-74073,23284,15284
5775.1,-36636,-73946,23350,15262
5777.13,-36702,-74134,23554,15377
5779.15,-36840,-74500,23796,15516
5781.18,-36841,-74648,24014,15670
5783.2,-36689,-74434,24321,16029
5785.2,-36476,-73998,24675,16574
5787.2,-36234,-73571,24754,16957
5789.2,-36065,-73232,24575,17186
5791.2,-36018,-72719,24665,17800
5793.2,-35774,-71768,25174,18958
5795.2,-34979,-70506,25607,20158
5797.2,-33806,-69106,25834,21207
5799.2,-32683,-67617,26314,22434
5801.2,-31793,-66464,26979,23678
5803.2,-31204,-66181,27122,24289
5805.2,-30948,-66387,26653,24287
5807.2,-30898,-66259,26173,24257
5809.2,-31172,-66051,25759,24155
5811.2,-32162,-66750,24926,23386
5813.2,-33603,-68483,23641,21800
5815.2,-34654,-70603,22189,19586
5817.2,-35273,-72736,20505,16820
5819.2,-36065,-74545,18681,13992
5821.2,-36866,-75476,17475,12148
5823.2,-37147,-75649,17376,11695
5825.2,-37270,-75805,17888,11903
5827.2,-37737,-76012,18405,12081
5829.2,-38089,-75796,19005,12366
5831.2,-37829,-75275,19892,13011
5833.2,-37295,-74825,20849,13793
5835.2,-36871,-74350,21640,14451
5837.2,-36527,-73907,22322,15019
5839.2,-36363,-73930,22879,15478
5841.2,-36488,-74275,23092,15617
5843.2,-36564,-74339,22975,15435
5845.2,-36389,-74213,22891,15269
5847.2,-36318,-74370,23057,15358
5849.2,-36468,-74609,23259,15533
5851.2,-36484,-74556,23228,15506
5853.2,-36445,-74479,23080,15326
5855.2,-36728,-74599,23122,15307
5857.2,-36928,-74530,23314,15489
5859.2,-36447,-74135,23349,15580
5861.2,-35915,-73948,23275,15541
5863.2,-36336,-74262,23382,15624
5865.2,-37210,-74705,23521,15727
5867.2,-37245,-74869,23355,15544
5869.2,-36512,-74718,23122,15284
5871.2,-36210,-74470,23197,15321
5873.2,-36592,-74387,23339,15447
5875.2,-36686,-74407,23259,15371
5877.2,-36080,-74182,23240,15355
5879.2,-35610,-73805,23433,15565
5881.2,-35834,-73801,23513,15675
5883.2,-36095,-74098,23440,15603
5885.2,-35891,-74112,23485,15625
5887.2,-35885,-74000,23510,15644
5889.2,-36506,-74383,23269,15410
5891.2,-36957,-74943,23071,15196
5893.2,-36674,-74891,23229,15333
5895.2,-36296,-74452,23471,15588
5897.2,-36340,-74332,23508,15655
5899.2,-36471,-74380,23457,15618
5901.2,-36474,-74164,23432,15589
5903.2,-36554,-74012,23409,15562
5905.2,-36672,-74313,23475,15613
5907.2,-36634,-74673,23662,15762
5909.2,-36491,-74642,23781,15840
5911.2,-36311,-74434,23731,15784
5913.2,-36109,-74318,23631,15708
5915.2,-36043,-74146,23582,15682
5917.23,-36155,-73913,23617,15731
5919.25,-36211,-73943,23730,15875
5921.28,-36133,-74178,23808,15972
5923.3,-36105,-74164,23759,15881
5925.3,-36170,-73939,23706,15749
5927.3,-36199,-74007,23783,15800
5929.3,-36198,-74399,23921,15971
5931.3,-36219,-74617,24009,16075
5933.3,-36194,-74465,24029,16069
5935.3,-36122,-74215,23976,16000
5937.3,-36121,-74094,23925,15961
5939.3,-36153,-74054,24049,16091
5941.3,-36061,-73974,24334,16359
5943.3,-35818,-73805,24500,16505
5945.3,-35417,-73463,24458,16462
5947.3,-34888,-72927,24458,16461
5949.3,-34689,-72639,24536,16526
5951.3,-35249,-73154,24395,16371
5953.3,-36051,-74084,24085,16050
5955.3,-36326,-74392,24087,16040
5957.3,-36297,-74042,24454,16397
5959.3,-36467,-73939,24644,16584
5961.3,-36528,-74218,24442,16380
5963.3,-36231,-74230,24256,16195
5965.3,-36053,-73987,24356,16293
5967.3,-36132,-73994,24518,16430
5969.3,-35952,-74109,24561,16420
5971.3,-35418,-73887,24617,16439
5973.3,-34988,-73499,24783,16610
5975.3,-34937,-73423,24900,16750
5977.3,-35275,-73722,24839,16703
5979.3,-35785,-73987,24765,16632
5981.3,-35890,-73767,24898,16756
5983.3,-35327,-73132,25137,16970
5985.3,-34758,-72813,25174,16991
5987.3,-34881,-73269,24955,16773
5989.3,-35431,-73898,24730,16537
5991.3,-35758,-73969,24690,16453
5993.3,-35748,-73780,24795,16524
5995.3,-35614,-73881,24940,16678
5997.3,-35412,-73968,25064,16828
5999.3,-35184,-73621,25141,16918
6001.3,-35073,-73232,25161,16944
6003.3,-35123,-73233,25133,16917
6005.3,-35215,-73319,25117,16877
6007.3,-35203,-73179,25177,16911
6009.3,-35056,-73111,25275,17011
6011.3,-34901,-73328,25346,17081
6013.3,-34773,-73394,25462,17175
6015.3,-34499,-72950,25672,17394
6017.3,-34252,-72511,25775,17549
6019.3,-34570,-72738,25639,17421
6021.3,-35256,-73270,25501,17238
6023.3,-35401,-73283,25561,17300
6025.3,-34978,-72906,25630,17430
6027.3,-34826,-72838,25564,17381
6029.3,-34988,-72995,25545,17319
6031.3,-34912,-72884,25649,17408
6033.3,-34809,-72676,25693,17487
6035.3,-35009,-72732,25643,17467
6037.3,-35061,-72824,25644,17493
6039.3,-34805,-72716,25668,17561
6041.3,-34821,-72653,25608,17537
6043.3,-35090,-72717,25554,17483
6045.3,-34998,-72582,25573,17494
6047.3,-34720,-72245,25492,17414
6049.3,-34814,-72143,25243,17167
6051.3,-34968,-72328,25085,17016
6053.3,-34815,-72447,25145,17103
6055.3,-34948,-72558,25162,17156
6057.33,-35625,-72921,25007,17022
6059.35,-35912,-73203,24926,16950
6061.38,-35389,-73029,24982,17017
6063.4,-35048,-72873,24887,16931
6065.4,-35497,-73231,24608,16648
6067.4,-35994,-73625,24467,16495
6069.4,-35855,-73428,24529,16548
6071.4,-35356,-72892,24558,16572
6073.4,-35099,-72724,24472,16483
6075.4,-35413,-73141,24297,16312
6077.4,-36054,-73654,23997,16033
6079.4,-36303,-73741,23718,15788
6081.4,-36030,-73593,23706,15795
6083.4,-35995,-73687,23829,15903
6085.4,-36374,-73858,23784,15824
6087.4,-36402,-73756,23681,15700
6089.4,-36033,-73717,23817,15839
6091.4,-36079,-74061,24078,16117
6093.4,-36478,-74343,24122,16177
6095.4,-36390,-74209,23924,15988
6097.4,-35898,-74015,23743,15814
6099.4,-35809,-74037,23733,15802
6101.4,-36109,-74076,23788,15850
6103.4,-36140,-73997,23753,15825
6105.4,-35870,-73880,23680,15775
6107.4,-35804,-73759,23693,15796
6109.4,-36029,-73692,23712,15798
6111.4,-36210,-73806,23598,15666
6113.4,-36256,-73965,23492,15556
6115.4,-36300,-73803,23602,15667
6117.4,-36282,-73349,23785,15861
6119.4,-36086,-73134,23775,15880
6121.4,-35856,-73412,23627,15754
6123.4,-35793,-73807,23575,15687
6125.4,-35899,-73953,23658,15740
6127.4,-36047,-73897,23758,15823
6129.4,-36089,-73725,23799,15852
6131.4,-35959,-73485,23770,15805
6133.4,-35824,-73434,23718,15751
6135.4,-35907,-73699,23702,15760
6137.4,-36040,-73900,23711,15797
6139.4,-35782,-73617,23751,15851
6141.4,-35153,-73045,23885,15995
6143.4,-34870,-72832,23982,16103
6145.4,-35462,-73269,23772,15889
6147.4,-36392,-73899,23374,15469
6149.4,-36764,-74201,23240,15316
6151.4,-36607,-74315,23394,15475
6153.4,-36537,-74517,23447,15541
6155.4,-36559,-74532,23370,15458
6157.4,-36367,-74186,23431,15504
6159.4,-36176,-73952,23551,15633
6161.4,-36191,-74029,23520,15632
6163.4,-36103,-73921,23492,15606
6165.4,-35888,-73543,23579,15667
6167.4,-35964,-73511,23568,15650
6169.4,-36245,-73897,23449,15553
6171.4,-36219,-73995,23481,15597
6173.4,-35889,-73569,23599,15711
6175.4,-35630,-73196,23538,15663
6177.4,-35632,-73320,23424,15571
6179.4,-36031,-73771,23516,15659
6181.4,-36793,-74137,23685,15808
6183.4,-37303,-74196,23707,15830
6185.4,-37046,-74086,23627,15765
6187.4,-36448,-74041,23525,15660
6189.4,-36142,-73966,23371,15493
6191.4,-36044,-73680,23233,15347
6193.4,-35865,-73405,23255,15365
6195.4,-35716,-73431,23436,15544
6197.43,-35689,-73622,23633,15746
6199.45,-35633,-73723,23695,15825
6201.48,-35665,-73693,23598,15757
6203.5,-36094,-73543,23484,15673
6205.5,-36644,-73401,23463,15662
6207.5,-36567,-73531,23465,15639
6209.5,-35823,-73853,23417,15544
6211.5,-35374,-73999,23366,15460
6213.5,-35800,-73985,23331,15426
6215.5,-36401,-74052,23291,15409
6217.5,-36358,-74058,23285,15420
6219.5,-36055,-73924,23284,15428
6221.5,-36257,-74069,23195,15356
6223.5,-36705,-74556,23122,15304
6225.5,-36669,-74690,23233,15417
6227.5,-36270,-74182,23374,15532
6229.5,-36095,-73695,23307,15430
6231.5,-36137,-73748,23165,15269
6233.5,-36102,-74055,23175,15287
6235.5,-36052,-74127,23255,15391
6237.5,-36002,-73769,23291,15446
6239.5,-35776,-73208,23369,15537
6241.5,-35624,-73110,23471,15648
6243.5,-35953,-73799,23418,15593
6245.5,-36403,-74487,23246,15406
6247.5,-36354,-74311,23190,15342
6249.5,-36023,-73720,23289,15440
6251.5,-35961,-73636,23340,15490
6253.5,-36089,-73987,23230,15371
6255.5,-36153,-74217,23064,15201
6257.5,-36269,-74296,23015,15161
6259.5,-36420,-74338,23111,15276
6261.5,-36367,-74199,23199,15381
6263.5,-36221,-73936,23160,15338
6265.5,-36203,-73826,23101,15262
6267.5,-36206,-73887,23168,15329
6269.5,-36262,-73935,23267,15438
6271.5,-36586,-73882,23216,15369
6273.5,-36785,-73720,23104,15219
6275.5,-36315,-73543,23182,15294
6277.5,-35681,-73544,23433,15572
6279.5,-35674,-73711,23562,15712
6281.5,-35916,-73823,23475,15609
6283.5,-35766,-73821,23365,15498
6285.5,-35687,-73793,23353,15492
6287.5,-36194,-73730,23387,15500
6289.5,-36705,-73625,23464,15528
6291.5,-36642,-73541,23596,15641
6293.5,-36306,-73373,23708,15764
6295.5,-36005,-72994,23777,15834
6297.5,-35656,-72597,23827,15874
6299.5,-35373,-72400,23771,15832
6301.5,-35326,-72295,23587,15680
6303.5,-35395,-72333,23494,15600
6305.5,-35564,-72883,23631,15719
6307.5,-35867,-73727,23824,15888
6309.5,-35905,-73986,23906,15965
6311.5,-35484,-73544,23910,15982
6313.5,-35241,-73324,23851,15940
6315.5,-35587,-73686,23695,15814
6317.5,-35910,-73915,23511,15689
6319.5,-35710,-73629,23396,15651
6321.5,-35387,-73317,23360,15656
6323.5,-35350,-73339,23375,15660
6325.5,-35459,-73489,23365,15643
6327.5,-35565,-73555,23231,15545
6329.5,-35652,-73539,23048,15382
6331.5,-35584,-73469,23023,15310
6333.5,-35371,-73385,23159,15384
6335.5,-35275,-73366,23284,15499
6337.53,-35289,-73437,23401,15641
6339.55,-35166,-73536,23609,15859
6341.58,-35036,-73570,23784,16034
6343.6,-35157,-73476,23763,16024
6345.6,-35328,-73333,23653,15915
6347.6,-35335,-73316,23603,15842
6349.6,-35357,-73398,23569,15785
6351.6,-35382,-73304,23553,15758
6353.6,-35215,-73049,23626,15819
6355.6,-35190,-73126,23615,15798
6357.6,-35664,-73650,23331,15525
6359.6,-36200,-73924,23041,15267
6361.6,-36331,-73591,23095,15342
6363.6,-36277,-73378,23272,15511
6365.6,-36252,-73890,23122,15337
6367.6,-36228,-74636,22742,14917
6369.6,-36400,-74952,22589,14713
6371.6,-36698,-74862,22775,14858
6373.6,-36586,-74610,22974,15047
6375.6,-36159,-74296,22954,15038
6377.6,-36120,-74099,22858,14975
6379.6,-36391,-74160,22901,15066
6381.6,-36381,-74351,22979,15180
6383.6,-36207,-74419,22917,15108
6385.6,-36159,-74156,22895,15038
6387.6,-35942,-73625,23096,15198
6389.6,-35572,-73305,23251,15337
6391.6,-35628,-73495,23143,15204
6393.6,-36055,-73810,23078,15061
6395.6,-36259,-73879,23264,15119
6397.6,-36332,-73954,23433,15145
6399.6,-36686,-74232,23459,15045
6401.6,-36988,-74393,23566,15067
6403.6,-36770,-74190,23819,15322
6405.6,-36319,-73796,24115,15747
6407.6,-36069,-73474,24406,16299
6409.6,-35923,-73267,24543,16805
6411.6,-35654,-72889,24466,17198
6413.6,-35224,-71989,24549,17870
6415.6,-34572,-70653,25069,19105
6417.6,-33672,-69203,25739,20568
6419.6,-32729,-67685,26312,21915
6421.6,-31949,-66256,26856,23132
6423.6,-31225,-65413,27203,24059
6425.6,-30384,-65081,27113,24530
6427.6,-29763,-64628,26797,24784
6429.6,-30092,-64267,26429,24905
6431.6,-31450,-64871,25741,24483
6433.6,-32873,-66368,24648,23328
6435.6,-33620,-68068,23363,21563
6437.6,-34119,-70003,21797,19074
6439.6,-34967,-72274,19869,16010
6441.6,-35885,-74099,18154,13363
6443.6,-36446,-74918,17320,11981
6445.6,-36840,-75210,17369,11649
6447.6,-37249,-75403,17932,11782
6449.6,-37422,-75313,18726,12170
6451.6,-37272,-74947,19544,12720
6453.6,-37010,-74585,20299,13273
6455.6,-36625,-74177,21061,13823
6457.6,-36126,-73723,21812,14404
6459.6,-35895,-73585,22409,14905
6461.6,-35911,-73587,22849,15260
6463.6,-35583,-73077,23226,15534
6465.6,-35066,-72460,23461,15693
6467.6,-35205,-72781,23412,15614
6469.6,-35782,-73617,23169,15354
6471.6,-35932,-73818,22948,15099
6473.6,-36039,-73879,22815,14920
6475.6,-36807,-74706,22754,14834
6477.6,-37456,-75319,22792,14885
6479.6,-37161,-74709,22885,15012
6481.6,-36626,-74032,22957,15093
6483.6,-36512,-74369,23051,15165
6485.7,-36442,-74784,23190,15282
6487.7,-36346,-74446,23226,15302
6489.7,-36529,-74051,23108,15150
6491.7,-36592,-74085,23013,15016
6493.7,-36215,-74039,23036,15032
6495.7,-36010,-73755,23093,15111
6497.7,-36268,-73743,23154,15195
6499.7,-36353,-74136,23254,15318
6501.7,-36043,-74469,23338,15428
6503.7,-35867,-74405,23345,15434
6505.7,-35896,-74073,23308,15365
6507.7,-35631,-73686,23297,15332
6509.7,-35079,-73328,23374,15406
6511.7,-34868,-73213,23492,15503
6513.7,-35317,-73570,23455,15425
6515.7,-36007,-74100,23218,15181
6517.7,-36342,-74268,23077,15077
6519.7,-36213,-74117,23203,15233
6521.7,-35968,-73961,23322,15358
6523.7,-35895,-73727,23236,15279
6525.7,-35963,-73424,23170,15218
6527.7,-36047,-73495,23286,15310
6529.7,-36114,-74008,23395,15386
6531.7,-36135,-74403,23386,15368
6533.7,-36081,-74411,23394,15382
6535.7,-36030,-74275,23443,15432
6537.7,-36011,-74073,23431,15427
6539.7,-35897,-73745,23428,15437
6541.7,-35770,-73583,23570,15574
6543.7,-35887,-73782,23764,15745
6545.7,-35970,-73813,23855,15815
6547.7,-35530,-73265,23903,15842
6549.7,-35075,-72826,23996,15902
6551.7,-35459,-73233,24014,15898
6553.7,-36133,-73844,23858,15747
6555.7,-36024,-73717,23705,15596
6557.7,-35622,-73315,23770,15643
6559.7,-35981,-73521,23998,15863
6561.7,-36551,-73957,24194,16078
6563.7,-36215,-73858,24256,16152
6565.7,-35362,-73536,24177,16056
6567.7,-35023,-73588,24030,15876
6569.7,-35149,-73714,23959,15765
6571.7,-35147,-73440,24018,15787
6573.7,-35052,-73120,24105,15864
6575.7,-35148,-73248,24155,15926
6577.7,-35265,-73487,24216,15989
6579.7,-35144,-73308,24301,16061
6581.7,-35013,-73081,24336,16091
6583.7,-35251,-73421,24287,16044
6585.7,-35713,-73957,24223,15966
6587.7,-35924,-73972,24245,15961
6589.7,-35811,-73681,24345,16045
6591.7,-35660,-73617,24400,16093
6593.7,-35537,-73604,24395,16064
6595.7,-35389,-73423,24459,16099
6597.7,-35321,-73353,24596,16237
6599.7,-35257,-73353,24677,16336
6601.7,-34968,-73086,24717,16365
6603.7,-34729,-72860,24788,16388
6605.7,-35007,-73117,24784,16344
6607.7,-35506,-73482,24676,16222
6609.7,-35574,-73494,24665,16199
6611.7,-35276,-73394,24799,16308
6613.7,-35122,-73398,24881,16367
6615.7,-35177,-73310,24874,16351
6617.7,-35184,-73162,24911,16388
6619.7,-35098,-73159,25006,16480
6621.7,-35046,-73138,25128,16594
6623.7,-35099,-72918,25290,16747
6625.8,-35198,-72728,25390,16842
6627.8,-35123,-72706,25351,16795
6629.8,-34732,-72650,25335,16762
6631.8,-34369,-72531,25434,16840
6633.8,-34508,-72510,25481,16872
6635.8,-34927,-72494,25424,16816
6637.8,-34964,-72410,25409,16830
6639.8,-34579,-72474,25454,16912
6641.8,-34300,-72636,25475,16951
6643.8,-34326,-72584,25477,16959
6645.8,-34501,-72498,25436,16927
6647.8,-34691,-72626,25319,16813
6649.8,-34702,-72522,25275,16759
6651.8,-34419,-72013,25390,16883
6653.8,-34010,-71724,25532,17063
6655.8,-33536,-71689,25698,17272
6657.8,-33145,-71401,25937,17544
6659.8,-33545,-71420,25909,17557
6661.8,-34794,-72325,25386,17080
6663.8,-35464,-72971,24932,16651
6665.8,-34834,-72425,25097,16814
6667.8,-34171,-71760,25467,17178
6669.8,-34324,-71834,25446,17157
6671.8,-34557,-72018,25193,16913
6673.8,-34639,-72147,25041,16784
6675.8,-35174,-72756,24867,16641
6677.8,-35814,-73380,24579,16374
6679.8,-35768,-73229,24420,16216
6681.8,-35355,-72699,24462,16257
6683.8,-35218,-72487,24470,16276
6685.8,-35298,-72573,24344,16170
6687.8,-35474,-72832,24224,16073
6689.8,-35730,-73219,24184,16050
6691.8,-35677,-73351,24160,16026
6693.8,-35239,-73050,24109,15961
6695.8,-35108,-72798,24047,15892
6697.8,-35521,-72968,23986,15840
6699.8,-35809,-73303,23936,15812
6701.8,-35786,-73460,23934,15832
6703.8,-36000,-73393,23991,15897
6705.8,-36300,-73190,24005,15898
6707.8,-35971,-73045,23830,15710
6709.8,-35332,-73153,23545,15431
6711.8,-35281,-73325,23470,15373
6713.8,-35535,-73161,23702,15611
6715.8,-35253,-72740,23918,15826
6717.8,-34795,-72513,23924,15850
6719.8,-34982,-72544,23934,15899
6721.8,-35455,-72597,23978,15974
6723.8,-35484,-72723,23749,15745
6725.8,-35387,-73083,23320,15294
6727.8,-35766,-73542,23157,15110
6729.8,-36310,-73905,23283,15224
6731.8,-36379,-74028,23334,15268
6733.8,-35982,-73730,23298,15240
6735.8,-35619,-73223,23379,15338
6737.8,-35608,-73157,23462,15426
6739.8,-35819,-73564,23391,15341
6741.8,-35912,-73687,23307,15254
6743.8,-35821,-73401,23331,15301
6745.8,-35814,-73420,23369,15357
6747.8,-35971,-73754,23341,15318
6749.8,-36002,-73624,23296,15243
6751.8,-35763,-73045,23324,15245
6753.8,-35490,-72821,23457,15365
6755.8,-35403,-73032,23595,15504
6757.8,-35470,-73107,23604,15528
6759.8,-35642,-73070,23510,15465
6761.8,-35926,-73319,23440,15421
6763.8,-36154,-73625,23423,15408
6765.9,-36079,-73498,23423,15392
6767.9,-35791,-73114,23420,15375
6769.9,-35652,-72999,23394,15345
6771.9,-35697,-73116,23352,15295
6773.9,-35676,-73080,23317,15254
6775.9,-35673,-72958,23258,15207
6777.9,-35861,-73023,23196,15165
6779.9,-35859,-73061,23272,15241
6781.9,-35398,-72873,23467,15423
6783.9,-35092,-72895,23517,15469
6785.9,-35360,-73296,23365,15325
6787.9,-35550,-73411,23323,15282
6789.9,-35255,-73011,23488,15439
6791.9,-35125,-72872,23511,15468
6793.9,-35524,-73325,23256,15233
6795.9,-35915,-73705,23094,15080
6797.9,-35954,-73589,23240,15214
6799.9,-35830,-73236,23400,15360
6801.9,-35656,-72904,23364,15321
6803.9,-35488,-72706,23323,15271
6805.9,-35429,-72761,23378,15308
6807.9,-35417,-72980,23354,15279
6809.9,-35524,-73170,23220,15160
6811.9,-36052,-73389,23136,15089
6813.9,-36768,-73753,23125,15080
6815.9,-36942,-74089,23093,15054
6817.9,-36506,-74136,23025,15004
6819.9,-36132,-73892,22956,14945
6821.9,-36099,-73598,22935,14919
6823.9,-36047,-73449,23025,14994
6825.9,-35834,-73422,23156,15105
6827.9,-35769,-73380,23210,15133
6829.9,-35943,-73258,23252,15152
6831.9,-35995,-73137,23328,15222
6833.9,-35787,-73168,23250,15150
6835.9,-35690,-73296,22963,14877
6837.9,-35860,-73217,22759,14695
6839.9,-35884,-72931,22816,14768
6841.9,-35601,-72931,22994,14944
6843.9,-35510,-73380,23186,15132
6845.9,-35862,-73740,23351,15310
6847.9,-36114,-73629,23335,15307
6849.9,-35805,-73315,23135,15096
6851.9,-35287,-73119,23026,14971
6853.9,-35137,-73079,23087,15044
6855.9,-35377,-73200,23078,15068
6857.9,-35683,-73460,22954,14967
6859.9,-35901,-73695,22918,14929
6861.9,-35991,-73721,22975,14974
6863.9,-35904,-73448,23014,14997
6865.9,-35762,-73024,23114,15082
6867.9,-35770,-72861,23271,15227
6869.9,-35866,-73150,23204,15163
6871.9,-35859,-73445,22878,14847
6873.9,-35772,-73292,22688,14658
6875.9,-35751,-73033,22840,14798
6877.9,-35867,-73317,23048,15005
6879.9,-36095,-73962,23020,15006
6881.9,-36185,-74088,22867,14876
6883.9,-35781,-73408,22885,14872
6885.9,-35105,-72695,23095,15046
6887.9,-35006,-72782,23172,15119
6889.9,-35741,-73537,22933,14897
6891.9,-36394,-74104,22683,14651
6893.9,-36234,-73977,22714,14684
6895.9,-35799,-73481,22838,14825
6897.9,-35717,-73063,22843,14837
6899.9,-35634,-72710,22876,14863
6901.9,-35328,-72503,22997,14981
6903.9,-35428,-72868,22958,14948
6905.9,-35991,-73596,22756,14745
6907.93,-36130,-73824,22730,14705
6909.95,-35856,-73550,22963,14910
6911.98,-36167,-73654,23145,15071
6914.0,-36849,-74116,23121,15056
6916.0,-36645,-74019,23051,15017
6918.0,-35745,-73360,23034,15009
6920.0,-35540,-73055,22992,14950
6922.0,-36068,-73279,22955,14895
6924.0,-36181,-73356,23040,14964
6926.0,-35801,-73023,23181,15084
6928.0,-35688,-72644,23251,15134
6930.0,-35687,-72447,23328,15196
6932.0,-35324,-72356,23469,15324
6934.0,-35156,-72346,23495,15347
6936.0,-35656,-72459,23351,15216
6938.0,-36028,-72621,23268,15150
6940.0,-35679,-72701,23337,15219
6942.0,-35296,-72672,23399,15279
6944.0,-35369,-72601,23440,15331
6946.0,-35401,-72553,23537,15438
6948.0,-35190,-72556,23531,15429
6950.0,-35125,-72593,23303,15211
6952.0,-35140,-72592,23130,15080
6954.0,-34914,-72511,23251,15249
6956.0,-34604,-72384,23463,15490
6958.0,-34362,-72193,23516,15573
6960.0,-34123,-71931,23443,15544
6962.0,-34221,-71870,23257,15382
6964.0,-34930,-72377,22896,15008
6966.0,-35613,-73263,22620,14705
6968.0,-35652,-73787,22746,14809
6970.0,-35422,-73544,23032,15079
6972.0,-35336,-72975,23062,15095
6974.0,-35144,-72707,22982,15005
6976.0,-34826,-72776,23096,15121
6978.0,-34782,-72828,23266,15307
6980.0,-34944,-72787,23312,15381
6982.0,-34975,-72828,23312,15405
6984.0,-35020,-72915,23202,15292
6986.0,-35299,-72904,22921,14976
6988.0,-35569,-72943,22836,14850
6990.0,-35573,-73184,23135,15133
6992.0,-35391,-73364,23319,15322
6994.0,-35255,-73250,23085,15108
6996.0,-35471,-73171,22859,14924
6998.0,-36088,-73466,22876,14988
7000.0,-36514,-73803,22805,14912
7002.0,-36323,-73758,22603,14648
7004.0,-36097,-73600,22611,14605
7006.0,-36322,-73717,22743,14732
7008.0,-36324,-73802,22616,14599
7010.0,-35662,-73502,22337,14282
7012.0,-35216,-73225,22303,14221
7014.0,-35567,-73389,22514,14452
7016.0,-35918,-73650,22666,14646
7018.0,-35776,-73698,22660,14666
7020.0,-35835,-73795,22612,14623
7022.0,-36340,-73943,22617,14620
7024.0,-36513,-73724,22677,14667
7026.0,-36136,-73311,22752,14724
7028.0,-35876,-73308,22775,14712
7030.0,-35934,-73583,22731,14591
7032.0,-35956,-73610,22733,14480
7034.0,-35973,-73516,22903,14534
7036.0,-36099,-73506,23192,14712
7038.0,-35933,-73116,23478,14894
7040.0,-35318,-72273,23803,15176
7042.0,-34897,-71919,24188,15657
7044.0,-35150,-72462,24367,16074
7046.0,-35600,-72915,24181,16207
7048.03,-35526,-72427,24020,16448
7050.05,-34971,-71394,24300,17268
7052.08,-34514,-70445,24796,18451
7054.1,-34171,-69432,25161,19594
7056.1,-33253,-67938,25619,20841
7058.1,-31688,-66206,26358,22289
7060.1,-30511,-65088,26909,23419
7062.1,-30276,-64912,26850,23890
7064.1,-30252,-64851,26422,24027
7066.1,-30113,-64256,25878,23995
7068.1,-30696,-64020,25108,23533
7070.1,-32130,-65241,24191,22656
7072.1,-33217,-67324,23322,21464
7074.1,-33511,-69085,22195,19537
7076.1,-33996,-70650,20467,16703
7078.1,-35111,-72450,18614,13898
7080.1,-36031,-73699,17460,12175
7082.1,-36276,-73753,17243,11560
7084.1,-36377,-73555,17680,11552
7086.1,-36690,-74050,18428,11870
7088.1,-36908,-74669,19170,12304
7090.1,-36896,-74692,19757,12661
7092.1,-36895,-74450,20343,13030
7094.1,-36846,-74214,21072,13575
7096.1,-36464,-73665,21818,14183
7098.1,-36009,-73040,22407,14658
7100.1,-35983,-73053,22785,14941
7102.1,-36183,-73528,22899,14985
7104.1,-36023,-73692,22768,14808
7106.1,-35635,-73493,22643,14642
7108.1,-35609,-73331,22724,14679
7110.1,-35798,-73136,22898,14812
7112.1,-35516,-72726,22999,14899
7114.1,-34900,-72462,23035,14956
7116.1,-34875,-72777,22980,14938
7118.1,-35561,-73436,22780,14761
7120.1,-36015,-73753,22594,14564
7122.1,-35903,-73536,22560,14499
7124.1,-35928,-73386,22553,14463
7126.1,-36303,-73751,22518,14405
7128.1,-36424,-74200,22579,14445
7130.1,-36208,-74159,22663,14505
7132.1,-36083,-73770,22632,14453
7134.1,-35967,-73494,22674,14490
7136.1,-35672,-73445,22892,14731
7138.1,-35548,-73454,22986,14854
7140.1,-35727,-73394,22851,14719
7142.1,-35881,-73344,22817,14652
7144.1,-36046,-73515,22959,14767
7146.1,-36355,-73839,22992,14805
7148.1,-36339,-73891,22882,14703
7150.1,-35767,-73529,22840,14640
7152.1,-35335,-73194,22891,14670
7154.1,-35495,-73230,22954,14749
7156.1,-35786,-73441,23003,14842
7158.1,-35856,-73569,22982,14852
7160.1,-35866,-73626,22904,14780
7162.1,-35790,-73565,22926,14794
7164.1,-35558,-73298,23047,14908
7166.1,-35514,-73096,23077,14933
7168.1,-35736,-73185,23038,14874
7170.1,-35724,-73167,23119,14920
7172.1,-35475,-72798,23252,15032
7174.1,-35578,-72658,23274,15064
7176.1,-35854,-72929,23333,15134
7178.1,-35599,-72807,23552,15350
7180.1,-35175,-72274,23633,15437
7182.1,-35339,-72405,23409,15221
7184.1,-35485,-73036,23286,15076
7186.1,-34793,-72844,23501,15250
7188.13,-34186,-72151,23624,15347
7190.15,-34803,-72500,23408,15116
7192.18,-35799,-73558,23240,14935
7194.2,-35895,-73662,23268,14974
7196.2,-35579,-72918,23168,14896
7198.2,-35800,-72812,23016,14745
7200.2,-36136,-73538,23232,14951
7202.2,-35889,-74052,23658,15373
7204.2,-35476,-73947,23800,15493
7206.2,-35508,-73650,23723,15369
7208.2,-35744,-73441,23780,15403
7210.2,-35737,-73256,23915,15553
7212.2,-35517,-73052,23925,15570
7214.2,-35239,-72872,23892,15529
7216.2,-34930,-72721,23936,15587
7218.2,-34751,-72589,23968,15638
7220.2,-34896,-72557,23924,15571
7222.2,-35217,-72735,23918,15520
7224.2,-35371,-72984,23991,15578
7226.2,-35271,-72976,24007,15598
7228.2,-35109,-72712,23941,15514
7230.2,-35065,-72620,23989,15530
7232.2,-35150,-72857,24189,15713
7234.2,-35239,-73024,24305,15830
7236.2,-35197,-72868,24282,15809
7238.2,-35077,-72688,24321,15851
7240.2,-35069,-72724,24426,15961
7242.2,-35153,-72773,24434,15962
7244.2,-35064,-72634,24421,15918
7246.2,-34738,-72406,24505,15962
7248.2,-34440,-72233,24550,15983
7250.2,-34330,-72165,24502,15921
7252.2,-34279,-72163,24543,15951
7254.2,-34231,-72089,24687,16093
7256.2,-34307,-71948,24761,16183
7258.2,-34480,-71999,24804,16239
7260.2,-34564,-72273,24897,16324
7262.2,-34551,-72402,24869,16284
7264.2,-34569,-72278,24682,16098
7266.2,-34586,-72178,24658,16064
7268.2,-34504,-72106,24897,16279
7270.2,-34419,-71888,25057,16437
7272.2,-34422,-71767,24987,16395
7274.2,-34394,-71981,24945,16365
7276.2,-34308,-72234,25058,16453
7278.2,-34411,-72304,25146,16529
7280.2,-34693,-72354,25128,16537
7282.2,-34689,-72247,25092,16526
7284.2,-34281,-71712,25077,16513
7286.2,-34055,-71197,25095,16535
7288.2,-34296,-71317,25184,16651
7290.2,-34446,-71776,25292,16789
7292.2,-34183,-71954,25311,16834
7294.2,-34013,-71877,25251,16804
7296.2,-34189,-71759,25193,16781
7298.2,-34219,-71496,25178,16794
7300.2,-33956,-71112,25197,16832
