t,carotid_880nm,carotid_660nm,brachial_880nm,brachial_660nm
2.0,74.006,-0.67073,77.779,127.59
11.9,72.006,-0.67073,76.779,126.59
21.8,71.006,0.32927,76.779,127.59
31.7,69.006,0.32927,75.779,125.59
41.6,66.006,0.32927,73.779,123.59
51.5,64.006,-1.6707,70.779,122.59
61.3,63.006,-1.6707,68.779,122.59
71.2,58.006,-3.6707,67.779,121.59
81.1,55.006,-3.6707,68.779,122.59
91.0,53.006,-3.6707,67.779,123.59
100.9,50.006,-3.6707,70.779,123.59
110.8,47.006,-3.6707,68.779,124.59
120.7,46.006,-3.6707,70.779,125.59
130.5,43.006,-4.6707,72.779,126.59
140.4,37.006,-6.6707,75.779,128.59
150.3,36.006,-5.6707,72.779,127.59
160.2,30.006,-7.6707,74.779,128.59
170.1,30.006,-8.6707,74.779,128.59
180.0,25.006,-7.6707,71.779,127.59
189.9,21.006,-9.6707,69.779,125.59
199.7,20.006,-8.6707,60.779,121.59
209.6,15.006,-9.6707,46.779,113.59
219.5,11.006,-10.671,34.779,108.59
229.4,8.0063,-11.671,25.779,104.59
239.3,2.0063,-13.671,16.779,100.59
249.2,-3.9937,-15.671,5.7791,95.591
259.1,-7.9937,-16.671,-5.2209,89.591
268.9,-11.994,-18.671,-8.2209,89.591
278.8,-15.994,-17.671,-10.221,88.591
288.7,-17.994,-16.671,-12.221,88.591
298.6,-20.994,-16.671,-13.221,88.591
308.5,-20.994,-16.671,-14.221,87.591
318.4,-15.994,-14.671,-19.221,84.591
328.3,-8.9937,-14.671,-21.221,82.591
338.1,0.006327,-10.671,-24.221,79.591
348.0,11.006,-8.6707,-24.221,79.591
357.9,21.006,-5.6707,-24.221,76.591
367.8,31.006,-2.6707,-24.221,76.591
377.7,37.006,-0.67073,-11.221,81.591
387.6,41.006,2.3293,-11.221,81.591
397.5,46.006,4.3293,8.7791,92.591
407.3,44.006,2.3293,8.7791,92.591
417.2,46.006,2.3293,24.779,99.591
427.1,45.006,0.32927,24.779,99.591
437.0,43.006,-0.67073,36.779,104.59
446.9,43.006,-1.6707,36.779,104.59
456.8,43.006,-1.6707,43.779,108.59
466.7,41.006,-3.6707,43.779,108.59
476.5,41.006,-2.6707,39.779,107.59
486.4,42.006,-2.6707,39.779,107.59
496.3,42.006,-2.6707,34.779,107.59
506.2,43.006,-2.6707,34.779,107.59
516.1,43.006,-2.6707,32.779,107.59
526.0,41.006,-6.6707,32.779,107.59
535.9,41.006,-6.6707,25.779,106.59
545.7,49.006,-7.6707,25.779,106.59
555.6,49.006,-7.6707,22.779,106.59
565.5,55.006,-10.671,22.779,106.59
575.4,55.006,-10.671,18.779,105.59
585.3,61.006,-11.671,16.779,104.59
595.2,61.006,-11.671,12.779,105.59
605.1,66.006,-11.671,11.779,103.59
614.9,66.006,-11.671,9.7791,105.59
624.8,70.006,-12.671,6.7791,103.59
634.7,70.006,-12.671,6.7791,105.59
644.6,72.006,-12.671,5.7791,105.59
654.5,72.006,-12.671,6.7791,107.59
664.4,73.006,-12.671,5.7791,108.59
674.3,75.006,-12.671,3.7791,108.59
684.1,76.006,-14.671,2.7791,109.59
694.0,75.006,-14.671,1.7791,110.59
703.9,75.006,-13.671,-0.22085,109.59
713.8,77.006,-13.671,-1.2209,109.59
723.7,75.006,-15.671,-4.2209,109.59
733.6,77.006,-15.671,-4.2209,109.59
743.5,76.006,-16.671,-5.2209,110.59
753.3,78.006,-15.671,-6.2209,110.59
763.2,80.006,-15.671,-5.2209,109.59
773.1,79.006,-16.671,-7.2209,111.59
783.0,79.006,-16.671,-7.2209,109.59
792.9,79.006,-15.671,-10.221,109.59
802.8,79.006,-17.671,-12.221,108.59
812.6,80.006,-15.671,-13.221,107.59
822.5,81.006,-13.671,-11.221,108.59
832.4,80.006,-12.671,-11.221,109.59
842.3,86.006,-10.671,-11.221,110.59
852.2,94.006,-7.6707,-13.221,108.59
862.1,103.01,-4.6707,-15.221,106.59
872.0,116.01,-1.6707,-17.221,103.59
881.9,129.01,1.3293,-16.221,101.59
891.7,141.01,4.3293,-14.221,100.59
901.6,149.01,7.3293,-13.221,98.591
911.5,158.01,9.3293,-11.221,98.591
921.4,166.01,13.329,-5.2209,100.59
931.3,171.01,14.329,2.7791,103.59
941.2,174.01,16.329,6.7791,103.59
951.0,177.01,15.329,9.7791,106.59
960.9,177.01,15.329,12.779,107.59
970.8,180.01,14.329,13.779,106.59
980.7,180.01,14.329,15.779,106.59
990.6,181.01,14.329,17.779,106.59
1000.5,182.01,15.329,16.779,106.59
1010.4,184.01,14.329,17.779,105.59
1020.3,185.01,13.329,18.779,105.59
1030.1,187.01,15.329,16.779,106.59
1040.0,190.01,16.329,17.779,105.59
1049.9,192.01,17.329,15.779,104.59
1059.8,195.01,18.329,14.779,104.59
1069.7,197.01,19.329,12.779,102.59
1079.6,198.01,20.329,10.779,102.59
1089.4,199.01,20.329,9.7791,100.59
1099.3,198.01,20.329,8.7791,101.59
1109.2,195.01,19.329,6.7791,100.59
1119.1,194.01,18.329,-0.22085,97.591
1129.0,190.01,15.329,-4.2209,96.591
1138.9,188.01,15.329,-8.2209,92.591
1148.8,186.01,13.329,-11.221,91.591
1158.6,182.01,12.329,-14.221,91.591
1168.5,180.01,11.329,-15.221,91.591
1178.4,177.01,12.329,-17.221,90.591
1188.3,177.01,11.329,-13.221,93.591
1198.2,175.01,11.329,-16.221,94.591
1208.1,169.01,10.329,-19.221,93.591
1218.0,167.01,10.329,-21.221,94.591
1227.8,167.01,10.329,-23.221,94.591
1237.7,162.01,7.3293,-25.221,94.591
1247.6,162.01,7.3293,-26.221,93.591
1257.5,157.01,6.3293,-30.221,93.591
1267.4,157.01,6.3293,-31.221,93.591
1277.3,151.01,5.3293,-35.221,93.591
1287.2,151.01,5.3293,-33.221,93.591
1297.0,148.01,3.3293,-34.221,94.591
1306.9,148.01,3.3293,-34.221,95.591
1316.8,140.01,1.3293,-34.221,95.591
1326.7,140.01,1.3293,-37.221,95.591
1336.6,134.01,1.3293,-36.221,95.591
1346.5,134.01,1.3293,-36.221,95.591
1356.4,131.01,1.3293,-32.221,97.591
1366.2,132.01,2.3293,-28.221,100.59
1376.1,134.01,5.3293,-28.221,101.59
1386.0,138.01,5.3293,-26.221,99.591
1395.9,148.01,8.3293,-26.221,99.591
1405.8,158.01,10.329,-22.221,97.591
1415.7,168.01,14.329,-22.221,97.591
1425.6,178.01,17.329,-9.2209,99.591
1435.4,185.01,19.329,-9.2209,99.591
1445.3,193.01,22.329,1.7791,103.59
1455.2,198.01,23.329,1.7791,103.59
1465.1,202.01,25.329,10.779,107.59
1475.0,207.01,26.329,10.779,107.59
1484.9,211.01,26.329,20.779,111.59
1494.8,211.01,25.329,20.779,111.59
1504.6,214.01,25.329,21.779,110.59
1514.5,213.01,24.329,21.779,110.59
1524.4,214.01,24.329,22.779,111.59
1534.3,212.01,23.329,22.779,111.59
1544.2,213.01,22.329,21.779,111.59
1554.1,214.01,22.329,21.779,111.59
1564.0,213.01,21.329,19.779,110.59
1573.8,215.01,22.329,16.779,109.59
1583.7,218.01,22.329,12.779,109.59
1593.6,218.01,22.329,11.779,107.59
1603.5,219.01,23.329,12.779,108.59
1613.4,221.01,24.329,12.779,108.59
1623.3,222.01,24.329,6.7791,106.59
1633.2,222.01,25.329,5.7791,105.59
1643.0,222.01,25.329,1.7791,103.59
1652.9,221.01,25.329,-1.2209,101.59
1662.8,219.01,23.329,-6.2209,98.591
1672.7,217.01,22.329,-8.2209,96.591
1682.6,214.01,22.329,-11.221,95.591
1692.5,212.01,21.329,-11.221,93.591
1702.4,207.01,20.329,-17.221,88.591
1712.2,207.01,19.329,-21.221,84.591
1722.1,204.01,17.329,-24.221,82.591
1732.0,199.01,17.329,-26.221,81.591
1741.9,195.01,15.329,-30.221,77.591
1751.8,193.01,15.329,-35.221,74.591
1761.7,189.01,13.329,-38.221,71.591
1771.6,186.01,10.329,-40.221,69.591
1781.4,182.01,8.3293,-39.221,69.591
1791.3,178.01,8.3293,-43.221,66.591
1801.2,174.01,7.3293,-46.221,63.591
1811.1,170.01,5.3293,-46.221,62.591
1821.0,167.01,5.3293,-46.221,61.591
1830.9,163.01,4.3293,-48.221,58.591
1840.8,158.01,3.3293,-51.221,58.591
1850.6,152.01,2.3293,-53.221,56.591
1860.5,145.01,0.32927,-56.221,55.591
1870.4,140.01,-0.67073,-59.221,52.591
1880.3,135.01,-0.67073,-69.221,47.591
1890.2,131.01,-0.67073,-73.221,45.591
1900.1,129.01,-0.67073,-78.221,41.591
1910.0,130.01,-0.67073,-83.221,37.591
1919.8,135.01,0.32927,-89.221,33.591
1929.7,142.01,2.3293,-89.221,29.591
1939.6,142.01,2.3293,-87.221,25.591
1949.5,155.01,4.3293,-89.221,20.591
1959.4,155.01,4.3293,-92.221,15.591
1969.3,160.01,5.3293,-90.221,12.591
1979.2,160.01,5.3293,-88.221,8.591
1989.0,160.01,6.3293,-88.221,5.591
1998.9,160.01,6.3293,-89.221,2.591
2008.8,159.01,3.3293,-90.221,-0.40895
2018.7,159.01,3.3293,-86.221,-0.40895
2028.6,154.01,-1.6707,-85.221,-0.40895
2038.5,154.01,-1.6707,-83.221,-1.409
2048.4,148.01,-3.6707,-84.221,-3.409
2058.2,148.01,-3.6707,-83.221,-5.409
2068.1,141.01,-7.6707,-83.221,-5.409
2078.0,141.01,-7.6707,-86.221,-7.409
2087.9,138.01,-11.671,-90.221,-10.409
2097.8,133.01,-13.671,-92.221,-12.409
2107.7,132.01,-15.671,-98.221,-15.409
2117.6,130.01,-16.671,-102.22,-18.409
2127.4,129.01,-16.671,-104.22,-20.409
2137.3,129.01,-18.671,-105.22,-23.409
2147.2,127.01,-18.671,-107.22,-26.409
2157.1,128.01,-17.671,-112.22,-30.409
2167.0,126.01,-17.671,-113.22,-34.409
2176.9,123.01,-18.671,-116.22,-37.409
2186.8,120.01,-18.671,-118.22,-41.409
2196.6,116.01,-19.671,-122.22,-46.409
2206.5,113.01,-22.671,-124.22,-50.409
2216.4,109.01,-22.671,-127.22,-54.409
2226.3,104.01,-24.671,-127.22,-57.409
2236.2,100.01,-24.671,-128.22,-61.409
2246.1,94.006,-26.671,-129.22,-64.409
2256.0,89.006,-26.671,-132.22,-68.409
2265.8,82.006,-29.671,-135.22,-72.409
2275.7,77.006,-29.671,-141.22,-76.409
2285.6,72.006,-30.671,-141.22,-76.409
2295.5,67.006,-31.671,-144.22,-80.409
2305.4,61.006,-32.671,-148.22,-82.409
2315.3,54.006,-34.671,-153.22,-86.409
2325.2,48.006,-34.671,-159.22,-89.409
2335.0,45.006,-36.671,-165.22,-91.409
2344.9,38.006,-37.671,-170.22,-95.409
2354.8,30.006,-38.671,-177.22,-97.409
2364.7,24.006,-40.671,-179.22,-97.409
2374.6,18.006,-42.671,-180.22,-95.409
2384.5,11.006,-44.671,-178.22,-94.409
2394.4,5.0063,-45.671,-178.22,-93.409
2404.2,-3.9937,-46.671,-179.22,-91.409
2414.1,-8.9937,-45.671,-180.22,-90.409
2424.0,-12.994,-44.671,-180.22,-90.409
2433.9,-18.994,-45.671,-184.22,-91.409
2443.8,-19.994,-43.671,-184.22,-91.409
2453.7,-18.994,-44.671,-197.22,-98.409
2463.6,-12.994,-41.671,-197.22,-98.409
2473.4,-4.9937,-37.671,-206.22,-106.41
2483.3,2.0063,-35.671,-206.22,-106.41
2493.2,5.0063,-32.671,-200.22,-108.41
2503.1,11.006,-31.671,-200.22,-108.41
2513.0,13.006,-29.671,-192.22,-105.41
2522.9,16.006,-27.671,-192.22,-105.41
2532.8,15.006,-27.671,-188.22,-103.41
2542.6,14.006,-29.671,-188.22,-103.41
2552.5,12.006,-29.671,-184.22,-102.41
2562.4,6.0063,-30.671,-184.22,-102.41
2572.3,4.0063,-31.671,-190.22,-102.41
2582.2,-0.99367,-32.671,-190.22,-102.41
2592.1,-1.9937,-34.671,-191.22,-100.41
2602.0,-7.9937,-36.671,-191.22,-100.41
2611.8,-7.9937,-36.671,-188.22,-94.409
2621.7,-10.994,-37.671,-188.22,-94.409
2631.6,-12.994,-37.671,-187.22,-91.409
2641.5,-15.994,-38.671,-182.22,-87.409
2651.4,-17.994,-37.671,-181.22,-85.409
2661.3,-19.994,-36.671,-180.22,-82.409
2671.2,-19.994,-36.671,-182.22,-80.409
2681.0,-23.994,-37.671,-183.22,-79.409
2690.9,-23.994,-37.671,-186.22,-78.409
2700.8,-28.994,-36.671,-189.22,-78.409
2710.7,-28.994,-36.671,-192.22,-78.409
2720.6,-35.994,-37.671,-194.22,-77.409
2730.5,-35.994,-37.671,-196.22,-76.409
2740.4,-44.994,-39.671,-194.22,-73.409
2750.2,-44.994,-39.671,-194.22,-72.409
2760.1,-51.994,-41.671,-194.22,-69.409
2770.0,-51.994,-41.671,-193.22,-69.409
2779.9,-61.994,-42.671,-198.22,-69.409
2789.8,-61.994,-42.671,-205.22,-71.409
2799.7,-71.994,-44.671,-210.22,-71.409
2809.6,-71.994,-44.671,-209.22,-72.409
2819.4,-76.994,-47.671,-209.22,-71.409
2829.3,-81.994,-49.671,-210.22,-72.409
2839.2,-86.994,-51.671,-208.22,-70.409
2849.1,-89.994,-51.671,-207.22,-69.409
2859.0,-95.994,-51.671,-202.22,-66.409
2868.9,-100.99,-53.671,-200.22,-64.409
2878.8,-105.99,-54.671,-196.22,-62.409
2888.6,-109.99,-55.671,-196.22,-62.409
2898.5,-115.99,-58.671,-195.22,-59.409
2908.4,-121.99,-60.671,-201.22,-59.409
2918.3,-126.99,-62.671,-201.22,-59.409
2928.2,-129.99,-63.671,-203.22,-57.409
2938.1,-136.99,-65.671,-205.22,-56.409
2948.0,-140.99,-67.671,-209.22,-55.409
2957.8,-143.99,-66.671,-212.22,-55.409
2967.7,-143.99,-65.671,-212.22,-53.409
2977.6,-145.99,-64.671,-212.22,-51.409
2987.5,-143.99,-63.671,-209.22,-47.409
2997.4,-138.99,-63.671,-206.22,-45.409
3007.3,-129.99,-63.671,-202.22,-43.409
3017.2,-121.99,-60.671,-200.22,-42.409
3027.0,-110.99,-59.671,-197.22,-42.409
3036.9,-103.99,-59.671,-195.22,-41.409
3046.8,-93.994,-59.671,-191.22,-41.409
3056.7,-86.994,-59.671,-187.22,-40.409
3066.6,-80.994,-60.671,-180.22,-37.409
3076.5,-74.994,-60.671,-177.22,-36.409
3086.4,-72.994,-59.671,-169.22,-32.409
3096.2,-68.994,-59.671,-165.22,-30.409
3106.1,-63.994,-60.671,-160.22,-28.409
3116.0,-60.994,-60.671,-155.22,-26.409
3125.9,-57.994,-60.671,-151.22,-22.409
3135.8,-54.994,-59.671,-145.22,-20.409
3145.7,-53.994,-59.671,-143.22,-18.409
3155.6,-52.994,-60.671,-140.22,-16.409
3165.4,-50.994,-62.671,-143.22,-14.409
3175.3,-49.994,-62.671,-142.22,-12.409
3185.2,-47.994,-61.671,-143.22,-12.409
3195.1,-42.994,-61.671,-141.22,-11.409
3205.0,-42.994,-61.671,-142.22,-9.409
3214.9,-38.994,-60.671,-142.22,-9.409
3224.8,-35.994,-60.671,-141.22,-8.409
3234.6,-33.994,-59.671,-143.22,-9.409
3244.5,-32.994,-59.671,-145.22,-10.409
3254.4,-29.994,-59.671,-147.22,-11.409
3264.3,-30.994,-59.671,-150.22,-13.409
3274.2,-32.994,-61.671,-155.22,-16.409
3284.1,-34.994,-62.671,-156.22,-18.409
3294.0,-34.994,-64.671,-159.22,-18.409
3303.8,-37.994,-66.671,-159.22,-19.409
3313.7,-39.994,-67.671,-158.22,-19.409
3323.6,-39.994,-69.671,-157.22,-19.409
3333.5,-42.994,-70.671,-157.22,-18.409
3343.4,-42.994,-71.671,-157.22,-20.409
3353.3,-44.994,-72.671,-157.22,-20.409
3363.2,-46.994,-75.671,-156.22,-19.409
3373.0,-47.994,-76.671,-160.22,-21.409
3382.9,-48.994,-77.671,-162.22,-22.409
3392.8,-50.994,-79.671,-163.22,-23.409
3402.7,-50.994,-79.671,-163.22,-21.409
3412.6,-51.994,-83.671,-161.22,-20.409
3422.5,-51.994,-83.671,-160.22,-19.409
3432.4,-54.994,-86.671,-160.22,-19.409
3442.2,-54.994,-86.671,-161.22,-19.409
3452.1,-60.994,-90.671,-161.22,-19.409
3462.0,-60.994,-90.671,-169.22,-21.409
3471.9,-65.994,-94.671,-169.22,-21.409
3481.8,-65.994,-94.671,-170.22,-22.409
3491.7,-65.994,-96.671,-170.22,-22.409
3501.5,-65.994,-96.671,-171.22,-21.409
3511.4,-62.994,-94.671,-171.22,-21.409
3521.3,-62.994,-94.671,-174.22,-21.409
3531.2,-53.994,-91.671,-174.22,-21.409
3541.1,-53.994,-91.671,-177.22,-23.409
3551.0,-44.994,-90.671,-177.22,-23.409
3560.9,-33.994,-86.671,-176.22,-30.409
3570.8,-23.994,-82.671,-176.22,-30.409
3580.6,-12.994,-80.671,-177.22,-36.409
3590.5,-2.9937,-77.671,-177.22,-36.409
3600.4,4.0063,-75.671,-175.22,-37.409
3610.3,11.006,-74.671,-175.22,-37.409
3620.2,16.006,-72.671,-171.22,-38.409
3630.1,22.006,-73.671,-163.22,-35.409
3639.9,22.006,-74.671,-160.22,-32.409
3649.8,23.006,-76.671,-156.22,-31.409
3659.7,26.006,-78.671,-153.22,-30.409
3669.6,27.006,-80.671,-152.22,-30.409
3679.5,26.006,-81.671,-154.22,-29.409
3689.4,27.006,-84.671,-154.22,-30.409
3699.3,27.006,-84.671,-155.22,-29.409
3709.1,27.006,-85.671,-158.22,-31.409
3719.0,30.006,-84.671,-162.22,-31.409
3728.9,33.006,-82.671,-165.22,-33.409
3738.8,37.006,-80.671,-170.22,-36.409
3748.7,41.006,-80.671,-169.22,-35.409
3758.6,44.006,-78.671,-168.22,-35.409
3768.5,47.006,-79.671,-169.22,-36.409
3778.3,49.006,-78.671,-169.22,-36.409
3788.2,50.006,-81.671,-166.22,-35.409
3798.1,48.006,-82.671,-165.22,-35.409
3808.0,46.006,-87.671,-167.22,-35.409
3817.9,44.006,-89.671,-170.22,-37.409
3827.8,42.006,-93.671,-173.22,-37.409
3837.7,39.006,-96.671,-176.22,-39.409
3847.5,37.006,-98.671,-180.22,-40.409
3857.4,37.006,-101.67,-182.22,-39.409
3867.3,36.006,-103.67,-183.22,-39.409
3877.2,37.006,-104.67,-181.22,-36.409
3887.1,35.006,-105.67,-181.22,-35.409
3897.0,35.006,-105.67,-182.22,-35.409
3906.9,33.006,-106.67,-189.22,-38.409
3916.7,33.006,-107.67,-194.22,-39.409
3926.6,32.006,-106.67,-194.22,-38.409
3936.5,31.006,-107.67,-195.22,-39.409
3946.4,30.006,-105.67,-196.22,-40.409
3956.3,31.006,-105.67,-198.22,-39.409
3966.2,30.006,-104.67,-198.22,-39.409
3976.1,30.006,-103.67,-201.22,-40.409
3985.9,30.006,-103.67,-199.22,-39.409
3995.8,28.006,-102.67,-197.22,-37.409
4005.7,27.006,-101.67,-195.22,-37.409
4015.6,25.006,-101.67,-196.22,-35.409
4025.5,26.006,-100.67,-200.22,-37.409
4035.4,28.006,-98.671,-200.22,-36.409
4045.3,26.006,-95.671,-203.22,-36.409
4055.1,25.006,-94.671,-204.22,-35.409
4065.0,26.006,-94.671,-206.22,-35.409
4074.9,31.006,-92.671,-207.22,-32.409
4084.8,38.006,-89.671,-208.22,-33.409
4094.7,46.006,-87.671,-210.22,-34.409
4104.6,55.006,-83.671,-208.22,-35.409
4114.5,67.006,-79.671,-205.22,-34.409
4124.3,78.006,-75.671,-205.22,-34.409
4134.2,78.006,-75.671,-202.22,-35.409
4144.1,91.006,-71.671,-200.22,-32.409
4154.0,91.006,-71.671,-192.22,-28.409
4163.9,99.006,-69.671,-183.22,-24.409
4173.8,99.006,-69.671,-177.22,-21.409
4183.7,101.01,-69.671,-175.22,-21.409
4193.5,101.01,-69.671,-176.22,-21.409
4203.4,100.01,-72.671,-173.22,-18.409
4213.3,100.01,-72.671,-166.22,-17.409
4223.2,100.01,-73.671,-166.22,-16.409
4233.1,100.01,-73.671,-162.22,-15.409
4243.0,101.01,-70.671,-162.22,-15.409
4252.9,101.01,-70.671,-162.22,-15.409
4262.7,108.01,-66.671,-163.22,-16.409
4272.6,108.01,-66.671,-162.22,-14.409
4282.5,111.01,-64.671,-159.22,-13.409
4292.4,114.01,-62.671,-158.22,-13.409
4302.3,115.01,-60.671,-155.22,-12.409
4312.2,119.01,-57.671,-152.22,-11.409
4322.1,120.01,-57.671,-154.22,-12.409
4331.9,120.01,-58.671,-157.22,-14.409
4341.8,120.01,-57.671,-155.22,-13.409
4351.7,116.01,-56.671,-158.22,-14.409
4361.6,116.01,-57.671,-157.22,-14.409
4371.5,115.01,-55.671,-158.22,-15.409
4381.4,113.01,-54.671,-162.22,-17.409
4391.3,110.01,-53.671,-161.22,-17.409
4401.1,108.01,-51.671,-153.22,-13.409
4411.0,105.01,-49.671,-147.22,-9.409
4420.9,102.01,-49.671,-147.22,-9.409
4430.8,97.006,-47.671,-141.22,-7.409
4440.7,93.006,-46.671,-141.22,-7.409
4450.6,87.006,-46.671,-139.22,-6.409
4460.5,81.006,-44.671,-139.22,-6.409
4470.3,77.006,-43.671,-136.22,-5.409
4480.2,70.006,-43.671,-136.22,-5.409
4490.1,66.006,-40.671,-133.22,-3.409
4500.0,61.006,-37.671,-133.22,-3.409
4509.9,56.006,-36.671,-132.22,-1.409
4519.8,50.006,-34.671,-132.22,-1.409
4529.7,45.006,-32.671,-126.22,1.591
4539.5,39.006,-30.671,-126.22,1.591
4549.4,34.006,-29.671,-120.22,4.591
4559.3,25.006,-29.671,-120.22,4.591
4569.2,20.006,-28.671,-112.22,7.591
4579.1,15.006,-26.671,-112.22,7.591
4589.0,8.0063,-24.671,-99.221,16.591
4598.9,6.0063,-22.671,-99.221,16.591
4608.7,4.0063,-20.671,-92.221,22.591
4618.6,4.0063,-17.671,-92.221,22.591
4628.5,8.0063,-15.671,-77.221,27.591
4638.4,12.006,-12.671,-77.221,27.591
4648.3,17.006,-7.6707,-58.221,33.591
4658.2,22.006,-5.6707,-58.221,33.591
4668.1,30.006,-2.6707,-50.221,35.591
4677.9,32.006,-0.67073,-44.221,38.591
4687.8,34.006,1.3293,-33.221,41.591
4697.7,35.006,2.3293,-22.221,46.591
4707.6,33.006,3.3293,-10.221,50.591
4717.5,31.006,3.3293,-2.2209,56.591
4727.4,29.006,3.3293,9.7791,60.591
4737.3,26.006,1.3293,17.779,62.591
4747.1,25.006,1.3293,25.779,66.591
4757.0,21.006,1.3293,28.779,69.591
4766.9,16.006,-0.67073,33.779,71.591
4776.8,14.006,0.32927,36.779,73.591
4786.7,15.006,1.3293,39.779,74.591
4796.6,13.006,2.3293,42.779,75.591
4806.5,14.006,4.3293,39.779,73.591
4816.3,13.006,3.3293,35.779,70.591
4826.2,12.006,6.3293,31.779,69.591
4836.1,12.006,6.3293,30.779,68.591
4846.0,10.006,8.3293,29.779,68.591
4855.9,10.006,8.3293,31.779,69.591
4865.8,10.006,8.3293,32.779,70.591
4875.7,4.0063,7.3293,36.779,71.591
4885.5,4.0063,7.3293,36.779,71.591
4895.4,-4.9937,6.3293,35.779,72.591
4905.3,-4.9937,6.3293,34.779,69.591
4915.2,-11.994,4.3293,34.779,70.591
4925.1,-11.994,4.3293,30.779,69.591
4935.0,-20.994,3.3293,28.779,68.591
4944.9,-20.994,3.3293,25.779,65.591
4954.7,-25.994,1.3293,21.779,64.591
4964.6,-25.994,1.3293,22.779,65.591
4974.5,-33.994,1.3293,25.779,67.591
4984.4,-33.994,1.3293,26.779,69.591
4994.3,-39.994,-1.6707,27.779,69.591
5004.2,-39.994,-1.6707,27.779,69.591
5014.1,-43.994,-1.6707,28.779,71.591
5023.9,-47.994,-2.6707,27.779,71.591
5033.8,-50.994,-2.6707,29.779,71.591
5043.7,-53.994,-3.6707,27.779,72.591
5053.6,-56.994,-5.6707,24.779,70.591
5063.5,-59.994,-4.6707,25.779,71.591
5073.4,-63.994,-5.6707,26.779,72.591
5083.3,-70.994,-7.6707,27.779,72.591
5093.1,-73.994,-9.6707,27.779,73.591
5103.0,-78.994,-10.671,32.779,76.591
5112.9,-81.994,-9.6707,33.779,76.591
5122.8,-83.994,-9.6707,34.779,80.591
5132.7,-86.994,-8.6707,36.779,81.591
5142.6,-85.994,-7.6707,36.779,82.591
5152.5,-79.994,-4.6707,33.779,78.591
5162.3,-71.994,-1.6707,31.779,77.591
5172.2,-63.994,0.32927,33.779,75.591
5182.1,-52.994,3.3293,35.779,75.591
5192.0,-44.994,5.3293,41.779,74.591
5201.9,-36.994,7.3293,43.779,76.591
5211.8,-29.994,10.329,52.779,79.591
5221.7,-25.994,10.329,59.779,82.591
5231.5,-22.994,12.329,66.779,85.591
5241.4,-21.994,12.329,70.779,86.591
5251.3,-21.994,12.329,72.779,88.591
5261.2,-23.994,10.329,77.779,89.591
5271.1,-24.994,9.3293,83.779,90.591
5281.0,-23.994,8.3293,82.779,91.591
5290.9,-27.994,6.3293,80.779,89.591
5300.7,-28.994,4.3293,78.779,87.591
5310.6,-29.994,5.3293,78.779,86.591
5320.5,-30.994,2.3293,73.779,84.591
5330.4,-29.994,2.3293,71.779,83.591
5340.3,-28.994,4.3293,68.779,83.591
5350.2,-27.994,4.3293,68.779,83.591
5360.1,-25.994,5.3293,68.779,81.591
5369.9,-23.994,4.3293,69.779,82.591
5379.8,-22.994,5.3293,67.779,82.591
5389.7,-20.994,6.3293,68.779,83.591
5399.6,-22.994,7.3293,70.779,83.591
5409.5,-24.994,7.3293,69.779,84.591
5419.4,-25.994,6.3293,68.779,82.591
5429.3,-27.994,5.3293,69.779,83.591
5439.1,-28.994,3.3293,67.779,83.591
5449.0,-34.994,2.3293,63.779,81.591
5458.9,-36.994,1.3293,64.779,83.591
5468.8,-37.994,0.32927,64.779,83.591
5478.7,-39.994,-0.67073,68.779,87.591
5488.6,-40.994,0.32927,68.779,87.591
5498.5,-42.994,-0.67073,77.779,91.591
5508.3,-45.994,-1.6707,77.779,91.591
5518.2,-48.994,-1.6707,80.779,93.591
5528.1,-49.994,-1.6707,80.779,93.591
5538.0,-52.994,-2.6707,79.779,92.591
5547.9,-52.994,-2.6707,79.779,92.591
5557.8,-55.994,-4.6707,77.779,92.591
5567.7,-57.994,-4.6707,77.779,92.591
5577.5,-60.994,-5.6707,76.779,91.591
5587.4,-65.994,-7.6707,76.779,91.591
5597.3,-65.994,-7.6707,77.779,93.591
5607.2,-70.994,-10.671,77.779,93.591
5617.1,-70.994,-10.671,78.779,93.591
5627.0,-77.994,-12.671,78.779,93.591
5636.9,-77.994,-12.671,73.779,93.591
5646.7,-81.994,-13.671,73.779,93.591
5656.6,-81.994,-13.671,74.779,92.591
5666.5,-80.994,-13.671,74.779,92.591
5676.4,-80.994,-13.671,69.779,91.591
5686.3,-67.994,-9.6707,64.779,87.591
5696.2,-67.994,-9.6707,57.779,84.591
5706.1,-42.994,-3.6707,55.779,81.591
5715.9,-42.994,-3.6707,55.779,79.591
5725.8,-18.994,1.3293,57.779,78.591
5735.7,-18.994,1.3293,57.779,78.591
5745.6,-9.9937,3.3293,62.779,79.591
5755.5,-3.9937,5.3293,67.779,82.591
5765.4,1.0063,7.3293,70.779,84.591
5775.3,6.0063,7.3293,76.779,86.591
5785.1,10.006,7.3293,77.779,85.591
5795.0,11.006,6.3293,76.779,84.591
5804.9,12.006,5.3293,71.779,83.591
5814.8,14.006,4.3293,70.779,81.591
5824.7,15.006,2.3293,71.779,82.591
5834.6,12.006,0.32927,72.779,83.591
5844.5,16.006,0.32927,74.779,85.591
5854.3,17.006,0.32927,72.779,84.591
5864.2,20.006,0.32927,69.779,82.591
5874.1,22.006,0.32927,67.779,81.591
5884.0,26.006,2.3293,64.779,79.591
5893.9,29.006,3.3293,60.779,78.591
5903.8,31.006,3.3293,56.779,76.591
5913.7,33.006,3.3293,54.779,74.591
5923.5,38.006,5.3293,48.779,70.591
5933.4,37.006,5.3293,46.779,69.591
5943.3,38.006,4.3293,42.779,67.591
5953.2,39.006,4.3293,39.779,65.591
5963.1,36.006,2.3293,37.779,64.591
5973.0,34.006,1.3293,39.779,66.591
5982.9,33.006,-0.67073,41.779,66.591
5992.7,33.006,-2.6707,45.779,67.591
6002.6,30.006,-3.6707,42.779,67.591
6012.5,31.006,-3.6707,40.779,65.591
6022.4,30.006,-2.6707,35.779,63.591
6032.3,29.006,-4.6707,31.779,60.591
6042.2,29.006,-4.6707,28.779,58.591
6052.0,26.006,-5.6707,24.779,55.591
6061.9,22.006,-6.6707,23.779,54.591
6071.8,22.006,-7.6707,22.779,53.591
6081.7,19.006,-9.6707,19.779,52.591
6091.6,16.006,-10.671,16.779,49.591
6101.5,14.006,-11.671,17.779,48.591
6111.4,14.006,-12.671,15.779,47.591
6121.3,11.006,-14.671,13.779,45.591
6131.1,10.006,-15.671,13.779,45.591
6141.0,9.0063,-17.671,13.779,43.591
6150.9,5.0063,-17.671,12.779,41.591
6160.8,2.0063,-18.671,8.7791,39.591
6170.7,1.0063,-20.671,3.7791,36.591
6180.6,3.0063,-19.671,-0.22085,32.591
6190.4,4.0063,-17.671,-2.2209,31.591
6200.3,6.0063,-18.671,-5.2209,28.591
6210.2,10.006,-16.671,-10.221,25.591
6220.1,21.006,-14.671,-16.221,20.591
6230.0,33.006,-11.671,-22.221,16.591
6239.9,48.006,-7.6707,-23.221,13.591
6249.8,56.006,-5.6707,-21.221,11.591
6259.7,70.006,-3.6707,-19.221,10.591
6269.5,77.006,-0.67073,-15.221,11.591
6279.4,86.006,0.32927,-12.221,10.591
6289.3,91.006,2.3293,-12.221,9.591
6299.2,96.006,0.32927,-10.221,9.591
6309.1,99.006,0.32927,-10.221,8.591
6319.0,100.01,-1.6707,-11.221,7.591
6328.8,100.01,-1.6707,-13.221,5.591
6338.7,105.01,-4.6707,-19.221,1.591
6348.6,105.01,-4.6707,-23.221,-0.40895
6358.5,105.01,-8.6707,-25.221,-0.40895
6368.4,105.01,-8.6707,-26.221,-0.40895
6378.3,108.01,-11.671,-26.221,-0.40895
6388.2,108.01,-11.671,-27.221,-1.409
6398.0,110.01,-13.671,-32.221,-3.409
6407.9,110.01,-13.671,-39.221,-5.409
6417.8,116.01,-13.671,-41.221,-8.409
6427.7,116.01,-13.671,-46.221,-11.409
6437.6,119.01,-15.671,-50.221,-13.409
6447.5,119.01,-15.671,-55.221,-18.409
6457.4,124.01,-16.671,-59.221,-21.409
6467.2,124.01,-16.671,-62.221,-23.409
6477.1,124.01,-18.671,-62.221,-23.409
6487.0,125.01,-19.671,-63.221,-27.409
6496.9,124.01,-20.671,-63.221,-27.409
6506.8,124.01,-21.671,-74.221,-34.409
6516.7,123.01,-23.671,-74.221,-34.409
6526.6,123.01,-23.671,-84.221,-43.409
6536.4,123.01,-24.671,-84.221,-43.409
6546.3,122.01,-23.671,-85.221,-48.409
6556.2,122.01,-25.671,-85.221,-48.409
6566.1,120.01,-25.671,-87.221,-54.409
6576.0,119.01,-26.671,-87.221,-54.409
6585.9,117.01,-26.671,-93.221,-59.409
6595.8,117.01,-29.671,-93.221,-59.409
6605.6,114.01,-28.671,-96.221,-61.409
6615.5,111.01,-30.671,-96.221,-61.409
6625.4,110.01,-30.671,-98.221,-61.409
6635.3,111.01,-31.671,-98.221,-61.409
6645.2,109.01,-32.671,-105.22,-63.409
6655.1,106.01,-33.671,-105.22,-63.409
6665.0,105.01,-33.671,-111.22,-66.409
6674.8,101.01,-34.671,-111.22,-66.409
6684.7,99.006,-34.671,-115.22,-68.409
6694.6,95.006,-36.671,-119.22,-72.409
6704.5,91.006,-37.671,-123.22,-73.409
6714.4,87.006,-37.671,-122.22,-73.409
6724.3,86.006,-35.671,-123.22,-73.409
6734.2,85.006,-33.671,-123.22,-74.409
6744.0,85.006,-31.671,-123.22,-74.409
6753.9,89.006,-29.671,-126.22,-77.409
6763.8,96.006,-25.671,-129.22,-78.409
6773.7,102.01,-20.671,-131.22,-82.409
6783.6,110.01,-15.671,-131.22,-85.409
6793.5,118.01,-10.671,-128.22,-86.409
6803.4,122.01,-6.6707,-125.22,-87.409
6813.2,125.01,-3.6707,-124.22,-86.409
6823.1,125.01,-0.67073,-121.22,-86.409
6833.0,123.01,0.32927,-120.22,-86.409
6842.9,120.01,2.3293,-117.22,-84.409
6852.8,115.01,2.3293,-114.22,-82.409
6862.7,111.01,1.3293,-109.22,-80.409
6872.6,103.01,1.3293,-105.22,-77.409
6882.4,99.006,3.3293,-102.22,-74.409
6892.3,91.006,2.3293,-96.221,-70.409
6902.2,82.006,0.32927,-92.221,-69.409
6912.1,73.006,-1.6707,-92.221,-65.409
6922.0,66.006,-3.6707,-92.221,-65.409
6931.9,61.006,-4.6707,-95.221,-64.409
6941.8,55.006,-4.6707,-98.221,-65.409
6951.6,49.006,-5.6707,-100.22,-65.409
6961.5,45.006,-6.6707,-102.22,-64.409
6971.4,42.006,-6.6707,-107.22,-64.409
6981.3,40.006,-4.6707,-108.22,-66.409
6991.2,35.006,-4.6707,-111.22,-64.409
7001.1,34.006,-3.6707,-113.22,-64.409
7011.0,29.006,-3.6707,-113.22,-65.409
7020.8,26.006,-2.6707,-113.22,-63.409
7030.7,20.006,-4.6707,-114.22,-61.409
7040.6,16.006,-5.6707,-116.22,-62.409
7050.5,11.006,-6.6707,-119.22,-62.409
7060.4,11.006,-6.6707,-122.22,-62.409
7070.3,-0.99367,-10.671,-123.22,-62.409
7080.2,-0.99367,-10.671,-123.22,-60.409
7090.0,-12.994,-13.671,-124.22,-62.409
7099.9,-12.994,-13.671,-125.22,-61.409
7109.8,-22.994,-17.671,-126.22,-62.409
7119.7,-22.994,-17.671,-130.22,-61.409
7129.6,-35.994,-19.671,-130.22,-61.409
7139.5,-35.994,-19.671,-132.22,-60.409
7149.4,-41.994,-21.671,-133.22,-61.409
7159.2,-41.994,-21.671,-135.22,-59.409
7169.1,-51.994,-24.671,-136.22,-58.409
7179.0,-51.994,-24.671,-138.22,-58.409
7188.9,-63.994,-28.671,-137.22,-55.409
7198.8,-63.994,-28.671,-134.22,-54.409
7208.7,-66.994,-30.671,-136.22,-53.409
7218.6,-71.994,-31.671,-139.22,-52.409
7228.4,-76.994,-34.671,-137.22,-51.409
7238.3,-80.994,-38.671,-136.22,-49.409
7248.2,-83.994,-39.671,-134.22,-47.409
7258.1,-86.994,-41.671,-132.22,-46.409
7268.0,-88.994,-41.671,-134.22,-44.409
7277.9,-88.994,-40.671,-135.22,-44.409
7287.8,-87.994,-41.671,-138.22,-45.409
7297.6,-83.994,-42.671,-140.22,-46.409
7307.5,-73.994,-40.671,-139.22,-46.409
7317.4,-60.994,-36.671,-139.22,-47.409
7327.3,-47.994,-32.671,-138.22,-47.409
7337.2,-36.994,-28.671,-132.22,-45.409
7347.1,-25.994,-26.671,-127.22,-43.409
7357.0,-13.994,-23.671,-122.22,-39.409
7366.8,-7.9937,-20.671,-116.22,-36.409
7376.7,-0.99367,-18.671,-108.22,-31.409
7386.6,5.0063,-18.671,-104.22,-27.409
7396.5,10.006,-17.671,-102.22,-25.409
7406.4,15.006,-17.671,-101.22,-22.409
7416.3,16.006,-17.671,-97.221,-19.409
7426.2,18.006,-17.671,-99.221,-18.409
7436.0,20.006,-18.671,-100.22,-18.409
7445.9,20.006,-20.671,-103.22,-17.409
7455.8,21.006,-22.671,-104.22,-16.409
7465.7,19.006,-25.671,-106.22,-15.409
7475.6,19.006,-26.671,-105.22,-14.409
7485.5,19.006,-28.671,-104.22,-13.409
7495.4,22.006,-27.671,-101.22,-10.409
7505.2,22.006,-29.671,-101.22,-10.409
7515.1,23.006,-29.671,-102.22,-8.409
7525.0,24.006,-28.671,-102.22,-8.409
7534.9,28.006,-28.671,-105.22,-10.409
7544.8,27.006,-28.671,-105.22,-10.409
7554.7,28.006,-28.671,-107.22,-9.409
7564.6,27.006,-29.671,-107.22,-9.409
7574.4,27.006,-29.671,-109.22,-10.409
7584.3,25.006,-31.671,-109.22,-10.409
7594.2,24.006,-32.671,-114.22,-12.409
7604.1,21.006,-34.671,-114.22,-12.409
7614.0,19.006,-37.671,-120.22,-13.409
7623.9,17.006,-37.671,-120.22,-13.409
7633.8,15.006,-38.671,-120.22,-13.409
7643.6,13.006,-39.671,-120.22,-13.409
7653.5,10.006,-41.671,-126.22,-15.409
7663.4,9.0063,-43.671,-126.22,-15.409
7673.3,8.0063,-44.671,-134.22,-18.409
7683.2,5.0063,-44.671,-134.22,-18.409
7693.1,7.0063,-45.671,-136.22,-19.409
7703.0,5.0063,-45.671,-136.22,-19.409
7712.8,4.0063,-45.671,-136.22,-19.409
7722.7,7.0063,-46.671,-138.22,-21.409
7732.6,6.0063,-47.671,-141.22,-22.409
7742.5,3.0063,-46.671,-139.22,-24.409
7752.4,4.0063,-48.671,-137.22,-23.409
7762.3,3.0063,-48.671,-135.22,-22.409
7772.2,-0.99367,-50.671,-134.22,-22.409
7782.0,-2.9937,-53.671,-137.22,-25.409
7791.9,-3.9937,-53.671,-140.22,-25.409
7801.8,-5.9937,-54.671,-143.22,-27.409
7811.7,-5.9937,-54.671,-146.22,-28.409
7821.6,-4.9937,-51.671,-146.22,-28.409
7831.5,-4.9937,-51.671,-150.22,-29.409
7841.4,6.0063,-47.671,-152.22,-31.409
7851.2,6.0063,-47.671,-153.22,-31.409
7861.1,24.006,-39.671,-154.22,-33.409
7871.0,24.006,-39.671,-152.22,-33.409
7880.9,44.006,-34.671,-150.22,-35.409
7890.8,44.006,-34.671,-145.22,-36.409
7900.7,57.006,-31.671,-143.22,-38.409
7910.6,57.006,-31.671,-141.22,-37.409
7920.4,66.006,-28.671,-137.22,-37.409
7930.3,66.006,-28.671,-133.22,-38.409
7940.2,69.006,-27.671,-130.22,-38.409
7950.1,69.006,-29.671,-125.22,-38.409
7960.0,70.006,-30.671,-123.22,-37.409
7969.9,71.006,-31.671,-119.22,-37.409
7979.8,71.006,-31.671,-116.22,-34.409
7989.6,69.006,-32.671,-112.22,-34.409
7999.5,68.006,-33.671,-109.22,-32.409
8009.4,70.006,-32.671,-108.22,-32.409
8019.3,72.006,-32.671,-108.22,-32.409
8029.2,74.006,-30.671,-109.22,-34.409
8039.1,74.006,-30.671,-111.22,-34.409
8049.0,77.006,-28.671,-113.22,-35.409
8058.8,78.006,-27.671,-111.22,-34.409
8068.7,81.006,-26.671,-108.22,-33.409
8078.6,82.006,-25.671,-107.22,-32.409
8088.5,82.006,-24.671,-106.22,-32.409
8098.4,83.006,-24.671,-109.22,-32.409
8108.3,81.006,-23.671,-108.22,-32.409
8118.2,81.006,-25.671,-109.22,-31.409
8128.0,79.006,-25.671,-106.22,-30.409
8137.9,77.006,-26.671,-105.22,-30.409
8147.8,76.006,-26.671,-106.22,-29.409
8157.7,75.006,-25.671,-106.22,-29.409
8167.6,71.006,-26.671,-105.22,-26.409
8177.5,69.006,-25.671,-102.22,-24.409
8187.4,68.006,-26.671,-99.221,-23.409
8197.2,66.006,-26.671,-101.22,-22.409
8207.1,64.006,-26.671,-105.22,-23.409
8217.0,61.006,-25.671,-104.22,-23.409
8226.9,60.006,-26.671,-106.22,-23.409
8236.8,58.006,-27.671,-106.22,-22.409
8246.7,58.006,-26.671,-106.22,-20.409
8256.6,54.006,-26.671,-104.22,-19.409
8266.4,51.006,-27.671,-105.22,-19.409
8276.3,49.006,-25.671,-106.22,-19.409
8286.2,48.006,-25.671,-104.22,-18.409
8296.1,45.006,-25.671,-104.22,-17.409
8306.0,40.006,-26.671,-104.22,-17.409
8315.9,37.006,-26.671,-105.22,-17.409
8325.8,33.006,-29.671,-105.22,-16.409
8335.6,31.006,-27.671,-104.22,-16.409
8345.5,29.006,-26.671,-104.22,-14.409
8355.4,28.006,-25.671,-100.22,-13.409
8365.3,25.006,-26.671,-99.221,-13.409
8375.2,27.006,-23.671,-96.221,-10.409
8385.1,31.006,-21.671,-97.221,-10.409
8395.0,36.006,-19.671,-94.221,-9.409
8404.8,43.006,-17.671,-93.221,-10.409
8414.7,50.006,-15.671,-92.221,-11.409
8424.6,57.006,-12.671,-89.221,-10.409
8434.5,64.006,-9.6707,-84.221,-10.409
8444.4,68.006,-7.6707,-82.221,-8.409
8454.3,70.006,-6.6707,-79.221,-7.409
8464.2,73.006,-4.6707,-75.221,-5.409
8474.0,72.006,-6.6707,-69.221,-1.409
8483.9,70.006,-5.6707,-65.221,1.591
8493.8,69.006,-7.6707,-59.221,3.591
8503.7,66.006,-7.6707,-55.221,7.591
8513.6,60.006,-10.671,-55.221,7.591
8523.5,59.006,-10.671,-50.221,12.591
8533.4,56.006,-10.671,-50.221,12.591
8543.2,56.006,-10.671,-48.221,14.591
8553.1,54.006,-6.6707,-48.221,14.591
8563.0,54.006,-6.6707,-50.221,17.591
8572.9,47.006,-5.6707,-50.221,17.591
8582.8,47.006,-5.6707,-43.221,22.591
8592.7,45.006,-1.6707,-43.221,22.591
8602.5,45.006,-1.6707,-36.221,27.591
8612.4,41.006,0.32927,-36.221,27.591
8622.3,41.006,0.32927,-35.221,30.591
8632.2,33.006,-1.6707,-35.221,30.591
8642.1,33.006,-1.6707,-35.221,32.591
8652.0,23.006,-2.6707,-35.221,32.591
8661.9,23.006,-2.6707,-39.221,30.591
8671.8,12.006,-4.6707,-39.221,30.591
8681.6,12.006,-4.6707,-45.221,27.591
8691.5,5.0063,-5.6707,-45.221,27.591
8701.4,0.006327,-6.6707,-41.221,30.591
8711.3,-6.9937,-7.6707,-41.221,30.591
8721.2,-13.994,-8.6707,-39.221,33.591
8731.1,-19.994,-8.6707,-36.221,35.591
8741.0,-24.994,-9.6707,-30.221,37.591
8750.8,-31.994,-10.671,-25.221,40.591
8760.7,-36.994,-9.6707,-20.221,44.591
8770.6,-40.994,-8.6707,-16.221,45.591
8780.5,-44.994,-9.6707,-16.221,46.591
8790.4,-50.994,-9.6707,-15.221,47.591
8800.3,-55.994,-9.6707,-13.221,50.591
8810.2,-60.994,-9.6707,-6.2209,54.591
8820.0,-65.994,-10.671,-1.2209,57.591
8829.9,-70.994,-11.671,2.7791,60.591
8839.8,-76.994,-12.671,4.7791,61.591
8849.7,-83.994,-14.671,10.779,63.591
8859.6,-90.994,-15.671,13.779,66.591
8869.5,-94.994,-17.671,18.779,68.591
8879.3,-99.994,-17.671,22.779,69.591
8889.2,-102.99,-16.671,22.779,69.591
8899.1,-106.99,-16.671,24.779,70.591
8909.0,-107.99,-13.671,29.779,72.591
8918.9,-106.99,-13.671,30.779,72.591
8928.8,-99.994,-9.6707,28.779,72.591
8938.7,-94.994,-6.6707,31.779,72.591
8948.5,-85.994,-3.6707,37.779,73.591
8958.4,-78.994,-0.67073,42.779,74.591
8968.3,-71.994,2.3293,48.779,76.591
8978.2,-64.994,3.3293,58.779,78.591
8988.1,-60.994,6.3293,61.779,80.591
8998.0,-57.994,7.3293,68.779,82.591
9007.9,-56.994,8.3293,77.779,85.591
9017.7,-57.994,8.3293,82.779,88.591
9027.6,-60.994,7.3293,90.779,89.591
9037.5,-61.994,6.3293,95.779,90.591
9047.4,-62.994,6.3293,97.779,92.591
9057.3,-65.994,5.3293,100.78,91.591
9067.2,-68.994,5.3293,103.78,92.591
9077.1,-69.994,4.3293,104.78,92.591
9086.9,-71.994,3.3293,102.78,92.591
9096.8,-73.994,3.3293,104.78,93.591
9106.7,-74.994,3.3293,106.78,95.591
9116.6,-75.994,3.3293,107.78,94.591
9126.5,-76.994,3.3293,106.78,94.591
9136.4,-74.994,4.3293,105.78,94.591
9146.3,-77.994,4.3293,103.78,90.591
9156.1,-79.994,6.3293,101.78,90.591
9166.0,-79.994,5.3293,102.78,90.591
9175.9,-82.994,4.3293,99.779,88.591
9185.8,-85.994,3.3293,92.779,84.591
9195.7,-88.994,2.3293,88.779,82.591
9205.6,-92.994,2.3293,86.779,81.591
9215.5,-94.994,1.3293,84.779,80.591
9225.3,-100.99,-0.67073,85.779,82.591
9235.2,-104.99,-2.6707,91.779,82.591
9245.1,-108.99,-2.6707,92.779,83.591
9255.0,-114.99,-3.6707,95.779,85.591
9264.9,-115.99,-5.6707,93.779,84.591
9274.8,-115.99,-5.6707,88.779,81.591
9284.7,-123.99,-7.6707,83.779,78.591
9294.5,-123.99,-7.6707,82.779,78.591
9304.4,-131.99,-9.6707,80.779,76.591
9314.3,-131.99,-9.6707,77.779,75.591
9324.2,-137.99,-9.6707,75.779,73.591
9334.1,-137.99,-9.6707,76.779,75.591
9344.0,-145.99,-12.671,77.779,77.591
9353.9,-145.99,-12.671,82.779,79.591
9363.7,-152.99,-15.671,80.779,78.591
9373.6,-152.99,-15.671,79.779,79.591
9383.5,-160.99,-16.671,80.779,78.591
9393.4,-160.99,-16.671,80.779,78.591
9403.3,-165.99,-17.671,76.779,76.591
9413.2,-167.99,-18.671,74.779,74.591
9423.1,-171.99,-18.671,71.779,73.591
9432.9,-172.99,-17.671,69.779,73.591
9442.8,-177.99,-17.671,70.779,74.591
9452.7,-178.99,-17.671,72.779,75.591
9462.6,-175.99,-16.671,71.779,74.591
9472.5,-167.99,-14.671,69.779,74.591
9482.4,-161.99,-11.671,72.779,73.591
9492.3,-150.99,-9.6707,77.779,73.591
9502.1,-141.99,-7.6707,77.779,73.591
9512.0,-133.99,-4.6707,81.779,73.591
9521.9,-126.99,-1.6707,81.779,73.591
9531.8,-119.99,0.32927,90.779,77.591
9541.7,-117.99,0.32927,90.779,77.591
9551.6,-116.99,0.32927,106.78,84.591
9561.5,-115.99,-1.6707,106.78,84.591
9571.3,-118.99,-2.6707,118.78,89.591
9581.2,-118.99,-4.6707,118.78,89.591
9591.1,-119.99,-4.6707,123.78,91.591
9601.0,-119.99,-4.6707,123.78,91.591
9610.9,-121.99,-4.6707,120.78,92.591
9620.8,-122.99,-5.6707,120.78,92.591
9630.7,-122.99,-5.6707,119.78,93.591
9640.5,-117.99,-3.6707,119.78,93.591
9650.4,-117.99,-3.6707,115.78,93.591
9660.3,-117.99,-3.6707,115.78,93.591
9670.2,-117.99,-3.6707,114.78,94.591
9680.1,-116.99,-2.6707,114.78,94.591
9690.0,-116.99,-2.6707,110.78,92.591
9699.9,-117.99,-3.6707,107.78,91.591
9709.7,-118.99,-4.6707,106.78,92.591
9719.6,-118.99,-4.6707,104.78,92.591
9729.5,-120.99,-5.6707,102.78,91.591
9739.4,-119.99,-5.6707,98.779,88.591
9749.3,-121.99,-6.6707,95.779,89.591
9759.2,-123.99,-6.6707,96.779,88.591
9769.1,-124.99,-6.6707,95.779,90.591
9778.9,-126.99,-8.6707,94.779,89.591
9788.8,-129.99,-8.6707,94.779,89.591
9798.7,-131.99,-9.6707,95.779,89.591
9808.6,-134.99,-10.671,96.779,90.591
9818.5,-138.99,-12.671,98.779,91.591
9828.4,-139.99,-12.671,99.779,92.591
9838.3,-141.99,-12.671,101.78,92.591
9848.1,-144.99,-14.671,97.779,91.591
9858.0,-147.99,-14.671,92.779,87.591
9867.9,-149.99,-15.671,88.779,85.591
9877.8,-151.99,-15.671,88.779,85.591
9887.7,-156.99,-16.671,90.779,85.591
9897.6,-156.99,-17.671,93.779,87.591
9907.5,-159.99,-19.671,96.779,86.591
9917.3,-161.99,-20.671,94.779,86.591
9927.2,-167.99,-21.671,93.779,84.591
9937.1,-169.99,-22.671,93.779,84.591
9947.0,-171.99,-23.671,90.779,82.591
9956.9,-173.99,-24.671,88.779,81.591
9966.8,-174.99,-23.671,89.779,81.591
9976.7,-174.99,-22.671,91.779,81.591
9986.5,-172.99,-20.671,92.779,82.591
9996.4,-163.99,-16.671,92.779,82.591
10006.0,-163.99,-16.671,92.779,81.591
10016.0,-143.99,-11.671,95.779,79.591
10026.0,-143.99,-11.671,98.779,78.591
10036.0,-124.99,-6.6707,98.779,76.591
10046.0,-124.99,-6.6707,100.78,74.591
10056.0,-109.99,-2.6707,101.78,74.591
10066.0,-109.99,-2.6707,104.78,75.591
10076.0,-101.99,-0.67073,110.78,76.591
10085.0,-101.99,-0.67073,115.78,78.591
10095.0,-96.994,1.3293,120.78,80.591
10105.0,-96.994,1.3293,122.78,81.591
10115.0,-96.994,0.32927,122.78,81.591
10125.0,-96.994,0.32927,124.78,81.591
10135.0,-95.994,-1.6707,129.78,82.591
10145.0,-97.994,-3.6707,132.78,84.591
10155.0,-97.994,-5.6707,135.78,86.591
10165.0,-98.994,-6.6707,136.78,86.591
10174.0,-96.994,-7.6707,136.78,85.591
10184.0,-94.994,-6.6707,135.78,85.591
10194.0,-91.994,-5.6707,131.78,85.591
10204.0,-88.994,-4.6707,129.78,83.591
10214.0,-85.994,-3.6707,126.78,83.591
10224.0,-84.994,-1.6707,122.78,81.591
10234.0,-81.994,-1.6707,121.78,80.591
10244.0,-79.994,-1.6707,117.78,79.591
10254.0,-78.994,-2.6707,114.78,78.591
10263.0,-76.994,-1.6707,111.78,76.591
10273.0,-76.994,-3.6707,102.78,73.591
10283.0,-76.994,-4.6707,96.779,71.591
10293.0,-76.994,-5.6707,92.779,69.591
10303.0,-78.994,-5.6707,91.779,69.591
10313.0,-79.994,-8.6707,91.779,70.591
10323.0,-81.994,-9.6707,89.779,70.591
10333.0,-80.994,-8.6707,86.779,70.591
10342.0,-81.994,-10.671,84.779,70.591
10352.0,-84.994,-11.671,82.779,69.591
10362.0,-84.994,-11.671,81.779,71.591
10372.0,-83.994,-11.671,85.779,73.591
10382.0,-86.994,-12.671,86.779,74.591
10392.0,-87.994,-13.671,84.779,74.591
10402.0,-88.994,-13.671,81.779,72.591
10412.0,-88.994,-13.671,75.779,71.591
10422.0,-93.994,-14.671,67.779,66.591
10431.0,-92.994,-14.671,63.779,63.591
10441.0,-93.994,-16.671,58.779,60.591
10451.0,-96.994,-16.671,56.779,59.591
10461.0,-97.994,-16.671,57.779,59.591
10471.0,-97.994,-17.671,55.779,59.591
10481.0,-99.994,-17.671,53.779,57.591
10491.0,-99.994,-16.671,49.779,56.591
10501.0,-101.99,-15.671,52.779,57.591
10511.0,-101.99,-17.671,51.779,60.591
10520.0,-96.994,-17.671,51.779,59.591
10530.0,-91.994,-15.671,48.779,57.591
10540.0,-80.994,-12.671,46.779,54.591
10550.0,-69.994,-10.671,46.779,54.591
10560.0,-58.994,-6.6707,39.779,46.591
10570.0,-49.994,-4.6707,39.779,46.591
10580.0,-38.994,-0.67073,39.779,42.591
10590.0,-31.994,0.32927,39.779,42.591
10600.0,-25.994,3.3293,40.779,41.591
10609.0,-20.994,4.3293,40.779,41.591
10619.0,-18.994,3.3293,36.779,38.591
10629.0,-17.994,2.3293,36.779,38.591
10639.0,-15.994,1.3293,34.779,36.591
10649.0,-16.994,0.32927,34.779,36.591
10659.0,-16.994,-0.67073,32.779,35.591
10669.0,-18.994,-2.6707,32.779,35.591
10679.0,-19.994,-4.6707,32.779,37.591
10688.0,-20.994,-5.6707,32.779,37.591
10698.0,-19.994,-5.6707,26.779,35.591
10708.0,-18.994,-6.6707,26.779,35.591
10718.0,-18.994,-6.6707,20.779,33.591
10728.0,-15.994,-5.6707,20.779,33.591
10738.0,-15.994,-5.6707,17.779,31.591
10748.0,-12.994,-5.6707,13.779,29.591
10758.0,-12.994,-5.6707,9.7791,27.591
10768.0,-10.994,-5.6707,5.7791,23.591
10777.0,-10.994,-5.6707,0.77915,20.591
10787.0,-11.994,-5.6707,-6.2209,15.591
10797.0,-11.994,-5.6707,-10.221,11.591
10807.0,-13.994,-8.6707,-13.221,8.591
10817.0,-13.994,-8.6707,-16.221,7.591
10827.0,-19.994,-12.671,-17.221,4.591
10837.0,-19.994,-12.671,-16.221,3.591
10847.0,-22.994,-13.671,-18.221,1.591
10857.0,-22.994,-13.671,-22.221,-1.409
10866.0,-24.994,-14.671,-27.221,-5.409
10876.0,-26.994,-14.671,-31.221,-7.409
10886.0,-28.994,-15.671,-32.221,-10.409
10896.0,-30.994,-15.671,-33.221,-10.409
10906.0,-32.994,-15.671,-35.221,-12.409
10916.0,-34.994,-15.671,-41.221,-14.409
10926.0,-35.994,-16.671,-48.221,-17.409
10936.0,-38.994,-16.671,-51.221,-18.409
10946.0,-40.994,-17.671,-53.221,-17.409
10955.0,-43.994,-18.671,-55.221,-17.409
10965.0,-46.994,-20.671,-58.221,-16.409
10975.0,-47.994,-20.671,-59.221,-17.409
10985.0,-52.994,-20.671,-60.221,-16.409
10995.0,-55.994,-20.671,-64.221,-17.409
11005.0,-58.994,-22.671,-67.221,-17.409
11015.0,-60.994,-22.671,-72.221,-20.409
11025.0,-63.994,-21.671,-77.221,-22.409
11034.0,-64.994,-20.671,-82.221,-24.409
11044.0,-64.994,-21.671,-85.221,-28.409
11054.0,-60.994,-18.671,-90.221,-29.409
11064.0,-54.994,-16.671,-90.221,-31.409
11074.0,-45.994,-13.671,-88.221,-34.409
11084.0,-35.994,-9.6707,-89.221,-37.409
11094.0,-27.994,-7.6707,-88.221,-39.409
11104.0,-18.994,-3.6707,-89.221,-40.409
11114.0,-13.994,-0.67073,-88.221,-41.409
11123.0,-8.9937,-0.67073,-86.221,-43.409
11133.0,-3.9937,2.3293,-84.221,-42.409
11143.0,-3.9937,3.3293,-82.221,-40.409
11153.0,-3.9937,3.3293,-79.221,-39.409
11163.0,-4.9937,4.3293,-79.221,-38.409
11173.0,-5.9937,2.3293,-76.221,-36.409
11183.0,-6.9937,4.3293,-75.221,-36.409
11193.0,-8.9937,2.3293,-76.221,-35.409
11203.0,-11.994,2.3293,-77.221,-34.409
11212.0,-13.994,2.3293,-76.221,-35.409
11222.0,-16.994,1.3293,-79.221,-36.409
11232.0,-15.994,2.3293,-82.221,-36.409
11242.0,-18.994,4.3293,-86.221,-37.409
11252.0,-20.994,4.3293,-87.221,-37.409
11262.0,-19.994,5.3293,-87.221,-37.409
11272.0,-20.994,6.3293,-86.221,-36.409
11282.0,-21.994,8.3293,-84.221,-35.409
11291.0,-21.994,9.3293,-85.221,-36.409
11301.0,-23.994,9.3293,-88.221,-36.409
11311.0,-28.994,9.3293,-92.221,-38.409
11321.0,-31.994,7.3293,-96.221,-38.409
11331.0,-35.994,6.3293,-99.221,-40.409
11341.0,-39.994,7.3293,-106.22,-43.409
11351.0,-42.994,4.3293,-110.22,-46.409
11361.0,-47.994,3.3293,-116.22,-48.409
11371.0,-51.994,1.3293,-117.22,-49.409
11380.0,-58.994,-0.67073,-122.22,-51.409
11390.0,-63.994,-1.6707,-123.22,-53.409
11400.0,-66.994,-1.6707,-122.22,-52.409
11410.0,-71.994,-2.6707,-123.22,-52.409
11420.0,-73.994,-2.6707,-121.22,-53.409
11430.0,-78.994,-3.6707,-120.22,-54.409
11440.0,-81.994,-3.6707,-118.22,-54.409
11450.0,-81.994,-3.6707,-117.22,-52.409
11460.0,-84.994,-3.6707,-117.22,-50.409
11469.0,-84.994,-3.6707,-118.22,-49.409
11479.0,-89.994,-3.6707,-120.22,-49.409
11489.0,-89.994,-3.6707,-124.22,-48.409
11499.0,-98.994,-6.6707,-129.22,-48.409
11509.0,-98.994,-6.6707,-131.22,-48.409
11519.0,-107.99,-10.671,-135.22,-48.409
11529.0,-107.99,-10.671,-137.22,-48.409
11539.0,-118.99,-14.671,-138.22,-48.409
11549.0,-118.99,-14.671,-139.22,-47.409
11558.0,-122.99,-12.671,-139.22,-47.409
11568.0,-122.99,-12.671,-139.22,-45.409
11578.0,-119.99,-11.671,-139.22,-45.409
11588.0,-119.99,-11.671,-140.22,-44.409
11598.0,-115.99,-10.671,-140.22,-44.409
11608.0,-104.99,-7.6707,-137.22,-48.409
11618.0,-95.994,-4.6707,-137.22,-48.409
11628.0,-86.994,-3.6707,-131.22,-47.409
11637.0,-80.994,-0.67073,-131.22,-47.409
11647.0,-74.994,0.32927,-126.22,-44.409
11657.0,-67.994,0.32927,-126.22,-44.409
11667.0,-63.994,-0.67073,-116.22,-39.409
11677.0,-62.994,-1.6707,-116.22,-39.409
11687.0,-59.994,-3.6707,-110.22,-33.409
11697.0,-57.994,-7.6707,-110.22,-33.409
11707.0,-54.994,-9.6707,-108.22,-28.409
11717.0,-51.994,-12.671,-108.22,-28.409
11726.0,-49.994,-13.671,-106.22,-24.409
11736.0,-45.994,-14.671,-106.22,-24.409
11746.0,-40.994,-14.671,-103.22,-19.409
11756.0,-36.994,-14.671,-103.22,-19.409
11766.0,-30.994,-14.671,-104.22,-17.409
11776.0,-26.994,-13.671,-105.22,-17.409
11786.0,-22.994,-13.671,-107.22,-17.409
11796.0,-16.994,-13.671,-109.22,-15.409
11806.0,-11.994,-12.671,-107.22,-13.409
11815.0,-6.9937,-11.671,-107.22,-13.409
11825.0,-3.9937,-11.671,-107.22,-12.409
11835.0,0.006327,-11.671,-108.22,-12.409
11845.0,2.0063,-12.671,-108.22,-11.409
11855.0,3.0063,-13.671,-107.22,-11.409
11865.0,5.0063,-14.671,-108.22,-10.409
11875.0,6.0063,-16.671,-107.22,-10.409
11885.0,7.0063,-16.671,-109.22,-12.409
11895.0,8.0063,-17.671,-112.22,-14.409
11904.0,7.0063,-18.671,-116.22,-13.409
11914.0,7.0063,-19.671,-118.22,-16.409
11924.0,8.0063,-19.671,-121.22,-17.409
11934.0,6.0063,-21.671,-123.22,-17.409
11944.0,7.0063,-22.671,-125.22,-19.409
11954.0,5.0063,-22.671,-123.22,-18.409
11964.0,6.0063,-22.671,-123.22,-19.409
11974.0,9.0063,-22.671,-122.22,-19.409
11983.0,8.0063,-22.671,-121.22,-18.409
11993.0,6.0063,-22.671,-117.22,-16.409
12003.0,9.0063,-23.671,-118.22,-17.409
12013.0,9.0063,-23.671,-118.22,-18.409
12023.0,8.0063,-23.671,-119.22,-17.409
12033.0,7.0063,-25.671,-119.22,-16.409
12043.0,8.0063,-23.671,-119.22,-16.409
12053.0,8.0063,-24.671,-121.22,-15.409
12063.0,7.0063,-22.671,-126.22,-16.409
12072.0,8.0063,-20.671,-127.22,-15.409
12082.0,9.0063,-19.671,-128.22,-13.409
12092.0,8.0063,-19.671,-129.22,-12.409
12102.0,9.0063,-17.671,-131.22,-11.409
12112.0,12.006,-17.671,-131.22,-11.409
12122.0,19.006,-16.671,-135.22,-12.409
12132.0,29.006,-14.671,-139.22,-13.409
12142.0,38.006,-11.671,-140.22,-15.409
12152.0,46.006,-7.6707,-142.22,-18.409
12161.0,58.006,-6.6707,-143.22,-20.409
12171.0,64.006,-4.6707,-142.22,-21.409
12181.0,64.006,-4.6707,-139.22,-20.409
12191.0,77.006,-0.67073,-133.22,-18.409
12201.0,77.006,-0.67073,-129.22,-15.409
12211.0,87.006,0.32927,-124.22,-15.409
12221.0,87.006,0.32927,-120.22,-13.409
12231.0,93.006,0.32927,-117.22,-13.409
12241.0,93.006,0.32927,-114.22,-11.409
12250.0,94.006,-1.6707,-109.22,-10.409
12260.0,94.006,-1.6707,-109.22,-11.409
12270.0,93.006,-2.6707,-111.22,-12.409
12280.0,93.006,-2.6707,-113.22,-13.409
12290.0,92.006,-6.6707,-115.22,-15.409
12300.0,92.006,-6.6707,-117.22,-16.409
12310.0,97.006,-3.6707,-121.22,-18.409
12320.0,97.006,-3.6707,-123.22,-20.409
12329.0,98.006,-3.6707,-123.22,-23.409
12339.0,101.01,-2.6707,-124.22,-23.409
12349.0,105.01,-0.67073,-124.22,-23.409
12359.0,107.01,-0.67073,-122.22,-23.409
12369.0,108.01,2.3293,-122.22,-23.409
12379.0,111.01,2.3293,-124.22,-26.409
12389.0,111.01,3.3293,-123.22,-26.409
12399.0,110.01,3.3293,-123.22,-25.409
12409.0,112.01,3.3293,-121.22,-25.409
12418.0,111.01,3.3293,-124.22,-27.409
12428.0,112.01,3.3293,-124.22,-27.409
12438.0,107.01,4.3293,-123.22,-26.409
12448.0,107.01,3.3293,-124.22,-25.409
12458.0,103.01,2.3293,-120.22,-24.409
12468.0,101.01,2.3293,-119.22,-21.409
12478.0,98.006,3.3293,-118.22,-22.409
12488.0,97.006,1.3293,-116.22,-20.409
12498.0,93.006,2.3293,-117.22,-20.409
12507.0,91.006,2.3293,-117.22,-20.409
12517.0,88.006,1.3293,-118.22,-18.409
12527.0,84.006,0.32927,-117.22,-17.409
12537.0,79.006,-1.6707,-114.22,-15.409
12547.0,77.006,-0.67073,-116.22,-16.409
12557.0,75.006,-2.6707,-118.22,-17.409
12567.0,72.006,-3.6707,-118.22,-17.409
12577.0,67.006,-2.6707,-115.22,-13.409
12587.0,66.006,-3.6707,-115.22,-13.409
12596.0,62.006,-3.6707,-113.22,-11.409
12606.0,61.006,-3.6707,-113.22,-11.409
12616.0,60.006,-2.6707,-108.22,-8.409
12626.0,58.006,-1.6707,-108.22,-8.409
12636.0,56.006,-1.6707,-109.22,-6.409
12646.0,56.006,-1.6707,-109.22,-6.409
12656.0,60.006,-0.67073,-112.22,-8.409
12666.0,64.006,1.3293,-112.22,-8.409
12675.0,71.006,3.3293,-113.22,-10.409
12685.0,78.006,5.3293,-113.22,-10.409
12695.0,87.006,7.3293,-108.22,-10.409
12705.0,95.006,10.329,-108.22,-10.409
12715.0,101.01,12.329,-104.22,-9.409
12725.0,105.01,15.329,-104.22,-9.409
12735.0,110.01,17.329,-94.221,-2.409
12745.0,111.01,17.329,-94.221,-2.409
12755.0,113.01,19.329,-89.221,-0.40895
12764.0,111.01,18.329,-89.221,-0.40895
12774.0,108.01,19.329,-88.221,2.591
12784.0,108.01,20.329,-85.221,4.591
12794.0,104.01,20.329,-82.221,7.591
12804.0,100.01,20.329,-79.221,8.591
12814.0,98.006,21.329,-77.221,12.591
12824.0,97.006,21.329,-74.221,13.591
12834.0,95.006,23.329,-73.221,16.591
12844.0,94.006,26.329,-73.221,17.591
12853.0,95.006,26.329,-72.221,19.591
12863.0,90.006,29.329,-70.221,19.591
12873.0,90.006,29.329,-72.221,22.591
12883.0,87.006,29.329,-68.221,24.591
12893.0,84.006,29.329,-69.221,23.591
12903.0,80.006,29.329,-73.221,21.591
12913.0,80.006,29.329,-72.221,23.591
12923.0,72.006,27.329,-71.221,23.591
12933.0,72.006,27.329,-72.221,22.591
12942.0,67.006,26.329,-72.221,21.591
12952.0,67.006,26.329,-75.221,20.591
12962.0,59.006,26.329,-77.221,18.591
12972.0,59.006,26.329,-79.221,16.591
12982.0,49.006,24.329,-79.221,17.591
12992.0,49.006,24.329,-77.221,17.591
13002.0,40.006,23.329,-74.221,19.591
13012.0,40.006,23.329,-72.221,20.591
13021.0,28.006,22.329,-68.221,21.591
13031.0,28.006,22.329,-69.221,20.591
13041.0,19.006,21.329,-67.221,20.591
13051.0,19.006,21.329,-70.221,19.591
13061.0,14.006,22.329,-71.221,17.591
13071.0,7.0063,21.329,-70.221,19.591
13081.0,2.0063,22.329,-68.221,19.591
13091.0,-4.9937,22.329,-67.221,19.591
13101.0,-10.994,22.329,-66.221,19.591
13110.0,-18.994,20.329,-63.221,19.591
13120.0,-25.994,20.329,-60.221,21.591
13130.0,-31.994,20.329,-53.221,23.591
13140.0,-36.994,19.329,-50.221,24.591
13150.0,-40.994,20.329,-47.221,25.591
13160.0,-44.994,21.329,-42.221,28.591
13170.0,-50.994,22.329,-39.221,29.591
13180.0,-52.994,22.329,-39.221,27.591
13190.0,-48.994,24.329,-41.221,25.591
13199.0,-45.994,25.329,-43.221,21.591
13209.0,-38.994,28.329,-44.221,18.591
13219.0,-32.994,29.329,-40.221,16.591
13229.0,-26.994,33.329,-35.221,17.591
13239.0,-18.994,35.329,-28.221,19.591
13249.0,-15.994,38.329,-19.221,22.591
13259.0,-11.994,40.329,-9.2209,26.591
13269.0,-11.994,40.329,-1.2209,30.591
13279.0,-11.994,40.329,6.7791,33.591
13288.0,-14.994,40.329,14.779,36.591
13298.0,-16.994,38.329,16.779,37.591
13308.0,-21.994,37.329,18.779,36.591
13318.0,-21.994,37.329,22.779,37.591
13328.0,-23.994,35.329,25.779,38.591
13338.0,-25.994,35.329,27.779,38.591
13348.0,-27.994,35.329,24.779,36.591
13358.0,-25.994,35.329,23.779,35.591
13367.0,-26.994,36.329,22.779,33.591
13377.0,-26.994,36.329,20.779,33.591
13387.0,-29.994,38.329,21.779,32.591
13397.0,-30.994,37.329,20.779,32.591
13407.0,-30.994,38.329,19.779,30.591
13417.0,-32.994,37.329,16.779,28.591
13427.0,-33.994,38.329,12.779,26.591
13437.0,-36.994,37.329,9.7791,23.591
13447.0,-38.994,36.329,5.7791,20.591
13456.0,-41.994,36.329,-1.2209,17.591
13466.0,-43.994,35.329,-8.2209,14.591
13476.0,-46.994,35.329,-10.221,12.591
13486.0,-48.994,35.329,-11.221,11.591
13496.0,-50.994,34.329,-6.2209,13.591
13506.0,-54.994,34.329,-6.2209,13.591
13516.0,-57.994,33.329,-5.2209,14.591
13526.0,-61.994,32.329,-1.2209,15.591
13536.0,-65.994,33.329,3.7791,17.591
13545.0,-69.994,31.329,7.7791,19.591
13555.0,-73.994,29.329,6.7791,18.591
13565.0,-78.994,28.329,4.7791,16.591
13575.0,-82.994,27.329,1.7791,13.591
13585.0,-86.994,26.329,1.7791,12.591
13595.0,-89.994,26.329,1.7791,10.591
13605.0,-92.994,24.329,0.77915,8.591
13615.0,-97.994,24.329,0.77915,8.591
13625.0,-101.99,23.329,-2.2209,7.591
13634.0,-103.99,22.329,-2.2209,7.591
13644.0,-103.99,22.329,-1.2209,6.591
13654.0,-111.99,19.329,-1.2209,6.591
13664.0,-111.99,19.329,-0.22085,7.591
13674.0,-119.99,17.329,-0.22085,7.591
13684.0,-119.99,17.329,0.77915,8.591
13694.0,-125.99,17.329,0.77915,8.591
13704.0,-125.99,17.329,-1.2209,8.591
13713.0,-119.99,18.329,-1.2209,8.591
13723.0,-119.99,18.329,0.77915,9.591
13733.0,-102.99,23.329,0.77915,9.591
13743.0,-102.99,23.329,6.7791,8.591
13753.0,-83.994,29.329,6.7791,8.591
13763.0,-83.994,29.329,6.7791,6.591
13773.0,-69.994,34.329,6.7791,6.591
13783.0,-69.994,34.329,18.779,12.591
13793.0,-65.994,36.329,18.779,12.591
13802.0,-60.994,36.329,29.779,16.591
13812.0,-61.994,37.329,29.779,16.591
13822.0,-62.994,36.329,30.779,17.591
13832.0,-62.994,34.329,35.779,18.591
13842.0,-62.994,33.329,38.779,19.591
13852.0,-64.994,32.329,40.779,19.591
13862.0,-66.994,30.329,44.779,21.591
13872.0,-68.994,29.329,49.779,22.591
13882.0,-68.994,28.329,52.779,23.591
13891.0,-69.994,27.329,52.779,24.591
13901.0,-67.994,28.329,53.779,24.591
13911.0,-68.994,27.329,52.779,20.591
13921.0,-66.994,28.329,48.779,19.591
13931.0,-64.994,29.329,45.779,17.591
13941.0,-65.994,29.329,43.779,15.591
13951.0,-63.994,28.329,39.779,11.591
13961.0,-63.994,28.329,38.779,10.591
13971.0,-62.994,29.329,36.779,9.591
13980.0,-62.994,27.329,31.779,7.591
13990.0,-61.994,28.329,27.779,4.591
14000.0,-63.994,26.329,22.779,2.591
14010.0,-65.994,25.329,19.779,1.591
14020.0,-68.994,23.329,16.779,-0.40895
14030.0,-68.994,22.329,13.779,-2.409
14040.0,-70.994,21.329,7.7791,-3.409
14050.0,-71.994,20.329,4.7791,-4.409
14059.0,-74.994,19.329,3.7791,-5.409
14069.0,-77.994,17.329,0.77915,-5.409
14079.0,-78.994,16.329,-2.2209,-7.409
14089.0,-77.994,15.329,-6.2209,-10.409
14099.0,-78.994,16.329,-8.2209,-10.409
14109.0,-79.994,15.329,-11.221,-11.409
14119.0,-79.994,14.329,-9.2209,-12.409
14129.0,-80.994,14.329,-9.2209,-11.409
14139.0,-81.994,12.329,-9.2209,-11.409
14148.0,-83.994,11.329,-9.2209,-12.409
14158.0,-85.994,10.329,-7.2209,-10.409
14168.0,-88.994,7.3293,-2.2209,-7.409
14178.0,-89.994,7.3293,4.7791,-7.409
14188.0,-90.994,5.3293,2.7791,-9.409
14198.0,-90.994,4.3293,-1.2209,-10.409
14208.0,-91.994,3.3293,-7.2209,-13.409
14218.0,-92.994,4.3293,-9.2209,-14.409
14228.0,-90.994,4.3293,-10.221,-15.409
14237.0,-85.994,5.3293,-9.2209,-15.409
14247.0,-74.994,7.3293,-14.221,-17.409
14257.0,-62.994,10.329,-15.221,-20.409
14267.0,-49.994,13.329,-10.221,-19.409
14277.0,-37.994,15.329,-3.2209,-17.409
14287.0,-26.994,19.329,3.7791,-15.409
14297.0,-15.994,22.329,2.7791,-16.409
14307.0,-7.9937,24.329,5.7791,-15.409
14317.0,-0.99367,26.329,9.7791,-14.409
14326.0,4.0063,26.329,13.779,-10.409
14336.0,8.0063,27.329,19.779,-10.409
14346.0,11.006,26.329,19.779,-10.409
14356.0,12.006,25.329,18.779,-10.409
14366.0,12.006,23.329,17.779,-12.409
14376.0,12.006,23.329,19.779,-11.409
14386.0,10.006,21.329,26.779,-9.409
14396.0,10.006,21.329,30.779,-7.409
14405.0,10.006,20.329,30.779,-8.409
14415.0,10.006,20.329,31.779,-8.409
14425.0,11.006,22.329,30.779,-9.409
14435.0,11.006,22.329,27.779,-11.409
14445.0,12.006,27.329,24.779,-12.409
14455.0,12.006,27.329,24.779,-12.409
14465.0,12.006,28.329,27.779,-11.409
14475.0,12.006,28.329,24.779,-12.409
14485.0,12.006,30.329,20.779,-15.409
14494.0,12.006,30.329,15.779,-17.409
14504.0,11.006,30.329,10.779,-19.409
14514.0,7.0063,29.329,9.7791,-19.409
14524.0,7.0063,27.329,7.7791,-20.409
14534.0,2.0063,26.329,6.7791,-19.409
14544.0,0.006327,25.329,7.7791,-20.409
14554.0,-2.9937,24.329,6.7791,-19.409
14564.0,-5.9937,23.329,2.7791,-19.409
14574.0,-7.9937,24.329,1.7791,-21.409
14583.0,-11.994,22.329,1.7791,-21.409
14593.0,-14.994,22.329,-5.2209,-22.409
14603.0,-17.994,22.329,-5.2209,-22.409
14613.0,-21.994,20.329,-8.2209,-22.409
14623.0,-26.994,17.329,-8.2209,-22.409
14633.0,-31.994,18.329,-7.2209,-24.409
14643.0,-35.994,15.329,-7.2209,-24.409
14653.0,-40.994,15.329,-13.221,-26.409
14663.0,-44.994,13.329,-13.221,-26.409
14672.0,-48.994,12.329,-23.221,-32.409
14682.0,-52.994,10.329,-23.221,-32.409
14692.0,-56.994,9.3293,-24.221,-32.409
14702.0,-62.994,7.3293,-24.221,-32.409
14712.0,-66.994,6.3293,-25.221,-30.409
14722.0,-69.994,5.3293,-25.221,-30.409
14732.0,-73.994,4.3293,-28.221,-28.409
14742.0,-78.994,4.3293,-28.221,-28.409
14751.0,-80.994,3.3293,-34.221,-29.409
14761.0,-83.994,2.3293,-34.221,-29.409
14771.0,-78.994,3.3293,-39.221,-31.409
14781.0,-72.994,3.3293,-41.221,-33.409
14791.0,-60.994,7.3293,-41.221,-35.409
14801.0,-51.994,9.3293,-39.221,-37.409
14811.0,-43.994,11.329,-38.221,-39.409
14821.0,-34.994,14.329,-36.221,-43.409
14831.0,-28.994,16.329,-33.221,-44.409
14840.0,-22.994,19.329,-30.221,-43.409
14850.0,-17.994,20.329,-25.221,-41.409
14860.0,-15.994,21.329,-21.221,-40.409
14870.0,-13.994,20.329,-15.221,-37.409
14880.0,-13.994,19.329,-12.221,-35.409
14890.0,-12.994,18.329,-13.221,-35.409
14900.0,-13.994,17.329,-18.221,-36.409
14910.0,-15.994,16.329,-22.221,-38.409
14920.0,-16.994,13.329,-26.221,-36.409
14929.0,-18.994,12.329,-25.221,-36.409
14939.0,-18.994,10.329,-24.221,-34.409
14949.0,-19.994,11.329,-25.221,-33.409
14959.0,-17.994,13.329,-29.221,-34.409
14969.0,-17.994,13.329,-33.221,-35.409
14979.0,-16.994,13.329,-36.221,-35.409
14989.0,-14.994,13.329,-35.221,-35.409
14999.0,-15.994,14.329,-35.221,-34.409
15009.0,-14.994,13.329,-38.221,-35.409
15018.0,-14.994,13.329,-43.221,-37.409
15028.0,-15.994,11.329,-48.221,-41.409
15038.0,-16.994,10.329,-50.221,-42.409
15048.0,-17.994,8.3293,-52.221,-42.409
15058.0,-20.994,8.3293,-56.221,-43.409
15068.0,-24.994,6.3293,-60.221,-44.409
15078.0,-23.994,4.3293,-61.221,-44.409
15088.0,-23.994,4.3293,-64.221,-42.409
15097.0,-27.994,1.3293,-65.221,-43.409
15107.0,-27.994,1.3293,-67.221,-42.409
15117.0,-32.994,-0.67073,-69.221,-44.409
15127.0,-32.994,-0.67073,-69.221,-44.409
15137.0,-38.994,-3.6707,-70.221,-45.409
15147.0,-38.994,-3.6707,-73.221,-47.409
15157.0,-43.994,-6.6707,-76.221,-49.409
15167.0,-43.994,-6.6707,-79.221,-50.409
15177.0,-48.994,-7.6707,-78.221,-48.409
15186.0,-48.994,-7.6707,-80.221,-48.409
15196.0,-52.994,-9.6707,-81.221,-48.409
15206.0,-52.994,-9.6707,-83.221,-47.409
15216.0,-59.994,-10.671,-81.221,-43.409
15226.0,-59.994,-10.671,-81.221,-40.409
15236.0,-61.994,-10.671,-82.221,-39.409
15246.0,-65.994,-11.671,-85.221,-39.409
15256.0,-69.994,-11.671,-87.221,-38.409
15266.0,-71.994,-12.671,-93.221,-39.409
15275.0,-74.994,-9.6707,-96.221,-40.409
15285.0,-76.994,-4.6707,-100.22,-40.409
15295.0,-77.994,1.3293,-104.22,-41.409
15305.0,-74.994,6.3293,-108.22,-42.409
15315.0,-66.994,14.329,-106.22,-43.409
15325.0,-57.994,23.329,-103.22,-44.409
15335.0,-48.994,30.329,-101.22,-45.409
15345.0,-41.994,38.329,-102.22,-47.409
15355.0,-32.994,45.329,-98.221,-46.409
15364.0,-30.994,49.329,-94.221,-43.409
15374.0,-28.994,53.329,-90.221,-42.409
15384.0,-26.994,56.329,-87.221,-40.409
15394.0,-27.994,58.329,-86.221,-39.409
15404.0,-28.994,60.329,-88.221,-39.409
15414.0,-32.994,59.329,-86.221,-36.409
15424.0,-37.994,58.329,-87.221,-35.409
15434.0,-40.994,59.329,-87.221,-33.409
15443.0,-45.994,58.329,-89.221,-33.409
15453.0,-49.994,57.329,-91.221,-30.409
15463.0,-54.994,56.329,-93.221,-30.409
15473.0,-57.994,55.329,-93.221,-29.409
15483.0,-61.994,55.329,-96.221,-27.409
15493.0,-65.994,52.329,-97.221,-26.409
15503.0,-67.994,52.329,-98.221,-28.409
15513.0,-69.994,52.329,-99.221,-29.409
15523.0,-72.994,51.329,-99.221,-29.409
15532.0,-75.994,50.329,-102.22,-30.409
15542.0,-77.994,48.329,-103.22,-31.409
15552.0,-81.994,48.329,-105.22,-33.409
15562.0,-85.994,45.329,-107.22,-35.409
15572.0,-88.994,44.329,-108.22,-35.409
15582.0,-94.994,41.329,-111.22,-35.409
15592.0,-99.994,37.329,-113.22,-36.409
15602.0,-104.99,35.329,-118.22,-38.409
15612.0,-106.99,32.329,-118.22,-38.409
15621.0,-113.99,29.329,-124.22,-41.409
15631.0,-117.99,26.329,-124.22,-41.409
15641.0,-121.99,23.329,-128.22,-41.409
15651.0,-126.99,21.329,-128.22,-41.409
15661.0,-131.99,17.329,-124.22,-39.409
15671.0,-135.99,14.329,-124.22,-39.409
15681.0,-140.99,12.329,-123.22,-39.409
15691.0,-140.99,9.3293,-123.22,-39.409
15701.0,-145.99,8.3293,-122.22,-37.409
15710.0,-146.99,6.3293,-122.22,-37.409
15720.0,-149.99,4.3293,-126.22,-39.409
15730.0,-149.99,1.3293,-126.22,-39.409
15740.0,-152.99,0.32927,-123.22,-32.409
15750.0,-153.99,-0.67073,-123.22,-32.409
15760.0,-154.99,-3.6707,-121.22,-28.409
15770.0,-157.99,-7.6707,-121.22,-28.409
15780.0,-157.99,-9.6707,-123.22,-24.409
15789.0,-158.99,-11.671,-123.22,-24.409
15799.0,-159.99,-11.671,-123.22,-19.409
15809.0,-159.99,-11.671,-123.22,-19.409
15819.0,-156.99,-10.671,-125.22,-16.409
15829.0,-151.99,-11.671,-127.22,-15.409
15839.0,-151.99,-11.671,-130.22,-14.409
15849.0,-135.99,-8.6707,-132.22,-14.409
15859.0,-135.99,-8.6707,-133.22,-14.409
15869.0,-114.99,-5.6707,-133.22,-15.409
15878.0,-114.99,-5.6707,-131.22,-14.409
15888.0,-95.994,-0.67073,-128.22,-14.409
15898.0,-95.994,-0.67073,-125.22,-13.409
15908.0,-81.994,2.3293,-119.22,-11.409
15918.0,-81.994,2.3293,-115.22,-10.409
15928.0,-72.994,4.3293,-111.22,-9.409
15938.0,-72.994,4.3293,-107.22,-8.409
15948.0,-65.994,5.3293,-103.22,-6.409
15958.0,-65.994,5.3293,-102.22,-6.409
15967.0,-63.994,5.3293,-104.22,-6.409
15977.0,-62.994,4.3293,-102.22,-6.409
15987.0,-63.994,3.3293,-98.221,-4.409
15997.0,-62.994,2.3293,-95.221,-2.409
16007.0,-63.994,0.32927,-94.221,-1.409
16017.0,-62.994,-1.6707,-94.221,-1.409
16027.0,-63.994,-3.6707,-101.22,-4.409
16037.0,-62.994,-4.6707,-103.22,-5.409
16047.0,-60.994,-4.6707,-106.22,-8.409
16056.0,-58.994,-3.6707,-109.22,-10.409
16066.0,-57.994,-2.6707,-113.22,-11.409
16076.0,-53.994,-2.6707,-114.22,-12.409
16086.0,-50.994,-0.67073,-117.22,-11.409
16096.0,-48.994,0.32927,-119.22,-13.409
16106.0,-47.994,1.3293,-119.22,-12.409
16116.0,-45.994,1.3293,-119.22,-13.409
16126.0,-45.994,1.3293,-120.22,-13.409
16135.0,-45.994,-0.67073,-121.22,-13.409
16145.0,-46.994,-2.6707,-123.22,-13.409
16155.0,-49.994,-3.6707,-126.22,-13.409
16165.0,-50.994,-4.6707,-127.22,-14.409
16175.0,-50.994,-7.6707,-130.22,-13.409
16185.0,-51.994,-6.6707,-131.22,-15.409
16195.0,-54.994,-8.6707,-134.22,-15.409
16205.0,-55.994,-9.6707,-135.22,-17.409
16215.0,-54.994,-9.6707,-137.22,-18.409
16224.0,-56.994,-10.671,-141.22,-19.409
16234.0,-54.994,-11.671,-144.22,-22.409
16244.0,-55.994,-12.671,-150.22,-25.409
16254.0,-54.994,-12.671,-150.22,-26.409
16264.0,-55.994,-11.671,-150.22,-25.409
16274.0,-55.994,-13.671,-150.22,-26.409
16284.0,-58.994,-14.671,-148.22,-25.409
16294.0,-58.994,-14.671,-146.22,-24.409
16304.0,-59.994,-15.671,-145.22,-24.409
16313.0,-61.994,-16.671,-145.22,-23.409
16323.0,-62.994,-17.671,-145.22,-24.409
16333.0,-63.994,-17.671,-148.22,-25.409
16343.0,-62.994,-17.671,-149.22,-24.409
16353.0,-62.994,-15.671,-150.22,-23.409
16363.0,-61.994,-15.671,-152.22,-23.409
16373.0,-57.994,-13.671,-153.22,-23.409
16383.0,-48.994,-12.671,-156.22,-24.409
16392.0,-40.994,-10.671,-158.22,-25.409
16402.0,-30.994,-8.6707,-159.22,-26.409
16412.0,-19.994,-5.6707,-157.22,-25.409
16422.0,-8.9937,-1.6707,-155.22,-25.409
16432.0,-2.9937,-0.67073,-154.22,-26.409
16442.0,5.0063,2.3293,-153.22,-26.409
16452.0,12.006,3.3293,-150.22,-25.409
16462.0,18.006,4.3293,-147.22,-23.409
16472.0,22.006,5.3293,-141.22,-19.409
16481.0,24.006,5.3293,-136.22,-17.409
16491.0,25.006,3.3293,-133.22,-16.409
16501.0,28.006,3.3293,-132.22,-15.409
16511.0,27.006,1.3293,-132.22,-15.409
16521.0,28.006,0.32927,-131.22,-14.409
16531.0,28.006,1.3293,-128.22,-12.409
16541.0,31.006,0.32927,-127.22,-10.409
16551.0,31.006,0.32927,-126.22,-10.409
16561.0,34.006,1.3293,-128.22,-10.409
16570.0,34.006,1.3293,-132.22,-13.409
16580.0,40.006,4.3293,-138.22,-14.409
16590.0,40.006,4.3293,-141.22,-15.409
16600.0,43.006,7.3293,-141.22,-16.409
16610.0,43.006,7.3293,-138.22,-13.409
16620.0,48.006,9.3293,-138.22,-13.409
16630.0,48.006,9.3293,-138.22,-13.409
16640.0,49.006,10.329,-140.22,-14.409
16650.0,49.006,10.329,-140.22,-14.409
16659.0,49.006,10.329,-140.22,-15.409
16669.0,49.006,10.329,-141.22,-16.409
16679.0,45.006,10.329,-141.22,-16.409
16689.0,45.006,10.329,-146.22,-20.409
16699.0,44.006,9.3293,-146.22,-20.409
16709.0,42.006,9.3293,-142.22,-18.409
16719.0,40.006,9.3293,-142.22,-18.409
16729.0,38.006,8.3293,-134.22,-13.409
16738.0,36.006,9.3293,-134.22,-13.409
16748.0,33.006,9.3293,-127.22,-11.409
16758.0,32.006,9.3293,-127.22,-11.409
16768.0,29.006,9.3293,-135.22,-15.409
16778.0,28.006,9.3293,-135.22,-15.409
16788.0,25.006,7.3293,-136.22,-15.409
16798.0,22.006,7.3293,-136.22,-15.409
16808.0,22.006,7.3293,-133.22,-14.409
16818.0,18.006,6.3293,-133.22,-14.409
16827.0,14.006,6.3293,-136.22,-14.409
16837.0,13.006,6.3293,-136.22,-14.409
16847.0,7.0063,5.3293,-131.22,-12.409
16857.0,6.0063,5.3293,-131.22,-12.409
16867.0,2.0063,4.3293,-134.22,-13.409
16877.0,1.0063,4.3293,-133.22,-13.409
16887.0,1.0063,7.3293,-130.22,-11.409
16897.0,-1.9937,7.3293,-128.22,-9.409
16907.0,-3.9937,8.3293,-125.22,-8.409
16916.0,0.006327,8.3293,-126.22,-7.409
16926.0,3.0063,10.329,-123.22,-7.409
16936.0,6.0063,12.329,-121.22,-6.409
16946.0,16.006,16.329,-117.22,-6.409
16956.0,25.006,19.329,-112.22,-4.409
16966.0,33.006,23.329,-108.22,-5.409
16976.0,41.006,26.329,-106.22,-5.409
16986.0,46.006,30.329,-104.22,-4.409
16996.0,50.006,31.329,-101.22,-3.409
17005.0,52.006,32.329,-95.221,-0.40895
17015.0,53.006,34.329,-90.221,1.591
17025.0,53.006,31.329,-85.221,3.591
17035.0,52.006,34.329,-81.221,4.591
17045.0,51.006,31.329,-78.221,5.591
17055.0,48.006,31.329,-72.221,10.591
17065.0,44.006,30.329,-66.221,13.591
17075.0,42.006,31.329,-64.221,14.591
17084.0,40.006,30.329,-63.221,14.591
17094.0,38.006,32.329,-66.221,14.591
17104.0,37.006,33.329,-65.221,16.591
17114.0,34.006,35.329,-65.221,16.591
17124.0,36.006,37.329,-63.221,17.591
17134.0,35.006,38.329,-61.221,18.591
17144.0,35.006,39.329,-60.221,19.591
17154.0,32.006,40.329,-58.221,21.591
17164.0,29.006,41.329,-55.221,23.591
17173.0,25.006,40.329,-55.221,23.591
17183.0,21.006,40.329,-56.221,21.591
17193.0,16.006,40.329,-56.221,24.591
17203.0,13.006,39.329,-54.221,23.591
17213.0,9.0063,39.329,-57.221,23.591
17223.0,3.0063,38.329,-53.221,24.591
17233.0,0.006327,38.329,-54.221,24.591
17243.0,-4.9937,37.329,-56.221,23.591
17253.0,-9.9937,37.329,-55.221,24.591
17262.0,-13.994,36.329,-50.221,26.591
17272.0,-18.994,36.329,-45.221,28.591
17282.0,-23.994,34.329,-40.221,31.591
17292.0,-28.994,33.329,-34.221,34.591
17302.0,-28.994,33.329,-28.221,37.591
17312.0,-37.994,32.329,-25.221,38.591
17322.0,-37.994,32.329,-25.221,38.591
17332.0,-47.994,30.329,-27.221,36.591
17342.0,-47.994,30.329,-25.221,36.591
17351.0,-56.994,28.329,-22.221,38.591
17361.0,-56.994,28.329,-21.221,37.591
17371.0,-63.994,27.329,-16.221,39.591
17381.0,-63.994,27.329,-12.221,41.591
17391.0,-71.994,25.329,-9.2209,42.591
17401.0,-71.994,25.329,-9.2209,41.591
17411.0,-79.994,25.329,-7.2209,41.591
17421.0,-79.994,25.329,-5.2209,43.591
17430.0,-81.994,26.329,0.77915,46.591
17440.0,-81.994,28.329,7.7791,49.591
17450.0,-84.994,27.329,9.7791,50.591
17460.0,-79.994,29.329,12.779,49.591
17470.0,-73.994,32.329,15.779,48.591
17480.0,-65.994,34.329,20.779,48.591
17490.0,-55.994,37.329,26.779,49.591
17500.0,-46.994,39.329,33.779,51.591
17510.0,-38.994,43.329,41.779,52.591
17519.0,-30.994,46.329,48.779,54.591
17529.0,-24.994,47.329,57.779,58.591
17539.0,-20.994,49.329,69.779,62.591
17549.0,-19.994,50.329,79.779,66.591
17559.0,-19.994,50.329,86.779,69.591
17569.0,-19.994,48.329,91.779,69.591
17579.0,-19.994,49.329,95.779,71.591
17589.0,-19.994,49.329,97.779,70.591
17599.0,-23.994,48.329,100.78,69.591
17608.0,-23.994,47.329,101.78,69.591
17618.0,-23.994,50.329,99.779,68.591
17628.0,-22.994,50.329,101.78,67.591
17638.0,-21.994,50.329,101.78,67.591
17648.0,-21.994,52.329,101.78,67.591
17658.0,-21.994,52.329,100.78,64.591
17668.0,-21.994,52.329,100.78,64.591
17678.0,-18.994,54.329,92.779,58.591
17688.0,-18.994,54.329,92.779,58.591
17697.0,-20.994,54.329,92.779,57.591
17707.0,-19.994,54.329,92.779,57.591
17717.0,-21.994,54.329,88.779,54.591
17727.0,-24.994,54.329,88.779,54.591
17737.0,-24.994,53.329,86.779,51.591
17747.0,-27.994,53.329,86.779,51.591
17757.0,-29.994,52.329,81.779,47.591
17767.0,-32.994,51.329,81.779,47.591
17776.0,-35.994,51.329,80.779,48.591
17786.0,-38.994,51.329,80.779,48.591
17796.0,-41.994,50.329,88.779,52.591
17806.0,-44.994,49.329,88.779,52.591
17816.0,-46.994,48.329,90.779,53.591
17826.0,-48.994,48.329,90.779,53.591
17836.0,-51.994,46.329,96.779,56.591
17846.0,-54.994,46.329,96.779,56.591
17856.0,-58.994,45.329,96.779,57.591
17865.0,-61.994,45.329,99.779,58.591
17875.0,-64.994,44.329,98.779,57.591
17885.0,-68.994,43.329,100.78,58.591
17895.0,-71.994,42.329,100.78,58.591
17905.0,-75.994,40.329,97.779,57.591
17915.0,-77.994,41.329,97.779,57.591
17925.0,-82.994,39.329,97.779,56.591
17935.0,-85.994,37.329,98.779,58.591
17945.0,-89.994,37.329,100.78,59.591
17954.0,-93.994,38.329,99.779,59.591
17964.0,-95.994,38.329,101.78,58.591
17974.0,-97.994,38.329,104.78,62.591
17984.0,-96.994,38.329,110.78,65.591
17994.0,-91.994,39.329,109.78,65.591
18004.0,-83.994,42.329,108.78,63.591
18014.0,-74.994,44.329,109.78,62.591
18024.0,-65.994,47.329,112.78,61.591
18034.0,-65.994,47.329,114.78,60.591
18043.0,-47.994,53.329,119.78,60.591
18053.0,-47.994,53.329,123.78,61.591
18063.0,-35.994,57.329,129.78,63.591
18073.0,-35.994,57.329,138.78,65.591
18083.0,-31.994,58.329,148.78,70.591
18093.0,-31.994,58.329,153.78,71.591
18103.0,-33.994,55.329,156.78,72.591
18113.0,-33.994,55.329,158.78,72.591
18122.0,-35.994,54.329,160.78,72.591
18132.0,-35.994,54.329,161.78,71.591
18142.0,-38.994,51.329,159.78,69.591
18152.0,-38.994,51.329,158.78,67.591
18162.0,-39.994,52.329,157.78,67.591
18172.0,-39.994,52.329,154.78,65.591
18182.0,-37.994,54.329,152.78,64.591
18192.0,-36.994,54.329,148.78,64.591
18202.0,-37.994,55.329,146.78,62.591
18211.0,-37.994,54.329,142.78,59.591
18221.0,-35.994,55.329,141.78,59.591
18231.0,-35.994,55.329,137.78,57.591
18241.0,-36.994,55.329,137.78,56.591
18251.0,-37.994,53.329,132.78,55.591
18261.0,-40.994,54.329,128.78,52.591
18271.0,-43.994,52.329,120.78,50.591
18281.0,-45.994,51.329,117.78,48.591
18291.0,-47.994,49.329,116.78,47.591
18300.0,-49.994,48.329,117.78,48.591
18310.0,-52.994,48.329,118.78,50.591
18320.0,-55.994,46.329,120.78,50.591
18330.0,-59.994,44.329,119.78,51.591
18340.0,-62.994,43.329,117.78,52.591
18350.0,-64.994,43.329,119.78,53.591
18360.0,-66.994,40.329,120.78,53.591
18370.0,-69.994,40.329,118.78,54.591
18380.0,-70.994,38.329,116.78,51.591
18389.0,-73.994,38.329,110.78,50.591
18399.0,-76.994,37.329,108.78,49.591
18409.0,-78.994,37.329,108.78,49.591
18419.0,-81.994,36.329,109.78,50.591
18429.0,-86.994,33.329,110.78,51.591
18439.0,-88.994,31.329,110.78,52.591
18449.0,-92.994,32.329,110.78,51.591
18459.0,-94.994,30.329,110.78,51.591
18468.0,-97.994,29.329,108.78,49.591
18478.0,-100.99,28.329,105.78,48.591
18488.0,-103.99,26.329,101.78,48.591
18498.0,-105.99,27.329,101.78,47.591
18508.0,-108.99,27.329,101.78,48.591
18518.0,-109.99,26.329,105.78,50.591
18528.0,-104.99,27.329,104.78,50.591
18538.0,-95.994,30.329,102.78,48.591
18548.0,-88.994,33.329,102.78,46.591
18557.0,-77.994,35.329,104.78,45.591
18567.0,-65.994,38.329,106.78,45.591
18577.0,-57.994,40.329,107.78,44.591
18587.0,-48.994,43.329,107.78,43.591
18597.0,-39.994,45.329,107.78,42.591
18607.0,-33.994,47.329,109.78,43.591
18617.0,-31.994,48.329,115.78,45.591
18627.0,-31.994,47.329,122.78,47.591
18637.0,-27.994,46.329,127.78,48.591
18646.0,-28.994,46.329,131.78,51.591
18656.0,-28.994,44.329,131.78,51.591
18666.0,-28.994,43.329,134.78,51.591
18676.0,-28.994,41.329,135.78,50.591
18686.0,-29.994,40.329,135.78,50.591
18696.0,-29.994,38.329,133.78,50.591
18706.0,-30.994,36.329,129.78,48.591
18716.0,-28.994,36.329,129.78,48.591
18726.0,-27.994,35.329,123.78,45.591
18735.0,-27.994,34.329,123.78,45.591
18745.0,-26.994,33.329,114.78,41.591
18755.0,-25.994,32.329,114.78,41.591
18765.0,-25.994,32.329,114.78,40.591
18775.0,-21.994,30.329,114.78,40.591
18785.0,-21.994,30.329,111.78,39.591
18795.0,-20.994,29.329,111.78,39.591
18805.0,-20.994,29.329,104.78,36.591
18814.0,-18.994,27.329,104.78,36.591
18824.0,-18.994,27.329,100.78,35.591
18834.0,-15.994,25.329,100.78,35.591
18844.0,-15.994,25.329,104.78,36.591
18854.0,-15.994,22.329,104.78,36.591
18864.0,-15.994,22.329,104.78,35.591
18874.0,-14.994,19.329,104.78,35.591
18884.0,-14.994,19.329,102.78,36.591
18894.0,-12.994,17.329,102.78,36.591
18903.0,-12.994,17.329,104.78,36.591
18913.0,-10.994,16.329,108.78,38.591
18923.0,-9.9937,15.329,109.78,38.591
18933.0,-9.9937,13.329,108.78,39.591
18943.0,-6.9937,12.329,105.78,38.591
18953.0,-6.9937,11.329,103.78,36.591
18963.0,-4.9937,10.329,99.779,34.591
18973.0,-4.9937,7.3293,95.779,31.591
18983.0,-4.9937,5.3293,93.779,29.591
18992.0,-3.9937,4.3293,96.779,30.591
19002.0,-1.9937,3.3293,97.779,31.591
19012.0,-2.9937,1.3293,98.779,30.591
19022.0,-1.9937,0.32927,96.779,28.591
19032.0,-0.99367,0.32927,96.779,27.591
19042.0,1.0063,1.3293,96.779,29.591
19052.0,3.0063,4.3293,95.779,27.591
19062.0,9.0063,5.3293,93.779,26.591
19072.0,19.006,8.3293,88.779,23.591
19081.0,32.006,13.329,82.779,18.591
19091.0,47.006,15.329,82.779,15.591
19101.0,58.006,20.329,83.779,13.591
19111.0,71.006,22.329,85.779,12.591
19121.0,81.006,26.329,86.779,10.591
19131.0,91.006,28.329,88.779,10.591
19141.0,98.006,29.329,91.779,10.591
19151.0,104.01,31.329,99.779,12.591
19160.0,110.01,32.329,104.78,15.591
19170.0,114.01,31.329,109.78,16.591
19180.0,118.01,32.329,109.78,14.591
19190.0,122.01,32.329,107.78,12.591
19200.0,123.01,32.329,106.78,11.591
19210.0,124.01,31.329,108.78,11.591
19220.0,125.01,31.329,110.78,12.591
19230.0,125.01,30.329,111.78,12.591
19240.0,127.01,29.329,112.78,12.591
19249.0,128.01,29.329,110.78,12.591
19259.0,129.01,29.329,108.78,11.591
19269.0,132.01,30.329,105.78,11.591
19279.0,132.01,28.329,103.78,10.591
19289.0,133.01,28.329,101.78,8.591
19299.0,132.01,27.329,98.779,7.591
19309.0,132.01,27.329,92.779,4.591
19319.0,130.01,26.329,85.779,0.59105
19329.0,128.01,24.329,84.779,0.59105
19338.0,125.01,23.329,82.779,-0.40895
19348.0,122.01,21.329,82.779,-1.409
19358.0,120.01,20.329,81.779,-1.409
19368.0,116.01,17.329,80.779,-1.409
19378.0,114.01,18.329,81.779,-1.409
19388.0,110.01,15.329,79.779,-1.409
19398.0,106.01,15.329,77.779,-2.409
19408.0,102.01,14.329,72.779,-5.409
19418.0,98.006,13.329,68.779,-9.409
19427.0,92.006,12.329,65.779,-10.409
19437.0,88.006,11.329,63.779,-13.409
19447.0,86.006,10.329,56.779,-15.409
19457.0,80.006,9.3293,55.779,-17.409
19467.0,78.006,10.329,52.779,-19.409
19477.0,73.006,9.3293,52.779,-19.409
19487.0,70.006,9.3293,52.779,-20.409
19497.0,70.006,9.3293,48.779,-21.409
19506.0,60.006,8.3293,47.779,-20.409
19516.0,60.006,8.3293,47.779,-20.409
19526.0,48.006,5.3293,46.779,-19.409
19536.0,48.006,5.3293,44.779,-20.409
19546.0,37.006,3.3293,38.779,-20.409
19556.0,37.006,3.3293,34.779,-21.409
19566.0,26.006,0.32927,28.779,-22.409
19576.0,26.006,0.32927,24.779,-24.409
19586.0,21.006,1.3293,19.779,-25.409
19595.0,21.006,1.3293,15.779,-26.409
19605.0,26.006,4.3293,12.779,-28.409
19615.0,26.006,4.3293,9.7791,-29.409
19625.0,40.006,9.3293,7.7791,-33.409
19635.0,40.006,9.3293,6.7791,-36.409
19645.0,51.006,13.329,6.7791,-38.409
19655.0,55.006,15.329,11.779,-38.409
19665.0,63.006,18.329,14.779,-38.409
19675.0,66.006,19.329,15.779,-38.409
19684.0,67.006,20.329,19.779,-37.409
19694.0,68.006,21.329,21.779,-37.409
19704.0,68.006,21.329,21.779,-36.409
19714.0,68.006,21.329,21.779,-36.409
19724.0,67.006,20.329,21.779,-36.409
19734.0,66.006,19.329,18.779,-37.409
19744.0,64.006,20.329,18.779,-37.409
19754.0,61.006,18.329,19.779,-36.409
19764.0,59.006,16.329,19.779,-36.409
19773.0,55.006,15.329,17.779,-36.409
19783.0,55.006,15.329,17.779,-36.409
19793.0,55.006,15.329,13.779,-39.409
19803.0,50.006,16.329,13.779,-39.409
19813.0,48.006,15.329,9.7791,-42.409
19823.0,48.006,15.329,9.7791,-42.409
19833.0,45.006,15.329,3.7791,-47.409
19843.0,41.006,15.329,3.7791,-47.409
19852.0,42.006,17.329,-2.2209,-51.409
19862.0,40.006,17.329,-2.2209,-51.409
19872.0,37.006,17.329,-4.2209,-52.409
19882.0,31.006,16.329,-4.2209,-54.409
19892.0,26.006,15.329,-7.2209,-55.409
19902.0,23.006,12.329,-9.2209,-56.409
19912.0,17.006,12.329,-15.221,-59.409
19922.0,11.006,11.329,-18.221,-60.409
19932.0,6.0063,9.3293,-22.221,-61.409
19941.0,1.0063,8.3293,-21.221,-63.409
19951.0,-2.9937,6.3293,-25.221,-63.409
19961.0,-9.9937,5.3293,-24.221,-64.409
19971.0,-14.994,4.3293,-25.221,-64.409
19981.0,-20.994,3.3293,-26.221,-66.409
19991.0,-26.994,1.3293,-30.221,-69.409
20001.0,-34.994,0.32927,-33.221,-71.409
20011.0,-39.994,-1.6707,-32.221,-71.409
20021.0,-44.994,-2.6707,-34.221,-70.409
20030.0,-50.994,-2.6707,-35.221,-72.409
20040.0,-58.994,-3.6707,-39.221,-74.409
20050.0,-65.994,-4.6707,-44.221,-75.409
20060.0,-72.994,-4.6707,-50.221,-77.409
20070.0,-77.994,-5.6707,-54.221,-78.409
20080.0,-82.994,-5.6707,-56.221,-77.409
20090.0,-87.994,-6.6707,-60.221,-79.409
20100.0,-94.994,-6.6707,-64.221,-80.409
20110.0,-100.99,-6.6707,-64.221,-79.409
20119.0,-102.99,-5.6707,-65.221,-79.409
20129.0,-105.99,-3.6707,-69.221,-80.409
20139.0,-107.99,-3.6707,-74.221,-82.409
20149.0,-105.99,-2.6707,-76.221,-82.409
20159.0,-100.99,-0.67073,-75.221,-83.409
20169.0,-92.994,0.32927,-79.221,-88.409
20179.0,-87.994,3.3293,-85.221,-93.409
20189.0,-79.994,4.3293,-88.221,-96.409
20198.0,-73.994,6.3293,-87.221,-96.409
20208.0,-70.994,8.3293,-83.221,-97.409
20218.0,-65.994,10.329,-82.221,-96.409
20228.0,-65.994,10.329,-78.221,-93.409
20238.0,-62.994,11.329,-73.221,-90.409
20248.0,-62.994,11.329,-69.221,-88.409
20258.0,-66.994,8.3293,-69.221,-88.409
20268.0,-66.994,8.3293,-70.221,-86.409
20278.0,-69.994,4.3293,-68.221,-85.409
20287.0,-69.994,4.3293,-65.221,-83.409
20297.0,-74.994,0.32927,-66.221,-82.409
20307.0,-74.994,0.32927,-68.221,-84.409
20317.0,-79.994,-2.6707,-75.221,-85.409
20327.0,-79.994,-2.6707,-74.221,-84.409
20337.0,-78.994,-4.6707,-73.221,-81.409
20347.0,-78.994,-4.6707,-70.221,-80.409
20357.0,-75.994,-5.6707,-68.221,-79.409
20367.0,-75.994,-5.6707,-68.221,-78.409
20376.0,-74.994,-6.6707,-69.221,-78.409
20386.0,-69.994,-5.6707,-70.221,-79.409
20396.0,-67.994,-5.6707,-72.221,-81.409
20406.0,-66.994,-7.6707,-74.221,-81.409
20416.0,-64.994,-8.6707,-72.221,-80.409
20426.0,-64.994,-10.671,-69.221,-79.409
20436.0,-64.994,-11.671,-69.221,-79.409
20446.0,-61.994,-12.671,-67.221,-78.409
20456.0,-62.994,-14.671,-68.221,-78.409
20465.0,-59.994,-15.671,-73.221,-78.409
20475.0,-57.994,-15.671,-77.221,-79.409
20485.0,-57.994,-17.671,-76.221,-80.409
20495.0,-60.994,-18.671,-76.221,-79.409
20505.0,-58.994,-18.671,-75.221,-78.409
20515.0,-58.994,-21.671,-75.221,-77.409
20525.0,-56.994,-21.671,-77.221,-78.409
20535.0,-57.994,-22.671,-77.221,-78.409
20544.0,-59.994,-23.671,-81.221,-80.409
20554.0,-59.994,-23.671,-83.221,-80.409
20564.0,-57.994,-24.671,-81.221,-79.409
20574.0,-57.994,-25.671,-81.221,-78.409
20584.0,-59.994,-26.671,-83.221,-80.409
20594.0,-59.994,-28.671,-85.221,-81.409
20604.0,-62.994,-29.671,-86.221,-81.409
20614.0,-60.994,-30.671,-81.221,-79.409
20624.0,-61.994,-31.671,-83.221,-79.409
20633.0,-60.994,-33.671,-87.221,-82.409
20643.0,-60.994,-34.671,-94.221,-86.409
20653.0,-60.994,-34.671,-96.221,-85.409
20663.0,-58.994,-34.671,-92.221,-84.409
20673.0,-56.994,-34.671,-89.221,-82.409
20683.0,-52.994,-33.671,-89.221,-81.409
20693.0,-48.994,-31.671,-89.221,-81.409
20703.0,-39.994,-28.671,-96.221,-86.409
20713.0,-29.994,-25.671,-96.221,-86.409
20722.0,-18.994,-24.671,-98.221,-88.409
20732.0,-8.9937,-21.671,-98.221,-88.409
20742.0,2.0063,-18.671,-96.221,-89.409
20752.0,9.0063,-17.671,-96.221,-89.409
20762.0,12.006,-16.671,-92.221,-87.409
20772.0,19.006,-16.671,-92.221,-87.409
20782.0,22.006,-16.671,-88.221,-82.409
20792.0,25.006,-16.671,-88.221,-82.409
20802.0,27.006,-16.671,-81.221,-77.409
20811.0,30.006,-16.671,-81.221,-77.409
20821.0,32.006,-15.671,-78.221,-74.409
20831.0,31.006,-17.671,-78.221,-74.409
20841.0,31.006,-16.671,-77.221,-73.409
20851.0,31.006,-17.671,-77.221,-73.409
20861.0,31.006,-18.671,-80.221,-74.409
20871.0,31.006,-20.671,-80.221,-74.409
20881.0,32.006,-19.671,-81.221,-77.409
20890.0,33.006,-19.671,-81.221,-77.409
20900.0,35.006,-18.671,-84.221,-80.409
20910.0,37.006,-17.671,-89.221,-82.409
20920.0,40.006,-17.671,-91.221,-85.409
20930.0,42.006,-15.671,-89.221,-86.409
20940.0,44.006,-15.671,-89.221,-86.409
20950.0,46.006,-13.671,-86.221,-86.409
20960.0,46.006,-13.671,-88.221,-88.409
20970.0,48.006,-14.671,-89.221,-90.409
20979.0,48.006,-14.671,-89.221,-91.409
20989.0,48.006,-15.671,-90.221,-92.409
20999.0,48.006,-15.671,-88.221,-92.409
21009.0,44.006,-17.671,-85.221,-90.409
21019.0,44.006,-17.671,-87.221,-91.409
21029.0,41.006,-18.671,-90.221,-92.409
21039.0,41.006,-18.671,-95.221,-93.409
21049.0,37.006,-19.671,-95.221,-93.409
21059.0,37.006,-19.671,-96.221,-93.409
21068.0,35.006,-18.671,-94.221,-92.409
21078.0,35.006,-18.671,-92.221,-91.409
21088.0,35.006,-19.671,-92.221,-91.409
21098.0,35.006,-19.671,-95.221,-92.409
21108.0,35.006,-18.671,-97.221,-93.409
21118.0,33.006,-18.671,-97.221,-93.409
21128.0,34.006,-19.671,-95.221,-91.409
21138.0,33.006,-17.671,-96.221,-93.409
21148.0,32.006,-17.671,-95.221,-91.409
21157.0,29.006,-18.671,-95.221,-91.409
21167.0,27.006,-20.671,-95.221,-90.409
21177.0,22.006,-21.671,-95.221,-88.409
21187.0,22.006,-22.671,-94.221,-87.409
21197.0,21.006,-21.671,-93.221,-87.409
21207.0,21.006,-20.671,-91.221,-84.409
21217.0,19.006,-17.671,-92.221,-83.409
21227.0,22.006,-16.671,-93.221,-82.409
21236.0,28.006,-13.671,-94.221,-82.409
21246.0,35.006,-9.6707,-97.221,-83.409
21256.0,43.006,-6.6707,-97.221,-83.409
21266.0,52.006,-4.6707,-96.221,-84.409
21276.0,62.006,-1.6707,-93.221,-84.409
21286.0,72.006,2.3293,-92.221,-84.409
21296.0,77.006,4.3293,-89.221,-82.409
21306.0,81.006,5.3293,-86.221,-81.409
21316.0,85.006,5.3293,-81.221,-79.409
21325.0,86.006,6.3293,-78.221,-75.409
21335.0,87.006,6.3293,-75.221,-74.409
21345.0,86.006,5.3293,-73.221,-72.409
21355.0,85.006,4.3293,-69.221,-69.409
21365.0,84.006,3.3293,-65.221,-67.409
21375.0,82.006,2.3293,-64.221,-64.409
21385.0,81.006,1.3293,-63.221,-64.409
21395.0,77.006,0.32927,-62.221,-61.409
21405.0,77.006,1.3293,-62.221,-61.409
21414.0,79.006,2.3293,-63.221,-59.409
21424.0,79.006,3.3293,-62.221,-59.409
21434.0,79.006,3.3293,-61.221,-57.409
21444.0,81.006,4.3293,-62.221,-56.409
21454.0,82.006,6.3293,-59.221,-54.409
21464.0,82.006,7.3293,-56.221,-51.409
21474.0,82.006,7.3293,-54.221,-48.409
21484.0,84.006,8.3293,-53.221,-48.409
21494.0,82.006,7.3293,-54.221,-48.409
21503.0,77.006,7.3293,-55.221,-47.409
21513.0,75.006,6.3293,-55.221,-47.409
21523.0,72.006,5.3293,-55.221,-46.409
21533.0,70.006,5.3293,-52.221,-44.409
21543.0,69.006,4.3293,-50.221,-41.409
21553.0,66.006,4.3293,-48.221,-41.409
21563.0,62.006,6.3293,-44.221,-39.409
21573.0,59.006,5.3293,-40.221,-37.409
21582.0,56.006,5.3293,-32.221,-32.409
21592.0,51.006,5.3293,-26.221,-29.409
21602.0,49.006,6.3293,-23.221,-28.409
21612.0,45.006,5.3293,-24.221,-26.409
21622.0,41.006,5.3293,-18.221,-24.409
21632.0,37.006,6.3293,-11.221,-20.409
21642.0,35.006,6.3293,-7.2209,-18.409
21652.0,32.006,8.3293,-4.2209,-16.409
21662.0,29.006,9.3293,-2.2209,-15.409
21671.0,24.006,9.3293,1.7791,-13.409
21681.0,20.006,9.3293,6.7791,-9.409
21691.0,20.006,9.3293,13.779,-6.409
21701.0,10.006,8.3293,18.779,-2.409
21711.0,10.006,8.3293,28.779,1.591
21721.0,2.0063,9.3293,29.779,1.591
21731.0,2.0063,9.3293,29.779,1.591
21741.0,-8.9937,11.329,29.779,1.591
21751.0,-8.9937,11.329,33.779,3.591
21760.0,-11.994,14.329,33.779,3.591
21770.0,-11.994,14.329,34.779,2.591
21780.0,-6.9937,19.329,34.779,2.591
21790.0,-6.9937,19.329,44.779,4.591
21800.0,5.0063,25.329,44.779,4.591
21810.0,5.0063,25.329,58.779,9.591
21820.0,22.006,34.329,58.779,9.591
21830.0,22.006,34.329,81.779,17.591
21839.0,26.006,35.329,81.779,17.591
21849.0,26.006,37.329,97.779,23.591
21859.0,25.006,39.329,97.779,23.591
21869.0,24.006,38.329,112.78,30.591
21879.0,22.006,37.329,112.78,30.591
21889.0,19.006,36.329,130.78,38.591
21899.0,16.006,36.329,130.78,38.591
21909.0,13.006,36.329,137.78,41.591
21919.0,7.0063,33.329,137.78,41.591
21928.0,5.0063,33.329,144.78,43.591
21938.0,4.0063,33.329,144.78,43.591
21948.0,2.0063,33.329,145.78,43.591
21958.0,1.0063,35.329,144.78,43.591
21968.0,-0.99367,36.329,144.78,43.591
21978.0,0.006327,36.329,144.78,41.591
21988.0,-0.99367,37.329,145.78,43.591
21998.0,-1.9937,36.329,145.78,43.591
22008.0,-3.9937,37.329,148.78,43.591
22017.0,-4.9937,37.329,151.78,45.591
22027.0,-7.9937,36.329,152.78,45.591
22037.0,-11.994,35.329,153.78,45.591
22047.0,-16.994,33.329,151.78,46.591
22057.0,-19.994,31.329,152.78,44.591
22067.0,-22.994,29.329,151.78,44.591
22077.0,-25.994,28.329,154.78,45.591
22087.0,-30.994,28.329,157.78,47.591
22097.0,-32.994,28.329,163.78,49.591
22106.0,-38.994,25.329,165.78,51.591
22116.0,-41.994,26.329,166.78,51.591
22126.0,-43.994,24.329,168.78,52.591
22136.0,-46.994,24.329,168.78,52.591
22146.0,-51.994,22.329,170.78,54.591
22156.0,-55.994,22.329,173.78,56.591
22166.0,-58.994,22.329,176.78,57.591
22176.0,-61.994,22.329,175.78,57.591
22185.0,-63.994,20.329,175.78,57.591
22195.0,-67.994,22.329,173.78,55.591
22205.0,-69.994,20.329,174.78,55.591
22215.0,-74.994,20.329,173.78,54.591
22225.0,-78.994,20.329,174.78,54.591
22235.0,-83.994,18.329,174.78,55.591
22245.0,-87.994,17.329,173.78,54.591
22255.0,-93.994,16.329,175.78,54.591
22265.0,-96.994,17.329,175.78,53.591
22274.0,-100.99,17.329,177.78,54.591
22284.0,-102.99,17.329,176.78,54.591
22294.0,-104.99,17.329,175.78,52.591
22304.0,-98.994,18.329,173.78,50.591
22314.0,-94.994,19.329,169.78,46.591
22324.0,-84.994,23.329,173.78,45.591
22334.0,-77.994,25.329,175.78,42.591
22344.0,-68.994,29.329,175.78,40.591
22354.0,-61.994,32.329,174.78,35.591
22363.0,-55.994,34.329,176.78,37.591
22373.0,-52.994,33.329,181.78,37.591
22383.0,-50.994,33.329,188.78,39.591
22393.0,-51.994,33.329,193.78,39.591
22403.0,-51.994,32.329,195.78,40.591
22413.0,-51.994,31.329,198.78,38.591
22423.0,-51.994,31.329,200.78,39.591
22433.0,-53.994,30.329,201.78,37.591
22443.0,-53.994,30.329,199.78,34.591
22452.0,-57.994,28.329,197.78,31.591
22462.0,-57.994,28.329,196.78,30.591
22472.0,-55.994,30.329,192.78,26.591
22482.0,-55.994,30.329,186.78,21.591
22492.0,-53.994,32.329,181.78,18.591
22502.0,-53.994,32.329,180.78,16.591
22512.0,-51.994,35.329,179.78,14.591
22522.0,-51.994,35.329,177.78,12.591
22531.0,-49.994,36.329,172.78,9.591
22541.0,-49.994,36.329,167.78,6.591
22551.0,-51.994,34.329,166.78,6.591
22561.0,-54.994,34.329,165.78,4.591
22571.0,-56.994,33.329,166.78,4.591
22581.0,-57.994,31.329,164.78,4.591
22591.0,-59.994,31.329,165.78,6.591
22601.0,-62.994,29.329,161.78,4.591
22611.0,-62.994,29.329,161.78,4.591
22620.0,-66.994,27.329,161.78,4.591
22630.0,-67.994,26.329,162.78,4.591
22640.0,-68.994,26.329,161.78,6.591
22650.0,-70.994,24.329,162.78,7.591
22660.0,-72.994,23.329,162.78,8.591
22670.0,-75.994,22.329,164.78,9.591
22680.0,-77.994,21.329,165.78,11.591
22690.0,-77.994,21.329,166.78,11.591
22700.0,-80.994,20.329,161.78,10.591
22709.0,-83.994,19.329,159.78,8.591
22719.0,-84.994,19.329,157.78,8.591
22729.0,-87.994,17.329,157.78,8.591
22739.0,-87.994,16.329,155.78,7.591
22749.0,-90.994,16.329,155.78,7.591
22759.0,-93.994,14.329,152.78,5.591
22769.0,-95.994,13.329,152.78,5.591
22779.0,-97.994,13.329,153.78,5.591
22789.0,-99.994,12.329,153.78,5.591
22798.0,-100.99,13.329,155.78,5.591
22808.0,-101.99,13.329,155.78,5.591
22818.0,-100.99,12.329,164.78,7.591
22828.0,-97.994,13.329,164.78,7.591
22838.0,-88.994,16.329,154.78,0.59105
22848.0,-76.994,21.329,154.78,0.59105
22858.0,-66.994,22.329,148.78,-9.409
22868.0,-53.994,26.329,148.78,-9.409
22877.0,-42.994,28.329,156.78,-7.409
22887.0,-33.994,31.329,156.78,-7.409
22897.0,-26.994,33.329,165.78,-6.409
22907.0,-19.994,35.329,165.78,-6.409
22917.0,-14.994,36.329,172.78,-4.409
22927.0,-10.994,38.329,176.78,-3.409
22937.0,-6.9937,38.329,182.78,-1.409
22947.0,-5.9937,37.329,184.78,-3.409
22957.0,-3.9937,37.329,185.78,-2.409
22966.0,-1.9937,36.329,185.78,-3.409
22976.0,1.0063,36.329,183.78,-5.409
22986.0,2.0063,36.329,185.78,-5.409
22996.0,5.0063,36.329,187.78,-5.409
23006.0,9.0063,37.329,186.78,-6.409
23016.0,12.006,39.329,184.78,-6.409
23026.0,14.006,40.329,183.78,-7.409
23036.0,16.006,41.329,181.78,-8.409
23046.0,18.006,42.329,177.78,-10.409
23055.0,21.006,41.329,173.78,-11.409
23065.0,22.006,42.329,171.78,-12.409
23075.0,22.006,42.329,170.78,-13.409
23085.0,22.006,42.329,166.78,-16.409
23095.0,23.006,41.329,162.78,-19.409
23105.0,21.006,41.329,155.78,-23.409
23115.0,21.006,41.329,151.78,-25.409
23125.0,20.006,39.329,149.78,-27.409
23135.0,18.006,38.329,147.78,-28.409
23144.0,16.006,37.329,147.78,-29.409
23154.0,16.006,37.329,146.78,-30.409
23164.0,15.006,36.329,146.78,-29.409
23174.0,15.006,36.329,146.78,-30.409
23184.0,12.006,35.329,146.78,-31.409
23194.0,12.006,35.329,145.78,-30.409
23204.0,7.0063,32.329,146.78,-31.409
23214.0,7.0063,32.329,147.78,-31.409
23223.0,5.0063,32.329,145.78,-31.409
23233.0,5.0063,32.329,145.78,-31.409
23243.0,2.0063,29.329,143.78,-31.409
23253.0,2.0063,29.329,141.78,-33.409
23263.0,-2.9937,24.329,137.78,-34.409
23273.0,-2.9937,24.329,139.78,-33.409
23283.0,-6.9937,22.329,144.78,-30.409
23293.0,-7.9937,20.329,149.78,-29.409
23303.0,-10.994,18.329,153.78,-25.409
23312.0,-14.994,16.329,157.78,-22.409
23322.0,-13.994,18.329,158.78,-20.409
23332.0,-13.994,19.329,160.78,-18.409
23342.0,-13.994,19.329,159.78,-19.409
23352.0,-9.9937,21.329,155.78,-19.409
23362.0,-1.9937,23.329,153.78,-20.409
23372.0,7.0063,26.329,153.78,-21.409
23382.0,18.006,29.329,155.78,-23.409
23392.0,31.006,33.329,155.78,-24.409
23401.0,40.006,37.329,154.78,-26.409
23411.0,49.006,39.329,153.78,-27.409
23421.0,57.006,40.329,157.78,-27.409
23431.0,60.006,43.329,164.78,-25.409
23441.0,65.006,43.329,168.78,-23.409
23451.0,69.006,45.329,170.78,-23.409
23461.0,73.006,45.329,167.78,-25.409
23471.0,73.006,46.329,166.78,-27.409
23481.0,75.006,47.329,165.78,-29.409
23490.0,77.006,47.329,167.78,-29.409
23500.0,77.006,50.329,167.78,-29.409
23510.0,77.006,49.329,168.78,-31.409
23520.0,78.006,48.329,167.78,-34.409
23530.0,78.006,48.329,164.78,-36.409
23540.0,78.006,46.329,159.78,-40.409
23550.0,78.006,45.329,156.78,-42.409
23560.0,78.006,45.329,154.78,-42.409
23569.0,79.006,42.329,153.78,-44.409
23579.0,82.006,42.329,145.78,-47.409
23589.0,81.006,40.329,138.78,-50.409
23599.0,83.006,41.329,133.78,-53.409
23609.0,84.006,40.329,128.78,-55.409
23619.0,85.006,39.329,123.78,-56.409
23629.0,85.006,36.329,121.78,-56.409
23639.0,85.006,32.329,118.78,-59.409
23649.0,85.006,30.329,110.78,-62.409
23658.0,85.006,28.329,106.78,-63.409
23668.0,86.006,24.329,102.78,-65.409
23678.0,85.006,23.329,99.779,-68.409
23688.0,85.006,19.329,94.779,-70.409
23698.0,86.006,17.329,91.779,-73.409
23708.0,85.006,14.329,85.779,-75.409
23718.0,84.006,13.329,85.779,-75.409
23728.0,87.006,11.329,77.779,-78.409
23738.0,88.006,11.329,77.779,-78.409
23747.0,90.006,11.329,68.779,-78.409
23757.0,93.006,12.329,68.779,-78.409
23767.0,94.006,11.329,68.779,-75.409
23777.0,91.006,10.329,68.779,-75.409
23787.0,94.006,9.3293,64.779,-74.409
23797.0,93.006,8.3293,64.779,-74.409
23807.0,93.006,9.3293,53.779,-76.409
23817.0,92.006,6.3293,53.779,-76.409
23827.0,89.006,4.3293,40.779,-78.409
23836.0,90.006,5.3293,40.779,-78.409
23846.0,89.006,5.3293,33.779,-80.409
23856.0,93.006,8.3293,33.779,-80.409
23866.0,93.006,8.3293,27.779,-81.409
23876.0,100.01,10.329,27.779,-81.409
23886.0,100.01,10.329,19.779,-85.409
23896.0,119.01,15.329,19.779,-85.409
23906.0,119.01,15.329,22.779,-86.409
23915.0,140.01,23.329,27.779,-84.409
23925.0,140.01,23.329,29.779,-86.409
23935.0,149.01,29.329,27.779,-89.409
23945.0,149.01,29.329,25.779,-90.409
23955.0,153.01,33.329,24.779,-90.409
23965.0,153.01,33.329,25.779,-89.409
23975.0,148.01,34.329,26.779,-89.409
23985.0,148.01,34.329,28.779,-86.409
23995.0,137.01,33.329,30.779,-85.409
24004.0,137.01,33.329,30.779,-83.409
24014.0,133.01,34.329,29.779,-83.409
24024.0,126.01,34.329,26.779,-83.409
24034.0,118.01,33.329,24.779,-81.409
24044.0,111.01,31.329,23.779,-80.409
24054.0,103.01,31.329,20.779,-79.409
24064.0,95.006,30.329,15.779,-80.409
24074.0,89.006,29.329,11.779,-81.409
24084.0,80.006,29.329,7.7791,-80.409
24093.0,75.006,28.329,6.7791,-80.409
24103.0,68.006,28.329,4.7791,-79.409
24113.0,63.006,26.329,3.7791,-78.409
24123.0,58.006,27.329,-0.22085,-76.409
24133.0,50.006,26.329,-1.2209,-76.409
24143.0,46.006,25.329,-3.2209,-76.409
24153.0,39.006,24.329,-7.2209,-77.409
24163.0,32.006,22.329,-14.221,-78.409
24173.0,25.006,21.329,-22.221,-80.409
24182.0,19.006,20.329,-28.221,-82.409
24192.0,13.006,18.329,-33.221,-84.409
24202.0,7.0063,17.329,-36.221,-84.409
24212.0,0.006327,16.329,-39.221,-83.409
24222.0,-5.9937,15.329,-42.221,-84.409
24232.0,-10.994,13.329,-43.221,-84.409
24242.0,-18.994,11.329,-45.221,-83.409
24252.0,-22.994,9.3293,-47.221,-83.409
24261.0,-28.994,7.3293,-48.221,-84.409
24271.0,-34.994,6.3293,-51.221,-84.409
24281.0,-39.994,4.3293,-54.221,-84.409
24291.0,-42.994,3.3293,-52.221,-82.409
24301.0,-48.994,1.3293,-55.221,-80.409
24311.0,-51.994,0.32927,-56.221,-80.409
24321.0,-58.994,-1.6707,-59.221,-79.409
24331.0,-62.994,-2.6707,-60.221,-76.409
24341.0,-67.994,-4.6707,-62.221,-75.409
24350.0,-69.994,-7.6707,-64.221,-72.409
24360.0,-72.994,-8.6707,-66.221,-70.409
24370.0,-73.994,-9.6707,-69.221,-70.409
24380.0,-73.994,-8.6707,-74.221,-68.409
24390.0,-70.994,-7.6707,-76.221,-66.409
24400.0,-65.994,-7.6707,-79.221,-66.409
24410.0,-61.994,-8.6707,-84.221,-66.409
24420.0,-51.994,-7.6707,-83.221,-65.409
24430.0,-39.994,-5.6707,-83.221,-66.409
24439.0,-25.994,-2.6707,-81.221,-64.409
24449.0,-14.994,-2.6707,-75.221,-61.409
24459.0,-3.9937,0.32927,-70.221,-59.409
24469.0,6.0063,2.3293,-67.221,-57.409
24479.0,14.006,3.3293,-64.221,-56.409
24489.0,15.006,2.3293,-56.221,-51.409
24499.0,20.006,1.3293,-52.221,-48.409
24509.0,18.006,-1.6707,-44.221,-45.409
24519.0,16.006,-5.6707,-39.221,-42.409
24528.0,13.006,-10.671,-36.221,-40.409
24538.0,9.0063,-14.671,-32.221,-37.409
24548.0,3.0063,-19.671,-34.221,-37.409
24558.0,0.006327,-21.671,-37.221,-38.409
24568.0,0.006327,-23.671,-40.221,-40.409
24578.0,-4.9937,-26.671,-42.221,-41.409
24588.0,-3.9937,-28.671,-42.221,-40.409
24598.0,-3.9937,-28.671,-41.221,-39.409
24607.0,-2.9937,-27.671,-36.221,-37.409
24617.0,-2.9937,-27.671,-36.221,-34.409
24627.0,-2.9937,-23.671,-32.221,-34.409
24637.0,-2.9937,-23.671,-27.221,-32.409
24647.0,1.0063,-20.671,-26.221,-30.409
24657.0,1.0063,-20.671,-24.221,-28.409
24667.0,2.0063,-18.671,-23.221,-27.409
24677.0,2.0063,-18.671,-20.221,-26.409
24687.0,2.0063,-17.671,-19.221,-26.409
24696.0,2.0063,-17.671,-20.221,-24.409
24706.0,0.006327,-17.671,-21.221,-25.409
24716.0,0.006327,-17.671,-22.221,-25.409
24726.0,-3.9937,-20.671,-25.221,-25.409
24736.0,-3.9937,-20.671,-21.221,-24.409
24746.0,-4.9937,-21.671,-16.221,-20.409
24756.0,-8.9937,-23.671,-14.221,-18.409
24766.0,-7.9937,-22.671,-14.221,-18.409
24776.0,-9.9937,-23.671,-14.221,-17.409
24785.0,-10.994,-24.671,-14.221,-17.409
24795.0,-10.994,-23.671,-9.2209,-15.409
24805.0,-9.9937,-24.671,-9.2209,-15.409
24815.0,-11.994,-25.671,-9.2209,-15.409
24825.0,-10.994,-25.671,-9.2209,-15.409
24835.0,-11.994,-26.671,-10.221,-15.409
24845.0,-10.994,-25.671,-10.221,-15.409
24855.0,-8.9937,-24.671,-3.2209,-14.409
24865.0,-8.9937,-23.671,-3.2209,-14.409
24874.0,-9.9937,-24.671,0.77915,-12.409
24884.0,-9.9937,-24.671,0.77915,-12.409
24894.0,-8.9937,-23.671,-1.2209,-15.409
24904.0,-8.9937,-23.671,-1.2209,-15.409
24914.0,-8.9937,-20.671,2.7791,-12.409
24924.0,-6.9937,-19.671,2.7791,-12.409
24934.0,-2.9937,-17.671,3.7791,-11.409
24944.0,2.0063,-16.671,3.7791,-11.409
24953.0,9.0063,-14.671,0.77915,-12.409
24963.0,20.006,-9.6707,0.77915,-12.409
24973.0,31.006,-7.6707,3.7791,-13.409
24983.0,38.006,-5.6707,6.7791,-12.409
24993.0,47.006,-1.6707,7.7791,-12.409
25003.0,55.006,-0.67073,10.779,-12.409
25013.0,58.006,2.3293,10.779,-12.409
25023.0,59.006,2.3293,15.779,-9.409
25033.0,60.006,1.3293,24.779,-5.409
25042.0,61.006,1.3293,32.779,-1.409
25052.0,58.006,-1.6707,35.779,0.59105
25062.0,55.006,-2.6707,31.779,-1.409
25072.0,53.006,-2.6707,31.779,-2.409
25082.0,51.006,-6.6707,32.779,-1.409
25092.0,47.006,-7.6707,30.779,-1.409
25102.0,44.006,-9.6707,29.779,-1.409
25112.0,43.006,-10.671,31.779,-1.409
25122.0,41.006,-10.671,29.779,0.59105
25131.0,42.006,-9.6707,27.779,-0.40895
25141.0,44.006,-7.6707,26.779,1.591
25151.0,44.006,-7.6707,27.779,2.591
25161.0,47.006,-5.6707,27.779,3.591
25171.0,47.006,-3.6707,28.779,5.591
25181.0,50.006,-2.6707,30.779,8.591
25191.0,50.006,-1.6707,33.779,9.591
25201.0,49.006,-1.6707,33.779,11.591
25211.0,48.006,-1.6707,29.779,8.591
25220.0,45.006,-1.6707,24.779,7.591
25230.0,44.006,-2.6707,24.779,7.591
25240.0,42.006,-2.6707,26.779,8.591
25250.0,40.006,-4.6707,27.779,10.591
25260.0,36.006,-5.6707,29.779,11.591
25270.0,33.006,-6.6707,31.779,13.591
25280.0,31.006,-8.6707,30.779,13.591
25290.0,29.006,-9.6707,32.779,14.591
25299.0,27.006,-10.671,32.779,15.591
25309.0,25.006,-11.671,33.779,17.591
25319.0,23.006,-12.671,35.779,18.591
25329.0,23.006,-12.671,37.779,19.591
25339.0,22.006,-12.671,35.779,20.591
25349.0,22.006,-12.671,36.779,20.591
25359.0,20.006,-11.671,34.779,20.591
25369.0,20.006,-11.671,34.779,21.591
25379.0,16.006,-12.671,38.779,23.591
25388.0,16.006,-12.671,40.779,24.591
25398.0,11.006,-13.671,40.779,25.591
25408.0,11.006,-13.671,42.779,26.591
25418.0,10.006,-11.671,44.779,25.591
25428.0,10.006,-11.671,47.779,27.591
25438.0,6.0063,-10.671,49.779,28.591
25448.0,6.0063,-10.671,51.779,29.591
25458.0,11.006,-7.6707,53.779,30.591
25468.0,11.006,-7.6707,53.779,28.591
25477.0,17.006,-5.6707,54.779,27.591
25487.0,21.006,-3.6707,55.779,26.591
25497.0,28.006,-1.6707,57.779,25.591
25507.0,36.006,-0.67073,64.779,26.591
25517.0,42.006,2.3293,72.779,30.591
25527.0,49.006,4.3293,81.779,33.591
25537.0,54.006,6.3293,91.779,36.591
25547.0,57.006,8.3293,98.779,39.591
25557.0,60.006,9.3293,106.78,41.591
25566.0,60.006,8.3293,112.78,45.591
25576.0,59.006,8.3293,115.78,45.591
25586.0,57.006,9.3293,115.78,44.591
25596.0,54.006,9.3293,116.78,44.591
25606.0,53.006,10.329,122.78,47.591
25616.0,49.006,11.329,126.78,51.591
25626.0,48.006,12.329,135.78,52.591
25636.0,47.006,13.329,135.78,55.591
25645.0,44.006,16.329,135.78,54.591
25655.0,41.006,16.329,135.78,56.591
25665.0,40.006,18.329,139.78,57.591
25675.0,38.006,19.329,140.78,57.591
25685.0,35.006,19.329,140.78,57.591
25695.0,30.006,21.329,141.78,57.591
25705.0,27.006,21.329,139.78,57.591
25715.0,26.006,23.329,141.78,57.591
25725.0,22.006,24.329,143.78,58.591
25734.0,17.006,24.329,143.78,58.591
25744.0,13.006,25.329,138.78,55.591
25754.0,9.0063,25.329,138.78,55.591
25764.0,3.0063,23.329,139.78,56.591
25774.0,-1.9937,22.329,139.78,56.591
25784.0,-7.9937,21.329,142.78,56.591
25794.0,-12.994,21.329,142.78,56.591
25804.0,-16.994,21.329,142.78,57.591
25814.0,-22.994,20.329,142.78,57.591
25823.0,-26.994,19.329,149.78,59.591
25833.0,-30.994,20.329,149.78,59.591
25843.0,-33.994,20.329,150.78,60.591
25853.0,-38.994,19.329,150.78,60.591
25863.0,-42.994,19.329,154.78,61.591
25873.0,-47.994,18.329,154.78,61.591
25883.0,-52.994,17.329,155.78,61.591
25893.0,-57.994,16.329,155.78,61.591
25903.0,-61.994,16.329,159.78,62.591
25912.0,-67.994,14.329,159.78,62.591
25922.0,-71.994,12.329,160.78,61.591
25932.0,-78.994,11.329,160.78,61.591
25942.0,-79.994,11.329,161.78,61.591
25952.0,-82.994,11.329,164.78,61.591
25962.0,-85.994,13.329,168.78,64.591
25972.0,-88.994,13.329,173.78,66.591
25982.0,-87.994,13.329,175.78,66.591
25991.0,-84.994,15.329,176.78,66.591
26001.0,-77.994,17.329,177.78,64.591
26011.0,-70.994,20.329,180.78,63.591
26021.0,-62.994,23.329,180.78,62.591
26031.0,-52.994,25.329,183.78,60.591
26041.0,-47.994,27.329,185.78,59.591
26051.0,-38.994,30.329,187.78,58.591
26061.0,-34.994,31.329,191.78,59.591
26071.0,-33.994,33.329,199.78,61.591
26080.0,-33.994,33.329,204.78,63.591
26090.0,-32.994,33.329,212.78,65.591
26100.0,-32.994,33.329,220.78,67.591
26110.0,-35.994,30.329,223.78,69.591
26120.0,-35.994,30.329,228.78,70.591
26130.0,-40.994,25.329,231.78,71.591
26140.0,-40.994,25.329,233.78,69.591
26150.0,-40.994,25.329,232.78,69.591
26160.0,-40.994,25.329,232.78,67.591
26169.0,-42.994,24.329,232.78,68.591
26179.0,-42.994,24.329,230.78,64.591
26189.0,-40.994,24.329,230.78,64.591
26199.0,-40.994,24.329,233.78,65.591
26209.0,-39.994,25.329,232.78,65.591
26219.0,-38.994,26.329,232.78,63.591
26229.0,-35.994,28.329,229.78,62.591
26239.0,-34.994,28.329,231.78,62.591
26249.0,-36.994,28.329,228.78,60.591
26258.0,-35.994,28.329,228.78,58.591
26268.0,-38.994,28.329,228.78,58.591
26278.0,-40.994,27.329,227.78,58.591
26288.0,-42.994,25.329,226.78,57.591
26298.0,-45.994,23.329,228.78,55.591
26308.0,-46.994,23.329,230.78,58.591
26318.0,-51.994,22.329,231.78,58.591
26328.0,-56.994,20.329,233.78,57.591
26337.0,-58.994,19.329,233.78,58.591
26347.0,-61.994,19.329,236.78,59.591
26357.0,-66.994,17.329,238.78,60.591
26367.0,-69.994,18.329,242.78,62.591
26377.0,-71.994,17.329,240.78,60.591
26387.0,-74.994,17.329,241.78,59.591
26397.0,-79.994,17.329,237.78,57.591
26407.0,-83.994,17.329,238.78,57.591
26417.0,-87.994,16.329,239.78,57.591
26426.0,-92.994,16.329,241.78,58.591
26436.0,-97.994,17.329,242.78,58.591
26446.0,-103.99,16.329,243.78,58.591
26456.0,-107.99,16.329,245.78,59.591
26466.0,-114.99,15.329,242.78,58.591
26476.0,-117.99,15.329,241.78,58.591
26486.0,-122.99,15.329,239.78,56.591
26496.0,-128.99,15.329,241.78,58.591
26506.0,-129.99,15.329,240.78,58.591
26515.0,-128.99,15.329,239.78,58.591
26525.0,-123.99,17.329,236.78,56.591
26535.0,-117.99,19.329,236.78,54.591
26545.0,-109.99,20.329,233.78,52.591
26555.0,-101.99,20.329,234.78,50.591
26565.0,-93.994,21.329,236.78,50.591
26575.0,-87.994,23.329,239.78,50.591
26585.0,-82.994,24.329,239.78,49.591
26595.0,-77.994,26.329,242.78,49.591
26604.0,-76.994,25.329,244.78,51.591
26614.0,-75.994,23.329,247.78,51.591
26624.0,-74.994,22.329,251.78,52.591
26634.0,-74.994,20.329,253.78,52.591
26644.0,-75.994,18.329,256.78,52.591
26654.0,-72.994,17.329,258.78,54.591
26664.0,-74.994,14.329,260.78,54.591
26674.0,-74.994,15.329,260.78,54.591
26683.0,-72.994,14.329,261.78,53.591
26693.0,-68.994,15.329,257.78,52.591
26703.0,-66.994,14.329,257.78,52.591
26713.0,-63.994,15.329,256.78,49.591
26723.0,-60.994,14.329,254.78,47.591
26733.0,-58.994,15.329,249.78,45.591
26743.0,-58.994,15.329,244.78,41.591
26753.0,-54.994,15.329,237.78,36.591
26763.0,-53.994,15.329,237.78,36.591
26772.0,-51.994,14.329,231.78,32.591
26782.0,-51.994,13.329,231.78,32.591
26792.0,-51.994,13.329,226.78,29.591
26802.0,-52.994,12.329,226.78,29.591
26812.0,-52.994,12.329,222.78,25.591
26822.0,-52.994,11.329,222.78,25.591
26832.0,-52.994,11.329,221.78,23.591
26842.0,-52.994,10.329,221.78,23.591
26852.0,-52.994,10.329,220.78,19.591
26861.0,-54.994,8.3293,220.78,19.591
26871.0,-54.994,8.3293,210.78,11.591
26881.0,-57.994,9.3293,210.78,11.591
26891.0,-57.994,9.3293,207.78,8.591
26901.0,-58.994,7.3293,207.78,8.591
26911.0,-58.994,7.3293,208.78,4.591
26921.0,-60.994,5.3293,208.78,4.591
26931.0,-60.994,5.3293,203.78,1.591
26941.0,-65.994,4.3293,203.78,1.591
26950.0,-65.994,3.3293,199.78,-2.409
26960.0,-68.994,2.3293,199.78,-2.409
26970.0,-70.994,1.3293,198.78,-4.409
26980.0,-71.994,0.32927,197.78,-6.409
26990.0,-75.994,1.3293,197.78,-8.409
27000.0,-76.994,-0.67073,197.78,-10.409
27010.0,-78.994,-2.6707,193.78,-13.409
27020.0,-82.994,-2.6707,188.78,-17.409
27029.0,-83.994,-1.6707,186.78,-18.409
27039.0,-84.994,-2.6707,186.78,-20.409
27049.0,-79.994,-0.67073,186.78,-20.409
27059.0,-72.994,1.3293,185.78,-23.409
27069.0,-62.994,5.3293,185.78,-24.409
27079.0,-51.994,7.3293,187.78,-26.409
27089.0,-39.994,10.329,192.78,-25.409
27099.0,-29.994,13.329,194.78,-26.409
27109.0,-21.994,14.329,196.78,-26.409
27118.0,-15.994,15.329,199.78,-26.409
27128.0,-9.9937,18.329,200.78,-26.409
27138.0,-5.9937,20.329,201.78,-27.409
27148.0,-1.9937,20.329,200.78,-26.409
27158.0,-0.99367,19.329,203.78,-26.409
27168.0,1.0063,19.329,205.78,-26.409
27178.0,4.0063,18.329,204.78,-25.409
27188.0,5.0063,18.329,207.78,-25.409
27198.0,4.0063,18.329,212.78,-22.409
27207.0,3.0063,17.329,215.78,-20.409
27217.0,5.0063,16.329,218.78,-18.409
27227.0,3.0063,17.329,220.78,-18.409
27237.0,5.0063,17.329,219.78,-16.409
27247.0,7.0063,18.329,218.78,-17.409
27257.0,8.0063,18.329,214.78,-17.409
27267.0,9.0063,19.329,213.78,-17.409
27277.0,10.006,19.329,211.78,-18.409
27286.0,10.006,20.329,210.78,-18.409
27296.0,9.0063,21.329,209.78,-18.409
27306.0,8.0063,20.329,205.78,-20.409
27316.0,6.0063,20.329,202.78,-21.409
27326.0,6.0063,19.329,196.78,-23.409
27336.0,3.0063,18.329,195.78,-24.409
27346.0,1.0063,18.329,191.78,-26.409
27356.0,-2.9937,16.329,187.78,-27.409
27366.0,-5.9937,15.329,186.78,-27.409
27375.0,-7.9937,14.329,184.78,-28.409
27385.0,-10.994,14.329,182.78,-28.409
27395.0,-13.994,12.329,183.78,-27.409
27405.0,-13.994,11.329,183.78,-26.409
27415.0,-18.994,10.329,184.78,-25.409
27425.0,-20.994,9.3293,183.78,-25.409
27435.0,-24.994,7.3293,181.78,-26.409
27445.0,-26.994,6.3293,179.78,-27.409
27455.0,-32.994,4.3293,176.78,-30.409
27464.0,-35.994,1.3293,173.78,-33.409
27474.0,-39.994,-0.67073,168.78,-37.409
27484.0,-42.994,-0.67073,163.78,-40.409
27494.0,-45.994,-3.6707,159.78,-45.409
27504.0,-48.994,-4.6707,156.78,-47.409
27514.0,-52.994,-4.6707,155.78,-49.409
27524.0,-52.994,-4.6707,155.78,-50.409
27534.0,-60.994,-9.6707,157.78,-50.409
27544.0,-60.994,-9.6707,159.78,-50.409
27553.0,-65.994,-14.671,160.78,-49.409
27563.0,-65.994,-14.671,162.78,-49.409
27573.0,-65.994,-25.671,162.78,-50.409
27583.0,-65.994,-25.671,157.78,-53.409
27593.0,-51.994,-32.671,154.78,-58.409
27603.0,-51.994,-32.671,154.78,-61.409
27613.0,-28.994,-32.671,158.78,-60.409
27623.0,-28.994,-32.671,163.78,-63.409
27632.0,-9.9937,-33.671,167.78,-61.409
27642.0,-9.9937,-33.671,171.78,-61.409
27652.0,5.0063,-33.671,175.78,-59.409
27662.0,5.0063,-33.671,179.78,-58.409
27672.0,13.006,-32.671,181.78,-58.409
27682.0,20.006,-31.671,185.78,-55.409
27692.0,26.006,-31.671,188.78,-54.409
27702.0,31.006,-31.671,187.78,-55.409
27712.0,36.006,-30.671,182.78,-58.409
27721.0,39.006,-30.671,177.78,-60.409
27731.0,42.006,-30.671,178.78,-61.409
27741.0,46.006,-28.671,179.78,-61.409
27751.0,48.006,-26.671,179.78,-61.409
27761.0,50.006,-26.671,177.78,-63.409
27771.0,54.006,-25.671,177.78,-63.409
27781.0,56.006,-23.671,177.78,-65.409
27791.0,59.006,-22.671,177.78,-65.409
27801.0,63.006,-20.671,178.78,-65.409
27810.0,68.006,-17.671,178.78,-65.409
27820.0,68.006,-17.671,167.78,-72.409
27830.0,73.006,-14.671,167.78,-72.409
27840.0,75.006,-12.671,160.78,-76.409
27850.0,77.006,-11.671,160.78,-76.409
27860.0,76.006,-9.6707,156.78,-77.409
27870.0,76.006,-7.6707,156.78,-77.409
27880.0,76.006,-7.6707,149.78,-79.409
27890.0,74.006,-6.6707,149.78,-79.409
27899.0,72.006,-6.6707,143.78,-81.409
27909.0,68.006,-8.6707,143.78,-81.409
27919.0,64.006,-9.6707,133.78,-86.409
27929.0,60.006,-9.6707,133.78,-86.409
27939.0,57.006,-9.6707,129.78,-86.409
27949.0,51.006,-10.671,129.78,-86.409
27959.0,46.006,-10.671,124.78,-88.409
27969.0,41.006,-10.671,124.78,-88.409
27978.0,37.006,-10.671,113.78,-93.409
27988.0,32.006,-11.671,113.78,-93.409
27998.0,27.006,-9.6707,109.78,-92.409
28008.0,21.006,-9.6707,109.78,-91.409
28018.0,17.006,-9.6707,106.78,-90.409
28028.0,10.006,-10.671,103.78,-90.409
28038.0,2.0063,-9.6707,98.779,-90.409
28048.0,-4.9937,-11.671,91.779,-90.409
28058.0,-13.994,-13.671,84.779,-91.409
28067.0,-19.994,-13.671,78.779,-92.409
28077.0,-24.994,-12.671,74.779,-90.409
28087.0,-29.994,-11.671,70.779,-90.409
28097.0,-33.994,-8.6707,63.779,-89.409
28107.0,-33.994,-7.6707,57.779,-92.409
28117.0,-33.994,-6.6707,46.779,-95.409
28127.0,-27.994,-3.6707,37.779,-100.41
28137.0,-20.994,1.3293,31.779,-104.41
28147.0,-13.994,4.3293,32.779,-105.41
28156.0,-7.9937,6.3293,33.779,-107.41
28166.0,-4.9937,9.3293,34.779,-109.41
28176.0,-1.9937,11.329,36.779,-109.41
28186.0,0.006327,11.329,39.779,-106.41
28196.0,-1.9937,10.329,44.779,-106.41
28206.0,-2.9937,10.329,49.779,-103.41
28216.0,-5.9937,9.3293,45.779,-104.41
28226.0,-8.9937,6.3293,42.779,-105.41
28236.0,-12.994,4.3293,39.779,-107.41
28245.0,-15.994,3.3293,38.779,-105.41
28255.0,-15.994,3.3293,41.779,-104.41
28265.0,-23.994,-0.67073,42.779,-102.41
28275.0,-23.994,-0.67073,39.779,-103.41
28285.0,-26.994,-2.6707,30.779,-107.41
28295.0,-26.994,-2.6707,24.779,-109.41
28305.0,-29.994,-2.6707,20.779,-110.41
28315.0,-29.994,-2.6707,19.779,-111.41
28324.0,-28.994,-1.6707,18.779,-111.41
28334.0,-28.994,-1.6707,15.779,-114.41
28344.0,-27.994,1.3293,10.779,-118.41
28354.0,-27.994,1.3293,5.7791,-120.41
28364.0,-27.994,2.3293,7.7791,-118.41
28374.0,-27.994,2.3293,9.7791,-119.41
28384.0,-32.994,0.32927,7.7791,-118.41
28394.0,-32.994,0.32927,-1.2209,-122.41
28404.0,-37.994,-0.67073,-9.2209,-127.41
28413.0,-40.994,-2.6707,-13.221,-127.41
28423.0,-46.994,-3.6707,-10.221,-126.41
28433.0,-49.994,-6.6707,-10.221,-125.41
28443.0,-54.994,-7.6707,-7.2209,-125.41
28453.0,-58.994,-7.6707,-10.221,-127.41
28463.0,-62.994,-8.6707,-15.221,-129.41
28473.0,-67.994,-10.671,-18.221,-129.41
28483.0,-70.994,-11.671,-17.221,-128.41
28493.0,-76.994,-12.671,-13.221,-126.41
28502.0,-78.994,-14.671,-12.221,-124.41
28512.0,-81.994,-14.671,-12.221,-122.41
28522.0,-85.994,-15.671,-18.221,-121.41
28532.0,-88.994,-16.671,-23.221,-121.41
28542.0,-88.994,-15.671,-25.221,-117.41
28552.0,-89.994,-16.671,-23.221,-113.41
28562.0,-90.994,-16.671,-22.221,-108.41
28572.0,-92.994,-17.671,-18.221,-102.41
28582.0,-94.994,-19.671,-17.221,-98.409
28591.0,-96.994,-21.671,-18.221,-94.409
28601.0,-95.994,-22.671,-16.221,-89.409
28611.0,-96.994,-22.671,-16.221,-87.409
28621.0,-93.994,-20.671,-21.221,-84.409
28631.0,-92.994,-19.671,-26.221,-83.409
28641.0,-89.994,-19.671,-29.221,-80.409
28651.0,-82.994,-18.671,-34.221,-81.409
28661.0,-74.994,-17.671,-36.221,-80.409
28670.0,-62.994,-13.671,-37.221,-79.409
28680.0,-50.994,-12.671,-35.221,-78.409
28690.0,-37.994,-9.6707,-32.221,-77.409
28700.0,-26.994,-7.6707,-27.221,-73.409
28710.0,-19.994,-7.6707,-22.221,-71.409
28720.0,-12.994,-6.6707,-18.221,-67.409
28730.0,-4.9937,-6.6707,-15.221,-65.409
28740.0,0.006327,-5.6707,-16.221,-65.409
28750.0,4.0063,-6.6707,-18.221,-65.409
28759.0,9.0063,-8.6707,-19.221,-65.409
28769.0,13.006,-7.6707,-18.221,-63.409
28779.0,17.006,-9.6707,-18.221,-63.409
28789.0,17.006,-11.671,-7.2209,-56.409
28799.0,18.006,-13.671,-7.2209,-56.409
28809.0,20.006,-14.671,-2.2209,-52.409
28819.0,19.006,-16.671,-2.2209,-52.409
28829.0,23.006,-17.671,-1.2209,-48.409
28839.0,24.006,-16.671,-1.2209,-48.409
28848.0,27.006,-16.671,-3.2209,-47.409
28858.0,30.006,-16.671,-3.2209,-47.409
28868.0,32.006,-16.671,-9.2209,-49.409
28878.0,35.006,-14.671,-9.2209,-49.409
28888.0,37.006,-12.671,-17.221,-52.409
28898.0,41.006,-12.671,-17.221,-52.409
28908.0,42.006,-11.671,-19.221,-52.409
28918.0,44.006,-11.671,-19.221,-52.409
28928.0,44.006,-12.671,-20.221,-53.409
28937.0,44.006,-12.671,-20.221,-53.409
28947.0,43.006,-14.671,-24.221,-57.409
28957.0,41.006,-15.671,-24.221,-57.409
28967.0,42.006,-14.671,-16.221,-55.409
28977.0,42.006,-15.671,-16.221,-55.409
28987.0,42.006,-15.671,-12.221,-53.409
28997.0,40.006,-13.671,-13.221,-55.409
29007.0,40.006,-13.671,-16.221,-57.409
29016.0,39.006,-13.671,-18.221,-59.409
29026.0,39.006,-13.671,-17.221,-58.409
29036.0,36.006,-16.671,-15.221,-57.409
29046.0,36.006,-16.671,-15.221,-56.409
29056.0,35.006,-18.671,-16.221,-57.409
29066.0,35.006,-18.671,-16.221,-56.409
29076.0,32.006,-18.671,-20.221,-55.409
29086.0,32.006,-18.671,-21.221,-51.409
29096.0,31.006,-17.671,-21.221,-49.409
29105.0,31.006,-17.671,-25.221,-47.409
29115.0,28.006,-16.671,-25.221,-44.409
29125.0,28.006,-16.671,-27.221,-43.409
29135.0,28.006,-16.671,-27.221,-41.409
29145.0,28.006,-16.671,-26.221,-40.409
29155.0,29.006,-15.671,-25.221,-41.409
29165.0,29.006,-13.671,-23.221,-42.409
29175.0,29.006,-11.671,-19.221,-42.409
29185.0,35.006,-10.671,-14.221,-43.409
29194.0,38.006,-9.6707,-12.221,-46.409
29204.0,46.006,-7.6707,-9.2209,-48.409
29214.0,55.006,-3.6707,-5.2209,-51.409
29224.0,64.006,-0.67073,-2.2209,-54.409
29234.0,73.006,1.3293,3.7791,-55.409
29244.0,82.006,4.3293,7.7791,-55.409
29254.0,87.006,6.3293,10.779,-55.409
29264.0,93.006,7.3293,17.779,-54.409
29274.0,97.006,9.3293,22.779,-52.409
29283.0,99.006,9.3293,26.779,-50.409
29293.0,100.01,10.329,33.779,-47.409
29303.0,99.006,10.329,39.779,-44.409
29313.0,101.01,10.329,46.779,-42.409
29323.0,101.01,11.329,53.779,-37.409
29333.0,100.01,11.329,50.779,-39.409
29343.0,101.01,11.329,52.779,-37.409
29353.0,101.01,12.329,52.779,-35.409
29362.0,98.006,11.329,56.779,-34.409
29372.0,97.006,10.329,54.779,-34.409
29382.0,98.006,12.329,53.779,-35.409
29392.0,99.006,12.329,53.779,-34.409
29402.0,101.01,13.329,52.779,-33.409
29412.0,101.01,14.329,50.779,-35.409
29422.0,102.01,15.329,50.779,-34.409
29432.0,102.01,17.329,50.779,-33.409
29442.0,100.01,17.329,53.779,-32.409
29451.0,102.01,16.329,54.779,-31.409
29461.0,96.006,16.329,55.779,-29.409
29471.0,96.006,16.329,55.779,-30.409
29481.0,94.006,16.329,55.779,-29.409
29491.0,91.006,15.329,55.779,-28.409
29501.0,89.006,15.329,54.779,-28.409
29511.0,85.006,16.329,56.779,-26.409
29521.0,82.006,13.329,59.779,-24.409
29531.0,78.006,13.329,60.779,-22.409
29540.0,72.006,12.329,60.779,-22.409
29550.0,69.006,11.329,61.779,-20.409
29560.0,67.006,12.329,63.779,-17.409
29570.0,62.006,11.329,66.779,-14.409
29580.0,60.006,11.329,69.779,-11.409
29590.0,56.006,11.329,71.779,-10.409
29600.0,53.006,10.329,73.779,-8.409
29610.0,50.006,11.329,71.779,-7.409
29620.0,47.006,11.329,69.779,-7.409
29629.0,43.006,11.329,68.779,-6.409
29639.0,39.006,10.329,71.779,-4.409
29649.0,34.006,10.329,73.779,-1.409
29659.0,31.006,8.3293,77.779,1.591
29669.0,29.006,8.3293,78.779,2.591
29679.0,26.006,9.3293,78.779,2.591
29689.0,24.006,11.329,76.779,3.591
29699.0,22.006,12.329,79.779,5.591
29708.0,20.006,13.329,85.779,8.591
29718.0,20.006,13.329,88.779,11.591
29728.0,23.006,15.329,89.779,11.591
29738.0,23.006,15.329,89.779,10.591
29748.0,36.006,20.329,88.779,9.591
29758.0,36.006,20.329,94.779,9.591
29768.0,51.006,26.329,100.78,11.591
29778.0,51.006,26.329,106.78,13.591
29788.0,63.006,31.329,113.78,14.591
29797.0,63.006,31.329,120.78,18.591
29807.0,67.006,37.329,120.78,18.591
29817.0,67.006,37.329,135.78,25.591
29827.0,67.006,39.329,135.78,25.591
29837.0,67.006,39.329,142.78,29.591
29847.0,61.006,39.329,142.78,29.591
29857.0,61.006,39.329,148.78,31.591
29867.0,56.006,39.329,148.78,31.591
29877.0,51.006,37.329,153.78,35.591
29886.0,46.006,39.329,153.78,35.591
29896.0,46.006,41.329,159.78,37.591
29906.0,44.006,43.329,159.78,37.591
29916.0,41.006,45.329,162.78,39.591
29926.0,40.006,46.329,162.78,39.591
29936.0,36.006,48.329,164.78,40.591
29946.0,31.006,49.329,164.78,40.591
29956.0,30.006,49.329,164.78,40.591
29966.0,25.006,50.329,164.78,40.591
29975.0,21.006,49.329,160.78,39.591
29985.0,16.006,48.329,160.78,39.591
29995.0,8.0063,48.329,161.78,39.591
