t,carotid_880nm,carotid_660nm,brachial_880nm,brachial_660nm
3.2,202.21,89.71,-262.73,-210.67
13.1,206.21,90.71,-258.73,-211.67
23.0,206.21,90.71,-255.73,-210.67
32.9,215.21,94.71,-252.73,-209.67
42.8,215.21,94.71,-249.73,-209.67
52.7,220.21,93.71,-246.73,-207.67
62.6,220.21,93.71,-243.73,-208.67
72.4,224.21,93.71,-242.73,-206.67
82.3,224.21,93.71,-240.73,-205.67
92.2,221.21,88.71,-238.73,-206.67
102.1,221.21,88.71,-239.73,-205.67
112.0,224.21,87.71,-238.73,-205.67
121.9,224.21,87.71,-237.73,-204.67
131.8,222.21,86.71,-240.73,-204.67
141.6,222.21,86.71,-241.73,-204.67
151.5,223.21,81.71,-242.73,-205.67
161.4,223.21,81.71,-244.73,-206.67
171.3,224.21,82.71,-245.73,-205.67
181.2,222.21,79.71,-246.73,-207.67
191.1,220.21,78.71,-251.73,-207.67
201.0,221.21,76.71,-250.73,-207.67
210.8,219.21,74.71,-252.73,-207.67
220.7,215.21,72.71,-254.73,-209.67
230.6,214.21,70.71,-256.73,-208.67
240.5,210.21,67.71,-258.73,-208.67
250.4,205.21,65.71,-260.73,-208.67
260.3,204.21,62.71,-263.73,-210.67
270.2,200.21,60.71,-265.73,-209.67
280.0,197.21,58.71,-266.73,-211.67
289.9,196.21,58.71,-265.73,-209.67
299.8,192.21,57.71,-266.73,-210.67
309.7,192.21,54.71,-268.73,-211.67
319.6,187.21,52.71,-271.73,-211.67
329.5,184.21,50.71,-271.73,-211.67
339.4,179.21,48.71,-274.73,-211.67
349.2,175.21,46.71,-275.73,-210.67
359.1,171.21,44.71,-277.73,-209.67
369.0,168.21,40.71,-278.73,-210.67
378.9,162.21,39.71,-277.73,-210.67
388.8,159.21,36.71,-281.73,-211.67
398.7,154.21,35.71,-280.73,-211.67
408.6,152.21,35.71,-281.73,-209.67
418.4,151.21,36.71,-281.73,-210.67
428.3,151.21,35.71,-283.73,-210.67
438.2,152.21,38.71,-285.73,-210.67
448.1,152.21,40.71,-287.73,-209.67
458.0,155.21,43.71,-291.73,-211.67
467.9,159.21,46.71,-293.73,-212.67
477.8,160.21,49.71,-295.73,-212.67
487.6,163.21,53.71,-299.73,-212.67
497.5,168.21,58.71,-302.73,-213.67
507.4,171.21,59.71,-303.73,-213.67
517.3,171.21,61.71,-303.73,-213.67
527.2,174.21,63.71,-305.73,-211.67
537.1,174.21,64.71,-307.73,-211.67
547.0,175.21,66.71,-308.73,-212.67
556.8,181.21,69.71,-312.73,-214.67
566.7,178.21,69.71,-317.73,-216.67
576.6,178.21,71.71,-323.73,-218.67
586.5,178.21,74.71,-325.73,-218.67
596.4,176.21,71.71,-331.73,-222.67
606.3,174.21,72.71,-337.73,-225.67
616.2,179.21,72.71,-363.73,-234.67
626.0,188.21,77.71,-390.73,-245.67
635.9,200.21,85.71,-369.73,-239.67
645.8,207.21,91.71,-366.73,-237.67
655.7,221.21,95.71,-366.73,-236.67
665.6,227.21,98.71,-373.73,-241.67
675.5,234.21,101.71,-369.73,-240.67
685.4,240.21,103.71,-353.73,-237.67
695.2,247.21,107.71,-340.73,-233.67
705.1,259.21,108.71,-325.73,-229.67
715.0,263.21,109.71,-312.73,-225.67
724.9,268.21,111.71,-300.73,-221.67
734.8,277.21,114.71,-290.73,-218.67
744.7,282.21,116.71,-280.73,-215.67
754.6,282.21,116.71,-272.73,-211.67
764.4,293.21,121.71,-272.73,-211.67
774.3,293.21,121.71,-258.73,-208.67
784.2,305.21,124.71,-258.73,-208.67
794.1,305.21,124.71,-251.73,-205.67
804.0,310.21,127.71,-251.73,-205.67
813.9,310.21,127.71,-249.73,-205.67
823.8,312.21,127.71,-249.73,-205.67
833.6,312.21,127.71,-245.73,-204.67
843.5,317.21,127.71,-245.73,-204.67
853.4,317.21,127.71,-245.73,-202.67
863.3,317.21,127.71,-245.73,-202.67
873.2,317.21,127.71,-247.73,-203.67
883.1,316.21,129.71,-247.73,-203.67
893.0,316.21,129.71,-253.73,-205.67
902.8,319.21,129.71,-253.73,-205.67
912.7,316.21,126.71,-258.73,-206.67
922.6,314.21,126.71,-258.73,-206.67
932.5,315.21,125.71,-260.73,-207.67
942.4,313.21,126.71,-260.73,-207.67
952.3,312.21,125.71,-260.73,-207.67
962.2,312.21,126.71,-260.73,-206.67
972.0,307.21,126.71,-260.73,-208.67
981.9,307.21,124.71,-260.73,-208.67
991.8,305.21,123.71,-262.73,-207.67
1001.7,304.21,125.71,-264.73,-208.67
1011.6,303.21,124.71,-263.73,-207.67
1021.5,300.21,124.71,-266.73,-207.67
1031.4,297.21,124.71,-266.73,-207.67
1041.2,294.21,123.71,-270.73,-208.67
1051.1,291.21,119.71,-272.73,-210.67
1061.0,286.21,119.71,-273.73,-209.67
1070.9,283.21,118.71,-276.73,-211.67
1080.8,281.21,117.71,-278.73,-213.67
1090.7,278.21,116.71,-281.73,-213.67
1100.6,276.21,116.71,-285.73,-214.67
1110.4,272.21,117.71,-288.73,-214.67
1120.3,271.21,115.71,-290.73,-215.67
1130.2,268.21,115.71,-292.73,-215.67
1140.1,263.21,113.71,-295.73,-215.67
1150.0,262.21,111.71,-297.73,-215.67
1159.9,254.21,109.71,-299.73,-218.67
1169.8,251.21,108.71,-303.73,-218.67
1179.6,248.21,108.71,-306.73,-219.67
1189.5,242.21,106.71,-308.73,-221.67
1199.4,240.21,106.71,-309.73,-220.67
1209.3,237.21,104.71,-313.73,-222.67
1219.2,236.21,105.71,-316.73,-221.67
1229.1,233.21,106.71,-317.73,-222.67
1239.0,230.21,106.71,-321.73,-224.67
1248.8,227.21,104.71,-323.73,-224.67
1258.7,223.21,103.71,-327.73,-224.67
1268.6,220.21,103.71,-330.73,-225.67
1278.5,215.21,105.71,-333.73,-227.67
1288.4,213.21,103.71,-338.73,-228.67
1298.3,210.21,105.71,-340.73,-229.67
1308.2,205.21,104.71,-344.73,-229.67
1318.0,200.21,105.71,-346.73,-230.67
1327.9,195.21,103.71,-346.73,-230.67
1337.8,193.21,102.71,-348.73,-230.67
1347.7,186.21,99.71,-351.73,-232.67
1357.6,184.21,95.71,-354.73,-233.67
1367.5,176.21,93.71,-355.73,-233.67
1377.4,172.21,93.71,-361.73,-234.67
1387.2,166.21,91.71,-364.73,-237.67
1397.1,158.21,89.71,-375.73,-240.67
1407.0,159.21,88.71,-357.73,-230.67
1416.9,156.21,84.71,-350.73,-228.67
1426.8,160.21,86.71,-349.73,-226.67
1436.7,163.21,91.71,-348.73,-224.67
1446.6,167.21,93.71,-349.73,-224.67
1456.4,170.21,95.71,-356.73,-226.67
1466.3,178.21,99.71,-365.73,-231.67
1476.2,179.21,102.71,-366.73,-234.67
1486.1,179.21,102.71,-354.73,-233.67
1496.0,185.21,102.71,-340.73,-230.67
1505.9,185.21,102.71,-326.73,-226.67
1515.8,186.21,96.71,-312.73,-223.67
1525.6,186.21,96.71,-299.73,-218.67
1535.5,187.21,94.71,-290.73,-217.67
1545.4,187.21,94.71,-278.73,-212.67
1555.3,189.21,95.71,-269.73,-208.67
1565.2,189.21,95.71,-260.73,-204.67
1575.1,189.21,95.71,-254.73,-204.67
1585.0,189.21,95.71,-250.73,-204.67
1594.8,190.21,94.71,-248.73,-202.67
1604.7,190.21,94.71,-248.73,-204.67
1614.6,190.21,92.71,-248.73,-203.67
1624.5,190.21,92.71,-249.73,-204.67
1634.4,190.21,92.71,-251.73,-204.67
1644.3,187.21,90.71,-257.73,-208.67
1654.2,186.21,92.71,-350.73,-256.67
1664.0,185.21,91.71,-315.73,-233.67
1673.9,184.21,89.71,-298.73,-223.67
1683.8,184.21,88.71,-293.73,-223.67
1693.7,184.21,87.71,-298.73,-223.67
1703.6,185.21,88.71,-299.73,-225.67
1713.5,185.21,90.71,-293.73,-221.67
1723.4,187.21,92.71,-300.73,-224.67
1733.2,186.21,92.71,-314.73,-231.67
1743.1,185.21,92.71,-309.73,-227.67
1753.0,186.21,94.71,-309.73,-227.67
1762.9,187.21,93.71,-292.73,-219.67
1772.8,186.21,92.71,-292.73,-219.67
1782.7,186.21,93.71,-309.73,-227.67
1792.6,184.21,93.71,-309.73,-227.67
1802.4,183.21,94.71,-302.73,-222.67
1812.3,183.21,93.71,-302.73,-222.67
1822.2,182.21,94.71,-292.73,-217.67
1832.1,179.21,92.71,-292.73,-217.67
1842.0,176.21,93.71,-275.73,-207.67
1851.9,174.21,93.71,-275.73,-207.67
1861.8,174.21,94.71,-276.73,-206.67
1871.6,174.21,94.71,-276.73,-206.67
1881.5,170.21,91.71,-271.73,-203.67
1891.4,167.21,91.71,-271.73,-203.67
1901.3,166.21,92.71,-275.73,-203.67
1911.2,164.21,92.71,-275.73,-203.67
1921.1,162.21,90.71,-293.73,-212.67
1931.0,161.21,90.71,-293.73,-212.67
1940.8,159.21,88.71,-309.73,-216.67
1950.7,156.21,89.71,-309.73,-216.67
1960.6,153.21,89.71,-349.73,-229.67
1970.5,151.21,90.71,-349.73,-237.67
1980.4,151.21,91.71,-327.73,-222.67
1990.3,148.21,89.71,-319.73,-217.67
2000.1,143.21,87.71,-295.73,-206.67
2010.0,138.21,86.71,-284.73,-199.67
2019.9,138.21,86.71,-282.73,-198.67
2029.8,134.21,84.71,-284.73,-198.67
2039.7,130.21,84.71,-288.73,-198.67
2049.6,128.21,85.71,-286.73,-198.67
2059.5,127.21,85.71,-287.73,-196.67
2069.4,124.21,84.71,-283.73,-195.67
2079.2,123.21,83.71,-285.73,-193.67
2089.1,119.21,82.71,-283.73,-191.67
2099.0,118.21,83.71,-282.73,-191.67
2108.9,115.21,83.71,-280.73,-188.67
2118.8,113.21,82.71,-283.73,-189.67
2128.7,108.21,82.71,-283.73,-188.67
2138.5,104.21,81.71,-284.73,-189.67
2148.4,102.21,80.71,-287.73,-189.67
2158.3,99.215,80.71,-288.73,-188.67
2168.2,95.215,78.71,-286.73,-187.67
2178.1,88.215,74.71,-286.73,-188.67
2188.0,86.215,74.71,-288.73,-187.67
2197.9,87.215,72.71,-293.73,-189.67
2207.7,95.215,77.71,-293.73,-187.67
2217.6,95.215,77.71,-290.73,-188.67
2227.5,103.21,82.71,-291.73,-186.67
2237.4,103.21,82.71,-297.73,-189.67
2247.3,112.21,88.71,-305.73,-191.67
2257.2,112.21,88.71,-314.73,-197.67
2267.1,119.21,93.71,-306.73,-196.67
2276.9,119.21,93.71,-294.73,-195.67
2286.8,123.21,91.71,-286.73,-194.67
2296.7,123.21,91.71,-273.73,-192.67
2306.6,132.21,92.71,-265.73,-190.67
2316.5,132.21,92.71,-255.73,-187.67
2326.4,136.21,92.71,-244.73,-183.67
2336.3,136.21,92.71,-238.73,-181.67
2346.1,139.21,92.71,-232.73,-179.67
2356.0,140.21,94.71,-223.73,-176.67
2365.9,144.21,93.71,-216.73,-174.67
2375.8,145.21,96.71,-215.73,-173.67
2385.7,148.21,95.71,-214.73,-174.67
2395.6,149.21,96.71,-213.73,-172.67
2405.5,147.21,96.71,-212.73,-171.67
2415.3,148.21,95.71,-210.73,-169.67
2425.2,148.21,95.71,-212.73,-170.67
2435.1,148.21,95.71,-211.73,-170.67
2445.0,148.21,96.71,-216.73,-170.67
2454.9,150.21,96.71,-223.73,-173.67
2464.8,150.21,95.71,-242.73,-182.67
2474.7,152.21,96.71,-261.73,-214.67
2484.5,149.21,95.71,-271.73,-195.67
2494.4,152.21,96.71,-262.73,-191.67
2504.3,152.21,97.71,-259.73,-188.67
2514.2,153.21,98.71,-258.73,-189.67
2524.1,154.21,98.71,-287.73,-198.67
2534.0,152.21,98.71,-277.73,-197.67
2543.9,152.21,97.71,-273.73,-195.67
2553.7,150.21,96.71,-278.73,-200.67
2563.6,147.21,94.71,-335.73,-222.67
2573.5,147.21,94.71,-287.73,-202.67
2583.4,146.21,94.71,-277.73,-196.67
2593.3,144.21,94.71,-274.73,-194.67
2603.2,144.21,93.71,-274.73,-194.67
2613.1,142.21,94.71,-273.73,-193.67
2622.9,140.21,94.71,-273.73,-193.67
2632.8,138.21,93.71,-276.73,-193.67
2642.7,135.21,93.71,-282.73,-196.67
2652.6,135.21,94.71,-256.73,-181.67
2662.5,133.21,92.71,-252.73,-178.67
2672.4,133.21,90.71,-251.73,-178.67
2682.3,130.21,92.71,-255.73,-178.67
2692.1,128.21,92.71,-255.73,-176.67
2702.0,126.21,91.71,-259.73,-178.67
2711.9,124.21,91.71,-259.73,-177.67
2721.8,120.21,90.71,-259.73,-177.67
2731.7,119.21,88.71,-258.73,-175.67
2741.6,117.21,87.71,-258.73,-175.67
2751.5,114.21,87.71,-259.73,-174.67
2761.3,113.21,88.71,-259.73,-174.67
2771.2,108.21,85.71,-262.73,-174.67
2781.1,109.21,87.71,-262.73,-174.67
2791.0,106.21,84.71,-268.73,-176.67
2800.9,104.21,83.71,-268.73,-176.67
2810.8,99.215,82.71,-273.73,-177.67
2820.7,97.215,81.71,-273.73,-177.67
2830.5,93.215,79.71,-270.73,-173.67
2840.4,91.215,78.71,-270.73,-173.67
2850.3,87.215,76.71,-273.73,-173.67
2860.2,83.215,74.71,-273.73,-173.67
2870.1,80.215,71.71,-277.73,-173.67
2880.0,75.215,72.71,-277.73,-173.67
2889.9,72.215,71.71,-279.73,-174.67
2899.7,66.215,66.71,-279.73,-174.67
2909.6,61.215,66.71,-283.73,-173.67
2919.5,54.215,61.71,-283.73,-173.67
2929.4,47.215,58.71,-288.73,-175.67
2939.3,43.215,55.71,-289.73,-175.67
2949.2,43.215,55.71,-288.73,-175.67
2959.1,42.215,51.71,-292.73,-175.67
2968.9,42.215,51.71,-292.73,-174.67
2978.8,51.215,53.71,-295.73,-176.67
2988.7,51.215,53.71,-297.73,-176.67
2998.6,54.215,54.71,-302.73,-177.67
3008.5,54.215,54.71,-308.73,-180.67
3018.4,62.215,56.71,-322.73,-193.67
3028.3,62.215,56.71,-337.73,-199.67
3038.1,67.215,55.71,-302.73,-188.67
3048.0,67.215,55.71,-290.73,-186.67
3057.9,69.215,51.71,-280.73,-182.67
3067.8,69.215,51.71,-275.73,-184.67
3077.7,76.215,51.71,-223.73,-155.67
3087.6,76.215,51.71,-195.73,-144.67
3097.5,78.215,51.71,-180.73,-139.67
3107.3,79.215,51.71,-170.73,-134.67
3117.2,82.215,51.71,-161.73,-129.67
3127.1,83.215,52.71,-157.73,-128.67
3137.0,84.215,51.71,-151.73,-126.67
3146.9,85.215,51.71,-149.73,-126.67
3156.8,84.215,47.71,-144.73,-124.67
3166.7,86.215,49.71,-143.73,-124.67
3176.5,85.215,48.71,-143.73,-123.67
3186.4,85.215,46.71,-144.73,-121.67
3196.3,86.215,46.71,-138.73,-120.67
3206.2,83.215,43.71,-139.73,-120.67
3216.1,83.215,43.71,-141.73,-119.67
3226.0,83.215,43.71,-144.73,-120.67
3235.9,83.215,42.71,-145.73,-120.67
3245.7,83.215,41.71,-147.73,-120.67
3255.6,83.215,41.71,-145.73,-119.67
3265.5,84.215,43.71,-141.73,-118.67
3275.4,83.215,43.71,-144.73,-117.67
3285.3,84.215,41.71,-144.73,-117.67
3295.2,82.215,40.71,-146.73,-116.67
3305.1,79.215,40.71,-145.73,-117.67
3314.9,77.215,38.71,-146.73,-117.67
3324.8,76.215,36.71,-145.73,-117.67
3334.7,73.215,36.71,-146.73,-117.67
3344.6,70.215,33.71,-149.73,-118.67
3354.5,67.215,32.71,-149.73,-118.67
3364.4,63.215,31.71,-150.73,-118.67
3374.3,61.215,30.71,-153.73,-119.67
3384.1,61.215,28.71,-154.73,-117.67
3394.0,56.215,28.71,-155.73,-119.67
3403.9,53.215,26.71,-154.73,-117.67
3413.8,51.215,24.71,-155.73,-117.67
3423.7,48.215,23.71,-154.73,-115.67
3433.6,44.215,22.71,-155.73,-115.67
3443.5,44.215,21.71,-156.73,-117.67
3453.3,39.215,19.71,-159.73,-118.67
3463.2,33.215,18.71,-161.73,-116.67
3473.1,30.215,16.71,-163.73,-116.67
3483.0,28.215,14.71,-163.73,-116.67
3492.9,25.215,14.71,-165.73,-116.67
3502.8,23.215,13.71,-164.73,-116.67
3512.7,20.215,11.71,-165.73,-117.67
3522.5,14.215,10.71,-165.73,-115.67
3532.4,11.215,8.7102,-168.73,-116.67
3542.3,8.2149,5.7102,-170.73,-117.67
3552.2,4.2149,4.7102,-172.73,-116.67
3562.1,2.2149,3.7102,-172.73,-117.67
3572.0,-2.7851,0.71019,-176.73,-118.67
3581.9,-6.7851,-2.2898,-178.73,-118.67
3591.7,-14.785,-4.2898,-180.73,-118.67
3601.6,-13.785,-4.2898,-181.73,-118.67
3611.5,-18.785,-6.2898,-181.73,-117.67
3621.4,-22.785,-7.2898,-182.73,-117.67
3631.3,-27.785,-11.29,-185.73,-116.67
3641.2,-31.785,-12.29,-186.73,-118.67
3651.1,-36.785,-14.29,-191.73,-119.67
3660.9,-41.785,-16.29,-192.73,-120.67
3670.8,-45.785,-19.29,-194.73,-119.67
3680.7,-45.785,-19.29,-198.73,-120.67
3690.6,-52.785,-21.29,-197.73,-119.67
3700.5,-52.785,-21.29,-199.73,-119.67
3710.4,-42.785,-17.29,-195.73,-117.67
3720.3,-42.785,-17.29,-193.73,-116.67
3730.1,-24.785,-9.2898,-193.73,-116.67
3740.0,-24.785,-9.2898,-201.73,-120.67
3749.9,-14.785,-6.2898,-201.73,-120.67
3759.8,-14.785,-6.2898,-214.73,-129.67
3769.7,-5.7851,-4.2898,-214.73,-129.67
3779.6,-5.7851,-4.2898,-190.73,-123.67
3789.5,6.2149,-1.2898,-190.73,-123.67
3799.3,6.2149,-1.2898,-165.73,-119.67
3809.2,15.215,0.71019,-165.73,-119.67
3819.1,15.215,0.71019,-147.73,-113.67
3829.0,22.215,0.71019,-147.73,-113.67
3838.9,27.215,4.7102,-128.73,-107.67
3848.8,30.215,5.7102,-128.73,-107.67
3858.7,33.215,6.7102,-113.73,-103.67
3868.5,37.215,6.7102,-113.73,-103.67
3878.4,42.215,7.7102,-108.73,-102.67
3888.3,45.215,9.7102,-108.73,-102.67
3898.2,47.215,9.7102,-103.73,-100.67
3908.1,50.215,10.71,-103.73,-100.67
3918.0,52.215,9.7102,-104.73,-100.67
3927.9,51.215,8.7102,-103.73,-99.666
3937.7,51.215,7.7102,-100.73,-99.666
3947.6,51.215,7.7102,-100.73,-100.67
3957.5,50.215,7.7102,-98.729,-99.666
3967.4,51.215,7.7102,-99.729,-99.666
3977.3,50.215,5.7102,-103.73,-99.666
3987.2,52.215,6.7102,-101.73,-100.67
3997.1,51.215,3.7102,-104.73,-99.666
4006.9,48.215,5.7102,-103.73,-100.67
4016.8,50.215,5.7102,-100.73,-98.666
4026.7,47.215,4.7102,-100.73,-98.666
4036.6,47.215,3.7102,-98.729,-97.666
4046.5,48.215,3.7102,-100.73,-97.666
4056.4,46.215,2.7102,-102.73,-98.666
4066.3,45.215,1.7102,-107.73,-98.666
4076.1,43.215,0.71019,-105.73,-99.666
4086.0,42.215,-0.28981,-107.73,-99.666
4095.9,40.215,-1.2898,-108.73,-100.67
4105.8,39.215,-1.2898,-111.73,-100.67
4115.7,35.215,-3.2898,-113.73,-101.67
4125.6,33.215,-4.2898,-112.73,-100.67
4135.5,31.215,-5.2898,-114.73,-102.67
4145.3,27.215,-7.2898,-114.73,-101.67
4155.2,24.215,-9.2898,-119.73,-102.67
4165.1,19.215,-12.29,-119.73,-100.67
4175.0,13.215,-14.29,-120.73,-100.67
4184.9,10.215,-15.29,-119.73,-100.67
4194.8,9.2149,-18.29,-120.73,-101.67
4204.7,6.2149,-19.29,-125.73,-101.67
4214.5,2.2149,-19.29,-126.73,-101.67
4224.4,-1.7851,-20.29,-129.73,-101.67
4234.3,-2.7851,-21.29,-132.73,-101.67
4244.2,-6.7851,-22.29,-134.73,-103.67
4254.1,-6.7851,-24.29,-134.73,-104.67
4264.0,-12.785,-23.29,-138.73,-104.67
4273.9,-15.785,-26.29,-137.73,-105.67
4283.7,-21.785,-28.29,-138.73,-103.67
4293.6,-23.785,-30.29,-143.73,-103.67
4303.5,-27.785,-31.29,-144.73,-104.67
4313.4,-31.785,-34.29,-146.73,-104.67
4323.3,-35.785,-33.29,-147.73,-105.67
4333.2,-42.785,-37.29,-149.73,-105.67
4343.1,-44.785,-39.29,-152.73,-106.67
4352.9,-50.785,-41.29,-155.73,-106.67
4362.8,-54.785,-43.29,-153.73,-105.67
4372.7,-56.785,-44.29,-155.73,-104.67
4382.6,-64.785,-46.29,-156.73,-105.67
4392.5,-68.785,-50.29,-158.73,-104.67
4402.4,-72.785,-52.29,-157.73,-104.67
4412.2,-72.785,-52.29,-162.73,-105.67
4422.1,-83.785,-56.29,-163.73,-105.67
4432.0,-83.785,-56.29,-168.73,-106.67
4441.9,-95.785,-60.29,-169.73,-106.67
4451.8,-95.785,-60.29,-173.73,-109.67
4461.7,-108.79,-67.29,-176.73,-108.67
4471.6,-108.79,-67.29,-177.73,-109.67
4481.5,-105.79,-67.29,-181.73,-109.67
4491.3,-105.79,-67.29,-179.73,-109.67
4501.2,-86.785,-56.29,-177.73,-106.67
4511.1,-86.785,-56.29,-178.73,-104.67
4521.0,-77.785,-53.29,-180.73,-106.67
4530.9,-77.785,-53.29,-191.73,-113.67
4540.8,-76.785,-53.29,-190.73,-114.67
4550.6,-76.785,-53.29,-178.73,-113.67
4560.5,-73.785,-52.29,-165.73,-108.67
4570.4,-69.785,-54.29,-154.73,-106.67
4580.3,-68.785,-55.29,-142.73,-104.67
4590.2,-63.785,-56.29,-132.73,-101.67
4600.1,-60.785,-55.29,-121.73,-99.666
4610.0,-55.785,-53.29,-113.73,-95.666
4619.9,-50.785,-52.29,-105.73,-93.666
4629.7,-47.785,-50.29,-98.729,-90.666
4639.6,-44.785,-50.29,-92.729,-89.666
4649.5,-41.785,-49.29,-86.729,-88.666
4659.4,-38.785,-48.29,-87.729,-87.666
4669.3,-34.785,-48.29,-82.729,-87.666
4679.2,-31.785,-46.29,-81.729,-85.666
4689.0,-31.785,-47.29,-80.729,-86.666
4698.9,-34.785,-50.29,-80.729,-86.666
4708.8,-30.785,-49.29,-80.729,-84.666
4718.7,-34.785,-51.29,-80.729,-84.666
4728.6,-32.785,-51.29,-84.729,-86.666
4738.5,-32.785,-52.29,-84.729,-86.666
4748.4,-35.785,-52.29,-87.729,-86.666
4758.2,-33.785,-53.29,-87.729,-86.666
4768.1,-32.785,-51.29,-91.729,-87.666
4778.0,-33.785,-51.29,-91.729,-87.666
4787.9,-32.785,-52.29,-90.729,-87.666
4797.8,-31.785,-51.29,-90.729,-87.666
4807.7,-30.785,-51.29,-92.729,-86.666
4817.6,-29.785,-50.29,-92.729,-86.666
4827.4,-31.785,-51.29,-91.729,-86.666
4837.3,-31.785,-51.29,-91.729,-86.666
4847.2,-33.785,-52.29,-93.729,-88.666
4857.1,-33.785,-51.29,-93.729,-88.666
4867.0,-37.785,-55.29,-100.73,-89.666
4876.9,-39.785,-55.29,-100.73,-89.666
4886.8,-42.785,-54.29,-103.73,-91.666
4896.6,-41.785,-57.29,-103.73,-91.666
4906.5,-46.785,-58.29,-109.73,-92.666
4916.4,-50.785,-60.29,-109.73,-92.666
4926.3,-54.785,-62.29,-108.73,-91.666
4936.2,-57.785,-64.29,-110.73,-92.666
4946.1,-57.785,-65.29,-113.73,-93.666
4956.0,-63.785,-67.29,-116.73,-94.666
4965.8,-66.785,-69.29,-118.73,-93.666
4975.7,-71.785,-71.29,-123.73,-95.666
4985.6,-70.785,-72.29,-122.73,-95.666
4995.5,-72.785,-70.29,-127.73,-96.666
5005.4,-72.785,-70.29,-128.73,-96.666
5015.3,-71.785,-69.29,-127.73,-97.666
5025.2,-72.785,-69.29,-130.73,-97.666
5035.0,-71.785,-67.29,-132.73,-97.666
5044.9,-68.785,-64.29,-136.73,-98.666
5054.8,-67.785,-61.29,-138.73,-97.666
5064.7,-64.785,-58.29,-140.73,-98.666
5074.6,-62.785,-55.29,-142.73,-99.666
5084.5,-57.785,-53.29,-145.73,-100.67
5094.4,-55.785,-50.29,-148.73,-100.67
5104.2,-52.785,-47.29,-150.73,-101.67
5114.1,-50.785,-43.29,-153.73,-102.67
5124.0,-46.785,-41.29,-156.73,-104.67
5133.9,-44.785,-38.29,-157.73,-101.67
5143.8,-44.785,-38.29,-159.73,-102.67
5153.7,-44.785,-33.29,-161.73,-102.67
5163.6,-44.785,-33.29,-163.73,-102.67
5173.4,-40.785,-30.29,-163.73,-102.67
5183.3,-40.785,-30.29,-166.73,-103.67
5193.2,-40.785,-27.29,-167.73,-103.67
5203.1,-40.785,-27.29,-171.73,-104.67
5213.0,-39.785,-26.29,-174.73,-104.67
5222.9,-39.785,-26.29,-176.73,-105.67
5232.8,-42.785,-24.29,-180.73,-107.67
5242.6,-42.785,-24.29,-183.73,-107.67
5252.5,-48.785,-27.29,-184.73,-107.67
5262.4,-48.785,-27.29,-188.73,-108.67
5272.3,-54.785,-27.29,-188.73,-108.67
5282.2,-54.785,-27.29,-191.73,-109.67
5292.1,-51.785,-26.29,-192.73,-110.67
5302.0,-47.785,-26.29,-192.73,-109.67
5311.8,-37.785,-18.29,-194.73,-109.67
5321.7,-29.785,-14.29,-193.73,-108.67
5331.6,-21.785,-9.2898,-201.73,-111.67
5341.5,-15.785,-6.2898,-208.73,-115.67
5351.4,-11.785,-5.2898,-211.73,-120.67
5361.3,-9.7851,-3.2898,-199.73,-118.67
5371.2,-4.7851,-1.2898,-185.73,-114.67
5381.0,4.2149,-0.28981,-170.73,-110.67
5390.9,6.2149,-0.28981,-159.73,-107.67
5400.8,9.2149,-0.28981,-148.73,-105.67
5410.7,12.215,-0.28981,-139.73,-102.67
5420.6,15.215,0.71019,-130.73,-100.67
5430.5,20.215,1.7102,-124.73,-96.666
5440.4,22.215,1.7102,-118.73,-95.666
5450.2,25.215,3.7102,-114.73,-94.666
5460.1,28.215,5.7102,-111.73,-92.666
5470.0,33.215,6.7102,-108.73,-92.666
5479.9,37.215,9.7102,-108.73,-92.666
5489.8,40.215,9.7102,-104.73,-91.666
5499.7,41.215,10.71,-102.73,-90.666
5509.6,40.215,10.71,-100.73,-90.666
5519.4,38.215,8.7102,-96.729,-87.666
5529.3,37.215,7.7102,-96.729,-87.666
5539.2,37.215,6.7102,-94.729,-86.666
5549.1,37.215,5.7102,-93.729,-85.666
5559.0,38.215,6.7102,-98.729,-87.666
5568.9,39.215,6.7102,-99.729,-87.666
5578.8,38.215,7.7102,-103.73,-89.666
5588.6,38.215,6.7102,-105.73,-88.666
5598.5,39.215,6.7102,-102.73,-88.666
5608.4,37.215,8.7102,-104.73,-89.666
5618.3,39.215,7.7102,-102.73,-87.666
5628.2,39.215,9.7102,-103.73,-86.666
5638.1,38.215,8.7102,-105.73,-87.666
5648.0,39.215,9.7102,-103.73,-86.666
5657.8,40.215,11.71,-105.73,-86.666
5667.7,40.215,11.71,-103.73,-86.666
5677.6,40.215,13.71,-105.73,-86.666
5687.5,39.215,12.71,-105.73,-86.666
5697.4,35.215,13.71,-106.73,-86.666
5707.3,35.215,13.71,-106.73,-86.666
5717.2,33.215,13.71,-111.73,-88.666
5727.0,29.215,13.71,-111.73,-88.666
5736.9,29.215,13.71,-114.73,-87.666
5746.8,23.215,11.71,-114.73,-87.666
5756.7,23.215,13.71,-117.73,-88.666
5766.6,18.215,11.71,-117.73,-88.666
5776.5,16.215,10.71,-123.73,-90.666
5786.4,12.215,8.7102,-123.73,-90.666
5796.2,9.2149,11.71,-128.73,-91.666
5806.1,5.2149,7.7102,-128.73,-91.666
5816.0,2.2149,7.7102,-132.73,-91.666
5825.9,-0.78506,7.7102,-132.73,-91.666
5835.8,-4.7851,6.7102,-135.73,-91.666
5845.7,-4.7851,6.7102,-135.73,-91.666
5855.6,-9.7851,4.7102,-137.73,-91.666
5865.4,-13.785,5.7102,-137.73,-91.666
5875.3,-13.785,5.7102,-139.73,-91.666
5885.2,-21.785,2.7102,-139.73,-91.666
5895.1,-21.785,2.7102,-141.73,-90.666
5905.0,-29.785,0.71019,-141.73,-91.666
5914.9,-29.785,0.71019,-142.73,-88.666
5924.8,-34.785,0.71019,-142.73,-89.666
5934.6,-34.785,0.71019,-143.73,-88.666
5944.5,-39.785,1.7102,-140.73,-85.666
5954.4,-39.785,1.7102,-139.73,-85.666
5964.3,-44.785,1.7102,-141.73,-83.666
5974.2,-44.785,1.7102,-140.73,-82.666
5984.1,-46.785,1.7102,-142.73,-83.666
5994.0,-46.785,1.7102,-142.73,-82.666
6003.8,-50.785,3.7102,-143.73,-83.666
6013.7,-50.785,3.7102,-145.73,-81.666
6023.6,-51.785,3.7102,-142.73,-80.666
6033.5,-54.785,2.7102,-145.73,-80.666
6043.4,-57.785,4.7102,-148.73,-80.666
6053.3,-58.785,4.7102,-147.73,-79.666
6063.2,-62.785,2.7102,-149.73,-79.666
6073.0,-65.785,1.7102,-150.73,-80.666
6082.9,-66.785,0.71019,-148.73,-77.666
6092.8,-74.785,-0.28981,-149.73,-78.666
6102.7,-77.785,-1.2898,-149.73,-78.666
6112.6,-78.785,-1.2898,-152.73,-78.666
6122.5,-75.785,-2.2898,-153.73,-77.666
6132.4,-69.785,2.7102,-153.73,-76.666
6142.2,-64.785,3.7102,-151.73,-75.666
6152.1,-62.785,4.7102,-152.73,-75.666
6162.0,-59.785,7.7102,-158.73,-76.666
6171.9,-53.785,10.71,-164.73,-80.666
6181.8,-49.785,13.71,-159.73,-81.666
6191.7,-45.785,15.71,-143.73,-77.666
6201.6,-42.785,14.71,-127.73,-74.666
6211.4,-42.785,13.71,-113.73,-70.666
6221.3,-43.785,10.71,-101.73,-66.666
6231.2,-40.785,11.71,-91.729,-63.666
6241.1,-39.785,11.71,-79.729,-60.666
6251.0,-35.785,12.71,-71.729,-56.666
6260.9,-32.785,14.71,-62.729,-52.666
6270.8,-32.785,14.71,-54.729,-50.666
6280.6,-27.785,17.71,-50.729,-48.666
6290.5,-26.785,17.71,-41.729,-46.666
6300.4,-22.785,19.71,-41.729,-44.666
6310.3,-21.785,20.71,-38.729,-42.666
6320.2,-20.785,21.71,-37.729,-42.666
6330.1,-20.785,20.71,-35.729,-41.666
6340.0,-18.785,20.71,-36.729,-40.666
6349.8,-16.785,24.71,-34.729,-39.666
6359.7,-12.785,26.71,-34.729,-38.666
6369.6,-11.785,26.71,-34.729,-37.666
6379.5,-8.7851,29.71,-37.729,-38.666
6389.4,-5.7851,30.71,-39.729,-39.666
6399.3,-5.7851,31.71,-42.729,-39.666
6409.2,-0.78506,34.71,-46.729,-39.666
6419.0,2.2149,36.71,-40.729,-35.666
6428.9,4.2149,39.71,-40.729,-35.666
6438.8,9.2149,39.71,-37.729,-34.666
6448.7,8.2149,40.71,-36.729,-35.666
6458.6,9.2149,41.71,-37.729,-33.666
6468.5,9.2149,42.71,-31.729,-32.666
6478.4,11.215,41.71,-34.729,-33.666
6488.2,8.2149,40.71,-33.729,-32.666
6498.1,9.2149,41.71,-32.729,-32.666
6508.0,11.215,43.71,-33.729,-30.666
6517.9,12.215,42.71,-34.729,-30.666
6527.8,11.215,43.71,-32.729,-30.666
6537.7,9.2149,42.71,-32.729,-29.666
6547.6,8.2149,43.71,-34.729,-29.666
6557.4,8.2149,42.71,-32.729,-27.666
6567.3,5.2149,41.71,-35.729,-27.666
6577.2,6.2149,41.71,-36.729,-28.666
6587.1,6.2149,41.71,-36.729,-27.666
6597.0,5.2149,41.71,-37.729,-27.666
6606.9,5.2149,41.71,-39.729,-26.666
6616.8,2.2149,42.71,-41.729,-27.666
6626.6,2.2149,42.71,-41.729,-28.666
6636.5,1.2149,41.71,-43.729,-26.666
6646.4,1.2149,41.71,-44.729,-27.666
6656.3,-2.7851,41.71,-44.729,-25.666
6666.2,-2.7851,41.71,-45.729,-25.666
6676.1,-6.7851,40.71,-45.729,-25.666
6686.0,-6.7851,40.71,-49.729,-27.666
6695.8,-9.7851,38.71,-49.729,-27.666
6705.7,-9.7851,38.71,-49.729,-25.666
6715.6,-12.785,40.71,-49.729,-25.666
6725.5,-12.785,40.71,-54.729,-25.666
6735.4,-13.785,39.71,-54.729,-25.666
6745.3,-13.785,39.71,-54.729,-26.666
6755.2,-15.785,39.71,-54.729,-26.666
6765.0,-17.785,39.71,-57.729,-24.666
6774.9,-20.785,37.71,-57.729,-24.666
6784.8,-21.785,38.71,-59.729,-25.666
6794.7,-24.785,39.71,-59.729,-25.666
6804.6,-23.785,38.71,-63.729,-25.666
6814.5,-27.785,37.71,-63.729,-25.666
6824.4,-28.785,36.71,-67.729,-24.666
6834.2,-31.785,36.71,-67.729,-24.666
6844.1,-31.785,37.71,-70.729,-25.666
6854.0,-36.785,36.71,-70.729,-25.666
6863.9,-38.785,34.71,-72.729,-25.666
6873.8,-43.785,34.71,-73.729,-25.666
6883.7,-41.785,34.71,-75.729,-25.666
6893.6,-38.785,36.71,-78.729,-26.666
6903.4,-25.785,43.71,-80.729,-26.666
6913.3,-21.785,45.71,-81.729,-24.666
6923.2,-19.785,46.71,-83.729,-27.666
6933.1,-15.785,49.71,-89.729,-29.666
6943.0,-11.785,51.71,-98.729,-33.666
6952.9,-5.7851,53.71,-99.729,-35.666
6962.8,0.21494,56.71,-86.729,-33.666
6972.6,5.2149,56.71,-70.729,-30.666
6982.5,7.2149,54.71,-59.729,-26.666
6992.4,9.2149,53.71,-50.729,-24.666
7002.3,11.215,50.71,-38.729,-21.666
7012.2,17.215,52.71,-28.729,-18.666
7022.1,18.215,50.71,-17.729,-15.666
7032.0,21.215,50.71,-11.729,-13.666
7041.8,26.215,50.71,-4.7286,-10.666
7051.7,29.215,51.71,1.2714,-7.6658
7061.6,31.215,51.71,5.2714,-7.6658
7071.5,36.215,52.71,8.2714,-7.6658
7081.4,38.215,53.71,8.2714,-6.6658
7091.3,41.215,53.71,11.271,-5.6658
7101.1,40.215,54.71,12.271,-5.6658
7111.0,43.215,52.71,13.271,-3.6658
7120.9,45.215,52.71,14.271,-3.6658
7130.8,47.215,54.71,16.271,-2.6658
7140.7,51.215,55.71,15.271,-1.6658
7150.6,51.215,55.71,11.271,-2.6658
7160.5,51.215,55.71,5.2714,-4.6658
7170.4,58.215,58.71,5.2714,-3.6658
7180.2,59.215,60.71,5.2714,-3.6658
7190.1,64.215,62.71,3.2714,-2.6658
7200.0,64.215,61.71,6.2714,-1.6658
7209.9,67.215,64.71,3.2714,-1.6658
7219.8,67.215,64.71,3.2714,-1.6658
7229.7,68.215,65.71,2.2714,-2.6658
7239.5,69.215,65.71,0.27142,-2.6658
7249.4,67.215,65.71,-1.7286,-3.6658
7259.3,68.215,63.71,-3.7286,-4.6658
7269.2,67.215,63.71,-2.7286,-4.6658
7279.1,67.215,63.71,-0.72858,-4.6658
7289.0,67.215,64.71,-3.7286,-5.6658
7298.9,67.215,63.71,-5.7286,-3.6658
7308.7,67.215,64.71,-4.7286,-4.6658
7318.6,68.215,66.71,-7.7286,-5.6658
7328.5,69.215,66.71,-8.7286,-5.6658
7338.4,69.215,66.71,-9.7286,-4.6658
7348.3,66.215,67.71,-11.729,-5.6658
7358.2,66.215,67.71,-12.729,-5.6658
7368.1,69.215,68.71,-15.729,-5.6658
7377.9,69.215,68.71,-16.729,-6.6658
7387.8,64.215,68.71,-18.729,-6.6658
7397.7,64.215,68.71,-21.729,-6.6658
7407.6,62.215,69.71,-21.729,-6.6658
7417.5,62.215,69.71,-26.729,-7.6658
7427.4,59.215,68.71,-27.729,-8.6658
7437.3,59.215,68.71,-28.729,-7.6658
7447.1,53.215,68.71,-32.729,-7.6658
7457.0,53.215,68.71,-31.729,-7.6658
7466.9,54.215,66.71,-32.729,-7.6658
7476.8,54.215,66.71,-35.729,-8.6658
7486.7,50.215,66.71,-36.729,-8.6658
7496.6,49.215,66.71,-39.729,-9.6658
7506.5,46.215,64.71,-39.729,-9.6658
7516.3,44.215,61.71,-40.729,-9.6658
7526.2,41.215,62.71,-40.729,-9.6658
7536.1,37.215,61.71,-42.729,-8.6658
7546.0,37.215,59.71,-47.729,-9.6658
7555.9,33.215,58.71,-46.729,-10.666
7565.8,29.215,57.71,-46.729,-8.6658
7575.7,29.215,56.71,-50.729,-9.6658
7585.5,24.215,55.71,-52.729,-9.6658
7595.4,20.215,53.71,-54.729,-10.666
7605.3,17.215,51.71,-56.729,-9.6658
7615.2,12.215,49.71,-58.729,-10.666
7625.1,12.215,45.71,-60.729,-11.666
7635.0,16.215,47.71,-59.729,-10.666
7644.9,22.215,48.71,-61.729,-10.666
7654.7,24.215,50.71,-61.729,-10.666
7664.6,27.215,48.71,-67.729,-13.666
7674.5,34.215,52.71,-77.729,-16.666
7684.4,41.215,50.71,-77.729,-16.666
7694.3,48.215,54.71,-58.729,-14.666
7704.2,54.215,57.71,-58.729,-14.666
7714.1,59.215,55.71,-37.729,-10.666
7723.9,65.215,54.71,-37.729,-10.666
7733.8,72.215,53.71,-15.729,-6.6658
7743.7,77.215,55.71,-15.729,-6.6658
7753.6,86.215,56.71,3.2714,-1.6658
7763.5,90.215,57.71,3.2714,-1.6658
7773.4,94.215,57.71,18.271,4.3342
7783.3,101.21,58.71,18.271,4.3342
7793.1,103.21,60.71,27.271,5.3342
7803.0,109.21,61.71,27.271,5.3342
7812.9,112.21,62.71,29.271,6.3342
7822.8,116.21,64.71,29.271,6.3342
7832.7,120.21,62.71,33.271,6.3342
7842.6,123.21,64.71,33.271,6.3342
7852.5,127.21,65.71,31.271,6.3342
7862.3,129.21,64.71,31.271,6.3342
7872.2,131.21,66.71,33.271,5.3342
7882.1,134.21,67.71,32.271,7.3342
7892.0,133.21,66.71,31.271,5.3342
7901.9,133.21,65.71,28.271,5.3342
7911.8,135.21,64.71,24.271,5.3342
7921.7,137.21,63.71,22.271,4.3342
7931.5,138.21,65.71,22.271,6.3342
7941.4,141.21,66.71,23.271,4.3342
7951.3,142.21,66.71,24.271,4.3342
7961.2,142.21,67.71,21.271,4.3342
7971.1,141.21,66.71,18.271,2.3342
7981.0,140.21,64.71,19.271,2.3342
7990.9,138.21,65.71,15.271,2.3342
8000.7,138.21,63.71,15.271,1.3342
8010.6,137.21,62.71,10.271,0.33423
8020.5,135.21,62.71,9.2714,-0.66577
8030.4,132.21,62.71,4.2714,-1.6658
8040.3,130.21,61.71,2.2714,-3.6658
8050.2,131.21,60.71,2.2714,-2.6658
8060.1,127.21,60.71,-1.7286,-4.6658
8069.9,127.21,60.71,-3.7286,-6.6658
8079.8,125.21,60.71,-5.7286,-4.6658
8089.7,125.21,60.71,-8.7286,-6.6658
8099.6,119.21,56.71,-10.729,-6.6658
8109.5,119.21,56.71,-10.729,-7.6658
8119.4,111.21,52.71,-12.729,-7.6658
8129.3,111.21,52.71,-14.729,-8.6658
8139.1,104.21,50.71,-16.729,-8.6658
8149.0,104.21,50.71,-17.729,-8.6658
8158.9,99.215,46.71,-22.729,-9.6658
8168.8,99.215,46.71,-25.729,-11.666
8178.7,95.215,44.71,-28.729,-12.666
8188.6,95.215,44.71,-33.729,-14.666
8198.5,87.215,41.71,-35.729,-15.666
8208.3,87.215,41.71,-37.729,-16.666
8218.2,83.215,41.71,-43.729,-16.666
8228.1,81.215,39.71,-43.729,-16.666
8238.0,79.215,38.71,-46.729,-18.666
8247.9,75.215,36.71,-48.729,-17.666
8257.8,73.215,34.71,-49.729,-18.666
8267.7,69.215,32.71,-51.729,-18.666
8277.5,65.215,31.71,-53.729,-18.666
8287.4,62.215,29.71,-54.729,-19.666
8297.3,59.215,28.71,-59.729,-21.666
8307.2,59.215,27.71,-62.729,-23.666
8317.1,53.215,26.71,-66.729,-24.666
8327.0,51.215,25.71,-68.729,-25.666
8336.9,49.215,24.71,-73.729,-27.666
8346.7,45.215,22.71,-74.729,-27.666
8356.6,45.215,22.71,-76.729,-27.666
8366.5,48.215,20.71,-76.729,-26.666
8376.4,56.215,22.71,-77.729,-26.666
8386.3,65.215,28.71,-79.729,-26.666
8396.2,75.215,33.71,-82.729,-26.666
8406.1,84.215,34.71,-88.729,-31.666
8415.9,94.215,37.71,-98.729,-35.666
8425.8,104.21,41.71,-88.729,-36.666
8435.7,115.21,45.71,-76.729,-34.666
8445.6,130.21,50.71,-66.729,-32.666
8455.5,141.21,53.71,-52.729,-29.666
8465.4,148.21,55.71,-40.729,-26.666
8475.3,158.21,57.71,-31.729,-23.666
8485.1,170.21,60.71,-18.729,-22.666
8495.0,175.21,63.71,-13.729,-19.666
8504.9,184.21,65.71,-5.7286,-16.666
8514.8,192.21,68.71,2.2714,-15.666
8524.7,198.21,70.71,4.2714,-14.666
8534.6,204.21,73.71,8.2714,-13.666
8544.5,211.21,76.71,10.271,-14.666
8554.3,216.21,76.71,12.271,-14.666
8564.2,220.21,78.71,13.271,-13.666
8574.1,221.21,77.71,17.271,-11.666
8584.0,222.21,77.71,15.271,-11.666
8593.9,225.21,77.71,20.271,-10.666
8603.8,226.21,76.71,19.271,-10.666
8613.7,229.21,77.71,19.271,-9.6658
8623.5,231.21,80.71,19.271,-10.666
8633.4,235.21,81.71,17.271,-10.666
8643.3,238.21,81.71,14.271,-12.666
8653.2,240.21,83.71,14.271,-12.666
8663.1,240.21,84.71,10.271,-12.666
8673.0,241.21,85.71,10.271,-12.666
8682.9,243.21,88.71,7.2714,-13.666
8692.7,249.21,89.71,7.2714,-13.666
8702.6,254.21,90.71,7.2714,-13.666
8712.5,259.21,94.71,7.2714,-13.666
8722.4,262.21,96.71,5.2714,-14.666
8732.3,266.21,98.71,5.2714,-14.666
8742.2,270.21,100.71,4.2714,-13.666
8752.1,273.21,100.71,4.2714,-13.666
8761.9,275.21,100.71,3.2714,-12.666
8771.8,278.21,101.71,3.2714,-12.666
8781.7,279.21,103.71,-0.72858,-13.666
8791.6,276.21,105.71,-0.72858,-13.666
8801.5,276.21,105.71,-3.7286,-13.666
8811.4,270.21,104.71,-3.7286,-13.666
8821.3,270.21,104.71,-3.7286,-12.666
8831.1,260.21,106.71,-3.7286,-12.666
8841.0,260.21,106.71,-5.7286,-14.666
8850.9,252.21,105.71,-7.7286,-14.666
8860.8,252.21,105.71,-9.7286,-15.666
8870.7,247.21,106.71,-9.7286,-14.666
8880.6,247.21,106.71,-12.729,-14.666
8890.5,248.21,109.71,-13.729,-16.666
8900.3,248.21,109.71,-15.729,-15.666
8910.2,246.21,111.71,-17.729,-15.666
8920.1,246.21,111.71,-19.729,-15.666
8930.0,246.21,114.71,-20.729,-15.666
8939.9,246.21,114.71,-21.729,-15.666
8949.8,246.21,116.71,-23.729,-16.666
8959.7,246.21,118.71,-23.729,-16.666
8969.5,246.21,120.71,-25.729,-16.666
8979.4,247.21,120.71,-28.729,-16.666
8989.3,245.21,124.71,-32.729,-18.666
8999.2,245.21,125.71,-34.729,-19.666
9009.1,245.21,127.71,-37.729,-19.666
9019.0,244.21,129.71,-39.729,-20.666
9028.9,243.21,129.71,-41.729,-19.666
9038.7,245.21,129.71,-42.729,-20.666
9048.6,246.21,132.71,-44.729,-20.666
9058.5,246.21,133.71,-45.729,-23.666
9068.4,248.21,135.71,-49.729,-21.666
9078.3,255.21,140.71,-51.729,-23.666
9088.2,261.21,144.71,-52.729,-22.666
9098.1,273.21,151.71,-54.729,-25.666
9107.9,283.21,155.71,-56.729,-23.666
9117.8,297.21,163.71,-59.729,-24.666
9127.7,313.21,169.71,-57.729,-24.666
9137.6,335.21,177.71,-57.729,-23.666
9147.5,352.21,186.71,-57.729,-23.666
9157.4,364.21,191.71,-58.729,-22.666
9167.3,378.21,197.71,-67.729,-26.666
9177.1,392.21,203.71,-74.729,-32.666
9187.0,404.21,209.71,-68.729,-32.666
9196.9,415.21,216.71,-57.729,-30.666
9206.8,429.21,222.71,-45.729,-28.666
9216.7,440.21,224.71,-29.729,-23.666
9226.6,451.21,228.71,-18.729,-21.666
9236.5,464.21,232.71,-7.7286,-17.666
9246.3,475.21,237.71,3.2714,-14.666
9256.2,483.21,239.71,10.271,-11.666
9266.1,491.21,242.71,19.271,-8.6658
9276.0,496.21,246.71,26.271,-6.6658
9285.9,503.21,248.71,30.271,-5.6658
9295.8,510.21,250.71,35.271,-4.6658
9305.7,516.21,250.71,36.271,-5.6658
9315.5,522.21,251.71,40.271,-3.6658
9325.4,525.21,251.71,38.271,-3.6658
9335.3,527.21,249.71,38.271,-4.6658
9345.2,529.21,245.71,41.271,-2.6658
9355.1,529.21,242.71,41.271,-2.6658
9365.0,530.21,242.71,43.271,-0.66577
9374.9,529.21,240.71,42.271,-2.6658
9384.7,526.21,240.71,38.271,-3.6658
9394.6,522.21,240.71,31.271,-6.6658
9404.5,519.21,237.71,28.271,-7.6658
9414.4,511.21,235.71,24.271,-8.6658
9424.3,509.21,234.71,22.271,-9.6658
9434.2,505.21,231.71,22.271,-10.666
9444.1,502.21,229.71,21.271,-10.666
9453.9,494.21,224.71,17.271,-11.666
9463.8,487.21,221.71,17.271,-11.666
9473.7,481.21,218.71,19.271,-12.666
9483.6,472.21,215.71,15.271,-13.666
9493.5,464.21,209.71,12.271,-13.666
9503.4,456.21,206.71,9.2714,-15.666
9513.3,448.21,202.71,6.2714,-18.666
9523.1,440.21,199.71,3.2714,-18.666
9533.0,440.21,199.71,0.27142,-19.666
9542.9,421.21,190.71,1.2714,-19.666
9552.8,421.21,190.71,-1.7286,-21.666
9562.7,403.21,181.71,-6.7286,-22.666
9572.6,403.21,181.71,-9.7286,-25.666
9582.5,390.21,178.71,-11.729,-25.666
9592.3,390.21,178.71,-15.729,-27.666
9602.2,375.21,170.71,-20.729,-29.666
9612.1,375.21,170.71,-24.729,-30.666
9622.0,359.21,162.71,-24.729,-30.666
9631.9,359.21,162.71,-29.729,-30.666
9641.8,339.21,154.71,-29.729,-30.666
9651.6,339.21,154.71,-36.729,-34.666
9661.5,329.21,150.71,-36.729,-34.666
9671.4,329.21,150.71,-43.729,-35.666
9681.3,325.21,149.71,-43.729,-35.666
9691.2,318.21,148.71,-50.729,-40.666
9701.1,312.21,143.71,-50.729,-40.666
9711.0,306.21,140.71,-55.729,-40.666
9720.9,300.21,139.71,-55.729,-40.666
9730.7,295.21,138.71,-60.729,-42.666
9740.6,289.21,134.71,-60.729,-42.666
9750.5,282.21,131.71,-62.729,-42.666
9760.4,276.21,129.71,-62.729,-42.666
9770.3,265.21,126.71,-68.729,-44.666
9780.2,257.21,123.71,-68.729,-44.666
9790.0,254.21,122.71,-70.729,-45.666
9799.9,249.21,121.71,-74.729,-46.666
9809.8,243.21,122.71,-75.729,-45.666
9819.7,243.21,124.71,-75.729,-47.666
9829.6,242.21,127.71,-77.729,-47.666
9839.5,241.21,128.71,-79.729,-48.666
9849.4,245.21,132.71,-83.729,-50.666
9859.3,246.21,135.71,-86.729,-49.666
9869.1,247.21,136.71,-88.729,-50.666
9879.0,244.21,136.71,-89.729,-49.666
9888.9,239.21,137.71,-94.729,-52.666
9898.8,236.21,133.71,-97.729,-53.666
9908.7,237.21,130.71,-99.729,-55.666
9918.6,239.21,129.71,-103.73,-56.666
9928.4,245.21,133.71,-107.73,-58.666
9938.3,252.21,133.71,-107.73,-57.666
9948.2,254.21,135.71,-113.73,-59.666
9958.1,255.21,135.71,-120.73,-64.666
9968.0,257.21,136.71,-122.73,-66.666
9977.9,258.21,137.71,-114.73,-65.666
9987.8,263.21,138.71,-102.73,-63.666
9997.6,265.21,139.71,-91.729,-62.666
10008.0,267.21,138.71,-81.729,-61.666
10017.0,268.21,137.71,-66.729,-57.666
10027.0,270.21,135.71,-58.729,-56.666
10037.0,268.21,132.71,-48.729,-52.666
10047.0,264.21,130.71,-40.729,-49.666
10057.0,262.21,130.71,-36.729,-48.666
10067.0,263.21,131.71,-32.729,-48.666
10077.0,262.21,128.71,-28.729,-47.666
10087.0,261.21,126.71,-27.729,-48.666
10097.0,261.21,127.71,-26.729,-46.666
10106.0,259.21,126.71,-27.729,-46.666
10116.0,255.21,124.71,-25.729,-46.666
10126.0,252.21,122.71,-23.729,-46.666
10136.0,251.21,120.71,-23.729,-47.666
10146.0,251.21,121.71,-26.729,-46.666
10156.0,253.21,124.71,-25.729,-46.666
10166.0,252.21,123.71,-27.729,-45.666
10176.0,252.21,124.71,-29.729,-47.666
10186.0,251.21,123.71,-33.729,-48.666
10195.0,254.21,124.71,-34.729,-48.666
10205.0,253.21,125.71,-34.729,-48.666
10215.0,249.21,124.71,-33.729,-49.666
10225.0,249.21,124.71,-34.729,-47.666
10235.0,246.21,122.71,-34.729,-47.666
10245.0,243.21,121.71,-35.729,-48.666
10255.0,239.21,118.71,-35.729,-48.666
10265.0,239.21,118.71,-37.729,-49.666
10274.0,233.21,115.71,-36.729,-48.666
10284.0,233.21,115.71,-38.729,-50.666
10294.0,229.21,115.71,-39.729,-49.666
10304.0,229.21,115.71,-41.729,-49.666
10314.0,230.21,117.71,-41.729,-49.666
10324.0,230.21,117.71,-43.729,-50.666
10334.0,232.21,119.71,-46.729,-50.666
10344.0,232.21,119.71,-45.729,-50.666
10354.0,243.21,125.71,-46.729,-49.666
10363.0,243.21,125.71,-48.729,-48.666
10373.0,252.21,133.71,-51.729,-49.666
10383.0,252.21,133.71,-49.729,-50.666
10393.0,259.21,137.71,-53.729,-50.666
10403.0,259.21,137.71,-56.729,-50.666
10413.0,264.21,140.71,-58.729,-51.666
10423.0,270.21,146.71,-58.729,-52.666
10433.0,271.21,149.71,-59.729,-50.666
10443.0,276.21,153.71,-60.729,-50.666
10452.0,278.21,157.71,-57.729,-49.666
10462.0,279.21,158.71,-59.729,-50.666
10472.0,279.21,158.71,-61.729,-48.666
10482.0,280.21,157.71,-60.729,-48.666
10492.0,278.21,158.71,-61.729,-48.666
10502.0,275.21,156.71,-60.729,-47.666
10512.0,274.21,156.71,-63.729,-46.666
10522.0,270.21,158.71,-63.729,-46.666
10532.0,268.21,159.71,-64.729,-47.666
10541.0,265.21,160.71,-65.729,-46.666
10551.0,264.21,162.71,-66.729,-44.666
10561.0,261.21,166.71,-69.729,-45.666
10571.0,260.21,168.71,-72.729,-44.666
10581.0,261.21,169.71,-74.729,-45.666
10591.0,256.21,170.71,-73.729,-44.666
10601.0,255.21,169.71,-76.729,-43.666
10611.0,250.21,170.71,-74.729,-44.666
10620.0,246.21,170.71,-76.729,-43.666
10630.0,240.21,171.71,-76.729,-43.666
10640.0,236.21,170.71,-80.729,-43.666
10650.0,229.21,167.71,-80.729,-43.666
10660.0,223.21,164.71,-82.729,-43.666
10670.0,217.21,162.71,-82.729,-43.666
10680.0,213.21,161.71,-84.729,-43.666
10690.0,206.21,160.71,-84.729,-43.666
10700.0,201.21,157.71,-83.729,-40.666
10709.0,194.21,154.71,-83.729,-40.666
10719.0,189.21,152.71,-83.729,-40.666
10729.0,187.21,150.71,-83.729,-40.666
10739.0,190.21,147.71,-85.729,-40.666
10749.0,199.21,151.71,-85.729,-40.666
10759.0,201.21,149.71,-85.729,-39.666
10769.0,201.21,149.71,-85.729,-39.666
10779.0,202.21,153.71,-99.729,-45.666
10789.0,204.21,155.71,-99.729,-45.666
10798.0,210.21,157.71,-83.729,-45.666
10808.0,213.21,160.71,-83.729,-45.666
10818.0,211.21,158.71,-69.729,-41.666
10828.0,209.21,153.71,-56.729,-38.666
10838.0,206.21,148.71,-43.729,-34.666
10848.0,204.21,143.71,-31.729,-31.666
10858.0,206.21,140.71,-21.729,-27.666
10868.0,204.21,134.71,-13.729,-23.666
10878.0,204.21,131.71,-4.7286,-21.666
10887.0,204.21,130.71,0.27142,-19.666
10897.0,206.21,128.71,6.2714,-16.666
10907.0,209.21,129.71,10.271,-14.666
10917.0,210.21,128.71,12.271,-16.666
10927.0,211.21,129.71,16.271,-14.666
10937.0,214.21,131.71,16.271,-13.666
10947.0,215.21,132.71,18.271,-12.666
10957.0,217.21,133.71,17.271,-11.666
10966.0,221.21,137.71,19.271,-10.666
10976.0,225.21,139.71,21.271,-8.6658
10986.0,227.21,140.71,21.271,-7.6658
10996.0,227.21,140.71,20.271,-6.6658
11006.0,228.21,141.71,21.271,-6.6658
11016.0,228.21,141.71,21.271,-6.6658
11026.0,233.21,147.71,23.271,-4.6658
11036.0,233.21,147.71,25.271,-3.6658
11046.0,238.21,152.71,27.271,-1.6658
11055.0,238.21,152.71,26.271,-3.6658
11065.0,242.21,157.71,27.271,-1.6658
11075.0,242.21,157.71,24.271,-2.6658
11085.0,253.21,171.71,24.271,-2.6658
11095.0,253.21,171.71,23.271,-2.6658
11105.0,253.21,175.71,24.271,-2.6658
11115.0,253.21,175.71,23.271,-3.6658
11125.0,247.21,176.71,23.271,-0.66577
11135.0,247.21,176.71,23.271,-2.6658
11144.0,239.21,173.71,20.271,-0.66577
11154.0,232.21,171.71,21.271,-1.6658
11164.0,224.21,166.71,20.271,-1.6658
11174.0,217.21,160.71,21.271,-0.66577
11184.0,206.21,157.71,20.271,-1.6658
11194.0,199.21,154.71,20.271,-0.66577
11204.0,192.21,150.71,21.271,-0.66577
11214.0,186.21,148.71,18.271,-0.66577
11224.0,178.21,144.71,18.271,0.33423
11233.0,174.21,139.71,15.271,-0.66577
11243.0,169.21,139.71,13.271,0.33423
11253.0,168.21,138.71,12.271,0.33423
11263.0,164.21,136.71,11.271,-0.66577
11273.0,160.21,136.71,9.2714,0.33423
11283.0,156.21,133.71,7.2714,-1.6658
11293.0,153.21,134.71,5.2714,-0.66577
11303.0,148.21,132.71,5.2714,-0.66577
11312.0,144.21,130.71,3.2714,-0.66577
11322.0,140.21,130.71,3.2714,-1.6658
11332.0,135.21,127.71,-0.72858,-0.66577
11342.0,133.21,128.71,-0.72858,-1.6658
11352.0,131.21,125.71,-1.7286,-0.66577
11362.0,129.21,125.71,-5.7286,-2.6658
11372.0,123.21,125.71,-5.7286,-0.66577
11382.0,122.21,126.71,-4.7286,-2.6658
11392.0,118.21,124.71,-7.7286,-1.6658
11401.0,116.21,123.71,-8.7286,-3.6658
11411.0,113.21,121.71,-13.729,-4.6658
11421.0,111.21,122.71,-16.729,-4.6658
11431.0,107.21,122.71,-18.729,-5.6658
11441.0,105.21,122.71,-21.729,-5.6658
11451.0,104.21,120.71,-22.729,-5.6658
11461.0,102.21,120.71,-25.729,-5.6658
11471.0,98.215,120.71,-25.729,-6.6658
11481.0,96.215,119.71,-25.729,-6.6658
11490.0,94.215,119.71,-25.729,-5.6658
11500.0,100.21,121.71,-25.729,-4.6658
11510.0,115.21,129.71,-24.729,-3.6658
11520.0,122.21,133.71,-27.729,-3.6658
11530.0,125.21,132.71,-29.729,-4.6658
11540.0,125.21,133.71,-36.729,-8.6658
11550.0,131.21,138.71,-47.729,-14.666
11560.0,135.21,141.71,-40.729,-15.666
11570.0,140.21,144.71,-28.729,-11.666
11579.0,144.21,144.71,-19.729,-9.6658
11589.0,146.21,144.71,-7.7286,-5.6658
11599.0,148.21,143.71,-7.7286,-5.6658
11609.0,150.21,144.71,13.271,-0.66577
11619.0,155.21,144.71,13.271,-0.66577
11629.0,164.21,148.71,33.271,5.3342
11639.0,167.21,148.71,33.271,5.3342
11649.0,172.21,151.71,48.271,11.334
11658.0,176.21,152.71,48.271,11.334
11668.0,179.21,155.71,59.271,13.334
11678.0,181.21,155.71,59.271,13.334
11688.0,183.21,155.71,64.271,16.334
11698.0,183.21,156.71,64.271,16.334
11708.0,188.21,157.71,66.271,18.334
11718.0,187.21,157.71,66.271,18.334
11728.0,187.21,157.71,71.271,20.334
11738.0,193.21,160.71,71.271,20.334
11747.0,193.21,160.71,74.271,23.334
11757.0,196.21,162.71,74.271,23.334
11767.0,196.21,162.71,67.271,23.334
11777.0,198.21,163.71,67.271,23.334
11787.0,198.21,163.71,65.271,22.334
11797.0,200.21,166.71,67.271,22.334
11807.0,200.21,166.71,66.271,23.334
11817.0,199.21,166.71,69.271,24.334
11827.0,199.21,166.71,68.271,23.334
11836.0,199.21,166.71,68.271,24.334
11846.0,199.21,166.71,64.271,23.334
11856.0,194.21,163.71,66.271,22.334
11866.0,194.21,163.71,61.271,22.334
11876.0,197.21,166.71,62.271,23.334
11886.0,195.21,164.71,61.271,22.334
11896.0,193.21,164.71,59.271,21.334
11906.0,192.21,164.71,56.271,20.334
11916.0,191.21,165.71,56.271,20.334
11925.0,189.21,164.71,54.271,19.334
11935.0,189.21,164.71,52.271,20.334
11945.0,188.21,166.71,50.271,19.334
11955.0,187.21,165.71,49.271,19.334
11965.0,185.21,165.71,47.271,18.334
11975.0,184.21,165.71,43.271,18.334
11985.0,182.21,164.71,41.271,17.334
11995.0,180.21,161.71,41.271,17.334
12004.0,178.21,160.71,36.271,16.334
12014.0,174.21,157.71,33.271,16.334
12024.0,171.21,155.71,30.271,14.334
12034.0,167.21,153.71,28.271,13.334
12044.0,162.21,150.71,24.271,12.334
12054.0,158.21,146.71,21.271,11.334
12064.0,154.21,145.71,18.271,11.334
12074.0,152.21,142.71,18.271,11.334
12084.0,148.21,142.71,16.271,11.334
12093.0,145.21,138.71,14.271,10.334
12103.0,141.21,137.71,13.271,10.334
12113.0,136.21,134.71,9.2714,9.3342
12123.0,133.21,133.71,7.2714,8.3342
12133.0,131.21,132.71,4.2714,8.3342
12143.0,127.21,129.71,3.2714,8.3342
12153.0,124.21,128.71,0.27142,7.3342
12163.0,121.21,126.71,-1.7286,6.3342
12173.0,116.21,125.71,-5.7286,6.3342
12182.0,112.21,123.71,-9.7286,4.3342
12192.0,109.21,122.71,-10.729,4.3342
12202.0,104.21,119.71,-11.729,2.3342
12212.0,98.215,117.71,-14.729,3.3342
12222.0,92.215,113.71,-14.729,4.3342
12232.0,89.215,110.71,-17.729,2.3342
12242.0,89.215,107.71,-18.729,2.3342
12252.0,98.215,109.71,-20.729,1.3342
12262.0,106.21,115.71,-18.729,5.3342
12271.0,108.21,114.71,-18.729,5.3342
12281.0,112.21,115.71,-25.729,3.3342
12291.0,118.21,119.71,-36.729,-1.6658
12301.0,124.21,123.71,-34.729,-4.6658
12311.0,132.21,124.71,-23.729,-1.6658
12321.0,134.21,125.71,-12.729,-0.66577
12331.0,137.21,125.71,-2.7286,0.33423
12341.0,141.21,124.71,8.2714,3.3342
12350.0,146.21,124.71,18.271,6.3342
12360.0,151.21,123.71,24.271,8.3342
12370.0,155.21,124.71,33.271,10.334
12380.0,156.21,124.71,41.271,12.334
12390.0,160.21,124.71,45.271,13.334
12400.0,161.21,123.71,49.271,13.334
12410.0,167.21,121.71,54.271,14.334
12420.0,167.21,122.71,54.271,15.334
12430.0,171.21,120.71,56.271,13.334
12439.0,171.21,119.71,57.271,15.334
12449.0,174.21,119.71,57.271,15.334
12459.0,174.21,119.71,60.271,15.334
12469.0,174.21,117.71,60.271,15.334
12479.0,174.21,117.71,61.271,16.334
12489.0,179.21,119.71,60.271,16.334
12499.0,179.21,119.71,58.271,15.334
12509.0,181.21,120.71,58.271,16.334
12519.0,181.21,120.71,54.271,14.334
12528.0,180.21,120.71,52.271,13.334
12538.0,180.21,120.71,52.271,14.334
12548.0,181.21,121.71,52.271,14.334
12558.0,181.21,121.71,52.271,15.334
12568.0,182.21,120.71,52.271,15.334
12578.0,182.21,120.71,49.271,13.334
12588.0,179.21,118.71,49.271,13.334
12598.0,179.21,118.71,45.271,13.334
12608.0,178.21,118.71,45.271,13.334
12617.0,175.21,117.71,40.271,10.334
12627.0,175.21,116.71,40.271,10.334
12637.0,172.21,112.71,35.271,10.334
12647.0,167.21,111.71,35.271,10.334
12657.0,162.21,109.71,27.271,5.3342
12667.0,162.21,109.71,27.271,5.3342
12677.0,159.21,107.71,21.271,4.3342
12687.0,154.21,105.71,21.271,4.3342
12696.0,150.21,103.71,18.271,3.3342
12706.0,145.21,101.71,18.271,3.3342
12716.0,145.21,99.71,14.271,1.3342
12726.0,138.21,98.71,14.271,1.3342
12736.0,135.21,95.71,14.271,1.3342
12746.0,130.21,94.71,10.271,0.33423
12756.0,127.21,91.71,7.2714,-0.66577
12766.0,124.21,90.71,6.2714,-1.6658
12776.0,120.21,89.71,3.2714,-1.6658
12785.0,115.21,86.71,1.2714,-2.6658
12795.0,112.21,84.71,-3.7286,-2.6658
12805.0,108.21,83.71,-5.7286,-4.6658
12815.0,107.21,82.71,-4.7286,-3.6658
12825.0,103.21,79.71,-8.7286,-5.6658
12835.0,98.215,78.71,-13.729,-6.6658
12845.0,93.215,78.71,-15.729,-5.6658
12855.0,92.215,75.71,-18.729,-8.6658
12865.0,86.215,72.71,-17.729,-6.6658
12874.0,81.215,70.71,-19.729,-6.6658
12884.0,76.215,69.71,-21.729,-6.6658
12894.0,73.215,65.71,-23.729,-7.6658
12904.0,68.215,65.71,-28.729,-8.6658
12914.0,64.215,62.71,-30.729,-9.6658
12924.0,61.215,60.71,-35.729,-11.666
12934.0,57.215,60.71,-38.729,-12.666
12944.0,52.215,58.71,-43.729,-12.666
12954.0,50.215,56.71,-45.729,-14.666
12963.0,42.215,53.71,-45.729,-13.666
12973.0,39.215,50.71,-47.729,-16.666
12983.0,40.215,46.71,-51.729,-14.666
12993.0,48.215,49.71,-47.729,-14.666
13003.0,58.215,55.71,-47.729,-12.666
13013.0,63.215,56.71,-47.729,-12.666
13023.0,67.215,56.71,-53.729,-15.666
13033.0,71.215,57.71,-61.729,-18.666
13042.0,77.215,60.71,-67.729,-21.666
13052.0,83.215,62.71,-59.729,-21.666
13062.0,88.215,65.71,-47.729,-20.666
13072.0,90.215,65.71,-35.729,-18.666
13082.0,93.215,62.71,-26.729,-17.666
13092.0,97.215,62.71,-14.729,-14.666
13102.0,101.21,61.71,-6.7286,-12.666
13112.0,107.21,64.71,3.2714,-8.6658
13122.0,108.21,62.71,12.271,-5.6658
13131.0,109.21,63.71,21.271,-3.6658
13141.0,112.21,62.71,25.271,-2.6658
13151.0,114.21,63.71,28.271,-1.6658
13161.0,117.21,63.71,33.271,-0.66577
13171.0,120.21,62.71,34.271,0.33423
13181.0,123.21,63.71,34.271,-0.66577
13191.0,123.21,63.71,37.271,0.33423
13201.0,124.21,60.71,40.271,1.3342
13211.0,124.21,60.71,41.271,1.3342
13220.0,122.21,57.71,42.271,4.3342
13230.0,122.21,57.71,43.271,4.3342
13240.0,120.21,56.71,43.271,2.3342
13250.0,120.21,56.71,41.271,3.3342
13260.0,122.21,56.71,41.271,3.3342
13270.0,122.21,56.71,39.271,1.3342
13280.0,119.21,54.71,36.271,1.3342
13290.0,119.21,54.71,35.271,2.3342
13300.0,121.21,56.71,33.271,1.3342
13309.0,121.21,56.71,31.271,1.3342
13319.0,116.21,55.71,29.271,1.3342
13329.0,116.21,55.71,30.271,0.33423
13339.0,116.21,54.71,28.271,1.3342
13349.0,112.21,51.71,28.271,1.3342
13359.0,108.21,50.71,27.271,0.33423
13369.0,104.21,48.71,23.271,0.33423
13379.0,102.21,46.71,21.271,-1.6658
13388.0,100.21,44.71,19.271,-0.66577
13398.0,96.215,42.71,19.271,-1.6658
13408.0,93.215,42.71,14.271,-3.6658
13418.0,88.215,39.71,14.271,-2.6658
13428.0,83.215,37.71,12.271,-3.6658
13438.0,78.215,34.71,10.271,-3.6658
13448.0,75.215,32.71,7.2714,-5.6658
13458.0,73.215,30.71,7.2714,-3.6658
13468.0,67.215,28.71,5.2714,-3.6658
13477.0,63.215,26.71,1.2714,-4.6658
13487.0,63.215,25.71,3.2714,-5.6658
13497.0,57.215,23.71,-1.7286,-5.6658
13507.0,51.215,19.71,-3.7286,-5.6658
13517.0,48.215,16.71,-6.7286,-8.6658
13527.0,43.215,15.71,-8.7286,-7.6658
13537.0,36.215,12.71,-11.729,-8.6658
13547.0,32.215,8.7102,-12.729,-8.6658
13557.0,26.215,7.7102,-13.729,-8.6658
13566.0,25.215,6.7102,-16.729,-10.666
13576.0,19.215,3.7102,-16.729,-10.666
13586.0,17.215,1.7102,-20.729,-9.6658
13596.0,13.215,-0.28981,-20.729,-9.6658
13606.0,6.2149,-2.2898,-22.729,-10.666
13616.0,1.2149,-6.2898,-22.729,-10.666
13626.0,-5.7851,-10.29,-27.729,-9.6658
13636.0,-11.785,-11.29,-27.729,-9.6658
13646.0,-15.785,-14.29,-30.729,-10.666
13655.0,-21.785,-17.29,-30.729,-10.666
13665.0,-25.785,-19.29,-36.729,-11.666
13675.0,-32.785,-22.29,-36.729,-11.666
13685.0,-35.785,-26.29,-39.729,-10.666
13695.0,-42.785,-28.29,-39.729,-10.666
13705.0,-46.785,-30.29,-43.729,-12.666
13715.0,-55.785,-32.29,-43.729,-12.666
13725.0,-60.785,-36.29,-44.729,-12.666
13734.0,-65.785,-38.29,-44.729,-12.666
13744.0,-64.785,-39.29,-49.729,-12.666
13754.0,-59.785,-39.29,-49.729,-12.666
13764.0,-50.785,-35.29,-48.729,-11.666
13774.0,-45.785,-32.29,-46.729,-10.666
13784.0,-42.785,-33.29,-49.729,-10.666
13794.0,-41.785,-34.29,-53.729,-12.666
13804.0,-39.785,-35.29,-62.729,-17.666
13814.0,-41.785,-36.29,-58.729,-21.666
13823.0,-39.785,-38.29,-46.729,-16.666
13833.0,-40.785,-40.29,-34.729,-13.666
13843.0,-44.785,-46.29,-23.729,-10.666
13853.0,-48.785,-49.29,-10.729,-9.6658
13863.0,-49.785,-52.29,-0.72858,-5.6658
13873.0,-45.785,-53.29,9.2714,-2.6658
13883.0,-47.785,-55.29,18.271,1.3342
13893.0,-48.785,-60.29,25.271,3.3342
13903.0,-51.785,-61.29,31.271,5.3342
13912.0,-48.785,-60.29,37.271,5.3342
13922.0,-48.785,-60.29,40.271,7.3342
13932.0,-40.785,-57.29,42.271,8.3342
13942.0,-40.785,-57.29,41.271,8.3342
13952.0,-27.785,-52.29,43.271,8.3342
13962.0,-27.785,-52.29,48.271,9.3342
13972.0,-14.785,-48.29,47.271,10.334
13982.0,-14.785,-48.29,49.271,10.334
13992.0,-5.7851,-42.29,51.271,11.334
14001.0,-5.7851,-42.29,51.271,11.334
14011.0,-1.7851,-40.29,51.271,11.334
14021.0,-1.7851,-40.29,49.271,10.334
14031.0,-2.7851,-43.29,48.271,11.334
14041.0,-2.7851,-43.29,49.271,11.334
14051.0,-9.7851,-49.29,48.271,13.334
14061.0,-9.7851,-49.29,46.271,11.334
14071.0,-12.785,-50.29,43.271,11.334
14080.0,-15.785,-52.29,42.271,10.334
14090.0,-19.785,-54.29,39.271,9.3342
14100.0,-23.785,-57.29,36.271,9.3342
14110.0,-27.785,-57.29,34.271,8.3342
14120.0,-29.785,-59.29,33.271,7.3342
14130.0,-34.785,-61.29,35.271,9.3342
14140.0,-41.785,-63.29,32.271,9.3342
14150.0,-44.785,-67.29,33.271,8.3342
14160.0,-50.785,-70.29,31.271,10.334
14169.0,-56.785,-72.29,32.271,9.3342
14179.0,-62.785,-77.29,33.271,10.334
14189.0,-65.785,-79.29,31.271,10.334
14199.0,-70.785,-80.29,33.271,9.3342
14209.0,-74.785,-82.29,30.271,8.3342
14219.0,-81.785,-86.29,28.271,9.3342
14229.0,-86.785,-90.29,25.271,8.3342
14239.0,-89.785,-89.29,23.271,7.3342
14249.0,-91.785,-91.29,20.271,6.3342
14258.0,-94.785,-92.29,17.271,5.3342
14268.0,-98.785,-94.29,13.271,5.3342
14278.0,-102.79,-95.29,10.271,2.3342
14288.0,-103.79,-95.29,8.2714,4.3342
14298.0,-107.79,-95.29,6.2714,2.3342
14308.0,-105.79,-94.29,2.2714,2.3342
14318.0,-105.79,-94.29,-0.72858,1.3342
14328.0,-105.79,-92.29,-1.7286,1.3342
14338.0,-108.79,-93.29,-2.7286,0.33423
14347.0,-111.79,-94.29,-2.7286,1.3342
14357.0,-115.79,-94.29,-5.7286,1.3342
14367.0,-121.79,-98.29,-6.7286,1.3342
14377.0,-127.79,-101.29,-8.7286,2.3342
14387.0,-133.79,-104.29,-7.7286,1.3342
14397.0,-138.79,-106.29,-9.7286,1.3342
14407.0,-145.79,-109.29,-13.729,1.3342
14417.0,-152.79,-112.29,-15.729,0.33423
14426.0,-152.79,-112.29,-16.729,-1.6658
14436.0,-156.79,-114.29,-18.729,-0.66577
14446.0,-155.79,-115.29,-20.729,-1.6658
14456.0,-159.79,-114.29,-23.729,-2.6658
14466.0,-159.79,-115.29,-27.729,-2.6658
14476.0,-158.79,-111.29,-27.729,-2.6658
14486.0,-160.79,-114.29,-30.729,-2.6658
14496.0,-162.79,-114.29,-31.729,-2.6658
14506.0,-164.79,-116.29,-36.729,-4.6658
14515.0,-170.79,-117.29,-37.729,-2.6658
14525.0,-172.79,-120.29,-37.729,-4.6658
14535.0,-172.79,-119.29,-39.729,-5.6658
14545.0,-162.79,-116.29,-39.729,-5.6658
14555.0,-145.79,-108.29,-42.729,-5.6658
14565.0,-129.79,-98.29,-42.729,-5.6658
14575.0,-116.79,-92.29,-47.729,-7.6658
14585.0,-105.79,-87.29,-47.729,-7.6658
14595.0,-94.785,-82.29,-61.729,-14.666
14604.0,-85.785,-78.29,-61.729,-14.666
14614.0,-75.785,-72.29,-49.729,-14.666
14624.0,-65.785,-66.29,-49.729,-14.666
14634.0,-55.785,-59.29,-22.729,-8.6658
14644.0,-41.785,-54.29,-22.729,-8.6658
14654.0,-33.785,-50.29,-3.7286,-3.6658
14664.0,-20.785,-42.29,-3.7286,-3.6658
14674.0,-20.785,-42.29,12.271,1.3342
14684.0,1.2149,-31.29,12.271,1.3342
14693.0,1.2149,-31.29,26.271,5.3342
14703.0,26.215,-16.29,26.271,5.3342
14713.0,26.215,-16.29,34.271,6.3342
14723.0,51.215,-3.2898,34.271,6.3342
14733.0,51.215,-3.2898,37.271,7.3342
14743.0,67.215,4.7102,37.271,6.3342
14753.0,67.215,4.7102,37.271,6.3342
14763.0,74.215,12.71,37.271,5.3342
14772.0,74.215,12.71,40.271,6.3342
14782.0,79.215,15.71,39.271,7.3342
14792.0,79.215,15.71,38.271,6.3342
14802.0,83.215,20.71,37.271,8.3342
14812.0,87.215,22.71,35.271,6.3342
14822.0,91.215,25.71,32.271,5.3342
14832.0,100.21,29.71,27.271,3.3342
14842.0,105.21,35.71,26.271,3.3342
14852.0,109.21,37.71,22.271,1.3342
14861.0,106.21,36.71,22.271,1.3342
14871.0,100.21,33.71,21.271,2.3342
14881.0,94.215,28.71,22.271,1.3342
14891.0,87.215,22.71,23.271,3.3342
14901.0,76.215,17.71,22.271,2.3342
14911.0,67.215,12.71,23.271,2.3342
14921.0,59.215,8.7102,23.271,2.3342
14931.0,47.215,1.7102,21.271,2.3342
14941.0,40.215,-2.2898,20.271,2.3342
14950.0,31.215,-6.2898,20.271,0.33423
14960.0,25.215,-8.2898,19.271,1.3342
14970.0,17.215,-14.29,18.271,0.33423
14980.0,7.2149,-19.29,15.271,1.3342
14990.0,-5.7851,-26.29,13.271,1.3342
15000.0,-22.785,-36.29,13.271,2.3342
15010.0,-38.785,-46.29,14.271,2.3342
15020.0,-57.785,-56.29,9.2714,3.3342
15029.0,-77.785,-67.29,9.2714,4.3342
15039.0,-100.79,-79.29,9.2714,5.3342
15049.0,-123.79,-93.29,10.271,5.3342
15059.0,-142.79,-106.29,10.271,5.3342
15069.0,-164.79,-119.29,9.2714,5.3342
15079.0,-185.79,-129.29,8.2714,5.3342
15089.0,-203.79,-141.29,8.2714,5.3342
15099.0,-219.79,-150.29,6.2714,5.3342
15109.0,-234.79,-159.29,4.2714,5.3342
15118.0,-245.79,-167.29,1.2714,4.3342
15128.0,-257.79,-174.29,-0.72858,3.3342
15138.0,-268.79,-178.29,-3.7286,1.3342
15148.0,-275.79,-183.29,-6.7286,-0.66577
15158.0,-285.79,-186.29,-10.729,-1.6658
15168.0,-290.79,-188.29,-14.729,-2.6658
15178.0,-296.79,-192.29,-18.729,-3.6658
15188.0,-298.79,-195.29,-22.729,-4.6658
15198.0,-301.79,-195.29,-26.729,-5.6658
15207.0,-301.79,-195.29,-30.729,-6.6658
15217.0,-302.79,-194.29,-32.729,-7.6658
15227.0,-303.79,-192.29,-34.729,-8.6658
15237.0,-301.79,-193.29,-38.729,-9.6658
15247.0,-307.79,-195.29,-39.729,-10.666
15257.0,-309.79,-196.29,-43.729,-10.666
15267.0,-313.79,-197.29,-46.729,-11.666
15277.0,-316.79,-195.29,-48.729,-10.666
15287.0,-314.79,-195.29,-48.729,-11.666
15296.0,-317.79,-192.29,-50.729,-11.666
15306.0,-318.79,-192.29,-51.729,-12.666
15316.0,-320.79,-194.29,-52.729,-12.666
15326.0,-320.79,-193.29,-55.729,-13.666
15336.0,-318.79,-196.29,-57.729,-14.666
15346.0,-308.79,-189.29,-58.729,-14.666
15356.0,-298.79,-184.29,-60.729,-14.666
15366.0,-292.79,-181.29,-64.729,-15.666
15375.0,-284.79,-176.29,-67.729,-17.666
15385.0,-272.79,-170.29,-78.729,-22.666
15395.0,-261.79,-163.29,-74.729,-26.666
15405.0,-261.79,-163.29,-65.729,-25.666
15415.0,-234.79,-146.29,-53.729,-22.666
15425.0,-234.79,-146.29,-41.729,-20.666
15435.0,-201.79,-130.29,-30.729,-17.666
15445.0,-201.79,-130.29,-18.729,-15.666
15455.0,-174.79,-115.29,-11.729,-14.666
15464.0,-174.79,-115.29,-6.7286,-11.666
15474.0,-155.79,-105.29,-0.72858,-10.666
15484.0,-155.79,-105.29,4.2714,-8.6658
15494.0,-139.79,-96.29,4.2714,-8.6658
15504.0,-139.79,-96.29,10.271,-7.6658
15514.0,-129.79,-92.29,10.271,-7.6658
15524.0,-129.79,-92.29,10.271,-7.6658
15534.0,-126.79,-89.29,10.271,-7.6658
15544.0,-122.79,-87.29,13.271,-7.6658
15553.0,-122.79,-86.29,13.271,-7.6658
15563.0,-118.79,-88.29,14.271,-6.6658
15573.0,-119.79,-84.29,14.271,-6.6658
15583.0,-116.79,-84.29,11.271,-6.6658
15593.0,-112.79,-81.29,11.271,-6.6658
15603.0,-111.79,-82.29,5.2714,-8.6658
15613.0,-110.79,-80.29,5.2714,-8.6658
15623.0,-108.79,-80.29,4.2714,-10.666
15633.0,-105.79,-80.29,4.2714,-10.666
15642.0,-103.79,-79.29,3.2714,-9.6658
15652.0,-102.79,-78.29,3.2714,-9.6658
15662.0,-99.785,-75.29,5.2714,-8.6658
15672.0,-98.785,-75.29,5.2714,-8.6658
15682.0,-98.785,-75.29,4.2714,-8.6658
15692.0,-95.785,-74.29,5.2714,-8.6658
15702.0,-92.785,-71.29,4.2714,-8.6658
15712.0,-91.785,-70.29,4.2714,-8.6658
15721.0,-91.785,-70.29,6.2714,-6.6658
15731.0,-90.785,-68.29,3.2714,-7.6658
15741.0,-91.785,-68.29,2.2714,-7.6658
15751.0,-93.785,-70.29,3.2714,-7.6658
15761.0,-97.785,-71.29,1.2714,-8.6658
15771.0,-99.785,-72.29,-0.72858,-7.6658
15781.0,-106.79,-74.29,-0.72858,-8.6658
15791.0,-115.79,-78.29,0.27142,-6.6658
15801.0,-144.79,-96.29,-0.72858,-6.6658
15810.0,-194.79,-148.29,-0.72858,-6.6658
15820.0,-201.79,-154.29,-2.7286,-6.6658
15830.0,-208.79,-158.29,-5.7286,-6.6658
15840.0,-212.79,-161.29,-3.7286,-5.6658
15850.0,-219.79,-164.29,-3.7286,-5.6658
15860.0,-227.79,-165.29,-6.7286,-7.6658
15870.0,-236.79,-172.29,-8.7286,-7.6658
15880.0,-245.79,-176.29,-8.7286,-6.6658
15890.0,-252.79,-180.29,-8.7286,-5.6658
15899.0,-259.79,-185.29,-10.729,-5.6658
15909.0,-270.79,-194.29,-11.729,-4.6658
15919.0,-277.79,-201.29,-11.729,-6.6658
15929.0,-274.79,-201.29,-12.729,-4.6658
15939.0,-263.79,-199.29,-13.729,-4.6658
15949.0,-252.79,-194.29,-15.729,-4.6658
15959.0,-240.79,-187.29,-18.729,-4.6658
15969.0,-229.79,-185.29,-21.729,-5.6658
15979.0,-222.79,-181.29,-23.729,-5.6658
15988.0,-218.79,-183.29,-22.729,-5.6658
15998.0,-219.79,-185.29,-25.729,-5.6658
16008.0,-224.79,-190.29,-23.729,-4.6658
16018.0,-226.79,-191.29,-24.729,-4.6658
16028.0,-232.79,-196.29,-27.729,-4.6658
16038.0,-237.79,-201.29,-30.729,-5.6658
16048.0,-245.79,-204.29,-31.729,-5.6658
16058.0,-253.79,-209.29,-32.729,-5.6658
16067.0,-262.79,-211.29,-35.729,-5.6658
16077.0,-268.79,-213.29,-36.729,-6.6658
16087.0,-275.79,-214.29,-39.729,-6.6658
16097.0,-286.79,-218.29,-43.729,-7.6658
16107.0,-301.79,-227.29,-47.729,-9.6658
16117.0,-301.79,-227.29,-50.729,-10.666
16127.0,-328.79,-238.29,-51.729,-11.666
16137.0,-328.79,-238.29,-54.729,-12.666
16147.0,-356.79,-257.29,-60.729,-13.666
16156.0,-356.79,-257.29,-68.729,-20.666
16166.0,-404.79,-286.29,-65.729,-23.666
16176.0,-404.79,-286.29,-54.729,-21.666
16186.0,-462.79,-324.29,-40.729,-17.666
16196.0,-462.79,-324.29,-24.729,-13.666
16206.0,-525.79,-367.29,-10.729,-9.6658
16216.0,-525.79,-367.29,0.27142,-6.6658
16226.0,-580.79,-407.29,10.271,-2.6658
16236.0,-580.79,-407.29,18.271,0.33423
16245.0,-623.79,-438.29,25.271,2.3342
16255.0,-623.79,-438.29,31.271,5.3342
16265.0,-639.79,-451.29,33.271,8.3342
16275.0,-653.79,-462.29,35.271,7.3342
16285.0,-661.79,-470.29,34.271,9.3342
16295.0,-664.79,-472.29,36.271,8.3342
16305.0,-663.79,-472.29,36.271,8.3342
16315.0,-653.79,-469.29,35.271,9.3342
16325.0,-669.79,-477.29,37.271,10.334
16334.0,-661.79,-477.29,42.271,12.334
16344.0,-650.79,-472.29,42.271,14.334
16354.0,-671.79,-481.29,44.271,15.334
16364.0,-643.79,-466.29,44.271,17.334
16374.0,-626.79,-453.29,42.271,17.334
16384.0,-621.79,-453.29,45.271,18.334
16394.0,-600.79,-441.29,46.271,18.334
16404.0,-581.79,-429.29,48.271,20.334
16413.0,-559.79,-415.29,50.271,22.334
16423.0,-534.79,-399.29,54.271,23.334
16433.0,-509.79,-385.29,56.271,25.334
16443.0,-486.79,-371.29,56.271,25.334
16453.0,-467.79,-355.29,55.271,26.334
16463.0,-446.79,-341.29,50.271,26.334
16473.0,-425.79,-325.29,48.271,24.334
16483.0,-405.79,-310.29,44.271,23.334
16493.0,-386.79,-295.29,42.271,22.334
16502.0,-368.79,-283.29,42.271,23.334
16512.0,-354.79,-273.29,38.271,22.334
16522.0,-349.79,-269.29,38.271,22.334
16532.0,-342.79,-263.29,36.271,21.334
16542.0,-350.79,-268.29,36.271,21.334
16552.0,-354.79,-272.29,36.271,22.334
16562.0,-363.79,-277.29,36.271,22.334
16572.0,-378.79,-286.29,40.271,25.334
16582.0,-384.79,-293.29,40.271,25.334
16591.0,-395.79,-298.29,38.271,23.334
16601.0,-408.79,-302.29,38.271,23.334
16611.0,-415.79,-305.29,34.271,24.334
16621.0,-419.79,-305.29,34.271,24.334
16631.0,-419.79,-305.29,32.271,23.334
16641.0,-411.79,-298.29,32.271,23.334
16651.0,-399.79,-288.29,28.271,23.334
16661.0,-386.79,-279.29,28.271,23.334
16671.0,-378.79,-273.29,24.271,22.334
16680.0,-373.79,-267.29,24.271,22.334
16690.0,-367.79,-262.29,22.271,21.334
16700.0,-344.79,-243.29,22.271,21.334
16710.0,-328.79,-234.29,17.271,19.334
16720.0,-331.79,-235.29,14.271,19.334
16730.0,-321.79,-226.29,13.271,18.334
16740.0,-313.79,-218.29,11.271,17.334
16750.0,-303.79,-212.29,7.2714,16.334
16759.0,-290.79,-203.29,3.2714,13.334
16769.0,-280.79,-195.29,2.2714,15.334
16779.0,-271.79,-187.29,1.2714,14.334
16789.0,-264.79,-182.29,2.2714,14.334
16799.0,-257.79,-176.29,0.27142,15.334
16809.0,-252.79,-172.29,1.2714,15.334
16819.0,-240.79,-166.29,-0.72858,14.334
16829.0,-234.79,-162.29,-3.7286,13.334
16839.0,-225.79,-156.29,-7.7286,14.334
16848.0,-225.79,-156.29,-10.729,11.334
16858.0,-199.79,-142.29,-14.729,11.334
16868.0,-199.79,-142.29,-18.729,10.334
16878.0,-180.79,-135.29,-26.729,5.3342
16888.0,-180.79,-135.29,-32.729,1.3342
16898.0,-170.79,-130.29,-24.729,1.3342
16908.0,-170.79,-130.29,-11.729,3.3342
16918.0,-158.79,-125.29,2.2714,7.3342
16928.0,-158.79,-125.29,16.271,11.334
16937.0,-147.79,-122.29,29.271,14.334
16947.0,-147.79,-122.29,42.271,18.334
16957.0,-140.79,-116.29,51.271,23.334
16967.0,-140.79,-116.29,58.271,25.334
16977.0,-127.79,-107.29,65.271,26.334
16987.0,-127.79,-107.29,68.271,27.334
16997.0,-120.79,-103.29,71.271,29.334
17007.0,-111.79,-98.29,72.271,27.334
17017.0,-105.79,-94.29,73.271,29.334
17026.0,-103.79,-92.29,77.271,30.334
17036.0,-99.785,-89.29,79.271,31.334
17046.0,-95.785,-84.29,78.271,30.334
17056.0,-94.785,-84.29,78.271,32.334
17066.0,-96.785,-83.29,78.271,34.334
17076.0,-97.785,-83.29,79.271,35.334
17086.0,-93.785,-82.29,78.271,35.334
17096.0,-95.785,-80.29,77.271,36.334
17105.0,-94.785,-79.29,77.271,36.334
17115.0,-92.785,-77.29,78.271,36.334
17125.0,-92.785,-77.29,78.271,38.334
17135.0,-91.785,-76.29,84.271,41.334
17145.0,-92.785,-76.29,86.271,41.334
17155.0,-91.785,-77.29,90.271,43.334
17165.0,-92.785,-76.29,93.271,45.334
17175.0,-93.785,-77.29,93.271,47.334
17185.0,-97.785,-79.29,93.271,48.334
17194.0,-97.785,-78.29,94.271,48.334
17204.0,-97.785,-77.29,90.271,47.334
17214.0,-97.785,-77.29,89.271,47.334
17224.0,-97.785,-77.29,86.271,47.334
17234.0,-100.79,-77.29,88.271,47.334
17244.0,-100.79,-77.29,85.271,45.334
17254.0,-104.79,-76.29,83.271,47.334
17264.0,-105.79,-78.29,85.271,48.334
17274.0,-107.79,-80.29,83.271,49.334
17283.0,-108.79,-78.29,84.271,48.334
17293.0,-111.79,-81.29,82.271,47.334
17303.0,-115.79,-80.29,78.271,47.334
17313.0,-114.79,-79.29,77.271,46.334
17323.0,-116.79,-78.29,74.271,45.334
17333.0,-116.79,-79.29,72.271,45.334
17343.0,-123.79,-83.29,72.271,43.334
17353.0,-126.79,-82.29,66.271,42.334
17363.0,-130.79,-84.29,66.271,42.334
17372.0,-133.79,-86.29,63.271,44.334
17382.0,-136.79,-86.29,64.271,44.334
17392.0,-138.79,-88.29,61.271,42.334
17402.0,-143.79,-90.29,60.271,43.334
17412.0,-146.79,-89.29,60.271,43.334
17422.0,-150.79,-91.29,58.271,44.334
17432.0,-153.79,-91.29,56.271,43.334
17442.0,-156.79,-92.29,53.271,43.334
17451.0,-158.79,-94.29,52.271,43.334
17461.0,-164.79,-97.29,50.271,42.334
17471.0,-168.79,-97.29,47.271,42.334
17481.0,-172.79,-99.29,44.271,43.334
17491.0,-176.79,-100.29,44.271,43.334
17501.0,-180.79,-101.29,44.271,42.334
17511.0,-185.79,-103.29,44.271,42.334
17521.0,-192.79,-106.29,40.271,43.334
17531.0,-190.79,-104.29,40.271,43.334
17540.0,-179.79,-99.29,39.271,41.334
17550.0,-173.79,-94.29,39.271,41.334
17560.0,-168.79,-90.29,36.271,42.334
17570.0,-166.79,-89.29,36.271,42.334
17580.0,-166.79,-89.29,20.271,33.334
17590.0,-158.79,-82.29,20.271,33.334
17600.0,-158.79,-82.29,39.271,36.334
17610.0,-148.79,-80.29,39.271,36.334
17620.0,-148.79,-80.29,64.271,43.334
17629.0,-144.79,-79.29,64.271,43.334
17639.0,-144.79,-79.29,87.271,48.334
17649.0,-140.79,-77.29,87.271,48.334
17659.0,-140.79,-77.29,105.27,56.334
17669.0,-133.79,-74.29,105.27,56.334
17679.0,-133.79,-74.29,111.27,59.334
17689.0,-124.79,-68.29,116.27,61.334
17699.0,-124.79,-68.29,120.27,61.334
17709.0,-109.79,-59.29,126.27,63.334
17718.0,-109.79,-59.29,132.27,66.334
17728.0,-106.79,-56.29,135.27,68.334
17738.0,-106.79,-54.29,134.27,67.334
17748.0,-102.79,-51.29,135.27,68.334
17758.0,-100.79,-50.29,136.27,70.334
17768.0,-94.785,-45.29,136.27,72.334
17778.0,-92.785,-43.29,136.27,73.334
17788.0,-85.785,-38.29,133.27,72.334
17797.0,-83.785,-34.29,130.27,73.334
17807.0,-78.785,-31.29,126.27,72.334
17817.0,-72.785,-27.29,125.27,72.334
17827.0,-70.785,-23.29,125.27,73.334
17837.0,-66.785,-20.29,129.27,74.334
17847.0,-63.785,-18.29,133.27,76.334
17857.0,-63.785,-16.29,133.27,78.334
17867.0,-63.785,-16.29,136.27,78.334
17877.0,-62.785,-15.29,138.27,79.334
17886.0,-62.785,-15.29,136.27,78.334
17896.0,-63.785,-14.29,137.27,78.334
17906.0,-61.785,-14.29,135.27,78.334
17916.0,-60.785,-12.29,134.27,78.334
17926.0,-60.785,-12.29,135.27,78.334
17936.0,-63.785,-11.29,133.27,77.334
17946.0,-63.785,-13.29,130.27,78.334
17956.0,-62.785,-12.29,129.27,78.334
17966.0,-63.785,-11.29,129.27,77.334
17975.0,-62.785,-9.2898,126.27,78.334
17985.0,-64.785,-8.2898,126.27,78.334
17995.0,-61.785,-7.2898,123.27,77.334
18005.0,-64.785,-8.2898,122.27,77.334
18015.0,-64.785,-6.2898,122.27,77.334
18025.0,-65.785,-7.2898,121.27,78.334
18035.0,-67.785,-9.2898,120.27,78.334
18045.0,-68.785,-8.2898,118.27,78.334
18055.0,-69.785,-7.2898,118.27,77.334
18064.0,-73.785,-9.2898,113.27,77.334
18074.0,-72.785,-9.2898,113.27,76.334
18084.0,-76.785,-9.2898,110.27,76.334
18094.0,-78.785,-10.29,110.27,75.334
18104.0,-81.785,-10.29,107.27,76.334
18114.0,-82.785,-10.29,105.27,76.334
18124.0,-85.785,-9.2898,104.27,75.334
18134.0,-88.785,-12.29,100.27,74.334
18143.0,-90.785,-15.29,99.271,74.334
18153.0,-95.785,-15.29,94.271,73.334
18163.0,-96.785,-16.29,94.271,70.334
18173.0,-100.79,-18.29,91.271,70.334
18183.0,-105.79,-20.29,88.271,70.334
18193.0,-108.79,-22.29,89.271,70.334
18203.0,-105.79,-25.29,87.271,70.334
18213.0,-99.785,-18.29,87.271,69.334
18223.0,-98.785,-20.29,86.271,71.334
18232.0,-97.785,-17.29,81.271,69.334
18242.0,-94.785,-19.29,74.271,66.334
18252.0,-90.785,-17.29,62.271,59.334
18262.0,-88.785,-15.29,65.271,57.334
18272.0,-84.785,-13.29,75.271,58.334
18282.0,-77.785,-11.29,82.271,60.334
18292.0,-77.785,-11.29,93.271,62.334
18302.0,-75.785,-13.29,102.27,64.334
18312.0,-72.785,-12.29,110.27,65.334
18321.0,-67.785,-13.29,118.27,68.334
18331.0,-67.785,-13.29,128.27,71.334
18341.0,-64.785,-13.29,139.27,75.334
18351.0,-64.785,-13.29,147.27,79.334
18361.0,-60.785,-13.29,154.27,82.334
18371.0,-60.785,-13.29,161.27,83.334
18381.0,-58.785,-13.29,161.27,82.334
18391.0,-58.785,-13.29,164.27,84.334
18401.0,-57.785,-12.29,163.27,85.334
18410.0,-57.785,-12.29,163.27,83.334
18420.0,-52.785,-11.29,162.27,84.334
18430.0,-52.785,-11.29,163.27,84.334
18440.0,-47.785,-9.2898,163.27,84.334
18450.0,-47.785,-9.2898,161.27,84.334
18460.0,-46.785,-6.2898,161.27,84.334
18470.0,-43.785,-6.2898,154.27,83.334
18480.0,-42.785,-4.2898,154.27,83.334
18489.0,-35.785,-4.2898,150.27,82.334
18499.0,-32.785,0.71019,150.27,82.334
18509.0,-27.785,3.7102,150.27,82.334
18519.0,-24.785,5.7102,150.27,82.334
18529.0,-20.785,5.7102,148.27,82.334
18539.0,-17.785,8.7102,148.27,82.334
18549.0,-14.785,8.7102,144.27,80.334
18559.0,-13.785,11.71,144.27,80.334
18569.0,-15.785,9.7102,143.27,80.334
18578.0,-13.785,12.71,143.27,80.334
18588.0,-11.785,14.71,137.27,78.334
18598.0,-11.785,13.71,137.27,78.334
18608.0,-8.7851,16.71,135.27,78.334
18618.0,-8.7851,17.71,135.27,78.334
18628.0,-8.7851,17.71,131.27,75.334
18638.0,-7.7851,17.71,131.27,75.334
18648.0,-5.7851,21.71,129.27,75.334
18658.0,-8.7851,20.71,128.27,73.334
18667.0,-8.7851,20.71,127.27,75.334
18677.0,-8.7851,22.71,125.27,74.334
18687.0,-7.7851,22.71,122.27,73.334
18697.0,-7.7851,22.71,121.27,74.334
18707.0,-8.7851,23.71,120.27,74.334
18717.0,-10.785,25.71,117.27,72.334
18727.0,-13.785,24.71,115.27,72.334
18737.0,-14.785,24.71,112.27,71.334
18747.0,-14.785,24.71,110.27,70.334
18756.0,-16.785,22.71,109.27,70.334
18766.0,-17.785,23.71,105.27,71.334
18776.0,-16.785,25.71,104.27,71.334
18786.0,-21.785,23.71,106.27,71.334
18796.0,-20.785,23.71,104.27,69.334
18806.0,-28.785,21.71,101.27,71.334
18816.0,-30.785,22.71,101.27,71.334
18826.0,-32.785,20.71,101.27,70.334
18835.0,-37.785,19.71,97.271,69.334
18845.0,-41.785,16.71,96.271,69.334
18855.0,-42.785,14.71,93.271,68.334
18865.0,-43.785,13.71,91.271,66.334
18875.0,-33.785,18.71,89.271,68.334
18885.0,-29.785,20.71,91.271,69.334
18895.0,-25.785,21.71,87.271,67.334
18905.0,-20.785,24.71,83.271,65.334
18915.0,-13.785,27.71,72.271,60.334
18924.0,-6.7851,30.71,76.271,58.334
18934.0,0.21494,34.71,88.271,61.334
18944.0,5.2149,35.71,100.27,62.334
18954.0,10.215,36.71,112.27,66.334
18964.0,14.215,34.71,124.27,69.334
18974.0,19.215,36.71,135.27,73.334
18984.0,25.215,38.71,146.27,76.334
18994.0,29.215,40.71,154.27,78.334
19004.0,33.215,40.71,164.27,81.334
19013.0,37.215,40.71,169.27,84.334
19023.0,37.215,42.71,176.27,85.334
19033.0,42.215,42.71,176.27,84.334
19043.0,46.215,43.71,177.27,84.334
19053.0,47.215,44.71,177.27,85.334
19063.0,47.215,44.71,180.27,84.334
19073.0,54.215,47.71,180.27,84.334
19083.0,54.215,47.71,182.27,86.334
19093.0,57.215,46.71,183.27,85.334
19102.0,57.215,46.71,185.27,86.334
19112.0,60.215,51.71,185.27,85.334
19122.0,60.215,51.71,181.27,86.334
19132.0,64.215,51.71,179.27,86.334
19142.0,64.215,51.71,176.27,85.334
19152.0,67.215,54.71,174.27,84.334
19162.0,67.215,54.71,175.27,86.334
19172.0,66.215,54.71,174.27,85.334
19181.0,66.215,54.71,174.27,85.334
19191.0,64.215,53.71,173.27,85.334
19201.0,64.215,53.71,174.27,86.334
19211.0,66.215,52.71,174.27,85.334
19221.0,64.215,52.71,172.27,85.334
19231.0,62.215,52.71,172.27,86.334
19241.0,62.215,51.71,169.27,85.334
19251.0,62.215,53.71,166.27,84.334
19261.0,60.215,52.71,166.27,84.334
19270.0,58.215,53.71,161.27,82.334
19280.0,57.215,52.71,160.27,82.334
19290.0,53.215,52.71,158.27,80.334
19300.0,54.215,51.71,157.27,79.334
19310.0,48.215,48.71,158.27,80.334
19320.0,44.215,49.71,155.27,82.334
19330.0,40.215,47.71,154.27,81.334
19340.0,37.215,43.71,153.27,81.334
19350.0,30.215,40.71,148.27,81.334
19359.0,24.215,37.71,146.27,81.334
19369.0,21.215,34.71,145.27,78.334
19379.0,17.215,33.71,141.27,78.334
19389.0,15.215,32.71,139.27,79.334
19399.0,11.215,31.71,139.27,77.334
19409.0,10.215,32.71,135.27,76.334
19419.0,7.2149,29.71,134.27,75.334
19429.0,3.2149,30.71,130.27,75.334
19439.0,-1.7851,26.71,129.27,75.334
19448.0,-2.7851,26.71,124.27,74.334
19458.0,-7.7851,27.71,120.27,74.334
19468.0,-10.785,25.71,120.27,74.334
19478.0,-13.785,23.71,116.27,70.334
19488.0,-19.785,22.71,116.27,70.334
19498.0,-22.785,19.71,111.27,70.334
19508.0,-26.785,18.71,111.27,70.334
19518.0,-33.785,11.71,107.27,70.334
19527.0,-32.785,9.7102,107.27,70.334
19537.0,-27.785,13.71,107.27,70.334
19547.0,-24.785,15.71,107.27,70.334
19557.0,-19.785,14.71,94.271,65.334
19567.0,-15.785,17.71,94.271,65.334
19577.0,-9.7851,17.71,88.271,58.334
19587.0,-3.7851,19.71,88.271,58.334
19597.0,4.2149,21.71,107.27,59.334
19607.0,7.2149,20.71,107.27,59.334
19616.0,15.215,22.71,127.27,62.334
19626.0,19.215,21.71,127.27,62.334
19636.0,22.215,21.71,146.27,67.334
19646.0,26.215,20.71,146.27,67.334
19656.0,29.215,20.71,162.27,71.334
19666.0,32.215,20.71,162.27,71.334
19676.0,34.215,21.71,168.27,73.334
19686.0,35.215,21.71,170.27,73.334
19696.0,38.215,21.71,173.27,74.334
19705.0,41.215,22.71,173.27,73.334
19715.0,44.215,23.71,173.27,72.334
19725.0,45.215,23.71,173.27,72.334
19735.0,43.215,23.71,175.27,73.334
19745.0,40.215,20.71,175.27,73.334
19755.0,41.215,20.71,176.27,72.334
19765.0,39.215,19.71,173.27,72.334
19775.0,39.215,20.71,172.27,72.334
19785.0,38.215,20.71,169.27,72.334
19794.0,38.215,20.71,168.27,71.334
19804.0,37.215,17.71,163.27,69.334
19814.0,37.215,17.71,163.27,68.334
19824.0,36.215,16.71,160.27,69.334
19834.0,36.215,16.71,157.27,67.334
19844.0,32.215,12.71,157.27,69.334
19854.0,32.215,12.71,156.27,69.334
19864.0,30.215,12.71,156.27,67.334
19873.0,30.215,12.71,156.27,68.334
19883.0,23.215,10.71,153.27,67.334
19893.0,23.215,10.71,150.27,66.334
19903.0,20.215,8.7102,149.27,65.334
19913.0,20.215,8.7102,143.27,64.334
19923.0,14.215,5.7102,143.27,63.334
19933.0,14.215,5.7102,138.27,61.334
19943.0,12.215,5.7102,137.27,62.334
19953.0,8.2149,3.7102,134.27,60.334
19962.0,6.2149,0.71019,132.27,58.334
19972.0,2.2149,-1.2898,130.27,59.334
19982.0,0.21494,-3.2898,128.27,59.334
19992.0,-2.7851,-4.2898,128.27,59.334
20002.0,-4.7851,-4.2898,123.27,58.334
20012.0,-7.7851,-6.2898,123.27,57.334
20022.0,-8.7851,-5.2898,120.27,58.334
20032.0,-11.785,-7.2898,117.27,57.334
20042.0,-14.785,-7.2898,116.27,56.334
20051.0,-16.785,-9.2898,113.27,57.334
20061.0,-17.785,-9.2898,110.27,56.334
20071.0,-21.785,-11.29,110.27,56.334
20081.0,-26.785,-11.29,106.27,55.334
20091.0,-30.785,-14.29,104.27,54.334
20101.0,-33.785,-15.29,100.27,53.334
20111.0,-37.785,-18.29,98.271,52.334
20121.0,-41.785,-19.29,94.271,51.334
20130.0,-47.785,-21.29,89.271,51.334
20140.0,-52.785,-22.29,87.271,49.334
20150.0,-56.785,-25.29,86.271,49.334
20160.0,-61.785,-28.29,84.271,50.334
20170.0,-66.785,-30.29,84.271,50.334
20180.0,-66.785,-32.29,83.271,50.334
20190.0,-66.785,-32.29,83.271,50.334
20200.0,-57.785,-28.29,82.271,51.334
20210.0,-53.785,-23.29,80.271,50.334
20219.0,-45.785,-22.29,75.271,49.334
20229.0,-41.785,-21.29,66.271,43.334
20239.0,-37.785,-20.29,60.271,39.334
20249.0,-33.785,-21.29,67.271,38.334
20259.0,-28.785,-17.29,77.271,41.334
20269.0,-21.785,-17.29,89.271,42.334
20279.0,-17.785,-16.29,99.271,45.334
20289.0,-14.785,-16.29,108.27,46.334
20299.0,-9.7851,-14.29,119.27,50.334
20308.0,-3.7851,-11.29,125.27,52.334
20318.0,-0.78506,-10.29,133.27,54.334
20328.0,0.21494,-9.2898,140.27,55.334
20338.0,3.2149,-9.2898,145.27,57.334
20348.0,5.2149,-9.2898,147.27,57.334
20358.0,7.2149,-8.2898,151.27,59.334
20368.0,10.215,-8.2898,152.27,59.334
20378.0,10.215,-8.2898,152.27,57.334
20388.0,10.215,-7.2898,154.27,60.334
20397.0,11.215,-6.2898,154.27,59.334
20407.0,14.215,-5.2898,151.27,58.334
20417.0,16.215,-5.2898,151.27,59.334
20427.0,15.215,-3.2898,151.27,59.334
20437.0,14.215,-3.2898,151.27,59.334
20447.0,16.215,-1.2898,142.27,57.334
20457.0,18.215,-0.28981,142.27,57.334
20467.0,17.215,-0.28981,134.27,54.334
20476.0,17.215,-0.28981,134.27,54.334
20486.0,15.215,0.71019,131.27,54.334
20496.0,17.215,0.71019,131.27,54.334
20506.0,14.215,0.71019,130.27,54.334
20516.0,14.215,-0.28981,130.27,54.334
20526.0,14.215,-0.28981,126.27,54.334
20536.0,15.215,1.7102,126.27,54.334
20546.0,15.215,1.7102,120.27,51.334
20556.0,13.215,2.7102,120.27,51.334
20565.0,13.215,2.7102,121.27,51.334
20575.0,11.215,3.7102,121.27,51.334
20585.0,11.215,3.7102,117.27,50.334
20595.0,14.215,7.7102,117.27,50.334
20605.0,14.215,7.7102,111.27,49.334
20615.0,23.215,12.71,111.27,49.334
20625.0,23.215,12.71,104.27,47.334
20635.0,28.215,18.71,104.27,47.334
20645.0,28.215,18.71,103.27,48.334
20654.0,33.215,23.71,100.27,46.334
20664.0,33.215,23.71,96.271,45.334
20674.0,34.215,23.71,95.271,44.334
20684.0,35.215,25.71,90.271,45.334
20694.0,36.215,26.71,88.271,44.334
20704.0,35.215,29.71,84.271,43.334
20714.0,36.215,29.71,81.271,42.334
20724.0,37.215,30.71,81.271,41.334
20734.0,33.215,29.71,78.271,41.334
20743.0,32.215,31.71,76.271,40.334
20753.0,31.215,31.71,72.271,39.334
20763.0,29.215,31.71,70.271,38.334
20773.0,27.215,31.71,66.271,39.334
20783.0,25.215,31.71,62.271,37.334
20793.0,23.215,30.71,60.271,37.334
20803.0,21.215,32.71,58.271,35.334
20813.0,20.215,32.71,56.271,35.334
20822.0,16.215,30.71,53.271,35.334
20832.0,16.215,31.71,50.271,32.334
20842.0,11.215,31.71,46.271,33.334
20852.0,6.2149,30.71,42.271,31.334
20862.0,7.2149,27.71,38.271,28.334
20872.0,3.2149,26.71,34.271,28.334
20882.0,-1.7851,25.71,31.271,26.334
20892.0,-7.7851,22.71,28.271,26.334
20902.0,-11.785,19.71,26.271,24.334
20911.0,-8.7851,19.71,22.271,24.334
20921.0,-4.7851,22.71,24.271,25.334
20931.0,3.2149,29.71,25.271,26.334
20941.0,8.2149,35.71,25.271,24.334
20951.0,15.215,35.71,17.271,24.334
20961.0,18.215,36.71,4.2714,17.334
20971.0,19.215,38.71,6.2714,13.334
20981.0,20.215,38.71,14.271,15.334
20991.0,24.215,39.71,25.271,17.334
21000.0,25.215,38.71,39.271,21.334
21010.0,27.215,36.71,50.271,22.334
21020.0,28.215,34.71,58.271,25.334
21030.0,30.215,33.71,64.271,26.334
21040.0,32.215,35.71,73.271,29.334
21050.0,30.215,34.71,80.271,32.334
21060.0,28.215,32.71,85.271,33.334
21070.0,26.215,32.71,91.271,34.334
21080.0,27.215,33.71,94.271,36.334
21089.0,29.215,32.71,98.271,37.334
21099.0,26.215,31.71,100.27,38.334
21109.0,27.215,30.71,101.27,38.334
21119.0,24.215,28.71,102.27,40.334
21129.0,25.215,28.71,103.27,39.334
21139.0,25.215,26.71,100.27,39.334
21149.0,25.215,25.71,95.271,39.334
21159.0,24.215,24.71,95.271,38.334
21168.0,23.215,24.71,91.271,37.334
21178.0,24.215,23.71,85.271,35.334
21188.0,22.215,21.71,82.271,33.334
21198.0,21.215,22.71,79.271,33.334
21208.0,21.215,22.71,79.271,34.334
21218.0,21.215,23.71,79.271,33.334
21228.0,20.215,21.71,79.271,35.334
21238.0,19.215,21.71,79.271,32.334
21248.0,16.215,19.71,76.271,32.334
21257.0,16.215,19.71,75.271,33.334
21267.0,9.2149,15.71,75.271,33.334
21277.0,9.2149,15.71,75.271,34.334
21287.0,-0.78506,9.7102,74.271,34.334
21297.0,-0.78506,9.7102,71.271,34.334
21307.0,-6.7851,6.7102,70.271,34.334
21317.0,-6.7851,6.7102,69.271,33.334
21327.0,-13.785,4.7102,68.271,33.334
21337.0,-13.785,4.7102,68.271,32.334
21346.0,-23.785,0.71019,64.271,32.334
21356.0,-23.785,0.71019,64.271,33.334
21366.0,-28.785,-3.2898,63.271,33.334
21376.0,-28.785,-3.2898,61.271,32.334
21386.0,-38.785,-7.2898,58.271,32.334
21396.0,-38.785,-7.2898,57.271,32.334
21406.0,-41.785,-10.29,57.271,32.334
21416.0,-46.785,-11.29,50.271,33.334
21426.0,-51.785,-12.29,50.271,33.334
21435.0,-53.785,-12.29,47.271,31.334
21445.0,-57.785,-15.29,47.271,31.334
21455.0,-62.785,-17.29,45.271,31.334
21465.0,-63.785,-17.29,45.271,31.334
21475.0,-70.785,-18.29,41.271,32.334
21485.0,-71.785,-18.29,41.271,32.334
21495.0,-77.785,-21.29,38.271,32.334
21505.0,-82.785,-23.29,38.271,32.334
21514.0,-86.785,-24.29,35.271,32.334
21524.0,-89.785,-26.29,35.271,32.334
21534.0,-94.785,-27.29,30.271,29.334
21544.0,-100.79,-29.29,30.271,29.334
21554.0,-103.79,-31.29,27.271,29.334
21564.0,-109.79,-33.29,27.271,29.334
21574.0,-112.79,-33.29,22.271,28.334
21584.0,-115.79,-35.29,22.271,28.334
21594.0,-119.79,-38.29,22.271,29.334
21603.0,-122.79,-40.29,19.271,30.334
21613.0,-127.79,-41.29,19.271,30.334
21623.0,-133.79,-41.29,17.271,28.334
21633.0,-136.79,-43.29,17.271,32.334
21643.0,-141.79,-44.29,16.271,31.334
21653.0,-144.79,-45.29,15.271,31.334
21663.0,-145.79,-48.29,14.271,30.334
21673.0,-136.79,-45.29,12.271,32.334
21683.0,-136.79,-44.29,12.271,32.334
21692.0,-136.79,-44.29,11.271,32.334
21702.0,-134.79,-42.29,7.2714,30.334
21712.0,-128.79,-39.29,-0.72858,28.334
21722.0,-127.79,-35.29,-3.7286,23.334
21732.0,-119.79,-32.29,7.2714,25.334
21742.0,-118.79,-32.29,19.271,28.334
21752.0,-119.79,-34.29,35.271,32.334
21762.0,-114.79,-35.29,49.271,35.334
21772.0,-114.79,-36.29,57.271,39.334
21781.0,-112.79,-36.29,66.271,41.334
21791.0,-110.79,-36.29,75.271,44.334
21801.0,-106.79,-35.29,84.271,48.334
21811.0,-106.79,-34.29,91.271,50.334
21821.0,-102.79,-32.29,95.271,54.334
21831.0,-103.79,-32.29,104.27,55.334
21841.0,-100.79,-30.29,107.27,58.334
21851.0,-100.79,-30.29,107.27,59.334
21860.0,-102.79,-33.29,110.27,59.334
21870.0,-100.79,-30.29,111.27,59.334
21880.0,-98.785,-27.29,111.27,61.334
21890.0,-96.785,-27.29,112.27,63.334
21900.0,-97.785,-26.29,110.27,62.334
21910.0,-93.785,-26.29,107.27,63.334
21920.0,-90.785,-25.29,102.27,62.334
21930.0,-92.785,-23.29,99.271,61.334
21940.0,-90.785,-21.29,96.271,60.334
21949.0,-87.785,-21.29,96.271,61.334
21959.0,-88.785,-19.29,96.271,62.334
21969.0,-86.785,-19.29,100.27,64.334
21979.0,-86.785,-18.29,98.271,64.334
21989.0,-86.785,-18.29,99.271,66.334
21999.0,-87.785,-19.29,102.27,66.334
22009.0,-87.785,-19.29,101.27,67.334
22019.0,-85.785,-18.29,100.27,68.334
22029.0,-85.785,-18.29,103.27,67.334
22038.0,-87.785,-17.29,101.27,68.334
22048.0,-87.785,-17.29,100.27,67.334
22058.0,-88.785,-14.29,98.271,66.334
22068.0,-88.785,-14.29,96.271,67.334
22078.0,-88.785,-15.29,94.271,67.334
22088.0,-88.785,-15.29,92.271,66.334
22098.0,-92.785,-15.29,91.271,66.334
22108.0,-92.785,-15.29,89.271,65.334
22118.0,-94.785,-16.29,88.271,65.334
22127.0,-94.785,-16.29,87.271,66.334
22137.0,-97.785,-16.29,86.271,65.334
22147.0,-99.785,-17.29,81.271,66.334
22157.0,-101.79,-14.29,80.271,66.334
22167.0,-104.79,-14.29,79.271,65.334
22177.0,-109.79,-16.29,78.271,66.334
22187.0,-110.79,-18.29,76.271,64.334
22197.0,-114.79,-20.29,72.271,63.334
22206.0,-114.79,-21.29,69.271,62.334
22216.0,-116.79,-22.29,68.271,63.334
22226.0,-119.79,-21.29,66.271,63.334
22236.0,-119.79,-23.29,65.271,63.334
22246.0,-120.79,-21.29,61.271,61.334
22256.0,-120.79,-20.29,61.271,62.334
22266.0,-124.79,-20.29,58.271,60.334
22276.0,-124.79,-19.29,56.271,62.334
22286.0,-129.79,-19.29,53.271,60.334
22295.0,-131.79,-21.29,51.271,60.334
22305.0,-134.79,-19.29,47.271,59.334
22315.0,-135.79,-19.29,45.271,59.334
22325.0,-136.79,-18.29,40.271,57.334
22335.0,-139.79,-20.29,37.271,57.334
22345.0,-143.79,-19.29,37.271,57.334
22355.0,-146.79,-19.29,35.271,59.334
22365.0,-147.79,-16.29,36.271,58.334
22375.0,-141.79,-16.29,36.271,60.334
22384.0,-130.79,-12.29,39.271,62.334
22394.0,-125.79,-7.2898,38.271,62.334
22404.0,-124.79,-6.2898,35.271,62.334
22414.0,-119.79,-3.2898,32.271,61.334
22424.0,-112.79,3.7102,23.271,57.334
22434.0,-106.79,7.7102,23.271,57.334
22444.0,-99.785,9.7102,41.271,60.334
22454.0,-96.785,11.71,41.271,60.334
22464.0,-90.785,10.71,65.271,66.334
22473.0,-88.785,11.71,65.271,66.334
22483.0,-83.785,12.71,84.271,71.334
22493.0,-77.785,14.71,84.271,71.334
22503.0,-69.785,17.71,100.27,77.334
22513.0,-65.785,19.71,100.27,77.334
22523.0,-64.785,21.71,115.27,84.334
22533.0,-58.785,23.71,115.27,84.334
22543.0,-55.785,26.71,129.27,89.334
22552.0,-50.785,27.71,129.27,89.334
22562.0,-49.785,30.71,140.27,94.334
22572.0,-47.785,29.71,140.27,94.334
22582.0,-45.785,29.71,145.27,98.334
22592.0,-44.785,28.71,145.27,98.334
22602.0,-43.785,30.71,147.27,100.33
22612.0,-39.785,30.71,147.27,100.33
22622.0,-38.785,32.71,142.27,100.33
22632.0,-36.785,31.71,142.27,100.33
22641.0,-35.785,31.71,141.27,101.33
22651.0,-35.785,32.71,141.27,102.33
22661.0,-32.785,33.71,141.27,102.33
22671.0,-32.785,33.71,141.27,103.33
22681.0,-30.785,33.71,142.27,104.33
22691.0,-33.785,32.71,142.27,104.33
22701.0,-33.785,31.71,138.27,103.33
22711.0,-32.785,30.71,140.27,104.33
22721.0,-32.785,30.71,138.27,104.33
22730.0,-33.785,28.71,137.27,104.33
22740.0,-33.785,28.71,135.27,103.33
22750.0,-35.785,28.71,135.27,104.33
22760.0,-35.785,28.71,135.27,104.33
22770.0,-35.785,30.71,133.27,104.33
22780.0,-35.785,30.71,132.27,103.33
22790.0,-37.785,30.71,131.27,103.33
22800.0,-37.785,30.71,130.27,104.33
22810.0,-37.785,32.71,128.27,104.33
22819.0,-37.785,32.71,129.27,103.33
22829.0,-36.785,34.71,130.27,106.33
22839.0,-36.785,34.71,127.27,105.33
22849.0,-34.785,34.71,127.27,104.33
22859.0,-34.785,34.71,124.27,104.33
22869.0,-36.785,35.71,119.27,103.33
22879.0,-36.785,34.71,119.27,102.33
22889.0,-40.785,34.71,116.27,101.33
22898.0,-41.785,31.71,115.27,102.33
22908.0,-42.785,31.71,112.27,101.33
22918.0,-44.785,30.71,110.27,100.33
22928.0,-46.785,31.71,107.27,99.334
22938.0,-46.785,31.71,106.27,98.334
22948.0,-47.785,32.71,104.27,98.334
22958.0,-47.785,31.71,101.27,98.334
22968.0,-48.785,31.71,97.271,97.334
22978.0,-52.785,29.71,95.271,96.334
22987.0,-54.785,27.71,91.271,96.334
22997.0,-58.785,26.71,89.271,92.334
23007.0,-59.785,24.71,83.271,93.334
23017.0,-64.785,20.71,81.271,92.334
23027.0,-70.785,17.71,77.271,90.334
23037.0,-74.785,17.71,73.271,89.334
23047.0,-79.785,12.71,70.271,89.334
23057.0,-82.785,10.71,70.271,87.334
23067.0,-86.785,3.7102,68.271,89.334
23076.0,-85.785,2.7102,68.271,89.334
23086.0,-86.785,-0.28981,68.271,90.334
23096.0,-87.785,-2.2898,67.271,90.334
23106.0,-89.785,-5.2898,62.271,87.334
23116.0,-84.785,-4.2898,53.271,84.334
23126.0,-81.785,-5.2898,55.271,81.334
23136.0,-77.785,-6.2898,66.271,84.334
23146.0,-74.785,-8.2898,79.271,85.334
23156.0,-74.785,-12.29,88.271,87.334
23165.0,-72.785,-16.29,96.271,90.334
23175.0,-70.785,-19.29,108.27,92.334
23185.0,-67.785,-20.29,115.27,94.334
23195.0,-65.785,-22.29,123.27,96.334
23205.0,-62.785,-23.29,129.27,99.334
23215.0,-62.785,-25.29,134.27,99.334
23225.0,-61.785,-26.29,140.27,102.33
23235.0,-60.785,-26.29,145.27,102.33
23244.0,-59.785,-27.29,147.27,104.33
23254.0,-57.785,-26.29,150.27,104.33
23264.0,-57.785,-28.29,153.27,105.33
23274.0,-58.785,-28.29,152.27,106.33
23284.0,-55.785,-29.29,150.27,105.33
23294.0,-51.785,-27.29,147.27,105.33
23304.0,-49.785,-27.29,149.27,106.33
23314.0,-49.785,-25.29,145.27,105.33
23324.0,-46.785,-26.29,145.27,105.33
23333.0,-45.785,-25.29,140.27,104.33
23343.0,-44.785,-25.29,136.27,103.33
23353.0,-40.785,-23.29,136.27,103.33
23363.0,-39.785,-21.29,133.27,102.33
23373.0,-37.785,-22.29,132.27,104.33
23383.0,-37.785,-22.29,132.27,104.33
23393.0,-36.785,-21.29,133.27,102.33
23403.0,-34.785,-20.29,133.27,102.33
23413.0,-34.785,-21.29,131.27,101.33
23422.0,-37.785,-23.29,131.27,101.33
23432.0,-35.785,-21.29,125.27,99.334
23442.0,-37.785,-22.29,125.27,99.334
23452.0,-37.785,-22.29,123.27,99.334
23462.0,-36.785,-20.29,123.27,99.334
23472.0,-36.785,-20.29,120.27,98.334
23482.0,-38.785,-22.29,120.27,98.334
23492.0,-38.785,-22.29,114.27,96.334
23502.0,-39.785,-21.29,114.27,96.334
23511.0,-39.785,-21.29,109.27,95.334
23521.0,-42.785,-23.29,109.27,95.334
23531.0,-42.785,-23.29,106.27,95.334
23541.0,-44.785,-24.29,106.27,95.334
23551.0,-44.785,-24.29,97.271,92.334
23561.0,-46.785,-25.29,97.271,92.334
23571.0,-46.785,-25.29,91.271,90.334
23581.0,-51.785,-28.29,91.271,90.334
23590.0,-51.785,-28.29,90.271,88.334
23600.0,-54.785,-28.29,88.271,88.334
23610.0,-55.785,-29.29,84.271,88.334
23620.0,-62.785,-32.29,85.271,88.334
23630.0,-66.785,-34.29,82.271,89.334
23640.0,-69.785,-36.29,79.271,87.334
23650.0,-71.785,-39.29,79.271,87.334
23660.0,-74.785,-39.29,77.271,88.334
23670.0,-80.785,-41.29,74.271,88.334
23679.0,-82.785,-43.29,73.271,87.334
23689.0,-84.785,-46.29,71.271,86.334
23699.0,-91.785,-48.29,67.271,85.334
23709.0,-94.785,-48.29,64.271,86.334
23719.0,-99.785,-51.29,61.271,83.334
23729.0,-106.79,-56.29,59.271,84.334
23739.0,-108.79,-56.29,58.271,83.334
23749.0,-111.79,-59.29,57.271,83.334
23759.0,-110.79,-61.29,54.271,83.334
23768.0,-106.79,-60.29,54.271,83.334
23778.0,-94.785,-56.29,55.271,84.334
23788.0,-86.785,-51.29,53.271,84.334
23798.0,-83.785,-48.29,49.271,83.334
23808.0,-77.785,-47.29,42.271,78.334
23818.0,-68.785,-44.29,31.271,74.334
23828.0,-59.785,-42.29,43.271,74.334
23838.0,-51.785,-40.29,54.271,77.334
23848.0,-47.785,-38.29,64.271,78.334
23857.0,-45.785,-40.29,76.271,80.334
23867.0,-40.785,-39.29,84.271,81.334
23877.0,-34.785,-41.29,93.271,84.334
23887.0,-29.785,-40.29,104.27,86.334
23897.0,-24.785,-40.29,110.27,89.334
23907.0,-23.785,-41.29,120.27,91.334
23917.0,-19.785,-41.29,123.27,93.334
23927.0,-15.785,-41.29,128.27,94.334
23936.0,-11.785,-38.29,129.27,95.334
23946.0,-6.7851,-37.29,130.27,95.334
23956.0,-3.7851,-36.29,131.27,94.334
23966.0,-4.7851,-36.29,130.27,94.334
23976.0,-1.7851,-35.29,133.27,94.334
23986.0,-2.7851,-36.29,133.27,96.334
23996.0,-3.7851,-37.29,133.27,94.334
24006.0,-1.7851,-39.29,134.27,95.334
24016.0,-1.7851,-37.29,132.27,95.334
24025.0,-1.7851,-37.29,132.27,95.334
24035.0,-0.78506,-38.29,128.27,94.334
24045.0,-1.7851,-38.29,124.27,92.334
24055.0,-1.7851,-40.29,124.27,92.334
24065.0,-1.7851,-38.29,123.27,92.334
24075.0,-2.7851,-40.29,123.27,92.334
24085.0,-2.7851,-40.29,121.27,92.334
24095.0,-4.7851,-43.29,118.27,92.334
24105.0,-6.7851,-43.29,118.27,92.334
24114.0,-7.7851,-45.29,114.27,90.334
24124.0,-8.7851,-46.29,113.27,91.334
24134.0,-11.785,-48.29,112.27,90.334
24144.0,-17.785,-52.29,112.27,90.334
24154.0,-19.785,-52.29,113.27,89.334
24164.0,-23.785,-55.29,110.27,89.334
24174.0,-29.785,-57.29,108.27,87.334
24184.0,-29.785,-57.29,107.27,89.334
24194.0,-35.785,-62.29,106.27,88.334
24203.0,-35.785,-62.29,106.27,88.334
24213.0,-43.785,-67.29,103.27,89.334
24223.0,-43.785,-67.29,101.27,88.334
24233.0,-50.785,-71.29,99.271,88.334
24243.0,-50.785,-71.29,97.271,87.334
24253.0,-56.785,-74.29,95.271,87.334
24263.0,-56.785,-74.29,93.271,86.334
24273.0,-67.785,-80.29,92.271,87.334
24282.0,-67.785,-80.29,89.271,87.334
24292.0,-73.785,-83.29,90.271,87.334
24302.0,-73.785,-83.29,85.271,85.334
24312.0,-83.785,-87.29,85.271,86.334
24322.0,-83.785,-87.29,81.271,86.334
24332.0,-85.785,-91.29,80.271,85.334
24342.0,-90.785,-94.29,79.271,85.334
24352.0,-96.785,-94.29,79.271,85.334
24362.0,-100.79,-97.29,78.271,85.334
24371.0,-105.79,-99.29,78.271,85.334
24381.0,-106.79,-101.29,73.271,84.334
24391.0,-110.79,-101.29,73.271,84.334
24401.0,-114.79,-104.29,71.271,85.334
24411.0,-119.79,-105.29,71.271,85.334
24421.0,-125.79,-108.29,64.271,84.334
24431.0,-129.79,-111.29,64.271,84.334
24441.0,-135.79,-114.29,63.271,84.334
24451.0,-143.79,-116.29,63.271,84.334
24460.0,-148.79,-119.29,60.271,84.334
24470.0,-146.79,-121.29,60.271,84.334
24480.0,-145.79,-120.29,60.271,85.334
24490.0,-136.79,-116.29,60.271,85.334
24500.0,-126.79,-109.29,58.271,86.334
24510.0,-119.79,-107.29,58.271,86.334
24520.0,-113.79,-105.29,42.271,80.334
24530.0,-108.79,-104.29,42.271,80.334
24540.0,-103.79,-101.29,47.271,79.334
24549.0,-97.785,-99.29,64.271,81.334
24559.0,-89.785,-97.29,76.271,84.334
24569.0,-85.785,-96.29,89.271,87.334
24579.0,-77.785,-96.29,101.27,92.334
24589.0,-72.785,-94.29,111.27,95.334
24599.0,-68.785,-91.29,122.27,98.334
24609.0,-62.785,-88.29,132.27,100.33
24619.0,-59.785,-89.29,138.27,102.33
24628.0,-54.785,-86.29,145.27,106.33
24638.0,-51.785,-87.29,149.27,107.33
24648.0,-49.785,-84.29,152.27,111.33
24658.0,-45.785,-83.29,158.27,110.33
24668.0,-43.785,-83.29,160.27,112.33
24678.0,-41.785,-82.29,163.27,113.33
24688.0,-43.785,-81.29,166.27,115.33
24698.0,-42.785,-81.29,167.27,116.33
24708.0,-43.785,-80.29,168.27,116.33
24717.0,-41.785,-81.29,170.27,118.33
24727.0,-42.785,-80.29,172.27,120.33
24737.0,-39.785,-80.29,168.27,119.33
24747.0,-41.785,-79.29,166.27,118.33
24757.0,-42.785,-80.29,164.27,117.33
24767.0,-40.785,-79.29,162.27,117.33
24777.0,-43.785,-80.29,160.27,118.33
24787.0,-45.785,-80.29,158.27,117.33
24797.0,-47.785,-81.29,160.27,117.33
24806.0,-46.785,-82.29,158.27,118.33
24816.0,-50.785,-83.29,158.27,117.33
24826.0,-49.785,-84.29,157.27,116.33
24836.0,-52.785,-82.29,155.27,116.33
24846.0,-54.785,-83.29,154.27,115.33
24856.0,-56.785,-84.29,152.27,114.33
24866.0,-58.785,-86.29,151.27,115.33
24876.0,-61.785,-87.29,151.27,115.33
24886.0,-65.785,-87.29,149.27,115.33
24895.0,-66.785,-88.29,150.27,116.33
24905.0,-70.785,-88.29,148.27,115.33
24915.0,-72.785,-89.29,148.27,116.33
24925.0,-75.785,-90.29,149.27,116.33
24935.0,-75.785,-90.29,146.27,116.33
24945.0,-81.785,-91.29,146.27,115.33
24955.0,-81.785,-91.29,143.27,115.33
24965.0,-89.785,-93.29,141.27,115.33
24974.0,-89.785,-93.29,136.27,114.33
24984.0,-95.785,-94.29,135.27,112.33
24994.0,-95.785,-94.29,131.27,111.33
25004.0,-96.785,-93.29,130.27,111.33
25014.0,-96.785,-93.29,128.27,111.33
25024.0,-97.785,-91.29,127.27,112.33
25034.0,-97.785,-91.29,124.27,111.33
25044.0,-95.785,-85.29,124.27,110.33
25054.0,-95.785,-85.29,120.27,110.33
25063.0,-93.785,-80.29,118.27,110.33
25073.0,-93.785,-80.29,117.27,110.33
25083.0,-89.785,-78.29,115.27,109.33
25093.0,-87.785,-75.29,112.27,110.33
25103.0,-85.785,-74.29,110.27,108.33
25113.0,-82.785,-70.29,108.27,107.33
25123.0,-79.785,-68.29,106.27,108.33
25133.0,-79.785,-67.29,105.27,106.33
25143.0,-79.785,-66.29,102.27,106.33
25152.0,-77.785,-64.29,98.271,106.33
25162.0,-77.785,-63.29,96.271,106.33
25172.0,-78.785,-63.29,96.271,104.33
25182.0,-77.785,-60.29,94.271,104.33
25192.0,-75.785,-57.29,91.271,103.33
25202.0,-77.785,-57.29,89.271,104.33
25212.0,-76.785,-54.29,89.271,104.33
25222.0,-77.785,-55.29,86.271,104.33
25231.0,-80.785,-55.29,83.271,103.33
25241.0,-78.785,-54.29,78.271,101.33
25251.0,-78.785,-55.29,77.271,102.33
25261.0,-68.785,-49.29,77.271,101.33
25271.0,-57.785,-43.29,78.271,102.33
25281.0,-50.785,-37.29,74.271,102.33
25291.0,-42.785,-34.29,64.271,95.334
25301.0,-35.785,-30.29,58.271,91.334
25311.0,-29.785,-25.29,69.271,91.334
25320.0,-21.785,-23.29,82.271,96.334
25330.0,-17.785,-20.29,96.271,99.334
25340.0,-13.785,-20.29,108.27,101.33
25350.0,-9.7851,-20.29,117.27,103.33
25360.0,-3.7851,-19.29,124.27,105.33
25370.0,1.2149,-18.29,135.27,107.33
25380.0,7.2149,-16.29,139.27,110.33
25390.0,9.2149,-15.29,146.27,111.33
25400.0,14.215,-12.29,146.27,111.33
25409.0,17.215,-10.29,157.27,113.33
25419.0,17.215,-8.2898,157.27,113.33
25429.0,19.215,-6.2898,164.27,117.33
25439.0,24.215,-3.2898,164.27,117.33
25449.0,25.215,-3.2898,166.27,115.33
25459.0,27.215,-1.2898,166.27,115.33
25469.0,27.215,0.71019,167.27,117.33
25479.0,31.215,2.7102,167.27,117.33
25489.0,33.215,6.7102,166.27,117.33
25498.0,35.215,7.7102,166.27,117.33
25508.0,35.215,9.7102,160.27,116.33
25518.0,36.215,11.71,160.27,116.33
25528.0,37.215,13.71,154.27,113.33
25538.0,42.215,17.71,154.27,113.33
25548.0,42.215,19.71,150.27,113.33
25558.0,44.215,21.71,150.27,113.33
25568.0,43.215,23.71,152.27,113.33
25577.0,43.215,25.71,152.27,113.33
25587.0,43.215,24.71,151.27,112.33
25597.0,42.215,24.71,149.27,113.33
25607.0,42.215,24.71,150.27,112.33
25617.0,40.215,25.71,148.27,111.33
25627.0,38.215,25.71,147.27,113.33
25637.0,36.215,24.71,146.27,114.33
25647.0,38.215,25.71,145.27,113.33
25657.0,36.215,25.71,146.27,112.33
25666.0,36.215,25.71,142.27,113.33
25676.0,31.215,26.71,142.27,111.33
25686.0,31.215,26.71,142.27,112.33
25696.0,27.215,26.71,140.27,112.33
25706.0,27.215,26.71,138.27,110.33
25716.0,25.215,26.71,135.27,110.33
25726.0,25.215,26.71,132.27,110.33
25736.0,18.215,25.71,130.27,109.33
25746.0,18.215,25.71,131.27,109.33
25755.0,10.215,21.71,128.27,109.33
25765.0,10.215,21.71,128.27,110.33
25775.0,5.2149,20.71,126.27,109.33
25785.0,5.2149,20.71,126.27,111.33
25795.0,-0.78506,19.71,127.27,111.33
25805.0,-0.78506,19.71,124.27,109.33
25815.0,-4.7851,18.71,121.27,109.33
25825.0,-6.7851,18.71,119.27,110.33
25835.0,-8.7851,19.71,118.27,109.33
25844.0,-13.785,19.71,118.27,109.33
25854.0,-15.785,17.71,114.27,108.33
25864.0,-19.785,16.71,110.27,107.33
25874.0,-21.785,14.71,108.27,108.33
25884.0,-26.785,13.71,107.27,106.33
25894.0,-29.785,13.71,104.27,106.33
25904.0,-33.785,13.71,103.27,106.33
25914.0,-35.785,13.71,101.27,105.33
25923.0,-39.785,11.71,98.271,104.33
25933.0,-43.785,11.71,95.271,103.33
25943.0,-47.785,9.7102,96.271,104.33
25953.0,-49.785,9.7102,93.271,104.33
25963.0,-53.785,9.7102,93.271,105.33
25973.0,-52.785,8.7102,90.271,103.33
25983.0,-58.785,8.7102,89.271,101.33
25993.0,-60.785,7.7102,86.271,103.33
26003.0,-63.785,6.7102,83.271,102.33
26012.0,-66.785,5.7102,80.271,100.33
26022.0,-73.785,5.7102,80.271,100.33
26032.0,-77.785,2.7102,78.271,101.33
26042.0,-83.785,1.7102,76.271,100.33
26052.0,-82.785,0.71019,78.271,102.33
26062.0,-80.785,-0.28981,77.271,101.33
26072.0,-74.785,2.7102,78.271,102.33
26082.0,-74.785,3.7102,73.271,101.33
26092.0,-75.785,2.7102,69.271,100.33
26101.0,-74.785,5.7102,61.271,95.334
26111.0,-71.785,7.7102,61.271,94.334
26121.0,-67.785,7.7102,74.271,96.334
26131.0,-66.785,8.7102,89.271,100.33
26141.0,-64.785,7.7102,101.27,102.33
26151.0,-68.785,3.7102,111.27,104.33
26161.0,-65.785,2.7102,121.27,105.33
26171.0,-62.785,3.7102,131.27,111.33
26181.0,-57.785,4.7102,140.27,114.33
26190.0,-59.785,4.7102,148.27,115.33
26200.0,-58.785,6.7102,154.27,116.33
26210.0,-57.785,4.7102,160.27,118.33
26220.0,-55.785,6.7102,162.27,119.33
26230.0,-53.785,5.7102,165.27,118.33
26240.0,-54.785,6.7102,166.27,118.33
26250.0,-55.785,5.7102,165.27,118.33
26260.0,-57.785,5.7102,165.27,118.33
26269.0,-57.785,3.7102,167.27,119.33
26279.0,-57.785,4.7102,167.27,120.33
26289.0,-56.785,5.7102,167.27,120.33
26299.0,-56.785,4.7102,164.27,120.33
26309.0,-57.785,4.7102,164.27,121.33
26319.0,-55.785,3.7102,160.27,120.33
26329.0,-59.785,0.71019,160.27,120.33
26339.0,-59.785,3.7102,157.27,120.33
26349.0,-57.785,4.7102,157.27,120.33
26358.0,-57.785,4.7102,154.27,120.33
26368.0,-60.785,4.7102,154.27,120.33
26378.0,-60.785,3.7102,153.27,119.33
26388.0,-60.785,3.7102,153.27,119.33
26398.0,-60.785,3.7102,151.27,119.33
26408.0,-64.785,1.7102,151.27,119.33
26418.0,-64.785,1.7102,149.27,119.33
26428.0,-67.785,0.71019,149.27,119.33
26438.0,-67.785,0.71019,147.27,119.33
26447.0,-74.785,-1.2898,147.27,119.33
26457.0,-74.785,-1.2898,142.27,118.33
26467.0,-80.785,-3.2898,142.27,118.33
26477.0,-80.785,-3.2898,139.27,118.33
26487.0,-84.785,-5.2898,139.27,118.33
26497.0,-84.785,-5.2898,136.27,118.33
26507.0,-86.785,-6.2898,136.27,118.33
26517.0,-86.785,-6.2898,131.27,113.33
26527.0,-92.785,-7.2898,131.27,113.33
26536.0,-92.785,-7.2898,129.27,113.33
26546.0,-94.785,-8.2898,126.27,112.33
26556.0,-97.785,-9.2898,123.27,111.33
26566.0,-99.785,-9.2898,124.27,111.33
26576.0,-102.79,-11.29,126.27,111.33
26586.0,-105.79,-12.29,129.27,111.33
26596.0,-108.79,-14.29,135.27,112.33
26606.0,-111.79,-14.29,134.27,111.33
26615.0,-113.79,-14.29,130.27,110.33
26625.0,-115.79,-15.29,132.27,111.33
26635.0,-117.79,-15.29,132.27,110.33
26645.0,-116.79,-15.29,129.27,109.33
26655.0,-121.79,-15.29,126.27,108.33
26665.0,-124.79,-16.29,119.27,106.33
26675.0,-128.79,-17.29,114.27,105.33
26685.0,-131.79,-20.29,114.27,105.33
26695.0,-133.79,-21.29,109.27,102.33
26704.0,-136.79,-23.29,104.27,102.33
26714.0,-139.79,-23.29,101.27,100.33
26724.0,-142.79,-25.29,95.271,99.334
26734.0,-147.79,-27.29,91.271,97.334
26744.0,-151.79,-29.29,83.271,94.334
26754.0,-155.79,-33.29,79.271,93.334
26764.0,-160.79,-35.29,73.271,91.334
26774.0,-166.79,-36.29,70.271,90.334
26784.0,-169.79,-41.29,65.271,89.334
26793.0,-175.79,-44.29,62.271,88.334
26803.0,-181.79,-47.29,58.271,85.334
26813.0,-183.79,-50.29,55.271,84.334
26823.0,-184.79,-55.29,53.271,82.334
26833.0,-182.79,-54.29,51.271,83.334
26843.0,-180.79,-55.29,49.271,83.334
26853.0,-181.79,-58.29,46.271,82.334
26863.0,-182.79,-56.29,40.271,81.334
26873.0,-180.79,-55.29,28.271,75.334
26882.0,-177.79,-56.29,30.271,73.334
26892.0,-176.79,-56.29,42.271,75.334
26902.0,-177.79,-58.29,54.271,76.334
26912.0,-179.79,-62.29,65.271,79.334
26922.0,-178.79,-66.29,74.271,79.334
26932.0,-178.79,-67.29,84.271,82.334
26942.0,-181.79,-72.29,91.271,83.334
26952.0,-182.79,-74.29,100.27,87.334
26961.0,-182.79,-75.29,108.27,90.334
26971.0,-185.79,-79.29,114.27,90.334
26981.0,-187.79,-82.29,120.27,93.334
26991.0,-192.79,-86.29,123.27,92.334
27001.0,-193.79,-88.29,124.27,94.334
27011.0,-196.79,-90.29,126.27,93.334
27021.0,-199.79,-91.29,128.27,94.334
27031.0,-199.79,-92.29,129.27,94.334
27041.0,-202.79,-96.29,128.27,92.334
27050.0,-202.79,-97.29,129.27,94.334
27060.0,-203.79,-98.29,129.27,94.334
27070.0,-205.79,-97.29,131.27,96.334
27080.0,-205.79,-99.29,129.27,94.334
27090.0,-210.79,-101.29,127.27,94.334
27100.0,-210.79,-102.29,125.27,93.334
27110.0,-206.79,-102.29,124.27,93.334
27120.0,-208.79,-100.29,124.27,92.334
27130.0,-208.79,-100.29,123.27,92.334
27139.0,-208.79,-103.29,123.27,94.334
27149.0,-208.79,-103.29,119.27,92.334
27159.0,-214.79,-107.29,118.27,93.334
27169.0,-214.79,-107.29,117.27,91.334
27179.0,-216.79,-105.29,116.27,92.334
27189.0,-216.79,-105.29,117.27,92.334
27199.0,-218.79,-108.29,115.27,92.334
27209.0,-218.79,-108.29,112.27,92.334
27219.0,-223.79,-111.29,112.27,90.334
27228.0,-223.79,-111.29,110.27,90.334
27238.0,-227.79,-110.29,109.27,89.334
27248.0,-227.79,-110.29,107.27,90.334
27258.0,-229.79,-113.29,107.27,91.334
27268.0,-229.79,-113.29,106.27,91.334
27278.0,-231.79,-112.29,103.27,91.334
27288.0,-231.79,-115.29,103.27,89.334
27298.0,-239.79,-117.29,103.27,89.334
27307.0,-243.79,-120.29,97.271,88.334
27317.0,-243.79,-120.29,97.271,88.334
27327.0,-248.79,-121.29,93.271,87.334
27337.0,-250.79,-123.29,93.271,87.334
27347.0,-256.79,-126.29,87.271,86.334
27357.0,-259.79,-128.29,87.271,86.334
27367.0,-261.79,-129.29,82.271,84.334
27377.0,-267.79,-130.29,82.271,84.334
27387.0,-270.79,-132.29,78.271,83.334
27396.0,-274.79,-134.29,78.271,83.334
27406.0,-275.79,-135.29,72.271,83.334
27416.0,-277.79,-136.29,72.271,83.334
27426.0,-282.79,-136.29,69.271,81.334
27436.0,-281.79,-137.29,69.271,81.334
27446.0,-283.79,-136.29,64.271,80.334
27456.0,-287.79,-137.29,64.271,80.334
27466.0,-290.79,-139.29,62.271,80.334
27476.0,-292.79,-140.29,62.271,80.334
27485.0,-294.79,-141.29,62.271,81.334
27495.0,-295.79,-141.29,59.271,79.334
27505.0,-302.79,-144.29,55.271,80.334
27515.0,-300.79,-146.29,55.271,78.334
27525.0,-306.79,-146.29,53.271,79.334
27535.0,-311.79,-148.29,51.271,77.334
27545.0,-313.79,-150.29,47.271,76.334
27555.0,-318.79,-152.29,47.271,76.334
27565.0,-322.79,-155.29,45.271,76.334
27574.0,-326.79,-156.29,41.271,78.334
27584.0,-326.79,-160.29,44.271,77.334
27594.0,-318.79,-158.29,45.271,78.334
27604.0,-313.79,-153.29,43.271,79.334
27614.0,-312.79,-153.29,45.271,80.334
27624.0,-306.79,-155.29,42.271,81.334
27634.0,-303.79,-151.29,34.271,76.334
27644.0,-297.79,-150.29,31.271,72.334
27653.0,-293.79,-148.29,43.271,74.334
27663.0,-287.79,-146.29,55.271,79.334
27673.0,-283.79,-149.29,68.271,82.334
27683.0,-280.79,-149.29,80.271,84.334
27693.0,-273.79,-148.29,92.271,85.334
27703.0,-268.79,-148.29,104.27,88.334
27713.0,-263.79,-147.29,111.27,91.334
27723.0,-258.79,-144.29,120.27,93.334
27733.0,-255.79,-143.29,129.27,96.334
27742.0,-253.79,-144.29,136.27,95.334
27752.0,-247.79,-142.29,143.27,98.334
27762.0,-243.79,-141.29,146.27,100.33
27772.0,-238.79,-140.29,150.27,101.33
27782.0,-232.79,-138.29,151.27,101.33
27792.0,-229.79,-140.29,155.27,102.33
27802.0,-229.79,-139.29,158.27,103.33
27812.0,-229.79,-140.29,161.27,104.33
27822.0,-228.79,-140.29,163.27,105.33
27831.0,-229.79,-140.29,163.27,105.33
27841.0,-225.79,-139.29,162.27,106.33
27851.0,-223.79,-139.29,160.27,105.33
27861.0,-223.79,-139.29,159.27,104.33
27871.0,-221.79,-139.29,158.27,104.33
27881.0,-221.79,-139.29,158.27,104.33
27891.0,-216.79,-136.29,158.27,105.33
27901.0,-216.79,-136.29,156.27,106.33
27911.0,-216.79,-135.29,158.27,105.33
27920.0,-216.79,-135.29,154.27,105.33
27930.0,-213.79,-136.29,153.27,106.33
27940.0,-213.79,-136.29,151.27,105.33
27950.0,-214.79,-136.29,146.27,103.33
27960.0,-214.79,-136.29,145.27,104.33
27970.0,-218.79,-137.29,146.27,103.33
27980.0,-218.79,-137.29,142.27,103.33
27990.0,-219.79,-138.29,142.27,102.33
27999.0,-219.79,-138.29,140.27,103.33
28009.0,-220.79,-138.29,138.27,101.33
28019.0,-222.79,-140.29,137.27,102.33
28029.0,-222.79,-140.29,138.27,102.33
28039.0,-226.79,-143.29,136.27,103.33
28049.0,-227.79,-144.29,135.27,102.33
28059.0,-229.79,-145.29,137.27,103.33
28069.0,-232.79,-145.29,136.27,104.33
28079.0,-235.79,-146.29,132.27,101.33
28088.0,-237.79,-148.29,130.27,102.33
28098.0,-240.79,-150.29,128.27,99.334
28108.0,-244.79,-151.29,125.27,99.334
28118.0,-246.79,-152.29,123.27,99.334
28128.0,-249.79,-153.29,120.27,99.334
28138.0,-253.79,-154.29,119.27,99.334
28148.0,-256.79,-157.29,117.27,98.334
28158.0,-260.79,-159.29,116.27,97.334
28168.0,-262.79,-160.29,111.27,97.334
28177.0,-265.79,-162.29,110.27,95.334
28187.0,-268.79,-165.29,105.27,94.334
28197.0,-270.79,-165.29,103.27,92.334
28207.0,-272.79,-165.29,101.27,91.334
28217.0,-276.79,-167.29,97.271,91.334
28227.0,-280.79,-168.29,96.271,90.334
28237.0,-282.79,-169.29,94.271,91.334
28247.0,-287.79,-170.29,93.271,90.334
28257.0,-288.79,-171.29,88.271,89.334
28266.0,-290.79,-174.29,87.271,89.334
28276.0,-294.79,-176.29,84.271,88.334
28286.0,-298.79,-177.29,84.271,89.334
28296.0,-302.79,-179.29,82.271,89.334
28306.0,-305.79,-180.29,81.271,87.334
28316.0,-309.79,-182.29,78.271,87.334
28326.0,-312.79,-182.29,74.271,85.334
28336.0,-314.79,-183.29,72.271,86.334
28345.0,-319.79,-185.29,72.271,86.334
28355.0,-321.79,-186.29,67.271,85.334
28365.0,-325.79,-187.29,67.271,85.334
28375.0,-325.79,-186.29,67.271,85.334
28385.0,-322.79,-186.29,67.271,85.334
28395.0,-313.79,-182.29,65.271,85.334
28405.0,-304.79,-178.29,65.271,85.334
28415.0,-302.79,-176.29,63.271,84.334
28425.0,-295.79,-176.29,63.271,84.334
28434.0,-292.79,-174.29,49.271,77.334
28444.0,-289.79,-173.29,49.271,77.334
28454.0,-285.79,-170.29,74.271,82.334
28464.0,-278.79,-172.29,74.271,82.334
28474.0,-274.79,-170.29,97.271,88.334
28484.0,-266.79,-169.29,97.271,88.334
28494.0,-260.79,-167.29,118.27,93.334
28504.0,-254.79,-167.29,118.27,93.334
28514.0,-244.79,-162.29,135.27,99.334
28523.0,-239.79,-162.29,135.27,99.334
28533.0,-235.79,-159.29,149.27,100.33
28543.0,-229.79,-158.29,149.27,100.33
28553.0,-224.79,-157.29,153.27,102.33
28563.0,-219.79,-154.29,157.27,101.33
28573.0,-214.79,-154.29,161.27,103.33
28583.0,-208.79,-151.29,167.27,103.33
28593.0,-208.79,-151.29,169.27,104.33
28603.0,-202.79,-150.29,172.27,104.33
28612.0,-202.79,-150.29,175.27,105.33
28622.0,-195.79,-147.29,176.27,105.33
28632.0,-195.79,-147.29,174.27,105.33
28642.0,-190.79,-144.29,174.27,106.33
28652.0,-190.79,-144.29,170.27,104.33
28662.0,-189.79,-145.29,168.27,103.33
28672.0,-189.79,-145.29,167.27,104.33
28682.0,-185.79,-142.29,167.27,103.33
28691.0,-185.79,-142.29,166.27,103.33
28701.0,-183.79,-141.29,167.27,103.33
28711.0,-183.79,-141.29,166.27,105.33
28721.0,-181.79,-141.29,164.27,103.33
28731.0,-181.79,-141.29,162.27,103.33
28741.0,-182.79,-141.29,158.27,103.33
28751.0,-178.79,-140.29,157.27,102.33
28761.0,-179.79,-140.29,156.27,102.33
28771.0,-178.79,-139.29,155.27,101.33
28780.0,-173.79,-134.29,153.27,102.33
28790.0,-169.79,-135.29,151.27,101.33
28800.0,-166.79,-132.29,151.27,101.33
28810.0,-163.79,-129.29,150.27,100.33
28820.0,-157.79,-125.29,150.27,101.33
28830.0,-153.79,-122.29,147.27,101.33
28840.0,-149.79,-118.29,147.27,100.33
28850.0,-142.79,-114.29,146.27,101.33
28860.0,-136.79,-110.29,145.27,101.33
28869.0,-133.79,-108.29,144.27,101.33
28879.0,-131.79,-107.29,140.27,100.33
28889.0,-127.79,-105.29,140.27,98.334
28899.0,-125.79,-103.29,138.27,97.334
28909.0,-123.79,-101.29,133.27,98.334
28919.0,-122.79,-99.29,132.27,96.334
28929.0,-119.79,-97.29,132.27,97.334
28939.0,-118.79,-95.29,129.27,94.334
28949.0,-118.79,-95.29,127.27,95.334
28958.0,-120.79,-97.29,123.27,92.334
28968.0,-119.79,-95.29,120.27,92.334
28978.0,-123.79,-95.29,116.27,92.334
28988.0,-126.79,-99.29,116.27,91.334
28998.0,-127.79,-100.29,115.27,91.334
29008.0,-128.79,-101.29,110.27,90.334
29018.0,-133.79,-102.29,109.27,90.334
29028.0,-137.79,-103.29,108.27,89.334
29037.0,-140.79,-104.29,106.27,88.334
29047.0,-143.79,-107.29,103.27,87.334
29057.0,-147.79,-108.29,98.271,87.334
29067.0,-150.79,-109.29,97.271,86.334
29077.0,-154.79,-111.29,92.271,85.334
29087.0,-154.79,-112.29,91.271,84.334
29097.0,-157.79,-113.29,91.271,83.334
29107.0,-160.79,-114.29,87.271,84.334
29117.0,-165.79,-116.29,86.271,83.334
29126.0,-167.79,-117.29,84.271,83.334
29136.0,-170.79,-117.29,84.271,83.334
29146.0,-172.79,-117.29,82.271,83.334
29156.0,-174.79,-119.29,80.271,83.334
29166.0,-177.79,-120.29,79.271,82.334
29176.0,-180.79,-120.29,77.271,81.334
29186.0,-183.79,-120.29,75.271,81.334
29196.0,-185.79,-121.29,72.271,80.334
29206.0,-184.79,-120.29,72.271,81.334
29215.0,-183.79,-116.29,69.271,80.334
29225.0,-178.79,-116.29,68.271,80.334
29235.0,-168.79,-110.29,68.271,79.334
29245.0,-159.79,-102.29,67.271,81.334
29255.0,-152.79,-97.29,66.271,80.334
29265.0,-144.79,-94.29,59.271,78.334
29275.0,-138.79,-89.29,53.271,73.334
29285.0,-131.79,-86.29,58.271,74.334
29295.0,-123.79,-81.29,58.271,74.334
29304.0,-114.79,-76.29,83.271,79.334
29314.0,-110.79,-76.29,83.271,79.334
29324.0,-105.79,-76.29,108.27,87.334
29334.0,-102.79,-75.29,108.27,87.334
29344.0,-102.79,-75.29,129.27,91.334
29354.0,-90.785,-73.29,129.27,91.334
29364.0,-90.785,-73.29,145.27,97.334
29374.0,-83.785,-66.29,145.27,97.334
29383.0,-83.785,-66.29,157.27,100.33
29393.0,-74.785,-65.29,157.27,100.33
29403.0,-74.785,-65.29,169.27,103.33
29413.0,-68.785,-62.29,169.27,103.33
29423.0,-68.785,-62.29,173.27,104.33
29433.0,-64.785,-59.29,173.27,104.33
29443.0,-64.785,-59.29,180.27,107.33
29453.0,-61.785,-60.29,180.27,107.33
29463.0,-61.785,-60.29,182.27,107.33
29472.0,-60.785,-59.29,182.27,108.33
29482.0,-58.785,-59.29,185.27,108.33
29492.0,-60.785,-59.29,183.27,108.33
29502.0,-59.785,-58.29,183.27,110.33
29512.0,-57.785,-56.29,185.27,110.33
29522.0,-55.785,-57.29,186.27,111.33
29532.0,-55.785,-55.29,183.27,111.33
29542.0,-55.785,-55.29,185.27,113.33
29552.0,-54.785,-54.29,185.27,112.33
29561.0,-53.785,-55.29,185.27,112.33
29571.0,-53.785,-54.29,183.27,111.33
29581.0,-54.785,-54.29,180.27,111.33
29591.0,-56.785,-54.29,179.27,112.33
29601.0,-58.785,-54.29,177.27,113.33
29611.0,-58.785,-54.29,174.27,112.33
29621.0,-59.785,-55.29,174.27,112.33
29631.0,-61.785,-56.29,172.27,111.33
29641.0,-60.785,-55.29,175.27,113.33
29650.0,-66.785,-57.29,175.27,113.33
29660.0,-68.785,-58.29,175.27,114.33
29670.0,-69.785,-58.29,175.27,114.33
29680.0,-70.785,-57.29,176.27,114.33
29690.0,-74.785,-59.29,174.27,115.33
29700.0,-74.785,-58.29,173.27,114.33
29710.0,-78.785,-60.29,174.27,115.33
29720.0,-80.785,-60.29,174.27,113.33
29729.0,-81.785,-61.29,172.27,114.33
29739.0,-85.785,-62.29,171.27,113.33
29749.0,-84.785,-62.29,168.27,115.33
29759.0,-88.785,-62.29,166.27,114.33
29769.0,-91.785,-62.29,167.27,115.33
29779.0,-93.785,-63.29,166.27,115.33
29789.0,-97.785,-64.29,167.27,115.33
29799.0,-98.785,-68.29,163.27,114.33
29809.0,-102.79,-67.29,164.27,115.33
29818.0,-104.79,-68.29,161.27,115.33
29828.0,-107.79,-69.29,160.27,115.33
29838.0,-108.79,-68.29,159.27,116.33
29848.0,-113.79,-69.29,159.27,115.33
29858.0,-115.79,-71.29,154.27,116.33
29868.0,-120.79,-72.29,154.27,114.33
29878.0,-123.79,-72.29,150.27,114.33
29888.0,-125.79,-74.29,150.27,114.33
29898.0,-132.79,-75.29,149.27,114.33
29907.0,-134.79,-76.29,148.27,115.33
29917.0,-138.79,-77.29,147.27,115.33
29927.0,-138.79,-78.29,144.27,116.33
29937.0,-144.79,-80.29,146.27,116.33
29947.0,-148.79,-80.29,145.27,115.33
29957.0,-151.79,-82.29,142.27,114.33
29967.0,-154.79,-83.29,143.27,115.33
29977.0,-159.79,-85.29,139.27,116.33
29987.0,-162.79,-86.29,141.27,117.33
29996.0,-167.79,-89.29,141.27,117.33
