t,carotid_880nm,carotid_660nm,brachial_880nm,brachial_660nm
3.6,454.39,309.14,-340.92,-332.03
13.5,449.39,309.14,-337.92,-330.03
23.4,449.39,309.14,-337.92,-329.03
33.3,444.39,308.14,-337.92,-327.03
43.2,444.39,308.14,-336.92,-327.03
53.0,441.39,307.14,-337.92,-326.03
62.9,441.39,307.14,-338.92,-326.03
72.8,438.39,307.14,-335.92,-326.03
82.7,436.39,305.14,-336.92,-324.03
92.6,433.39,307.14,-336.92,-323.03
102.5,431.39,306.14,-336.92,-322.03
112.4,428.39,307.14,-338.92,-324.03
122.2,426.39,305.14,-340.92,-322.03
132.1,424.39,306.14,-339.92,-320.03
142.0,419.39,303.14,-340.92,-320.03
151.9,417.39,302.14,-341.92,-320.03
161.8,415.39,300.14,-344.92,-319.03
171.7,408.39,298.14,-345.92,-320.03
181.6,405.39,299.14,-345.92,-321.03
191.4,404.39,299.14,-348.92,-320.03
201.3,400.39,297.14,-350.92,-319.03
211.2,399.39,299.14,-351.92,-319.03
221.1,398.39,301.14,-352.92,-319.03
231.0,395.39,299.14,-352.92,-318.03
240.9,391.39,300.14,-352.92,-318.03
250.8,390.39,300.14,-354.92,-317.03
260.6,387.39,300.14,-358.92,-318.03
270.5,383.39,300.14,-357.92,-318.03
280.4,381.39,299.14,-359.92,-317.03
290.3,377.39,299.14,-360.92,-317.03
300.2,374.39,298.14,-361.92,-317.03
310.1,369.39,296.14,-362.92,-316.03
320.0,367.39,297.14,-362.92,-316.03
329.8,365.39,295.14,-366.92,-316.03
339.7,360.39,295.14,-366.92,-316.03
349.6,360.39,294.14,-369.92,-315.03
359.5,354.39,294.14,-371.92,-315.03
369.4,353.39,294.14,-372.92,-315.03
379.3,350.39,294.14,-373.92,-316.03
389.2,346.39,294.14,-374.92,-313.03
399.0,342.39,292.14,-374.92,-314.03
408.9,339.39,292.14,-374.92,-314.03
418.8,340.39,292.14,-374.92,-314.03
428.7,348.39,298.14,-374.92,-314.03
438.6,360.39,305.14,-375.92,-311.03
448.5,366.39,308.14,-375.92,-311.03
458.4,377.39,311.14,-384.92,-315.03
468.2,390.39,317.14,-384.92,-315.03
478.1,403.39,321.14,-389.92,-324.03
488.0,418.39,325.14,-389.92,-324.03
497.9,429.39,326.14,-366.92,-319.03
507.8,438.39,326.14,-366.92,-319.03
517.7,444.39,325.14,-344.92,-311.03
527.6,452.39,327.14,-344.92,-311.03
537.4,458.39,327.14,-323.92,-304.03
547.3,465.39,327.14,-323.92,-304.03
557.2,473.39,329.14,-303.92,-298.03
567.1,478.39,330.14,-303.92,-298.03
577.0,482.39,332.14,-290.92,-294.03
586.9,487.39,332.14,-290.92,-294.03
596.8,490.39,332.14,-281.92,-290.03
606.6,491.39,332.14,-281.92,-290.03
616.5,491.39,330.14,-282.92,-289.03
626.4,490.39,330.14,-281.92,-289.03
636.3,495.39,331.14,-281.92,-288.03
646.2,492.39,330.14,-281.92,-289.03
656.1,492.39,330.14,-278.92,-284.03
666.0,493.39,330.14,-280.92,-285.03
675.8,493.39,330.14,-283.92,-285.03
685.7,495.39,331.14,-287.92,-286.03
695.6,495.39,331.14,-290.92,-285.03
705.5,498.39,334.14,-292.92,-285.03
715.4,498.39,334.14,-290.92,-284.03
725.3,501.39,334.14,-289.92,-283.03
735.2,501.39,334.14,-288.92,-282.03
745.0,499.39,333.14,-287.92,-281.03
754.9,499.39,333.14,-286.92,-280.03
764.8,495.39,331.14,-288.92,-279.03
774.7,495.39,331.14,-286.92,-279.03
784.6,492.39,329.14,-286.92,-279.03
794.5,488.39,325.14,-283.92,-278.03
804.4,484.39,323.14,-286.92,-277.03
814.2,481.39,322.14,-288.92,-278.03
824.1,476.39,321.14,-289.92,-278.03
834.0,473.39,319.14,-290.92,-277.03
843.9,471.39,318.14,-291.92,-277.03
853.8,467.39,318.14,-293.92,-277.03
863.7,466.39,318.14,-293.92,-276.03
873.6,461.39,316.14,-294.92,-276.03
883.4,457.39,316.14,-294.92,-276.03
893.3,456.39,314.14,-294.92,-276.03
903.2,451.39,314.14,-298.92,-276.03
913.1,449.39,314.14,-300.92,-275.03
923.0,447.39,312.14,-301.92,-275.03
932.9,443.39,314.14,-307.92,-277.03
942.8,442.39,313.14,-309.92,-277.03
952.6,441.39,316.14,-311.92,-276.03
962.5,439.39,318.14,-311.92,-276.03
972.4,439.39,319.14,-313.92,-277.03
982.3,439.39,322.14,-315.92,-277.03
992.2,439.39,324.14,-319.92,-276.03
1002.1,438.39,325.14,-319.92,-276.03
1012.0,436.39,327.14,-323.92,-277.03
1021.8,434.39,328.14,-325.92,-275.03
1031.7,433.39,328.14,-326.92,-277.03
1041.6,430.39,328.14,-326.92,-275.03
1051.5,426.39,329.14,-328.92,-276.03
1061.4,424.39,329.14,-330.92,-276.03
1071.3,423.39,328.14,-333.92,-276.03
1081.2,417.39,324.14,-339.92,-278.03
1091.0,414.39,323.14,-341.92,-278.03
1100.9,408.39,321.14,-344.92,-278.03
1110.8,403.39,319.14,-346.92,-279.03
1120.7,399.39,318.14,-348.92,-279.03
1130.6,393.39,316.14,-348.92,-279.03
1140.5,386.39,314.14,-349.92,-278.03
1150.4,380.39,313.14,-348.92,-279.03
1160.2,376.39,306.14,-351.92,-277.03
1170.1,387.39,313.14,-348.92,-275.03
1180.0,391.39,315.14,-349.92,-275.03
1189.9,397.39,314.14,-349.92,-275.03
1199.8,408.39,316.14,-355.92,-275.03
1209.7,424.39,319.14,-367.92,-283.03
1219.6,437.39,322.14,-364.92,-285.03
1229.4,453.39,325.14,-352.92,-284.03
1239.3,462.39,326.14,-342.92,-284.03
1249.2,471.39,325.14,-330.92,-280.03
1259.1,481.39,325.14,-318.92,-278.03
1269.0,488.39,325.14,-311.92,-275.03
1278.9,497.39,324.14,-299.92,-272.03
1288.8,504.39,326.14,-289.92,-270.03
1298.6,508.39,325.14,-280.92,-266.03
1308.5,516.39,328.14,-274.92,-263.03
1318.4,523.39,328.14,-266.92,-263.03
1328.3,531.39,329.14,-261.92,-260.03
1338.2,533.39,329.14,-260.92,-260.03
1348.1,537.39,329.14,-259.92,-259.03
1358.0,538.39,330.14,-255.92,-258.03
1367.8,538.39,330.14,-256.92,-257.03
1377.7,541.39,328.14,-256.92,-256.03
1387.6,541.39,328.14,-253.92,-255.03
1397.5,545.39,329.14,-251.92,-252.03
1407.4,545.39,329.14,-250.92,-251.03
1417.3,542.39,327.14,-250.92,-251.03
1427.1,542.39,327.14,-255.92,-250.03
1437.0,543.39,329.14,-255.92,-250.03
1446.9,543.39,329.14,-254.92,-248.03
1456.8,547.39,330.14,-254.92,-248.03
1466.7,547.39,330.14,-252.92,-247.03
1476.6,547.39,329.14,-252.92,-247.03
1486.5,547.39,329.14,-256.92,-247.03
1496.4,544.39,328.14,-256.92,-247.03
1506.2,544.39,328.14,-260.92,-248.03
1516.1,540.39,326.14,-260.92,-248.03
1526.0,536.39,323.14,-264.92,-249.03
1535.9,534.39,324.14,-264.92,-249.03
1545.8,532.39,321.14,-270.92,-251.03
1555.7,526.39,319.14,-270.92,-251.03
1565.5,521.39,316.14,-276.92,-253.03
1575.4,517.39,314.14,-276.92,-253.03
1585.3,510.39,310.14,-280.92,-255.03
1595.2,504.39,305.14,-280.92,-255.03
1605.1,500.39,303.14,-280.92,-253.03
1615.0,495.39,301.14,-280.92,-253.03
1624.9,491.39,299.14,-282.92,-254.03
1634.8,487.39,296.14,-287.92,-254.03
1644.6,481.39,293.14,-288.92,-255.03
1654.5,476.39,291.14,-291.92,-258.03
1664.4,469.39,288.14,-293.92,-257.03
1674.3,463.39,284.14,-299.92,-259.03
1684.2,459.39,283.14,-301.92,-259.03
1694.1,454.39,280.14,-303.92,-260.03
1703.9,447.39,277.14,-306.92,-260.03
1713.8,444.39,274.14,-309.92,-261.03
1723.7,437.39,273.14,-313.92,-262.03
1733.6,432.39,271.14,-314.92,-264.03
1743.5,426.39,266.14,-317.92,-264.03
1753.4,418.39,261.14,-321.92,-265.03
1763.3,413.39,260.14,-323.92,-265.03
1773.1,411.39,256.14,-327.92,-266.03
1783.0,402.39,254.14,-329.92,-267.03
1792.9,396.39,249.14,-331.92,-268.03
1802.8,387.39,245.14,-334.92,-269.03
1812.7,381.39,239.14,-336.92,-269.03
1822.6,374.39,236.14,-340.92,-269.03
1832.5,365.39,232.14,-341.92,-270.03
1842.3,356.39,227.14,-344.92,-272.03
1852.2,348.39,220.14,-347.92,-271.03
1862.1,340.39,217.14,-351.92,-273.03
1872.0,334.39,215.14,-355.92,-273.03
1881.9,332.39,212.14,-355.92,-273.03
1891.8,335.39,213.14,-356.92,-274.03
1901.7,345.39,218.14,-356.92,-272.03
1911.5,359.39,225.14,-356.92,-273.03
1921.4,371.39,227.14,-363.92,-275.03
1931.3,384.39,230.14,-371.92,-280.03
1941.2,398.39,231.14,-383.92,-287.03
1951.1,412.39,235.14,-373.92,-286.03
1961.0,427.39,238.14,-359.92,-284.03
1970.9,439.39,239.14,-348.92,-283.03
1980.7,449.39,240.14,-339.92,-281.03
1990.6,458.39,242.14,-327.92,-279.03
2000.5,469.39,243.14,-315.92,-275.03
2010.4,477.39,245.14,-303.92,-273.03
2020.3,484.39,245.14,-292.92,-267.03
2030.2,492.39,248.14,-282.92,-267.03
2040.1,500.39,248.14,-278.92,-263.03
2049.9,508.39,251.14,-275.92,-265.03
2059.8,511.39,250.14,-272.92,-263.03
2069.7,514.39,248.14,-271.92,-262.03
2079.6,516.39,248.14,-269.92,-262.03
2089.5,515.39,246.14,-269.92,-262.03
2099.4,515.39,246.14,-267.92,-259.03
2109.3,512.39,241.14,-266.92,-260.03
2119.1,512.39,241.14,-265.92,-258.03
2129.0,504.39,236.14,-266.92,-258.03
2138.9,504.39,236.14,-266.92,-257.03
2148.8,499.39,232.14,-264.92,-258.03
2158.7,499.39,232.14,-266.92,-258.03
2168.6,490.39,226.14,-268.92,-258.03
2178.5,490.39,226.14,-268.92,-258.03
2188.3,485.39,224.14,-274.92,-259.03
2198.2,485.39,224.14,-276.92,-260.03
2208.1,477.39,221.14,-280.92,-261.03
2218.0,477.39,221.14,-284.92,-262.03
2227.9,466.39,214.14,-285.92,-263.03
2237.8,466.39,214.14,-285.92,-264.03
2247.7,461.39,212.14,-286.92,-263.03
2257.5,456.39,209.14,-290.92,-265.03
2267.4,450.39,206.14,-291.92,-264.03
2277.3,443.39,204.14,-289.92,-262.03
2287.2,439.39,200.14,-291.92,-264.03
2297.1,432.39,199.14,-293.92,-266.03
2307.0,427.39,197.14,-295.92,-267.03
2316.9,419.39,191.14,-297.92,-266.03
2326.7,414.39,190.14,-297.92,-266.03
2336.6,405.39,184.14,-301.92,-266.03
2346.5,397.39,181.14,-304.92,-268.03
2356.4,390.39,177.14,-304.92,-268.03
2366.3,384.39,174.14,-310.92,-270.03
2376.2,373.39,169.14,-313.92,-271.03
2386.1,367.39,167.14,-316.92,-272.03
2395.9,361.39,163.14,-321.92,-274.03
2405.8,352.39,159.14,-326.92,-276.03
2415.7,347.39,158.14,-329.92,-276.03
2425.6,339.39,154.14,-333.92,-277.03
2435.5,332.39,151.14,-336.92,-278.03
2445.4,324.39,148.14,-336.92,-278.03
2455.3,317.39,145.14,-343.92,-280.03
2465.1,311.39,141.14,-343.92,-280.03
2475.0,304.39,138.14,-350.92,-284.03
2484.9,298.39,137.14,-350.92,-284.03
2494.8,291.39,133.14,-356.92,-285.03
2504.7,284.39,131.14,-356.92,-285.03
2514.6,281.39,130.14,-362.92,-286.03
2524.5,276.39,128.14,-362.92,-286.03
2534.3,270.39,126.14,-367.92,-288.03
2544.2,265.39,124.14,-367.92,-288.03
2554.1,257.39,121.14,-371.92,-290.03
2564.0,250.39,118.14,-371.92,-290.03
2573.9,244.39,115.14,-381.92,-293.03
2583.8,238.39,111.14,-381.92,-293.03
2593.7,227.39,108.14,-390.92,-295.03
2603.5,219.39,106.14,-390.92,-295.03
2613.4,217.39,104.14,-394.92,-295.03
2623.3,215.39,103.14,-394.92,-295.03
2633.2,222.39,107.14,-398.92,-298.03
2643.1,229.39,114.14,-397.92,-297.03
2653.0,237.39,118.14,-399.92,-299.03
2662.9,240.39,120.14,-408.92,-302.03
2672.7,242.39,117.14,-419.92,-308.03
2682.6,243.39,119.14,-423.92,-314.03
2692.5,253.39,122.14,-415.92,-313.03
2702.4,265.39,126.14,-400.92,-312.03
2712.3,278.39,131.14,-388.92,-308.03
2722.2,290.39,132.14,-377.92,-307.03
2732.1,302.39,137.14,-369.92,-305.03
2741.9,316.39,142.14,-357.92,-302.03
2751.8,328.39,146.14,-347.92,-300.03
2761.7,343.39,151.14,-337.92,-297.03
2771.6,355.39,157.14,-332.92,-294.03
2781.5,366.39,160.14,-329.92,-293.03
2791.4,376.39,165.14,-324.92,-292.03
2801.3,384.39,166.14,-320.92,-293.03
2811.1,393.39,170.14,-319.92,-292.03
2821.0,396.39,170.14,-316.92,-291.03
2830.9,396.39,170.14,-316.92,-290.03
2840.8,407.39,172.14,-314.92,-289.03
2850.7,407.39,172.14,-313.92,-290.03
2860.6,410.39,175.14,-313.92,-290.03
2870.5,410.39,175.14,-316.92,-290.03
2880.3,411.39,175.14,-315.92,-291.03
2890.2,411.39,175.14,-320.92,-292.03
2900.1,412.39,173.14,-322.92,-292.03
2910.0,412.39,173.14,-328.92,-292.03
2919.9,409.39,173.14,-328.92,-293.03
2929.8,409.39,173.14,-324.92,-292.03
2939.7,406.39,173.14,-327.92,-292.03
2949.5,406.39,173.14,-327.92,-291.03
2959.4,404.39,171.14,-327.92,-292.03
2969.3,400.39,169.14,-327.92,-292.03
2979.2,397.39,169.14,-329.92,-293.03
2989.1,394.39,168.14,-330.92,-293.03
2999.0,393.39,168.14,-333.92,-294.03
3008.9,390.39,168.14,-335.92,-295.03
3018.7,389.39,166.14,-338.92,-295.03
3028.6,390.39,167.14,-341.92,-296.03
3038.5,389.39,170.14,-342.92,-295.03
3048.4,384.39,169.14,-341.92,-295.03
3058.3,381.39,172.14,-343.92,-295.03
3068.2,378.39,172.14,-342.92,-295.03
3078.1,374.39,172.14,-347.92,-295.03
3087.9,369.39,170.14,-346.92,-294.03
3097.8,367.39,168.14,-348.92,-294.03
3107.7,363.39,168.14,-351.92,-295.03
3117.6,359.39,165.14,-354.92,-295.03
3127.5,357.39,164.14,-356.92,-296.03
3137.4,352.39,161.14,-360.92,-296.03
3147.3,348.39,162.14,-363.92,-297.03
3157.1,342.39,160.14,-364.92,-295.03
3167.0,336.39,158.14,-366.92,-297.03
3176.9,329.39,156.14,-367.92,-297.03
3186.8,323.39,153.14,-369.92,-298.03
3196.7,312.39,151.14,-368.92,-298.03
3206.6,304.39,148.14,-374.92,-297.03
3216.5,296.39,145.14,-372.92,-298.03
3226.3,283.39,140.14,-373.92,-298.03
3236.2,274.39,137.14,-375.92,-299.03
3246.1,261.39,129.14,-380.92,-299.03
3256.0,251.39,125.14,-381.92,-300.03
3265.9,237.39,118.14,-388.92,-301.03
3275.8,223.39,111.14,-391.92,-302.03
3285.7,206.39,99.145,-395.92,-302.03
3295.5,180.39,83.145,-398.92,-302.03
3305.4,152.39,67.145,-400.92,-303.03
3315.3,122.39,49.145,-400.92,-304.03
3325.2,93.394,31.145,-400.92,-303.03
3335.1,64.394,13.145,-402.92,-303.03
3345.0,37.394,-1.8551,-403.92,-302.03
3354.9,14.394,-15.855,-407.92,-303.03
3364.7,-4.6062,-26.855,-407.92,-304.03
3374.6,-18.606,-37.855,-407.92,-303.03
3384.5,-19.606,-40.855,-409.92,-303.03
3394.4,-20.606,-42.855,-408.92,-302.03
3404.3,-21.606,-48.855,-411.92,-302.03
3414.2,-22.606,-53.855,-411.92,-302.03
3424.1,-26.606,-61.855,-424.92,-312.03
3433.9,-32.606,-67.855,-424.92,-312.03
3443.8,-27.606,-66.855,-401.92,-309.03
3453.7,-22.606,-68.855,-401.92,-309.03
3463.6,-20.606,-68.855,-372.92,-302.03
3473.5,-21.606,-70.855,-372.92,-302.03
3483.4,-21.606,-75.855,-350.92,-297.03
3493.3,-18.606,-75.855,-350.92,-297.03
3503.1,-19.606,-76.855,-333.92,-290.03
3513.0,-23.606,-79.855,-333.92,-290.03
3522.9,-26.606,-81.855,-321.92,-285.03
3532.8,-25.606,-82.855,-321.92,-285.03
3542.7,-25.606,-82.855,-312.92,-282.03
3552.6,-31.606,-87.855,-312.92,-282.03
3562.5,-31.606,-87.855,-310.92,-282.03
3572.3,-44.606,-95.855,-310.92,-282.03
3582.2,-44.606,-95.855,-307.92,-278.03
3592.1,-54.606,-101.86,-307.92,-278.03
3602.0,-54.606,-101.86,-303.92,-276.03
3611.9,-62.606,-100.86,-303.92,-276.03
3621.8,-62.606,-100.86,-298.92,-274.03
3631.7,-59.606,-100.86,-298.92,-276.03
3641.5,-59.606,-100.86,-299.92,-274.03
3651.4,-65.606,-101.86,-300.92,-274.03
3661.3,-65.606,-101.86,-299.92,-274.03
3671.2,-70.606,-101.86,-300.92,-274.03
3681.1,-70.606,-101.86,-301.92,-273.03
3691.0,-75.606,-103.86,-300.92,-274.03
3700.9,-76.606,-102.86,-300.92,-273.03
3710.7,-81.606,-103.86,-303.92,-275.03
3720.6,-84.606,-105.86,-303.92,-276.03
3730.5,-89.606,-105.86,-306.92,-275.03
3740.4,-91.606,-106.86,-309.92,-276.03
3750.3,-91.606,-105.86,-309.92,-275.03
3760.2,-91.606,-102.86,-310.92,-276.03
3770.1,-92.606,-102.86,-313.92,-276.03
3779.9,-91.606,-98.855,-316.92,-278.03
3789.8,-91.606,-93.855,-320.92,-278.03
3799.7,-88.606,-91.855,-321.92,-278.03
3809.6,-87.606,-88.855,-322.92,-279.03
3819.5,-86.606,-86.855,-324.92,-278.03
3829.4,-83.606,-83.855,-325.92,-279.03
3839.3,-82.606,-80.855,-329.92,-282.03
3849.1,-80.606,-80.855,-330.92,-279.03
3859.0,-80.606,-80.855,-331.92,-282.03
3868.9,-85.606,-80.855,-335.92,-282.03
3878.8,-89.606,-82.855,-335.92,-281.03
3888.7,-93.606,-83.855,-337.92,-281.03
3898.6,-94.606,-82.855,-337.92,-282.03
3908.5,-94.606,-81.855,-338.92,-281.03
3918.3,-95.606,-80.855,-339.92,-280.03
3928.2,-95.606,-77.855,-343.92,-280.03
3938.1,-95.606,-75.855,-343.92,-281.03
3948.0,-91.606,-75.855,-347.92,-282.03
3957.9,-90.606,-73.855,-346.92,-283.03
3967.8,-88.606,-71.855,-350.92,-284.03
3977.6,-87.606,-68.855,-353.92,-283.03
3987.5,-90.606,-69.855,-356.92,-285.03
3997.4,-96.606,-73.855,-359.92,-286.03
4007.3,-104.61,-77.855,-362.92,-285.03
4017.2,-112.61,-80.855,-364.92,-286.03
4027.1,-122.61,-86.855,-368.92,-286.03
4037.0,-134.61,-91.855,-373.92,-287.03
4046.9,-145.61,-95.855,-374.92,-288.03
4056.7,-157.61,-101.86,-375.92,-289.03
4066.6,-170.61,-108.86,-379.92,-289.03
4076.5,-187.61,-117.86,-382.92,-289.03
4086.4,-199.61,-123.86,-384.92,-291.03
4096.3,-216.61,-129.86,-385.92,-290.03
4106.2,-230.61,-137.86,-387.92,-292.03
4116.0,-236.61,-145.86,-391.92,-292.03
4125.9,-236.61,-146.86,-391.92,-291.03
4135.8,-233.61,-145.86,-394.92,-292.03
4145.7,-227.61,-140.86,-393.92,-292.03
4155.6,-215.61,-135.86,-399.92,-293.03
4165.5,-202.61,-131.86,-411.92,-301.03
4175.4,-192.61,-128.86,-413.92,-305.03
4185.3,-184.61,-124.86,-403.92,-306.03
4195.1,-175.61,-122.86,-389.92,-302.03
4205.0,-170.61,-120.86,-373.92,-299.03
4214.9,-165.61,-120.86,-361.92,-295.03
4224.8,-163.61,-122.86,-347.92,-293.03
4234.7,-162.61,-124.86,-337.92,-290.03
4244.6,-163.61,-125.86,-328.92,-287.03
4254.4,-162.61,-128.86,-324.92,-287.03
4264.3,-164.61,-130.86,-318.92,-282.03
4274.2,-164.61,-130.86,-314.92,-281.03
4284.1,-160.61,-130.86,-311.92,-281.03
4294.0,-160.61,-130.86,-309.92,-279.03
4303.9,-162.61,-132.86,-308.92,-278.03
4313.8,-162.61,-132.86,-307.92,-277.03
4323.6,-151.61,-124.86,-306.92,-278.03
4333.5,-151.61,-124.86,-306.92,-275.03
4343.4,-138.61,-114.86,-303.92,-274.03
4353.3,-138.61,-114.86,-305.92,-274.03
4363.2,-138.61,-111.86,-306.92,-273.03
4373.1,-138.61,-111.86,-309.92,-274.03
4383.0,-132.61,-108.86,-311.92,-274.03
4392.8,-132.61,-108.86,-310.92,-273.03
4402.7,-137.61,-109.86,-309.92,-272.03
4412.6,-137.61,-109.86,-308.92,-271.03
4422.5,-141.61,-110.86,-308.92,-271.03
4432.4,-144.61,-112.86,-307.92,-270.03
4442.3,-151.61,-114.86,-307.92,-270.03
4452.2,-156.61,-115.86,-308.92,-270.03
4462.0,-160.61,-116.86,-308.92,-270.03
4471.9,-165.61,-120.86,-307.92,-269.03
4481.8,-171.61,-121.86,-307.92,-269.03
4491.7,-175.61,-123.86,-308.92,-269.03
4501.6,-181.61,-126.86,-308.92,-269.03
4511.5,-185.61,-129.86,-308.92,-267.03
4521.4,-189.61,-132.86,-308.92,-267.03
4531.2,-193.61,-133.86,-308.92,-265.03
4541.1,-199.61,-134.86,-308.92,-265.03
4551.0,-202.61,-135.86,-308.92,-264.03
4560.9,-205.61,-136.86,-308.92,-264.03
4570.8,-207.61,-134.86,-312.92,-263.03
4580.7,-210.61,-135.86,-312.92,-263.03
4590.6,-212.61,-134.86,-311.92,-263.03
4600.4,-215.61,-135.86,-314.92,-262.03
4610.3,-217.61,-134.86,-315.92,-263.03
4620.2,-220.61,-134.86,-317.92,-263.03
4630.1,-223.61,-134.86,-320.92,-265.03
4640.0,-227.61,-134.86,-320.92,-263.03
4649.9,-232.61,-135.86,-321.92,-263.03
4659.8,-238.61,-134.86,-321.92,-263.03
4669.6,-241.61,-135.86,-322.92,-262.03
4679.5,-245.61,-137.86,-321.92,-261.03
4689.4,-251.61,-139.86,-323.92,-262.03
4699.3,-255.61,-141.86,-325.92,-262.03
4709.2,-265.61,-145.86,-325.92,-261.03
4719.1,-273.61,-148.86,-330.92,-262.03
4729.0,-279.61,-151.86,-332.92,-261.03
4738.8,-287.61,-156.86,-333.92,-261.03
4748.7,-294.61,-158.86,-335.92,-259.03
4758.6,-303.61,-161.86,-337.92,-262.03
4768.5,-308.61,-164.86,-339.92,-260.03
4778.4,-315.61,-167.86,-342.92,-262.03
4788.3,-319.61,-169.86,-345.92,-263.03
4798.2,-325.61,-174.86,-348.92,-264.03
4808.0,-330.61,-171.86,-350.92,-266.03
4817.9,-332.61,-173.86,-353.92,-263.03
4827.8,-337.61,-172.86,-353.92,-264.03
4837.7,-338.61,-173.86,-356.92,-265.03
4847.6,-338.61,-175.86,-357.92,-266.03
4857.5,-324.61,-167.86,-358.92,-265.03
4867.4,-313.61,-163.86,-360.92,-265.03
4877.2,-300.61,-160.86,-361.92,-265.03
4887.1,-288.61,-155.86,-362.92,-265.03
4897.0,-279.61,-154.86,-373.92,-274.03
4906.9,-276.61,-156.86,-374.92,-278.03
4916.8,-266.61,-153.86,-362.92,-275.03
4926.7,-258.61,-152.86,-348.92,-272.03
4936.6,-253.61,-152.86,-335.92,-268.03
4946.4,-246.61,-151.86,-322.92,-265.03
4956.3,-242.61,-150.86,-310.92,-263.03
4966.2,-235.61,-149.86,-302.92,-260.03
4976.1,-229.61,-145.86,-291.92,-255.03
4986.0,-223.61,-143.86,-283.92,-253.03
4995.9,-215.61,-140.86,-278.92,-250.03
5005.8,-215.61,-140.86,-274.92,-249.03
5015.6,-201.61,-132.86,-269.92,-247.03
5025.5,-201.61,-132.86,-267.92,-245.03
5035.4,-183.61,-121.86,-263.92,-243.03
5045.3,-183.61,-121.86,-263.92,-243.03
5055.2,-167.61,-113.86,-264.92,-244.03
5065.1,-167.61,-113.86,-262.92,-242.03
5075.0,-164.61,-104.86,-263.92,-241.03
5084.8,-164.61,-104.86,-263.92,-239.03
5094.7,-192.61,-139.86,-265.92,-241.03
5104.6,-192.61,-139.86,-269.92,-241.03
5114.5,-201.61,-144.86,-271.92,-241.03
5124.4,-201.61,-144.86,-271.92,-239.03
5134.3,-210.61,-150.86,-268.92,-238.03
5144.2,-210.61,-150.86,-266.92,-237.03
5154.0,-214.61,-152.86,-266.92,-236.03
5163.9,-215.61,-153.86,-263.92,-236.03
5173.8,-214.61,-153.86,-263.92,-235.03
5183.7,-218.61,-154.86,-262.92,-232.03
5193.6,-222.61,-155.86,-257.92,-230.03
5203.5,-226.61,-157.86,-257.92,-231.03
5213.4,-228.61,-160.86,-259.92,-230.03
5223.2,-233.61,-162.86,-260.92,-231.03
5233.1,-237.61,-165.86,-263.92,-229.03
5243.0,-242.61,-168.86,-261.92,-229.03
5252.9,-247.61,-171.86,-264.92,-229.03
5262.8,-251.61,-173.86,-262.92,-228.03
5272.7,-254.61,-174.86,-259.92,-228.03
5282.6,-260.61,-176.86,-264.92,-228.03
5292.4,-264.61,-177.86,-264.92,-225.03
5302.3,-272.61,-179.86,-264.92,-227.03
5312.2,-276.61,-184.86,-265.92,-225.03
5322.1,-282.61,-183.86,-265.92,-225.03
5332.0,-285.61,-186.86,-267.92,-224.03
5341.9,-291.61,-187.86,-270.92,-223.03
5351.8,-297.61,-188.86,-272.92,-224.03
5361.6,-302.61,-190.86,-272.92,-224.03
5371.5,-306.61,-190.86,-273.92,-225.03
5381.4,-315.61,-191.86,-276.92,-225.03
5391.3,-321.61,-196.86,-279.92,-224.03
5401.2,-329.61,-196.86,-280.92,-226.03
5411.1,-334.61,-198.86,-281.92,-226.03
5421.0,-336.61,-199.86,-283.92,-227.03
5430.8,-332.61,-196.86,-283.92,-227.03
5440.7,-318.61,-188.86,-291.92,-227.03
5450.6,-293.61,-174.86,-291.92,-227.03
5460.5,-273.61,-162.86,-298.92,-228.03
5470.4,-258.61,-156.86,-298.92,-228.03
5480.3,-246.61,-152.86,-302.92,-230.03
5490.2,-239.61,-147.86,-302.92,-230.03
5500.0,-236.61,-145.86,-307.92,-231.03
5509.9,-229.61,-140.86,-307.92,-231.03
5519.8,-228.61,-138.86,-311.92,-232.03
5529.7,-226.61,-135.86,-311.92,-232.03
5539.6,-226.61,-134.86,-316.92,-232.03
5549.5,-221.61,-128.86,-316.92,-232.03
5559.4,-212.61,-118.86,-324.92,-236.03
5569.2,-210.61,-115.86,-324.92,-236.03
5579.1,-201.61,-108.86,-329.92,-238.03
5589.0,-192.61,-99.855,-329.92,-238.03
5598.9,-182.61,-90.855,-339.92,-242.03
5608.8,-168.61,-84.855,-339.92,-242.03
5618.7,-157.61,-79.855,-352.92,-253.03
5628.6,-153.61,-81.855,-352.92,-253.03
5638.4,-151.61,-83.855,-343.92,-254.03
5648.3,-155.61,-91.855,-330.92,-253.03
5658.2,-167.61,-100.86,-317.92,-249.03
5668.1,-183.61,-112.86,-303.92,-246.03
5678.0,-203.61,-130.86,-292.92,-243.03
5687.9,-225.61,-145.86,-279.92,-239.03
5697.8,-243.61,-159.86,-270.92,-234.03
5707.6,-260.61,-177.86,-264.92,-231.03
5717.5,-279.61,-191.86,-261.92,-231.03
5727.4,-293.61,-203.86,-256.92,-230.03
5737.3,-293.61,-203.86,-256.92,-228.03
5747.2,-314.61,-224.86,-256.92,-226.03
5757.1,-314.61,-224.86,-254.92,-226.03
5767.0,-324.61,-236.86,-257.92,-226.03
5776.8,-324.61,-236.86,-256.92,-226.03
5786.7,-322.61,-240.86,-257.92,-226.03
5796.6,-322.61,-240.86,-258.92,-224.03
5806.5,-311.61,-238.86,-257.92,-223.03
5816.4,-311.61,-238.86,-260.92,-222.03
5826.3,-301.61,-238.86,-260.92,-223.03
5836.2,-301.61,-238.86,-262.92,-224.03
5846.0,-273.61,-224.86,-261.92,-223.03
5855.9,-273.61,-224.86,-259.92,-223.03
5865.8,-255.61,-212.86,-257.92,-221.03
5875.7,-255.61,-212.86,-255.92,-221.03
5885.6,-239.61,-206.86,-254.92,-220.03
5895.5,-244.61,-209.86,-254.92,-220.03
5905.4,-258.61,-217.86,-255.92,-220.03
5915.2,-253.61,-215.86,-258.92,-220.03
5925.1,-253.61,-217.86,-259.92,-221.03
5935.0,-255.61,-220.86,-261.92,-220.03
5944.9,-255.61,-218.86,-263.92,-221.03
5954.8,-252.61,-217.86,-265.92,-222.03
5964.7,-240.61,-207.86,-267.92,-223.03
5974.6,-226.61,-197.86,-272.92,-223.03
5984.4,-206.61,-183.86,-274.92,-223.03
5994.3,-185.61,-166.86,-277.92,-223.03
6004.2,-164.61,-150.86,-278.92,-224.03
6014.1,-145.61,-134.86,-280.92,-224.03
6024.0,-130.61,-120.86,-280.92,-225.03
6033.9,-116.61,-111.86,-283.92,-226.03
6043.8,-110.61,-107.86,-286.92,-227.03
6053.6,-108.61,-103.86,-288.92,-227.03
6063.5,-103.61,-98.855,-291.92,-227.03
6073.4,-99.606,-97.855,-292.92,-226.03
6083.3,-101.61,-95.855,-294.92,-229.03
6093.2,-104.61,-97.855,-295.92,-228.03
6103.1,-108.61,-100.86,-297.92,-227.03
6113.0,-117.61,-105.86,-296.92,-227.03
6122.8,-140.61,-119.86,-295.92,-226.03
6132.7,-155.61,-127.86,-297.92,-226.03
6142.6,-166.61,-135.86,-299.92,-227.03
6152.5,-175.61,-140.86,-301.92,-226.03
6162.4,-180.61,-141.86,-305.92,-228.03
6172.3,-177.61,-139.86,-306.92,-228.03
6182.2,-174.61,-137.86,-309.92,-230.03
6192.0,-170.61,-135.86,-314.92,-231.03
6201.9,-171.61,-134.86,-317.92,-233.03
6211.8,-166.61,-129.86,-320.92,-233.03
6221.7,-163.61,-125.86,-321.92,-233.03
6231.6,-166.61,-124.86,-320.92,-234.03
6241.5,-166.61,-122.86,-323.92,-234.03
6251.4,-169.61,-121.86,-323.92,-233.03
6261.2,-174.61,-122.86,-325.92,-234.03
6271.1,-167.61,-119.86,-330.92,-235.03
6281.0,-157.61,-113.86,-332.92,-234.03
6290.9,-145.61,-106.86,-336.92,-237.03
6300.8,-137.61,-104.86,-344.92,-242.03
6310.7,-127.61,-102.86,-341.92,-244.03
6320.6,-115.61,-98.855,-328.92,-243.03
6330.4,-104.61,-94.855,-312.92,-240.03
6340.3,-91.606,-90.855,-299.92,-234.03
6350.2,-84.606,-89.855,-282.92,-231.03
6360.1,-76.606,-89.855,-271.92,-226.03
6370.0,-68.606,-86.855,-263.92,-223.03
6379.9,-64.606,-85.855,-253.92,-221.03
6389.8,-58.606,-84.855,-247.92,-217.03
6399.6,-56.606,-83.855,-239.92,-214.03
6409.5,-49.606,-82.855,-233.92,-210.03
6419.4,-44.606,-80.855,-233.92,-210.03
6429.3,-39.606,-79.855,-224.92,-206.03
6439.2,-39.606,-79.855,-224.92,-206.03
6449.1,-38.606,-79.855,-221.92,-204.03
6459.0,-41.606,-83.855,-221.92,-204.03
6468.8,-41.606,-83.855,-219.92,-202.03
6478.7,-39.606,-81.855,-219.92,-202.03
6488.6,-39.606,-81.855,-219.92,-202.03
6498.5,-35.606,-78.855,-219.92,-202.03
6508.4,-35.606,-78.855,-224.92,-201.03
6518.3,-35.606,-75.855,-224.92,-201.03
6528.2,-35.606,-75.855,-229.92,-203.03
6538.0,-36.606,-74.855,-229.92,-203.03
6547.9,-36.606,-74.855,-230.92,-202.03
6557.8,-29.606,-69.855,-230.92,-202.03
6567.7,-29.606,-69.855,-230.92,-200.03
6577.6,-17.606,-57.855,-230.92,-200.03
6587.5,-17.606,-57.855,-227.92,-198.03
6597.4,2.3938,-45.855,-227.92,-198.03
6607.2,2.3938,-45.855,-224.92,-199.03
6617.1,12.394,-39.855,-227.92,-199.03
6627.0,21.394,-31.855,-228.92,-199.03
6636.9,32.394,-26.855,-230.92,-199.03
6646.8,39.394,-22.855,-230.92,-199.03
6656.7,46.394,-16.855,-231.92,-200.03
6666.5,51.394,-13.855,-234.92,-199.03
6676.4,57.394,-8.8551,-235.92,-201.03
6686.3,63.394,-2.8551,-239.92,-203.03
6696.2,68.394,0.14494,-241.92,-202.03
6706.1,73.394,2.1449,-245.92,-203.03
6716.0,74.394,8.1449,-246.92,-203.03
6725.9,79.394,12.145,-249.92,-203.03
6735.8,83.394,17.145,-250.92,-203.03
6745.6,86.394,22.145,-252.92,-203.03
6755.5,90.394,26.145,-253.92,-204.03
6765.4,92.394,32.145,-255.92,-203.03
6775.3,92.394,35.145,-259.92,-206.03
6785.2,97.394,42.145,-261.92,-206.03
6795.1,102.39,47.145,-263.92,-206.03
6804.9,106.39,51.145,-264.92,-204.03
6814.8,107.39,58.145,-265.92,-204.03
6824.7,108.39,60.145,-267.92,-205.03
6834.6,110.39,61.145,-270.92,-205.03
6844.5,107.39,62.145,-270.92,-204.03
6854.4,107.39,62.145,-272.92,-203.03
6864.3,100.39,62.145,-274.92,-205.03
6874.1,95.394,59.145,-275.92,-205.03
6884.0,90.394,56.145,-278.92,-205.03
6893.9,82.394,53.145,-280.92,-206.03
6903.8,80.394,52.145,-280.92,-204.03
6913.7,71.394,49.145,-278.92,-201.03
6923.6,64.394,45.145,-279.92,-202.03
6933.5,64.394,46.145,-280.92,-202.03
6943.3,76.394,51.145,-283.92,-202.03
6953.2,89.394,58.145,-285.92,-202.03
6963.1,98.394,61.145,-286.92,-204.03
6973.0,108.39,61.145,-293.92,-205.03
6982.9,117.39,64.145,-303.92,-214.03
6992.8,127.39,69.145,-305.92,-217.03
7002.7,136.39,71.145,-294.92,-215.03
7012.5,149.39,73.145,-282.92,-214.03
7022.4,154.39,72.145,-266.92,-209.03
7032.3,158.39,68.145,-252.92,-206.03
7042.2,155.39,66.145,-240.92,-201.03
7052.1,160.39,67.145,-229.92,-197.03
7062.0,162.39,67.145,-216.92,-192.03
7071.9,167.39,68.145,-208.92,-189.03
7081.7,168.39,67.145,-203.92,-186.03
7091.6,175.39,67.145,-196.92,-183.03
7101.5,178.39,71.145,-195.92,-181.03
7111.4,182.39,73.145,-194.92,-183.03
7121.3,181.39,73.145,-194.92,-183.03
7131.2,181.39,73.145,-198.92,-183.03
7141.1,180.39,74.145,-199.92,-184.03
7150.9,181.39,75.145,-201.92,-183.03
7160.8,181.39,74.145,-200.92,-181.03
7170.7,178.39,76.145,-199.92,-180.03
7180.6,177.39,73.145,-199.92,-179.03
7190.5,175.39,71.145,-202.92,-181.03
7200.4,175.39,71.145,-203.92,-179.03
7210.3,179.39,74.145,-200.92,-179.03
7220.1,179.39,74.145,-198.92,-178.03
7230.0,177.39,74.145,-198.92,-177.03
7239.9,177.39,74.145,-199.92,-177.03
7249.8,175.39,73.145,-200.92,-176.03
7259.7,175.39,73.145,-201.92,-178.03
7269.6,172.39,72.145,-201.92,-177.03
7279.5,172.39,72.145,-205.92,-180.03
7289.3,166.39,71.145,-210.92,-180.03
7299.2,166.39,71.145,-209.92,-179.03
7309.1,162.39,69.145,-211.92,-180.03
7319.0,162.39,69.145,-212.92,-180.03
7328.9,158.39,68.145,-215.92,-181.03
7338.8,154.39,66.145,-214.92,-180.03
7348.7,151.39,67.145,-215.92,-180.03
7358.5,148.39,64.145,-215.92,-178.03
7368.4,146.39,65.145,-213.92,-177.03
7378.3,142.39,63.145,-214.92,-179.03
7388.2,137.39,61.145,-214.92,-179.03
7398.1,135.39,61.145,-218.92,-178.03
7408.0,129.39,60.145,-218.92,-178.03
7417.9,127.39,59.145,-227.92,-181.03
7427.7,122.39,57.145,-227.92,-181.03
7437.6,120.39,56.145,-232.92,-181.03
7447.5,113.39,55.145,-232.92,-181.03
7457.4,108.39,54.145,-236.92,-184.03
7467.3,106.39,52.145,-236.92,-184.03
7477.2,102.39,50.145,-240.92,-182.03
7487.1,96.394,48.145,-240.92,-182.03
7496.9,89.394,45.145,-243.92,-183.03
7506.8,83.394,45.145,-243.92,-183.03
7516.7,79.394,43.145,-242.92,-181.03
7526.6,74.394,41.145,-242.92,-181.03
7536.5,69.394,39.145,-244.92,-180.03
7546.4,66.394,37.145,-244.92,-180.03
7556.3,62.394,37.145,-248.92,-181.03
7566.1,59.394,38.145,-248.92,-181.03
7576.0,58.394,39.145,-249.92,-179.03
7585.9,54.394,37.145,-248.92,-179.03
7595.8,57.394,38.145,-250.92,-179.03
7605.7,63.394,39.145,-250.92,-178.03
7615.6,79.394,47.145,-249.92,-178.03
7625.5,95.394,54.145,-249.92,-177.03
7635.3,106.39,56.145,-248.92,-176.03
7645.2,121.39,63.145,-250.92,-177.03
7655.1,138.39,70.145,-263.92,-184.03
7665.0,158.39,80.145,-259.92,-186.03
7674.9,172.39,82.145,-245.92,-184.03
7684.8,186.39,87.145,-230.92,-179.03
7694.7,194.39,88.145,-219.92,-175.03
7704.5,200.39,87.145,-205.92,-172.03
7714.4,210.39,91.145,-195.92,-168.03
7724.3,215.39,92.145,-184.92,-164.03
7734.2,221.39,95.145,-176.92,-160.03
7744.1,229.39,98.145,-167.92,-158.03
7754.0,234.39,104.14,-157.92,-154.03
7763.9,241.39,110.14,-152.92,-153.03
7773.7,246.39,115.14,-147.92,-151.03
7783.6,252.39,120.14,-145.92,-148.03
7793.5,261.39,130.14,-141.92,-149.03
7803.4,269.39,138.14,-141.92,-147.03
7813.3,276.39,147.14,-139.92,-145.03
7823.2,283.39,155.14,-140.92,-143.03
7833.1,291.39,161.14,-139.92,-142.03
7842.9,300.39,169.14,-138.92,-141.03
7852.8,308.39,180.14,-139.92,-142.03
7862.7,317.39,190.14,-144.92,-141.03
7872.6,327.39,203.14,-148.92,-143.03
7882.5,335.39,211.14,-148.92,-142.03
7892.4,345.39,221.14,-148.92,-142.03
7902.3,349.39,226.14,-147.92,-140.03
7912.1,349.39,226.14,-146.92,-140.03
7922.0,355.39,235.14,-145.92,-139.03
7931.9,355.39,235.14,-144.92,-141.03
7941.8,361.39,243.14,-145.92,-139.03
7951.7,361.39,243.14,-144.92,-139.03
7961.6,364.39,248.14,-144.92,-137.03
7971.5,364.39,248.14,-141.92,-134.03
7981.3,364.39,251.14,-138.92,-135.03
7991.2,364.39,251.14,-140.92,-135.03
8001.1,361.39,251.14,-139.92,-134.03
8011.0,361.39,251.14,-137.92,-134.03
8020.9,356.39,251.14,-142.92,-133.03
8030.8,356.39,251.14,-142.92,-131.03
8040.7,348.39,249.14,-139.92,-130.03
8050.5,348.39,249.14,-139.92,-129.03
8060.4,344.39,245.14,-139.92,-131.03
8070.3,336.39,242.14,-140.92,-128.03
8080.2,326.39,237.14,-141.92,-127.03
8090.1,318.39,231.14,-140.92,-126.03
8100.0,307.39,226.14,-142.92,-126.03
8109.9,294.39,218.14,-143.92,-125.03
8119.7,281.39,210.14,-143.92,-125.03
8129.6,269.39,201.14,-143.92,-125.03
8139.5,258.39,191.14,-146.92,-124.03
8149.4,248.39,181.14,-144.92,-122.03
8159.3,238.39,173.14,-146.92,-123.03
8169.2,225.39,163.14,-146.92,-122.03
8179.1,211.39,155.14,-147.92,-121.03
8188.9,206.39,152.14,-148.92,-121.03
8198.8,202.39,146.14,-150.92,-120.03
8208.7,194.39,141.14,-151.92,-120.03
8218.6,189.39,136.14,-151.92,-120.03
8228.5,185.39,134.14,-152.92,-119.03
8238.4,182.39,133.14,-150.92,-117.03
8248.3,177.39,129.14,-151.92,-117.03
8258.1,173.39,126.14,-152.92,-117.03
8268.0,177.39,128.14,-151.92,-114.03
8277.9,186.39,134.14,-148.92,-113.03
8287.8,192.39,134.14,-150.92,-112.03
8297.7,197.39,135.14,-154.92,-112.03
8307.6,209.39,141.14,-165.92,-121.03
8317.5,227.39,148.14,-166.92,-123.03
8327.3,242.39,154.14,-155.92,-121.03
8337.2,251.39,158.14,-146.92,-120.03
8347.1,260.39,160.14,-133.92,-116.03
8357.0,267.39,162.14,-123.92,-113.03
8366.9,277.39,166.14,-112.92,-110.03
8376.8,288.39,172.14,-100.92,-106.03
8386.7,296.39,175.14,-88.916,-102.03
8396.5,308.39,182.14,-77.916,-97.028
8406.4,317.39,189.14,-67.916,-94.028
8416.3,327.39,197.14,-57.916,-91.028
8426.2,341.39,205.14,-52.916,-90.028
8436.1,353.39,213.14,-52.916,-90.028
8446.0,364.39,220.14,-48.916,-88.028
8455.9,369.39,224.14,-48.916,-88.028
8465.7,373.39,225.14,-49.916,-87.028
8475.6,373.39,227.14,-49.916,-87.028
8485.5,375.39,231.14,-53.916,-86.028
8495.4,376.39,233.14,-53.916,-86.028
8505.3,374.39,233.14,-50.916,-83.028
8515.2,370.39,230.14,-50.916,-83.028
8525.1,367.39,232.14,-57.916,-84.028
8534.9,368.39,232.14,-57.916,-84.028
8544.8,364.39,231.14,-56.916,-82.028
8554.7,360.39,230.14,-56.916,-82.028
8564.6,357.39,226.14,-58.916,-84.028
8574.5,358.39,228.14,-58.916,-84.028
8584.4,361.39,232.14,-61.916,-81.028
8594.3,369.39,236.14,-61.916,-81.028
8604.1,376.39,243.14,-61.916,-83.028
8614.0,383.39,247.14,-61.916,-83.028
8623.9,389.39,252.14,-59.916,-82.028
8633.8,395.39,257.14,-61.916,-83.028
8643.7,395.39,257.14,-63.916,-83.028
8653.6,400.39,261.14,-65.916,-85.028
8663.5,400.39,261.14,-69.916,-85.028
8673.3,399.39,262.14,-71.916,-84.028
8683.2,399.39,262.14,-73.916,-87.028
8693.1,405.39,269.14,-76.916,-86.028
8703.0,405.39,269.14,-78.916,-86.028
8712.9,427.39,285.14,-80.916,-86.028
8722.8,427.39,285.14,-82.916,-87.028
8732.7,450.39,301.14,-81.916,-87.028
8742.5,450.39,301.14,-86.916,-88.028
8752.4,454.39,307.14,-89.916,-89.028
8762.3,454.39,307.14,-93.916,-89.028
8772.2,452.39,306.14,-95.916,-89.028
8782.1,452.39,306.14,-96.916,-88.028
8792.0,449.39,308.14,-98.916,-90.028
8801.9,452.39,306.14,-100.92,-90.028
8811.7,455.39,311.14,-101.92,-89.028
8821.6,456.39,313.14,-101.92,-88.028
8831.5,459.39,317.14,-104.92,-89.028
8841.4,460.39,318.14,-106.92,-90.028
8851.3,461.39,319.14,-110.92,-90.028
8861.2,458.39,321.14,-111.92,-91.028
8871.1,453.39,319.14,-116.92,-92.028
8880.9,447.39,319.14,-119.92,-93.028
8890.8,440.39,317.14,-122.92,-93.028
8900.7,432.39,315.14,-125.92,-94.028
8910.6,422.39,312.14,-128.92,-95.028
8920.5,423.39,308.14,-130.92,-96.028
8930.4,430.39,314.14,-133.92,-96.028
8940.3,443.39,321.14,-131.92,-94.028
8950.1,452.39,323.14,-133.92,-94.028
8960.0,457.39,324.14,-140.92,-97.028
8969.9,468.39,327.14,-154.92,-105.03
8979.8,473.39,327.14,-155.92,-109.03
8989.7,480.39,326.14,-143.92,-108.03
8999.6,481.39,323.14,-132.92,-106.03
9009.5,475.39,315.14,-123.92,-104.03
9019.3,468.39,306.14,-112.92,-102.03
9029.2,463.39,299.14,-103.92,-103.03
9039.1,458.39,293.14,-95.916,-99.028
9049.0,454.39,290.14,-87.916,-98.028
9058.9,454.39,288.14,-82.916,-96.028
9068.8,451.39,284.14,-76.916,-93.028
9078.7,449.39,280.14,-70.916,-93.028
9088.5,446.39,278.14,-66.916,-91.028
9098.4,439.39,272.14,-64.916,-92.028
9108.3,435.39,270.14,-63.916,-92.028
9118.2,429.39,263.14,-67.916,-93.028
9128.1,424.39,260.14,-65.916,-93.028
9138.0,417.39,257.14,-68.916,-95.028
9147.9,415.39,255.14,-70.916,-96.028
9157.7,412.39,253.14,-72.916,-95.028
9167.6,406.39,249.14,-76.916,-96.028
9177.5,400.39,247.14,-80.916,-99.028
9187.4,396.39,244.14,-83.916,-100.03
9197.3,392.39,240.14,-88.916,-100.03
9207.2,389.39,239.14,-91.916,-101.03
9217.0,385.39,238.14,-89.916,-102.03
9226.9,381.39,233.14,-91.916,-102.03
9236.8,375.39,230.14,-94.916,-102.03
9246.7,369.39,224.14,-95.916,-102.03
9256.6,363.39,223.14,-96.916,-104.03
9266.5,358.39,217.14,-99.916,-105.03
9276.4,354.39,216.14,-101.92,-106.03
9286.3,347.39,214.14,-104.92,-107.03
9296.1,341.39,208.14,-105.92,-108.03
9306.0,332.39,205.14,-109.92,-110.03
9315.9,328.39,201.14,-113.92,-110.03
9325.8,322.39,197.14,-117.92,-112.03
9335.7,317.39,193.14,-119.92,-114.03
9345.6,316.39,191.14,-125.92,-114.03
9355.4,315.39,191.14,-127.92,-115.03
9365.3,315.39,192.14,-132.92,-116.03
9375.2,315.39,192.14,-134.92,-117.03
9385.1,319.39,193.14,-137.92,-117.03
9395.0,319.39,193.14,-138.92,-118.03
9404.9,318.39,195.14,-138.92,-118.03
9414.8,318.39,195.14,-146.92,-121.03
9424.7,317.39,193.14,-146.92,-121.03
9434.5,317.39,193.14,-155.92,-124.03
9444.4,313.39,190.14,-155.92,-124.03
9454.3,313.39,190.14,-161.92,-125.03
9464.2,309.39,187.14,-161.92,-125.03
9474.1,309.39,187.14,-166.92,-126.03
9484.0,309.39,185.14,-166.92,-126.03
9493.8,309.39,185.14,-170.92,-127.03
9503.7,308.39,185.14,-170.92,-127.03
9513.6,308.39,185.14,-178.92,-130.03
9523.5,305.39,182.14,-178.92,-130.03
9533.4,303.39,180.14,-186.92,-131.03
9543.3,304.39,180.14,-186.92,-131.03
9553.2,302.39,179.14,-192.92,-134.03
9563.0,296.39,176.14,-192.92,-134.03
9572.9,290.39,174.14,-201.92,-137.03
9582.8,291.39,172.14,-201.92,-137.03
9592.7,297.39,176.14,-204.92,-137.03
9602.6,312.39,184.14,-203.92,-137.03
9612.5,328.39,194.14,-203.92,-137.03
9622.4,342.39,198.14,-204.92,-138.03
9632.2,354.39,202.14,-212.92,-140.03
9642.1,367.39,206.14,-226.92,-149.03
9652.0,376.39,210.14,-223.92,-153.03
9661.9,388.39,214.14,-215.92,-152.03
9671.8,396.39,216.14,-202.92,-149.03
9681.7,402.39,215.14,-190.92,-147.03
9691.6,405.39,214.14,-183.92,-145.03
9701.4,411.39,214.14,-172.92,-142.03
9711.3,418.39,215.14,-164.92,-141.03
9721.2,426.39,218.14,-154.92,-137.03
9731.1,431.39,219.14,-145.92,-135.03
9741.0,437.39,220.14,-138.92,-134.03
9750.9,443.39,221.14,-133.92,-130.03
9760.8,448.39,220.14,-130.92,-131.03
9770.6,454.39,222.14,-130.92,-131.03
9780.5,461.39,224.14,-126.92,-129.03
9790.4,468.39,226.14,-124.92,-129.03
9800.3,469.39,227.14,-126.92,-130.03
9810.2,471.39,226.14,-124.92,-129.03
9820.1,468.39,225.14,-124.92,-128.03
9830.0,470.39,223.14,-126.92,-127.03
9839.8,467.39,221.14,-128.92,-127.03
9849.7,468.39,218.14,-132.92,-128.03
9859.6,467.39,215.14,-134.92,-128.03
9869.5,465.39,212.14,-134.92,-128.03
9879.4,465.39,209.14,-138.92,-129.03
9889.3,464.39,205.14,-141.92,-131.03
9899.2,463.39,202.14,-143.92,-131.03
9909.0,462.39,199.14,-145.92,-133.03
9918.9,462.39,196.14,-149.92,-132.03
9928.8,463.39,198.14,-148.92,-132.03
9938.7,461.39,199.14,-147.92,-133.03
9948.6,465.39,203.14,-149.92,-133.03
9958.5,468.39,206.14,-151.92,-135.03
9968.4,469.39,207.14,-152.92,-134.03
9978.2,470.39,210.14,-157.92,-136.03
9988.1,471.39,212.14,-160.92,-135.03
9998.0,472.39,215.14,-160.92,-138.03
10008.0,473.39,218.14,-164.92,-137.03
10018.0,471.39,222.14,-168.92,-138.03
10028.0,469.39,221.14,-172.92,-138.03
10038.0,464.39,220.14,-175.92,-139.03
10047.0,457.39,219.14,-176.92,-139.03
10057.0,453.39,219.14,-177.92,-139.03
10067.0,449.39,221.14,-179.92,-140.03
10077.0,448.39,219.14,-183.92,-140.03
10087.0,446.39,223.14,-185.92,-142.03
10097.0,448.39,227.14,-187.92,-143.03
10107.0,448.39,227.14,-190.92,-143.03
10117.0,448.39,233.14,-194.92,-145.03
10127.0,448.39,233.14,-197.92,-146.03
10136.0,446.39,238.14,-200.92,-146.03
10146.0,446.39,238.14,-203.92,-147.03
10156.0,442.39,240.14,-205.92,-147.03
10166.0,442.39,240.14,-208.92,-148.03
10176.0,431.39,238.14,-211.92,-150.03
10186.0,431.39,238.14,-212.92,-150.03
10196.0,418.39,234.14,-218.92,-150.03
10206.0,418.39,234.14,-220.92,-151.03
10216.0,397.39,225.14,-223.92,-152.03
10225.0,397.39,225.14,-228.92,-154.03
10235.0,386.39,222.14,-231.92,-155.03
10245.0,375.39,215.14,-235.92,-155.03
10255.0,367.39,214.14,-237.92,-153.03
10265.0,358.39,210.14,-236.92,-154.03
10275.0,351.39,209.14,-239.92,-156.03
10285.0,352.39,212.14,-238.92,-156.03
10295.0,363.39,219.14,-241.92,-155.03
10305.0,375.39,229.14,-243.92,-155.03
10314.0,385.39,234.14,-247.92,-157.03
10324.0,393.39,237.14,-258.92,-162.03
10334.0,394.39,237.14,-261.92,-168.03
10344.0,397.39,238.14,-253.92,-168.03
10354.0,401.39,239.14,-242.92,-166.03
10364.0,405.39,239.14,-227.92,-163.03
10374.0,407.39,237.14,-227.92,-163.03
10384.0,410.39,236.14,-205.92,-158.03
10393.0,411.39,235.14,-205.92,-158.03
10403.0,414.39,234.14,-185.92,-150.03
10413.0,414.39,234.14,-185.92,-150.03
10423.0,415.39,233.14,-171.92,-145.03
10433.0,414.39,231.14,-171.92,-145.03
10443.0,413.39,232.14,-164.92,-143.03
10453.0,412.39,231.14,-164.92,-143.03
10463.0,410.39,229.14,-160.92,-141.03
10473.0,408.39,227.14,-160.92,-141.03
10482.0,402.39,224.14,-161.92,-141.03
10492.0,397.39,221.14,-161.92,-141.03
10502.0,391.39,217.14,-158.92,-139.03
10512.0,389.39,215.14,-158.92,-139.03
10522.0,385.39,215.14,-156.92,-135.03
10532.0,380.39,212.14,-156.92,-135.03
10542.0,374.39,208.14,-163.92,-138.03
10552.0,367.39,208.14,-163.92,-138.03
10562.0,363.39,207.14,-165.92,-136.03
10571.0,360.39,206.14,-165.92,-136.03
10581.0,353.39,202.14,-164.92,-137.03
10591.0,349.39,201.14,-164.92,-137.03
10601.0,342.39,198.14,-165.92,-137.03
10611.0,337.39,198.14,-167.92,-136.03
10621.0,333.39,196.14,-169.92,-138.03
10631.0,326.39,194.14,-170.92,-139.03
10641.0,321.39,194.14,-172.92,-138.03
10651.0,314.39,191.14,-173.92,-139.03
10660.0,307.39,189.14,-173.92,-139.03
10670.0,301.39,186.14,-175.92,-139.03
10680.0,296.39,183.14,-175.92,-138.03
10690.0,288.39,180.14,-178.92,-139.03
10700.0,280.39,177.14,-178.92,-137.03
10710.0,271.39,174.14,-182.92,-137.03
10720.0,266.39,173.14,-182.92,-137.03
10730.0,262.39,171.14,-182.92,-136.03
10739.0,257.39,171.14,-184.92,-136.03
10749.0,251.39,170.14,-185.92,-136.03
10759.0,248.39,171.14,-182.92,-134.03
10769.0,244.39,171.14,-184.92,-135.03
10779.0,242.39,169.14,-186.92,-134.03
10789.0,236.39,169.14,-187.92,-133.03
10799.0,231.39,168.14,-188.92,-133.03
10809.0,228.39,168.14,-189.92,-133.03
10819.0,228.39,168.14,-191.92,-134.03
10828.0,220.39,169.14,-189.92,-132.03
10838.0,220.39,169.14,-191.92,-133.03
10848.0,214.39,170.14,-195.92,-132.03
10858.0,214.39,170.14,-193.92,-132.03
10868.0,206.39,170.14,-195.92,-131.03
10878.0,206.39,170.14,-195.92,-131.03
10888.0,200.39,170.14,-198.92,-130.03
10898.0,200.39,170.14,-198.92,-129.03
10908.0,196.39,171.14,-198.92,-128.03
10917.0,196.39,171.14,-196.92,-127.03
10927.0,192.39,172.14,-198.92,-127.03
10937.0,192.39,172.14,-198.92,-126.03
10947.0,189.39,171.14,-201.92,-128.03
10957.0,189.39,171.14,-203.92,-128.03
10967.0,183.39,170.14,-206.92,-128.03
10977.0,178.39,168.14,-208.92,-126.03
10987.0,176.39,170.14,-207.92,-125.03
10997.0,170.39,167.14,-210.92,-127.03
11006.0,165.39,167.14,-213.92,-127.03
11016.0,165.39,166.14,-214.92,-127.03
11026.0,173.39,172.14,-211.92,-126.03
11036.0,188.39,179.14,-212.92,-124.03
11046.0,192.39,184.14,-213.92,-123.03
11056.0,201.39,187.14,-217.92,-126.03
11066.0,212.39,191.14,-226.92,-133.03
11076.0,228.39,199.14,-216.92,-133.03
11085.0,244.39,203.14,-199.92,-128.03
11095.0,254.39,207.14,-185.92,-124.03
11105.0,266.39,209.14,-172.92,-120.03
11115.0,274.39,210.14,-162.92,-118.03
11125.0,283.39,214.14,-150.92,-112.03
11135.0,291.39,215.14,-139.92,-109.03
11145.0,299.39,218.14,-130.92,-104.03
11155.0,302.39,220.14,-121.92,-100.03
11165.0,308.39,223.14,-115.92,-98.028
11174.0,312.39,226.14,-110.92,-95.028
11184.0,320.39,230.14,-107.92,-93.028
11194.0,320.39,230.14,-105.92,-92.028
11204.0,324.39,232.14,-106.92,-91.028
11214.0,325.39,231.14,-104.92,-92.028
11224.0,327.39,232.14,-104.92,-90.028
11234.0,331.39,233.14,-101.92,-88.028
11244.0,336.39,235.14,-104.92,-88.028
11254.0,339.39,239.14,-107.92,-88.028
11263.0,343.39,239.14,-108.92,-88.028
11273.0,344.39,242.14,-113.92,-88.028
11283.0,349.39,245.14,-114.92,-87.028
11293.0,352.39,248.14,-109.92,-84.028
11303.0,356.39,250.14,-108.92,-83.028
11313.0,364.39,254.14,-105.92,-81.028
11323.0,365.39,253.14,-105.92,-82.028
11333.0,366.39,256.14,-104.92,-80.028
11343.0,368.39,259.14,-106.92,-81.028
11352.0,369.39,258.14,-105.92,-79.028
11362.0,368.39,259.14,-103.92,-78.028
11372.0,369.39,258.14,-104.92,-78.028
11382.0,372.39,260.14,-105.92,-79.028
11392.0,371.39,262.14,-104.92,-79.028
11402.0,373.39,263.14,-104.92,-79.028
11412.0,374.39,264.14,-103.92,-76.028
11422.0,373.39,262.14,-103.92,-76.028
11431.0,374.39,265.14,-106.92,-75.028
11441.0,374.39,266.14,-106.92,-75.028
11451.0,373.39,267.14,-106.92,-74.028
11461.0,374.39,267.14,-106.92,-74.028
11471.0,373.39,268.14,-108.92,-72.028
11481.0,371.39,269.14,-108.92,-72.028
11491.0,371.39,268.14,-112.92,-72.028
11501.0,371.39,269.14,-112.92,-72.028
11511.0,371.39,271.14,-116.92,-72.028
11520.0,372.39,271.14,-116.92,-72.028
11530.0,372.39,271.14,-121.92,-72.028
11540.0,373.39,273.14,-121.92,-72.028
11550.0,373.39,273.14,-121.92,-73.028
11560.0,373.39,276.14,-121.92,-73.028
11570.0,373.39,276.14,-126.92,-72.028
11580.0,373.39,280.14,-126.92,-72.028
11590.0,373.39,280.14,-129.92,-73.028
11600.0,374.39,282.14,-129.92,-73.028
11609.0,374.39,282.14,-130.92,-72.028
11619.0,373.39,286.14,-132.92,-73.028
11629.0,373.39,286.14,-129.92,-70.028
11639.0,372.39,288.14,-130.92,-69.028
11649.0,372.39,288.14,-134.92,-69.028
11659.0,368.39,288.14,-135.92,-68.028
11669.0,368.39,288.14,-138.92,-69.028
11679.0,362.39,285.14,-141.92,-69.028
11689.0,362.39,285.14,-144.92,-70.028
11698.0,362.39,285.14,-143.92,-70.028
11708.0,354.39,282.14,-147.92,-70.028
11718.0,350.39,282.14,-150.92,-70.028
11728.0,354.39,283.14,-151.92,-70.028
11738.0,369.39,292.14,-151.92,-70.028
11748.0,383.39,299.14,-149.92,-68.028
11758.0,387.39,299.14,-152.92,-68.028
11768.0,398.39,297.14,-155.92,-70.028
11777.0,409.39,298.14,-170.92,-76.028
11787.0,423.39,298.14,-168.92,-80.028
11797.0,435.39,300.14,-158.92,-79.028
11807.0,448.39,300.14,-146.92,-77.028
11817.0,457.39,301.14,-135.92,-73.028
11827.0,464.39,298.14,-124.92,-70.028
11837.0,475.39,301.14,-114.92,-66.028
11847.0,484.39,304.14,-103.92,-63.028
11857.0,493.39,305.14,-95.916,-60.028
11866.0,500.39,309.14,-85.916,-58.028
11876.0,506.39,309.14,-79.916,-55.028
11886.0,513.39,311.14,-75.916,-53.028
11896.0,519.39,311.14,-70.916,-53.028
11906.0,524.39,309.14,-67.916,-50.028
11916.0,523.39,306.14,-67.916,-50.028
11926.0,528.39,305.14,-67.916,-49.028
11936.0,528.39,302.14,-67.916,-49.028
11946.0,531.39,301.14,-66.916,-47.028
11955.0,533.39,300.14,-64.916,-46.028
11965.0,535.39,300.14,-67.916,-46.028
11975.0,540.39,298.14,-71.916,-47.028
11985.0,541.39,297.14,-76.916,-48.028
11995.0,542.39,296.14,-79.916,-50.028
12005.0,544.39,296.14,-77.916,-48.028
12015.0,545.39,298.14,-78.916,-49.028
12025.0,547.39,298.14,-77.916,-48.028
12035.0,549.39,302.14,-76.916,-47.028
12044.0,549.39,302.14,-80.916,-48.028
12054.0,549.39,301.14,-80.916,-47.028
12064.0,550.39,302.14,-83.916,-49.028
12074.0,551.39,304.14,-84.916,-49.028
12084.0,550.39,305.14,-85.916,-50.028
12094.0,548.39,304.14,-85.916,-48.028
12104.0,549.39,307.14,-87.916,-49.028
12114.0,550.39,306.14,-89.916,-49.028
12123.0,547.39,307.14,-90.916,-49.028
12133.0,549.39,307.14,-94.916,-51.028
12143.0,548.39,308.14,-94.916,-49.028
12153.0,547.39,307.14,-95.916,-49.028
12163.0,545.39,308.14,-94.916,-48.028
12173.0,543.39,305.14,-92.916,-47.028
12183.0,540.39,304.14,-97.916,-48.028
12193.0,537.39,304.14,-98.916,-47.028
12203.0,537.39,302.14,-100.92,-49.028
12212.0,534.39,301.14,-103.92,-50.028
12222.0,532.39,298.14,-107.92,-49.028
12232.0,529.39,297.14,-107.92,-48.028
12242.0,528.39,296.14,-111.92,-50.028
12252.0,525.39,295.14,-111.92,-49.028
12262.0,526.39,294.14,-116.92,-50.028
12272.0,524.39,295.14,-118.92,-49.028
12282.0,524.39,295.14,-120.92,-51.028
12292.0,522.39,295.14,-121.92,-50.028
12301.0,522.39,295.14,-125.92,-52.028
12311.0,517.39,294.14,-127.92,-51.028
12321.0,517.39,294.14,-129.92,-52.028
12331.0,513.39,295.14,-131.92,-53.028
12341.0,513.39,295.14,-131.92,-53.028
12351.0,508.39,299.14,-134.92,-53.028
12361.0,508.39,299.14,-138.92,-53.028
12371.0,509.39,316.14,-138.92,-53.028
12381.0,509.39,316.14,-145.92,-55.028
12390.0,505.39,324.14,-145.92,-55.028
12400.0,505.39,324.14,-150.92,-56.028
12410.0,503.39,325.14,-150.92,-56.028
12420.0,501.39,330.14,-153.92,-56.028
12430.0,508.39,339.14,-153.92,-56.028
12440.0,519.39,350.14,-152.92,-54.028
12450.0,539.39,368.14,-152.92,-54.028
12460.0,550.39,379.14,-159.92,-57.028
12469.0,565.39,389.14,-159.92,-57.028
12479.0,580.39,398.14,-179.92,-67.028
12489.0,596.39,407.14,-179.92,-67.028
12499.0,611.39,415.14,-156.92,-66.028
12509.0,623.39,419.14,-156.92,-66.028
12519.0,629.39,420.14,-130.92,-56.028
12529.0,635.39,420.14,-130.92,-56.028
12539.0,637.39,417.14,-118.92,-53.028
12549.0,641.39,416.14,-108.92,-49.028
12558.0,645.39,417.14,-94.916,-47.028
12568.0,645.39,414.14,-85.916,-44.028
12578.0,644.39,412.14,-79.916,-41.028
12588.0,642.39,408.14,-73.916,-39.028
12598.0,640.39,404.14,-70.916,-38.028
12608.0,638.39,401.14,-66.916,-37.028
12618.0,641.39,401.14,-64.916,-36.028
12628.0,637.39,397.14,-62.916,-36.028
12638.0,632.39,392.14,-64.916,-35.028
12647.0,628.39,388.14,-63.916,-35.028
12657.0,624.39,383.14,-64.916,-35.028
12667.0,620.39,380.14,-63.916,-34.028
12677.0,617.39,378.14,-64.916,-33.028
12687.0,610.39,373.14,-65.916,-33.028
12697.0,606.39,368.14,-66.916,-33.028
12707.0,600.39,365.14,-71.916,-35.028
12717.0,599.39,362.14,-70.916,-33.028
12727.0,594.39,360.14,-68.916,-31.028
12736.0,591.39,355.14,-68.916,-32.028
12746.0,583.39,351.14,-68.916,-32.028
12756.0,580.39,348.14,-70.916,-34.028
12766.0,576.39,345.14,-70.916,-32.028
12776.0,570.39,342.14,-70.916,-33.028
12786.0,567.39,338.14,-75.916,-34.028
12796.0,559.39,334.14,-74.916,-34.028
12806.0,556.39,331.14,-79.916,-33.028
12815.0,553.39,330.14,-80.916,-33.028
12825.0,546.39,327.14,-80.916,-34.028
12835.0,540.39,325.14,-84.916,-34.028
12845.0,536.39,322.14,-85.916,-35.028
12855.0,536.39,323.14,-84.916,-35.028
12865.0,530.39,319.14,-86.916,-33.028
12875.0,529.39,318.14,-88.916,-34.028
12885.0,520.39,316.14,-87.916,-32.028
12895.0,517.39,311.14,-90.916,-34.028
12904.0,511.39,310.14,-93.916,-35.028
12914.0,504.39,308.14,-94.916,-35.028
12924.0,498.39,304.14,-95.916,-36.028
12934.0,492.39,301.14,-98.916,-35.028
12944.0,484.39,298.14,-100.92,-36.028
12954.0,475.39,292.14,-103.92,-36.028
12964.0,468.39,290.14,-104.92,-36.028
12974.0,459.39,285.14,-105.92,-35.028
12984.0,452.39,283.14,-106.92,-35.028
12993.0,446.39,278.14,-110.92,-36.028
13003.0,440.39,276.14,-115.92,-37.028
13013.0,440.39,276.14,-118.92,-38.028
13023.0,424.39,271.14,-120.92,-38.028
13033.0,424.39,271.14,-122.92,-39.028
13043.0,412.39,265.14,-125.92,-40.028
13053.0,412.39,265.14,-128.92,-40.028
13063.0,398.39,260.14,-129.92,-39.028
13073.0,398.39,260.14,-132.92,-41.028
13082.0,389.39,254.14,-136.92,-41.028
13092.0,389.39,254.14,-137.92,-41.028
13102.0,376.39,247.14,-139.92,-43.028
13112.0,376.39,247.14,-144.92,-44.028
13122.0,364.39,242.14,-144.92,-43.028
13132.0,364.39,242.14,-146.92,-43.028
13142.0,369.39,244.14,-149.92,-45.028
13152.0,369.39,244.14,-148.92,-44.028
13161.0,383.39,250.14,-149.92,-42.028
13171.0,394.39,255.14,-153.92,-44.028
13181.0,403.39,258.14,-159.92,-46.028
13191.0,414.39,261.14,-170.92,-53.028
13201.0,428.39,268.14,-171.92,-56.028
13211.0,441.39,271.14,-160.92,-56.028
13221.0,454.39,275.14,-149.92,-53.028
13231.0,462.39,277.14,-131.92,-50.028
13241.0,464.39,275.14,-121.92,-44.028
13250.0,471.39,274.14,-108.92,-41.028
13260.0,475.39,274.14,-96.916,-38.028
13270.0,480.39,275.14,-87.916,-35.028
13280.0,484.39,276.14,-77.916,-30.028
13290.0,487.39,277.14,-70.916,-27.028
13300.0,491.39,276.14,-66.916,-26.028
13310.0,495.39,278.14,-63.916,-25.028
13320.0,497.39,275.14,-61.916,-24.028
13330.0,502.39,277.14,-60.916,-24.028
13339.0,502.39,276.14,-60.916,-24.028
13349.0,503.39,276.14,-55.916,-23.028
13359.0,501.39,273.14,-55.916,-23.028
13369.0,500.39,272.14,-57.916,-22.028
13379.0,500.39,270.14,-57.916,-22.028
13389.0,501.39,270.14,-55.916,-21.028
13399.0,503.39,271.14,-55.916,-21.028
13409.0,504.39,270.14,-61.916,-22.028
13419.0,503.39,271.14,-61.916,-22.028
13428.0,502.39,270.14,-67.916,-23.028
13438.0,502.39,269.14,-67.916,-23.028
13448.0,504.39,271.14,-70.916,-24.028
13458.0,504.39,270.14,-70.916,-24.028
13468.0,502.39,266.14,-72.916,-24.028
13478.0,503.39,266.14,-72.916,-24.028
13488.0,505.39,266.14,-76.916,-24.028
13498.0,503.39,267.14,-76.916,-24.028
13507.0,503.39,266.14,-79.916,-25.028
13517.0,504.39,265.14,-79.916,-25.028
13527.0,504.39,264.14,-80.916,-26.028
13537.0,503.39,263.14,-80.916,-26.028
13547.0,501.39,262.14,-86.916,-27.028
13557.0,498.39,261.14,-86.916,-27.028
13567.0,496.39,262.14,-88.916,-27.028
13577.0,494.39,260.14,-89.916,-28.028
13587.0,492.39,259.14,-90.916,-28.028
13596.0,488.39,259.14,-92.916,-29.028
13606.0,487.39,259.14,-94.916,-29.028
13616.0,485.39,256.14,-97.916,-29.028
13626.0,480.39,257.14,-97.916,-29.028
13636.0,479.39,255.14,-100.92,-31.028
13646.0,476.39,255.14,-103.92,-30.028
13656.0,471.39,255.14,-107.92,-31.028
13666.0,470.39,253.14,-110.92,-33.028
13676.0,464.39,250.14,-114.92,-34.028
13685.0,461.39,247.14,-117.92,-34.028
13695.0,452.39,245.14,-122.92,-35.028
13705.0,450.39,241.14,-125.92,-36.028
13715.0,444.39,239.14,-129.92,-37.028
13725.0,439.39,236.14,-131.92,-39.028
13735.0,430.39,231.14,-133.92,-38.028
13745.0,430.39,231.14,-135.92,-39.028
13755.0,417.39,220.14,-139.92,-40.028
13765.0,417.39,220.14,-141.92,-41.028
13774.0,402.39,213.14,-144.92,-41.028
13784.0,402.39,213.14,-146.92,-41.028
13794.0,388.39,205.14,-147.92,-43.028
13804.0,388.39,205.14,-153.92,-43.028
13814.0,373.39,199.14,-154.92,-44.028
13824.0,373.39,199.14,-157.92,-44.028
13834.0,359.39,191.14,-162.92,-45.028
13844.0,359.39,191.14,-165.92,-47.028
13853.0,344.39,182.14,-169.92,-48.028
13863.0,344.39,182.14,-173.92,-49.028
13873.0,330.39,176.14,-175.92,-50.028
13883.0,330.39,176.14,-177.92,-50.028
13893.0,329.39,173.14,-181.92,-52.028
13903.0,337.39,175.14,-180.92,-52.028
13913.0,347.39,183.14,-180.92,-51.028
13923.0,359.39,186.14,-186.92,-51.028
13933.0,368.39,189.14,-193.92,-55.028
13942.0,377.39,189.14,-204.92,-61.028
13952.0,387.39,191.14,-201.92,-64.028
13962.0,395.39,193.14,-190.92,-65.028
13972.0,403.39,194.14,-177.92,-63.028
13982.0,408.39,192.14,-165.92,-58.028
13992.0,409.39,191.14,-157.92,-58.028
14002.0,409.39,191.14,-146.92,-55.028
14012.0,411.39,191.14,-127.92,-52.028
14022.0,409.39,190.14,-116.92,-47.028
14031.0,407.39,188.14,-109.92,-47.028
14041.0,405.39,190.14,-107.92,-45.028
14051.0,404.39,189.14,-108.92,-45.028
14061.0,402.39,188.14,-107.92,-43.028
14071.0,398.39,186.14,-103.92,-41.028
14081.0,394.39,184.14,-104.92,-42.028
14091.0,389.39,182.14,-97.916,-40.028
14101.0,385.39,180.14,-100.92,-40.028
14111.0,384.39,181.14,-99.916,-41.028
14120.0,379.39,181.14,-100.92,-41.028
14130.0,379.39,181.14,-98.916,-41.028
14140.0,376.39,181.14,-101.92,-42.028
14150.0,375.39,180.14,-107.92,-42.028
14160.0,371.39,180.14,-110.92,-44.028
14170.0,370.39,182.14,-112.92,-44.028
14180.0,371.39,184.14,-113.92,-45.028
14190.0,376.39,190.14,-115.92,-45.028
14199.0,372.39,190.14,-117.92,-45.028
14209.0,368.39,190.14,-116.92,-44.028
14219.0,364.39,187.14,-115.92,-45.028
14229.0,359.39,187.14,-116.92,-45.028
14239.0,356.39,186.14,-115.92,-46.028
14249.0,350.39,185.14,-115.92,-45.028
14259.0,344.39,183.14,-117.92,-46.028
14269.0,339.39,183.14,-122.92,-48.028
14279.0,331.39,179.14,-124.92,-48.028
14288.0,322.39,177.14,-127.92,-48.028
14298.0,317.39,178.14,-128.92,-48.028
14308.0,312.39,178.14,-129.92,-49.028
14318.0,308.39,178.14,-131.92,-48.028
14328.0,300.39,174.14,-135.92,-50.028
14338.0,290.39,172.14,-137.92,-49.028
14348.0,283.39,169.14,-138.92,-51.028
14358.0,273.39,165.14,-139.92,-50.028
14368.0,265.39,162.14,-139.92,-50.028
14377.0,256.39,160.14,-143.92,-51.028
14387.0,249.39,157.14,-143.92,-51.028
14397.0,240.39,153.14,-143.92,-52.028
14407.0,231.39,150.14,-143.92,-52.028
14417.0,217.39,145.14,-146.92,-50.028
14427.0,210.39,141.14,-146.92,-50.028
14437.0,199.39,136.14,-148.92,-52.028
14447.0,189.39,133.14,-148.92,-52.028
14456.0,182.39,129.14,-152.92,-51.028
14466.0,169.39,125.14,-152.92,-51.028
14476.0,169.39,125.14,-162.92,-53.028
14486.0,145.39,113.14,-162.92,-53.028
14496.0,145.39,113.14,-165.92,-53.028
14506.0,118.39,102.14,-165.92,-53.028
14516.0,118.39,102.14,-168.92,-54.028
14526.0,95.394,92.145,-168.92,-54.028
14536.0,95.394,92.145,-170.92,-55.028
14545.0,75.394,85.145,-170.92,-55.028
14555.0,75.394,85.145,-174.92,-54.028
14565.0,59.394,80.145,-175.92,-55.028
14575.0,59.394,80.145,-176.92,-55.028
14585.0,47.394,80.145,-175.92,-56.028
14595.0,47.394,80.145,-177.92,-55.028
14605.0,41.394,82.145,-178.92,-56.028
14615.0,41.394,82.145,-182.92,-53.028
14625.0,42.394,85.145,-179.92,-54.028
14634.0,36.394,84.145,-180.92,-53.028
14644.0,33.394,84.145,-186.92,-54.028
14654.0,28.394,84.145,-183.92,-53.028
14664.0,22.394,81.145,-185.92,-53.028
14674.0,16.394,79.145,-184.92,-53.028
14684.0,14.394,78.145,-184.92,-52.028
14694.0,15.394,79.145,-184.92,-50.028
14704.0,27.394,89.145,-188.92,-51.028
14714.0,39.394,97.145,-183.92,-48.028
14723.0,52.394,103.14,-195.92,-52.028
14733.0,62.394,106.14,-201.92,-54.028
14743.0,71.394,111.14,-210.92,-59.028
14753.0,81.394,116.14,-207.92,-62.028
14763.0,91.394,122.14,-193.92,-59.028
14773.0,98.394,121.14,-177.92,-55.028
14783.0,100.39,121.14,-162.92,-50.028
14793.0,102.39,119.14,-150.92,-47.028
14802.0,104.39,118.14,-137.92,-44.028
14812.0,107.39,119.14,-123.92,-38.028
14822.0,108.39,117.14,-113.92,-34.028
14832.0,111.39,116.14,-102.92,-31.028
14842.0,112.39,116.14,-94.916,-28.028
14852.0,115.39,118.14,-87.916,-24.028
14862.0,117.39,119.14,-83.916,-22.028
14872.0,119.39,118.14,-78.916,-21.028
14882.0,119.39,118.14,-75.916,-19.028
14891.0,115.39,116.14,-73.916,-18.028
14901.0,113.39,113.14,-72.916,-16.028
14911.0,113.39,114.14,-70.916,-16.028
14921.0,111.39,112.14,-69.916,-14.028
14931.0,111.39,112.14,-66.916,-12.028
14941.0,109.39,112.14,-64.916,-12.028
14951.0,107.39,111.14,-66.916,-11.028
14961.0,106.39,109.14,-63.916,-10.028
14971.0,104.39,109.14,-59.916,-8.0281
14980.0,104.39,111.14,-57.916,-6.0281
14990.0,100.39,109.14,-52.916,-3.0281
15000.0,98.394,109.14,-48.916,-2.0281
15010.0,97.394,108.14,-44.916,-1.0281
15020.0,97.394,109.14,-43.916,-0.028078
15030.0,96.394,106.14,-42.916,-0.028078
15040.0,92.394,107.14,-38.916,-0.028078
15050.0,90.394,106.14,-34.916,1.9719
15060.0,87.394,106.14,-35.916,2.9719
15069.0,84.394,104.14,-35.916,2.9719
15079.0,81.394,101.14,-32.916,3.9719
15089.0,77.394,100.14,-29.916,6.9719
15099.0,72.394,98.145,-27.916,7.9719
15109.0,67.394,98.145,-25.916,7.9719
15119.0,65.394,97.145,-25.916,8.9719
15129.0,58.394,96.145,-25.916,9.9719
15139.0,52.394,93.145,-22.916,10.972
15148.0,48.394,93.145,-24.916,12.972
15158.0,47.394,93.145,-24.916,13.972
15168.0,42.394,91.145,-26.916,12.972
15178.0,39.394,89.145,-35.916,12.972
15188.0,36.394,87.145,-62.916,6.9719
15198.0,29.394,88.145,-65.916,6.9719
15208.0,29.394,88.145,-65.916,7.9719
15218.0,24.394,86.145,-65.916,8.9719
15228.0,24.394,86.145,-65.916,8.9719
15237.0,15.394,82.145,-55.916,10.972
15247.0,15.394,82.145,-49.916,13.972
15257.0,9.3938,83.145,-47.916,14.972
15267.0,9.3938,83.145,-43.916,15.972
15277.0,4.3938,81.145,-41.916,17.972
15287.0,4.3938,81.145,-40.916,17.972
15297.0,-2.6062,80.145,-40.916,17.972
15307.0,-2.6062,80.145,-42.916,18.972
15317.0,-9.6062,78.145,-42.916,18.972
15326.0,-9.6062,78.145,-42.916,19.972
15336.0,-17.606,75.145,-42.916,19.972
15346.0,-17.606,75.145,-47.916,20.972
15356.0,-21.606,72.145,-47.916,20.972
15366.0,-26.606,71.145,-77.916,17.972
15376.0,-29.606,72.145,-77.916,17.972
15386.0,-30.606,72.145,-81.916,15.972
15396.0,-34.606,71.145,-81.916,15.972
15406.0,-39.606,68.145,-82.916,14.972
15415.0,-42.606,72.145,-82.916,14.972
15425.0,-47.606,68.145,-84.916,16.972
15435.0,-50.606,67.145,-84.916,16.972
15445.0,-56.606,66.145,-85.916,15.972
15455.0,-54.606,67.145,-85.916,15.972
15465.0,-49.606,70.145,-66.916,24.972
15475.0,-37.606,77.145,-66.916,24.972
15485.0,-34.606,80.145,-58.916,25.972
15494.0,-24.606,84.145,-60.916,23.972
15504.0,-13.606,89.145,-66.916,24.972
15514.0,-0.60618,93.145,-74.916,17.972
15524.0,10.394,99.145,-70.916,16.972
15534.0,21.394,101.14,-55.916,19.972
15544.0,28.394,101.14,-42.916,22.972
15554.0,34.394,102.14,-35.916,23.972
15564.0,41.394,103.14,-25.916,27.972
15574.0,49.394,105.14,-15.916,30.972
15583.0,53.394,105.14,-4.9155,34.972
15593.0,58.394,108.14,8.0845,38.972
15603.0,62.394,109.14,21.084,43.972
15613.0,67.394,112.14,31.084,46.972
15623.0,70.394,112.14,35.084,48.972
15633.0,72.394,114.14,54.084,54.972
15643.0,74.394,114.14,60.084,54.972
15653.0,74.394,114.14,61.084,57.972
15663.0,76.394,109.14,64.084,57.972
15672.0,78.394,112.14,64.084,58.972
15682.0,78.394,112.14,66.084,61.972
15692.0,79.394,114.14,66.084,60.972
15702.0,80.394,115.14,63.084,60.972
15712.0,84.394,117.14,62.084,59.972
15722.0,87.394,118.14,62.084,59.972
15732.0,89.394,119.14,60.084,59.972
15742.0,95.394,121.14,59.084,60.972
15752.0,97.394,124.14,57.084,62.972
15761.0,103.39,125.14,46.084,60.972
15771.0,103.39,126.14,43.084,58.972
15781.0,101.39,126.14,33.084,57.972
15791.0,104.39,127.14,33.084,57.972
15801.0,102.39,125.14,38.084,57.972
15811.0,101.39,123.14,37.084,58.972
15821.0,100.39,124.14,64.084,63.972
15831.0,98.394,122.14,62.084,63.972
15840.0,96.394,124.14,65.084,63.972
15850.0,98.394,123.14,64.084,64.972
15860.0,95.394,123.14,66.084,64.972
15870.0,94.394,122.14,60.084,63.972
15880.0,91.394,120.14,59.084,63.972
15890.0,88.394,120.14,49.084,60.972
15900.0,85.394,119.14,46.084,60.972
15910.0,83.394,117.14,42.084,58.972
15920.0,79.394,117.14,35.084,58.972
15929.0,76.394,113.14,35.084,60.972
15939.0,76.394,113.14,46.084,60.972
15949.0,67.394,110.14,46.084,61.972
15959.0,67.394,110.14,39.084,59.972
15969.0,59.394,108.14,39.084,59.972
15979.0,59.394,108.14,43.084,61.972
15989.0,52.394,102.14,38.084,59.972
15999.0,52.394,102.14,24.084,57.972
16009.0,44.394,100.14,35.084,59.972
16018.0,44.394,100.14,36.084,59.972
16028.0,35.394,96.145,35.084,59.972
16038.0,35.394,96.145,34.084,59.972
16048.0,26.394,93.145,34.084,59.972
16058.0,26.394,93.145,33.084,58.972
16068.0,21.394,91.145,31.084,59.972
16078.0,18.394,90.145,29.084,59.972
16088.0,12.394,87.145,33.084,61.972
16098.0,7.3938,85.145,38.084,60.972
16107.0,3.3938,85.145,35.084,62.972
16117.0,1.3938,83.145,32.084,60.972
16127.0,-3.6062,80.145,32.084,60.972
16137.0,-7.6062,79.145,29.084,59.972
16147.0,-12.606,77.145,26.084,60.972
16157.0,-18.606,75.145,23.084,57.972
16167.0,-24.606,71.145,22.084,60.972
16177.0,-30.606,70.145,23.084,60.972
16186.0,-36.606,67.145,21.084,61.972
16196.0,-38.606,65.145,21.084,61.972
16206.0,-33.606,69.145,24.084,63.972
16216.0,-22.606,76.145,23.084,64.972
16226.0,-13.606,78.145,21.084,64.972
16236.0,-6.6062,79.145,14.084,63.972
16246.0,5.3938,82.145,3.0845,56.972
16256.0,16.394,88.145,8.0845,54.972
16266.0,28.394,90.145,19.084,55.972
16275.0,39.394,92.145,32.084,58.972
16285.0,46.394,92.145,32.084,58.972
16295.0,51.394,90.145,57.084,66.972
16305.0,57.394,90.145,69.084,67.972
16315.0,66.394,91.145,76.084,68.972
16325.0,71.394,92.145,76.084,68.972
16335.0,76.394,94.145,98.084,75.972
16345.0,79.394,93.145,98.084,75.972
16355.0,84.394,93.145,108.08,78.972
16364.0,87.394,94.145,108.08,78.972
16374.0,93.394,92.145,112.08,79.972
16384.0,96.394,92.145,112.08,79.972
16394.0,98.394,92.145,112.08,79.972
16404.0,98.394,91.145,112.08,79.972
16414.0,97.394,89.145,114.08,80.972
16424.0,95.394,88.145,114.08,80.972
16434.0,97.394,88.145,117.08,83.972
16444.0,100.39,87.145,117.08,83.972
16453.0,98.394,87.145,116.08,83.972
16463.0,97.394,87.145,116.08,83.972
16473.0,98.394,85.145,113.08,81.972
16483.0,99.394,86.145,113.08,81.972
16493.0,99.394,86.145,111.08,81.972
16503.0,101.39,86.145,111.08,81.972
16513.0,99.394,87.145,112.08,80.972
16523.0,100.39,85.145,111.08,82.972
16532.0,97.394,85.145,108.08,81.972
16542.0,94.394,80.145,109.08,79.972
16552.0,92.394,79.145,106.08,79.972
16562.0,88.394,76.145,108.08,79.972
16572.0,85.394,74.145,105.08,79.972
16582.0,81.394,72.145,104.08,78.972
16592.0,78.394,70.145,103.08,79.972
16602.0,74.394,68.145,101.08,77.972
16612.0,69.394,66.145,102.08,77.972
16621.0,66.394,63.145,98.084,76.972
16631.0,64.394,64.145,97.084,76.972
16641.0,58.394,61.145,95.084,76.972
16651.0,58.394,61.145,92.084,76.972
16661.0,49.394,57.145,90.084,76.972
16671.0,49.394,57.145,89.084,74.972
16681.0,41.394,51.145,86.084,74.972
16691.0,41.394,51.145,83.084,73.972
16701.0,28.394,46.145,82.084,73.972
16710.0,28.394,46.145,80.084,72.972
16720.0,20.394,42.145,77.084,73.972
16730.0,20.394,42.145,75.084,72.972
16740.0,10.394,39.145,75.084,72.972
16750.0,10.394,39.145,71.084,70.972
16760.0,-1.6062,32.145,67.084,70.972
16770.0,-1.6062,32.145,67.084,69.972
16780.0,-13.606,28.145,66.084,69.972
16790.0,-13.606,28.145,64.084,69.972
16799.0,-16.606,26.145,61.084,67.972
16809.0,-24.606,22.145,59.084,68.972
16819.0,-30.606,18.145,59.084,69.972
16829.0,-37.606,15.145,58.084,68.972
16839.0,-41.606,14.145,55.084,68.972
16849.0,-49.606,10.145,53.084,67.972
16859.0,-55.606,6.1449,54.084,69.972
16869.0,-62.606,4.1449,55.084,70.972
16878.0,-69.606,-0.85506,54.084,71.972
16888.0,-76.606,-4.8551,53.084,72.972
16898.0,-86.606,-8.8551,54.084,72.972
16908.0,-92.606,-12.855,50.084,71.972
16918.0,-101.61,-15.855,50.084,72.972
16928.0,-108.61,-20.855,47.084,72.972
16938.0,-109.61,-21.855,46.084,73.972
16948.0,-107.61,-21.855,48.084,73.972
16958.0,-95.606,-17.855,48.084,72.972
16967.0,-85.606,-10.855,50.084,75.972
16977.0,-78.606,-8.8551,45.084,73.972
16987.0,-68.606,-5.8551,35.084,68.972
16997.0,-62.606,-6.8551,27.084,61.972
17007.0,-51.606,-3.8551,36.084,61.972
17017.0,-39.606,-2.8551,44.084,61.972
17027.0,-31.606,-1.8551,53.084,64.972
17037.0,-24.606,-1.8551,65.084,67.972
17047.0,-16.606,-1.8551,73.084,69.972
17056.0,-6.6062,0.14494,72.084,68.972
17066.0,0.39382,2.1449,75.084,69.972
17076.0,7.3938,4.1449,3.0845,55.972
17086.0,13.394,4.1449,13.084,57.972
17096.0,18.394,4.1449,22.084,60.972
17106.0,23.394,6.1449,74.084,71.972
17116.0,30.394,7.1449,93.084,76.972
17126.0,33.394,8.1449,100.08,77.972
17136.0,39.394,8.1449,107.08,78.972
17145.0,41.394,5.1449,108.08,79.972
17155.0,43.394,6.1449,109.08,79.972
17165.0,43.394,6.1449,109.08,78.972
17175.0,45.394,5.1449,111.08,80.972
17185.0,42.394,6.1449,113.08,80.972
17195.0,44.394,5.1449,109.08,80.972
17205.0,41.394,4.1449,109.08,80.972
17215.0,43.394,4.1449,105.08,79.972
17224.0,39.394,2.1449,102.08,79.972
17234.0,39.394,1.1449,100.08,78.972
17244.0,35.394,0.14494,99.084,77.972
17254.0,35.394,-0.85506,97.084,76.972
17264.0,31.394,-1.8551,96.084,75.972
17274.0,32.394,-1.8551,94.084,75.972
17284.0,29.394,-3.8551,92.084,75.972
17294.0,26.394,-6.8551,92.084,74.972
17304.0,22.394,-6.8551,91.084,74.972
17313.0,18.394,-8.8551,91.084,74.972
17323.0,16.394,-10.855,88.084,71.972
17333.0,11.394,-14.855,88.084,71.972
17343.0,4.3938,-16.855,82.084,70.972
17353.0,1.3938,-18.855,82.084,70.972
17363.0,-2.6062,-20.855,78.084,69.972
17373.0,-7.6062,-22.855,78.084,69.972
17383.0,-7.6062,-22.855,73.084,67.972
17393.0,-17.606,-28.855,73.084,67.972
17402.0,-17.606,-28.855,77.084,70.972
17412.0,-26.606,-30.855,77.084,70.972
17422.0,-26.606,-30.855,75.084,70.972
17432.0,-35.606,-37.855,75.084,70.972
17442.0,-35.606,-37.855,71.084,69.972
17452.0,-48.606,-40.855,71.084,69.972
17462.0,-48.606,-40.855,67.084,67.972
17472.0,-56.606,-43.855,67.084,67.972
17482.0,-56.606,-43.855,62.084,68.972
17491.0,-67.606,-50.855,59.084,66.972
17501.0,-67.606,-50.855,56.084,66.972
17511.0,-78.606,-53.855,54.084,65.972
17521.0,-78.606,-53.855,52.084,64.972
17531.0,-86.606,-56.855,47.084,65.972
17541.0,-87.606,-58.855,59.084,67.972
17551.0,-95.606,-61.855,39.084,62.972
17561.0,-100.61,-61.855,38.084,63.972
17570.0,-101.61,-62.855,36.084,63.972
17580.0,-107.61,-63.855,33.084,62.972
17590.0,-112.61,-65.855,31.084,62.972
17600.0,-115.61,-66.855,27.084,62.972
17610.0,-120.61,-67.855,24.084,61.972
17620.0,-124.61,-68.855,22.084,60.972
17630.0,-131.61,-70.855,21.084,60.972
17640.0,-136.61,-72.855,19.084,59.972
17650.0,-140.61,-72.855,16.084,59.972
17659.0,-144.61,-74.855,15.084,59.972
17669.0,-152.61,-77.855,17.084,59.972
17679.0,-159.61,-79.855,16.084,60.972
17689.0,-166.61,-84.855,12.084,59.972
17699.0,-168.61,-83.855,12.084,58.972
17709.0,-164.61,-83.855,8.0845,58.972
17719.0,-149.61,-75.855,3.0845,56.972
17729.0,-135.61,-67.855,6.0845,59.972
17739.0,-124.61,-60.855,1.0845,57.972
17748.0,-116.61,-59.855,-7.9155,54.972
17758.0,-110.61,-57.855,-23.916,46.972
17768.0,-103.61,-57.855,-21.916,43.972
17778.0,-92.606,-53.855,-7.9155,44.972
17788.0,-84.606,-50.855,3.0845,48.972
17798.0,-76.606,-50.855,17.084,50.972
17808.0,-68.606,-49.855,39.084,56.972
17818.0,-62.606,-47.855,37.084,55.972
17828.0,-51.606,-43.855,48.084,58.972
17837.0,-42.606,-42.855,56.084,61.972
17847.0,-33.606,-38.855,70.084,64.972
17857.0,-28.606,-35.855,78.084,68.972
17867.0,-23.606,-34.855,84.084,68.972
17877.0,-15.606,-31.855,93.084,69.972
17887.0,-11.606,-29.855,97.084,70.972
17897.0,-4.6062,-29.855,106.08,74.972
17907.0,-5.6062,-28.855,114.08,76.972
17916.0,-4.6062,-28.855,115.08,77.972
17926.0,-5.6062,-29.855,118.08,77.972
17936.0,-3.6062,-27.855,121.08,77.972
17946.0,0.39382,-26.855,122.08,78.972
17956.0,0.39382,-26.855,132.08,81.972
17966.0,-0.60618,-25.855,133.08,80.972
17976.0,0.39382,-26.855,129.08,80.972
17986.0,0.39382,-24.855,127.08,80.972
17996.0,0.39382,-25.855,126.08,79.972
18005.0,-5.6062,-27.855,119.08,77.972
18015.0,-2.6062,-25.855,117.08,78.972
18025.0,-10.606,-29.855,120.08,78.972
18035.0,-12.606,-31.855,118.08,78.972
18045.0,-19.606,-35.855,119.08,78.972
18055.0,-24.606,-37.855,119.08,78.972
18065.0,-33.606,-41.855,118.08,80.972
18075.0,-41.606,-45.855,116.08,78.972
18085.0,-50.606,-49.855,116.08,78.972
18094.0,-59.606,-53.855,116.08,79.972
18104.0,-70.606,-60.855,116.08,78.972
18114.0,-70.606,-60.855,113.08,79.972
18124.0,-90.606,-68.855,111.08,77.972
18134.0,-90.606,-68.855,111.08,77.972
18144.0,-107.61,-75.855,110.08,77.972
18154.0,-107.61,-75.855,107.08,77.972
18164.0,-113.61,-77.855,104.08,76.972
18174.0,-113.61,-77.855,100.08,76.972
18183.0,-126.61,-84.855,102.08,75.972
18193.0,-126.61,-84.855,99.084,77.972
18203.0,-146.61,-94.855,99.084,76.972
18213.0,-146.61,-94.855,96.084,75.972
18223.0,-168.61,-104.86,95.084,75.972
18233.0,-168.61,-104.86,93.084,73.972
18243.0,-178.61,-109.86,93.084,73.972
18253.0,-190.61,-115.86,102.08,74.972
18262.0,-200.61,-120.86,102.08,74.972
18272.0,-209.61,-129.86,82.084,70.972
18282.0,-224.61,-133.86,82.084,70.972
18292.0,-234.61,-140.86,78.084,68.972
18302.0,-247.61,-145.86,78.084,68.972
18312.0,-258.61,-150.86,73.084,69.972
18322.0,-265.61,-156.86,73.084,69.972
18332.0,-276.61,-160.86,68.084,68.972
18342.0,-285.61,-163.86,68.084,68.972
18351.0,-295.61,-168.86,63.084,66.972
18361.0,-302.61,-170.86,63.084,66.972
18371.0,-311.61,-173.86,58.084,67.972
18381.0,-318.61,-177.86,58.084,67.972
18391.0,-327.61,-180.86,55.084,64.972
18401.0,-333.61,-183.86,55.084,64.972
18411.0,-342.61,-187.86,52.084,64.972
18421.0,-349.61,-191.86,52.084,64.972
18431.0,-357.61,-194.86,51.084,64.972
18440.0,-364.61,-197.86,47.084,62.972
18450.0,-371.61,-199.86,43.084,62.972
18460.0,-378.61,-201.86,41.084,62.972
18470.0,-387.61,-205.86,38.084,60.972
18480.0,-396.61,-210.86,31.084,57.972
18490.0,-405.61,-214.86,30.084,58.972
18500.0,-411.61,-217.86,28.084,56.972
18510.0,-413.61,-218.86,24.084,57.972
18520.0,-403.61,-212.86,24.084,56.972
18529.0,-393.61,-204.86,23.084,56.972
18539.0,-378.61,-196.86,22.084,56.972
18549.0,-367.61,-190.86,17.084,55.972
18559.0,-352.61,-184.86,6.0845,50.972
18569.0,-341.61,-178.86,-0.9155,42.972
18579.0,-328.61,-171.86,7.0845,42.972
18589.0,-312.61,-163.86,18.084,44.972
18599.0,-297.61,-158.86,29.084,47.972
18608.0,-287.61,-154.86,40.084,49.972
18618.0,-275.61,-150.86,53.084,53.972
18628.0,-267.61,-146.86,60.084,54.972
18638.0,-257.61,-142.86,66.084,57.972
18648.0,-248.61,-137.86,72.084,58.972
18658.0,-243.61,-136.86,80.084,62.972
18668.0,-239.61,-132.86,87.084,63.972
18678.0,-237.61,-132.86,91.084,67.972
18688.0,-236.61,-132.86,96.084,66.972
18697.0,-235.61,-134.86,102.08,67.972
18707.0,-238.61,-136.86,108.08,70.972
18717.0,-241.61,-136.86,108.08,70.972
18727.0,-244.61,-140.86,110.08,69.972
18737.0,-249.61,-143.86,111.08,71.972
18747.0,-250.61,-143.86,114.08,71.972
18757.0,-254.61,-146.86,114.08,72.972
18767.0,-260.61,-149.86,113.08,73.972
18777.0,-263.61,-151.86,110.08,72.972
18786.0,-270.61,-155.86,108.08,71.972
18796.0,-276.61,-160.86,106.08,72.972
18806.0,-279.61,-161.86,107.08,72.972
18816.0,-285.61,-162.86,108.08,74.972
18826.0,-287.61,-163.86,112.08,75.972
18836.0,-292.61,-164.86,122.08,77.972
18846.0,-292.61,-164.86,120.08,76.972
18856.0,-295.61,-167.86,121.08,77.972
18866.0,-295.61,-167.86,121.08,77.972
18875.0,-298.61,-165.86,124.08,76.972
18885.0,-298.61,-165.86,122.08,77.972
18895.0,-306.61,-167.86,122.08,77.972
18905.0,-306.61,-167.86,124.08,78.972
18915.0,-313.61,-171.86,124.08,78.972
18925.0,-313.61,-171.86,121.08,78.972
18935.0,-327.61,-176.86,121.08,78.972
18945.0,-327.61,-176.86,121.08,78.972
18954.0,-343.61,-185.86,119.08,77.972
18964.0,-343.61,-185.86,120.08,78.972
18974.0,-348.61,-188.86,118.08,77.972
18984.0,-352.61,-188.86,116.08,78.972
18994.0,-354.61,-185.86,114.08,77.972
19004.0,-352.61,-185.86,115.08,77.972
19014.0,-350.61,-180.86,114.08,78.972
19024.0,-346.61,-177.86,113.08,78.972
19034.0,-343.61,-172.86,110.08,78.972
19043.0,-341.61,-168.86,111.08,78.972
19053.0,-336.61,-165.86,106.08,77.972
19063.0,-338.61,-162.86,105.08,76.972
19073.0,-337.61,-162.86,102.08,76.972
19083.0,-341.61,-163.86,101.08,76.972
19093.0,-348.61,-165.86,100.08,76.972
19103.0,-350.61,-165.86,98.084,74.972
19113.0,-353.61,-166.86,98.084,74.972
19123.0,-354.61,-166.86,94.084,73.972
19132.0,-360.61,-168.86,94.084,74.972
19142.0,-364.61,-172.86,92.084,73.972
19152.0,-372.61,-175.86,91.084,74.972
19162.0,-382.61,-180.86,88.084,74.972
19172.0,-387.61,-184.86,85.084,73.972
19182.0,-394.61,-187.86,83.084,74.972
19192.0,-398.61,-191.86,83.084,73.972
19202.0,-407.61,-195.86,77.084,72.972
19212.0,-415.61,-198.86,76.084,72.972
19221.0,-424.61,-203.86,75.084,73.972
19231.0,-432.61,-208.86,74.084,71.972
19241.0,-440.61,-214.86,74.084,72.972
19251.0,-448.61,-215.86,72.084,72.972
19261.0,-454.61,-219.86,73.084,74.972
19271.0,-457.61,-220.86,73.084,74.972
19281.0,-462.61,-222.86,71.084,73.972
19291.0,-468.61,-223.86,71.084,73.972
19300.0,-475.61,-226.86,68.084,74.972
19310.0,-479.61,-229.86,68.084,74.972
19320.0,-482.61,-230.86,65.084,74.972
19330.0,-486.61,-235.86,65.084,74.972
19340.0,-480.61,-231.86,60.084,73.972
19350.0,-469.61,-226.86,60.084,73.972
19360.0,-460.61,-221.86,56.084,71.972
19370.0,-449.61,-220.86,56.084,71.972
19380.0,-445.61,-218.86,48.084,61.972
19389.0,-436.61,-215.86,48.084,61.972
19399.0,-425.61,-209.86,72.084,65.972
19409.0,-410.61,-204.86,72.084,65.972
19419.0,-397.61,-197.86,99.084,72.972
19429.0,-386.61,-192.86,99.084,72.972
19439.0,-381.61,-190.86,120.08,79.972
19449.0,-374.61,-189.86,120.08,79.972
19459.0,-374.61,-189.86,136.08,83.972
19469.0,-373.61,-192.86,136.08,83.972
19478.0,-375.61,-195.86,148.08,88.972
19488.0,-376.61,-195.86,148.08,88.972
19498.0,-375.61,-200.86,153.08,89.972
19508.0,-375.61,-202.86,158.08,92.972
19518.0,-379.61,-204.86,160.08,92.972
19528.0,-381.61,-205.86,162.08,92.972
19538.0,-384.61,-209.86,164.08,93.972
19548.0,-385.61,-208.86,164.08,95.972
19557.0,-387.61,-209.86,168.08,97.972
19567.0,-387.61,-210.86,168.08,98.972
19577.0,-387.61,-210.86,169.08,97.972
19587.0,-389.61,-209.86,166.08,98.972
19597.0,-389.61,-209.86,164.08,97.972
19607.0,-392.61,-212.86,163.08,97.972
19617.0,-392.61,-212.86,162.08,98.972
19627.0,-397.61,-215.86,163.08,97.972
19637.0,-397.61,-215.86,162.08,97.972
19646.0,-403.61,-218.86,162.08,98.972
19656.0,-403.61,-218.86,164.08,99.972
19666.0,-410.61,-224.86,165.08,98.972
19676.0,-410.61,-224.86,165.08,98.972
19686.0,-430.61,-236.86,164.08,99.972
19696.0,-430.61,-236.86,163.08,99.972
19706.0,-437.61,-242.86,164.08,99.972
19716.0,-449.61,-247.86,165.08,99.972
19726.0,-454.61,-251.86,165.08,100.97
19735.0,-465.61,-262.86,165.08,101.97
19745.0,-471.61,-272.86,168.08,103.97
19755.0,-471.61,-277.86,169.08,100.97
19765.0,-469.61,-279.86,168.08,103.97
19775.0,-468.61,-280.86,169.08,102.97
19785.0,-464.61,-282.86,171.08,103.97
19795.0,-461.61,-282.86,170.08,104.97
19805.0,-464.61,-285.86,169.08,103.97
19815.0,-464.61,-285.86,167.08,104.97
19824.0,-464.61,-286.86,166.08,101.97
19834.0,-463.61,-285.86,164.08,101.97
19844.0,-464.61,-283.86,160.08,101.97
19854.0,-463.61,-283.86,159.08,99.972
19864.0,-465.61,-281.86,156.08,98.972
19874.0,-468.61,-281.86,153.08,99.972
19884.0,-475.61,-286.86,152.08,99.972
19894.0,-482.61,-288.86,153.08,98.972
19903.0,-495.61,-293.86,157.08,100.97
19913.0,-510.61,-301.86,155.08,101.97
19923.0,-530.61,-312.86,154.08,101.97
19933.0,-553.61,-324.86,154.08,101.97
19943.0,-578.61,-341.86,151.08,99.972
19953.0,-604.61,-358.86,151.08,100.97
19963.0,-634.61,-377.86,151.08,99.972
19973.0,-659.61,-392.86,153.08,100.97
19983.0,-684.61,-408.86,155.08,102.97
19992.0,-706.61,-420.86,159.08,102.97
20002.0,-726.61,-433.86,161.08,102.97
20012.0,-746.61,-446.86,157.08,102.97
20022.0,-762.61,-457.86,155.08,102.97
20032.0,-777.61,-465.86,156.08,102.97
20042.0,-786.61,-472.86,152.08,100.97
20052.0,-796.61,-477.86,147.08,101.97
20062.0,-801.61,-479.86,145.08,99.972
20072.0,-804.61,-483.86,141.08,99.972
20081.0,-805.61,-483.86,139.08,98.972
20091.0,-807.61,-482.86,136.08,96.972
20101.0,-808.61,-482.86,137.08,97.972
20111.0,-807.61,-481.86,133.08,96.972
20121.0,-800.61,-476.86,133.08,97.972
20131.0,-790.61,-464.86,132.08,98.972
20141.0,-750.61,-444.86,133.08,98.972
20151.0,-737.61,-434.86,135.08,99.972
20161.0,-712.61,-422.86,133.08,99.972
20170.0,-690.61,-411.86,126.08,95.972
20180.0,-672.61,-403.86,117.08,87.972
20190.0,-647.61,-392.86,128.08,87.972
20200.0,-619.61,-379.86,140.08,88.972
20210.0,-587.61,-361.86,154.08,91.972
20220.0,-556.61,-345.86,168.08,96.972
20230.0,-522.61,-324.86,179.08,98.972
20240.0,-491.61,-307.86,187.08,100.97
20249.0,-462.61,-290.86,196.08,102.97
20259.0,-435.61,-277.86,196.08,102.97
20269.0,-421.61,-270.86,207.08,106.97
20279.0,-405.61,-263.86,207.08,106.97
20289.0,-392.61,-254.86,213.08,107.97
20299.0,-379.61,-249.86,213.08,107.97
20309.0,-379.61,-249.86,214.08,107.97
20319.0,-363.61,-241.86,214.08,107.97
20329.0,-363.61,-241.86,217.08,108.97
20338.0,-354.61,-238.86,217.08,108.97
20348.0,-354.61,-238.86,220.08,111.97
20358.0,-345.61,-233.86,220.08,111.97
20368.0,-345.61,-233.86,213.08,111.97
20378.0,-348.61,-238.86,213.08,111.97
20388.0,-348.61,-238.86,103.08,87.972
20398.0,-359.61,-247.86,103.08,87.972
20408.0,-359.61,-247.86,126.08,95.972
20418.0,-373.61,-256.86,126.08,95.972
20427.0,-373.61,-256.86,117.08,93.972
20437.0,-377.61,-260.86,117.08,93.972
20447.0,-380.61,-260.86,132.08,97.972
20457.0,-374.61,-256.86,121.08,93.972
20467.0,-366.61,-251.86,119.08,93.972
20477.0,-361.61,-244.86,114.08,91.972
20487.0,-357.61,-240.86,129.08,97.972
20497.0,-354.61,-238.86,117.08,93.972
20507.0,-358.61,-237.86,113.08,93.972
20516.0,-354.61,-236.86,179.08,108.97
20526.0,-350.61,-233.86,190.08,111.97
20536.0,-341.61,-224.86,191.08,110.97
20546.0,-336.61,-223.86,192.08,112.97
20556.0,-342.61,-224.86,193.08,111.97
20566.0,-339.61,-221.86,192.08,112.97
20576.0,-342.61,-223.86,193.08,112.97
20586.0,-342.61,-224.86,193.08,113.97
20595.0,-344.61,-224.86,195.08,114.97
20605.0,-345.61,-222.86,194.08,114.97
20615.0,-343.61,-222.86,195.08,115.97
20625.0,-342.61,-223.86,191.08,116.97
20635.0,-341.61,-222.86,189.08,115.97
20645.0,-342.61,-221.86,188.08,116.97
20655.0,-341.61,-219.86,185.08,115.97
20665.0,-338.61,-215.86,181.08,116.97
20675.0,-334.61,-211.86,177.08,113.97
20684.0,-331.61,-209.86,171.08,112.97
20694.0,-328.61,-205.86,161.08,109.97
20704.0,-326.61,-202.86,158.08,108.97
20714.0,-323.61,-199.86,153.08,108.97
20724.0,-319.61,-196.86,149.08,106.97
20734.0,-313.61,-191.86,123.08,100.97
20744.0,-312.61,-189.86,93.084,95.972
20754.0,-307.61,-184.86,97.084,94.972
20764.0,-302.61,-182.86,87.084,92.972
20773.0,-303.61,-178.86,82.084,93.972
20783.0,-299.61,-176.86,80.084,91.972
20793.0,-299.61,-173.86,72.084,90.972
20803.0,-297.61,-171.86,71.084,89.972
20813.0,-296.61,-168.86,74.084,90.972
20823.0,-296.61,-166.86,72.084,90.972
20833.0,-293.61,-163.86,70.084,88.972
20843.0,-296.61,-163.86,69.084,88.972
20853.0,-299.61,-162.86,65.084,87.972
20862.0,-299.61,-163.86,66.084,87.972
20872.0,-304.61,-161.86,67.084,87.972
20882.0,-299.61,-160.86,66.084,86.972
20892.0,-298.61,-157.86,58.084,86.972
20902.0,-284.61,-152.86,75.084,90.972
20912.0,-272.61,-144.86,84.084,93.972
20922.0,-259.61,-137.86,86.084,94.972
20932.0,-247.61,-135.86,75.084,89.972
20941.0,-239.61,-133.86,53.084,81.972
20951.0,-227.61,-129.86,73.084,79.972
20961.0,-216.61,-126.86,82.084,78.972
20971.0,-207.61,-122.86,108.08,85.972
20981.0,-201.61,-122.86,126.08,89.972
20991.0,-192.61,-118.86,139.08,91.972
21001.0,-182.61,-115.86,157.08,96.972
21011.0,-174.61,-112.86,172.08,102.97
21021.0,-174.61,-112.86,180.08,106.97
21030.0,-162.61,-105.86,186.08,107.97
21040.0,-162.61,-105.86,194.08,109.97
21050.0,-152.61,-99.855,196.08,112.97
21060.0,-152.61,-99.855,196.08,112.97
21070.0,-152.61,-101.86,199.08,114.97
21080.0,-152.61,-101.86,202.08,115.97
21090.0,-152.61,-102.86,204.08,114.97
21100.0,-152.61,-102.86,203.08,116.97
21110.0,-155.61,-104.86,208.08,118.97
21119.0,-155.61,-104.86,211.08,119.97
21129.0,-154.61,-104.86,209.08,119.97
21139.0,-154.61,-104.86,209.08,120.97
21149.0,-154.61,-102.86,207.08,118.97
21159.0,-154.61,-102.86,205.08,117.97
21169.0,-157.61,-104.86,203.08,119.97
21179.0,-157.61,-103.86,203.08,118.97
21189.0,-157.61,-104.86,200.08,118.97
21199.0,-159.61,-106.86,196.08,117.97
21208.0,-163.61,-107.86,196.08,117.97
21218.0,-164.61,-110.86,182.08,118.97
21228.0,-168.61,-112.86,182.08,118.97
21238.0,-172.61,-114.86,192.08,119.97
21248.0,-174.61,-116.86,192.08,119.97
21258.0,-178.61,-118.86,197.08,121.97
21268.0,-182.61,-119.86,197.08,121.97
21278.0,-184.61,-121.86,217.08,128.97
21287.0,-190.61,-122.86,217.08,128.97
21297.0,-192.61,-124.86,221.08,131.97
21307.0,-198.61,-126.86,221.08,131.97
21317.0,-202.61,-128.86,223.08,133.97
21327.0,-206.61,-130.86,223.08,133.97
21337.0,-211.61,-131.86,226.08,134.97
21347.0,-214.61,-133.86,226.08,134.97
21357.0,-221.61,-136.86,225.08,134.97
21367.0,-224.61,-138.86,225.08,134.97
21376.0,-229.61,-139.86,222.08,134.97
21386.0,-234.61,-143.86,222.08,134.97
21396.0,-238.61,-145.86,220.08,134.97
21406.0,-243.61,-148.86,220.08,134.97
21416.0,-248.61,-148.86,218.08,134.97
21426.0,-252.61,-150.86,217.08,135.97
21436.0,-256.61,-152.86,213.08,135.97
21446.0,-261.61,-153.86,214.08,135.97
21456.0,-268.61,-155.86,213.08,137.97
21465.0,-273.61,-158.86,213.08,137.97
21475.0,-276.61,-158.86,212.08,137.97
21485.0,-282.61,-160.86,212.08,138.97
21495.0,-287.61,-164.86,213.08,139.97
21505.0,-292.61,-165.86,212.08,140.97
21515.0,-296.61,-168.86,212.08,142.97
21525.0,-302.61,-169.86,211.08,141.97
21535.0,-307.61,-172.86,212.08,143.97
21545.0,-312.61,-174.86,216.08,144.97
21554.0,-316.61,-175.86,215.08,146.97
21564.0,-319.61,-175.86,216.08,145.97
21574.0,-324.61,-178.86,215.08,146.97
21584.0,-329.61,-181.86,212.08,147.97
21594.0,-331.61,-180.86,211.08,147.97
21604.0,-337.61,-182.86,213.08,149.97
21614.0,-342.61,-183.86,214.08,150.97
21624.0,-346.61,-184.86,213.08,150.97
21633.0,-348.61,-185.86,213.08,150.97
21643.0,-345.61,-183.86,210.08,150.97
21653.0,-335.61,-176.86,211.08,150.97
21663.0,-331.61,-175.86,211.08,152.97
21673.0,-323.61,-172.86,207.08,152.97
21683.0,-311.61,-167.86,204.08,151.97
21693.0,-305.61,-162.86,199.08,146.97
21703.0,-295.61,-161.86,211.08,147.97
21713.0,-286.61,-156.86,224.08,151.97
21722.0,-279.61,-156.86,241.08,155.97
21732.0,-277.61,-157.86,256.08,158.97
21742.0,-274.61,-158.86,270.08,165.97
21752.0,-274.61,-158.86,285.08,169.97
21762.0,-264.61,-157.86,297.08,173.97
21772.0,-264.61,-157.86,304.08,178.97
21782.0,-257.61,-154.86,313.08,181.97
21792.0,-257.61,-154.86,317.08,183.97
21802.0,-247.61,-149.86,323.08,184.97
21811.0,-247.61,-149.86,325.08,186.97
21821.0,-241.61,-147.86,327.08,188.97
21831.0,-241.61,-147.86,326.08,189.97
21841.0,-237.61,-145.86,327.08,189.97
21851.0,-237.61,-145.86,326.08,192.97
21861.0,-234.61,-142.86,327.08,193.97
21871.0,-234.61,-142.86,328.08,194.97
21881.0,-229.61,-139.86,328.08,194.97
21891.0,-229.61,-139.86,324.08,194.97
21900.0,-228.61,-135.86,317.08,194.97
21910.0,-222.61,-133.86,317.08,194.97
21920.0,-220.61,-131.86,317.08,195.97
21930.0,-215.61,-128.86,320.08,197.97
21940.0,-210.61,-125.86,323.08,199.97
21950.0,-209.61,-123.86,327.08,203.97
21960.0,-209.61,-124.86,330.08,205.97
21970.0,-207.61,-123.86,331.08,205.97
21979.0,-209.61,-123.86,332.08,206.97
21989.0,-208.61,-123.86,330.08,205.97
21999.0,-207.61,-122.86,330.08,205.97
22009.0,-207.61,-122.86,328.08,205.97
22019.0,-206.61,-120.86,328.08,205.97
22029.0,-206.61,-118.86,327.08,205.97
22039.0,-205.61,-119.86,329.08,206.97
22049.0,-205.61,-117.86,324.08,205.97
22059.0,-208.61,-118.86,325.08,207.97
22068.0,-208.61,-116.86,325.08,207.97
22078.0,-210.61,-118.86,324.08,207.97
22088.0,-212.61,-118.86,324.08,207.97
22098.0,-218.61,-118.86,321.08,208.97
22108.0,-220.61,-120.86,322.08,207.97
22118.0,-222.61,-121.86,321.08,209.97
22128.0,-228.61,-124.86,319.08,208.97
22138.0,-230.61,-124.86,316.08,208.97
22148.0,-231.61,-124.86,316.08,207.97
22157.0,-232.61,-123.86,315.08,208.97
22167.0,-236.61,-123.86,314.08,208.97
22177.0,-237.61,-123.86,314.08,209.97
22187.0,-238.61,-123.86,310.08,209.97
22197.0,-240.61,-123.86,307.08,209.97
22207.0,-243.61,-125.86,306.08,209.97
22217.0,-246.61,-123.86,305.08,210.97
22227.0,-249.61,-125.86,302.08,210.97
22237.0,-252.61,-125.86,305.08,211.97
22246.0,-255.61,-126.86,302.08,211.97
22256.0,-260.61,-127.86,303.08,211.97
22266.0,-261.61,-127.86,301.08,211.97
22276.0,-266.61,-130.86,301.08,211.97
22286.0,-269.61,-132.86,300.08,210.97
22296.0,-273.61,-130.86,300.08,210.97
22306.0,-278.61,-133.86,294.08,211.97
22316.0,-285.61,-134.86,294.08,211.97
22325.0,-285.61,-136.86,290.08,211.97
22335.0,-287.61,-136.86,290.08,211.97
22345.0,-281.61,-132.86,290.08,211.97
22355.0,-273.61,-124.86,290.08,211.97
22365.0,-267.61,-123.86,292.08,215.97
22375.0,-261.61,-121.86,292.08,215.97
22385.0,-253.61,-118.86,274.08,207.97
22395.0,-244.61,-115.86,274.08,207.97
22405.0,-235.61,-115.86,289.08,206.97
22414.0,-227.61,-112.86,289.08,206.97
22424.0,-222.61,-112.86,310.08,210.97
22434.0,-215.61,-111.86,310.08,210.97
22444.0,-209.61,-112.86,330.08,217.97
22454.0,-201.61,-110.86,330.08,217.97
22464.0,-196.61,-107.86,341.08,219.97
22474.0,-190.61,-106.86,349.08,223.97
22484.0,-190.61,-106.86,359.08,226.97
22494.0,-179.61,-103.86,364.08,227.97
22503.0,-179.61,-103.86,371.08,231.97
22513.0,-172.61,-102.86,373.08,232.97
22523.0,-172.61,-102.86,377.08,233.97
22533.0,-168.61,-101.86,382.08,233.97
22543.0,-168.61,-101.86,383.08,234.97
22553.0,-167.61,-104.86,383.08,235.97
22563.0,-167.61,-104.86,385.08,235.97
22573.0,-166.61,-102.86,387.08,236.97
22583.0,-166.61,-102.86,385.08,236.97
22592.0,-167.61,-103.86,387.08,238.97
22602.0,-167.61,-103.86,382.08,237.97
22612.0,-168.61,-104.86,378.08,237.97
22622.0,-168.61,-105.86,374.08,235.97
22632.0,-164.61,-102.86,375.08,236.97
22642.0,-164.61,-101.86,375.08,236.97
22652.0,-162.61,-99.855,375.08,237.97
22662.0,-162.61,-100.86,373.08,236.97
22671.0,-164.61,-101.86,373.08,237.97
22681.0,-166.61,-99.855,372.08,235.97
22691.0,-165.61,-101.86,374.08,236.97
22701.0,-166.61,-101.86,374.08,236.97
22711.0,-168.61,-101.86,375.08,237.97
22721.0,-171.61,-102.86,373.08,235.97
22731.0,-170.61,-101.86,372.08,235.97
22741.0,-173.61,-102.86,367.08,235.97
22751.0,-176.61,-104.86,367.08,234.97
22760.0,-178.61,-105.86,363.08,234.97
22770.0,-181.61,-105.86,364.08,236.97
22780.0,-182.61,-106.86,364.08,236.97
22790.0,-184.61,-107.86,366.08,237.97
22800.0,-188.61,-106.86,365.08,237.97
22810.0,-188.61,-105.86,364.08,236.97
22820.0,-191.61,-106.86,361.08,236.97
22830.0,-192.61,-104.86,361.08,237.97
22840.0,-193.61,-105.86,358.08,236.97
22849.0,-196.61,-106.86,354.08,234.97
22859.0,-196.61,-105.86,349.08,234.97
22869.0,-201.61,-106.86,346.08,234.97
22879.0,-200.61,-106.86,345.08,233.97
22889.0,-204.61,-105.86,342.08,234.97
22899.0,-207.61,-106.86,341.08,233.97
22909.0,-212.61,-107.86,338.08,232.97
22919.0,-212.61,-110.86,334.08,230.97
22929.0,-220.61,-110.86,331.08,230.97
22938.0,-222.61,-112.86,329.08,229.97
22948.0,-226.61,-114.86,322.08,228.97
22958.0,-231.61,-116.86,318.08,227.97
22968.0,-236.61,-118.86,315.08,226.97
22978.0,-241.61,-120.86,314.08,226.97
22988.0,-246.61,-123.86,312.08,226.97
22998.0,-251.61,-125.86,314.08,227.97
23008.0,-257.61,-126.86,311.08,228.97
23017.0,-259.61,-127.86,311.08,226.97
23027.0,-259.61,-128.86,307.08,227.97
23037.0,-246.61,-122.86,309.08,228.97
23047.0,-238.61,-118.86,308.08,228.97
23057.0,-234.61,-115.86,304.08,227.97
23067.0,-224.61,-113.86,294.08,223.97
23077.0,-216.61,-109.86,253.08,208.97
23087.0,-204.61,-105.86,251.08,206.97
23097.0,-193.61,-103.86,260.08,207.97
23106.0,-189.61,-103.86,266.08,208.97
23116.0,-183.61,-101.86,265.08,208.97
23126.0,-177.61,-101.86,248.08,205.97
23136.0,-169.61,-100.86,236.08,204.97
23146.0,-164.61,-97.855,239.08,203.97
23156.0,-156.61,-96.855,251.08,208.97
23166.0,-152.61,-96.855,262.08,212.97
23176.0,-147.61,-97.855,267.08,213.97
23186.0,-144.61,-94.855,269.08,213.97
23195.0,-144.61,-94.855,269.08,213.97
23205.0,-135.61,-94.855,265.08,213.97
23215.0,-135.61,-94.855,264.08,212.97
23225.0,-130.61,-92.855,264.08,212.97
23235.0,-130.61,-92.855,268.08,214.97
23245.0,-124.61,-92.855,268.08,214.97
23255.0,-124.61,-92.855,268.08,214.97
23265.0,-120.61,-88.855,268.08,214.97
23275.0,-120.61,-88.855,261.08,212.97
23284.0,-114.61,-84.855,261.08,212.97
23294.0,-114.61,-84.855,251.08,211.97
23304.0,-113.61,-82.855,251.08,211.97
23314.0,-113.61,-82.855,250.08,209.97
23324.0,-110.61,-79.855,250.08,209.97
23334.0,-110.61,-79.855,251.08,211.97
23344.0,-108.61,-78.855,251.08,211.97
23354.0,-107.61,-78.855,244.08,208.97
23363.0,-109.61,-77.855,244.08,208.97
23373.0,-111.61,-78.855,222.08,202.97
23383.0,-110.61,-78.855,222.08,202.97
23393.0,-111.61,-78.855,221.08,201.97
23403.0,-113.61,-79.855,218.08,200.97
23413.0,-113.61,-79.855,215.08,200.97
23423.0,-119.61,-82.855,212.08,198.97
23433.0,-124.61,-86.855,210.08,198.97
23443.0,-129.61,-87.855,211.08,199.97
23452.0,-133.61,-89.855,204.08,198.97
23462.0,-135.61,-92.855,205.08,197.97
23472.0,-139.61,-92.855,202.08,196.97
23482.0,-144.61,-94.855,199.08,197.97
23492.0,-148.61,-97.855,201.08,195.97
23502.0,-152.61,-100.86,200.08,193.97
23512.0,-160.61,-100.86,193.08,193.97
23522.0,-162.61,-105.86,188.08,191.97
23532.0,-165.61,-106.86,184.08,188.97
23541.0,-171.61,-107.86,177.08,188.97
23551.0,-177.61,-109.86,173.08,188.97
23561.0,-179.61,-109.86,171.08,186.97
23571.0,-184.61,-111.86,168.08,186.97
23581.0,-188.61,-112.86,172.08,186.97
23591.0,-191.61,-112.86,166.08,185.97
23601.0,-194.61,-114.86,161.08,185.97
23611.0,-198.61,-114.86,158.08,183.97
23621.0,-201.61,-117.86,158.08,183.97
23630.0,-205.61,-119.86,153.08,182.97
23640.0,-209.61,-119.86,149.08,181.97
23650.0,-214.61,-120.86,143.08,179.97
23660.0,-220.61,-121.86,137.08,178.97
23670.0,-225.61,-125.86,134.08,176.97
23680.0,-231.61,-127.86,134.08,178.97
23690.0,-238.61,-131.86,130.08,176.97
23700.0,-243.61,-131.86,129.08,175.97
23709.0,-243.61,-134.86,117.08,172.97
23719.0,-237.61,-132.86,116.08,173.97
23729.0,-226.61,-125.86,123.08,174.97
23739.0,-216.61,-119.86,125.08,176.97
23749.0,-210.61,-118.86,121.08,173.97
23759.0,-200.61,-115.86,112.08,168.97
23769.0,-192.61,-114.86,111.08,164.97
23779.0,-183.61,-111.86,121.08,165.97
23789.0,-174.61,-109.86,129.08,167.97
23798.0,-165.61,-107.86,143.08,168.97
23808.0,-157.61,-105.86,148.08,170.97
23818.0,-148.61,-104.86,151.08,171.97
23828.0,-142.61,-102.86,167.08,175.97
23838.0,-135.61,-100.86,175.08,176.97
23848.0,-128.61,-98.855,186.08,180.97
23858.0,-122.61,-98.855,191.08,182.97
23868.0,-116.61,-94.855,197.08,183.97
23878.0,-112.61,-96.855,202.08,185.97
23887.0,-107.61,-94.855,209.08,185.97
23897.0,-101.61,-94.855,211.08,187.97
23907.0,-99.606,-92.855,215.08,188.97
23917.0,-100.61,-95.855,219.08,190.97
23927.0,-100.61,-95.855,219.08,191.97
23937.0,-105.61,-97.855,218.08,192.97
23947.0,-105.61,-97.855,216.08,191.97
23957.0,-108.61,-99.855,215.08,191.97
23967.0,-108.61,-99.855,210.08,191.97
23976.0,-111.61,-104.86,205.08,189.97
23986.0,-111.61,-104.86,200.08,188.97
23996.0,-118.61,-107.86,197.08,187.97
24006.0,-118.61,-107.86,196.08,187.97
24016.0,-122.61,-107.86,202.08,189.97
24026.0,-122.61,-107.86,200.08,188.97
24036.0,-123.61,-109.86,203.08,189.97
24046.0,-123.61,-109.86,200.08,188.97
24055.0,-131.61,-111.86,202.08,189.97
24065.0,-131.61,-111.86,201.08,189.97
24075.0,-135.61,-115.86,199.08,188.97
24085.0,-140.61,-118.86,197.08,188.97
24095.0,-144.61,-121.86,197.08,188.97
24105.0,-149.61,-123.86,194.08,188.97
24115.0,-155.61,-126.86,188.08,186.97
24125.0,-160.61,-128.86,186.08,185.97
24135.0,-167.61,-131.86,186.08,185.97
24144.0,-169.61,-133.86,184.08,185.97
24154.0,-175.61,-136.86,182.08,185.97
24164.0,-181.61,-140.86,178.08,184.97
24174.0,-185.61,-141.86,178.08,184.97
24184.0,-192.61,-145.86,180.08,186.97
24194.0,-198.61,-147.86,180.08,186.97
24204.0,-208.61,-151.86,173.08,185.97
24214.0,-212.61,-155.86,173.08,185.97
24224.0,-217.61,-157.86,170.08,184.97
24233.0,-224.61,-160.86,170.08,184.97
24243.0,-230.61,-162.86,166.08,182.97
24253.0,-236.61,-167.86,166.08,182.97
24263.0,-245.61,-168.86,164.08,183.97
24273.0,-251.61,-172.86,164.08,183.97
24283.0,-258.61,-175.86,160.08,181.97
24293.0,-264.61,-177.86,160.08,181.97
24303.0,-269.61,-181.86,154.08,181.97
24313.0,-278.61,-182.86,154.08,181.97
24322.0,-283.61,-185.86,150.08,180.97
24332.0,-291.61,-189.86,150.08,180.97
24342.0,-297.61,-191.86,144.08,179.97
24352.0,-300.61,-193.86,144.08,179.97
24362.0,-309.61,-197.86,141.08,179.97
24372.0,-316.61,-198.86,141.08,179.97
24382.0,-323.61,-203.86,134.08,178.97
24392.0,-329.61,-204.86,134.08,178.97
24401.0,-335.61,-207.86,128.08,177.97
24411.0,-344.61,-211.86,127.08,175.97
24421.0,-349.61,-212.86,125.08,176.97
24431.0,-348.61,-211.86,122.08,174.97
24441.0,-339.61,-208.86,135.08,179.97
24451.0,-329.61,-201.86,144.08,181.97
24461.0,-316.61,-193.86,153.08,182.97
24471.0,-303.61,-187.86,154.08,182.97
24481.0,-293.61,-185.86,145.08,181.97
24490.0,-286.61,-183.86,137.08,173.97
24500.0,-279.61,-180.86,138.08,172.97
24510.0,-266.61,-176.86,144.08,171.97
24520.0,-258.61,-173.86,155.08,174.97
24530.0,-248.61,-172.86,164.08,177.97
24540.0,-241.61,-169.86,177.08,179.97
24550.0,-233.61,-167.86,198.08,184.97
24560.0,-225.61,-164.86,207.08,188.97
24570.0,-215.61,-160.86,218.08,192.97
24579.0,-212.61,-158.86,216.08,192.97
24589.0,-205.61,-156.86,227.08,194.97
24599.0,-201.61,-156.86,235.08,196.97
24609.0,-196.61,-154.86,235.08,197.97
24619.0,-192.61,-153.86,237.08,196.97
24629.0,-189.61,-153.86,237.08,197.97
24639.0,-188.61,-153.86,242.08,198.97
24649.0,-187.61,-151.86,248.08,201.97
24659.0,-187.61,-151.86,250.08,201.97
24668.0,-187.61,-152.86,253.08,202.97
24678.0,-187.61,-152.86,252.08,202.97
24688.0,-186.61,-150.86,247.08,202.97
24698.0,-186.61,-150.86,246.08,202.97
24708.0,-181.61,-146.86,242.08,201.97
24718.0,-181.61,-146.86,238.08,201.97
24728.0,-171.61,-141.86,233.08,199.97
24738.0,-171.61,-141.86,227.08,199.97
24747.0,-159.61,-133.86,225.08,199.97
24757.0,-159.61,-133.86,222.08,198.97
24767.0,-148.61,-124.86,221.08,199.97
24777.0,-148.61,-124.86,224.08,199.97
24787.0,-144.61,-121.86,222.08,200.97
24797.0,-139.61,-116.86,219.08,199.97
24807.0,-134.61,-113.86,214.08,199.97
24817.0,-132.61,-111.86,219.08,201.97
24827.0,-130.61,-107.86,218.08,200.97
24836.0,-127.61,-104.86,213.08,200.97
24846.0,-129.61,-104.86,213.08,199.97
24856.0,-134.61,-103.86,205.08,197.97
24866.0,-137.61,-104.86,210.08,198.97
24876.0,-138.61,-104.86,205.08,197.97
24886.0,-144.61,-106.86,204.08,197.97
24896.0,-147.61,-107.86,208.08,198.97
24906.0,-152.61,-107.86,207.08,198.97
24916.0,-156.61,-107.86,204.08,196.97
24925.0,-161.61,-109.86,201.08,199.97
24935.0,-163.61,-110.86,190.08,196.97
24945.0,-168.61,-109.86,189.08,196.97
24955.0,-173.61,-109.86,185.08,195.97
24965.0,-177.61,-110.86,188.08,196.97
24975.0,-183.61,-112.86,188.08,196.97
24985.0,-186.61,-112.86,185.08,196.97
24995.0,-189.61,-111.86,183.08,195.97
25004.0,-192.61,-110.86,179.08,194.97
25014.0,-196.61,-112.86,178.08,195.97
25024.0,-205.61,-114.86,175.08,196.97
25034.0,-209.61,-114.86,179.08,195.97
25044.0,-212.61,-116.86,185.08,198.97
25054.0,-220.61,-120.86,185.08,198.97
25064.0,-225.61,-121.86,186.08,199.97
25074.0,-231.61,-120.86,183.08,197.97
25084.0,-237.61,-125.86,176.08,196.97
25093.0,-240.61,-127.86,175.08,197.97
25103.0,-245.61,-128.86,172.08,197.97
25113.0,-249.61,-129.86,167.08,198.97
25123.0,-255.61,-130.86,168.08,198.97
25133.0,-260.61,-131.86,165.08,197.97
25143.0,-264.61,-130.86,162.08,195.97
25153.0,-270.61,-133.86,156.08,196.97
25163.0,-272.61,-133.86,155.08,195.97
25173.0,-280.61,-135.86,149.08,192.97
25182.0,-285.61,-137.86,148.08,192.97
25192.0,-291.61,-140.86,145.08,192.97
25202.0,-298.61,-142.86,145.08,191.97
25212.0,-305.61,-146.86,145.08,192.97
25222.0,-309.61,-149.86,147.08,194.97
25232.0,-305.61,-148.86,149.08,195.97
25242.0,-299.61,-143.86,149.08,195.97
25252.0,-291.61,-138.86,149.08,197.97
25262.0,-281.61,-133.86,149.08,197.97
25271.0,-274.61,-131.86,139.08,191.97
25281.0,-265.61,-127.86,139.08,191.97
25291.0,-256.61,-123.86,140.08,186.97
25301.0,-248.61,-123.86,140.08,186.97
25311.0,-241.61,-120.86,161.08,191.97
25321.0,-237.61,-122.86,161.08,191.97
25331.0,-230.61,-123.86,182.08,194.97
25341.0,-226.61,-123.86,182.08,194.97
25350.0,-220.61,-123.86,202.08,199.97
25360.0,-219.61,-124.86,202.08,199.97
25370.0,-218.61,-125.86,253.08,209.97
25380.0,-217.61,-125.86,253.08,209.97
25390.0,-217.61,-125.86,214.08,206.97
25400.0,-213.61,-127.86,214.08,206.97
25410.0,-213.61,-127.86,212.08,205.97
25420.0,-213.61,-131.86,212.08,205.97
25430.0,-213.61,-131.86,217.08,207.97
25439.0,-217.61,-133.86,224.08,207.97
25449.0,-217.61,-133.86,224.08,208.97
25459.0,-220.61,-136.86,222.08,208.97
25469.0,-220.61,-136.86,221.08,208.97
25479.0,-221.61,-137.86,216.08,208.97
25489.0,-221.61,-137.86,216.08,206.97
25499.0,-224.61,-137.86,207.08,205.97
25509.0,-224.61,-137.86,204.08,202.97
25519.0,-224.61,-134.86,202.08,204.97
25528.0,-225.61,-135.86,197.08,202.97
25538.0,-224.61,-133.86,200.08,204.97
25548.0,-224.61,-133.86,203.08,205.97
25558.0,-227.61,-132.86,201.08,204.97
25568.0,-226.61,-132.86,197.08,205.97
25578.0,-226.61,-133.86,197.08,203.97
25588.0,-228.61,-134.86,195.08,203.97
25598.0,-230.61,-134.86,199.08,206.97
25608.0,-233.61,-136.86,201.08,207.97
25617.0,-237.61,-136.86,202.08,206.97
25627.0,-239.61,-137.86,199.08,207.97
25637.0,-244.61,-137.86,200.08,205.97
25647.0,-246.61,-139.86,197.08,205.97
25657.0,-251.61,-141.86,197.08,207.97
25667.0,-255.61,-143.86,193.08,207.97
25677.0,-261.61,-145.86,199.08,208.97
25687.0,-265.61,-146.86,229.08,217.97
25696.0,-269.61,-150.86,229.08,218.97
25706.0,-275.61,-151.86,234.08,220.97
25716.0,-279.61,-152.86,240.08,220.97
25726.0,-283.61,-154.86,240.08,222.97
25736.0,-291.61,-157.86,242.08,224.97
25746.0,-293.61,-158.86,240.08,222.97
25756.0,-299.61,-160.86,231.08,222.97
25766.0,-304.61,-160.86,229.08,222.97
25776.0,-309.61,-163.86,228.08,222.97
25785.0,-313.61,-164.86,227.08,221.97
25795.0,-317.61,-165.86,226.08,221.97
25805.0,-320.61,-166.86,227.08,222.97
25815.0,-326.61,-166.86,225.08,222.97
25825.0,-328.61,-169.86,221.08,223.97
25835.0,-333.61,-167.86,221.08,221.97
25845.0,-334.61,-169.86,217.08,222.97
25855.0,-341.61,-170.86,216.08,222.97
25865.0,-344.61,-171.86,216.08,221.97
25874.0,-348.61,-173.86,211.08,221.97
25884.0,-352.61,-174.86,208.08,222.97
25894.0,-358.61,-177.86,205.08,222.97
25904.0,-364.61,-178.86,206.08,222.97
25914.0,-369.61,-181.86,202.08,222.97
25924.0,-371.61,-182.86,201.08,223.97
25934.0,-376.61,-184.86,198.08,222.97
25944.0,-383.61,-187.86,204.08,224.97
25954.0,-388.61,-188.86,199.08,223.97
25963.0,-394.61,-192.86,202.08,224.97
25973.0,-396.61,-193.86,198.08,224.97
25983.0,-400.61,-195.86,198.08,225.97
25993.0,-403.61,-194.86,204.08,226.97
26003.0,-409.61,-196.86,193.08,224.97
26013.0,-412.61,-198.86,193.08,224.97
26023.0,-417.61,-200.86,190.08,225.97
26033.0,-422.61,-200.86,189.08,224.97
26042.0,-422.61,-202.86,184.08,225.97
26052.0,-417.61,-200.86,185.08,226.97
26062.0,-409.61,-195.86,187.08,227.97
26072.0,-407.61,-193.86,189.08,229.97
26082.0,-398.61,-189.86,189.08,227.97
26092.0,-390.61,-185.86,173.08,225.97
26102.0,-380.61,-180.86,169.08,218.97
26112.0,-372.61,-176.86,180.08,219.97
26122.0,-372.61,-176.86,196.08,225.97
26131.0,-360.61,-176.86,211.08,229.97
26141.0,-360.61,-176.86,221.08,232.97
26151.0,-352.61,-178.86,221.08,232.97
26161.0,-352.61,-178.86,246.08,239.97
26171.0,-344.61,-177.86,246.08,239.97
26181.0,-344.61,-177.86,270.08,248.97
26191.0,-337.61,-176.86,270.08,248.97
26201.0,-337.61,-176.86,289.08,255.97
26211.0,-328.61,-173.86,289.08,255.97
26220.0,-328.61,-173.86,296.08,259.97
26230.0,-326.61,-174.86,296.08,259.97
26240.0,-326.61,-174.86,297.08,261.97
26250.0,-323.61,-176.86,297.08,261.97
26260.0,-325.61,-177.86,299.08,263.97
26270.0,-323.61,-177.86,299.08,263.97
26280.0,-318.61,-175.86,301.08,267.97
26290.0,-316.61,-172.86,301.08,267.97
26300.0,-314.61,-171.86,292.08,266.97
26309.0,-311.61,-171.86,292.08,266.97
26319.0,-312.61,-169.86,287.08,265.97
26329.0,-308.61,-169.86,287.08,265.97
26339.0,-308.61,-168.86,295.08,270.97
26349.0,-305.61,-168.86,295.08,270.97
26359.0,-302.61,-166.86,301.08,271.97
26369.0,-302.61,-166.86,294.08,271.97
26379.0,-303.61,-167.86,278.08,268.97
26388.0,-301.61,-167.86,264.08,265.97
26398.0,-302.61,-166.86,216.08,261.97
26408.0,-303.61,-166.86,305.08,275.97
26418.0,-301.61,-167.86,312.08,277.97
26428.0,-304.61,-169.86,316.08,278.97
26438.0,-301.61,-167.86,318.08,278.97
26448.0,-303.61,-167.86,319.08,280.97
26458.0,-303.61,-167.86,319.08,281.97
26468.0,-305.61,-168.86,321.08,281.97
26477.0,-306.61,-168.86,320.08,282.97
26487.0,-308.61,-168.86,321.08,282.97
26497.0,-310.61,-168.86,323.08,285.97
26507.0,-312.61,-167.86,320.08,285.97
26517.0,-314.61,-168.86,319.08,286.97
26527.0,-315.61,-169.86,319.08,286.97
26537.0,-316.61,-168.86,315.08,285.97
26547.0,-320.61,-171.86,316.08,286.97
26557.0,-324.61,-173.86,314.08,285.97
26566.0,-328.61,-176.86,312.08,285.97
26576.0,-333.61,-177.86,313.08,283.97
26586.0,-335.61,-177.86,311.08,284.97
26596.0,-338.61,-180.86,308.08,285.97
26606.0,-342.61,-179.86,304.08,282.97
26616.0,-345.61,-180.86,303.08,284.97
26626.0,-347.61,-180.86,302.08,283.97
26636.0,-351.61,-183.86,302.08,282.97
26646.0,-356.61,-185.86,297.08,282.97
26655.0,-362.61,-186.86,298.08,283.97
26665.0,-363.61,-187.86,299.08,283.97
26675.0,-369.61,-190.86,295.08,283.97
26685.0,-374.61,-191.86,292.08,282.97
26695.0,-378.61,-193.86,288.08,281.97
26705.0,-380.61,-195.86,288.08,279.97
26715.0,-384.61,-196.86,288.08,279.97
26725.0,-390.61,-199.86,283.08,279.97
26734.0,-395.61,-201.86,280.08,279.97
26744.0,-398.61,-201.86,278.08,278.97
26754.0,-400.61,-202.86,276.08,276.97
26764.0,-405.61,-204.86,272.08,274.97
26774.0,-409.61,-206.86,270.08,274.97
26784.0,-411.61,-209.86,267.08,271.97
26794.0,-419.61,-210.86,265.08,273.97
26804.0,-422.61,-213.86,260.08,272.97
26814.0,-420.61,-213.86,262.08,272.97
26823.0,-413.61,-209.86,266.08,272.97
26833.0,-413.61,-209.86,266.08,272.97
26843.0,-401.61,-204.86,264.08,271.97
26853.0,-401.61,-204.86,258.08,270.97
26863.0,-384.61,-200.86,252.08,268.97
26873.0,-384.61,-200.86,241.08,261.97
26883.0,-365.61,-197.86,250.08,261.97
26893.0,-365.61,-197.86,262.08,263.97
26903.0,-350.61,-199.86,278.08,267.97
26912.0,-350.61,-199.86,291.08,269.97
26922.0,-334.61,-199.86,304.08,272.97
26932.0,-334.61,-199.86,317.08,275.97
26942.0,-325.61,-199.86,326.08,278.97
26952.0,-325.61,-199.86,338.08,280.97
26962.0,-316.61,-199.86,348.08,283.97
26972.0,-316.61,-199.86,356.08,286.97
26982.0,-313.61,-199.86,361.08,287.97
26992.0,-307.61,-197.86,369.08,289.97
27001.0,-303.61,-196.86,373.08,291.97
27011.0,-301.61,-197.86,382.08,294.97
27021.0,-298.61,-197.86,386.08,296.97
27031.0,-296.61,-197.86,388.08,296.97
27041.0,-295.61,-198.86,393.08,300.97
27051.0,-292.61,-196.86,406.08,303.97
27061.0,-290.61,-199.86,410.08,306.97
27071.0,-291.61,-198.86,407.08,305.97
27080.0,-289.61,-198.86,405.08,305.97
27090.0,-289.61,-197.86,403.08,304.97
27100.0,-285.61,-196.86,406.08,305.97
27110.0,-283.61,-196.86,412.08,308.97
27120.0,-279.61,-195.86,414.08,308.97
27130.0,-280.61,-195.86,413.08,310.97
27140.0,-280.61,-195.86,411.08,310.97
27150.0,-279.61,-194.86,410.08,309.97
27160.0,-277.61,-195.86,410.08,309.97
27169.0,-279.61,-195.86,409.08,309.97
27179.0,-281.61,-196.86,409.08,309.97
27189.0,-283.61,-198.86,407.08,310.97
27199.0,-283.61,-197.86,407.08,310.97
27209.0,-287.61,-200.86,405.08,311.97
27219.0,-286.61,-200.86,405.08,311.97
27229.0,-289.61,-202.86,401.08,310.97
27239.0,-292.61,-202.86,401.08,310.97
27249.0,-296.61,-204.86,399.08,312.97
27258.0,-298.61,-204.86,399.08,312.97
27268.0,-301.61,-205.86,399.08,312.97
27278.0,-304.61,-206.86,399.08,312.97
27288.0,-306.61,-209.86,395.08,313.97
27298.0,-311.61,-209.86,395.08,313.97
27308.0,-315.61,-210.86,396.08,271.97
27318.0,-316.61,-213.86,396.08,271.97
27328.0,-320.61,-214.86,393.08,271.97
27338.0,-322.61,-214.86,393.08,271.97
27347.0,-327.61,-216.86,390.08,272.97
27357.0,-330.61,-217.86,390.08,272.97
27367.0,-334.61,-218.86,384.08,270.97
27377.0,-336.61,-218.86,382.08,270.97
27387.0,-340.61,-222.86,377.08,269.97
27397.0,-345.61,-224.86,378.08,270.97
27407.0,-349.61,-225.86,378.08,271.97
27417.0,-354.61,-229.86,372.08,269.97
27426.0,-358.61,-229.86,373.08,270.97
27436.0,-364.61,-231.86,368.08,268.97
27446.0,-366.61,-232.86,368.08,268.97
27456.0,-368.61,-233.86,368.08,269.97
27466.0,-373.61,-236.86,366.08,269.97
27476.0,-377.61,-237.86,367.08,269.97
27486.0,-381.61,-238.86,365.08,269.97
27496.0,-387.61,-242.86,363.08,269.97
27506.0,-389.61,-244.86,360.08,268.97
27515.0,-395.61,-244.86,358.08,270.97
27525.0,-400.61,-247.86,355.08,269.97
27535.0,-405.61,-250.86,352.08,268.97
27545.0,-409.61,-251.86,352.08,265.97
27555.0,-408.61,-250.86,349.08,266.97
27565.0,-408.61,-250.86,348.08,266.97
27575.0,-388.61,-240.86,348.08,266.97
27585.0,-388.61,-240.86,348.08,268.97
27595.0,-368.61,-231.86,347.08,267.97
27604.0,-368.61,-231.86,338.08,263.97
27614.0,-345.61,-224.86,331.08,261.97
27624.0,-345.61,-224.86,327.08,256.97
27634.0,-324.61,-218.86,343.08,258.97
27644.0,-324.61,-218.86,358.08,263.97
27654.0,-304.61,-216.86,388.08,272.97
27664.0,-304.61,-216.86,404.08,276.97
27674.0,-287.61,-213.86,417.08,280.97
27684.0,-287.61,-213.86,431.08,283.97
27693.0,-271.61,-207.86,442.08,289.97
27703.0,-271.61,-207.86,454.08,291.97
27713.0,-266.61,-206.86,461.08,295.97
27723.0,-259.61,-203.86,469.08,297.97
27733.0,-254.61,-203.86,476.08,299.97
27743.0,-249.61,-203.86,481.08,301.97
27753.0,-244.61,-201.86,491.08,305.97
27763.0,-242.61,-202.86,495.08,306.97
27772.0,-241.61,-204.86,499.08,308.97
27782.0,-239.61,-203.86,503.08,310.97
27792.0,-238.61,-204.86,506.08,312.97
27802.0,-238.61,-205.86,509.08,312.97
27812.0,-239.61,-205.86,514.08,315.97
27822.0,-238.61,-205.86,516.08,315.97
27832.0,-236.61,-206.86,512.08,315.97
27842.0,-240.61,-207.86,510.08,314.97
27852.0,-240.61,-208.86,507.08,314.97
27861.0,-238.61,-207.86,508.08,314.97
27871.0,-240.61,-207.86,509.08,316.97
27881.0,-239.61,-207.86,507.08,315.97
27891.0,-239.61,-210.86,506.08,313.97
27901.0,-244.61,-209.86,503.08,314.97
27911.0,-243.61,-211.86,501.08,313.97
27921.0,-247.61,-215.86,500.08,314.97
27931.0,-253.61,-215.86,477.08,304.97
27941.0,-255.61,-217.86,479.08,306.97
27950.0,-260.61,-220.86,477.08,304.97
27960.0,-264.61,-222.86,477.08,305.97
27970.0,-266.61,-224.86,475.08,304.97
27980.0,-273.61,-225.86,473.08,305.97
27990.0,-275.61,-226.86,474.08,305.97
28000.0,-278.61,-229.86,472.08,303.97
28010.0,-284.61,-231.86,473.08,305.97
28020.0,-288.61,-235.86,469.08,303.97
28030.0,-292.61,-237.86,468.08,303.97
28039.0,-302.61,-240.86,465.08,302.97
28049.0,-305.61,-242.86,462.08,301.97
28059.0,-311.61,-245.86,460.08,300.97
28069.0,-316.61,-247.86,455.08,301.97
28079.0,-321.61,-250.86,458.08,301.97
28089.0,-329.61,-252.86,452.08,299.97
28099.0,-332.61,-254.86,452.08,300.97
28109.0,-339.61,-257.86,446.08,298.97
28118.0,-345.61,-260.86,445.08,297.97
28128.0,-350.61,-261.86,442.08,297.97
28138.0,-355.61,-264.86,440.08,296.97
28148.0,-361.61,-266.86,440.08,297.97
28158.0,-365.61,-268.86,438.08,296.97
28168.0,-371.61,-271.86,436.08,296.97
28178.0,-379.61,-273.86,431.08,296.97
28188.0,-384.61,-275.86,431.08,296.97
28198.0,-391.61,-279.86,427.08,295.97
28207.0,-396.61,-280.86,427.08,295.97
28217.0,-400.61,-282.86,425.08,294.97
28227.0,-410.61,-285.86,425.08,294.97
28237.0,-412.61,-286.86,420.08,292.97
28247.0,-418.61,-288.86,420.08,292.97
28257.0,-425.61,-290.86,416.08,291.97
28267.0,-431.61,-292.86,416.08,291.97
28277.0,-439.61,-297.86,425.08,297.97
28287.0,-444.61,-300.86,425.08,297.97
28296.0,-444.61,-300.86,419.08,297.97
28306.0,-456.61,-303.86,419.08,297.97
28316.0,-456.61,-303.86,421.08,297.97
28326.0,-449.61,-300.86,421.08,297.97
28336.0,-449.61,-300.86,421.08,299.97
28346.0,-427.61,-286.86,421.08,299.97
28356.0,-427.61,-286.86,412.08,296.97
28366.0,-408.61,-280.86,412.08,296.97
28376.0,-408.61,-280.86,401.08,291.97
28385.0,-394.61,-276.86,401.08,287.97
28395.0,-394.61,-276.86,411.08,287.97
28405.0,-382.61,-275.86,422.08,289.97
28415.0,-382.61,-275.86,435.08,296.97
28425.0,-372.61,-277.86,446.08,296.97
28435.0,-372.61,-277.86,462.08,302.97
28445.0,-365.61,-274.86,470.08,306.97
28455.0,-359.61,-271.86,482.08,308.97
28464.0,-354.61,-270.86,490.08,311.97
28474.0,-348.61,-269.86,499.08,314.97
28484.0,-346.61,-268.86,504.08,316.97
28494.0,-342.61,-267.86,509.08,318.97
28504.0,-341.61,-267.86,513.08,319.97
28514.0,-339.61,-268.86,517.08,319.97
28524.0,-338.61,-268.86,516.08,318.97
28534.0,-336.61,-270.86,520.08,320.97
28544.0,-337.61,-271.86,520.08,319.97
28553.0,-340.61,-273.86,555.08,336.97
28563.0,-341.61,-275.86,556.08,336.97
28573.0,-343.61,-276.86,556.08,336.97
28583.0,-344.61,-278.86,555.08,337.97
28593.0,-345.61,-277.86,555.08,337.97
28603.0,-349.61,-280.86,553.08,337.97
28613.0,-351.61,-282.86,551.08,335.97
28623.0,-355.61,-283.86,547.08,335.97
28633.0,-358.61,-287.86,547.08,334.97
28642.0,-360.61,-289.86,545.08,334.97
28652.0,-363.61,-290.86,544.08,334.97
28662.0,-364.61,-291.86,542.08,334.97
28672.0,-369.61,-293.86,541.08,333.97
28682.0,-372.61,-295.86,540.08,331.97
28692.0,-377.61,-297.86,540.08,333.97
28702.0,-382.61,-299.86,536.08,331.97
28712.0,-385.61,-301.86,534.08,331.97
28722.0,-390.61,-303.86,533.08,331.97
28731.0,-395.61,-306.86,532.08,331.97
28741.0,-399.61,-309.86,529.08,330.97
28751.0,-404.61,-310.86,528.08,330.97
28761.0,-410.61,-313.86,525.08,328.97
28771.0,-414.61,-315.86,525.08,330.97
28781.0,-420.61,-318.86,524.08,330.97
28791.0,-425.61,-319.86,523.08,329.97
28801.0,-429.61,-320.86,520.08,328.97
28810.0,-435.61,-323.86,518.08,327.97
28820.0,-442.61,-326.86,518.08,328.97
28830.0,-448.61,-327.86,515.08,328.97
28840.0,-452.61,-332.86,513.08,328.97
28850.0,-460.61,-333.86,509.08,326.97
28860.0,-462.61,-335.86,508.08,326.97
28870.0,-470.61,-337.86,508.08,326.97
28880.0,-475.61,-340.86,503.08,325.97
28890.0,-481.61,-342.86,503.08,325.97
28899.0,-485.61,-345.86,502.08,325.97
28909.0,-494.61,-348.86,498.08,325.97
28919.0,-499.61,-350.86,499.08,325.97
28929.0,-506.61,-353.86,494.08,323.97
28939.0,-511.61,-354.86,493.08,323.97
28949.0,-519.61,-356.86,494.08,323.97
28959.0,-523.61,-360.86,490.08,324.97
28969.0,-530.61,-363.86,487.08,322.97
28979.0,-538.61,-365.86,485.08,323.97
28988.0,-543.61,-369.86,484.08,322.97
28998.0,-550.61,-370.86,482.08,323.97
29008.0,-556.61,-374.86,479.08,324.97
29018.0,-563.61,-375.86,477.08,323.97
29028.0,-563.61,-375.86,473.08,321.97
29038.0,-577.61,-383.86,471.08,320.97
29048.0,-577.61,-383.86,467.08,320.97
29058.0,-589.61,-388.86,464.08,319.97
29068.0,-589.61,-388.86,463.08,317.97
29077.0,-604.61,-392.86,462.08,319.97
29087.0,-604.61,-392.86,462.08,318.97
29097.0,-599.61,-389.86,458.08,318.97
29107.0,-599.61,-389.86,461.08,319.97
29117.0,-572.61,-374.86,461.08,319.97
29127.0,-572.61,-374.86,461.08,323.97
29137.0,-546.61,-362.86,461.08,323.97
29147.0,-546.61,-362.86,447.08,313.97
29156.0,-523.61,-350.86,447.08,313.97
29166.0,-523.61,-350.86,464.08,315.97
29176.0,-508.61,-342.86,464.08,315.97
29186.0,-492.61,-336.86,489.08,320.97
29196.0,-474.61,-326.86,489.08,320.97
29206.0,-461.61,-319.86,509.08,324.97
29216.0,-444.61,-311.86,509.08,324.97
29226.0,-430.61,-304.86,530.08,331.97
29236.0,-417.61,-296.86,530.08,331.97
29245.0,-404.61,-288.86,541.08,336.97
29255.0,-394.61,-285.86,541.08,336.97
29265.0,-384.61,-278.86,552.08,339.97
29275.0,-375.61,-275.86,552.08,339.97
29285.0,-368.61,-270.86,556.08,339.97
29295.0,-363.61,-267.86,556.08,339.97
29305.0,-358.61,-265.86,557.08,342.97
29315.0,-358.61,-265.86,560.08,341.97
29325.0,-355.61,-263.86,559.08,342.97
29334.0,-354.61,-265.86,560.08,343.97
29344.0,-354.61,-264.86,561.08,343.97
29354.0,-353.61,-262.86,560.08,342.97
29364.0,-351.61,-262.86,559.08,344.97
29374.0,-352.61,-262.86,556.08,342.97
29384.0,-353.61,-261.86,553.08,341.97
29394.0,-352.61,-262.86,552.08,340.97
29404.0,-353.61,-261.86,550.08,340.97
29414.0,-357.61,-263.86,549.08,340.97
29423.0,-362.61,-264.86,549.08,340.97
29433.0,-362.61,-266.86,546.08,340.97
29443.0,-366.61,-268.86,546.08,341.97
29453.0,-369.61,-269.86,546.08,340.97
29463.0,-372.61,-272.86,526.08,331.97
29473.0,-375.61,-271.86,526.08,331.97
29483.0,-379.61,-273.86,524.08,329.97
29493.0,-386.61,-274.86,522.08,329.97
29502.0,-389.61,-276.86,522.08,329.97
29512.0,-392.61,-275.86,521.08,330.97
29522.0,-399.61,-279.86,520.08,329.97
29532.0,-405.61,-281.86,520.08,330.97
29542.0,-408.61,-283.86,518.08,329.97
29552.0,-410.61,-282.86,519.08,330.97
29562.0,-417.61,-285.86,515.08,330.97
29572.0,-421.61,-287.86,516.08,331.97
29582.0,-427.61,-288.86,514.08,330.97
29591.0,-432.61,-289.86,515.08,330.97
29601.0,-435.61,-290.86,513.08,330.97
29611.0,-438.61,-292.86,511.08,331.97
29621.0,-439.61,-289.86,510.08,331.97
29631.0,-442.61,-289.86,510.08,333.97
29641.0,-448.61,-289.86,509.08,333.97
29651.0,-452.61,-291.86,507.08,334.97
29661.0,-458.61,-291.86,505.08,333.97
29671.0,-464.61,-291.86,502.08,333.97
29680.0,-467.61,-292.86,502.08,332.97
29690.0,-471.61,-292.86,500.08,332.97
29700.0,-479.61,-295.86,496.08,331.97
29710.0,-485.61,-297.86,494.08,330.97
29720.0,-495.61,-300.86,493.08,330.97
29730.0,-500.61,-302.86,492.08,330.97
29740.0,-504.61,-304.86,490.08,331.97
29750.0,-511.61,-307.86,492.08,331.97
29760.0,-511.61,-307.86,494.08,332.97
29769.0,-526.61,-313.86,494.08,332.97
29779.0,-526.61,-313.86,492.08,332.97
29789.0,-538.61,-320.86,493.08,333.97
29799.0,-538.61,-320.86,491.08,333.97
29809.0,-556.61,-327.86,486.08,332.97
29819.0,-556.61,-327.86,484.08,332.97
29829.0,-568.61,-333.86,483.08,331.97
29839.0,-568.61,-333.86,478.08,331.97
29848.0,-581.61,-336.86,475.08,330.97
29858.0,-581.61,-336.86,471.08,330.97
29868.0,-592.61,-338.86,469.08,327.97
29878.0,-592.61,-338.86,470.08,329.97
29888.0,-606.61,-341.86,468.08,329.97
29898.0,-606.61,-341.86,467.08,329.97
29908.0,-605.61,-342.86,465.08,328.97
29918.0,-610.61,-345.86,466.08,327.97
29928.0,-600.61,-340.86,465.08,328.97
29937.0,-599.61,-339.86,464.08,328.97
29947.0,-595.61,-336.86,462.08,328.97
29957.0,-588.61,-333.86,451.08,321.97
29967.0,-581.61,-329.86,448.08,318.97
29977.0,-576.61,-327.86,461.08,319.97
29987.0,-570.61,-325.86,475.08,324.97
29997.0,-564.61,-326.86,489.08,327.97
