t,carotid_880nm,carotid_660nm,brachial_880nm,brachial_660nm
2.5,190.02,166.1,-244.1,-208.46
12.4,194.02,169.1,-243.1,-208.46
22.3,195.02,172.1,-241.1,-207.46
32.2,193.02,172.1,-240.1,-204.46
42.1,193.02,171.1,-239.1,-205.46
52.0,192.02,171.1,-236.1,-203.46
61.8,191.02,169.1,-236.1,-203.46
71.7,189.02,169.1,-236.1,-201.46
81.6,190.02,171.1,-236.1,-201.46
91.5,188.02,170.1,-235.1,-200.46
101.4,187.02,169.1,-233.1,-199.46
111.3,188.02,172.1,-231.1,-198.46
121.2,189.02,173.1,-231.1,-198.46
131.0,189.02,172.1,-231.1,-196.46
140.9,187.02,173.1,-229.1,-194.46
150.8,187.02,172.1,-228.1,-193.46
160.7,186.02,172.1,-230.1,-193.46
170.6,182.02,172.1,-230.1,-193.46
180.5,182.02,172.1,-229.1,-192.46
190.4,179.02,172.1,-233.1,-191.46
200.2,179.02,172.1,-232.1,-191.46
210.1,177.02,171.1,-233.1,-190.46
220.0,175.02,171.1,-232.1,-190.46
229.9,174.02,171.1,-231.1,-190.46
239.8,172.02,172.1,-233.1,-188.46
249.7,169.02,171.1,-234.1,-188.46
259.6,170.02,171.1,-235.1,-188.46
269.4,168.02,171.1,-235.1,-187.46
279.3,165.02,171.1,-236.1,-187.46
289.2,165.02,173.1,-237.1,-186.46
299.1,165.02,173.1,-238.1,-187.46
309.0,165.02,174.1,-240.1,-187.46
318.9,161.02,174.1,-242.1,-186.46
328.8,161.02,174.1,-244.1,-187.46
338.6,160.02,172.1,-245.1,-186.46
348.5,156.02,170.1,-246.1,-186.46
358.4,154.02,170.1,-245.1,-186.46
368.3,149.02,168.1,-247.1,-186.46
378.2,145.02,166.1,-245.1,-186.46
388.1,147.02,167.1,-247.1,-186.46
398.0,148.02,166.1,-247.1,-185.46
407.8,155.02,170.1,-245.1,-184.46
417.7,155.02,169.1,-248.1,-184.46
427.6,155.02,169.1,-253.1,-186.46
437.5,156.02,168.1,-259.1,-189.46
447.4,159.02,172.1,-269.1,-191.46
457.3,164.02,173.1,-264.1,-193.46
467.2,167.02,175.1,-254.1,-191.46
477.0,169.02,172.1,-242.1,-188.46
486.9,170.02,174.1,-232.1,-185.46
496.8,174.02,173.1,-222.1,-182.46
506.7,178.02,175.1,-213.1,-180.46
516.6,181.02,175.1,-204.1,-177.46
526.5,181.02,175.1,-196.1,-176.46
536.4,184.02,175.1,-191.1,-173.46
546.2,184.02,175.1,-185.1,-171.46
556.1,190.02,177.1,-179.1,-168.46
566.0,190.02,177.1,-174.1,-166.46
575.9,193.02,177.1,-170.1,-165.46
585.8,193.02,177.1,-167.1,-164.46
595.7,196.02,178.1,-165.1,-163.46
605.6,196.02,178.1,-163.1,-162.46
615.4,203.02,181.1,-162.1,-161.46
625.3,203.02,181.1,-162.1,-160.46
635.2,209.02,185.1,-160.1,-160.46
645.1,209.02,185.1,-162.1,-159.46
655.0,215.02,187.1,-164.1,-160.46
664.9,215.02,187.1,-166.1,-160.46
674.8,218.02,190.1,-170.1,-160.46
684.6,222.02,191.1,-170.1,-159.46
694.5,223.02,193.1,-172.1,-160.46
704.4,225.02,194.1,-170.1,-158.46
714.3,232.02,197.1,-169.1,-159.46
724.2,235.02,198.1,-171.1,-159.46
734.1,233.02,200.1,-172.1,-159.46
744.0,235.02,198.1,-172.1,-157.46
753.8,237.02,200.1,-169.1,-157.46
763.7,238.02,201.1,-169.1,-156.46
773.6,238.02,201.1,-168.1,-155.46
783.5,243.02,203.1,-166.1,-155.46
793.4,245.02,206.1,-166.1,-155.46
803.3,247.02,207.1,-167.1,-154.46
813.2,248.02,207.1,-167.1,-154.46
823.0,250.02,209.1,-167.1,-153.46
832.9,251.02,210.1,-167.1,-153.46
842.8,254.02,210.1,-169.1,-153.46
852.7,253.02,210.1,-169.1,-153.46
862.6,252.02,210.1,-174.1,-154.46
872.5,253.02,211.1,-174.1,-154.46
882.4,255.02,212.1,-179.1,-155.46
892.2,256.02,214.1,-179.1,-155.46
902.1,260.02,216.1,-185.1,-157.46
912.0,260.02,218.1,-185.1,-157.46
921.9,260.02,217.1,-185.1,-155.46
931.8,259.02,218.1,-185.1,-155.46
941.7,261.02,218.1,-186.1,-156.46
951.6,259.02,217.1,-186.1,-156.46
961.4,259.02,217.1,-187.1,-154.46
971.3,257.02,216.1,-187.1,-154.46
981.2,258.02,217.1,-191.1,-155.46
991.1,256.02,217.1,-191.1,-155.46
1001.0,256.02,216.1,-195.1,-156.46
1010.9,252.02,215.1,-195.1,-156.46
1020.8,252.02,214.1,-198.1,-157.46
1030.6,250.02,213.1,-201.1,-159.46
1040.5,246.02,212.1,-203.1,-158.46
1050.4,245.02,213.1,-203.1,-159.46
1060.3,244.02,210.1,-206.1,-158.46
1070.2,249.02,210.1,-205.1,-159.46
1080.1,251.02,210.1,-206.1,-157.46
1090.0,252.02,209.1,-208.1,-157.46
1099.8,253.02,208.1,-213.1,-159.46
1109.7,257.02,213.1,-219.1,-163.46
1119.6,263.02,213.1,-227.1,-167.46
1129.5,269.02,216.1,-225.1,-167.46
1139.4,273.02,219.1,-216.1,-166.46
1149.3,279.02,220.1,-206.1,-165.46
1159.2,283.02,222.1,-197.1,-162.46
1169.0,289.02,221.1,-186.1,-160.46
1178.9,296.02,223.1,-177.1,-158.46
1188.8,302.02,222.1,-169.1,-155.46
1198.7,306.02,225.1,-161.1,-152.46
1208.6,310.02,225.1,-153.1,-150.46
1218.5,312.02,226.1,-149.1,-149.46
1228.4,314.02,226.1,-141.1,-145.46
1238.2,318.02,226.1,-138.1,-145.46
1248.1,321.02,230.1,-133.1,-143.46
1258.0,321.02,230.1,-131.1,-144.46
1267.9,331.02,234.1,-129.1,-142.46
1277.8,331.02,234.1,-128.1,-142.46
1287.7,336.02,236.1,-127.1,-142.46
1297.6,336.02,236.1,-130.1,-141.46
1307.4,342.02,237.1,-129.1,-141.46
1317.3,342.02,237.1,-131.1,-142.46
1327.2,345.02,240.1,-135.1,-144.46
1337.1,345.02,240.1,-139.1,-144.46
1347.0,348.02,240.1,-141.1,-145.46
1356.9,348.02,240.1,-140.1,-145.46
1366.8,350.02,242.1,-141.1,-143.46
1376.6,350.02,242.1,-140.1,-144.46
1386.5,352.02,242.1,-141.1,-144.46
1396.4,352.02,242.1,-142.1,-143.46
1406.3,351.02,241.1,-143.1,-145.46
1416.2,353.02,240.1,-145.1,-145.46
1426.1,353.02,242.1,-146.1,-145.46
1436.0,355.02,241.1,-147.1,-147.46
1445.8,355.02,244.1,-148.1,-147.46
1455.7,355.02,244.1,-152.1,-149.46
1465.6,353.02,245.1,-153.1,-149.46
1475.5,353.02,244.1,-157.1,-150.46
1485.4,351.02,241.1,-158.1,-152.46
1495.3,347.02,241.1,-160.1,-151.46
1505.2,345.02,239.1,-162.1,-152.46
1515.0,339.02,237.1,-164.1,-153.46
1524.9,337.02,235.1,-167.1,-153.46
1534.8,330.02,232.1,-170.1,-155.46
1544.7,327.02,231.1,-170.1,-154.46
1554.6,325.02,228.1,-173.1,-156.46
1564.5,321.02,226.1,-177.1,-157.46
1574.4,316.02,225.1,-180.1,-158.46
1584.2,310.02,221.1,-182.1,-159.46
1594.1,306.02,219.1,-185.1,-161.46
1604.0,301.02,216.1,-187.1,-161.46
1613.9,298.02,213.1,-190.1,-162.46
1623.8,291.02,211.1,-193.1,-162.46
1633.7,286.02,208.1,-196.1,-163.46
1643.6,283.02,205.1,-199.1,-164.46
1653.4,278.02,203.1,-202.1,-165.46
1663.3,276.02,203.1,-205.1,-165.46
1673.2,274.02,200.1,-206.1,-167.46
1683.1,266.02,196.1,-208.1,-166.46
1693.0,259.02,192.1,-209.1,-166.46
1702.9,257.02,191.1,-210.1,-167.46
1712.8,257.02,187.1,-209.1,-166.46
1722.6,258.02,188.1,-210.1,-166.46
1732.5,262.02,188.1,-209.1,-166.46
1742.4,266.02,191.1,-213.1,-166.46
1752.3,269.02,191.1,-220.1,-169.46
1762.2,275.02,193.1,-228.1,-173.46
1772.1,280.02,195.1,-223.1,-173.46
1782.0,285.02,196.1,-223.1,-173.46
1791.8,289.02,197.1,-202.1,-170.46
1801.7,292.02,197.1,-202.1,-170.46
1811.6,294.02,196.1,-183.1,-166.46
1821.5,300.02,197.1,-183.1,-166.46
1831.4,306.02,197.1,-164.1,-161.46
1841.3,308.02,197.1,-164.1,-161.46
1851.2,311.02,197.1,-153.1,-157.46
1861.0,314.02,196.1,-153.1,-157.46
1870.9,314.02,196.1,-142.1,-155.46
1880.8,316.02,194.1,-142.1,-155.46
1890.7,321.02,196.1,-135.1,-152.46
1900.6,323.02,197.1,-135.1,-152.46
1910.5,323.02,196.1,-131.1,-151.46
1920.4,322.02,194.1,-131.1,-151.46
1930.2,320.02,192.1,-131.1,-151.46
1940.1,315.02,187.1,-131.1,-151.46
1950.0,311.02,184.1,-129.1,-152.46
1959.9,307.02,180.1,-131.1,-151.46
1969.8,304.02,179.1,-131.1,-149.46
1979.7,298.02,175.1,-131.1,-150.46
1989.6,298.02,175.1,-134.1,-152.46
1999.4,288.02,168.1,-135.1,-152.46
2009.3,288.02,168.1,-136.1,-153.46
2019.2,280.02,163.1,-137.1,-154.46
2029.1,280.02,163.1,-138.1,-152.46
2039.0,280.02,162.1,-143.1,-154.46
2048.9,280.02,162.1,-145.1,-155.46
2058.8,274.02,158.1,-147.1,-156.46
2068.6,274.02,158.1,-149.1,-158.46
2078.5,269.02,154.1,-152.1,-158.46
2088.4,269.02,154.1,-153.1,-157.46
2098.3,268.02,153.1,-152.1,-158.46
2108.2,268.02,153.1,-153.1,-157.46
2118.1,262.02,150.1,-157.1,-160.46
2128.0,262.02,150.1,-161.1,-160.46
2137.8,259.02,150.1,-163.1,-161.46
2147.7,256.02,150.1,-165.1,-162.46
2157.6,253.02,148.1,-167.1,-164.46
2167.5,251.02,148.1,-170.1,-164.46
2177.4,249.02,147.1,-172.1,-164.46
2187.3,246.02,146.1,-175.1,-166.46
2197.2,244.02,146.1,-176.1,-165.46
2207.0,244.02,144.1,-178.1,-168.46
2216.9,241.02,142.1,-181.1,-168.46
2226.8,238.02,142.1,-183.1,-169.46
2236.7,234.02,142.1,-185.1,-170.46
2246.6,232.02,139.1,-184.1,-169.46
2256.5,229.02,138.1,-187.1,-170.46
2266.3,227.02,137.1,-189.1,-169.46
2276.2,223.02,135.1,-189.1,-170.46
2286.1,219.02,133.1,-192.1,-171.46
2296.0,214.02,130.1,-195.1,-171.46
2305.9,212.02,131.1,-196.1,-172.46
2315.8,208.02,128.1,-201.1,-173.46
2325.7,205.02,127.1,-205.1,-174.46
2335.6,200.02,125.1,-209.1,-176.46
2345.4,198.02,123.1,-210.1,-176.46
2355.3,190.02,121.1,-214.1,-177.46
2365.2,185.02,117.1,-216.1,-179.46
2375.1,184.02,115.1,-218.1,-180.46
2385.0,185.02,114.1,-220.1,-178.46
2394.9,194.02,118.1,-219.1,-179.46
2404.7,202.02,123.1,-220.1,-178.46
2414.6,208.02,127.1,-224.1,-181.46
2424.5,213.02,128.1,-233.1,-185.46
2434.4,217.02,128.1,-236.1,-188.46
2444.3,220.02,129.1,-230.1,-187.46
2454.2,223.02,130.1,-221.1,-185.46
2464.1,227.02,130.1,-211.1,-183.46
2474.0,230.02,131.1,-202.1,-180.46
2483.8,235.02,131.1,-191.1,-180.46
2493.7,240.02,130.1,-181.1,-177.46
2503.6,242.02,132.1,-173.1,-175.46
2513.5,241.02,130.1,-167.1,-174.46
2523.4,244.02,131.1,-159.1,-171.46
2533.3,246.02,128.1,-153.1,-169.46
2543.1,245.02,129.1,-148.1,-169.46
2553.0,247.02,128.1,-149.1,-170.46
2562.9,247.02,126.1,-146.1,-170.46
2572.8,248.02,125.1,-144.1,-169.46
2582.7,246.02,125.1,-139.1,-167.46
2592.6,245.02,121.1,-136.1,-167.46
2602.5,242.02,123.1,-137.1,-166.46
2612.3,238.02,118.1,-136.1,-166.46
2622.2,238.02,117.1,-136.1,-167.46
2632.1,236.02,117.1,-136.1,-166.46
2642.0,235.02,117.1,-134.1,-166.46
2651.9,231.02,114.1,-137.1,-166.46
2661.8,231.02,113.1,-141.1,-168.46
2671.7,228.02,111.1,-145.1,-170.46
2681.5,225.02,109.1,-149.1,-170.46
2691.4,224.02,108.1,-152.1,-172.46
2701.3,224.02,110.1,-155.1,-173.46
2711.2,223.02,110.1,-158.1,-174.46
2721.1,223.02,110.1,-158.1,-173.46
2731.0,218.02,106.1,-160.1,-175.46
2740.9,218.02,106.1,-160.1,-174.46
2750.7,208.02,103.1,-160.1,-174.46
2760.6,208.02,103.1,-161.1,-174.46
2770.5,202.02,100.1,-161.1,-174.46
2780.4,202.02,100.1,-165.1,-176.46
2790.3,194.02,96.095,-165.1,-176.46
2800.2,194.02,96.095,-171.1,-178.46
2810.1,188.02,91.095,-171.1,-178.46
2819.9,188.02,91.095,-178.1,-181.46
2829.8,184.02,90.095,-178.1,-181.46
2839.7,184.02,90.095,-180.1,-181.46
2849.6,182.02,90.095,-180.1,-181.46
2859.5,179.02,89.095,-180.1,-180.46
2869.4,176.02,87.095,-180.1,-180.46
2879.3,173.02,85.095,-185.1,-181.46
2889.1,169.02,84.095,-185.1,-181.46
2899.0,166.02,83.095,-188.1,-181.46
2908.9,164.02,82.095,-188.1,-181.46
2918.8,161.02,80.095,-191.1,-183.46
2928.7,158.02,80.095,-191.1,-183.46
2938.6,154.02,80.095,-193.1,-182.46
2948.5,149.02,77.095,-197.1,-184.46
2958.3,147.02,76.095,-201.1,-185.46
2968.2,143.02,75.095,-204.1,-186.46
2978.1,142.02,75.095,-205.1,-186.46
2988.0,137.02,73.095,-207.1,-186.46
2997.9,135.02,74.095,-209.1,-186.46
3007.8,127.02,69.095,-211.1,-187.46
3017.7,125.02,69.095,-212.1,-186.46
3027.5,121.02,68.095,-214.1,-188.46
3037.4,116.02,66.095,-217.1,-187.46
3047.3,112.02,65.095,-219.1,-189.46
3057.2,109.02,64.095,-223.1,-189.46
3067.1,103.02,63.095,-225.1,-190.46
3077.0,98.02,60.095,-227.1,-191.46
3086.9,93.02,57.095,-230.1,-191.46
3096.7,88.02,55.095,-231.1,-191.46
3106.6,88.02,54.095,-229.1,-192.46
3116.5,91.02,55.095,-232.1,-191.46
3126.4,100.02,60.095,-233.1,-191.46
3136.3,107.02,64.095,-233.1,-191.46
3146.2,110.02,68.095,-236.1,-192.46
3156.1,116.02,69.095,-244.1,-195.46
3165.9,119.02,70.095,-251.1,-200.46
3175.8,121.02,69.095,-245.1,-200.46
3185.7,122.02,70.095,-236.1,-197.46
3195.6,127.02,71.095,-223.1,-194.46
3205.5,128.02,69.095,-208.1,-190.46
3215.4,132.02,70.095,-197.1,-189.46
3225.3,133.02,70.095,-190.1,-186.46
3235.1,136.02,71.095,-183.1,-186.46
3245.0,137.02,71.095,-174.1,-183.46
3254.9,138.02,71.095,-167.1,-181.46
3264.8,138.02,72.095,-162.1,-179.46
3274.7,142.02,71.095,-154.1,-176.46
3284.6,145.02,72.095,-150.1,-174.46
3294.5,143.02,72.095,-147.1,-171.46
3304.3,145.02,71.095,-145.1,-172.46
3314.2,144.02,71.095,-139.1,-170.46
3324.1,144.02,71.095,-139.1,-170.46
3334.0,142.02,69.095,-137.1,-170.46
3343.9,137.02,66.095,-135.1,-169.46
3353.8,137.02,68.095,-136.1,-169.46
3363.7,136.02,66.095,-136.1,-170.46
3373.5,136.02,68.095,-135.1,-167.46
3383.4,133.02,68.095,-137.1,-168.46
3393.3,133.02,66.095,-138.1,-169.46
3403.2,128.02,65.095,-142.1,-168.46
3413.1,126.02,64.095,-145.1,-168.46
3423.0,125.02,62.095,-146.1,-168.46
3432.9,125.02,62.095,-148.1,-168.46
3442.7,121.02,60.095,-150.1,-170.46
3452.6,121.02,60.095,-150.1,-171.46
3462.5,111.02,60.095,-151.1,-171.46
3472.4,111.02,60.095,-152.1,-172.46
3482.3,109.02,57.095,-151.1,-171.46
3492.2,109.02,57.095,-155.1,-172.46
3502.1,104.02,57.095,-157.1,-174.46
3511.9,104.02,57.095,-159.1,-174.46
3521.8,95.02,52.095,-160.1,-174.46
3531.7,95.02,52.095,-162.1,-174.46
3541.6,89.02,51.095,-162.1,-174.46
3551.5,89.02,51.095,-165.1,-175.46
3561.4,81.02,46.095,-165.1,-175.46
3571.3,81.02,46.095,-166.1,-175.46
3581.1,75.02,45.095,-168.1,-174.46
3591.0,71.02,43.095,-168.1,-175.46
3600.9,69.02,42.095,-172.1,-174.46
3610.8,68.02,39.095,-173.1,-176.46
3620.7,66.02,43.095,-177.1,-176.46
3630.6,65.02,43.095,-178.1,-177.46
3640.5,67.02,44.095,-179.1,-176.46
3650.3,64.02,46.095,-182.1,-177.46
3660.2,67.02,48.095,-184.1,-176.46
3670.1,67.02,48.095,-183.1,-177.46
3680.0,68.02,50.095,-188.1,-178.46
3689.9,70.02,54.095,-188.1,-176.46
3699.8,74.02,58.095,-190.1,-178.46
3709.7,77.02,62.095,-195.1,-177.46
3719.5,81.02,66.095,-198.1,-179.46
3729.4,84.02,68.095,-198.1,-179.46
3739.3,90.02,73.095,-200.1,-179.46
3749.2,92.02,77.095,-201.1,-180.46
3759.1,97.02,79.095,-201.1,-180.46
3769.0,102.02,83.095,-206.1,-180.46
3778.9,104.02,87.095,-206.1,-180.46
3788.7,109.02,91.095,-205.1,-179.46
3798.6,109.02,93.095,-205.1,-179.46
3808.5,113.02,94.095,-212.1,-181.46
3818.4,113.02,96.095,-212.1,-181.46
3828.3,114.02,98.095,-215.1,-180.46
3838.2,115.02,101.1,-215.1,-180.46
3848.1,116.02,102.1,-219.1,-183.46
3857.9,115.02,103.1,-219.1,-183.46
3867.8,115.02,103.1,-225.1,-184.46
3877.7,113.02,103.1,-225.1,-184.46
3887.6,111.02,101.1,-229.1,-185.46
3897.5,108.02,101.1,-229.1,-185.46
3907.4,106.02,100.1,-234.1,-185.46
3917.3,101.02,100.1,-234.1,-185.46
3927.1,103.02,99.095,-237.1,-186.46
3937.0,106.02,100.1,-237.1,-186.46
3946.9,113.02,105.1,-239.1,-186.46
3956.8,121.02,110.1,-240.1,-187.46
3966.7,124.02,112.1,-244.1,-186.46
3976.6,129.02,116.1,-251.1,-191.46
3986.5,130.02,118.1,-259.1,-195.46
3996.3,131.02,118.1,-251.1,-195.46
4006.2,133.02,119.1,-239.1,-192.46
4016.1,134.02,119.1,-225.1,-189.46
4026.0,135.02,119.1,-212.1,-186.46
4035.9,137.02,118.1,-203.1,-182.46
4045.8,144.02,119.1,-192.1,-181.46
4055.7,145.02,119.1,-184.1,-180.46
4065.5,147.02,121.1,-175.1,-177.46
4075.4,147.02,122.1,-172.1,-174.46
4085.3,151.02,124.1,-167.1,-174.46
4095.2,153.02,127.1,-164.1,-172.46
4105.1,153.02,126.1,-159.1,-171.46
4115.0,155.02,130.1,-159.1,-171.46
4124.9,158.02,131.1,-157.1,-171.46
4134.7,156.02,132.1,-156.1,-169.46
4144.6,156.02,133.1,-156.1,-170.46
4154.5,157.02,136.1,-155.1,-170.46
4164.4,157.02,136.1,-154.1,-171.46
4174.3,157.02,137.1,-155.1,-170.46
4184.2,157.02,137.1,-152.1,-169.46
4194.1,156.02,139.1,-154.1,-169.46
4203.9,156.02,139.1,-155.1,-169.46
4213.8,156.02,142.1,-158.1,-171.46
4223.7,156.02,142.1,-160.1,-171.46
4233.6,158.02,144.1,-161.1,-171.46
4243.5,158.02,144.1,-160.1,-169.46
4253.4,159.02,147.1,-160.1,-169.46
4263.3,159.02,147.1,-161.1,-169.46
4273.1,157.02,148.1,-162.1,-170.46
4283.0,157.02,148.1,-161.1,-170.46
4292.9,156.02,146.1,-164.1,-169.46
4302.8,156.02,146.1,-165.1,-169.46
4312.7,155.02,147.1,-165.1,-168.46
4322.6,153.02,146.1,-165.1,-168.46
4332.5,151.02,145.1,-166.1,-169.46
4342.3,150.02,146.1,-168.1,-168.46
4352.2,149.02,146.1,-169.1,-169.46
4362.1,145.02,145.1,-171.1,-170.46
4372.0,143.02,144.1,-171.1,-169.46
4381.9,142.02,145.1,-172.1,-169.46
4391.8,137.02,143.1,-174.1,-168.46
4401.7,136.02,143.1,-172.1,-168.46
4411.5,130.02,140.1,-173.1,-168.46
4421.4,129.02,140.1,-177.1,-167.46
4431.3,125.02,140.1,-175.1,-168.46
4441.2,123.02,139.1,-177.1,-168.46
4451.1,121.02,139.1,-176.1,-167.46
4461.0,120.02,138.1,-177.1,-166.46
4470.9,120.02,138.1,-180.1,-166.46
4480.7,117.02,140.1,-182.1,-168.46
4490.6,116.02,139.1,-183.1,-167.46
4500.5,113.02,138.1,-184.1,-167.46
4510.4,109.02,136.1,-186.1,-166.46
4520.3,105.02,136.1,-188.1,-167.46
4530.2,102.02,136.1,-189.1,-166.46
4540.1,99.02,134.1,-191.1,-166.46
4549.9,95.02,134.1,-194.1,-168.46
4559.8,94.02,134.1,-196.1,-168.46
4569.7,88.02,131.1,-198.1,-168.46
4579.6,86.02,132.1,-199.1,-167.46
4589.5,82.02,129.1,-202.1,-167.46
4599.4,78.02,128.1,-202.1,-167.46
4609.3,74.02,127.1,-205.1,-168.46
4619.1,70.02,125.1,-204.1,-169.46
4629.0,65.02,122.1,-207.1,-167.46
4638.9,60.02,121.1,-207.1,-168.46
4648.8,58.02,118.1,-208.1,-169.46
4658.7,54.02,118.1,-208.1,-169.46
4668.6,49.02,116.1,-210.1,-167.46
4678.5,47.02,118.1,-212.1,-169.46
4688.3,43.02,115.1,-214.1,-167.46
4698.2,39.02,112.1,-215.1,-168.46
4708.1,36.02,112.1,-217.1,-168.46
4718.0,33.02,111.1,-219.1,-168.46
4727.9,30.02,110.1,-219.1,-168.46
4737.8,26.02,108.1,-221.1,-167.46
4747.7,22.02,105.1,-221.1,-167.46
4757.5,19.02,105.1,-220.1,-167.46
4767.4,18.02,100.1,-220.1,-167.46
4777.3,22.02,102.1,-221.1,-164.46
4787.2,24.02,103.1,-221.1,-164.46
4797.1,22.02,102.1,-224.1,-165.46
4807.0,22.02,101.1,-224.1,-165.46
4816.8,21.02,104.1,-237.1,-170.46
4826.7,22.02,104.1,-237.1,-170.46
4836.6,23.02,106.1,-220.1,-168.46
4846.5,26.02,108.1,-220.1,-168.46
4856.4,25.02,107.1,-195.1,-162.46
4866.3,25.02,107.1,-195.1,-162.46
4876.2,27.02,105.1,-172.1,-156.46
4886.1,29.02,106.1,-172.1,-156.46
4895.9,29.02,106.1,-162.1,-153.46
4905.8,34.02,107.1,-154.1,-150.46
4915.7,34.02,107.1,-146.1,-147.46
4925.6,37.02,107.1,-141.1,-145.46
4935.5,37.02,107.1,-136.1,-143.46
4945.4,40.02,107.1,-132.1,-141.46
4955.2,40.02,107.1,-127.1,-139.46
4965.1,40.02,110.1,-124.1,-136.46
4975.0,40.02,110.1,-121.1,-136.46
4984.9,41.02,107.1,-121.1,-134.46
4994.8,41.02,107.1,-117.1,-133.46
5004.7,41.02,108.1,-117.1,-130.46
5014.6,41.02,108.1,-117.1,-130.46
5024.5,45.02,110.1,-114.1,-128.46
5034.3,45.02,110.1,-115.1,-128.46
5044.2,48.02,110.1,-118.1,-129.46
5054.1,49.02,112.1,-119.1,-128.46
5064.0,49.02,113.1,-119.1,-127.46
5073.9,54.02,115.1,-117.1,-126.46
5083.8,55.02,116.1,-114.1,-122.46
5093.6,55.02,115.1,-114.1,-123.46
5103.5,57.02,118.1,-112.1,-122.46
5113.4,59.02,118.1,-112.1,-122.46
5123.3,58.02,118.1,-111.1,-121.46
5133.2,58.02,117.1,-111.1,-121.46
5143.1,56.02,115.1,-112.1,-121.46
5153.0,58.02,116.1,-114.1,-120.46
5162.8,58.02,116.1,-112.1,-121.46
5172.7,58.02,117.1,-116.1,-123.46
5182.6,57.02,116.1,-117.1,-119.46
5192.5,55.02,117.1,-118.1,-121.46
5202.4,56.02,117.1,-119.1,-122.46
5212.3,55.02,117.1,-118.1,-121.46
5222.2,55.02,117.1,-119.1,-121.46
5232.0,55.02,117.1,-120.1,-121.46
5241.9,54.02,116.1,-121.1,-120.46
5251.8,53.02,117.1,-123.1,-119.46
5261.7,51.02,117.1,-123.1,-121.46
5271.6,50.02,116.1,-126.1,-120.46
5281.5,49.02,115.1,-125.1,-119.46
5291.4,48.02,116.1,-127.1,-119.46
5301.2,47.02,115.1,-130.1,-120.46
5311.1,46.02,117.1,-133.1,-121.46
5321.0,45.02,117.1,-133.1,-120.46
5330.9,45.02,115.1,-133.1,-120.46
5340.8,43.02,114.1,-135.1,-122.46
5350.7,41.02,114.1,-136.1,-120.46
5360.6,40.02,115.1,-136.1,-122.46
5370.4,37.02,113.1,-140.1,-123.46
5380.3,34.02,112.1,-140.1,-121.46
5390.2,33.02,110.1,-146.1,-122.46
5400.1,30.02,110.1,-148.1,-122.46
5410.0,27.02,107.1,-149.1,-124.46
5419.9,27.02,107.1,-153.1,-124.46
5429.8,25.02,107.1,-155.1,-124.46
5439.6,23.02,105.1,-158.1,-126.46
5449.5,20.02,105.1,-160.1,-127.46
5459.4,18.02,103.1,-164.1,-128.46
5469.3,16.02,101.1,-164.1,-128.46
5479.2,13.02,99.095,-170.1,-131.46
5489.1,8.0202,97.095,-172.1,-130.46
5499.0,3.0202,93.095,-175.1,-132.46
5508.8,1.0202,92.095,-179.1,-133.46
5518.7,-5.9798,89.095,-181.1,-135.46
5528.6,-4.9798,86.095,-183.1,-135.46
5538.5,-8.9798,82.095,-184.1,-137.46
5548.4,-6.9798,82.095,-185.1,-136.46
5558.3,-3.9798,82.095,-186.1,-136.46
5568.2,-3.9798,80.095,-189.1,-136.46
5578.0,-2.9798,81.095,-194.1,-137.46
5587.9,-2.9798,82.095,-202.1,-142.46
5597.8,1.0202,83.095,-206.1,-146.46
5607.7,3.0202,83.095,-195.1,-144.46
5617.6,7.0202,81.095,-185.1,-142.46
5627.5,7.0202,81.095,-174.1,-139.46
5637.4,9.0202,78.095,-162.1,-137.46
5647.2,9.0202,78.095,-153.1,-132.46
5657.1,16.02,77.095,-144.1,-131.46
5667.0,16.02,77.095,-136.1,-128.46
5676.9,25.02,77.095,-132.1,-127.46
5686.8,25.02,77.095,-126.1,-125.46
5696.7,31.02,80.095,-122.1,-124.46
5706.6,31.02,80.095,-117.1,-123.46
5716.4,36.02,81.095,-117.1,-123.46
5726.3,36.02,81.095,-112.1,-121.46
5736.2,42.02,81.095,-112.1,-121.46
5746.1,42.02,81.095,-110.1,-120.46
5756.0,46.02,84.095,-110.1,-120.46
5765.9,46.02,84.095,-107.1,-119.46
5775.8,47.02,83.095,-107.1,-119.46
5785.6,51.02,84.095,-107.1,-117.46
5795.5,57.02,88.095,-107.1,-117.46
5805.4,58.02,88.095,-110.1,-118.46
5815.3,58.02,88.095,-110.1,-118.46
5825.2,60.02,89.095,-115.1,-117.46
5835.1,62.02,90.095,-115.1,-117.46
5845.0,66.02,91.095,-112.1,-115.46
5854.8,69.02,93.095,-112.1,-115.46
5864.7,69.02,94.095,-114.1,-116.46
5874.6,71.02,94.095,-114.1,-116.46
5884.5,75.02,94.095,-117.1,-115.46
5894.4,75.02,97.095,-117.1,-115.46
5904.3,77.02,97.095,-121.1,-117.46
5914.2,79.02,98.095,-122.1,-118.46
5924.0,77.02,99.095,-123.1,-118.46
5933.9,77.02,98.095,-124.1,-120.46
5943.8,75.02,98.095,-127.1,-119.46
5953.7,74.02,96.095,-130.1,-120.46
5963.6,71.02,96.095,-130.1,-121.46
5973.5,68.02,94.095,-131.1,-120.46
5983.4,69.02,93.095,-131.1,-121.46
5993.2,63.02,89.095,-131.1,-120.46
6003.1,61.02,87.095,-134.1,-120.46
6013.0,56.02,86.095,-135.1,-120.46
6022.9,55.02,83.095,-136.1,-121.46
6032.8,50.02,82.095,-138.1,-121.46
6042.7,50.02,80.095,-141.1,-120.46
6052.6,47.02,80.095,-142.1,-121.46
6062.4,43.02,77.095,-143.1,-123.46
6072.3,39.02,75.095,-150.1,-123.46
6082.2,36.02,73.095,-151.1,-125.46
6092.1,32.02,70.095,-155.1,-124.46
6102.0,29.02,70.095,-157.1,-127.46
6111.9,25.02,66.095,-160.1,-127.46
6121.8,21.02,66.095,-161.1,-127.46
6131.6,18.02,62.095,-164.1,-127.46
6141.5,16.02,61.095,-166.1,-129.46
6151.4,14.02,58.095,-170.1,-130.46
6161.3,6.0202,55.095,-172.1,-129.46
6171.2,2.0202,51.095,-173.1,-129.46
6181.1,-4.9798,49.095,-175.1,-130.46
6191.0,-9.9798,45.095,-178.1,-132.46
6200.8,-13.98,42.095,-181.1,-132.46
6210.7,-18.98,38.095,-182.1,-133.46
6220.6,-23.98,37.095,-187.1,-134.46
6230.5,-28.98,34.095,-191.1,-134.46
6240.4,-32.98,32.095,-194.1,-137.46
6250.3,-38.98,28.095,-197.1,-138.46
6260.2,-44.98,24.095,-199.1,-137.46
6270.0,-50.98,22.095,-202.1,-140.46
6279.9,-50.98,17.095,-204.1,-139.46
6289.8,-43.98,19.095,-205.1,-140.46
6299.7,-37.98,23.095,-205.1,-138.46
6309.6,-36.98,23.095,-206.1,-139.46
6319.5,-33.98,21.095,-213.1,-141.46
6329.4,-28.98,21.095,-220.1,-145.46
6339.2,-28.98,21.095,-228.1,-150.46
6349.1,-25.98,22.095,-219.1,-149.46
6359.0,-25.98,22.095,-206.1,-147.46
6368.9,-16.98,23.095,-195.1,-144.46
6378.8,-16.98,23.095,-182.1,-141.46
6388.7,-12.98,20.095,-171.1,-139.46
6398.6,-12.98,20.095,-162.1,-136.46
6408.4,-3.9798,20.095,-155.1,-134.46
6418.3,-3.9798,20.095,-150.1,-132.46
6428.2,0.020167,21.095,-143.1,-130.46
6438.1,0.020167,21.095,-139.1,-128.46
6448.0,4.0202,20.095,-136.1,-130.46
6457.9,4.0202,20.095,-134.1,-129.46
6467.8,9.0202,21.095,-135.1,-129.46
6477.6,9.0202,21.095,-131.1,-128.46
6487.5,12.02,20.095,-128.1,-126.46
6497.4,11.02,20.095,-128.1,-126.46
6507.3,12.02,18.095,-127.1,-125.46
6517.2,14.02,16.095,-125.1,-126.46
6527.1,11.02,16.095,-126.1,-126.46
6537.0,12.02,16.095,-127.1,-125.46
6546.8,11.02,14.095,-128.1,-127.46
6556.7,10.02,14.095,-131.1,-127.46
6566.6,8.0202,11.095,-134.1,-127.46
6576.5,6.0202,9.0954,-136.1,-128.46
6586.4,6.0202,9.0954,-137.1,-130.46
6596.3,5.0202,7.0954,-138.1,-127.46
6606.2,5.0202,6.0954,-140.1,-129.46
6616.0,5.0202,5.0954,-143.1,-129.46
6625.9,3.0202,4.0954,-144.1,-130.46
6635.8,2.0202,2.0954,-146.1,-131.46
6645.7,2.0202,4.0954,-150.1,-131.46
6655.6,1.0202,3.0954,-152.1,-132.46
6665.5,2.0202,3.0954,-153.1,-134.46
6675.4,0.020167,1.0954,-157.1,-133.46
6685.2,1.0202,2.0954,-155.1,-134.46
6695.1,-0.97983,0.095367,-159.1,-135.46
6705.0,-0.97983,2.0954,-159.1,-135.46
6714.9,-2.9798,0.095367,-162.1,-136.46
6724.8,-4.9798,1.0954,-162.1,-136.46
6734.7,-5.9798,-0.90463,-165.1,-137.46
6744.6,-9.9798,-1.9046,-165.1,-137.46
6754.4,-10.98,-3.9046,-170.1,-138.46
6764.3,-15.98,-5.9046,-170.1,-138.46
6774.2,-21.98,-10.905,-171.1,-137.46
6784.1,-20.98,-8.9046,-171.1,-137.46
6794.0,-23.98,-10.905,-175.1,-137.46
6803.9,-24.98,-11.905,-175.1,-137.46
6813.8,-29.98,-12.905,-179.1,-137.46
6823.6,-31.98,-12.905,-179.1,-137.46
6833.5,-34.98,-14.905,-183.1,-138.46
6843.4,-35.98,-14.905,-183.1,-138.46
6853.3,-38.98,-15.905,-187.1,-139.46
6863.2,-39.98,-16.905,-187.1,-139.46
6873.1,-43.98,-17.905,-190.1,-141.46
6883.0,-47.98,-19.905,-190.1,-141.46
6892.8,-53.98,-21.905,-196.1,-141.46
6902.7,-56.98,-23.905,-196.1,-141.46
6912.6,-59.98,-27.905,-197.1,-140.46
6922.5,-62.98,-28.905,-198.1,-142.46
6932.4,-66.98,-30.905,-200.1,-141.46
6942.3,-72.98,-32.905,-201.1,-142.46
6952.2,-76.98,-33.905,-205.1,-143.46
6962.0,-80.98,-35.905,-206.1,-142.46
6971.9,-82.98,-36.905,-210.1,-143.46
6981.8,-86.98,-37.905,-213.1,-145.46
6991.7,-91.98,-38.905,-215.1,-146.46
7001.6,-95.98,-41.905,-218.1,-145.46
7011.5,-98.98,-42.905,-221.1,-147.46
7021.4,-99.98,-43.905,-222.1,-146.46
7031.2,-99.98,-45.905,-224.1,-147.46
7041.1,-91.98,-41.905,-223.1,-147.46
7051.0,-80.98,-36.905,-225.1,-145.46
7060.9,-75.98,-35.905,-225.1,-146.46
7070.8,-75.98,-35.905,-231.1,-148.46
7080.7,-67.98,-35.905,-238.1,-150.46
7090.6,-67.98,-35.905,-245.1,-155.46
7100.4,-60.98,-32.905,-238.1,-156.46
7110.3,-60.98,-32.905,-225.1,-152.46
7120.2,-52.98,-31.905,-213.1,-151.46
7130.1,-52.98,-31.905,-200.1,-147.46
7140.0,-43.98,-31.905,-189.1,-145.46
7149.9,-43.98,-31.905,-183.1,-142.46
7159.8,-33.98,-29.905,-173.1,-139.46
7169.6,-33.98,-29.905,-165.1,-137.46
7179.5,-29.98,-29.905,-160.1,-136.46
7189.4,-29.98,-29.905,-152.1,-133.46
7199.3,-25.98,-30.905,-147.1,-131.46
7209.2,-25.98,-30.905,-146.1,-131.46
7219.1,-24.98,-29.905,-145.1,-130.46
7229.0,-20.98,-30.905,-140.1,-129.46
7238.8,-15.98,-28.905,-137.1,-128.46
7248.7,-14.98,-29.905,-135.1,-127.46
7258.6,-18.98,-31.905,-135.1,-127.46
7268.5,-19.98,-33.905,-135.1,-127.46
7278.4,-19.98,-33.905,-136.1,-127.46
7288.3,-17.98,-32.905,-136.1,-127.46
7298.2,-14.98,-31.905,-137.1,-127.46
7308.0,-11.98,-30.905,-139.1,-127.46
7317.9,-7.9798,-26.905,-139.1,-128.46
7327.8,-2.9798,-24.905,-144.1,-128.46
7337.7,0.020167,-21.905,-147.1,-129.46
7347.6,8.0202,-18.905,-146.1,-129.46
7357.5,12.02,-14.905,-147.1,-130.46
7367.4,20.02,-10.905,-149.1,-128.46
7377.2,24.02,-7.9046,-150.1,-129.46
7387.1,33.02,-3.9046,-150.1,-130.46
7397.0,39.02,0.095367,-152.1,-130.46
7406.9,45.02,5.0954,-154.1,-131.46
7416.8,51.02,7.0954,-154.1,-132.46
7426.7,55.02,11.095,-157.1,-133.46
7436.6,58.02,13.095,-160.1,-132.46
7446.4,61.02,15.095,-160.1,-132.46
7456.3,66.02,17.095,-162.1,-132.46
7466.2,66.02,19.095,-162.1,-134.46
7476.1,72.02,21.095,-163.1,-133.46
7486.0,70.02,21.095,-165.1,-134.46
7495.9,71.02,22.095,-166.1,-135.46
7505.7,69.02,22.095,-169.1,-136.46
7515.6,70.02,23.095,-173.1,-135.46
7525.5,68.02,22.095,-174.1,-137.46
7535.4,68.02,23.095,-177.1,-136.46
7545.3,67.02,23.095,-180.1,-139.46
7555.2,68.02,22.095,-184.1,-139.46
7565.1,65.02,21.095,-186.1,-139.46
7575.0,62.02,21.095,-185.1,-139.46
7584.8,58.02,20.095,-190.1,-141.46
7594.7,57.02,20.095,-194.1,-142.46
7604.6,57.02,21.095,-195.1,-142.46
7614.5,55.02,19.095,-198.1,-143.46
7624.4,53.02,21.095,-202.1,-144.46
7634.3,50.02,19.095,-201.1,-144.46
7644.1,46.02,17.095,-205.1,-144.46
7654.0,43.02,17.095,-205.1,-144.46
7663.9,40.02,16.095,-210.1,-146.46
7673.8,38.02,13.095,-210.1,-146.46
7683.7,37.02,13.095,-212.1,-146.46
7693.6,33.02,11.095,-212.1,-146.46
7703.5,28.02,10.095,-222.1,-150.46
7713.3,25.02,9.0954,-222.1,-150.46
7723.2,21.02,10.095,-228.1,-153.46
7733.1,16.02,8.0954,-228.1,-153.46
7743.0,11.02,4.0954,-236.1,-156.46
7752.9,8.0202,2.0954,-236.1,-156.46
7762.8,3.0202,1.0954,-242.1,-158.46
7772.7,-2.9798,-0.90463,-242.1,-158.46
7782.5,-0.97983,-0.90463,-247.1,-160.46
7792.4,-3.9798,-2.9046,-247.1,-160.46
7802.3,-3.9798,-2.9046,-247.1,-159.46
7812.2,11.02,4.0954,-247.1,-159.46
7822.1,11.02,4.0954,-249.1,-158.46
7832.0,19.02,8.0954,-249.1,-158.46
7841.9,19.02,8.0954,-259.1,-162.46
7851.7,22.02,9.0954,-259.1,-162.46
7861.6,22.02,9.0954,-244.1,-163.46
7871.5,30.02,12.095,-244.1,-163.46
7881.4,30.02,12.095,-232.1,-159.46
7891.3,37.02,14.095,-221.1,-155.46
7901.2,37.02,14.095,-209.1,-153.46
7911.1,44.02,16.095,-199.1,-151.46
7920.9,44.02,16.095,-191.1,-147.46
7930.8,53.02,18.095,-185.1,-144.46
7940.7,53.02,18.095,-180.1,-142.46
7950.6,57.02,20.095,-173.1,-140.46
7960.5,58.02,18.095,-171.1,-142.46
7970.4,62.02,21.095,-168.1,-140.46
7980.3,62.02,22.095,-165.1,-139.46
7990.1,65.02,22.095,-164.1,-138.46
8000.0,68.02,23.095,-159.1,-136.46
8009.9,69.02,24.095,-156.1,-136.46
8019.8,68.02,25.095,-156.1,-135.46
8029.7,70.02,25.095,-154.1,-133.46
8039.6,68.02,28.095,-157.1,-133.46
8049.5,67.02,27.095,-156.1,-134.46
8059.3,69.02,27.095,-159.1,-135.46
8069.2,71.02,30.095,-162.1,-135.46
8079.1,74.02,32.095,-167.1,-137.46
8089.0,73.02,33.095,-168.1,-136.46
8098.9,74.02,36.095,-167.1,-138.46
8108.8,76.02,37.095,-166.1,-134.46
8118.7,78.02,39.095,-165.1,-136.46
8128.5,76.02,42.095,-162.1,-133.46
8138.4,78.02,41.095,-162.1,-132.46
8148.3,78.02,43.095,-162.1,-131.46
8158.2,78.02,44.095,-161.1,-131.46
8168.1,77.02,45.095,-164.1,-132.46
8178.0,74.02,45.095,-163.1,-132.46
8187.9,74.02,46.095,-166.1,-132.46
8197.7,74.02,47.095,-164.1,-132.46
8207.6,73.02,48.095,-167.1,-133.46
8217.5,70.02,48.095,-169.1,-133.46
8227.4,66.02,48.095,-169.1,-133.46
8237.3,67.02,48.095,-169.1,-133.46
8247.2,65.02,46.095,-168.1,-131.46
8257.1,60.02,45.095,-167.1,-130.46
8266.9,59.02,45.095,-170.1,-131.46
8276.8,57.02,45.095,-168.1,-130.46
8286.7,54.02,44.095,-170.1,-130.46
8296.6,52.02,45.095,-170.1,-128.46
8306.5,51.02,45.095,-172.1,-129.46
8316.4,47.02,44.095,-174.1,-129.46
8326.3,43.02,41.095,-174.1,-130.46
8336.1,42.02,41.095,-175.1,-128.46
8346.0,38.02,42.095,-176.1,-129.46
8355.9,35.02,41.095,-177.1,-129.46
8365.8,32.02,41.095,-177.1,-128.46
8375.7,31.02,40.095,-180.1,-129.46
8385.6,27.02,38.095,-182.1,-130.46
8395.5,26.02,40.095,-182.1,-130.46
8405.3,24.02,37.095,-184.1,-129.46
8415.2,20.02,39.095,-186.1,-130.46
8425.1,17.02,37.095,-187.1,-129.46
8435.0,15.02,38.095,-189.1,-128.46
8444.9,12.02,38.095,-191.1,-130.46
8454.8,10.02,36.095,-192.1,-129.46
8464.7,5.0202,36.095,-193.1,-129.46
8474.5,5.0202,37.095,-194.1,-129.46
8484.4,3.0202,36.095,-194.1,-131.46
8494.3,-0.97983,35.095,-198.1,-130.46
8504.2,-2.9798,35.095,-200.1,-130.46
8514.1,-4.9798,33.095,-200.1,-131.46
8524.0,-10.98,32.095,-202.1,-129.46
8533.9,-10.98,32.095,-203.1,-131.46
8543.7,-18.98,29.095,-206.1,-130.46
8553.6,-18.98,29.095,-205.1,-130.46
8563.5,-17.98,28.095,-205.1,-129.46
8573.4,-17.98,28.095,-205.1,-128.46
8583.3,-13.98,29.095,-207.1,-129.46
8593.2,-13.98,29.095,-209.1,-128.46
8603.1,-11.98,33.095,-213.1,-130.46
8612.9,-11.98,33.095,-220.1,-132.46
8622.8,-5.9798,37.095,-215.1,-133.46
8632.7,-5.9798,37.095,-200.1,-130.46
8642.6,3.0202,41.095,-188.1,-127.46
8652.5,3.0202,41.095,-177.1,-123.46
8662.4,5.0202,39.095,-163.1,-121.46
8672.3,5.0202,39.095,-153.1,-116.46
8682.1,8.0202,39.095,-153.1,-116.46
8692.0,10.02,39.095,-136.1,-110.46
8701.9,11.02,40.095,-136.1,-110.46
8711.8,13.02,39.095,-120.1,-104.46
8721.7,13.02,39.095,-120.1,-104.46
8731.6,16.02,40.095,-112.1,-100.46
8741.5,17.02,45.095,-112.1,-100.46
8751.3,20.02,46.095,-104.1,-97.462
8761.2,20.02,46.095,-104.1,-97.462
8771.1,19.02,46.095,-98.104,-94.462
8781.0,21.02,46.095,-98.104,-94.462
8790.9,23.02,47.095,-95.104,-91.462
8800.8,20.02,46.095,-95.104,-91.462
8810.7,24.02,48.095,-97.104,-89.462
8820.5,26.02,49.095,-97.104,-89.462
8830.4,28.02,50.095,-98.104,-90.462
8840.3,29.02,51.095,-98.104,-90.462
8850.2,30.02,53.095,-101.1,-90.462
8860.1,31.02,53.095,-99.104,-89.462
8870.0,29.02,54.095,-99.104,-88.462
8879.9,32.02,56.095,-99.104,-88.462
8889.7,33.02,58.095,-97.104,-85.462
8899.6,32.02,57.095,-96.104,-84.462
8909.5,31.02,58.095,-95.104,-83.462
8919.4,32.02,60.095,-94.104,-84.462
8929.3,34.02,62.095,-95.104,-83.462
8939.2,32.02,62.095,-92.104,-83.462
8949.1,35.02,61.095,-93.104,-82.462
8958.9,32.02,61.095,-92.104,-81.462
8968.8,32.02,62.095,-92.104,-81.462
8978.7,31.02,62.095,-92.104,-81.462
8988.6,30.02,61.095,-91.104,-81.462
8998.5,29.02,62.095,-91.104,-81.462
9008.4,28.02,61.095,-93.104,-80.462
9018.3,27.02,61.095,-93.104,-78.462
9028.1,25.02,63.095,-91.104,-79.462
9038.0,24.02,62.095,-92.104,-78.462
9047.9,22.02,60.095,-94.104,-77.462
9057.8,20.02,62.095,-96.104,-77.462
9067.7,17.02,60.095,-96.104,-77.462
9077.6,17.02,60.095,-97.104,-76.462
9087.5,15.02,61.095,-98.104,-78.462
9097.3,13.02,61.095,-101.1,-78.462
9107.2,12.02,60.095,-101.1,-77.462
9117.1,12.02,60.095,-103.1,-78.462
9127.0,9.0202,61.095,-103.1,-77.462
9136.9,4.0202,60.095,-104.1,-77.462
9146.8,5.0202,60.095,-105.1,-77.462
9156.7,1.0202,59.095,-108.1,-77.462
9166.5,-3.9798,58.095,-110.1,-78.462
9176.4,-4.9798,57.095,-110.1,-76.462
9186.3,-8.9798,57.095,-111.1,-76.462
9196.2,-9.9798,56.095,-113.1,-76.462
9206.1,-12.98,56.095,-115.1,-78.462
9216.0,-16.98,54.095,-116.1,-78.462
9225.9,-15.98,53.095,-121.1,-78.462
9235.7,-20.98,53.095,-122.1,-79.462
9245.6,-22.98,50.095,-125.1,-80.462
9255.5,-29.98,48.095,-127.1,-81.462
9265.4,-29.98,48.095,-130.1,-83.462
9275.3,-33.98,43.095,-132.1,-82.462
9285.2,-33.98,43.095,-131.1,-81.462
9295.1,-26.98,43.095,-132.1,-81.462
9304.9,-26.98,43.095,-134.1,-82.462
9314.8,-27.98,42.095,-137.1,-82.462
9324.7,-27.98,42.095,-144.1,-85.462
9334.6,-20.98,48.095,-150.1,-90.462
9344.5,-20.98,48.095,-143.1,-89.462
9354.4,-14.98,49.095,-134.1,-88.462
9364.3,-14.98,49.095,-125.1,-87.462
9374.1,-14.98,49.095,-115.1,-84.462
9384.0,-14.98,49.095,-107.1,-82.462
9393.9,-5.9798,48.095,-99.104,-81.462
9403.8,-5.9798,48.095,-96.104,-79.462
9413.7,-3.9798,49.095,-88.104,-78.462
9423.6,-0.97983,48.095,-84.104,-75.462
9433.5,-0.97983,48.095,-78.104,-76.462
9443.3,-1.9798,46.095,-74.104,-74.462
9453.2,-1.9798,43.095,-71.104,-73.462
9463.1,-3.9798,42.095,-66.104,-72.462
9473.0,-5.9798,41.095,-63.104,-71.462
9482.9,-7.9798,40.095,-64.104,-69.462
9492.8,-6.9798,40.095,-61.104,-70.462
9502.7,-6.9798,39.095,-62.104,-71.462
9512.5,-7.9798,40.095,-65.104,-69.462
9522.4,-4.9798,41.095,-65.104,-70.462
9532.3,-5.9798,41.095,-70.104,-72.462
9542.2,-4.9798,42.095,-72.104,-71.462
9552.1,-3.9798,40.095,-75.104,-72.462
9562.0,-3.9798,42.095,-75.104,-74.462
9571.9,-1.9798,42.095,-73.104,-72.462
9581.7,-0.97983,42.095,-76.104,-71.462
9591.6,-1.9798,43.095,-71.104,-70.462
9601.5,-0.97983,42.095,-70.104,-68.462
9611.4,-0.97983,41.095,-71.104,-67.462
9621.3,-3.9798,40.095,-74.104,-69.462
9631.2,-5.9798,38.095,-76.104,-70.462
9641.1,-5.9798,38.095,-77.104,-70.462
9650.9,-8.9798,35.095,-78.104,-70.462
9660.8,-11.98,34.095,-76.104,-69.462
9670.7,-15.98,30.095,-80.104,-70.462
9680.6,-18.98,28.095,-80.104,-70.462
9690.5,-22.98,27.095,-80.104,-70.462
9700.4,-24.98,25.095,-82.104,-70.462
9710.3,-28.98,21.095,-82.104,-70.462
9720.1,-34.98,17.095,-83.104,-71.462
9730.0,-39.98,14.095,-83.104,-71.462
9739.9,-40.98,12.095,-86.104,-71.462
9749.8,-40.98,11.095,-86.104,-71.462
9759.7,-49.98,9.0954,-90.104,-72.462
9769.6,-51.98,6.0954,-90.104,-72.462
9779.5,-59.98,3.0954,-92.104,-72.462
9789.3,-61.98,1.0954,-92.104,-72.462
9799.2,-64.98,-0.90463,-98.104,-73.462
9809.1,-67.98,-3.9046,-98.104,-73.462
9819.0,-71.98,-4.9046,-104.1,-76.462
9828.9,-74.98,-4.9046,-104.1,-76.462
9838.8,-75.98,-6.9046,-108.1,-77.462
9848.7,-79.98,-8.9046,-108.1,-77.462
9858.5,-80.98,-7.9046,-112.1,-79.462
9868.4,-82.98,-8.9046,-112.1,-79.462
9878.3,-86.98,-8.9046,-115.1,-80.462
9888.2,-89.98,-11.905,-117.1,-79.462
9898.1,-93.98,-11.905,-120.1,-81.462
9908.0,-96.98,-14.905,-124.1,-83.462
9917.9,-100.98,-17.905,-126.1,-83.462
9927.7,-103.98,-15.905,-128.1,-83.462
9937.6,-108.98,-20.905,-131.1,-84.462
9947.5,-115.98,-22.905,-135.1,-86.462
9957.4,-116.98,-24.905,-137.1,-85.462
9967.3,-119.98,-28.905,-138.1,-85.462
9977.2,-111.98,-27.905,-137.1,-86.462
9987.1,-108.98,-25.905,-137.1,-85.462
9996.9,-108.98,-25.905,-140.1,-85.462
10007.0,-105.98,-25.905,-140.1,-85.462
10017.0,-105.98,-25.905,-146.1,-88.462
10027.0,-93.98,-22.905,-153.1,-91.462
10037.0,-93.98,-22.905,-152.1,-92.462
10046.0,-89.98,-17.905,-144.1,-91.462
10056.0,-89.98,-17.905,-132.1,-89.462
10066.0,-81.98,-15.905,-123.1,-86.462
10076.0,-81.98,-15.905,-113.1,-85.462
10086.0,-75.98,-14.905,-106.1,-83.462
10096.0,-75.98,-14.905,-95.104,-79.462
10106.0,-70.98,-14.905,-88.104,-78.462
10116.0,-70.98,-14.905,-82.104,-78.462
10126.0,-68.98,-14.905,-78.104,-73.462
10135.0,-68.98,-15.905,-72.104,-74.462
10145.0,-68.98,-15.905,-67.104,-72.462
10155.0,-65.98,-16.905,-65.104,-72.462
10165.0,-65.98,-15.905,-61.104,-72.462
10175.0,-64.98,-15.905,-61.104,-69.462
10185.0,-62.98,-16.905,-60.104,-70.462
10195.0,-64.98,-14.905,-56.104,-69.462
10205.0,-62.98,-15.905,-56.104,-69.462
10214.0,-63.98,-16.905,-57.104,-69.462
10224.0,-60.98,-17.905,-58.104,-68.462
10234.0,-61.98,-16.905,-59.104,-69.462
10244.0,-59.98,-16.905,-61.104,-71.462
10254.0,-60.98,-15.905,-62.104,-71.462
10264.0,-61.98,-17.905,-67.104,-73.462
10274.0,-59.98,-16.905,-67.104,-73.462
10284.0,-59.98,-19.905,-68.104,-74.462
10294.0,-59.98,-18.905,-67.104,-72.462
10303.0,-61.98,-21.905,-69.104,-73.462
10313.0,-62.98,-20.905,-70.104,-73.462
10323.0,-66.98,-21.905,-73.104,-76.462
10333.0,-64.98,-23.905,-73.104,-73.462
10343.0,-67.98,-25.905,-74.104,-73.462
10353.0,-67.98,-26.905,-74.104,-73.462
10363.0,-71.98,-27.905,-76.104,-74.462
10373.0,-71.98,-27.905,-79.104,-74.462
10383.0,-72.98,-28.905,-79.104,-76.462
10392.0,-76.98,-29.905,-84.104,-77.462
10402.0,-76.98,-31.905,-84.104,-77.462
10412.0,-78.98,-31.905,-85.104,-76.462
10422.0,-79.98,-32.905,-87.104,-78.462
10432.0,-83.98,-34.905,-90.104,-77.462
10442.0,-85.98,-34.905,-92.104,-80.462
10452.0,-88.98,-35.905,-92.104,-77.462
10462.0,-91.98,-36.905,-94.104,-79.462
10471.0,-95.98,-38.905,-95.104,-80.462
10481.0,-97.98,-39.905,-99.104,-80.462
10491.0,-100.98,-39.905,-100.1,-82.462
10501.0,-102.98,-40.905,-103.1,-82.462
10511.0,-104.98,-41.905,-103.1,-82.462
10521.0,-107.98,-43.905,-107.1,-82.462
10531.0,-111.98,-44.905,-109.1,-83.462
10541.0,-115.98,-46.905,-111.1,-83.462
10551.0,-116.98,-47.905,-114.1,-84.462
10560.0,-119.98,-47.905,-117.1,-85.462
10570.0,-121.98,-48.905,-119.1,-86.462
10580.0,-123.98,-50.905,-122.1,-87.462
10590.0,-127.98,-51.905,-124.1,-87.462
10600.0,-132.98,-53.905,-126.1,-89.462
10610.0,-135.98,-54.905,-129.1,-88.462
10620.0,-139.98,-56.905,-131.1,-89.462
10630.0,-142.98,-56.905,-135.1,-90.462
10640.0,-146.98,-58.905,-138.1,-91.462
10649.0,-154.98,-61.905,-136.1,-90.462
10659.0,-154.98,-63.905,-136.1,-90.462
10669.0,-155.98,-65.905,-140.1,-92.462
10679.0,-152.98,-63.905,-140.1,-92.462
10689.0,-146.98,-61.905,-141.1,-90.462
10699.0,-141.98,-58.905,-141.1,-90.462
10709.0,-141.98,-58.905,-148.1,-93.462
10719.0,-135.98,-56.905,-148.1,-93.462
10729.0,-135.98,-56.905,-161.1,-100.46
10738.0,-132.98,-55.905,-161.1,-100.46
10748.0,-132.98,-55.905,-142.1,-99.462
10758.0,-127.98,-53.905,-142.1,-99.462
10768.0,-127.98,-53.905,-120.1,-93.462
10778.0,-120.98,-52.905,-120.1,-93.462
10788.0,-120.98,-52.905,-100.1,-88.462
10798.0,-118.98,-51.905,-100.1,-88.462
10808.0,-118.98,-51.905,-86.104,-83.462
10817.0,-114.98,-52.905,-86.104,-83.462
10827.0,-114.98,-52.905,-73.104,-80.462
10837.0,-111.98,-50.905,-73.104,-80.462
10847.0,-111.98,-50.905,-67.104,-78.462
10857.0,-104.98,-49.905,-66.104,-79.462
10867.0,-100.98,-46.905,-64.104,-78.462
10877.0,-90.98,-42.905,-60.104,-77.462
10887.0,-81.98,-38.905,-58.104,-75.462
10897.0,-73.98,-33.905,-59.104,-76.462
10906.0,-64.98,-28.905,-56.104,-75.462
10916.0,-50.98,-23.905,-54.104,-74.462
10926.0,-39.98,-18.905,-57.104,-74.462
10936.0,-29.98,-13.905,-56.104,-73.462
10946.0,-17.98,-7.9046,-57.104,-74.462
10956.0,-6.9798,-0.90463,-57.104,-75.462
10966.0,4.0202,6.0954,-61.104,-75.462
10976.0,16.02,10.095,-60.104,-76.462
10986.0,25.02,17.095,-65.104,-77.462
10995.0,36.02,22.095,-65.104,-76.462
11005.0,43.02,25.095,-66.104,-77.462
11015.0,49.02,30.095,-69.104,-77.462
11025.0,53.02,32.095,-69.104,-79.462
11035.0,57.02,36.095,-69.104,-78.462
11045.0,60.02,38.095,-71.104,-79.462
11055.0,66.02,42.095,-73.104,-79.462
11065.0,67.02,44.095,-75.104,-80.462
11075.0,71.02,47.095,-75.104,-80.462
11084.0,73.02,48.095,-78.104,-82.462
11094.0,72.02,49.095,-78.104,-82.462
11104.0,70.02,49.095,-81.104,-83.462
11114.0,64.02,47.095,-80.104,-81.462
11124.0,61.02,44.095,-82.104,-82.462
11134.0,55.02,42.095,-85.104,-82.462
11144.0,49.02,39.095,-87.104,-83.462
11154.0,44.02,36.095,-87.104,-83.462
11163.0,39.02,32.095,-88.104,-83.462
11173.0,34.02,30.095,-90.104,-84.462
11183.0,32.02,30.095,-91.104,-84.462
11193.0,28.02,27.095,-94.104,-84.462
11203.0,22.02,23.095,-98.104,-85.462
11213.0,21.02,22.095,-100.1,-87.462
11223.0,18.02,23.095,-102.1,-87.462
11233.0,18.02,24.095,-106.1,-89.462
11243.0,20.02,25.095,-106.1,-89.462
11252.0,18.02,23.095,-108.1,-89.462
11262.0,19.02,24.095,-109.1,-88.462
11272.0,21.02,27.095,-114.1,-89.462
11282.0,25.02,30.095,-114.1,-88.462
11292.0,31.02,33.095,-114.1,-89.462
11302.0,33.02,37.095,-117.1,-89.462
11312.0,39.02,39.095,-119.1,-89.462
11322.0,41.02,44.095,-121.1,-90.462
11332.0,48.02,48.095,-125.1,-92.462
11341.0,48.02,49.095,-125.1,-93.462
11351.0,50.02,52.095,-129.1,-93.462
11361.0,49.02,54.095,-133.1,-93.462
11371.0,46.02,53.095,-135.1,-96.462
11381.0,39.02,52.095,-137.1,-95.462
11391.0,34.02,49.095,-136.1,-95.462
11401.0,31.02,48.095,-140.1,-96.462
11411.0,30.02,45.095,-143.1,-97.462
11421.0,32.02,45.095,-142.1,-95.462
11430.0,35.02,49.095,-141.1,-95.462
11440.0,35.02,49.095,-144.1,-95.462
11450.0,43.02,54.095,-149.1,-97.462
11460.0,43.02,54.095,-158.1,-103.46
11470.0,44.02,59.095,-152.1,-104.46
11480.0,44.02,59.095,-141.1,-102.46
11490.0,53.02,63.095,-131.1,-100.46
11500.0,53.02,63.095,-121.1,-97.462
11509.0,58.02,65.095,-111.1,-96.462
11519.0,58.02,65.095,-100.1,-92.462
11529.0,65.02,69.095,-92.104,-91.462
11539.0,65.02,69.095,-84.104,-88.462
11549.0,71.02,74.095,-79.104,-87.462
11559.0,71.02,74.095,-73.104,-85.462
11569.0,75.02,77.095,-67.104,-84.462
11579.0,75.02,77.095,-65.104,-85.462
11589.0,78.02,80.095,-64.104,-84.462
11598.0,81.02,82.095,-62.104,-84.462
11608.0,84.02,82.095,-62.104,-84.462
11618.0,87.02,84.095,-59.104,-83.462
11628.0,89.02,88.095,-59.104,-83.462
11638.0,92.02,90.095,-59.104,-84.462
11648.0,89.02,91.095,-59.104,-84.462
11658.0,91.02,88.095,-59.104,-86.462
11668.0,88.02,90.095,-59.104,-86.462
11678.0,89.02,88.095,-61.104,-86.462
11687.0,85.02,86.095,-61.104,-86.462
11697.0,82.02,86.095,-69.104,-88.462
11707.0,80.02,85.095,-69.104,-88.462
11717.0,77.02,87.095,-74.104,-90.462
11727.0,75.02,86.095,-74.104,-90.462
11737.0,70.02,85.095,-78.104,-92.462
11747.0,66.02,80.095,-78.104,-92.462
11757.0,63.02,79.095,-78.104,-92.462
11767.0,60.02,76.095,-78.104,-92.462
11776.0,56.02,75.095,-80.104,-93.462
11786.0,52.02,71.095,-80.104,-93.462
11796.0,52.02,69.095,-84.104,-94.462
11806.0,48.02,66.095,-84.104,-94.462
11816.0,46.02,63.095,-86.104,-94.462
11826.0,44.02,60.095,-89.104,-95.462
11836.0,42.02,59.095,-93.104,-97.462
11846.0,42.02,59.095,-97.104,-99.462
11855.0,36.02,53.095,-96.104,-100.46
11865.0,32.02,46.095,-99.104,-101.46
11875.0,23.02,38.095,-100.1,-101.46
11885.0,20.02,30.095,-102.1,-101.46
11895.0,18.02,22.095,-103.1,-100.46
11905.0,18.02,19.095,-104.1,-100.46
11915.0,17.02,16.095,-103.1,-100.46
11925.0,13.02,11.095,-106.1,-101.46
11935.0,10.02,10.095,-110.1,-103.46
11944.0,5.0202,3.0954,-111.1,-103.46
11954.0,-5.9798,-6.9046,-115.1,-103.46
11964.0,-8.9798,-13.905,-119.1,-105.46
11974.0,-16.98,-20.905,-123.1,-107.46
11984.0,-22.98,-26.905,-125.1,-106.46
11994.0,-24.98,-30.905,-125.1,-107.46
12004.0,-25.98,-31.905,-127.1,-105.46
12014.0,-26.98,-34.905,-129.1,-105.46
12024.0,-32.98,-41.905,-129.1,-105.46
12033.0,-41.98,-51.905,-128.1,-105.46
12043.0,-55.98,-62.905,-129.1,-104.46
12053.0,-69.98,-77.905,-131.1,-105.46
12063.0,-87.98,-94.905,-134.1,-106.46
12073.0,-92.98,-103.9,-140.1,-108.46
12083.0,-86.98,-99.905,-142.1,-109.46
12093.0,-64.98,-85.905,-147.1,-110.46
12103.0,-36.98,-69.905,-149.1,-111.46
12113.0,-10.98,-52.905,-151.1,-110.46
12122.0,13.02,-37.905,-151.1,-111.46
12132.0,29.02,-30.905,-153.1,-110.46
12142.0,36.02,-26.905,-153.1,-108.46
12152.0,40.02,-26.905,-152.1,-109.46
12162.0,39.02,-28.905,-151.1,-107.46
12172.0,39.02,-28.905,-155.1,-108.46
12182.0,30.02,-39.905,-160.1,-113.46
12192.0,30.02,-39.905,-165.1,-118.46
12201.0,24.02,-40.905,-164.1,-119.46
12211.0,24.02,-40.905,-159.1,-118.46
12221.0,19.02,-45.905,-149.1,-119.46
12231.0,19.02,-45.905,-137.1,-116.46
12241.0,-3.9798,-58.905,-128.1,-114.46
12251.0,-3.9798,-58.905,-119.1,-111.46
12261.0,-37.98,-75.905,-113.1,-110.46
12271.0,-37.98,-75.905,-112.1,-109.46
12281.0,-64.98,-83.905,-106.1,-110.46
12290.0,-64.98,-83.905,-103.1,-108.46
12300.0,-80.98,-86.905,-103.1,-109.46
12310.0,-94.98,-87.905,-100.1,-107.46
12320.0,-114.98,-92.905,-100.1,-109.46
12330.0,-131.98,-98.905,-96.104,-107.46
12340.0,-149.98,-103.9,-97.104,-108.46
12350.0,-172.98,-116.9,-91.104,-106.46
12360.0,-195.98,-129.9,-88.104,-104.46
12370.0,-220.98,-144.9,-88.104,-105.46
12379.0,-242.98,-158.9,-86.104,-103.46
12389.0,-256.98,-168.9,-87.104,-103.46
12399.0,-264.98,-174.9,-90.104,-104.46
12409.0,-271.98,-179.9,-92.104,-105.46
12419.0,-277.98,-184.9,-98.104,-107.46
12429.0,-275.98,-183.9,-100.1,-109.46
12439.0,-274.98,-182.9,-103.1,-111.46
12449.0,-271.98,-182.9,-107.1,-111.46
12459.0,-262.98,-179.9,-106.1,-110.46
12468.0,-256.98,-175.9,-106.1,-111.46
12478.0,-248.98,-169.9,-107.1,-110.46
12488.0,-237.98,-160.9,-109.1,-110.46
12498.0,-234.98,-158.9,-106.1,-109.46
12508.0,-225.98,-153.9,-107.1,-110.46
12518.0,-215.98,-148.9,-107.1,-108.46
12528.0,-200.98,-138.9,-109.1,-108.46
12538.0,-187.98,-130.9,-109.1,-111.46
12547.0,-173.98,-121.9,-109.1,-110.46
12557.0,-148.98,-106.9,-112.1,-111.46
12567.0,-118.98,-84.905,-110.1,-110.46
12577.0,-87.98,-63.905,-108.1,-108.46
12587.0,-59.98,-43.905,-111.1,-109.46
12597.0,-31.98,-24.905,-112.1,-108.46
12607.0,-17.98,-13.905,-112.1,-108.46
12617.0,-18.98,-13.905,-115.1,-107.46
12627.0,-29.98,-18.905,-117.1,-107.46
12636.0,-42.98,-27.905,-117.1,-107.46
12646.0,-60.98,-38.905,-121.1,-108.46
12656.0,-81.98,-54.905,-121.1,-108.46
12666.0,-103.98,-68.905,-118.1,-107.46
12676.0,-127.98,-82.905,-118.1,-107.46
12686.0,-156.98,-101.9,-118.1,-104.46
12696.0,-185.98,-119.9,-118.1,-104.46
12706.0,-204.98,-131.9,-117.1,-102.46
12716.0,-228.98,-144.9,-117.1,-102.46
12725.0,-250.98,-159.9,-116.1,-101.46
12735.0,-261.98,-164.9,-116.1,-101.46
12745.0,-263.98,-163.9,-120.1,-100.46
12755.0,-265.98,-164.9,-120.1,-100.46
12765.0,-264.98,-162.9,-123.1,-101.46
12775.0,-262.98,-156.9,-123.1,-101.46
12785.0,-250.98,-146.9,-127.1,-102.46
12795.0,-236.98,-138.9,-127.1,-102.46
12805.0,-225.98,-130.9,-123.1,-98.462
12814.0,-214.98,-122.9,-123.1,-98.462
12824.0,-203.98,-113.9,-125.1,-96.462
12834.0,-180.98,-101.9,-125.1,-96.462
12844.0,-159.98,-86.905,-126.1,-95.462
12854.0,-145.98,-76.905,-124.1,-95.462
12864.0,-133.98,-71.905,-126.1,-94.462
12874.0,-130.98,-69.905,-129.1,-98.462
12884.0,-130.98,-69.905,-136.1,-101.46
12893.0,-109.98,-56.905,-129.1,-102.46
12903.0,-109.98,-56.905,-118.1,-99.462
12913.0,-91.98,-44.905,-106.1,-96.462
12923.0,-91.98,-44.905,-94.104,-93.462
12933.0,-89.98,-44.905,-81.104,-87.462
12943.0,-89.98,-44.905,-72.104,-83.462
12953.0,-90.98,-46.905,-63.104,-81.462
12963.0,-90.98,-46.905,-57.104,-80.462
12973.0,-89.98,-47.905,-53.104,-78.462
12982.0,-89.98,-47.905,-48.104,-75.462
12992.0,-75.98,-42.905,-44.104,-74.462
13002.0,-75.98,-42.905,-39.104,-72.462
13012.0,-59.98,-34.905,-38.104,-70.462
13022.0,-59.98,-34.905,-34.104,-69.462
13032.0,-50.98,-29.905,-33.104,-67.462
13042.0,-43.98,-24.905,-30.104,-66.462
13052.0,-34.98,-19.905,-29.104,-66.462
13062.0,-24.98,-14.905,-32.104,-66.462
13071.0,-11.98,-5.9046,-32.104,-66.462
13081.0,3.0202,2.0954,-35.104,-67.462
13091.0,16.02,9.0954,-38.104,-67.462
13101.0,29.02,18.095,-42.104,-67.462
13111.0,39.02,23.095,-44.104,-68.462
13121.0,45.02,28.095,-47.104,-69.462
13131.0,53.02,32.095,-46.104,-68.462
13141.0,59.02,37.095,-43.104,-68.462
13151.0,67.02,40.095,-46.104,-67.462
13160.0,71.02,43.095,-46.104,-67.462
13170.0,80.02,48.095,-46.104,-68.462
13180.0,89.02,54.095,-47.104,-68.462
13190.0,97.02,58.095,-48.104,-69.462
13200.0,105.02,63.095,-49.104,-69.462
13210.0,112.02,68.095,-50.104,-70.462
13220.0,120.02,73.095,-52.104,-69.462
13230.0,126.02,78.095,-53.104,-69.462
13239.0,130.02,81.095,-55.104,-70.462
13249.0,137.02,84.095,-57.104,-70.462
13259.0,142.02,88.095,-61.104,-72.462
13269.0,152.02,94.095,-63.104,-74.462
13279.0,155.02,95.095,-67.104,-74.462
13289.0,160.02,99.095,-67.104,-75.462
13299.0,165.02,104.1,-69.104,-74.462
13309.0,169.02,106.1,-71.104,-74.462
13319.0,172.02,110.1,-74.104,-75.462
13328.0,176.02,113.1,-74.104,-76.462
13338.0,177.02,113.1,-76.104,-76.462
13348.0,176.02,113.1,-77.104,-75.462
13358.0,169.02,111.1,-81.104,-76.462
13368.0,168.02,110.1,-82.104,-76.462
13378.0,166.02,110.1,-84.104,-76.462
13388.0,163.02,110.1,-85.104,-76.462
13398.0,162.02,110.1,-87.104,-76.462
13408.0,161.02,109.1,-88.104,-77.462
13417.0,157.02,108.1,-90.104,-77.462
13427.0,150.02,105.1,-96.104,-79.462
13437.0,146.02,103.1,-98.104,-79.462
13447.0,140.02,102.1,-98.104,-79.462
13457.0,134.02,99.095,-104.1,-80.462
13467.0,128.02,95.095,-106.1,-82.462
13477.0,123.02,94.095,-110.1,-83.462
13487.0,124.02,92.095,-111.1,-83.462
13497.0,126.02,92.095,-113.1,-82.462
13506.0,132.02,98.095,-114.1,-83.462
13516.0,135.02,99.095,-117.1,-84.462
13526.0,135.02,98.095,-119.1,-85.462
13536.0,139.02,98.095,-125.1,-90.462
13546.0,147.02,102.1,-118.1,-90.462
13556.0,155.02,105.1,-108.1,-89.462
13566.0,162.02,106.1,-100.1,-85.462
13576.0,168.02,108.1,-89.104,-82.462
13585.0,176.02,109.1,-80.104,-79.462
13595.0,183.02,110.1,-72.104,-76.462
13605.0,190.02,112.1,-72.104,-76.462
13615.0,190.02,112.1,-61.104,-74.462
13625.0,198.02,115.1,-61.104,-74.462
13635.0,198.02,115.1,-53.104,-71.462
13645.0,207.02,116.1,-53.104,-71.462
13655.0,207.02,116.1,-45.104,-69.462
13665.0,210.02,117.1,-45.104,-69.462
13674.0,210.02,117.1,-45.104,-69.462
13684.0,212.02,115.1,-45.104,-69.462
13694.0,212.02,115.1,-43.104,-68.462
13704.0,209.02,112.1,-43.104,-68.462
13714.0,209.02,112.1,-42.104,-66.462
13724.0,215.02,114.1,-42.104,-66.462
13734.0,215.02,114.1,-45.104,-66.462
13744.0,215.02,113.1,-45.104,-66.462
13754.0,215.02,113.1,-53.104,-68.462
13763.0,214.02,112.1,-53.104,-68.462
13773.0,214.02,110.1,-55.104,-68.462
13783.0,212.02,111.1,-55.104,-68.462
13793.0,211.02,110.1,-51.104,-65.462
13803.0,211.02,110.1,-51.104,-65.462
13813.0,209.02,108.1,-50.104,-63.462
13823.0,208.02,107.1,-48.104,-64.462
13833.0,203.02,105.1,-49.104,-63.462
13843.0,203.02,102.1,-48.104,-63.462
13852.0,202.02,101.1,-46.104,-62.462
13862.0,199.02,98.095,-46.104,-62.462
13872.0,195.02,97.095,-48.104,-62.462
13882.0,193.02,95.095,-49.104,-63.462
13892.0,190.02,94.095,-47.104,-61.462
13902.0,189.02,93.095,-51.104,-63.462
13912.0,185.02,92.095,-54.104,-63.462
13922.0,186.02,90.095,-55.104,-62.462
13931.0,182.02,89.095,-56.104,-62.462
13941.0,177.02,87.095,-56.104,-62.462
13951.0,174.02,85.095,-58.104,-62.462
13961.0,167.02,83.095,-57.104,-60.462
13971.0,165.02,81.095,-59.104,-60.462
13981.0,164.02,80.095,-60.104,-60.462
13991.0,162.02,78.095,-60.104,-60.462
14001.0,161.02,77.095,-61.104,-60.462
14011.0,159.02,78.095,-63.104,-60.462
14020.0,157.02,77.095,-64.104,-60.462
14030.0,154.02,76.095,-67.104,-60.462
14040.0,151.02,74.095,-68.104,-59.462
14050.0,147.02,73.095,-67.104,-59.462
14060.0,144.02,73.095,-70.104,-59.462
14070.0,144.02,69.095,-71.104,-59.462
14080.0,139.02,68.095,-72.104,-58.462
14090.0,135.02,68.095,-70.104,-57.462
14100.0,132.02,67.095,-72.104,-56.462
14109.0,128.02,64.095,-71.104,-57.462
14119.0,129.02,65.095,-72.104,-57.462
14129.0,133.02,67.095,-72.104,-55.462
14139.0,139.02,72.095,-68.104,-54.462
14149.0,144.02,75.095,-70.104,-53.462
14159.0,147.02,76.095,-71.104,-52.462
14169.0,153.02,77.095,-76.104,-53.462
14179.0,160.02,82.095,-82.104,-57.462
14189.0,165.02,85.095,-76.104,-58.462
14198.0,174.02,86.095,-66.104,-53.462
14208.0,180.02,87.095,-55.104,-51.462
14218.0,183.02,89.095,-42.104,-48.462
14228.0,185.02,89.095,-31.104,-45.462
14238.0,190.02,88.095,-23.104,-42.462
14248.0,192.02,88.095,-15.104,-40.462
14258.0,197.02,89.095,-7.1041,-37.462
14268.0,199.02,89.095,-1.1041,-34.462
14277.0,200.02,90.095,3.8959,-32.462
14287.0,206.02,92.095,9.8959,-29.462
14297.0,213.02,93.095,11.896,-28.462
14307.0,212.02,93.095,11.896,-28.462
14317.0,213.02,94.095,15.896,-28.462
14327.0,213.02,94.095,15.896,-27.462
14337.0,213.02,93.095,13.896,-27.462
14347.0,213.02,93.095,14.896,-25.462
14357.0,222.02,97.095,14.896,-24.462
14366.0,222.02,97.095,17.896,-22.462
14376.0,222.02,99.095,15.896,-22.462
14386.0,222.02,99.095,12.896,-23.462
14396.0,227.02,99.095,11.896,-23.462
14406.0,227.02,99.095,9.8959,-21.462
14416.0,230.02,101.1,11.896,-21.462
14426.0,230.02,101.1,12.896,-20.462
14436.0,234.02,106.1,11.896,-20.462
14446.0,234.02,106.1,9.8959,-19.462
14455.0,239.02,107.1,11.896,-17.462
14465.0,239.02,107.1,12.896,-18.462
14475.0,240.02,107.1,13.896,-18.462
14485.0,239.02,106.1,12.896,-16.462
14495.0,236.02,106.1,13.896,-16.462
14505.0,238.02,106.1,15.896,-16.462
14515.0,238.02,107.1,13.896,-15.462
14525.0,236.02,105.1,15.896,-15.462
14535.0,234.02,103.1,14.896,-14.462
14544.0,233.02,105.1,14.896,-13.462
14554.0,231.02,103.1,17.896,-11.462
14564.0,229.02,102.1,19.896,-10.462
14574.0,228.02,102.1,19.896,-10.462
14584.0,227.02,103.1,20.896,-8.4624
14594.0,226.02,104.1,20.896,-8.4624
14604.0,224.02,100.1,19.896,-6.4624
14614.0,222.02,100.1,19.896,-6.4624
14623.0,222.02,99.095,17.896,-6.4624
14633.0,219.02,98.095,17.896,-6.4624
14643.0,216.02,96.095,15.896,-7.4624
14653.0,212.02,93.095,15.896,-7.4624
14663.0,212.02,94.095,9.8959,-6.4624
14673.0,208.02,91.095,9.8959,-6.4624
14683.0,204.02,89.095,7.8959,-7.4624
14693.0,201.02,90.095,7.8959,-7.4624
14703.0,201.02,92.095,7.8959,-5.4624
14712.0,202.02,91.095,7.8959,-5.4624
14722.0,198.02,90.095,5.8959,-5.4624
14732.0,197.02,90.095,5.8959,-5.4624
14742.0,197.02,89.095,7.8959,-3.4624
14752.0,199.02,90.095,7.8959,-3.4624
14762.0,208.02,95.095,7.8959,-1.4624
14772.0,214.02,97.095,7.8959,-1.4624
14782.0,217.02,97.095,6.8959,-1.4624
14792.0,221.02,99.095,2.8959,-2.4624
14801.0,226.02,102.1,-3.1041,-5.4624
14811.0,233.02,105.1,-7.1041,-10.462
14821.0,239.02,107.1,2.8959,-7.4624
14831.0,246.02,109.1,11.896,-7.4624
14841.0,252.02,110.1,25.896,-2.4624
14851.0,256.02,111.1,34.896,-0.4624
14861.0,263.02,111.1,42.896,1.5376
14871.0,269.02,114.1,49.896,3.5376
14881.0,275.02,116.1,55.896,6.5376
14890.0,283.02,117.1,63.896,7.5376
14900.0,288.02,119.1,68.896,9.5376
14910.0,294.02,122.1,75.896,11.538
14920.0,298.02,123.1,77.896,13.538
14930.0,301.02,126.1,81.896,14.538
14940.0,307.02,127.1,82.896,13.538
14950.0,313.02,129.1,85.896,15.538
14960.0,315.02,131.1,83.896,15.538
14969.0,317.02,132.1,84.896,17.538
14979.0,319.02,133.1,87.896,17.538
14989.0,324.02,135.1,85.896,17.538
14999.0,327.02,137.1,85.896,16.538
15009.0,328.02,138.1,84.896,17.538
15019.0,327.02,136.1,80.896,17.538
15029.0,328.02,138.1,76.896,15.538
15039.0,329.02,138.1,77.896,16.538
15049.0,332.02,139.1,75.896,17.538
15058.0,332.02,139.1,73.896,17.538
15068.0,335.02,142.1,73.896,16.538
15078.0,335.02,142.1,71.896,17.538
15088.0,336.02,143.1,68.896,15.538
15098.0,336.02,143.1,66.896,15.538
15108.0,339.02,147.1,62.896,13.538
15118.0,339.02,147.1,62.896,14.538
15128.0,340.02,149.1,59.896,12.538
15138.0,340.02,149.1,57.896,11.538
15147.0,342.02,150.1,56.896,11.538
15157.0,342.02,150.1,52.896,10.538
15167.0,340.02,154.1,53.896,11.538
15177.0,340.02,154.1,55.896,13.538
15187.0,339.02,153.1,56.896,15.538
15197.0,339.02,153.1,57.896,13.538
15207.0,336.02,152.1,56.896,15.538
15217.0,334.02,152.1,56.896,16.538
15227.0,332.02,151.1,55.896,16.538
15236.0,328.02,148.1,53.896,15.538
15246.0,329.02,150.1,51.896,15.538
15256.0,326.02,148.1,48.896,15.538
15266.0,326.02,149.1,47.896,14.538
15276.0,324.02,150.1,43.896,12.538
15286.0,323.02,150.1,39.896,11.538
15296.0,322.02,151.1,33.896,10.538
15306.0,322.02,151.1,32.896,8.5376
15315.0,317.02,150.1,30.896,8.5376
15325.0,315.02,148.1,29.896,7.5376
15335.0,312.02,147.1,25.896,9.5376
15345.0,309.02,147.1,23.896,6.5376
15355.0,306.02,143.1,19.896,6.5376
15365.0,302.02,143.1,16.896,4.5376
15375.0,305.02,144.1,16.896,5.5376
15385.0,313.02,149.1,16.896,5.5376
15395.0,323.02,155.1,14.896,5.5376
15404.0,328.02,156.1,9.8959,3.5376
15414.0,333.02,159.1,3.8959,0.5376
15424.0,337.02,163.1,-5.1041,-4.4624
15434.0,347.02,166.1,3.8959,-4.4624
15444.0,356.02,170.1,12.896,-2.4624
15454.0,360.02,172.1,21.896,-1.4624
15464.0,366.02,172.1,31.896,1.5376
15474.0,370.02,173.1,41.896,4.5376
15484.0,375.02,176.1,48.896,5.5376
15493.0,381.02,177.1,55.896,9.5376
15503.0,386.02,176.1,63.896,10.538
15513.0,391.02,176.1,70.896,12.538
15523.0,392.02,176.1,78.896,16.538
15533.0,395.02,178.1,80.896,15.538
15543.0,398.02,179.1,82.896,16.538
15553.0,403.02,179.1,82.896,16.538
15563.0,404.02,181.1,83.896,16.538
15572.0,406.02,182.1,85.896,17.538
15582.0,407.02,182.1,85.896,16.538
15592.0,407.02,183.1,84.896,17.538
15602.0,408.02,183.1,84.896,17.538
15612.0,408.02,183.1,82.896,18.538
15622.0,412.02,185.1,82.896,18.538
15632.0,412.02,185.1,80.896,18.538
15642.0,410.02,185.1,80.896,18.538
15652.0,410.02,184.1,73.896,15.538
15661.0,408.02,184.1,73.896,15.538
15671.0,411.02,185.1,75.896,16.538
15681.0,409.02,186.1,75.896,16.538
15691.0,410.02,186.1,74.896,17.538
15701.0,410.02,185.1,74.896,17.538
15711.0,407.02,185.1,69.896,15.538
15721.0,405.02,185.1,69.896,15.538
15731.0,400.02,182.1,65.896,14.538
15741.0,397.02,180.1,65.896,14.538
15750.0,395.02,179.1,63.896,14.538
15760.0,390.02,176.1,63.896,14.538
15770.0,388.02,176.1,58.896,14.538
15780.0,386.02,173.1,58.896,14.538
15790.0,386.02,173.1,56.896,12.538
15800.0,379.02,169.1,55.896,12.538
15810.0,379.02,169.1,53.896,12.538
15820.0,370.02,165.1,53.896,13.538
15830.0,370.02,165.1,53.896,15.538
15839.0,364.02,159.1,50.896,14.538
15849.0,364.02,159.1,49.896,14.538
15859.0,359.02,155.1,44.896,12.538
15869.0,359.02,155.1,42.896,12.538
15879.0,353.02,151.1,39.896,11.538
15889.0,353.02,151.1,38.896,11.538
15899.0,344.02,145.1,37.896,10.538
15909.0,344.02,145.1,30.896,8.5376
15918.0,334.02,138.1,30.896,8.5376
15928.0,334.02,138.1,29.896,9.5376
15938.0,331.02,133.1,58.896,28.538
15948.0,326.02,130.1,57.896,26.538
15958.0,323.02,124.1,61.896,29.538
15968.0,314.02,121.1,60.896,32.538
15978.0,307.02,116.1,57.896,32.538
15988.0,302.02,112.1,56.896,32.538
15998.0,294.02,106.1,55.896,31.538
16007.0,289.02,103.1,51.896,32.538
16017.0,291.02,103.1,52.896,32.538
16027.0,299.02,107.1,53.896,32.538
16037.0,306.02,109.1,48.896,32.538
16047.0,304.02,108.1,42.896,28.538
16057.0,306.02,107.1,31.896,26.538
16067.0,309.02,107.1,27.896,20.538
16077.0,309.02,106.1,31.896,21.538
16087.0,314.02,106.1,44.896,23.538
16096.0,314.02,105.1,53.896,24.538
16106.0,318.02,105.1,66.896,27.538
16116.0,321.02,106.1,73.896,29.538
16126.0,327.02,106.1,82.896,32.538
16136.0,330.02,108.1,91.896,35.538
16146.0,333.02,108.1,97.896,36.538
16156.0,335.02,107.1,104.9,39.538
16166.0,338.02,106.1,111.9,42.538
16176.0,337.02,105.1,111.9,42.538
16185.0,337.02,104.1,115.9,42.538
16195.0,338.02,105.1,116.9,41.538
16205.0,340.02,104.1,118.9,43.538
16215.0,339.02,102.1,117.9,42.538
16225.0,337.02,101.1,120.9,44.538
16235.0,338.02,101.1,119.9,43.538
16245.0,337.02,99.095,120.9,45.538
16255.0,337.02,97.095,121.9,44.538
16264.0,337.02,98.095,120.9,45.538
16274.0,334.02,97.095,117.9,44.538
16284.0,330.02,95.095,113.9,44.538
16294.0,325.02,89.095,111.9,44.538
16304.0,321.02,88.095,108.9,42.538
16314.0,317.02,84.095,108.9,43.538
16324.0,314.02,83.095,107.9,42.538
16334.0,310.02,81.095,105.9,42.538
16344.0,307.02,80.095,105.9,42.538
16353.0,302.02,76.095,104.9,44.538
16363.0,300.02,75.095,106.9,44.538
16373.0,298.02,72.095,108.9,44.538
16383.0,291.02,70.095,107.9,45.538
16393.0,285.02,65.095,105.9,45.538
16403.0,278.02,63.095,104.9,46.538
16413.0,273.02,61.095,102.9,45.538
16423.0,267.02,58.095,98.896,43.538
16433.0,260.02,55.095,96.896,43.538
16442.0,249.02,49.095,95.896,42.538
16452.0,242.02,44.095,92.896,43.538
16462.0,231.02,39.095,91.896,43.538
16472.0,222.02,34.095,90.896,42.538
16482.0,213.02,30.095,89.896,42.538
16492.0,203.02,24.095,83.896,41.538
16502.0,193.02,19.095,82.896,41.538
16512.0,184.02,14.095,79.896,39.538
16522.0,184.02,14.095,75.896,39.538
16531.0,171.02,8.0954,71.896,37.538
16541.0,171.02,8.0954,67.896,36.538
16551.0,155.02,0.095367,62.896,33.538
16561.0,155.02,0.095367,56.896,31.538
16571.0,139.02,-6.9046,56.896,31.538
16581.0,139.02,-6.9046,52.896,30.538
16591.0,124.02,-13.905,52.896,30.538
16601.0,124.02,-13.905,48.896,30.538
16610.0,106.02,-25.905,48.896,30.538
16620.0,106.02,-25.905,46.896,30.538
16630.0,85.02,-34.905,46.896,30.538
16640.0,85.02,-34.905,39.896,28.538
16650.0,75.02,-40.905,39.896,28.538
16660.0,63.02,-46.905,34.896,28.538
16670.0,53.02,-50.905,34.896,28.538
16680.0,38.02,-57.905,30.896,26.538
16690.0,33.02,-62.905,30.896,26.538
16699.0,29.02,-68.905,22.896,25.538
16709.0,31.02,-67.905,22.896,25.538
16719.0,34.02,-64.905,21.896,26.538
16729.0,37.02,-61.905,21.896,26.538
16739.0,38.02,-62.905,4.8959,18.538
16749.0,35.02,-65.905,4.8959,18.538
16759.0,29.02,-71.905,2.8959,12.538
16769.0,23.02,-75.905,2.8959,12.538
16779.0,21.02,-77.905,10.896,12.538
16788.0,17.02,-81.905,20.896,14.538
16798.0,14.02,-86.905,28.896,15.538
16808.0,11.02,-89.905,37.896,15.538
16818.0,9.0202,-90.905,42.896,17.538
16828.0,10.02,-91.905,49.896,18.538
16838.0,10.02,-91.905,55.896,21.538
16848.0,8.0202,-94.905,60.896,22.538
16858.0,8.0202,-93.905,59.896,21.538
16868.0,7.0202,-95.905,61.896,21.538
16877.0,6.0202,-95.905,65.896,22.538
16887.0,4.0202,-97.905,68.896,22.538
16897.0,2.0202,-99.905,66.896,22.538
16907.0,-2.9798,-101.9,66.896,22.538
16917.0,-2.9798,-101.9,66.896,20.538
16927.0,-5.9798,-102.9,64.896,20.538
16937.0,-8.9798,-104.9,64.896,19.538
16947.0,-7.9798,-103.9,63.896,20.538
16956.0,-10.98,-103.9,63.896,20.538
16966.0,-7.9798,-104.9,59.896,18.538
16976.0,-11.98,-104.9,55.896,16.538
16986.0,-12.98,-105.9,52.896,17.538
16996.0,-15.98,-106.9,50.896,14.538
17006.0,-15.98,-106.9,48.896,15.538
17016.0,-17.98,-107.9,44.896,12.538
17026.0,-20.98,-108.9,43.896,12.538
17036.0,-23.98,-108.9,40.896,14.538
17045.0,-24.98,-108.9,39.896,12.538
17055.0,-27.98,-110.9,37.896,11.538
17065.0,-28.98,-110.9,36.896,12.538
17075.0,-31.98,-112.9,36.896,12.538
17085.0,-34.98,-114.9,34.896,11.538
17095.0,-37.98,-113.9,32.896,11.538
17105.0,-39.98,-116.9,29.896,12.538
17115.0,-41.98,-116.9,29.896,10.538
17125.0,-46.98,-115.9,26.896,11.538
17134.0,-47.98,-115.9,24.896,10.538
17144.0,-51.98,-117.9,24.896,10.538
17154.0,-53.98,-117.9,23.896,11.538
17164.0,-58.98,-120.9,21.896,11.538
17174.0,-62.98,-121.9,20.896,10.538
17184.0,-68.98,-124.9,17.896,10.538
17194.0,-71.98,-126.9,18.896,11.538
17204.0,-80.98,-128.9,15.896,11.538
17214.0,-82.98,-129.9,17.896,11.538
17223.0,-85.98,-130.9,14.896,10.538
17233.0,-85.98,-130.9,10.896,9.5376
17243.0,-91.98,-131.9,7.8959,10.538
17253.0,-91.98,-131.9,4.8959,9.5376
17263.0,-99.98,-133.9,2.8959,10.538
17273.0,-99.98,-133.9,1.8959,10.538
17283.0,-107.98,-135.9,-1.1041,8.5376
17293.0,-107.98,-135.9,-4.1041,7.5376
17302.0,-117.98,-137.9,-6.1041,8.5376
17312.0,-117.98,-137.9,-9.1041,7.5376
17322.0,-125.98,-140.9,-11.104,7.5376
17332.0,-125.98,-140.9,-13.104,7.5376
17342.0,-129.98,-140.9,-16.104,5.5376
17352.0,-129.98,-140.9,-17.104,5.5376
17362.0,-127.98,-137.9,-20.104,5.5376
17372.0,-127.98,-137.9,-23.104,4.5376
17382.0,-130.98,-137.9,-27.104,5.5376
17391.0,-127.98,-135.9,-26.104,5.5376
17401.0,-125.98,-133.9,-28.104,7.5376
17411.0,-122.98,-131.9,-30.104,5.5376
17421.0,-109.98,-126.9,-29.104,5.5376
17431.0,-98.98,-121.9,-29.104,7.5376
17441.0,-81.98,-112.9,-27.104,8.5376
17451.0,-68.98,-103.9,-30.104,7.5376
17461.0,-55.98,-96.905,-35.104,6.5376
17471.0,-44.98,-90.905,-44.104,0.5376
17480.0,-37.98,-84.905,-45.104,-0.4624
17490.0,-30.98,-80.905,-35.104,0.5376
17500.0,-23.98,-77.905,-24.104,0.5376
17510.0,-15.98,-73.905,-13.104,3.5376
17520.0,-14.98,-73.905,-5.1041,5.5376
17530.0,-8.9798,-71.905,2.8959,8.5376
17540.0,-4.9798,-69.905,7.8959,9.5376
17550.0,0.020167,-68.905,14.896,10.538
17560.0,5.0202,-64.905,14.896,10.538
17569.0,12.02,-62.905,19.896,12.538
17579.0,12.02,-62.905,19.896,12.538
17589.0,15.02,-60.905,26.896,13.538
17599.0,18.02,-56.905,26.896,13.538
17609.0,20.02,-56.905,32.896,15.538
17619.0,21.02,-54.905,32.896,15.538
17629.0,21.02,-54.905,31.896,15.538
17639.0,21.02,-53.905,31.896,15.538
17648.0,20.02,-52.905,28.896,14.538
17658.0,24.02,-51.905,28.896,14.538
17668.0,22.02,-49.905,23.896,13.538
17678.0,21.02,-49.905,23.896,13.538
17688.0,23.02,-49.905,15.896,9.5376
17698.0,21.02,-48.905,15.896,9.5376
17708.0,21.02,-48.905,11.896,9.5376
17718.0,21.02,-47.905,11.896,9.5376
17728.0,20.02,-47.905,10.896,9.5376
17737.0,19.02,-46.905,10.896,9.5376
17747.0,22.02,-46.905,8.8959,9.5376
17757.0,17.02,-47.905,8.8959,10.538
17767.0,17.02,-48.905,7.8959,8.5376
17777.0,13.02,-48.905,5.8959,7.5376
17787.0,10.02,-49.905,4.8959,7.5376
17797.0,8.0202,-49.905,2.8959,5.5376
17807.0,7.0202,-51.905,-1.1041,5.5376
17817.0,4.0202,-52.905,-5.1041,4.5376
17826.0,1.0202,-52.905,-6.1041,5.5376
17836.0,-4.9798,-56.905,-7.1041,4.5376
17846.0,-7.9798,-57.905,-9.1041,2.5376
17856.0,-11.98,-59.905,-10.104,3.5376
17866.0,-16.98,-59.905,-13.104,3.5376
17876.0,-17.98,-61.905,-14.104,2.5376
17886.0,-20.98,-63.905,-16.104,4.5376
17896.0,-25.98,-64.905,-17.104,3.5376
17906.0,-30.98,-65.905,-19.104,2.5376
17915.0,-34.98,-64.905,-21.104,2.5376
17925.0,-37.98,-66.905,-24.104,0.5376
17935.0,-43.98,-68.905,-29.104,-0.4624
17945.0,-47.98,-70.905,-31.104,-1.4624
17955.0,-55.98,-71.905,-35.104,-0.4624
17965.0,-55.98,-71.905,-36.104,-2.4624
17975.0,-59.98,-72.905,-38.104,-0.4624
17985.0,-59.98,-72.905,-40.104,-3.4624
17994.0,-70.98,-71.905,-45.104,-3.4624
18004.0,-70.98,-71.905,-48.104,-4.4624
18014.0,-76.98,-74.905,-50.104,-3.4624
18024.0,-76.98,-74.905,-52.104,-3.4624
18034.0,-82.98,-74.905,-54.104,-5.4624
18044.0,-82.98,-74.905,-54.104,-4.4624
18054.0,-91.98,-76.905,-56.104,-6.4624
18064.0,-91.98,-76.905,-59.104,-7.4624
18074.0,-97.98,-77.905,-60.104,-6.4624
18083.0,-97.98,-77.905,-63.104,-8.4624
18093.0,-104.98,-78.905,-63.104,-8.4624
18103.0,-104.98,-78.905,-66.104,-8.4624
18113.0,-107.98,-78.905,-71.104,-10.462
18123.0,-112.98,-79.905,-73.104,-8.4624
18133.0,-114.98,-80.905,-77.104,-10.462
18143.0,-120.98,-80.905,-81.104,-11.462
18153.0,-124.98,-80.905,-83.104,-12.462
18163.0,-122.98,-79.905,-86.104,-11.462
18172.0,-116.98,-75.905,-86.104,-11.462
18182.0,-108.98,-71.905,-87.104,-11.462
18192.0,-106.98,-69.905,-88.104,-10.462
18202.0,-106.98,-68.905,-90.104,-11.462
18212.0,-107.98,-68.905,-99.104,-15.462
18222.0,-105.98,-66.905,-100.1,-17.462
18232.0,-104.98,-64.905,-90.104,-16.462
18242.0,-102.98,-62.905,-78.104,-11.462
18252.0,-103.98,-62.905,-64.104,-9.4624
18261.0,-103.98,-64.905,-53.104,-6.4624
18271.0,-103.98,-64.905,-45.104,-4.4624
18281.0,-103.98,-64.905,-34.104,-1.4624
18291.0,-103.98,-65.905,-24.104,1.5376
18301.0,-103.98,-64.905,-17.104,5.5376
18311.0,-104.98,-61.905,-8.1041,9.5376
18321.0,-104.98,-63.905,-4.1041,13.538
18331.0,-105.98,-62.905,-0.10413,14.538
18340.0,-106.98,-62.905,5.8959,16.538
18350.0,-105.98,-61.905,6.8959,18.538
18360.0,-105.98,-61.905,8.8959,19.538
18370.0,-110.98,-61.905,9.8959,21.538
18380.0,-108.98,-61.905,12.896,23.538
18390.0,-108.98,-59.905,11.896,23.538
18400.0,-105.98,-56.905,12.896,24.538
18410.0,-102.98,-55.905,15.896,26.538
18420.0,-101.98,-55.905,12.896,25.538
18429.0,-101.98,-53.905,9.8959,25.538
18439.0,-100.98,-52.905,6.8959,24.538
18449.0,-99.98,-49.905,5.8959,26.538
18459.0,-96.98,-48.905,6.8959,26.538
18469.0,-96.98,-48.905,8.8959,28.538
18479.0,-97.98,-47.905,8.8959,29.538
18489.0,-98.98,-48.905,10.896,30.538
18499.0,-100.98,-50.905,13.896,31.538
18509.0,-100.98,-51.905,14.896,33.538
18518.0,-100.98,-51.905,16.896,34.538
18528.0,-101.98,-52.905,17.896,36.538
18538.0,-101.98,-51.905,18.896,36.538
18548.0,-102.98,-51.905,21.896,37.538
18558.0,-102.98,-49.905,22.896,39.538
18568.0,-103.98,-48.905,22.896,39.538
18578.0,-105.98,-49.905,21.896,40.538
18588.0,-106.98,-50.905,21.896,40.538
18598.0,-108.98,-52.905,22.896,40.538
18607.0,-109.98,-53.905,22.896,40.538
18617.0,-112.98,-53.905,24.896,42.538
18627.0,-114.98,-53.905,24.896,42.538
18637.0,-115.98,-54.905,23.896,44.538
18647.0,-118.98,-55.905,23.896,44.538
18657.0,-120.98,-56.905,22.896,45.538
18667.0,-121.98,-57.905,22.896,45.538
18677.0,-123.98,-56.905,18.896,46.538
18686.0,-126.98,-57.905,18.896,46.538
18696.0,-126.98,-57.905,19.896,47.538
18706.0,-130.98,-60.905,19.896,47.538
18716.0,-130.98,-60.905,16.896,50.538
18726.0,-136.98,-61.905,16.896,50.538
18736.0,-136.98,-61.905,15.896,50.538
18746.0,-139.98,-63.905,15.896,50.538
18756.0,-139.98,-63.905,13.896,52.538
18766.0,-145.98,-65.905,13.896,52.538
18775.0,-145.98,-65.905,11.896,51.538
18785.0,-152.98,-68.905,9.8959,53.538
18795.0,-152.98,-68.905,8.8959,52.538
18805.0,-159.98,-70.905,4.8959,52.538
18815.0,-159.98,-70.905,3.8959,51.538
18825.0,-162.98,-69.905,2.8959,51.538
18835.0,-164.98,-71.905,3.8959,54.538
18845.0,-168.98,-72.905,5.8959,54.538
18855.0,-174.98,-74.905,3.8959,55.538
18864.0,-178.98,-77.905,2.8959,56.538
18874.0,-180.98,-76.905,0.89587,56.538
18884.0,-178.98,-75.905,1.8959,56.538
18894.0,-170.98,-72.905,-0.10413,57.538
18904.0,-167.98,-68.905,-0.10413,57.538
18914.0,-167.98,-70.905,-5.1041,58.538
18924.0,-168.98,-67.905,-6.1041,55.538
18934.0,-163.98,-65.905,-12.104,54.538
18944.0,-160.98,-63.905,-18.104,49.538
18953.0,-157.98,-60.905,-6.1041,53.538
18963.0,-158.98,-60.905,2.8959,54.538
18973.0,-157.98,-58.905,12.896,56.538
18983.0,-158.98,-61.905,23.896,58.538
18993.0,-159.98,-64.905,29.896,59.538
19003.0,-156.98,-65.905,39.896,62.538
19013.0,-156.98,-64.905,47.896,66.538
19023.0,-154.98,-64.905,53.896,67.538
19032.0,-155.98,-64.905,59.896,69.538
19042.0,-154.98,-65.905,64.896,73.538
19052.0,-154.98,-65.905,70.896,74.538
19062.0,-150.98,-64.905,75.896,75.538
19072.0,-154.98,-63.905,78.896,78.538
19082.0,-155.98,-62.905,78.896,79.538
19092.0,-155.98,-64.905,81.896,80.538
19102.0,-154.98,-64.905,82.896,81.538
19112.0,-153.98,-61.905,82.896,81.538
19121.0,-151.98,-60.905,81.896,82.538
19131.0,-150.98,-60.905,80.896,83.538
19141.0,-150.98,-60.905,77.896,83.538
19151.0,-149.98,-59.905,77.896,83.538
19161.0,-149.98,-59.905,74.896,83.538
19171.0,-147.98,-57.905,74.896,83.538
19181.0,-149.98,-59.905,75.896,82.538
19191.0,-148.98,-59.905,73.896,83.538
19201.0,-148.98,-58.905,70.896,85.538
19210.0,-149.98,-59.905,70.896,84.538
19220.0,-152.98,-60.905,71.896,85.538
19230.0,-151.98,-59.905,71.896,86.538
19240.0,-152.98,-60.905,70.896,85.538
19250.0,-154.98,-61.905,73.896,86.538
19260.0,-155.98,-62.905,73.896,85.538
19270.0,-157.98,-63.905,73.896,87.538
19280.0,-157.98,-64.905,70.896,85.538
19290.0,-159.98,-63.905,69.896,86.538
19299.0,-159.98,-64.905,70.896,86.538
19309.0,-161.98,-65.905,70.896,88.538
19319.0,-161.98,-66.905,70.896,87.538
19329.0,-163.98,-63.905,70.896,87.538
19339.0,-164.98,-65.905,70.896,88.538
19349.0,-165.98,-65.905,70.896,89.538
19359.0,-167.98,-66.905,68.896,88.538
19369.0,-170.98,-67.905,67.896,90.538
19378.0,-171.98,-68.905,65.896,88.538
19388.0,-173.98,-69.905,65.896,89.538
19398.0,-177.98,-70.905,63.896,88.538
19408.0,-177.98,-70.905,59.896,89.538
19418.0,-184.98,-74.905,60.896,88.538
19428.0,-184.98,-74.905,60.896,89.538
19438.0,-188.98,-77.905,57.896,89.538
19448.0,-188.98,-77.905,56.896,89.538
19458.0,-194.98,-79.905,55.896,89.538
19467.0,-194.98,-79.905,53.896,89.538
19477.0,-200.98,-83.905,53.896,88.538
19487.0,-200.98,-83.905,50.896,89.538
19497.0,-206.98,-87.905,49.896,87.538
19507.0,-206.98,-87.905,46.896,87.538
19517.0,-215.98,-92.905,44.896,87.538
19527.0,-215.98,-92.905,42.896,87.538
19537.0,-224.98,-97.905,42.896,87.538
19547.0,-224.98,-97.905,38.896,87.538
19556.0,-226.98,-99.905,38.896,87.538
19566.0,-224.98,-102.9,38.896,87.538
19576.0,-221.98,-99.905,38.896,87.538
19586.0,-212.98,-99.905,40.896,89.538
19596.0,-212.98,-97.905,40.896,89.538
19606.0,-211.98,-97.905,34.896,89.538
19616.0,-213.98,-98.905,34.896,89.538
19626.0,-210.98,-97.905,31.896,84.538
19636.0,-208.98,-96.905,31.896,84.538
19645.0,-205.98,-95.905,54.896,89.538
19655.0,-205.98,-96.905,54.896,89.538
19665.0,-205.98,-97.905,74.896,94.538
19675.0,-202.98,-97.905,74.896,94.538
19685.0,-200.98,-97.905,93.896,100.54
19695.0,-194.98,-97.905,93.896,100.54
19705.0,-192.98,-97.905,102.9,103.54
19715.0,-188.98,-97.905,110.9,106.54
19724.0,-187.98,-98.905,115.9,109.54
19734.0,-185.98,-96.905,121.9,111.54
19744.0,-184.98,-97.905,128.9,113.54
19754.0,-183.98,-96.905,131.9,114.54
19764.0,-183.98,-96.905,135.9,117.54
19774.0,-183.98,-97.905,139.9,118.54
19784.0,-182.98,-97.905,139.9,120.54
19794.0,-183.98,-99.905,141.9,121.54
19804.0,-184.98,-99.905,141.9,122.54
19813.0,-184.98,-99.905,143.9,122.54
19823.0,-181.98,-99.905,140.9,123.54
19833.0,-179.98,-99.905,141.9,123.54
19843.0,-179.98,-98.905,138.9,121.54
19853.0,-178.98,-99.905,136.9,122.54
19863.0,-176.98,-99.905,136.9,121.54
19873.0,-176.98,-99.905,138.9,124.54
19883.0,-176.98,-99.905,139.9,125.54
19893.0,-177.98,-98.905,137.9,124.54
19902.0,-177.98,-99.905,136.9,125.54
19912.0,-176.98,-100.9,135.9,124.54
19922.0,-175.98,-100.9,132.9,123.54
19932.0,-179.98,-101.9,131.9,121.54
19942.0,-178.98,-103.9,131.9,123.54
19952.0,-181.98,-103.9,131.9,122.54
19962.0,-184.98,-105.9,130.9,120.54
19972.0,-185.98,-106.9,130.9,122.54
19982.0,-185.98,-106.9,127.9,121.54
19991.0,-187.98,-106.9,126.9,121.54
20001.0,-188.98,-107.9,126.9,121.54
20011.0,-191.98,-109.9,124.9,120.54
20021.0,-191.98,-109.9,123.9,119.54
20031.0,-195.98,-110.9,121.9,118.54
20041.0,-196.98,-111.9,119.9,118.54
20051.0,-200.98,-112.9,115.9,116.54
20061.0,-201.98,-113.9,113.9,115.54
20070.0,-203.98,-114.9,111.9,115.54
20080.0,-206.98,-115.9,109.9,114.54
20090.0,-208.98,-117.9,107.9,112.54
20100.0,-212.98,-118.9,102.9,112.54
20110.0,-213.98,-120.9,100.9,112.54
20120.0,-217.98,-121.9,97.896,111.54
20130.0,-217.98,-122.9,93.896,109.54
20140.0,-217.98,-122.9,93.896,109.54
20150.0,-224.98,-124.9,90.896,108.54
20159.0,-224.98,-124.9,89.896,108.54
20169.0,-233.98,-128.9,85.896,106.54
20179.0,-233.98,-128.9,83.896,106.54
20189.0,-240.98,-132.9,79.896,105.54
20199.0,-240.98,-132.9,78.896,104.54
20209.0,-250.98,-137.9,76.896,104.54
20219.0,-250.98,-137.9,73.896,103.54
20229.0,-246.98,-139.9,71.896,102.54
20239.0,-246.98,-139.9,69.896,102.54
20248.0,-225.98,-126.9,69.896,103.54
20258.0,-225.98,-126.9,66.896,101.54
20268.0,-216.98,-126.9,62.896,99.538
20278.0,-216.98,-126.9,54.896,97.538
20288.0,-212.98,-122.9,46.896,91.538
20298.0,-208.98,-123.9,56.896,92.538
20308.0,-203.98,-119.9,65.896,94.538
20318.0,-201.98,-121.9,76.896,95.538
20328.0,-200.98,-120.9,87.896,99.538
20337.0,-195.98,-121.9,95.896,99.538
20347.0,-192.98,-121.9,104.9,103.54
20357.0,-189.98,-121.9,112.9,105.54
20367.0,-185.98,-121.9,121.9,108.54
20377.0,-183.98,-121.9,125.9,109.54
20387.0,-183.98,-122.9,130.9,112.54
20397.0,-185.98,-122.9,135.9,112.54
20407.0,-180.98,-121.9,139.9,114.54
20416.0,-175.98,-119.9,144.9,116.54
20426.0,-176.98,-118.9,145.9,117.54
20436.0,-174.98,-117.9,148.9,117.54
20446.0,-174.98,-119.9,147.9,118.54
20456.0,-173.98,-117.9,147.9,118.54
20466.0,-172.98,-116.9,147.9,117.54
20476.0,-172.98,-117.9,147.9,119.54
20486.0,-170.98,-115.9,146.9,119.54
20496.0,-170.98,-114.9,145.9,118.54
20505.0,-170.98,-115.9,145.9,118.54
20515.0,-171.98,-117.9,141.9,118.54
20525.0,-170.98,-116.9,141.9,118.54
20535.0,-170.98,-116.9,141.9,117.54
20545.0,-167.98,-114.9,141.9,117.54
20555.0,-169.98,-115.9,141.9,120.54
20565.0,-172.98,-114.9,141.9,120.54
20575.0,-172.98,-116.9,139.9,117.54
20585.0,-174.98,-115.9,139.9,117.54
20594.0,-172.98,-115.9,135.9,116.54
20604.0,-176.98,-117.9,135.9,116.54
20614.0,-178.98,-117.9,133.9,117.54
20624.0,-181.98,-119.9,133.9,117.54
20634.0,-184.98,-120.9,129.9,116.54
20644.0,-187.98,-122.9,129.9,116.54
20654.0,-189.98,-122.9,127.9,115.54
20664.0,-192.98,-125.9,127.9,115.54
20673.0,-195.98,-127.9,125.9,115.54
20683.0,-199.98,-128.9,125.9,115.54
20693.0,-200.98,-128.9,124.9,115.54
20703.0,-202.98,-129.9,122.9,114.54
20713.0,-204.98,-129.9,121.9,114.54
20723.0,-207.98,-132.9,117.9,111.54
20733.0,-210.98,-132.9,117.9,113.54
20743.0,-213.98,-135.9,114.9,111.54
20753.0,-213.98,-134.9,113.9,112.54
20762.0,-217.98,-135.9,109.9,111.54
20772.0,-220.98,-136.9,109.9,110.54
20782.0,-222.98,-139.9,105.9,111.54
20792.0,-226.98,-141.9,104.9,110.54
20802.0,-231.98,-141.9,104.9,109.54
20812.0,-233.98,-143.9,101.9,109.54
20822.0,-240.98,-148.9,99.896,108.54
20832.0,-241.98,-148.9,96.896,107.54
20842.0,-246.98,-152.9,92.896,106.54
20851.0,-250.98,-153.9,89.896,105.54
20861.0,-255.98,-156.9,90.896,106.54
20871.0,-255.98,-156.9,84.896,104.54
20881.0,-267.98,-163.9,84.896,104.54
20891.0,-267.98,-163.9,81.896,103.54
20901.0,-264.98,-166.9,80.896,103.54
20911.0,-264.98,-166.9,79.896,102.54
20921.0,-246.98,-156.9,78.896,103.54
20931.0,-246.98,-156.9,76.896,103.54
20940.0,-240.98,-156.9,71.896,102.54
20950.0,-240.98,-156.9,64.896,98.538
20960.0,-237.98,-156.9,60.896,94.538
20970.0,-237.98,-156.9,71.896,95.538
20980.0,-228.98,-155.9,83.896,99.538
20990.0,-228.98,-155.9,94.896,101.54
21000.0,-225.98,-155.9,106.9,104.54
21010.0,-221.98,-155.9,117.9,107.54
21019.0,-217.98,-154.9,125.9,111.54
21029.0,-209.98,-151.9,134.9,112.54
21039.0,-207.98,-149.9,141.9,115.54
21049.0,-203.98,-151.9,147.9,118.54
21059.0,-204.98,-150.9,151.9,120.54
21069.0,-199.98,-150.9,159.9,120.54
21079.0,-197.98,-148.9,161.9,121.54
21089.0,-193.98,-150.9,163.9,122.54
21099.0,-189.98,-147.9,165.9,122.54
21108.0,-187.98,-146.9,166.9,123.54
21118.0,-187.98,-146.9,169.9,124.54
21128.0,-187.98,-145.9,168.9,124.54
21138.0,-184.98,-145.9,167.9,124.54
21148.0,-182.98,-144.9,168.9,124.54
21158.0,-180.98,-143.9,167.9,124.54
21168.0,-177.98,-143.9,164.9,124.54
21178.0,-177.98,-143.9,162.9,124.54
21188.0,-177.98,-145.9,162.9,124.54
21197.0,-180.98,-145.9,162.9,124.54
21207.0,-179.98,-144.9,163.9,125.54
21217.0,-180.98,-146.9,161.9,125.54
21227.0,-183.98,-147.9,163.9,124.54
21237.0,-181.98,-147.9,162.9,125.54
21247.0,-182.98,-147.9,161.9,124.54
21257.0,-184.98,-148.9,158.9,123.54
21267.0,-184.98,-150.9,157.9,123.54
21277.0,-189.98,-152.9,154.9,123.54
21286.0,-191.98,-152.9,154.9,121.54
21296.0,-194.98,-154.9,150.9,120.54
21306.0,-194.98,-155.9,151.9,121.54
21316.0,-197.98,-155.9,149.9,121.54
21326.0,-200.98,-159.9,148.9,120.54
21336.0,-202.98,-157.9,148.9,120.54
21346.0,-204.98,-159.9,148.9,120.54
21356.0,-205.98,-161.9,147.9,121.54
21365.0,-210.98,-160.9,145.9,120.54
21375.0,-210.98,-163.9,144.9,120.54
21385.0,-211.98,-163.9,143.9,119.54
21395.0,-216.98,-165.9,139.9,118.54
21405.0,-220.98,-166.9,138.9,119.54
21415.0,-223.98,-168.9,138.9,119.54
21425.0,-225.98,-169.9,138.9,120.54
21435.0,-230.98,-170.9,134.9,120.54
21445.0,-230.98,-171.9,132.9,120.54
21454.0,-234.98,-172.9,131.9,119.54
21464.0,-237.98,-174.9,129.9,118.54
21474.0,-241.98,-175.9,127.9,118.54
21484.0,-244.98,-177.9,124.9,117.54
21494.0,-246.98,-179.9,122.9,116.54
21504.0,-250.98,-179.9,121.9,115.54
21514.0,-254.98,-182.9,117.9,114.54
21524.0,-256.98,-183.9,115.9,114.54
21534.0,-263.98,-186.9,115.9,114.54
21543.0,-268.98,-187.9,109.9,113.54
21553.0,-271.98,-188.9,109.9,113.54
21563.0,-275.98,-192.9,106.9,112.54
21573.0,-280.98,-195.9,106.9,112.54
21583.0,-282.98,-195.9,101.9,111.54
21593.0,-278.98,-195.9,101.9,111.54
21603.0,-278.98,-195.9,97.896,109.54
21613.0,-254.98,-184.9,97.896,109.54
21623.0,-254.98,-184.9,93.896,109.54
21632.0,-242.98,-177.9,93.896,109.54
21642.0,-242.98,-177.9,78.896,102.54
21652.0,-234.98,-175.9,78.896,102.54
21662.0,-234.98,-175.9,90.896,100.54
21672.0,-224.98,-173.9,90.896,100.54
21682.0,-224.98,-173.9,113.9,106.54
21692.0,-217.98,-172.9,113.9,106.54
21702.0,-217.98,-172.9,134.9,111.54
21711.0,-203.98,-167.9,134.9,111.54
21721.0,-203.98,-167.9,141.9,113.54
21731.0,-201.98,-165.9,149.9,116.54
21741.0,-196.98,-164.9,156.9,118.54
21751.0,-194.98,-163.9,160.9,120.54
21761.0,-190.98,-164.9,165.9,121.54
21771.0,-187.98,-160.9,169.9,124.54
21781.0,-185.98,-158.9,172.9,122.54
21791.0,-182.98,-157.9,172.9,122.54
21800.0,-179.98,-157.9,174.9,124.54
21810.0,-178.98,-158.9,175.9,124.54
21820.0,-179.98,-155.9,173.9,122.54
21830.0,-176.98,-154.9,171.9,122.54
21840.0,-173.98,-153.9,172.9,121.54
21850.0,-171.98,-150.9,173.9,123.54
21860.0,-168.98,-148.9,169.9,121.54
21870.0,-162.98,-146.9,167.9,121.54
21880.0,-156.98,-142.9,164.9,119.54
21889.0,-152.98,-139.9,162.9,120.54
21899.0,-142.98,-135.9,163.9,120.54
21909.0,-133.98,-130.9,161.9,120.54
21919.0,-128.98,-125.9,159.9,120.54
21929.0,-122.98,-123.9,159.9,120.54
21939.0,-114.98,-117.9,158.9,117.54
21949.0,-108.98,-111.9,157.9,118.54
21959.0,-102.98,-109.9,157.9,118.54
21969.0,-96.98,-106.9,155.9,116.54
21978.0,-91.98,-103.9,156.9,117.54
21988.0,-89.98,-102.9,153.9,116.54
21998.0,-85.98,-100.9,151.9,117.54
22008.0,-85.98,-100.9,149.9,116.54
22018.0,-82.98,-98.905,150.9,115.54
22028.0,-81.98,-97.905,149.9,116.54
22038.0,-77.98,-95.905,146.9,115.54
22048.0,-76.98,-93.905,147.9,116.54
22057.0,-73.98,-90.905,147.9,117.54
22067.0,-71.98,-89.905,144.9,116.54
22077.0,-70.98,-87.905,142.9,116.54
22087.0,-70.98,-86.905,139.9,117.54
22097.0,-70.98,-85.905,137.9,115.54
22107.0,-72.98,-87.905,136.9,114.54
22117.0,-76.98,-87.905,133.9,114.54
22127.0,-78.98,-88.905,132.9,114.54
22137.0,-79.98,-87.905,131.9,114.54
22146.0,-78.98,-86.905,128.9,112.54
22156.0,-82.98,-86.905,126.9,113.54
22166.0,-84.98,-88.905,125.9,112.54
22176.0,-83.98,-85.905,122.9,113.54
22186.0,-88.98,-88.905,122.9,111.54
22196.0,-91.98,-89.905,119.9,111.54
22206.0,-93.98,-89.905,116.9,111.54
22216.0,-94.98,-88.905,114.9,108.54
22226.0,-97.98,-89.905,109.9,107.54
22235.0,-99.98,-89.905,107.9,107.54
22245.0,-100.98,-89.905,104.9,108.54
22255.0,-100.98,-86.905,102.9,106.54
22265.0,-101.98,-86.905,99.896,104.54
22275.0,-103.98,-85.905,97.896,104.54
22285.0,-102.98,-85.905,93.896,103.54
22295.0,-104.98,-84.905,90.896,102.54
22305.0,-109.98,-87.905,88.896,101.54
22315.0,-112.98,-87.905,87.896,101.54
22324.0,-116.98,-89.905,85.896,100.54
22334.0,-116.98,-89.905,86.896,101.54
22344.0,-120.98,-91.905,83.896,100.54
22354.0,-120.98,-91.905,83.896,101.54
22364.0,-110.98,-86.905,83.896,102.54
22374.0,-110.98,-86.905,84.896,102.54
22384.0,-94.98,-74.905,80.896,101.54
22394.0,-94.98,-74.905,74.896,100.54
22403.0,-85.98,-70.905,68.896,95.538
22413.0,-85.98,-70.905,61.896,92.538
22423.0,-81.98,-63.905,70.896,92.538
22433.0,-81.98,-63.905,80.896,93.538
22443.0,-69.98,-59.905,92.896,95.538
22453.0,-69.98,-59.905,104.9,99.538
22463.0,-60.98,-58.905,114.9,101.54
22473.0,-60.98,-58.905,125.9,105.54
22483.0,-56.98,-58.905,125.9,105.54
22492.0,-55.98,-57.905,140.9,109.54
22502.0,-52.98,-55.905,140.9,109.54
22512.0,-49.98,-55.905,150.9,112.54
22522.0,-50.98,-55.905,150.9,112.54
22532.0,-50.98,-54.905,154.9,114.54
22542.0,-46.98,-54.905,154.9,114.54
22552.0,-47.98,-54.905,158.9,115.54
22562.0,-46.98,-55.905,158.9,115.54
22572.0,-45.98,-56.905,160.9,115.54
22581.0,-47.98,-56.905,160.9,115.54
22591.0,-45.98,-55.905,160.9,116.54
22601.0,-43.98,-55.905,160.9,116.54
22611.0,-43.98,-53.905,160.9,118.54
22621.0,-43.98,-54.905,160.9,118.54
22631.0,-43.98,-54.905,158.9,117.54
22641.0,-43.98,-54.905,158.9,117.54
22651.0,-42.98,-53.905,158.9,117.54
22661.0,-42.98,-52.905,155.9,118.54
22670.0,-40.98,-52.905,156.9,118.54
22680.0,-41.98,-50.905,157.9,120.54
22690.0,-42.98,-51.905,159.9,119.54
22700.0,-43.98,-51.905,159.9,120.54
22710.0,-43.98,-51.905,160.9,121.54
22720.0,-44.98,-48.905,158.9,121.54
22730.0,-43.98,-50.905,159.9,122.54
22740.0,-47.98,-50.905,157.9,122.54
22749.0,-46.98,-49.905,158.9,121.54
22759.0,-48.98,-49.905,158.9,122.54
22769.0,-48.98,-50.905,153.9,122.54
22779.0,-52.98,-49.905,158.9,123.54
22789.0,-52.98,-51.905,155.9,124.54
22799.0,-55.98,-51.905,157.9,125.54
22809.0,-55.98,-51.905,157.9,126.54
22819.0,-58.98,-52.905,158.9,128.54
22829.0,-57.98,-49.905,161.9,129.54
22838.0,-59.98,-51.905,157.9,130.54
22848.0,-62.98,-52.905,156.9,130.54
22858.0,-64.98,-53.905,157.9,130.54
22868.0,-66.98,-53.905,157.9,130.54
22878.0,-68.98,-54.905,154.9,130.54
22888.0,-70.98,-55.905,156.9,131.54
22898.0,-75.98,-57.905,156.9,131.54
22908.0,-75.98,-54.905,155.9,130.54
22918.0,-76.98,-55.905,154.9,132.54
22927.0,-77.98,-54.905,153.9,132.54
22937.0,-79.98,-54.905,152.9,133.54
22947.0,-80.98,-53.905,155.9,135.54
22957.0,-83.98,-53.905,155.9,136.54
22967.0,-85.98,-53.905,152.9,136.54
22977.0,-87.98,-56.905,153.9,136.54
22987.0,-91.98,-56.905,153.9,138.54
22997.0,-92.98,-56.905,154.9,139.54
23007.0,-94.98,-56.905,151.9,141.54
23016.0,-97.98,-56.905,153.9,142.54
23026.0,-100.98,-56.905,153.9,143.54
23036.0,-99.98,-56.905,153.9,143.54
23046.0,-103.98,-57.905,153.9,144.54
23056.0,-104.98,-58.905,151.9,144.54
23066.0,-104.98,-58.905,151.9,145.54
23076.0,-112.98,-60.905,153.9,144.54
23086.0,-112.98,-60.905,154.9,147.54
23095.0,-117.98,-61.905,155.9,146.54
23105.0,-117.98,-61.905,154.9,148.54
23115.0,-125.98,-63.905,155.9,147.54
23125.0,-125.98,-63.905,156.9,149.54
23135.0,-123.98,-65.905,158.9,150.54
23145.0,-123.98,-65.905,161.9,151.54
23155.0,-114.98,-59.905,159.9,151.54
23165.0,-114.98,-59.905,154.9,151.54
23175.0,-112.98,-58.905,151.9,150.54
23184.0,-112.98,-58.905,146.9,148.54
23194.0,-105.98,-54.905,143.9,145.54
23204.0,-105.98,-54.905,153.9,148.54
23214.0,-102.98,-53.905,165.9,153.54
23224.0,-102.98,-53.905,178.9,156.54
23234.0,-101.98,-54.905,191.9,158.54
23244.0,-99.98,-55.905,200.9,162.54
23254.0,-96.98,-54.905,209.9,165.54
23264.0,-92.98,-56.905,214.9,167.54
23273.0,-91.98,-54.905,223.9,171.54
23283.0,-93.98,-54.905,231.9,174.54
23293.0,-87.98,-53.905,236.9,177.54
23303.0,-85.98,-52.905,240.9,178.54
23313.0,-84.98,-51.905,245.9,181.54
23323.0,-81.98,-50.905,248.9,181.54
23333.0,-79.98,-48.905,251.9,183.54
23343.0,-82.98,-49.905,253.9,186.54
23353.0,-80.98,-48.905,256.9,185.54
23362.0,-82.98,-52.905,256.9,187.54
23372.0,-80.98,-50.905,255.9,188.54
23382.0,-79.98,-48.905,257.9,188.54
23392.0,-77.98,-47.905,254.9,189.54
23402.0,-78.98,-48.905,253.9,189.54
23412.0,-76.98,-49.905,248.9,188.54
23422.0,-76.98,-46.905,248.9,189.54
23432.0,-74.98,-45.905,247.9,189.54
23441.0,-71.98,-42.905,250.9,191.54
23451.0,-69.98,-40.905,250.9,191.54
23461.0,-68.98,-41.905,250.9,192.54
23471.0,-68.98,-39.905,250.9,192.54
23481.0,-70.98,-40.905,248.9,191.54
23491.0,-71.98,-39.905,248.9,191.54
23501.0,-71.98,-38.905,248.9,191.54
23511.0,-73.98,-39.905,248.9,191.54
23521.0,-71.98,-39.905,247.9,193.54
23530.0,-72.98,-38.905,247.9,193.54
23540.0,-73.98,-40.905,247.9,191.54
23550.0,-76.98,-38.905,247.9,191.54
23560.0,-75.98,-39.905,245.9,192.54
23570.0,-79.98,-37.905,245.9,192.54
23580.0,-79.98,-39.905,244.9,192.54
23590.0,-82.98,-39.905,244.9,192.54
23600.0,-82.98,-41.905,243.9,193.54
23610.0,-85.98,-42.905,243.9,193.54
23619.0,-86.98,-42.905,241.9,194.54
23629.0,-88.98,-41.905,241.9,194.54
23639.0,-90.98,-44.905,241.9,194.54
23649.0,-91.98,-43.905,240.9,193.54
23659.0,-94.98,-45.905,239.9,194.54
23669.0,-94.98,-45.905,237.9,193.54
23679.0,-94.98,-44.905,236.9,194.54
23689.0,-97.98,-45.905,236.9,195.54
23699.0,-100.98,-46.905,236.9,193.54
23708.0,-100.98,-46.905,236.9,193.54
23718.0,-104.98,-48.905,233.9,193.54
23728.0,-107.98,-50.905,231.9,193.54
23738.0,-111.98,-50.905,229.9,193.54
23748.0,-113.98,-51.905,227.9,192.54
23758.0,-114.98,-52.905,225.9,191.54
23768.0,-117.98,-54.905,221.9,190.54
23778.0,-119.98,-54.905,217.9,190.54
23787.0,-120.98,-54.905,215.9,188.54
23797.0,-120.98,-54.905,210.9,188.54
23807.0,-125.98,-56.905,208.9,186.54
23817.0,-125.98,-56.905,202.9,186.54
23827.0,-133.98,-58.905,198.9,184.54
23837.0,-133.98,-58.905,198.9,182.54
23847.0,-140.98,-59.905,195.9,184.54
23857.0,-140.98,-59.905,196.9,184.54
23867.0,-140.98,-64.905,195.9,184.54
23876.0,-140.98,-64.905,195.9,184.54
23886.0,-135.98,-63.905,195.9,185.54
23896.0,-135.98,-63.905,192.9,183.54
23906.0,-133.98,-64.905,189.9,183.54
23916.0,-133.98,-64.905,182.9,180.54
23926.0,-126.98,-60.905,175.9,176.54
23936.0,-126.98,-60.905,184.9,177.54
23946.0,-124.98,-58.905,195.9,179.54
23956.0,-123.98,-58.905,206.9,180.54
23965.0,-122.98,-58.905,213.9,185.54
23975.0,-119.98,-60.905,224.9,188.54
23985.0,-117.98,-60.905,232.9,190.54
23995.0,-112.98,-58.905,239.9,190.54
24005.0,-112.98,-57.905,247.9,193.54
24015.0,-108.98,-58.905,252.9,195.54
24025.0,-108.98,-58.905,258.9,198.54
24035.0,-106.98,-57.905,262.9,197.54
24045.0,-105.98,-57.905,265.9,198.54
24054.0,-103.98,-55.905,267.9,199.54
24064.0,-101.98,-56.905,269.9,201.54
24074.0,-102.98,-53.905,272.9,202.54
24084.0,-100.98,-53.905,271.9,202.54
24094.0,-100.98,-53.905,270.9,202.54
24104.0,-99.98,-53.905,270.9,202.54
24114.0,-97.98,-51.905,271.9,204.54
24124.0,-96.98,-50.905,268.9,203.54
24133.0,-95.98,-48.905,265.9,202.54
24143.0,-92.98,-50.905,261.9,202.54
24153.0,-92.98,-49.905,261.9,201.54
24163.0,-90.98,-50.905,260.9,201.54
24173.0,-88.98,-47.905,261.9,202.54
24183.0,-88.98,-48.905,261.9,203.54
24193.0,-87.98,-47.905,261.9,203.54
24203.0,-90.98,-46.905,263.9,203.54
24213.0,-88.98,-47.905,260.9,203.54
24222.0,-89.98,-46.905,256.9,202.54
24232.0,-90.98,-47.905,254.9,200.54
24242.0,-92.98,-48.905,251.9,200.54
24252.0,-91.98,-49.905,250.9,198.54
24262.0,-93.98,-48.905,246.9,197.54
24272.0,-91.98,-49.905,246.9,197.54
24282.0,-95.98,-51.905,243.9,197.54
24292.0,-98.98,-52.905,242.9,195.54
24302.0,-101.98,-52.905,243.9,196.54
24311.0,-103.98,-56.905,243.9,197.54
24321.0,-105.98,-57.905,241.9,196.54
24331.0,-107.98,-58.905,238.9,194.54
24341.0,-110.98,-60.905,236.9,195.54
24351.0,-114.98,-62.905,234.9,194.54
24361.0,-118.98,-64.905,233.9,194.54
24371.0,-123.98,-67.905,230.9,193.54
24381.0,-124.98,-68.905,228.9,193.54
24391.0,-126.98,-68.905,224.9,191.54
24400.0,-129.98,-71.905,221.9,191.54
24410.0,-131.98,-71.905,218.9,191.54
24420.0,-136.98,-73.905,218.9,191.54
24430.0,-140.98,-73.905,214.9,191.54
24440.0,-143.98,-77.905,211.9,189.54
24450.0,-145.98,-76.905,211.9,188.54
24460.0,-148.98,-77.905,208.9,187.54
24470.0,-150.98,-79.905,203.9,186.54
24479.0,-155.98,-81.905,203.9,186.54
24489.0,-158.98,-82.905,196.9,182.54
24499.0,-164.98,-83.905,196.9,182.54
24509.0,-166.98,-86.905,190.9,181.54
24519.0,-171.98,-88.905,190.9,181.54
24529.0,-171.98,-88.905,187.9,180.54
24539.0,-179.98,-91.905,187.9,180.54
24549.0,-179.98,-91.905,180.9,180.54
24559.0,-186.98,-95.905,180.9,180.54
24568.0,-186.98,-95.905,176.9,178.54
24578.0,-186.98,-99.905,176.9,178.54
24588.0,-186.98,-99.905,176.9,178.54
24598.0,-179.98,-96.905,176.9,178.54
24608.0,-179.98,-96.905,164.9,174.54
24618.0,-176.98,-95.905,164.9,174.54
24628.0,-176.98,-95.905,155.9,167.54
24638.0,-170.98,-94.905,155.9,167.54
24648.0,-170.98,-94.905,175.9,171.54
24657.0,-168.98,-91.905,175.9,171.54
24667.0,-163.98,-92.905,185.9,174.54
24677.0,-162.98,-91.905,196.9,177.54
24687.0,-159.98,-91.905,208.9,180.54
24697.0,-157.98,-91.905,215.9,182.54
24707.0,-154.98,-90.905,223.9,184.54
24717.0,-153.98,-89.905,229.9,186.54
24727.0,-150.98,-87.905,234.9,188.54
24737.0,-149.98,-88.905,239.9,189.54
24746.0,-146.98,-85.905,243.9,189.54
24756.0,-143.98,-84.905,245.9,191.54
24766.0,-141.98,-83.905,246.9,190.54
24776.0,-138.98,-83.905,249.9,191.54
24786.0,-138.98,-81.905,246.9,190.54
24796.0,-138.98,-79.905,249.9,190.54
24806.0,-137.98,-79.905,247.9,190.54
24816.0,-139.98,-79.905,245.9,191.54
24825.0,-138.98,-78.905,246.9,191.54
24835.0,-133.98,-78.905,246.9,190.54
24845.0,-132.98,-74.905,245.9,190.54
24855.0,-131.98,-73.905,243.9,190.54
24865.0,-132.98,-72.905,238.9,189.54
24875.0,-131.98,-72.905,236.9,188.54
24885.0,-129.98,-71.905,235.9,188.54
24895.0,-127.98,-70.905,233.9,187.54
24905.0,-128.98,-70.905,231.9,186.54
24914.0,-128.98,-70.905,229.9,187.54
24924.0,-129.98,-69.905,227.9,185.54
24934.0,-132.98,-69.905,224.9,184.54
24944.0,-132.98,-70.905,221.9,183.54
24954.0,-134.98,-71.905,221.9,182.54
24964.0,-138.98,-75.905,219.9,182.54
24974.0,-139.98,-75.905,218.9,182.54
24984.0,-140.98,-75.905,216.9,180.54
24994.0,-142.98,-77.905,212.9,180.54
25003.0,-145.98,-78.905,212.9,179.54
25013.0,-148.98,-78.905,210.9,178.54
25023.0,-150.98,-79.905,208.9,179.54
25033.0,-152.98,-80.905,208.9,178.54
25043.0,-152.98,-81.905,205.9,178.54
25053.0,-154.98,-81.905,203.9,177.54
25063.0,-160.98,-84.905,202.9,177.54
25073.0,-160.98,-85.905,199.9,176.54
25083.0,-165.98,-87.905,195.9,177.54
25092.0,-166.98,-87.905,194.9,176.54
25102.0,-169.98,-88.905,191.9,176.54
25112.0,-171.98,-88.905,190.9,176.54
25122.0,-172.98,-88.905,190.9,176.54
25132.0,-175.98,-90.905,188.9,176.54
25142.0,-176.98,-90.905,183.9,175.54
25152.0,-180.98,-90.905,182.9,174.54
25162.0,-183.98,-93.905,180.9,173.54
25171.0,-184.98,-92.905,178.9,173.54
25181.0,-188.98,-95.905,175.9,172.54
25191.0,-191.98,-95.905,173.9,172.54
25201.0,-194.98,-96.905,169.9,170.54
25211.0,-196.98,-98.905,168.9,170.54
25221.0,-198.98,-99.905,167.9,170.54
25231.0,-200.98,-99.905,162.9,169.54
25241.0,-200.98,-99.905,160.9,169.54
25251.0,-208.98,-103.9,161.9,170.54
25260.0,-208.98,-103.9,159.9,169.54
25270.0,-213.98,-106.9,157.9,168.54
25280.0,-213.98,-106.9,155.9,169.54
25290.0,-217.98,-109.9,153.9,168.54
25300.0,-217.98,-109.9,153.9,170.54
25310.0,-209.98,-110.9,153.9,169.54
25320.0,-209.98,-110.9,154.9,170.54
25330.0,-204.98,-107.9,150.9,169.54
25340.0,-204.98,-107.9,144.9,166.54
25349.0,-202.98,-109.9,137.9,162.54
25359.0,-202.98,-109.9,140.9,161.54
25369.0,-199.98,-106.9,151.9,162.54
25379.0,-199.98,-106.9,163.9,165.54
25389.0,-194.98,-106.9,175.9,168.54
25399.0,-192.98,-107.9,184.9,171.54
25409.0,-188.98,-108.9,196.9,174.54
25419.0,-184.98,-108.9,202.9,176.54
25429.0,-184.98,-107.9,202.9,176.54
25438.0,-184.98,-107.9,217.9,180.54
25448.0,-184.98,-109.9,217.9,180.54
25458.0,-183.98,-108.9,226.9,183.54
25468.0,-184.98,-108.9,226.9,183.54
25478.0,-180.98,-105.9,233.9,186.54
25488.0,-179.98,-107.9,233.9,186.54
25498.0,-176.98,-106.9,237.9,185.54
25508.0,-176.98,-106.9,237.9,185.54
25517.0,-178.98,-106.9,240.9,188.54
25527.0,-179.98,-105.9,240.9,188.54
25537.0,-179.98,-105.9,240.9,189.54
25547.0,-181.98,-107.9,240.9,189.54
25557.0,-183.98,-106.9,238.9,186.54
25567.0,-181.98,-105.9,238.9,186.54
25577.0,-180.98,-104.9,236.9,187.54
25587.0,-182.98,-105.9,236.9,187.54
25597.0,-182.98,-106.9,234.9,185.54
25606.0,-182.98,-107.9,230.9,184.54
25616.0,-184.98,-107.9,230.9,184.54
25626.0,-185.98,-108.9,227.9,183.54
25636.0,-187.98,-108.9,227.9,183.54
25646.0,-187.98,-108.9,226.9,182.54
25656.0,-189.98,-107.9,223.9,182.54
25666.0,-192.98,-108.9,220.9,180.54
25676.0,-195.98,-110.9,218.9,180.54
25686.0,-195.98,-109.9,215.9,179.54
25695.0,-199.98,-113.9,217.9,179.54
25705.0,-203.98,-114.9,213.9,179.54
25715.0,-206.98,-115.9,213.9,177.54
25725.0,-208.98,-117.9,211.9,178.54
25735.0,-211.98,-118.9,208.9,176.54
25745.0,-214.98,-120.9,208.9,177.54
25755.0,-218.98,-122.9,204.9,175.54
25765.0,-220.98,-122.9,201.9,174.54
25774.0,-224.98,-124.9,199.9,173.54
25784.0,-226.98,-125.9,196.9,174.54
25794.0,-226.98,-126.9,194.9,172.54
25804.0,-230.98,-125.9,193.9,171.54
25814.0,-231.98,-126.9,189.9,171.54
25824.0,-233.98,-126.9,186.9,170.54
25834.0,-232.98,-126.9,186.9,170.54
25844.0,-229.98,-124.9,184.9,171.54
25854.0,-227.98,-122.9,181.9,169.54
25863.0,-222.98,-120.9,181.9,170.54
25873.0,-218.98,-120.9,179.9,168.54
25883.0,-215.98,-116.9,175.9,167.54
25893.0,-211.98,-115.9,173.9,167.54
25903.0,-207.98,-114.9,171.9,166.54
25913.0,-204.98,-112.9,168.9,165.54
25923.0,-201.98,-111.9,164.9,166.54
25933.0,-197.98,-108.9,164.9,164.54
25943.0,-196.98,-108.9,159.9,163.54
25952.0,-192.98,-107.9,157.9,162.54
25962.0,-191.98,-105.9,154.9,161.54
25972.0,-191.98,-105.9,151.9,160.54
25982.0,-186.98,-102.9,152.9,161.54
25992.0,-186.98,-102.9,148.9,160.54
26002.0,-184.98,-99.905,145.9,159.54
26012.0,-184.98,-99.905,143.9,157.54
26022.0,-183.98,-98.905,137.9,156.54
26032.0,-183.98,-98.905,134.9,155.54
26041.0,-183.98,-97.905,131.9,154.54
26051.0,-183.98,-97.905,131.9,156.54
26061.0,-187.98,-101.9,129.9,152.54
26071.0,-187.98,-101.9,129.9,154.54
26081.0,-177.98,-100.9,127.9,154.54
26091.0,-177.98,-100.9,127.9,155.54
26101.0,-164.98,-89.905,126.9,154.54
26111.0,-164.98,-89.905,121.9,152.54
26120.0,-163.98,-90.905,110.9,147.54
26130.0,-161.98,-89.905,108.9,142.54
26140.0,-160.98,-87.905,117.9,144.54
26150.0,-158.98,-85.905,128.9,146.54
26160.0,-154.98,-84.905,137.9,149.54
26170.0,-151.98,-85.905,149.9,152.54
26180.0,-147.98,-87.905,159.9,154.54
26190.0,-145.98,-87.905,167.9,156.54
26200.0,-145.98,-90.905,174.9,158.54
26209.0,-143.98,-91.905,182.9,159.54
26219.0,-142.98,-94.905,186.9,162.54
26229.0,-144.98,-98.905,193.9,164.54
26239.0,-145.98,-102.9,197.9,165.54
26249.0,-142.98,-102.9,200.9,166.54
26259.0,-143.98,-105.9,204.9,166.54
26269.0,-145.98,-107.9,206.9,167.54
26279.0,-146.98,-109.9,206.9,168.54
26289.0,-147.98,-110.9,211.9,169.54
26298.0,-149.98,-112.9,210.9,169.54
26308.0,-149.98,-113.9,209.9,170.54
26318.0,-151.98,-114.9,207.9,169.54
26328.0,-152.98,-114.9,206.9,167.54
26338.0,-152.98,-115.9,204.9,167.54
26348.0,-156.98,-115.9,201.9,166.54
26358.0,-155.98,-113.9,200.9,167.54
26368.0,-158.98,-113.9,198.9,166.54
26378.0,-158.98,-114.9,200.9,166.54
26387.0,-159.98,-116.9,199.9,166.54
26397.0,-159.98,-117.9,199.9,166.54
26407.0,-161.98,-116.9,197.9,167.54
26417.0,-159.98,-116.9,197.9,167.54
26427.0,-162.98,-114.9,193.9,166.54
26437.0,-162.98,-116.9,193.9,166.54
26447.0,-163.98,-116.9,189.9,164.54
26457.0,-165.98,-114.9,189.9,164.54
26466.0,-163.98,-112.9,187.9,163.54
26476.0,-164.98,-111.9,187.9,163.54
26486.0,-164.98,-112.9,184.9,161.54
26496.0,-165.98,-110.9,184.9,161.54
26506.0,-163.98,-108.9,180.9,160.54
26516.0,-162.98,-107.9,180.9,160.54
26526.0,-164.98,-106.9,175.9,160.54
26536.0,-161.98,-103.9,175.9,160.54
26546.0,-161.98,-101.9,172.9,159.54
26555.0,-158.98,-100.9,172.9,159.54
26565.0,-158.98,-97.905,170.9,159.54
26575.0,-153.98,-93.905,170.9,159.54
26585.0,-152.98,-91.905,168.9,159.54
26595.0,-148.98,-87.905,168.9,159.54
26605.0,-147.98,-85.905,164.9,159.54
26615.0,-146.98,-83.905,162.9,158.54
26625.0,-142.98,-81.905,161.9,158.54
26635.0,-142.98,-79.905,158.9,157.54
26644.0,-140.98,-78.905,159.9,158.54
26654.0,-137.98,-76.905,155.9,157.54
26664.0,-136.98,-73.905,153.9,158.54
26674.0,-134.98,-72.905,152.9,154.54
26684.0,-132.98,-75.905,147.9,154.54
26694.0,-130.98,-75.905,147.9,154.54
26704.0,-130.98,-75.905,144.9,154.54
26714.0,-131.98,-78.905,143.9,154.54
26724.0,-131.98,-78.905,141.9,152.54
26733.0,-129.98,-78.905,140.9,152.54
26743.0,-129.98,-78.905,136.9,153.54
26753.0,-128.98,-72.905,135.9,151.54
26763.0,-128.98,-72.905,130.9,152.54
26773.0,-138.98,-72.905,127.9,150.54
26783.0,-138.98,-72.905,124.9,149.54
26793.0,-148.98,-74.905,121.9,147.54
26803.0,-148.98,-74.905,117.9,147.54
26812.0,-152.98,-75.905,116.9,145.54
26822.0,-152.98,-75.905,113.9,145.54
26832.0,-149.98,-73.905,114.9,146.54
26842.0,-149.98,-73.905,115.9,145.54
26852.0,-149.98,-74.905,116.9,146.54
26862.0,-148.98,-74.905,114.9,148.54
26872.0,-143.98,-73.905,113.9,146.54
26882.0,-139.98,-72.905,113.9,146.54
26892.0,-126.98,-66.905,111.9,147.54
26901.0,-115.98,-59.905,109.9,145.54
26911.0,-110.98,-54.905,105.9,145.54
26921.0,-104.98,-52.905,99.896,142.54
26931.0,-100.98,-51.905,90.896,138.54
26941.0,-99.98,-48.905,93.896,135.54
26951.0,-98.98,-48.905,103.9,137.54
26961.0,-96.98,-48.905,117.9,140.54
26971.0,-95.98,-49.905,128.9,143.54
26981.0,-97.98,-51.905,139.9,148.54
26990.0,-94.98,-53.905,153.9,150.54
27000.0,-91.98,-53.905,163.9,153.54
27010.0,-89.98,-53.905,172.9,155.54
27020.0,-90.98,-54.905,179.9,159.54
27030.0,-91.98,-54.905,186.9,161.54
27040.0,-93.98,-56.905,194.9,165.54
27050.0,-92.98,-57.905,198.9,166.54
27060.0,-94.98,-59.905,201.9,168.54
27070.0,-93.98,-57.905,203.9,169.54
27079.0,-94.98,-57.905,207.9,170.54
27089.0,-92.98,-56.905,208.9,172.54
27099.0,-94.98,-57.905,211.9,173.54
27109.0,-96.98,-59.905,213.9,175.54
27119.0,-96.98,-58.905,213.9,175.54
27129.0,-97.98,-60.905,213.9,176.54
27139.0,-98.98,-60.905,212.9,177.54
27149.0,-99.98,-62.905,213.9,177.54
27158.0,-100.98,-62.905,214.9,178.54
27168.0,-101.98,-62.905,211.9,178.54
27178.0,-103.98,-64.905,213.9,178.54
27188.0,-102.98,-64.905,214.9,180.54
27198.0,-101.98,-63.905,215.9,181.54
27208.0,-104.98,-62.905,218.9,182.54
27218.0,-102.98,-62.905,216.9,183.54
27228.0,-106.98,-64.905,218.9,185.54
27238.0,-107.98,-64.905,218.9,185.54
27247.0,-107.98,-66.905,214.9,183.54
27257.0,-113.98,-65.905,214.9,182.54
27267.0,-111.98,-66.905,212.9,183.54
27277.0,-114.98,-68.905,211.9,183.54
27287.0,-115.98,-68.905,208.9,182.54
27297.0,-117.98,-68.905,208.9,181.54
27307.0,-118.98,-69.905,207.9,181.54
27317.0,-120.98,-68.905,206.9,180.54
27327.0,-123.98,-69.905,204.9,183.54
27336.0,-123.98,-68.905,204.9,182.54
27346.0,-124.98,-69.905,206.9,181.54
27356.0,-125.98,-70.905,203.9,182.54
27366.0,-129.98,-73.905,204.9,181.54
27376.0,-132.98,-73.905,203.9,183.54
27386.0,-134.98,-75.905,202.9,183.54
27396.0,-134.98,-76.905,200.9,182.54
27406.0,-137.98,-75.905,199.9,182.54
27416.0,-140.98,-77.905,199.9,182.54
27425.0,-141.98,-77.905,199.9,182.54
27435.0,-141.98,-77.905,199.9,182.54
27445.0,-146.98,-80.905,199.9,182.54
27455.0,-146.98,-80.905,194.9,181.54
27465.0,-152.98,-81.905,194.9,181.54
27475.0,-152.98,-81.905,188.9,179.54
27485.0,-157.98,-83.905,188.9,179.54
27495.0,-157.98,-83.905,183.9,178.54
27504.0,-161.98,-85.905,183.9,178.54
27514.0,-161.98,-85.905,178.9,176.54
27524.0,-167.98,-87.905,178.9,176.54
27534.0,-167.98,-87.905,175.9,175.54
27544.0,-173.98,-88.905,175.9,175.54
27554.0,-173.98,-88.905,170.9,175.54
27564.0,-176.98,-90.905,170.9,175.54
27574.0,-177.98,-91.905,166.9,175.54
27584.0,-179.98,-90.905,166.9,175.54
27593.0,-179.98,-93.905,161.9,174.54
27603.0,-182.98,-91.905,161.9,174.54
27613.0,-184.98,-94.905,160.9,174.54
27623.0,-187.98,-91.905,159.9,173.54
27633.0,-190.98,-93.905,159.9,174.54
27643.0,-192.98,-93.905,156.9,172.54
27653.0,-186.98,-93.905,157.9,174.54
27663.0,-182.98,-91.905,156.9,176.54
27673.0,-174.98,-87.905,157.9,176.54
27682.0,-172.98,-85.905,155.9,175.54
27692.0,-172.98,-84.905,152.9,174.54
27702.0,-169.98,-82.905,143.9,172.54
27712.0,-164.98,-80.905,140.9,169.54
27722.0,-163.98,-80.905,151.9,171.54
27732.0,-160.98,-80.905,164.9,174.54
27742.0,-158.98,-81.905,176.9,176.54
27752.0,-155.98,-80.905,187.9,179.54
27762.0,-148.98,-78.905,196.9,183.54
27771.0,-143.98,-78.905,205.9,186.54
27781.0,-138.98,-78.905,215.9,190.54
27791.0,-137.98,-77.905,224.9,193.54
27801.0,-134.98,-75.905,230.9,196.54
27811.0,-131.98,-74.905,236.9,197.54
27821.0,-127.98,-74.905,243.9,199.54
27831.0,-125.98,-73.905,247.9,201.54
27841.0,-124.98,-72.905,251.9,203.54
27850.0,-122.98,-72.905,254.9,205.54
27860.0,-122.98,-72.905,256.9,208.54
27870.0,-117.98,-72.905,257.9,209.54
27880.0,-117.98,-71.905,258.9,207.54
27890.0,-113.98,-68.905,259.9,209.54
27900.0,-111.98,-67.905,260.9,210.54
27910.0,-109.98,-66.905,259.9,211.54
27920.0,-108.98,-66.905,257.9,211.54
27930.0,-106.98,-64.905,253.9,210.54
27939.0,-103.98,-63.905,254.9,210.54
27949.0,-99.98,-60.905,255.9,211.54
27959.0,-95.98,-58.905,257.9,212.54
27969.0,-96.98,-57.905,258.9,213.54
27979.0,-92.98,-56.905,257.9,215.54
27989.0,-90.98,-55.905,256.9,215.54
27999.0,-88.98,-54.905,257.9,214.54
28009.0,-87.98,-52.905,255.9,214.54
28019.0,-86.98,-52.905,253.9,214.54
28028.0,-86.98,-50.905,252.9,215.54
28038.0,-87.98,-49.905,251.9,214.54
28048.0,-84.98,-48.905,251.9,215.54
28058.0,-84.98,-49.905,253.9,214.54
28068.0,-84.98,-48.905,252.9,215.54
28078.0,-86.98,-48.905,251.9,215.54
28088.0,-85.98,-48.905,249.9,214.54
28098.0,-87.98,-48.905,250.9,216.54
28108.0,-89.98,-49.905,249.9,216.54
28117.0,-90.98,-49.905,249.9,216.54
28127.0,-93.98,-51.905,248.9,217.54
28137.0,-92.98,-50.905,248.9,217.54
28147.0,-92.98,-50.905,249.9,218.54
28157.0,-93.98,-50.905,247.9,218.54
28167.0,-93.98,-50.905,246.9,218.54
28177.0,-94.98,-50.905,245.9,219.54
28187.0,-94.98,-50.905,241.9,217.54
28196.0,-92.98,-47.905,239.9,216.54
28206.0,-92.98,-47.905,236.9,215.54
28216.0,-95.98,-47.905,232.9,214.54
28226.0,-95.98,-47.905,230.9,213.54
28236.0,-97.98,-46.905,228.9,213.54
28246.0,-97.98,-46.905,226.9,212.54
28256.0,-102.98,-48.905,224.9,211.54
28266.0,-102.98,-48.905,223.9,210.54
28276.0,-102.98,-50.905,220.9,211.54
28285.0,-102.98,-50.905,217.9,209.54
28295.0,-105.98,-51.905,216.9,210.54
28305.0,-110.98,-53.905,214.9,211.54
28315.0,-110.98,-53.905,212.9,209.54
28325.0,-113.98,-56.905,210.9,208.54
28335.0,-118.98,-60.905,205.9,207.54
28345.0,-124.98,-62.905,205.9,206.54
28355.0,-128.98,-65.905,205.9,206.54
28365.0,-135.98,-67.905,203.9,207.54
28374.0,-137.98,-74.905,203.9,207.54
28384.0,-135.98,-73.905,202.9,208.54
28394.0,-126.98,-72.905,202.9,208.54
28404.0,-129.98,-72.905,194.9,204.54
28414.0,-127.98,-73.905,194.9,204.54
28424.0,-124.98,-71.905,184.9,200.54
28434.0,-119.98,-71.905,184.9,200.54
28444.0,-114.98,-69.905,196.9,199.54
28454.0,-111.98,-68.905,196.9,199.54
28463.0,-112.98,-71.905,214.9,203.54
28473.0,-109.98,-72.905,214.9,203.54
28483.0,-103.98,-73.905,234.9,209.54
28493.0,-100.98,-75.905,234.9,209.54
28503.0,-97.98,-75.905,252.9,215.54
28513.0,-94.98,-75.905,252.9,215.54
28523.0,-89.98,-73.905,267.9,219.54
28533.0,-88.98,-75.905,267.9,219.54
28542.0,-87.98,-74.905,274.9,222.54
28552.0,-83.98,-72.905,274.9,222.54
28562.0,-77.98,-71.905,278.9,222.54
28572.0,-75.98,-68.905,283.9,224.54
28582.0,-70.98,-69.905,284.9,226.54
28592.0,-71.98,-70.905,284.9,226.54
28602.0,-69.98,-69.905,285.9,227.54
28612.0,-70.98,-69.905,284.9,225.54
28622.0,-66.98,-68.905,282.9,225.54
28631.0,-63.98,-67.905,284.9,226.54
28641.0,-61.98,-68.905,284.9,226.54
28651.0,-61.98,-67.905,281.9,226.54
28661.0,-62.98,-68.905,281.9,225.54
28671.0,-63.98,-66.905,279.9,226.54
28681.0,-57.98,-66.905,280.9,227.54
28691.0,-57.98,-66.905,282.9,227.54
28701.0,-56.98,-65.905,279.9,227.54
28711.0,-56.98,-64.905,278.9,227.54
28720.0,-55.98,-66.905,276.9,228.54
28730.0,-55.98,-63.905,275.9,227.54
28740.0,-55.98,-61.905,272.9,226.54
28750.0,-53.98,-64.905,272.9,225.54
28760.0,-59.98,-65.905,269.9,224.54
28770.0,-58.98,-66.905,268.9,224.54
28780.0,-58.98,-64.905,266.9,223.54
28790.0,-59.98,-62.905,265.9,224.54
28800.0,-60.98,-65.905,264.9,223.54
28809.0,-61.98,-64.905,264.9,223.54
28819.0,-63.98,-65.905,263.9,223.54
28829.0,-64.98,-66.905,263.9,223.54
28839.0,-66.98,-67.905,264.9,224.54
28849.0,-68.98,-67.905,262.9,223.54
28859.0,-69.98,-68.905,260.9,223.54
28869.0,-72.98,-71.905,256.9,222.54
28879.0,-72.98,-71.905,255.9,222.54
28888.0,-75.98,-75.905,251.9,222.54
28898.0,-75.98,-75.905,248.9,219.54
28908.0,-82.98,-80.905,246.9,220.54
28918.0,-82.98,-80.905,242.9,219.54
28928.0,-90.98,-88.905,240.9,219.54
28938.0,-90.98,-88.905,240.9,218.54
28948.0,-98.98,-95.905,236.9,217.54
28958.0,-98.98,-95.905,233.9,217.54
28968.0,-104.98,-103.9,230.9,215.54
28977.0,-104.98,-103.9,226.9,213.54
28987.0,-108.98,-106.9,223.9,213.54
28997.0,-108.98,-106.9,219.9,210.54
29007.0,-115.98,-112.9,216.9,209.54
29017.0,-115.98,-112.9,212.9,210.54
29027.0,-117.98,-115.9,210.9,208.54
29037.0,-121.98,-118.9,209.9,208.54
29047.0,-127.98,-120.9,208.9,208.54
29057.0,-134.98,-126.9,206.9,208.54
29066.0,-136.98,-126.9,206.9,207.54
29076.0,-135.98,-129.9,203.9,206.54
29086.0,-130.98,-128.9,200.9,206.54
29096.0,-122.98,-123.9,198.9,206.54
29106.0,-119.98,-122.9,192.9,202.54
29116.0,-114.98,-122.9,184.9,199.54
29126.0,-109.98,-119.9,175.9,193.54
29136.0,-105.98,-119.9,181.9,194.54
29146.0,-98.98,-116.9,192.9,195.54
29155.0,-90.98,-114.9,202.9,196.54
29165.0,-87.98,-115.9,212.9,198.54
29175.0,-84.98,-116.9,223.9,202.54
29185.0,-77.98,-116.9,229.9,203.54
29195.0,-72.98,-116.9,236.9,205.54
29205.0,-70.98,-115.9,242.9,207.54
29215.0,-67.98,-112.9,249.9,208.54
29225.0,-63.98,-112.9,252.9,209.54
29234.0,-59.98,-111.9,255.9,211.54
29244.0,-55.98,-109.9,257.9,211.54
29254.0,-51.98,-109.9,259.9,211.54
29264.0,-45.98,-107.9,258.9,211.54
29274.0,-43.98,-106.9,261.9,211.54
29284.0,-42.98,-106.9,263.9,212.54
29294.0,-41.98,-106.9,265.9,212.54
29304.0,-40.98,-107.9,265.9,212.54
29314.0,-38.98,-106.9,264.9,211.54
29323.0,-39.98,-111.9,265.9,213.54
29333.0,-40.98,-108.9,263.9,211.54
29343.0,-37.98,-107.9,263.9,211.54
29353.0,-35.98,-106.9,258.9,208.54
29363.0,-33.98,-107.9,258.9,208.54
29373.0,-32.98,-104.9,253.9,207.54
29383.0,-34.98,-105.9,253.9,207.54
29393.0,-33.98,-106.9,247.9,206.54
29403.0,-32.98,-107.9,247.9,206.54
29412.0,-34.98,-107.9,243.9,205.54
29422.0,-38.98,-107.9,243.9,205.54
29432.0,-39.98,-109.9,238.9,203.54
29442.0,-39.98,-109.9,238.9,203.54
29452.0,-42.98,-109.9,235.9,202.54
29462.0,-43.98,-111.9,235.9,202.54
29472.0,-45.98,-110.9,231.9,199.54
29482.0,-49.98,-112.9,231.9,199.54
29492.0,-51.98,-112.9,227.9,199.54
29501.0,-51.98,-112.9,227.9,199.54
29511.0,-55.98,-113.9,222.9,198.54
29521.0,-56.98,-113.9,222.9,198.54
29531.0,-59.98,-117.9,222.9,196.54
29541.0,-63.98,-118.9,219.9,196.54
29551.0,-70.98,-122.9,218.9,196.54
29561.0,-74.98,-122.9,216.9,196.54
29571.0,-75.98,-123.9,215.9,194.54
29580.0,-83.98,-125.9,212.9,194.54
29590.0,-86.98,-128.9,209.9,194.54
29600.0,-90.98,-130.9,205.9,193.54
29610.0,-90.98,-130.9,206.9,194.54
29620.0,-99.98,-134.9,204.9,194.54
29630.0,-99.98,-134.9,202.9,193.54
29640.0,-106.98,-138.9,200.9,193.54
29650.0,-106.98,-138.9,198.9,193.54
29660.0,-115.98,-141.9,198.9,193.54
29669.0,-115.98,-141.9,196.9,193.54
29679.0,-120.98,-143.9,195.9,192.54
29689.0,-120.98,-143.9,191.9,192.54
29699.0,-126.98,-145.9,189.9,191.54
29709.0,-126.98,-145.9,186.9,189.54
29719.0,-133.98,-148.9,183.9,189.54
29729.0,-133.98,-148.9,180.9,188.54
29739.0,-140.98,-152.9,178.9,188.54
29749.0,-140.98,-152.9,176.9,187.54
29758.0,-145.98,-154.9,176.9,187.54
29768.0,-150.98,-158.9,172.9,185.54
29778.0,-151.98,-160.9,173.9,187.54
29788.0,-150.98,-158.9,171.9,186.54
29798.0,-141.98,-157.9,171.9,186.54
29808.0,-134.98,-152.9,171.9,187.54
29818.0,-129.98,-149.9,169.9,187.54
29828.0,-123.98,-148.9,162.9,184.54
29838.0,-121.98,-148.9,155.9,180.54
29847.0,-116.98,-146.9,161.9,178.54
29857.0,-113.98,-145.9,170.9,181.54
29867.0,-110.98,-146.9,183.9,184.54
29877.0,-104.98,-144.9,193.9,187.54
29887.0,-101.98,-144.9,202.9,190.54
29897.0,-95.98,-143.9,211.9,193.54
29907.0,-94.98,-146.9,221.9,196.54
29917.0,-93.98,-146.9,229.9,197.54
29926.0,-94.98,-144.9,232.9,199.54
29936.0,-92.98,-145.9,242.9,201.54
29946.0,-91.98,-145.9,244.9,202.54
29956.0,-89.98,-144.9,244.9,201.54
29966.0,-85.98,-144.9,246.9,201.54
29976.0,-84.98,-144.9,249.9,200.54
29986.0,-79.98,-142.9,252.9,201.54
29996.0,-76.98,-143.9,254.9,201.54
