t,carotid_880nm,carotid_660nm,brachial_880nm,brachial_660nm
2.5,-153.39,-3.3155,-28.028,-6.7615
12.3,-158.39,-4.3155,-30.028,-8.7615
22.2,-159.39,-4.3155,-29.028,-8.7615
32.1,-162.39,-5.3155,-29.028,-6.7615
42.0,-166.39,-6.3155,-29.028,-8.7615
51.9,-169.39,-5.3155,-28.028,-8.7615
61.8,-172.39,-7.3155,-31.028,-7.7615
71.7,-175.39,-7.3155,-31.028,-7.7615
81.5,-178.39,-6.3155,-32.028,-9.7615
91.4,-181.39,-8.3155,-31.028,-8.7615
101.3,-186.39,-7.3155,-32.028,-9.7615
111.2,-190.39,-9.3155,-33.028,-12.761
121.1,-196.39,-10.315,-36.028,-10.761
131.0,-202.39,-11.315,-35.028,-8.7615
140.9,-207.39,-10.315,-35.028,-10.761
150.7,-215.39,-12.315,-35.028,-9.7615
160.6,-224.39,-13.315,-38.028,-10.761
170.5,-228.39,-14.315,-38.028,-9.7615
180.4,-228.39,-12.315,-37.028,-8.7615
190.3,-223.39,-9.3155,-38.028,-9.7615
200.2,-212.39,-8.3155,-35.028,-6.7615
210.1,-197.39,-7.3155,-35.028,-6.7615
219.9,-176.39,-3.3155,-35.028,-8.7615
229.8,-154.39,0.68451,-26.028,-5.7615
239.7,-131.39,3.6845,-17.028,-4.7615
249.6,-111.39,9.6845,-5.0277,-1.7615
259.5,-91.385,12.685,3.9723,1.2385
269.4,-74.385,14.685,13.972,3.2385
279.3,-61.385,19.685,19.972,4.2385
289.1,-49.385,21.685,23.972,4.2385
299.0,-41.385,22.685,25.972,5.2385
308.9,-34.385,23.685,23.972,5.2385
318.8,-30.385,25.685,24.972,5.2385
328.7,-27.385,24.685,20.972,3.2385
338.6,-23.385,25.685,21.972,2.2385
348.5,-21.385,27.685,16.972,0.23852
358.3,-18.385,28.685,16.972,-1.7615
368.2,-18.385,28.685,11.972,0.23852
378.1,-15.385,29.685,9.9723,-1.7615
388.0,-15.385,29.685,9.9723,-2.7615
397.9,-23.385,26.685,4.9723,-3.7615
407.8,-23.385,26.685,1.9723,-4.7615
417.7,-26.385,27.685,-3.0277,-5.7615
427.5,-26.385,27.685,-5.0277,-5.7615
437.4,-27.385,27.685,-7.0277,-5.7615
447.3,-27.385,27.685,-10.028,-7.7615
457.2,-23.385,29.685,-13.028,-7.7615
467.1,-23.385,29.685,-14.028,-9.7615
477.0,-19.385,29.685,-17.028,-8.7615
486.9,-19.385,29.685,-15.028,-9.7615
496.7,-14.385,30.685,-16.028,-7.7615
506.6,-14.385,30.685,-15.028,-6.7615
516.5,-12.385,31.685,-13.028,-7.7615
526.4,-9.385,31.685,-12.028,-7.7615
536.3,-8.385,31.685,-9.0277,-6.7615
546.2,-10.385,31.685,-8.0277,-7.7615
556.1,-11.385,30.685,-10.028,-7.7615
565.9,-11.385,29.685,-9.0277,-8.7615
575.8,-13.385,29.685,-8.0277,-6.7615
585.7,-13.385,30.685,-10.028,-8.7615
595.6,-15.385,28.685,-13.028,-9.7615
605.5,-18.385,27.685,-14.028,-9.7615
615.4,-22.385,26.685,-13.028,-11.761
625.3,-25.385,27.685,-13.028,-11.761
635.1,-27.385,26.685,-13.028,-11.761
645.0,-29.385,26.685,-17.028,-10.761
654.9,-31.385,25.685,-17.028,-10.761
664.8,-34.385,25.685,-19.028,-11.761
674.7,-37.385,24.685,-19.028,-11.761
684.6,-40.385,22.685,-18.028,-9.7615
694.5,-43.385,22.685,-18.028,-9.7615
704.3,-42.385,23.685,-19.028,-12.761
714.2,-46.385,22.685,-19.028,-12.761
724.1,-47.385,22.685,-23.028,-11.761
734.0,-51.385,21.685,-23.028,-11.761
743.9,-52.385,20.685,-23.028,-10.761
753.8,-55.385,21.685,-23.028,-10.761
763.7,-57.385,20.685,-27.028,-10.761
773.5,-58.385,21.685,-27.028,-10.761
783.4,-63.385,19.685,-25.028,-8.7615
793.3,-65.385,18.685,-25.028,-8.7615
803.2,-69.385,17.685,-28.028,-10.761
813.1,-71.385,17.685,-28.028,-10.761
823.0,-75.385,15.685,-29.028,-8.7615
832.9,-79.385,15.685,-29.028,-8.7615
842.7,-83.385,13.685,-28.028,-7.7615
852.6,-87.385,14.685,-28.028,-7.7615
862.5,-90.385,13.685,-28.028,-7.7615
872.4,-94.385,12.685,-31.028,-10.761
882.3,-97.385,11.685,-31.028,-10.761
892.2,-101.39,10.685,-32.028,-11.761
902.1,-105.39,10.685,-33.028,-10.761
911.9,-107.39,10.685,-34.028,-10.761
921.8,-110.39,8.6845,-32.028,-10.761
931.7,-115.39,8.6845,-33.028,-10.761
941.6,-119.39,8.6845,-32.028,-9.7615
951.5,-120.39,7.6845,-32.028,-9.7615
961.4,-125.39,6.6845,-32.028,-10.761
971.3,-128.39,5.6845,-33.028,-10.761
981.1,-132.39,6.6845,-32.028,-10.761
991.0,-137.39,3.6845,-34.028,-9.7615
1000.9,-140.39,3.6845,-34.028,-8.7615
1010.8,-143.39,2.6845,-35.028,-9.7615
1020.7,-148.39,2.6845,-34.028,-9.7615
1030.6,-154.39,1.6845,-35.028,-10.761
1040.5,-158.39,0.68451,-37.028,-11.761
1050.3,-166.39,-0.31549,-37.028,-12.761
1060.2,-170.39,-1.3155,-39.028,-11.761
1070.1,-178.39,-2.3155,-40.028,-11.761
1080.0,-186.39,-2.3155,-39.028,-12.761
1089.9,-190.39,-1.3155,-36.028,-10.761
1099.8,-190.39,-1.3155,-36.028,-9.7615
1109.7,-186.39,2.6845,-36.028,-9.7615
1119.5,-186.39,2.6845,-37.028,-9.7615
1129.4,-161.39,3.6845,-37.028,-7.7615
1139.3,-161.39,3.6845,-36.028,-7.7615
1149.2,-121.39,10.685,-32.028,-6.7615
1159.1,-121.39,10.685,-22.028,-4.7615
1169.0,-77.385,18.685,-11.028,-2.7615
1178.9,-77.385,18.685,-1.0277,0.23852
1188.7,-45.385,25.685,6.9723,1.2385
1198.6,-45.385,25.685,14.972,2.2385
1208.5,-24.385,28.685,17.972,4.2385
1218.4,-24.385,28.685,21.972,5.2385
1228.3,-13.385,31.685,23.972,4.2385
1238.2,-13.385,31.685,20.972,3.2385
1248.1,-9.385,32.685,19.972,3.2385
1257.9,-6.385,32.685,15.972,1.2385
1267.8,-3.385,32.685,14.972,2.2385
1277.7,-3.385,32.685,12.972,0.23852
1287.6,-1.385,33.685,7.9723,-2.7615
1297.5,0.61497,33.685,1.9723,-2.7615
1307.4,-3.385,32.685,4.9723,-2.7615
1317.3,-6.385,32.685,1.9723,-3.7615
1327.1,-10.385,32.685,0.97232,-3.7615
1337.0,-13.385,31.685,-5.0277,-2.7615
1346.9,-14.385,31.685,-6.0277,-4.7615
1356.8,-13.385,32.685,-12.028,-5.7615
1366.7,-15.385,32.685,-13.028,-5.7615
1376.6,-15.385,31.685,-15.028,-5.7615
1386.5,-14.385,32.685,-17.028,-6.7615
1396.3,-10.385,32.685,-18.028,-6.7615
1406.2,-7.385,33.685,-16.028,-6.7615
1416.1,-1.385,34.685,-17.028,-6.7615
1426.0,0.61497,35.685,-16.028,-4.7615
1435.9,3.615,34.685,-14.028,-3.7615
1445.8,6.615,36.685,-11.028,-1.7615
1455.7,6.615,34.685,-10.028,-2.7615
1465.5,6.615,34.685,-8.0277,-0.76148
1475.4,7.615,34.685,-8.0277,-1.7615
1485.3,6.615,34.685,-10.028,-1.7615
1495.2,5.615,33.685,-7.0277,-2.7615
1505.1,4.615,34.685,-9.0277,-0.76148
1515.0,3.615,34.685,-11.028,-2.7615
1524.9,0.61497,33.685,-12.028,-4.7615
1534.7,-1.385,33.685,-12.028,-3.7615
1544.6,-4.385,33.685,-15.028,-3.7615
1554.5,-5.385,33.685,-16.028,-5.7615
1564.4,-8.385,32.685,-17.028,-5.7615
1574.3,-12.385,32.685,-17.028,-4.7615
1584.2,-14.385,31.685,-16.028,-4.7615
1594.1,-16.385,30.685,-17.028,-5.7615
1603.9,-21.385,30.685,-14.028,-3.7615
1613.8,-24.385,29.685,-19.028,-5.7615
1623.7,-27.385,28.685,-20.028,-6.7615
1633.6,-28.385,28.685,-22.028,-7.7615
1643.5,-32.385,27.685,-21.028,-5.7615
1653.4,-35.385,26.685,-22.028,-5.7615
1663.3,-37.385,26.685,-26.028,-6.7615
1673.1,-41.385,26.685,-28.028,-6.7615
1683.0,-45.385,24.685,-27.028,-5.7615
1692.9,-49.385,24.685,-28.028,-7.7615
1702.8,-54.385,22.685,-28.028,-7.7615
1712.7,-57.385,22.685,-28.028,-4.7615
1722.6,-61.385,20.685,-28.028,-4.7615
1732.5,-64.385,21.685,-27.028,-4.7615
1742.3,-70.385,18.685,-27.028,-4.7615
1752.2,-73.385,17.685,-30.028,-4.7615
1762.1,-77.385,15.685,-30.028,-4.7615
1772.0,-80.385,15.685,-30.028,-2.7615
1781.9,-83.385,14.685,-30.028,-2.7615
1791.8,-88.385,14.685,-29.028,-2.7615
1801.7,-90.385,13.685,-29.028,-2.7615
1811.5,-93.385,12.685,-28.028,-0.76148
1821.4,-96.385,12.685,-28.028,-0.76148
1831.3,-96.385,12.685,-31.028,-0.76148
1841.2,-101.39,10.685,-31.028,-0.76148
1851.1,-101.39,10.685,-28.028,-1.7615
1861.0,-105.39,11.685,-28.028,-1.7615
1870.9,-105.39,11.685,-27.028,-1.7615
1880.7,-112.39,10.685,-27.028,-1.7615
1890.6,-112.39,10.685,-31.028,-2.7615
1900.5,-117.39,9.6845,-31.028,-2.7615
1910.4,-117.39,9.6845,-29.028,-1.7615
1920.3,-125.39,8.6845,-29.028,-1.7615
1930.2,-125.39,8.6845,-28.028,-0.76148
1940.1,-133.39,6.6845,-31.028,-0.76148
1949.9,-133.39,6.6845,-29.028,-1.7615
1959.8,-144.39,4.6845,-31.028,-2.7615
1969.7,-144.39,4.6845,-32.028,-3.7615
1979.6,-151.39,3.6845,-29.028,-2.7615
1989.5,-156.39,2.6845,-29.028,0.23852
1999.4,-160.39,4.6845,-27.028,1.2385
2009.3,-155.39,6.6845,-29.028,1.2385
2019.1,-148.39,9.6845,-28.028,0.23852
2029.0,-136.39,9.6845,-30.028,0.23852
2038.9,-120.39,12.685,-29.028,0.23852
2048.8,-101.39,15.685,-24.028,1.2385
2058.7,-81.385,20.685,-14.028,6.2385
2068.6,-59.385,23.685,-0.027681,9.2385
2078.5,-41.385,27.685,9.9723,11.239
2088.3,-25.385,29.685,17.972,13.239
2098.2,-12.385,31.685,23.972,12.239
2108.1,-2.385,35.685,25.972,12.239
2118.0,6.615,37.685,27.972,13.239
2127.9,12.615,38.685,27.972,13.239
2137.8,17.615,40.685,26.972,11.239
2147.7,21.615,40.685,24.972,13.239
2157.5,24.615,42.685,23.972,11.239
2167.4,26.615,42.685,21.972,9.2385
2177.3,28.615,42.685,18.972,8.2385
2187.2,29.615,43.685,16.972,8.2385
2197.1,28.615,40.685,15.972,8.2385
2207.0,24.615,40.685,12.972,8.2385
2216.9,21.615,40.685,8.9723,6.2385
2226.7,19.615,40.685,5.9723,5.2385
2236.6,18.615,40.685,-0.027681,5.2385
2246.5,16.615,40.685,-1.0277,2.2385
2256.4,17.615,41.685,-5.0277,2.2385
2266.3,19.615,42.685,-7.0277,2.2385
2276.2,20.615,42.685,-9.0277,1.2385
2286.1,23.615,41.685,-11.028,2.2385
2295.9,26.615,43.685,-11.028,0.23852
2305.8,30.615,45.685,-8.0277,3.2385
2315.7,32.615,44.685,-8.0277,3.2385
2325.6,35.615,44.685,-3.0277,5.2385
2335.5,37.615,45.685,-3.0277,4.2385
2345.4,40.615,44.685,-1.0277,5.2385
2355.3,38.615,44.685,1.9723,5.2385
2365.1,40.615,44.685,1.9723,6.2385
2375.0,36.615,43.685,0.97232,4.2385
2384.9,35.615,43.685,0.97232,6.2385
2394.8,34.615,42.685,-0.027681,3.2385
2404.7,31.615,42.685,-0.027681,4.2385
2414.6,29.615,42.685,1.9723,5.2385
2424.4,27.615,41.685,-2.0277,3.2385
2434.3,26.615,41.685,-2.0277,3.2385
2444.2,24.615,41.685,-3.0277,3.2385
2454.1,23.615,40.685,-2.0277,1.2385
2464.0,22.615,40.685,-7.0277,1.2385
2473.9,21.615,40.685,-7.0277,2.2385
2483.8,21.615,41.685,-5.0277,2.2385
2493.7,21.615,41.685,-8.0277,2.2385
2503.5,18.615,39.685,-8.0277,2.2385
2513.4,16.615,40.685,-7.0277,0.23852
2523.3,16.615,40.685,-9.0277,1.2385
2533.2,15.615,40.685,-12.028,3.2385
2543.1,12.615,39.685,-12.028,0.23852
2553.0,10.615,39.685,-12.028,4.2385
2562.8,10.615,39.685,-11.028,1.2385
2572.7,9.615,38.685,-12.028,2.2385
2582.6,9.615,38.685,-12.028,2.2385
2592.5,4.615,37.685,-13.028,1.2385
2602.4,4.615,37.685,-15.028,2.2385
2612.3,0.61497,36.685,-15.028,1.2385
2622.2,0.61497,36.685,-16.028,3.2385
2632.0,-6.385,34.685,-17.028,1.2385
2641.9,-6.385,34.685,-15.028,1.2385
2651.8,-10.385,34.685,-16.028,1.2385
2661.7,-10.385,34.685,-20.028,1.2385
2671.6,-19.385,32.685,-17.028,2.2385
2681.5,-19.385,32.685,-17.028,1.2385
2691.4,-25.385,32.685,-18.028,1.2385
2701.2,-25.385,32.685,-16.028,1.2385
2711.1,-28.385,30.685,-17.028,0.23852
2721.0,-31.385,29.685,-18.028,-0.76148
2730.9,-36.385,29.685,-19.028,1.2385
2740.8,-37.385,28.685,-20.028,-0.76148
2750.7,-41.385,27.685,-20.028,-0.76148
2760.6,-45.385,28.685,-20.028,-0.76148
2770.4,-48.385,27.685,-20.028,-0.76148
2780.3,-51.385,26.685,-21.028,1.2385
2790.2,-53.385,26.685,-21.028,1.2385
2800.1,-57.385,25.685,-19.028,2.2385
2810.0,-60.385,24.685,-19.028,2.2385
2819.9,-65.385,24.685,-22.028,-0.76148
2829.8,-70.385,23.685,-22.028,-0.76148
2839.6,-74.385,21.685,-22.028,-0.76148
2849.5,-77.385,21.685,-22.028,-0.76148
2859.4,-84.385,20.685,-24.028,-0.76148
2869.3,-91.385,19.685,-24.028,-0.76148
2879.2,-93.385,21.685,-23.028,0.23852
2889.1,-89.385,23.685,-23.028,0.23852
2899.0,-80.385,25.685,-21.028,3.2385
2908.8,-67.385,26.685,-21.028,3.2385
2918.7,-49.385,29.685,-21.028,3.2385
2928.6,-29.385,33.685,-16.028,4.2385
2938.5,-8.385,37.685,-11.028,4.2385
2948.4,12.615,41.685,2.9723,8.2385
2958.3,30.615,43.685,14.972,11.239
2968.2,48.615,48.685,22.972,11.239
2978.0,62.615,51.685,30.972,15.239
2987.9,74.615,52.685,35.972,14.239
2997.8,84.615,56.685,39.972,17.239
3007.7,93.615,56.685,43.972,15.239
3017.6,99.615,57.685,41.972,16.239
3027.5,103.61,59.685,42.972,15.239
3037.4,109.61,60.685,38.972,15.239
3047.2,111.61,60.685,36.972,14.239
3057.1,115.61,62.685,35.972,15.239
3067.0,116.61,63.685,33.972,13.239
3076.9,121.61,64.685,30.972,12.239
3086.8,115.61,62.685,31.972,11.239
3096.7,112.61,60.685,25.972,11.239
3106.6,109.61,60.685,17.972,8.2385
3116.4,108.61,60.685,16.972,8.2385
3126.3,107.61,61.685,15.972,9.2385
3136.2,108.61,60.685,12.972,8.2385
3146.1,107.61,61.685,9.9723,7.2385
3156.0,109.61,62.685,8.9723,9.2385
3165.9,112.61,62.685,9.9723,8.2385
3175.8,114.61,62.685,8.9723,9.2385
3185.6,118.61,62.685,7.9723,9.2385
3195.5,120.61,63.685,6.9723,7.2385
3205.4,121.61,63.685,9.9723,9.2385
3215.3,123.61,64.685,9.9723,10.239
3225.2,125.61,65.685,11.972,11.239
3235.1,125.61,64.685,12.972,10.239
3245.0,125.61,64.685,16.972,11.239
3254.8,125.61,64.685,14.972,10.239
3264.7,124.61,63.685,15.972,11.239
3274.6,124.61,64.685,17.972,12.239
3284.5,121.61,63.685,16.972,11.239
3294.4,121.61,63.685,13.972,11.239
3304.3,119.61,62.685,11.972,9.2385
3314.2,119.61,62.685,9.9723,7.2385
3324.0,112.61,60.685,9.9723,8.2385
3333.9,112.61,60.685,8.9723,8.2385
3343.8,108.61,60.685,6.9723,7.2385
3353.7,108.61,60.685,6.9723,8.2385
3363.6,103.61,58.685,5.9723,6.2385
3373.5,103.61,58.685,4.9723,7.2385
3383.4,96.615,57.685,4.9723,6.2385
3393.2,96.615,57.685,2.9723,7.2385
3403.1,92.615,55.685,2.9723,6.2385
3413.0,92.615,55.685,0.97232,6.2385
3422.9,88.615,55.685,-0.027681,7.2385
3432.8,88.615,55.685,-0.027681,9.2385
3442.7,87.615,54.685,-1.0277,8.2385
3452.6,83.615,54.685,-3.0277,7.2385
3462.4,81.615,53.685,-3.0277,7.2385
3472.3,77.615,52.685,-4.0277,7.2385
3482.2,74.615,52.685,-3.0277,8.2385
3492.1,70.615,51.685,-3.0277,10.239
3502.0,69.615,51.685,-3.0277,9.2385
3511.9,64.615,50.685,-3.0277,10.239
3521.8,62.615,49.685,-2.0277,8.2385
3531.6,59.615,48.685,-7.0277,9.2385
3541.5,56.615,47.685,-7.0277,7.2385
3551.4,52.615,47.685,-6.0277,8.2385
3561.3,48.615,45.685,-9.0277,6.2385
3571.2,46.615,45.685,-9.0277,8.2385
3581.1,42.615,44.685,-10.028,6.2385
3591.0,37.615,42.685,-11.028,6.2385
3600.8,34.615,41.685,-10.028,5.2385
3610.7,31.615,41.685,-12.028,5.2385
3620.6,29.615,41.685,-11.028,4.2385
3630.5,23.615,40.685,-13.028,6.2385
3640.4,21.615,39.685,-11.028,5.2385
3650.3,18.615,39.685,-12.028,6.2385
3660.2,15.615,38.685,-14.028,5.2385
3670.0,14.615,38.685,-14.028,4.2385
3679.9,8.615,37.685,-15.028,5.2385
3689.8,8.615,36.685,-14.028,5.2385
3699.7,7.615,37.685,-15.028,6.2385
3709.6,4.615,34.685,-15.028,5.2385
3719.5,3.615,36.685,-16.028,4.2385
3729.4,-1.385,35.685,-15.028,5.2385
3739.2,-1.385,35.685,-18.028,4.2385
3749.1,-6.385,33.685,-19.028,5.2385
3759.0,-12.385,33.685,-20.028,3.2385
3768.9,-16.385,32.685,-21.028,3.2385
3778.8,-21.385,31.685,-21.028,3.2385
3788.7,-28.385,30.685,-23.028,4.2385
3798.6,-35.385,29.685,-23.028,4.2385
3808.4,-41.385,29.685,-22.028,4.2385
3818.3,-42.385,29.685,-22.028,4.2385
3828.2,-36.385,30.685,-18.028,6.2385
3838.1,-27.385,32.685,-18.028,6.2385
3848.0,-13.385,35.685,-22.028,6.2385
3857.9,4.615,36.685,-22.028,6.2385
3867.8,26.615,40.685,-9.0277,9.2385
3877.6,46.615,45.685,-9.0277,9.2385
3887.5,66.615,49.685,12.972,13.239
3897.4,85.615,51.685,12.972,13.239
3907.3,101.61,55.685,30.972,16.239
3917.2,113.61,57.685,30.972,16.239
3927.1,124.61,61.685,35.972,18.239
3937.0,131.61,63.685,35.972,18.239
3946.8,141.61,64.685,36.972,16.239
3956.7,146.61,65.685,36.972,16.239
3966.6,151.61,66.685,32.972,16.239
3976.5,157.61,66.685,32.972,16.239
3986.4,159.61,66.685,28.972,13.239
3996.3,164.61,68.685,28.972,13.239
4006.2,168.61,68.685,23.972,10.239
4016.0,171.61,69.685,23.972,10.239
4025.9,171.61,69.685,18.972,10.239
4035.8,165.61,67.685,15.972,6.2385
4045.7,165.61,67.685,11.972,8.2385
4055.6,165.61,69.685,11.972,7.2385
4065.5,165.61,69.685,7.9723,7.2385
4075.4,166.61,68.685,3.9723,5.2385
4085.2,166.61,68.685,-1.0277,5.2385
4095.1,165.61,68.685,-5.0277,5.2385
4105.0,165.61,68.685,-6.0277,5.2385
4114.9,172.61,68.685,-6.0277,4.2385
4124.8,172.61,68.685,-6.0277,5.2385
4134.7,176.61,69.685,-4.0277,6.2385
4144.6,176.61,69.685,-5.0277,6.2385
4154.4,181.61,70.685,-4.0277,5.2385
4164.3,181.61,70.685,-3.0277,4.2385
4174.2,183.61,70.685,-2.0277,5.2385
4184.1,183.61,70.685,-0.027681,6.2385
4194.0,182.61,69.685,0.97232,6.2385
4203.9,180.61,68.685,1.9723,6.2385
4213.8,179.61,68.685,0.97232,5.2385
4223.6,175.61,67.685,-2.0277,4.2385
4233.5,171.61,66.685,-4.0277,3.2385
4243.4,169.61,65.685,-3.0277,2.2385
4253.3,166.61,64.685,-6.0277,2.2385
4263.2,163.61,63.685,-4.0277,1.2385
4273.1,159.61,62.685,-4.0277,4.2385
4283.0,155.61,62.685,-4.0277,2.2385
4292.8,154.61,61.685,-6.0277,2.2385
4302.7,151.61,59.685,-11.028,1.2385
4312.6,147.61,60.685,-11.028,0.23852
4322.5,146.61,58.685,-13.028,0.23852
4332.4,143.61,58.685,-13.028,0.23852
4342.3,141.61,56.685,-16.028,0.23852
4352.2,137.61,57.685,-16.028,1.2385
4362.0,134.61,54.685,-17.028,-0.76148
4371.9,131.61,54.685,-19.028,1.2385
4381.8,128.61,54.685,-17.028,0.23852
4391.7,125.61,54.685,-20.028,1.2385
4401.6,124.61,51.685,-23.028,1.2385
4411.5,120.61,52.685,-20.028,1.2385
4421.4,119.61,50.685,-21.028,1.2385
4431.2,115.61,51.685,-23.028,2.2385
4441.1,112.61,48.685,-24.028,2.2385
4451.0,108.61,49.685,-22.028,0.23852
4460.9,104.61,48.685,-23.028,1.2385
4470.8,101.61,46.685,-26.028,0.23852
4480.7,98.615,45.685,-26.028,-0.76148
4490.6,96.615,45.685,-28.028,-0.76148
4500.4,91.615,44.685,-26.028,1.2385
4510.3,87.615,43.685,-26.028,1.2385
4520.2,84.615,43.685,-25.028,0.23852
4530.1,81.615,43.685,-27.028,1.2385
4540.0,76.615,41.685,-29.028,-2.7615
4549.9,73.615,39.685,-31.028,-1.7615
4559.8,70.615,40.685,-31.028,-1.7615
4569.6,65.615,39.685,-33.028,-0.76148
4579.5,62.615,39.685,-32.028,-3.7615
4589.4,58.615,37.685,-34.028,-2.7615
4599.3,54.615,35.685,-36.028,-3.7615
4609.2,49.615,35.685,-37.028,-2.7615
4619.1,45.615,34.685,-38.028,-1.7615
4629.0,40.615,33.685,-35.028,-1.7615
4638.8,37.615,31.685,-37.028,-3.7615
4648.7,34.615,31.685,-39.028,-3.7615
4658.6,27.615,30.685,-38.028,-3.7615
4668.5,24.615,30.685,-40.028,-3.7615
4678.4,19.615,28.685,-42.028,-5.7615
4688.3,15.615,27.685,-40.028,-3.7615
4698.2,13.615,26.685,-43.028,-5.7615
4708.0,9.615,26.685,-43.028,-4.7615
4717.9,4.615,24.685,-44.028,-3.7615
4727.8,-0.38503,24.685,-44.028,-4.7615
4737.7,-3.385,24.685,-43.028,-4.7615
4747.6,-8.385,22.685,-44.028,-3.7615
4757.5,-8.385,22.685,-44.028,-5.7615
4767.4,-20.385,20.685,-48.028,-7.7615
4777.2,-20.385,20.685,-48.028,-5.7615
4787.1,-35.385,18.685,-50.028,-5.7615
4797.0,-35.385,18.685,-51.028,-5.7615
4806.9,-47.385,17.685,-50.028,-4.7615
4816.8,-47.385,17.685,-50.028,-3.7615
4826.7,-38.385,20.685,-51.028,-5.7615
4836.6,-38.385,20.685,-50.028,-4.7615
4846.4,-11.385,25.685,-48.028,-3.7615
4856.3,-11.385,25.685,-45.028,-2.7615
4866.2,31.615,31.685,-45.028,-2.7615
4876.1,31.615,31.685,-29.028,1.2385
4886.0,74.615,40.685,-29.028,1.2385
4895.9,74.615,40.685,-7.0277,6.2385
4905.8,93.615,42.685,-7.0277,6.2385
4915.6,107.61,46.685,5.9723,6.2385
4925.5,120.61,49.685,5.9723,6.2385
4935.4,131.61,50.685,10.972,8.2385
4945.3,139.61,52.685,10.972,8.2385
4955.2,146.61,54.685,6.9723,6.2385
4965.1,152.61,55.685,6.9723,6.2385
4975.0,156.61,56.685,4.9723,5.2385
4984.8,160.61,55.685,4.9723,5.2385
4994.7,163.61,58.685,-4.0277,1.2385
5004.6,166.61,59.685,-4.0277,1.2385
5014.5,170.61,58.685,-9.0277,0.23852
5024.4,168.61,57.685,-9.0277,0.23852
5034.3,165.61,56.685,-12.028,0.23852
5044.2,163.61,57.685,-14.028,-1.7615
5054.0,160.61,57.685,-17.028,-1.7615
5063.9,161.61,56.685,-22.028,-3.7615
5073.8,159.61,56.685,-24.028,-4.7615
5083.7,159.61,56.685,-27.028,-6.7615
5093.6,159.61,55.685,-31.028,-2.7615
5103.5,161.61,55.685,-31.028,-4.7615
5113.4,163.61,56.685,-32.028,-4.7615
5123.2,167.61,57.685,-33.028,-3.7615
5133.1,167.61,55.685,-34.028,-4.7615
5143.0,170.61,56.685,-31.028,-3.7615
5152.9,170.61,55.685,-29.028,-1.7615
5162.8,170.61,55.685,-28.028,-1.7615
5172.7,170.61,55.685,-28.028,-0.76148
5182.6,169.61,55.685,-26.028,-0.76148
5192.4,168.61,54.685,-24.028,-1.7615
5202.3,164.61,53.685,-24.028,-0.76148
5212.2,162.61,52.685,-23.028,-2.7615
5222.1,159.61,51.685,-26.028,-1.7615
5232.0,155.61,50.685,-27.028,-2.7615
5241.9,149.61,50.685,-26.028,-1.7615
5251.7,146.61,47.685,-27.028,-3.7615
5261.6,141.61,47.685,-27.028,-3.7615
5271.5,139.61,46.685,-29.028,-3.7615
5281.4,136.61,45.685,-30.028,-3.7615
5291.3,132.61,45.685,-29.028,-3.7615
5301.2,128.61,44.685,-34.028,-4.7615
5311.1,127.61,43.685,-33.028,-3.7615
5320.9,122.61,42.685,-33.028,-3.7615
5330.8,120.61,41.685,-34.028,-4.7615
5340.7,115.61,40.685,-33.028,-4.7615
5350.6,113.61,38.685,-35.028,-4.7615
5360.5,109.61,37.685,-39.028,-4.7615
5370.4,107.61,37.685,-37.028,-3.7615
5380.3,102.61,35.685,-39.028,-4.7615
5390.1,98.615,35.685,-40.028,-6.7615
5400.0,96.615,34.685,-40.028,-4.7615
5409.9,92.615,32.685,-42.028,-6.7615
5419.8,88.615,33.685,-41.028,-6.7615
5429.7,85.615,31.685,-44.028,-5.7615
5439.6,81.615,30.685,-41.028,-4.7615
5449.5,76.615,30.685,-42.028,-4.7615
5459.3,70.615,28.685,-42.028,-4.7615
5469.2,68.615,27.685,-42.028,-3.7615
5479.1,64.615,26.685,-43.028,-4.7615
5489.0,64.615,26.685,-46.028,-3.7615
5498.9,52.615,23.685,-46.028,-2.7615
5508.8,52.615,23.685,-45.028,-4.7615
5518.7,44.615,21.685,-49.028,-4.7615
5528.5,44.615,21.685,-46.028,-3.7615
5538.4,36.615,20.685,-47.028,-2.7615
5548.3,36.615,20.685,-47.028,-3.7615
5558.2,27.615,17.685,-47.028,-2.7615
5568.1,27.615,17.685,-45.028,-2.7615
5578.0,18.615,14.685,-45.028,-1.7615
5587.9,18.615,14.685,-45.028,-2.7615
5597.7,6.615,13.685,-48.028,-2.7615
5607.6,6.615,13.685,-50.028,-2.7615
5617.5,-1.385,9.6845,-49.028,-2.7615
5627.4,-1.385,9.6845,-52.028,-4.7615
5637.3,-6.385,10.685,-50.028,-2.7615
5647.2,-11.385,8.6845,-52.028,-2.7615
5657.1,-15.385,6.6845,-48.028,-2.7615
5666.9,-19.385,7.6845,-51.028,-1.7615
5676.8,-23.385,6.6845,-49.028,-0.76148
5686.7,-28.385,6.6845,-49.028,-1.7615
5696.6,-33.385,3.6845,-52.028,0.23852
5706.5,-37.385,3.6845,-51.028,-0.76148
5716.4,-41.385,2.6845,-50.028,-1.7615
5726.3,-46.385,0.68451,-54.028,-1.7615
5736.1,-51.385,0.68451,-51.028,-2.7615
5746.0,-55.385,-1.3155,-52.028,-1.7615
5755.9,-63.385,-1.3155,-54.028,-2.7615
5765.8,-67.385,-2.3155,-53.028,-2.7615
5775.7,-74.385,-4.3155,-51.028,-1.7615
5785.6,-83.385,-6.3155,-51.028,0.23852
5795.5,-91.385,-7.3155,-51.028,-0.76148
5805.3,-98.385,-7.3155,-51.028,0.23852
5815.2,-97.385,-6.3155,-51.028,-0.76148
5825.1,-91.385,-4.3155,-54.028,0.23852
5835.0,-80.385,-2.3155,-52.028,1.2385
5844.9,-63.385,-1.3155,-50.028,1.2385
5854.8,-42.385,2.6845,-47.028,2.2385
5864.7,-20.385,6.6845,-39.028,3.2385
5874.5,1.615,11.685,-39.028,3.2385
5884.4,21.615,15.685,-12.028,10.239
5894.3,40.615,18.685,-12.028,10.239
5904.2,57.615,21.685,3.9723,14.239
5914.1,67.615,22.685,3.9723,14.239
5924.0,78.615,24.685,10.972,15.239
5933.9,88.615,26.685,10.972,15.239
5943.7,93.615,27.685,14.972,15.239
5953.6,96.615,28.685,14.972,15.239
5963.5,102.61,29.685,9.9723,14.239
5973.4,105.61,30.685,9.9723,14.239
5983.3,107.61,30.685,7.9723,11.239
5993.2,111.61,31.685,7.9723,11.239
6003.1,115.61,31.685,2.9723,10.239
6012.9,112.61,30.685,2.9723,10.239
6022.8,109.61,30.685,-2.0277,11.239
6032.7,108.61,30.685,-2.0277,11.239
6042.6,108.61,31.685,-7.0277,11.239
6052.5,109.61,30.685,-7.0277,11.239
6062.4,109.61,30.685,-17.028,5.2385
6072.3,112.61,32.685,-17.028,5.2385
6082.1,115.61,32.685,-20.028,6.2385
6092.0,118.61,32.685,-21.028,5.2385
6101.9,124.61,33.685,-21.028,6.2385
6111.8,127.61,33.685,-21.028,4.2385
6121.7,130.61,34.685,-18.028,6.2385
6131.6,136.61,36.685,-19.028,7.2385
6141.5,139.61,36.685,-18.028,8.2385
6151.3,140.61,36.685,-15.028,7.2385
6161.2,143.61,36.685,-12.028,10.239
6171.1,145.61,37.685,-11.028,10.239
6181.0,145.61,37.685,-10.028,8.2385
6190.9,145.61,37.685,-10.028,7.2385
6200.8,143.61,37.685,-8.0277,9.2385
6210.7,143.61,38.685,-10.028,8.2385
6220.5,143.61,38.685,-9.0277,7.2385
6230.4,136.61,35.685,-10.028,9.2385
6240.3,136.61,35.685,-11.028,6.2385
6250.2,132.61,35.685,-11.028,9.2385
6260.1,132.61,35.685,-11.028,7.2385
6270.0,126.61,33.685,-12.028,5.2385
6279.9,126.61,33.685,-14.028,7.2385
6289.7,121.61,32.685,-14.028,7.2385
6299.6,121.61,32.685,-13.028,5.2385
6309.5,117.61,31.685,-16.028,5.2385
6319.4,117.61,31.685,-17.028,4.2385
6329.3,113.61,29.685,-16.028,4.2385
6339.2,113.61,29.685,-19.028,5.2385
6349.1,109.61,29.685,-18.028,4.2385
6358.9,109.61,29.685,-20.028,3.2385
6368.8,108.61,28.685,-19.028,4.2385
6378.7,107.61,29.685,-22.028,4.2385
6388.6,103.61,28.685,-26.028,4.2385
6398.5,101.61,27.685,-23.028,5.2385
6408.4,98.615,26.685,-25.028,4.2385
6418.3,96.615,27.685,-19.028,5.2385
6428.1,93.615,26.685,-20.028,5.2385
6438.0,91.615,26.685,-21.028,6.2385
6447.9,88.615,24.685,-23.028,6.2385
6457.8,86.615,24.685,-21.028,5.2385
6467.7,84.615,23.685,-22.028,7.2385
6477.6,80.615,22.685,-23.028,4.2385
6487.5,77.615,22.685,-26.028,3.2385
6497.3,75.615,21.685,-26.028,2.2385
6507.2,71.615,20.685,-27.028,5.2385
6517.1,68.615,19.685,-22.028,4.2385
6527.0,64.615,19.685,-24.028,3.2385
6536.9,61.615,19.685,-26.028,6.2385
6546.8,60.615,18.685,-25.028,3.2385
6556.7,55.615,17.685,-25.028,5.2385
6566.5,53.615,17.685,-25.028,4.2385
6576.4,48.615,15.685,-24.028,5.2385
6586.3,45.615,15.685,-23.028,4.2385
6596.2,42.615,16.685,-26.028,4.2385
6606.1,39.615,14.685,-27.028,3.2385
6616.0,37.615,14.685,-28.028,4.2385
6625.9,34.615,14.685,-30.028,4.2385
6635.7,31.615,13.685,-28.028,4.2385
6645.6,29.615,13.685,-28.028,3.2385
6655.5,25.615,13.685,-31.028,3.2385
6665.4,23.615,12.685,-28.028,1.2385
6675.3,20.615,12.685,-26.028,2.2385
6685.2,17.615,11.685,-29.028,3.2385
6695.1,13.615,10.685,-29.028,1.2385
6704.9,6.615,9.6845,-33.028,0.23852
6714.8,1.615,7.6845,-33.028,0.23852
6724.7,-4.385,8.6845,-35.028,-0.76148
6734.6,-10.385,6.6845,-36.028,-1.7615
6744.5,-16.385,5.6845,-35.028,-0.76148
6754.4,-24.385,4.6845,-34.028,2.2385
6764.3,-25.385,5.6845,-34.028,2.2385
6774.1,-19.385,6.6845,-32.028,2.2385
6784.0,-9.385,10.685,-33.028,1.2385
6793.9,7.615,11.685,-33.028,1.2385
6803.8,25.615,15.685,-31.028,1.2385
6813.7,44.615,17.685,-26.028,1.2385
6823.6,65.615,21.685,-16.028,4.2385
6833.5,86.615,26.685,-7.0277,6.2385
6843.3,105.61,30.685,1.9723,7.2385
6853.2,120.61,32.685,10.972,8.2385
6863.1,133.61,35.685,18.972,9.2385
6873.0,144.61,37.685,22.972,9.2385
6882.9,151.61,39.685,24.972,11.239
6892.8,157.61,40.685,24.972,11.239
6902.7,164.61,40.685,20.972,9.2385
6912.5,171.61,43.685,20.972,9.2385
6922.4,174.61,43.685,19.972,7.2385
6932.3,178.61,44.685,16.972,5.2385
6942.2,181.61,44.685,13.972,3.2385
6952.1,181.61,44.685,10.972,3.2385
6962.0,184.61,45.685,10.972,3.2385
6971.9,184.61,45.685,3.9723,1.2385
6981.7,176.61,43.685,3.9723,1.2385
6991.6,176.61,43.685,3.9723,1.2385
7001.5,172.61,43.685,3.9723,1.2385
7011.4,172.61,43.685,-6.0277,-1.7615
7021.3,172.61,43.685,-6.0277,-1.7615
7031.2,172.61,43.685,-12.028,-1.7615
7041.1,174.61,43.685,-12.028,-1.7615
7050.9,174.61,43.685,-15.028,-2.7615
7060.8,176.61,44.685,-15.028,-2.7615
7070.7,176.61,44.685,-18.028,-4.7615
7080.6,182.61,43.685,-18.028,-4.7615
7090.5,182.61,43.685,-13.028,-1.7615
7100.4,183.61,44.685,-13.028,-1.7615
7110.3,183.61,44.685,-10.028,-1.7615
7120.1,184.61,44.685,-10.028,-1.7615
7130.0,184.61,43.685,-9.0277,-0.76148
7139.9,182.61,44.685,-9.0277,-0.76148
7149.8,181.61,43.685,-6.0277,-1.7615
7159.7,180.61,43.685,-6.0277,-0.76148
7169.6,177.61,42.685,-6.0277,-2.7615
7179.5,173.61,41.685,-10.028,-3.7615
7189.3,170.61,39.685,-12.028,-3.7615
7199.2,166.61,38.685,-13.028,-6.7615
7209.1,162.61,37.685,-14.028,-5.7615
7219.0,160.61,37.685,-16.028,-5.7615
7228.9,154.61,35.685,-16.028,-7.7615
7238.8,151.61,34.685,-17.028,-5.7615
7248.7,150.61,33.685,-16.028,-5.7615
7258.5,145.61,32.685,-16.028,-6.7615
7268.4,142.61,32.685,-17.028,-5.7615
7278.3,139.61,30.685,-16.028,-5.7615
7288.2,135.61,31.685,-19.028,-5.7615
7298.1,133.61,30.685,-24.028,-7.7615
7308.0,131.61,29.685,-25.028,-8.7615
7317.9,127.61,28.685,-26.028,-9.7615
7327.7,125.61,27.685,-29.028,-8.7615
7337.6,122.61,27.685,-27.028,-11.761
7347.5,121.61,27.685,-29.028,-8.7615
7357.4,117.61,26.685,-29.028,-7.7615
7367.3,116.61,26.685,-30.028,-8.7615
7377.2,112.61,25.685,-31.028,-6.7615
7387.1,110.61,25.685,-27.028,-9.7615
7396.9,105.61,23.685,-31.028,-8.7615
7406.8,101.61,23.685,-30.028,-9.7615
7416.7,98.615,22.685,-34.028,-11.761
7426.6,94.615,20.685,-34.028,-9.7615
7436.5,93.615,20.685,-36.028,-12.761
7446.4,89.615,19.685,-37.028,-12.761
7456.3,85.615,18.685,-38.028,-11.761
7466.1,81.615,17.685,-38.028,-12.761
7476.0,79.615,17.685,-38.028,-13.761
7485.9,75.615,15.685,-39.028,-13.761
7495.8,71.615,15.685,-39.028,-13.761
7505.7,67.615,14.685,-38.028,-12.761
7515.6,62.615,13.685,-41.028,-13.761
7525.4,58.615,12.685,-38.028,-13.761
7535.3,52.615,10.685,-39.028,-14.761
7545.2,49.615,10.685,-41.028,-15.761
7555.1,46.615,9.6845,-41.028,-15.761
7565.0,42.615,9.6845,-43.028,-16.761
7574.9,37.615,7.6845,-44.028,-18.761
7584.8,32.615,6.6845,-45.028,-16.761
7594.7,29.615,6.6845,-46.028,-17.761
7604.5,23.615,5.6845,-43.028,-16.761
7614.4,19.615,3.6845,-44.028,-16.761
7624.3,15.615,3.6845,-45.028,-17.761
7634.2,10.615,2.6845,-45.028,-16.761
7644.1,7.615,1.6845,-45.028,-17.761
7654.0,2.615,0.68451,-42.028,-16.761
7663.8,-2.385,-1.3155,-46.028,-16.761
7673.7,-7.385,-2.3155,-49.028,-19.761
7683.6,-9.385,-2.3155,-52.028,-18.761
7693.5,-14.385,-3.3155,-53.028,-18.761
7703.4,-14.385,-3.3155,-52.028,-20.761
7713.3,-22.385,-5.3155,-53.028,-19.761
7723.2,-22.385,-5.3155,-55.028,-18.761
7733.1,-29.385,-6.3155,-55.028,-19.761
7742.9,-29.385,-6.3155,-54.028,-20.761
7752.8,-41.385,-8.3155,-58.028,-20.761
7762.7,-41.385,-8.3155,-57.028,-23.761
7772.6,-52.385,-10.315,-60.028,-23.761
7782.5,-52.385,-10.315,-60.028,-23.761
7792.4,-72.385,-14.315,-63.028,-21.761
7802.2,-72.385,-14.315,-63.028,-22.761
7812.1,-74.385,-12.315,-60.028,-21.761
7822.0,-74.385,-12.315,-60.028,-20.761
7831.9,-65.385,-10.315,-57.028,-20.761
7841.8,-50.385,-9.3155,-58.028,-19.761
7851.7,-33.385,-6.3155,-56.028,-17.761
7861.6,-14.385,-3.3155,-46.028,-16.761
7871.4,8.615,0.68451,-36.028,-14.761
7881.3,31.615,4.6845,-26.028,-14.761
7891.2,52.615,8.6845,-17.028,-12.761
7901.1,68.615,10.685,-7.0277,-8.7615
7911.0,84.615,13.685,-2.0277,-7.7615
7920.9,99.615,16.685,-0.027681,-7.7615
7930.8,110.61,20.685,-0.027681,-7.7615
7940.6,118.61,20.685,0.97232,-9.7615
7950.5,124.61,22.685,0.97232,-9.7615
7960.4,131.61,23.685,-0.027681,-10.761
7970.3,136.61,24.685,-0.027681,-10.761
7980.2,141.61,25.685,-5.0277,-11.761
7990.1,145.61,26.685,-5.0277,-11.761
8000.0,148.61,26.685,-16.028,-16.761
8009.8,153.61,27.685,-16.028,-16.761
8019.7,152.61,28.685,-19.028,-16.761
8029.6,151.61,27.685,-19.028,-16.761
8039.5,149.61,27.685,-24.028,-16.761
8049.4,147.61,27.685,-24.028,-16.761
8059.3,149.61,28.685,-31.028,-18.761
8069.2,148.61,28.685,-31.028,-18.761
8079.0,148.61,27.685,-39.028,-21.761
8088.9,150.61,28.685,-39.028,-21.761
8098.8,151.61,29.685,-44.028,-22.761
8108.7,154.61,28.685,-44.028,-22.761
8118.6,156.61,28.685,-43.028,-24.761
8128.5,158.61,29.685,-43.028,-24.761
8138.4,160.61,28.685,-44.028,-24.761
8148.2,162.61,29.685,-44.028,-24.761
8158.1,164.61,29.685,-44.028,-24.761
8168.0,162.61,29.685,-41.028,-24.761
8177.9,162.61,28.685,-41.028,-23.761
8187.8,162.61,28.685,-38.028,-23.761
8197.7,160.61,28.685,-40.028,-24.761
8207.6,158.61,26.685,-39.028,-26.761
8217.4,155.61,26.685,-43.028,-24.761
8227.3,150.61,25.685,-42.028,-25.761
8237.2,149.61,24.685,-43.028,-26.761
8247.1,144.61,22.685,-44.028,-27.761
8257.0,141.61,23.685,-49.028,-28.761
8266.9,136.61,21.685,-45.028,-29.761
8276.8,134.61,21.685,-49.028,-29.761
8286.6,130.61,19.685,-48.028,-28.761
8296.5,126.61,19.685,-51.028,-30.761
8306.4,123.61,17.685,-50.028,-31.761
8316.3,117.61,17.685,-54.028,-30.761
8326.2,116.61,16.685,-55.028,-30.761
8336.1,113.61,15.685,-55.028,-32.761
8346.0,109.61,14.685,-58.028,-32.761
8355.8,106.61,13.685,-59.028,-33.761
8365.7,104.61,13.685,-63.028,-32.761
8375.6,102.61,11.685,-60.028,-33.761
8385.5,98.615,11.685,-66.028,-34.761
8395.4,97.615,11.685,-66.028,-35.761
8405.3,93.615,10.685,-67.028,-34.761
8415.2,89.615,9.6845,-69.028,-38.761
8425.0,85.615,7.6845,-69.028,-37.761
8434.9,85.615,7.6845,-70.028,-36.761
8444.8,78.615,6.6845,-70.028,-35.761
8454.7,78.615,6.6845,-71.028,-37.761
8464.6,71.615,4.6845,-73.028,-35.761
8474.5,71.615,4.6845,-77.028,-35.761
8484.4,61.615,2.6845,-76.028,-36.761
8494.2,61.615,2.6845,-77.028,-37.761
8504.1,52.615,1.6845,-77.028,-38.761
8514.0,52.615,1.6845,-77.028,-38.761
8523.9,44.615,-0.31549,-78.028,-38.761
8533.8,44.615,-0.31549,-79.028,-38.761
8543.7,35.615,-3.3155,-77.028,-36.761
8553.6,35.615,-3.3155,-79.028,-37.761
8563.4,30.615,-4.3155,-77.028,-37.761
8573.3,26.615,-6.3155,-79.028,-37.761
8583.2,23.615,-6.3155,-81.028,-38.761
8593.1,18.615,-8.3155,-79.028,-38.761
8603.0,12.615,-8.3155,-83.028,-40.761
8612.9,8.615,-9.3155,-83.028,-39.761
8622.8,2.615,-11.315,-84.028,-39.761
8632.6,-2.385,-11.315,-83.028,-38.761
8642.5,-4.385,-12.315,-84.028,-41.761
8652.4,-9.385,-14.315,-83.028,-40.761
8662.3,-13.385,-15.315,-86.028,-40.761
8672.2,-18.385,-15.315,-84.028,-38.761
8682.1,-24.385,-17.315,-86.028,-38.761
8692.0,-28.385,-18.315,-86.028,-38.761
8701.8,-29.385,-19.315,-87.028,-40.761
8711.7,-35.385,-19.315,-90.028,-42.761
8721.6,-39.385,-20.315,-90.028,-40.761
8731.5,-45.385,-21.315,-90.028,-40.761
8741.4,-48.385,-23.315,-91.028,-41.761
8751.3,-52.385,-23.315,-94.028,-41.761
8761.2,-55.385,-23.315,-90.028,-40.761
8771.0,-61.385,-24.315,-92.028,-40.761
8780.9,-64.385,-25.315,-93.028,-42.761
8790.8,-68.385,-26.315,-94.028,-41.761
8800.7,-72.385,-27.315,-93.028,-42.761
8810.6,-78.385,-28.315,-93.028,-42.761
8820.5,-83.385,-30.315,-96.028,-43.761
8830.4,-89.385,-30.315,-97.028,-45.761
8840.2,-94.385,-31.315,-98.028,-44.761
8850.1,-100.39,-32.315,-100.03,-43.761
8860.0,-110.39,-34.315,-99.028,-43.761
8869.9,-116.39,-35.315,-100.03,-43.761
8879.8,-125.39,-36.315,-100.03,-43.761
8889.7,-127.39,-35.315,-96.028,-40.761
8899.6,-123.39,-33.315,-98.028,-42.761
8909.4,-113.39,-31.315,-99.028,-41.761
8919.3,-102.39,-30.315,-100.03,-41.761
8929.2,-82.385,-27.315,-96.028,-40.761
8939.1,-59.385,-24.315,-88.028,-39.761
8949.0,-38.385,-20.315,-76.028,-35.761
8958.9,-15.385,-15.315,-63.028,-32.761
8968.8,2.615,-12.315,-55.028,-32.761
8978.6,19.615,-8.3155,-46.028,-30.761
8988.5,34.615,-5.3155,-40.028,-29.761
8998.4,45.615,-3.3155,-40.028,-29.761
9008.3,53.615,-2.3155,-37.028,-29.761
9018.2,60.615,-0.31549,-37.028,-29.761
9028.1,64.615,0.68451,-36.028,-28.761
9038.0,68.615,1.6845,-36.028,-28.761
9047.8,71.615,2.6845,-41.028,-30.761
9057.7,74.615,2.6845,-41.028,-30.761
9067.6,75.615,3.6845,-45.028,-32.761
9077.5,77.615,2.6845,-45.028,-32.761
9087.4,78.615,3.6845,-52.028,-35.761
9097.3,73.615,2.6845,-52.028,-35.761
9107.2,70.615,1.6845,-57.028,-37.761
9117.0,66.615,0.68451,-57.028,-37.761
9126.9,66.615,0.68451,-62.028,-38.761
9136.8,65.615,1.6845,-62.028,-38.761
9146.7,64.615,1.6845,-69.028,-37.761
9156.6,64.615,1.6845,-69.028,-37.761
9166.5,64.615,1.6845,-73.028,-38.761
9176.4,63.615,1.6845,-73.028,-38.761
9186.2,63.615,1.6845,-75.028,-38.761
9196.1,68.615,2.6845,-75.028,-38.761
9206.0,68.615,2.6845,-72.028,-38.761
9215.9,71.615,1.6845,-72.028,-38.761
9225.8,71.615,1.6845,-69.028,-36.761
9235.7,73.615,2.6845,-69.028,-36.761
9245.6,73.615,2.6845,-67.028,-34.761
9255.4,71.615,1.6845,-62.028,-32.761
9265.3,71.615,1.6845,-62.028,-33.761
9275.2,69.615,1.6845,-61.028,-34.761
9285.1,69.615,1.6845,-62.028,-34.761
9295.0,65.615,-0.31549,-64.028,-33.761
9304.9,62.615,-2.3155,-63.028,-33.761
9314.8,58.615,-2.3155,-65.028,-34.761
9324.6,55.615,-4.3155,-64.028,-33.761
9334.5,51.615,-4.3155,-65.028,-35.761
9344.4,48.615,-5.3155,-66.028,-33.761
9354.3,44.615,-6.3155,-66.028,-35.761
9364.2,38.615,-8.3155,-66.028,-35.761
9374.1,36.615,-8.3155,-67.028,-34.761
9384.0,32.615,-9.3155,-66.028,-34.761
9393.8,27.615,-10.315,-69.028,-35.761
9403.7,25.615,-10.315,-68.028,-34.761
9413.6,22.615,-12.315,-70.028,-37.761
9423.5,17.615,-12.315,-72.028,-37.761
9433.4,15.615,-14.315,-74.028,-37.761
9443.3,12.615,-14.315,-74.028,-38.761
9453.2,11.615,-14.315,-73.028,-37.761
9463.0,7.615,-15.315,-72.028,-35.761
9472.9,5.615,-16.315,-74.028,-34.761
9482.8,0.61497,-17.315,-72.028,-35.761
9492.7,-2.385,-17.315,-74.028,-36.761
9502.6,-4.385,-17.315,-75.028,-36.761
9512.5,-6.385,-19.315,-73.028,-36.761
9522.4,-10.385,-20.315,-74.028,-36.761
9532.2,-13.385,-20.315,-72.028,-35.761
9542.1,-15.385,-21.315,-73.028,-35.761
9552.0,-17.385,-21.315,-73.028,-34.761
9561.9,-19.385,-22.315,-75.028,-37.761
9571.8,-23.385,-22.315,-77.028,-36.761
9581.7,-27.385,-23.315,-77.028,-37.761
9591.6,-31.385,-24.315,-77.028,-37.761
9601.4,-35.385,-25.315,-76.028,-34.761
9611.3,-39.385,-25.315,-76.028,-34.761
9621.2,-41.385,-27.315,-76.028,-34.761
9631.1,-46.385,-26.315,-75.028,-33.761
9641.0,-49.385,-27.315,-74.028,-33.761
9650.9,-53.385,-28.315,-75.028,-32.761
9660.8,-55.385,-29.315,-76.028,-34.761
9670.6,-59.385,-30.315,-79.028,-35.761
9680.5,-63.385,-30.315,-78.028,-34.761
9690.4,-66.385,-30.315,-76.028,-34.761
9700.3,-69.385,-32.315,-78.028,-34.761
9710.2,-75.385,-32.315,-78.028,-34.761
9720.1,-79.385,-34.315,-78.028,-33.761
9730.0,-84.385,-34.315,-78.028,-32.761
9739.8,-87.385,-34.315,-78.028,-32.761
9749.7,-91.385,-35.315,-77.028,-32.761
9759.6,-96.385,-36.315,-78.028,-34.761
9769.5,-101.39,-37.315,-76.028,-32.761
9779.4,-102.39,-37.315,-77.028,-32.761
9789.3,-106.39,-38.315,-80.028,-33.761
9799.2,-110.39,-39.315,-79.028,-32.761
9809.0,-114.39,-39.315,-80.028,-32.761
9818.9,-118.39,-41.315,-83.028,-31.761
9828.8,-121.39,-41.315,-82.028,-31.761
9838.7,-125.39,-42.315,-82.028,-32.761
9848.6,-131.39,-44.315,-83.028,-33.761
9858.5,-134.39,-45.315,-84.028,-33.761
9868.4,-140.39,-46.315,-86.028,-34.761
9878.2,-146.39,-47.315,-86.028,-33.761
9888.1,-152.39,-48.315,-84.028,-33.761
9898.0,-152.39,-48.315,-83.028,-33.761
9907.9,-169.39,-48.315,-85.028,-32.761
9917.8,-169.39,-48.315,-84.028,-34.761
9927.7,-167.39,-46.315,-86.028,-30.761
9937.6,-167.39,-46.315,-84.028,-31.761
9947.4,-141.39,-42.315,-84.028,-30.761
9957.3,-141.39,-42.315,-81.028,-28.761
9967.2,-101.39,-37.315,-78.028,-28.761
9977.1,-101.39,-37.315,-69.028,-28.761
9987.0,-59.385,-28.315,-53.028,-23.761
9996.9,-59.385,-28.315,-44.028,-20.761
10007.0,-25.385,-22.315,-33.028,-18.761
10017.0,-25.385,-22.315,-27.028,-17.761
10027.0,-9.385,-18.315,-23.028,-18.761
10036.0,2.615,-16.315,-23.028,-18.761
10046.0,8.615,-15.315,-23.028,-19.761
10056.0,15.615,-13.315,-24.028,-19.761
10066.0,22.615,-11.315,-24.028,-20.761
10076.0,23.615,-12.315,-27.028,-22.761
10086.0,27.615,-12.315,-27.028,-22.761
10096.0,30.615,-11.315,-32.028,-24.761
10106.0,31.615,-9.3155,-32.028,-24.761
10116.0,34.615,-7.3155,-36.028,-25.761
10125.0,33.615,-8.3155,-36.028,-25.761
10135.0,31.615,-10.315,-44.028,-28.761
10145.0,26.615,-10.315,-44.028,-28.761
10155.0,23.615,-9.3155,-52.028,-30.761
10165.0,21.615,-9.3155,-52.028,-30.761
10175.0,19.615,-10.315,-58.028,-33.761
10185.0,20.615,-10.315,-58.028,-33.761
10195.0,21.615,-10.315,-64.028,-33.761
10205.0,22.615,-10.315,-64.028,-33.761
10214.0,24.615,-8.3155,-65.028,-36.761
10224.0,28.615,-8.3155,-65.028,-36.761
10234.0,31.615,-7.3155,-65.028,-33.761
10244.0,34.615,-6.3155,-65.028,-33.761
10254.0,37.615,-6.3155,-61.028,-33.761
10264.0,38.615,-6.3155,-61.028,-34.761
10274.0,40.615,-6.3155,-59.028,-32.761
10284.0,43.615,-6.3155,-55.028,-32.761
10293.0,41.615,-5.3155,-56.028,-32.761
10303.0,41.615,-6.3155,-53.028,-30.761
10313.0,37.615,-7.3155,-53.028,-31.761
10323.0,34.615,-8.3155,-52.028,-31.761
10333.0,31.615,-7.3155,-51.028,-30.761
10343.0,29.615,-7.3155,-52.028,-32.761
10353.0,26.615,-9.3155,-52.028,-32.761
10363.0,22.615,-10.315,-54.028,-31.761
10373.0,18.615,-10.315,-55.028,-32.761
10382.0,14.615,-12.315,-55.028,-32.761
10392.0,10.615,-12.315,-56.028,-32.761
10402.0,6.615,-13.315,-54.028,-33.761
10412.0,3.615,-13.315,-57.028,-32.761
10422.0,-0.38503,-15.315,-57.028,-34.761
10432.0,-5.385,-15.315,-60.028,-34.761
10442.0,-8.385,-16.315,-62.028,-35.761
10452.0,-11.385,-17.315,-59.028,-35.761
10462.0,-14.385,-19.315,-63.028,-35.761
10471.0,-17.385,-18.315,-65.028,-37.761
10481.0,-21.385,-21.315,-65.028,-35.761
10491.0,-24.385,-20.315,-66.028,-37.761
10501.0,-25.385,-20.315,-67.028,-36.761
10511.0,-29.385,-21.315,-65.028,-36.761
10521.0,-31.385,-22.315,-68.028,-36.761
10531.0,-33.385,-22.315,-69.028,-36.761
10541.0,-35.385,-22.315,-67.028,-36.761
10551.0,-41.385,-23.315,-70.028,-37.761
10560.0,-43.385,-23.315,-68.028,-37.761
10570.0,-47.385,-24.315,-73.028,-37.761
10580.0,-50.385,-24.315,-71.028,-40.761
10590.0,-53.385,-25.315,-74.028,-38.761
10600.0,-56.385,-27.315,-74.028,-37.761
10610.0,-60.385,-27.315,-76.028,-39.761
10620.0,-64.385,-28.315,-76.028,-38.761
10630.0,-64.385,-28.315,-75.028,-38.761
10639.0,-70.385,-28.315,-76.028,-41.761
10649.0,-70.385,-28.315,-77.028,-38.761
10659.0,-76.385,-31.315,-77.028,-38.761
10669.0,-76.385,-31.315,-75.028,-38.761
10679.0,-84.385,-32.315,-77.028,-37.761
10689.0,-84.385,-32.315,-77.028,-38.761
10699.0,-92.385,-33.315,-78.028,-38.761
10709.0,-92.385,-33.315,-79.028,-37.761
10719.0,-99.385,-35.315,-79.028,-40.761
10728.0,-99.385,-35.315,-78.028,-38.761
10738.0,-106.39,-37.315,-81.028,-39.761
10748.0,-106.39,-37.315,-79.028,-39.761
10758.0,-115.39,-38.315,-80.028,-40.761
10768.0,-115.39,-38.315,-79.028,-37.761
10778.0,-119.39,-39.315,-80.028,-39.761
10788.0,-124.39,-41.315,-81.028,-39.761
10798.0,-129.39,-41.315,-82.028,-39.761
10808.0,-134.39,-42.315,-82.028,-38.761
10817.0,-137.39,-41.315,-81.028,-37.761
10827.0,-140.39,-43.315,-82.028,-38.761
10837.0,-143.39,-43.315,-82.028,-39.761
10847.0,-148.39,-44.315,-85.028,-40.761
10857.0,-152.39,-45.315,-86.028,-41.761
10867.0,-155.39,-46.315,-85.028,-40.761
10877.0,-160.39,-46.315,-88.028,-40.761
10887.0,-166.39,-47.315,-88.028,-41.761
10897.0,-171.39,-49.315,-86.028,-40.761
10906.0,-176.39,-49.315,-89.028,-42.761
10916.0,-187.39,-52.315,-90.028,-42.761
10926.0,-195.39,-53.315,-88.028,-41.761
10936.0,-199.39,-54.315,-88.028,-40.761
10946.0,-200.39,-51.315,-88.028,-38.761
10956.0,-194.39,-50.315,-87.028,-38.761
10966.0,-188.39,-48.315,-89.028,-39.761
10976.0,-171.39,-47.315,-87.028,-40.761
10985.0,-150.39,-44.315,-85.028,-39.761
10995.0,-127.39,-39.315,-77.028,-39.761
11005.0,-105.39,-35.315,-64.028,-36.761
11015.0,-82.385,-31.315,-52.028,-32.761
11025.0,-64.385,-27.315,-40.028,-29.761
11035.0,-49.385,-24.315,-33.028,-28.761
11045.0,-36.385,-21.315,-27.028,-27.761
11055.0,-23.385,-20.315,-26.028,-27.761
11065.0,-15.385,-17.315,-25.028,-27.761
11074.0,-7.385,-15.315,-25.028,-29.761
11084.0,-2.385,-15.315,-25.028,-27.761
11094.0,2.615,-13.315,-25.028,-27.761
11104.0,5.615,-13.315,-31.028,-31.761
11114.0,8.615,-11.315,-31.028,-31.761
11124.0,10.615,-12.315,-35.028,-35.761
11134.0,12.615,-11.315,-35.028,-35.761
11144.0,15.615,-10.315,-45.028,-38.761
11154.0,11.615,-11.315,-45.028,-38.761
11163.0,7.615,-12.315,-46.028,-37.761
11173.0,4.615,-12.315,-46.028,-37.761
11183.0,3.615,-10.315,-50.028,-37.761
11193.0,4.615,-10.315,-50.028,-37.761
11203.0,2.615,-11.315,-58.028,-38.761
11213.0,5.615,-9.3155,-58.028,-38.761
11223.0,3.615,-11.315,-63.028,-40.761
11233.0,7.615,-9.3155,-63.028,-40.761
11243.0,9.615,-9.3155,-65.028,-42.761
11252.0,11.615,-8.3155,-65.028,-42.761
11262.0,15.615,-8.3155,-66.028,-42.761
11272.0,15.615,-7.3155,-66.028,-42.761
11282.0,16.615,-8.3155,-63.028,-39.761
11292.0,19.615,-8.3155,-63.028,-39.761
11302.0,17.615,-7.3155,-60.028,-38.761
11312.0,20.615,-7.3155,-57.028,-38.761
11322.0,17.615,-8.3155,-58.028,-37.761
11331.0,16.615,-8.3155,-58.028,-39.761
11341.0,14.615,-9.3155,-58.028,-39.761
11351.0,11.615,-10.315,-59.028,-41.761
11361.0,11.615,-10.315,-58.028,-40.761
11371.0,4.615,-12.315,-57.028,-40.761
11381.0,4.615,-12.315,-59.028,-41.761
11391.0,-1.385,-12.315,-61.028,-40.761
11401.0,-1.385,-12.315,-59.028,-40.761
11411.0,-9.385,-16.315,-62.028,-40.761
11420.0,-9.385,-16.315,-60.028,-41.761
11430.0,-14.385,-15.315,-65.028,-42.761
11440.0,-14.385,-15.315,-64.028,-42.761
11450.0,-19.385,-16.315,-65.028,-43.761
11460.0,-19.385,-16.315,-65.028,-43.761
11470.0,-26.385,-18.315,-67.028,-43.761
11480.0,-26.385,-18.315,-69.028,-44.761
11490.0,-28.385,-20.315,-69.028,-45.761
11500.0,-31.385,-20.315,-72.028,-45.761
11509.0,-33.385,-20.315,-74.028,-43.761
11519.0,-34.385,-21.315,-74.028,-44.761
11529.0,-39.385,-21.315,-73.028,-43.761
11539.0,-41.385,-21.315,-74.028,-44.761
11549.0,-44.385,-22.315,-76.028,-42.761
11559.0,-45.385,-22.315,-77.028,-45.761
11569.0,-49.385,-24.315,-78.028,-45.761
11579.0,-55.385,-24.315,-80.028,-44.761
11589.0,-58.385,-25.315,-79.028,-45.761
11598.0,-60.385,-26.315,-83.028,-46.761
11608.0,-64.385,-26.315,-84.028,-47.761
11618.0,-66.385,-27.315,-83.028,-46.761
11628.0,-71.385,-28.315,-85.028,-47.761
11638.0,-74.385,-30.315,-86.028,-46.761
11648.0,-79.385,-30.315,-84.028,-45.761
11658.0,-84.385,-30.315,-83.028,-45.761
11668.0,-86.385,-32.315,-86.028,-45.761
11677.0,-89.385,-31.315,-83.028,-45.761
11687.0,-96.385,-33.315,-84.028,-45.761
11697.0,-101.39,-33.315,-86.028,-46.761
11707.0,-102.39,-33.315,-88.028,-46.761
11717.0,-108.39,-35.315,-88.028,-46.761
11727.0,-111.39,-36.315,-89.028,-46.761
11737.0,-115.39,-36.315,-87.028,-46.761
11747.0,-118.39,-37.315,-86.028,-46.761
11757.0,-123.39,-38.315,-88.028,-44.761
11766.0,-128.39,-39.315,-87.028,-45.761
11776.0,-132.39,-41.315,-88.028,-47.761
11786.0,-136.39,-41.315,-87.028,-45.761
11796.0,-141.39,-43.315,-92.028,-46.761
11806.0,-146.39,-43.315,-95.028,-48.761
11816.0,-152.39,-44.315,-91.028,-47.761
11826.0,-154.39,-46.315,-90.028,-44.761
11836.0,-159.39,-46.315,-92.028,-47.761
11846.0,-162.39,-45.315,-92.028,-49.761
11855.0,-166.39,-48.315,-93.028,-47.761
11865.0,-171.39,-49.315,-92.028,-47.761
11875.0,-173.39,-50.315,-92.028,-47.761
11885.0,-179.39,-50.315,-90.028,-46.761
11895.0,-182.39,-50.315,-93.028,-47.761
11905.0,-187.39,-52.315,-95.028,-46.761
11915.0,-193.39,-53.315,-94.028,-47.761
11925.0,-197.39,-53.315,-95.028,-48.761
11935.0,-205.39,-55.315,-97.028,-47.761
11944.0,-210.39,-56.315,-96.028,-48.761
11954.0,-220.39,-57.315,-95.028,-48.761
11964.0,-231.39,-60.315,-97.028,-47.761
11974.0,-238.39,-60.315,-95.028,-45.761
11984.0,-242.39,-59.315,-97.028,-44.761
11994.0,-238.39,-57.315,-94.028,-46.761
12004.0,-231.39,-56.315,-96.028,-44.761
12014.0,-220.39,-54.315,-97.028,-47.761
12023.0,-200.39,-52.315,-94.028,-43.761
12033.0,-176.39,-48.315,-86.028,-41.761
12043.0,-154.39,-43.315,-77.028,-39.761
12053.0,-130.39,-39.315,-64.028,-35.761
12063.0,-108.39,-34.315,-51.028,-33.761
12073.0,-90.385,-32.315,-38.028,-32.761
12083.0,-75.385,-28.315,-34.028,-30.761
12093.0,-75.385,-28.315,-29.028,-31.761
12103.0,-55.385,-23.315,-27.028,-28.761
12112.0,-55.385,-23.315,-25.028,-29.761
12122.0,-43.385,-21.315,-25.028,-29.761
12132.0,-43.385,-21.315,-29.028,-30.761
12142.0,-37.385,-19.315,-30.028,-30.761
12152.0,-37.385,-19.315,-33.028,-31.761
12162.0,-33.385,-19.315,-33.028,-32.761
12172.0,-33.385,-19.315,-35.028,-34.761
12182.0,-31.385,-18.315,-35.028,-34.761
12192.0,-31.385,-18.315,-42.028,-35.761
12201.0,-37.385,-21.315,-42.028,-35.761
12211.0,-37.385,-21.315,-50.028,-38.761
12221.0,-41.385,-21.315,-50.028,-38.761
12231.0,-43.385,-21.315,-56.028,-38.761
12241.0,-43.385,-19.315,-56.028,-38.761
12251.0,-44.385,-19.315,-64.028,-42.761
12261.0,-45.385,-19.315,-64.028,-42.761
12271.0,-45.385,-19.315,-67.028,-41.761
12281.0,-44.385,-19.315,-67.028,-41.761
12290.0,-41.385,-17.315,-67.028,-42.761
12300.0,-38.385,-18.315,-67.028,-42.761
12310.0,-35.385,-17.315,-67.028,-41.761
12320.0,-34.385,-17.315,-67.028,-41.761
12330.0,-31.385,-17.315,-64.028,-39.761
12340.0,-31.385,-17.315,-64.028,-39.761
12350.0,-31.385,-16.315,-58.028,-37.761
12360.0,-30.385,-16.315,-58.028,-37.761
12369.0,-32.385,-17.315,-55.028,-36.761
12379.0,-35.385,-17.315,-55.028,-36.761
12389.0,-36.385,-18.315,-54.028,-37.761
12399.0,-40.385,-18.315,-57.028,-37.761
12409.0,-43.385,-19.315,-57.028,-36.761
12419.0,-46.385,-21.315,-56.028,-36.761
12429.0,-50.385,-21.315,-57.028,-36.761
12439.0,-55.385,-21.315,-56.028,-36.761
12449.0,-58.385,-23.315,-59.028,-37.761
12458.0,-62.385,-24.315,-59.028,-36.761
12468.0,-65.385,-24.315,-59.028,-37.761
12478.0,-70.385,-26.315,-59.028,-38.761
12488.0,-71.385,-25.315,-59.028,-37.761
12498.0,-77.385,-27.315,-65.028,-38.761
12508.0,-81.385,-28.315,-61.028,-37.761
12518.0,-84.385,-29.315,-65.028,-38.761
12528.0,-86.385,-29.315,-65.028,-38.761
12538.0,-89.385,-30.315,-65.028,-38.761
12547.0,-93.385,-31.315,-63.028,-38.761
12557.0,-95.385,-31.315,-67.028,-37.761
12567.0,-99.385,-31.315,-67.028,-38.761
12577.0,-103.39,-33.315,-67.028,-39.761
12587.0,-105.39,-33.315,-68.028,-39.761
12597.0,-108.39,-35.315,-70.028,-39.761
12607.0,-111.39,-35.315,-71.028,-41.761
12617.0,-116.39,-35.315,-73.028,-40.761
12627.0,-119.39,-36.315,-71.028,-39.761
12636.0,-123.39,-38.315,-72.028,-39.761
12646.0,-126.39,-39.315,-70.028,-39.761
12656.0,-131.39,-39.315,-70.028,-38.761
12666.0,-134.39,-39.315,-72.028,-40.761
12676.0,-137.39,-40.315,-72.028,-39.761
12686.0,-141.39,-41.315,-70.028,-36.761
12696.0,-143.39,-41.315,-72.028,-37.761
12706.0,-146.39,-42.315,-69.028,-37.761
12715.0,-149.39,-42.315,-72.028,-38.761
12725.0,-153.39,-45.315,-70.028,-36.761
12735.0,-157.39,-44.315,-71.028,-35.761
12745.0,-162.39,-46.315,-73.028,-36.761
12755.0,-165.39,-45.315,-71.028,-36.761
12765.0,-166.39,-47.315,-71.028,-34.761
12775.0,-171.39,-47.315,-70.028,-35.761
12785.0,-173.39,-48.315,-70.028,-34.761
12795.0,-177.39,-49.315,-70.028,-34.761
12804.0,-177.39,-49.315,-71.028,-33.761
12814.0,-184.39,-50.315,-69.028,-33.761
12824.0,-184.39,-50.315,-70.028,-34.761
12834.0,-189.39,-49.315,-71.028,-33.761
12844.0,-189.39,-49.315,-73.028,-33.761
12854.0,-197.39,-51.315,-71.028,-33.761
12864.0,-197.39,-51.315,-72.028,-33.761
12874.0,-203.39,-53.315,-73.028,-33.761
12884.0,-203.39,-53.315,-71.028,-33.761
12893.0,-209.39,-52.315,-72.028,-32.761
12903.0,-209.39,-52.315,-74.028,-32.761
12913.0,-217.39,-56.315,-73.028,-31.761
12923.0,-217.39,-56.315,-73.028,-31.761
12933.0,-229.39,-58.315,-75.028,-33.761
12943.0,-229.39,-58.315,-76.028,-32.761
12953.0,-235.39,-58.315,-75.028,-33.761
12963.0,-244.39,-60.315,-73.028,-32.761
12972.0,-252.39,-61.315,-76.028,-32.761
12982.0,-258.39,-62.315,-75.028,-30.761
12992.0,-258.39,-59.315,-77.028,-31.761
13002.0,-251.39,-56.315,-80.028,-33.761
13012.0,-242.39,-55.315,-77.028,-32.761
13022.0,-226.39,-54.315,-76.028,-33.761
13032.0,-207.39,-51.315,-69.028,-29.761
13042.0,-187.39,-47.315,-60.028,-27.761
13052.0,-164.39,-44.315,-46.028,-23.761
13061.0,-143.39,-39.315,-34.028,-21.761
13071.0,-122.39,-36.315,-26.028,-19.761
13081.0,-107.39,-31.315,-20.028,-18.761
13091.0,-94.385,-28.315,-15.028,-18.761
13101.0,-84.385,-27.315,-16.028,-17.761
13111.0,-76.385,-25.315,-15.028,-17.761
13121.0,-71.385,-23.315,-17.028,-19.761
13131.0,-67.385,-23.315,-16.028,-19.761
13141.0,-64.385,-22.315,-19.028,-20.761
13150.0,-62.385,-21.315,-21.028,-21.761
13160.0,-61.385,-21.315,-23.028,-22.761
13170.0,-59.385,-21.315,-27.028,-25.761
13180.0,-56.385,-20.315,-26.028,-26.761
13190.0,-60.385,-21.315,-26.028,-26.761
13200.0,-64.385,-23.315,-31.028,-26.761
13210.0,-68.385,-23.315,-31.028,-26.761
13220.0,-72.385,-22.315,-41.028,-28.761
13230.0,-74.385,-23.315,-41.028,-28.761
13239.0,-75.385,-22.315,-46.028,-30.761
13249.0,-74.385,-22.315,-46.028,-30.761
13259.0,-73.385,-23.315,-51.028,-31.761
13269.0,-71.385,-21.315,-51.028,-31.761
13279.0,-67.385,-19.315,-52.028,-32.761
13289.0,-63.385,-18.315,-52.028,-32.761
13299.0,-60.385,-19.315,-53.028,-30.761
13309.0,-58.385,-18.315,-53.028,-30.761
13318.0,-55.385,-18.315,-44.028,-29.761
13328.0,-54.385,-17.315,-44.028,-29.761
13338.0,-52.385,-17.315,-45.028,-28.761
13348.0,-50.385,-17.315,-45.028,-28.761
13358.0,-52.385,-17.315,-41.028,-28.761
13368.0,-51.385,-17.315,-41.028,-28.761
13378.0,-53.385,-16.315,-39.028,-28.761
13388.0,-55.385,-17.315,-39.028,-28.761
13398.0,-58.385,-18.315,-40.028,-29.761
13407.0,-61.385,-20.315,-40.028,-29.761
13417.0,-64.385,-20.315,-43.028,-29.761
13427.0,-67.385,-20.315,-41.028,-29.761
13437.0,-70.385,-20.315,-41.028,-30.761
13447.0,-74.385,-21.315,-44.028,-32.761
13457.0,-76.385,-22.315,-43.028,-30.761
13467.0,-79.385,-22.315,-44.028,-30.761
13477.0,-82.385,-23.315,-42.028,-31.761
13487.0,-85.385,-24.315,-44.028,-31.761
13496.0,-88.385,-24.315,-47.028,-31.761
13506.0,-90.385,-24.315,-45.028,-32.761
13516.0,-91.385,-25.315,-49.028,-31.761
13526.0,-94.385,-25.315,-48.028,-32.761
13536.0,-94.385,-25.315,-52.028,-33.761
13546.0,-96.385,-26.315,-53.028,-33.761
13556.0,-96.385,-26.315,-52.028,-31.761
13566.0,-103.39,-27.315,-53.028,-33.761
13576.0,-103.39,-27.315,-53.028,-33.761
13585.0,-107.39,-28.315,-54.028,-33.761
13595.0,-107.39,-28.315,-54.028,-33.761
13605.0,-112.39,-29.315,-56.028,-33.761
13615.0,-112.39,-29.315,-56.028,-33.761
13625.0,-116.39,-30.315,-61.028,-33.761
13635.0,-116.39,-30.315,-59.028,-33.761
13645.0,-122.39,-31.315,-61.028,-34.761
13655.0,-122.39,-31.315,-62.028,-35.761
13664.0,-126.39,-31.315,-62.028,-32.761
13674.0,-126.39,-31.315,-63.028,-33.761
13684.0,-130.39,-32.315,-62.028,-33.761
13694.0,-134.39,-33.315,-63.028,-33.761
13704.0,-137.39,-34.315,-66.028,-35.761
13714.0,-140.39,-34.315,-65.028,-34.761
13724.0,-144.39,-34.315,-63.028,-32.761
13734.0,-146.39,-34.315,-62.028,-32.761
13744.0,-151.39,-36.315,-65.028,-33.761
13753.0,-154.39,-36.315,-60.028,-33.761
13763.0,-158.39,-37.315,-63.028,-33.761
13773.0,-163.39,-38.315,-65.028,-34.761
13783.0,-169.39,-40.315,-65.028,-34.761
13793.0,-169.39,-40.315,-67.028,-33.761
13803.0,-173.39,-41.315,-67.028,-35.761
13813.0,-177.39,-42.315,-66.028,-32.761
13823.0,-181.39,-42.315,-67.028,-32.761
13833.0,-183.39,-42.315,-69.028,-32.761
13842.0,-186.39,-43.315,-66.028,-33.761
13852.0,-190.39,-43.315,-66.028,-32.761
13862.0,-194.39,-45.315,-65.028,-33.761
13872.0,-199.39,-44.315,-65.028,-33.761
13882.0,-202.39,-45.315,-68.028,-34.761
13892.0,-206.39,-46.315,-69.028,-34.761
13902.0,-210.39,-47.315,-70.028,-35.761
13912.0,-214.39,-47.315,-74.028,-38.761
13922.0,-221.39,-48.315,-74.028,-37.761
13931.0,-229.39,-49.315,-75.028,-36.761
13941.0,-237.39,-51.315,-75.028,-36.761
13951.0,-243.39,-51.315,-71.028,-34.761
13961.0,-243.39,-50.315,-71.028,-32.761
13971.0,-236.39,-48.315,-71.028,-33.761
13981.0,-227.39,-46.315,-70.028,-33.761
13991.0,-210.39,-44.315,-70.028,-32.761
14001.0,-191.39,-41.315,-66.028,-31.761
14010.0,-168.39,-37.315,-59.028,-29.761
14020.0,-147.39,-31.315,-50.028,-28.761
14030.0,-126.39,-28.315,-38.028,-28.761
14040.0,-106.39,-25.315,-30.028,-26.761
14050.0,-89.385,-21.315,-17.028,-23.761
14060.0,-75.385,-18.315,-11.028,-20.761
14070.0,-63.385,-15.315,-8.0277,-21.761
14080.0,-56.385,-13.315,-6.0277,-21.761
14090.0,-49.385,-12.315,-7.0277,-23.761
14099.0,-43.385,-11.315,-6.0277,-19.761
14109.0,-40.385,-10.315,-8.0277,-21.761
14119.0,-37.385,-9.3155,-9.0277,-23.761
14129.0,-34.385,-8.3155,-11.028,-22.761
14139.0,-29.385,-8.3155,-13.028,-26.761
14149.0,-28.385,-7.3155,-22.028,-29.761
14159.0,-27.385,-6.3155,-24.028,-31.761
14169.0,-28.385,-7.3155,-25.028,-30.761
14179.0,-34.385,-7.3155,-29.028,-30.761
14188.0,-37.385,-8.3155,-31.028,-30.761
14198.0,-36.385,-8.3155,-32.028,-32.761
14208.0,-36.385,-7.3155,-32.028,-32.761
14218.0,-34.385,-6.3155,-36.028,-32.761
14228.0,-34.385,-5.3155,-42.028,-32.761
14238.0,-34.385,-7.3155,-43.028,-35.761
14248.0,-31.385,-6.3155,-44.028,-35.761
14258.0,-29.385,-5.3155,-44.028,-35.761
14268.0,-29.385,-5.3155,-45.028,-34.761
14277.0,-22.385,-4.3155,-45.028,-34.761
14287.0,-22.385,-4.3155,-41.028,-33.761
14297.0,-19.385,-3.3155,-41.028,-33.761
14307.0,-19.385,-3.3155,-38.028,-31.761
14317.0,-18.385,-4.3155,-38.028,-31.761
14327.0,-18.385,-4.3155,-37.028,-32.761
14337.0,-18.385,-3.3155,-37.028,-32.761
14347.0,-18.385,-3.3155,-35.028,-30.761
14356.0,-23.385,-6.3155,-35.028,-30.761
14366.0,-23.385,-6.3155,-37.028,-31.761
14376.0,-28.385,-5.3155,-37.028,-31.761
14386.0,-28.385,-5.3155,-39.028,-32.761
14396.0,-35.385,-7.3155,-39.028,-32.761
14406.0,-35.385,-7.3155,-42.028,-35.761
14416.0,-40.385,-8.3155,-42.028,-35.761
14426.0,-42.385,-9.3155,-43.028,-35.761
14436.0,-44.385,-9.3155,-43.028,-35.761
14445.0,-47.385,-11.315,-42.028,-35.761
14455.0,-50.385,-10.315,-42.028,-35.761
14465.0,-54.385,-11.315,-46.028,-34.761
14475.0,-54.385,-12.315,-44.028,-33.761
14485.0,-58.385,-13.315,-46.028,-33.761
14495.0,-62.385,-13.315,-47.028,-35.761
14505.0,-63.385,-14.315,-45.028,-35.761
14515.0,-65.385,-14.315,-48.028,-34.761
14525.0,-69.385,-15.315,-52.028,-33.761
14534.0,-71.385,-14.315,-48.028,-35.761
14544.0,-73.385,-14.315,-50.028,-34.761
14554.0,-76.385,-16.315,-50.028,-34.761
14564.0,-79.385,-16.315,-54.028,-34.761
14574.0,-81.385,-18.315,-56.028,-36.761
14584.0,-85.385,-18.315,-56.028,-36.761
14594.0,-86.385,-18.315,-54.028,-34.761
14604.0,-89.385,-19.315,-56.028,-34.761
14614.0,-93.385,-20.315,-58.028,-35.761
14623.0,-96.385,-20.315,-57.028,-34.761
14633.0,-101.39,-20.315,-59.028,-34.761
14643.0,-103.39,-22.315,-57.028,-34.761
14653.0,-108.39,-22.315,-59.028,-32.761
14663.0,-111.39,-23.315,-57.028,-34.761
14673.0,-114.39,-24.315,-57.028,-33.761
14683.0,-118.39,-25.315,-58.028,-34.761
14693.0,-121.39,-26.315,-59.028,-34.761
14702.0,-125.39,-27.315,-59.028,-34.761
14712.0,-133.39,-28.315,-59.028,-34.761
14722.0,-134.39,-30.315,-60.028,-34.761
14732.0,-139.39,-30.315,-61.028,-35.761
14742.0,-142.39,-29.315,-62.028,-36.761
14752.0,-146.39,-31.315,-60.028,-37.761
14762.0,-150.39,-32.315,-62.028,-36.761
14772.0,-154.39,-33.315,-64.028,-36.761
14782.0,-158.39,-33.315,-61.028,-35.761
14791.0,-162.39,-34.315,-64.028,-37.761
14801.0,-164.39,-34.315,-64.028,-37.761
14811.0,-167.39,-34.315,-65.028,-36.761
14821.0,-171.39,-34.315,-64.028,-39.761
14831.0,-175.39,-36.315,-66.028,-39.761
14841.0,-180.39,-37.315,-68.028,-41.761
14851.0,-183.39,-38.315,-67.028,-39.761
14861.0,-187.39,-38.315,-70.028,-40.761
14871.0,-190.39,-39.315,-69.028,-38.761
14880.0,-193.39,-38.315,-70.028,-39.761
14890.0,-196.39,-40.315,-74.028,-40.761
14900.0,-204.39,-41.315,-72.028,-41.761
14910.0,-209.39,-41.315,-72.028,-40.761
14920.0,-216.39,-43.315,-73.028,-42.761
14930.0,-224.39,-44.315,-76.028,-40.761
14940.0,-231.39,-45.315,-76.028,-42.761
14950.0,-235.39,-44.315,-73.028,-41.761
14960.0,-236.39,-43.315,-75.028,-39.761
14969.0,-230.39,-41.315,-74.028,-38.761
14979.0,-217.39,-39.315,-76.028,-39.761
14989.0,-201.39,-37.315,-75.028,-40.761
14999.0,-201.39,-37.315,-73.028,-37.761
15009.0,-162.39,-31.315,-65.028,-36.761
15019.0,-162.39,-31.315,-53.028,-34.761
15029.0,-119.39,-23.315,-42.028,-31.761
15039.0,-119.39,-23.315,-29.028,-29.761
15048.0,-86.385,-17.315,-21.028,-28.761
15058.0,-86.385,-17.315,-15.028,-26.761
15068.0,-63.385,-13.315,-11.028,-24.761
15078.0,-63.385,-13.315,-10.028,-24.761
15088.0,-48.385,-9.3155,-6.0277,-23.761
15098.0,-48.385,-9.3155,-11.028,-26.761
15108.0,-39.385,-7.3155,-14.028,-28.761
15118.0,-39.385,-7.3155,-16.028,-29.761
15128.0,-32.385,-5.3155,-17.028,-29.761
15137.0,-32.385,-5.3155,-23.028,-30.761
15147.0,-29.385,-4.3155,-25.028,-31.761
15157.0,-25.385,-3.3155,-29.028,-34.761
15167.0,-23.385,-2.3155,-31.028,-34.761
15177.0,-26.385,-3.3155,-33.028,-34.761
15187.0,-28.385,-3.3155,-37.028,-35.761
15197.0,-30.385,-4.3155,-39.028,-36.761
15207.0,-29.385,-1.3155,-44.028,-37.761
15217.0,-29.385,-1.3155,-48.028,-35.761
15226.0,-28.385,-2.3155,-50.028,-38.761
15236.0,-28.385,-1.3155,-53.028,-38.761
15246.0,-25.385,0.68451,-56.028,-40.761
15256.0,-22.385,0.68451,-55.028,-39.761
15266.0,-19.385,0.68451,-54.028,-39.761
15276.0,-19.385,1.6845,-56.028,-39.761
15286.0,-13.385,1.6845,-51.028,-36.761
15296.0,-12.385,1.6845,-53.028,-36.761
15306.0,-11.385,1.6845,-50.028,-36.761
15315.0,-9.385,2.6845,-50.028,-39.761
15325.0,-10.385,2.6845,-50.028,-39.761
15335.0,-10.385,1.6845,-48.028,-35.761
15345.0,-11.385,1.6845,-48.028,-35.761
15355.0,-14.385,0.68451,-44.028,-35.761
15365.0,-17.385,-0.31549,-44.028,-35.761
15375.0,-19.385,-0.31549,-46.028,-37.761
15385.0,-23.385,-2.3155,-46.028,-37.761
15394.0,-28.385,-2.3155,-45.028,-36.761
15404.0,-30.385,-3.3155,-45.028,-36.761
15414.0,-36.385,-4.3155,-49.028,-38.761
15424.0,-38.385,-5.3155,-49.028,-38.761
15434.0,-42.385,-5.3155,-51.028,-37.761
15444.0,-46.385,-7.3155,-51.028,-37.761
15454.0,-49.385,-7.3155,-53.028,-37.761
15464.0,-52.385,-7.3155,-53.028,-37.761
15474.0,-54.385,-8.3155,-53.028,-38.761
15483.0,-55.385,-7.3155,-53.028,-38.761
15493.0,-57.385,-9.3155,-54.028,-39.761
15503.0,-61.385,-10.315,-54.028,-39.761
15513.0,-63.385,-11.315,-55.028,-37.761
15523.0,-65.385,-10.315,-55.028,-37.761
15533.0,-68.385,-11.315,-56.028,-37.761
15543.0,-72.385,-12.315,-57.028,-40.761
15553.0,-76.385,-14.315,-61.028,-38.761
15563.0,-77.385,-14.315,-60.028,-36.761
15572.0,-78.385,-13.315,-59.028,-37.761
15582.0,-82.385,-15.315,-60.028,-37.761
15592.0,-86.385,-16.315,-61.028,-36.761
15602.0,-89.385,-18.315,-63.028,-37.761
15612.0,-93.385,-18.315,-60.028,-35.761
15622.0,-96.385,-18.315,-59.028,-35.761
15632.0,-99.385,-19.315,-60.028,-33.761
15642.0,-103.39,-20.315,-62.028,-35.761
15652.0,-105.39,-20.315,-65.028,-37.761
15661.0,-109.39,-22.315,-66.028,-36.761
15671.0,-113.39,-22.315,-65.028,-34.761
15681.0,-116.39,-22.315,-65.028,-35.761
15691.0,-118.39,-23.315,-63.028,-34.761
15701.0,-124.39,-24.315,-66.028,-34.761
15711.0,-126.39,-25.315,-63.028,-33.761
15721.0,-129.39,-25.315,-65.028,-34.761
15731.0,-129.39,-25.315,-66.028,-35.761
15740.0,-138.39,-28.315,-65.028,-34.761
15750.0,-138.39,-28.315,-66.028,-34.761
15760.0,-148.39,-29.315,-65.028,-33.761
15770.0,-148.39,-29.315,-64.028,-34.761
15780.0,-155.39,-31.315,-64.028,-31.761
15790.0,-155.39,-31.315,-65.028,-32.761
15800.0,-165.39,-34.315,-66.028,-32.761
15810.0,-165.39,-34.315,-67.028,-32.761
15820.0,-173.39,-35.315,-65.028,-32.761
15829.0,-173.39,-35.315,-64.028,-32.761
15839.0,-182.39,-37.315,-66.028,-32.761
15849.0,-182.39,-37.315,-66.028,-32.761
15859.0,-191.39,-38.315,-68.028,-31.761
15869.0,-191.39,-38.315,-69.028,-33.761
15879.0,-195.39,-39.315,-67.028,-31.761
15889.0,-200.39,-39.315,-67.028,-30.761
15899.0,-205.39,-43.315,-68.028,-31.761
15909.0,-210.39,-42.315,-70.028,-32.761
15918.0,-217.39,-43.315,-67.028,-31.761
15928.0,-223.39,-45.315,-68.028,-30.761
15938.0,-232.39,-45.315,-68.028,-32.761
15948.0,-242.39,-48.315,-68.028,-29.761
15958.0,-249.39,-49.315,-67.028,-28.761
15968.0,-252.39,-47.315,-64.028,-27.761
15978.0,-250.39,-45.315,-65.028,-26.761
15988.0,-241.39,-43.315,-67.028,-27.761
15998.0,-229.39,-42.315,-66.028,-27.761
16007.0,-211.39,-40.315,-62.028,-26.761
16017.0,-190.39,-36.315,-56.028,-25.761
16027.0,-167.39,-32.315,-43.028,-21.761
16037.0,-148.39,-29.315,-29.028,-16.761
16047.0,-128.39,-25.315,-20.028,-15.761
16057.0,-112.39,-22.315,-12.028,-13.761
16067.0,-99.385,-19.315,-6.0277,-11.761
16077.0,-89.385,-17.315,-2.0277,-11.761
16086.0,-79.385,-15.315,2.9723,-11.761
16096.0,-74.385,-14.315,1.9723,-9.7615
16106.0,-69.385,-13.315,-2.0277,-12.761
16116.0,-66.385,-13.315,-2.0277,-13.761
16126.0,-64.385,-11.315,-3.0277,-12.761
16136.0,-61.385,-10.315,-7.0277,-14.761
16146.0,-60.385,-11.315,-9.0277,-18.761
16156.0,-57.385,-10.315,-9.0277,-16.761
16166.0,-59.385,-11.315,-13.028,-17.761
16175.0,-63.385,-13.315,-16.028,-18.761
16185.0,-65.385,-12.315,-18.028,-18.761
16195.0,-67.385,-12.315,-18.028,-15.761
16205.0,-69.385,-11.315,-22.028,-18.761
16215.0,-69.385,-10.315,-28.028,-19.761
16225.0,-70.385,-12.315,-32.028,-20.761
16235.0,-70.385,-10.315,-32.028,-18.761
16245.0,-67.385,-11.315,-33.028,-21.761
16255.0,-64.385,-10.315,-32.028,-18.761
16264.0,-60.385,-9.3155,-33.028,-18.761
16274.0,-57.385,-7.3155,-30.028,-17.761
16284.0,-52.385,-6.3155,-27.028,-17.761
16294.0,-48.385,-6.3155,-26.028,-16.761
16304.0,-46.385,-6.3155,-25.028,-16.761
16314.0,-41.385,-5.3155,-25.028,-16.761
16324.0,-41.385,-6.3155,-23.028,-14.761
16334.0,-40.385,-7.3155,-23.028,-14.761
16344.0,-42.385,-6.3155,-19.028,-13.761
16353.0,-44.385,-5.3155,-19.028,-13.761
16363.0,-45.385,-7.3155,-17.028,-12.761
16373.0,-46.385,-7.3155,-17.028,-12.761
16383.0,-48.385,-9.3155,-19.028,-12.761
16393.0,-51.385,-7.3155,-19.028,-12.761
16403.0,-52.385,-9.3155,-15.028,-10.761
16413.0,-55.385,-8.3155,-15.028,-10.761
16423.0,-58.385,-9.3155,-18.028,-11.761
16432.0,-60.385,-10.315,-18.028,-11.761
16442.0,-61.385,-10.315,-21.028,-14.761
16452.0,-62.385,-10.315,-21.028,-14.761
16462.0,-62.385,-10.315,-21.028,-13.761
16472.0,-65.385,-11.315,-21.028,-13.761
16482.0,-65.385,-11.315,-21.028,-12.761
16492.0,-69.385,-12.315,-21.028,-12.761
16502.0,-69.385,-12.315,-22.028,-12.761
16512.0,-72.385,-13.315,-22.028,-12.761
16521.0,-72.385,-13.315,-21.028,-10.761
16531.0,-75.385,-13.315,-21.028,-10.761
16541.0,-75.385,-13.315,-20.028,-10.761
16551.0,-77.385,-14.315,-23.028,-11.761
16561.0,-77.385,-14.315,-22.028,-10.761
16571.0,-80.385,-15.315,-22.028,-10.761
16581.0,-80.385,-15.315,-21.028,-9.7615
16591.0,-86.385,-16.315,-25.028,-10.761
16601.0,-86.385,-16.315,-26.028,-9.7615
16610.0,-88.385,-16.315,-26.028,-10.761
16620.0,-91.385,-17.315,-25.028,-9.7615
16630.0,-92.385,-17.315,-25.028,-10.761
16640.0,-95.385,-17.315,-23.028,-8.7615
16650.0,-97.385,-18.315,-22.028,-9.7615
16660.0,-99.385,-19.315,-24.028,-8.7615
16670.0,-102.39,-20.315,-23.028,-7.7615
16680.0,-106.39,-20.315,-22.028,-6.7615
16690.0,-111.39,-21.315,-21.028,-8.7615
16699.0,-113.39,-22.315,-24.028,-7.7615
16709.0,-113.39,-22.315,-26.028,-7.7615
16719.0,-118.39,-24.315,-23.028,-7.7615
16729.0,-119.39,-23.315,-24.028,-4.7615
16739.0,-122.39,-24.315,-24.028,-5.7615
16749.0,-127.39,-25.315,-23.028,-4.7615
16759.0,-128.39,-25.315,-22.028,-4.7615
16769.0,-130.39,-25.315,-24.028,-4.7615
16778.0,-133.39,-26.315,-23.028,-5.7615
16788.0,-137.39,-26.315,-24.028,-6.7615
16798.0,-140.39,-27.315,-25.028,-8.7615
16808.0,-140.39,-26.315,-24.028,-5.7615
16818.0,-144.39,-27.315,-25.028,-5.7615
16828.0,-148.39,-28.315,-26.028,-4.7615
16838.0,-153.39,-30.315,-26.028,-7.7615
16848.0,-156.39,-29.315,-29.028,-7.7615
16858.0,-162.39,-31.315,-29.028,-6.7615
16867.0,-168.39,-31.315,-27.028,-6.7615
16877.0,-172.39,-33.315,-26.028,-6.7615
16887.0,-179.39,-33.315,-29.028,-6.7615
16897.0,-183.39,-34.315,-28.028,-5.7615
16907.0,-185.39,-32.315,-26.028,-3.7615
16917.0,-181.39,-29.315,-28.028,-5.7615
16927.0,-171.39,-28.315,-28.028,-4.7615
16937.0,-156.39,-27.315,-25.028,-5.7615
16947.0,-140.39,-24.315,-25.028,-4.7615
16956.0,-121.39,-19.315,-23.028,-2.7615
16966.0,-104.39,-16.315,-14.028,-0.76148
16976.0,-84.385,-12.315,-0.027681,1.2385
16986.0,-68.385,-9.3155,11.972,4.2385
16996.0,-51.385,-5.3155,19.972,8.2385
17006.0,-36.385,-3.3155,28.972,8.2385
17016.0,-27.385,-1.3155,31.972,10.239
17026.0,-20.385,0.68451,35.972,10.239
17036.0,-12.385,2.6845,35.972,10.239
17045.0,-7.385,3.6845,36.972,8.2385
17055.0,-2.385,4.6845,35.972,10.239
17065.0,-0.38503,4.6845,34.972,8.2385
17075.0,3.615,5.6845,32.972,6.2385
17085.0,6.615,5.6845,28.972,4.2385
17095.0,6.615,6.6845,26.972,3.2385
17105.0,7.615,5.6845,23.972,3.2385
17115.0,1.615,5.6845,20.972,3.2385
17124.0,-0.38503,4.6845,19.972,2.2385
17134.0,-1.385,3.6845,14.972,2.2385
17144.0,-3.385,5.6845,15.972,1.2385
17154.0,-3.385,5.6845,10.972,0.23852
17164.0,-4.385,4.6845,9.9723,0.23852
17174.0,-2.385,5.6845,5.9723,0.23852
17184.0,-1.385,5.6845,6.9723,-0.76148
17194.0,-1.385,5.6845,6.9723,0.23852
17204.0,3.615,6.6845,5.9723,0.23852
17213.0,3.615,6.6845,4.9723,0.23852
17223.0,9.615,6.6845,5.9723,1.2385
17233.0,9.615,6.6845,8.9723,-0.76148
17243.0,13.615,6.6845,7.9723,1.2385
17253.0,13.615,6.6845,11.972,1.2385
17263.0,15.615,8.6845,13.972,3.2385
17273.0,15.615,8.6845,14.972,5.2385
17283.0,13.615,7.6845,16.972,4.2385
17293.0,13.615,7.6845,15.972,2.2385
17302.0,10.615,6.6845,13.972,2.2385
17312.0,10.615,6.6845,14.972,2.2385
17322.0,3.615,5.6845,13.972,2.2385
17332.0,3.615,5.6845,12.972,2.2385
17342.0,2.615,5.6845,15.972,4.2385
17352.0,-0.38503,4.6845,12.972,2.2385
17362.0,-4.385,4.6845,11.972,1.2385
17372.0,-8.385,2.6845,11.972,2.2385
17382.0,-9.385,2.6845,12.972,2.2385
17391.0,-12.385,1.6845,10.972,0.23852
17401.0,-15.385,0.68451,10.972,0.23852
17411.0,-17.385,-0.31549,7.9723,0.23852
17421.0,-19.385,-0.31549,7.9723,0.23852
17431.0,-20.385,-1.3155,4.9723,0.23852
17441.0,-24.385,-2.3155,4.9723,0.23852
17451.0,-28.385,-2.3155,4.9723,-0.76148
17461.0,-29.385,-2.3155,4.9723,-0.76148
17470.0,-30.385,-3.3155,3.9723,1.2385
17480.0,-33.385,-3.3155,3.9723,1.2385
17490.0,-36.385,-3.3155,1.9723,1.2385
17500.0,-37.385,-4.3155,1.9723,1.2385
17510.0,-42.385,-4.3155,-0.027681,1.2385
17520.0,-46.385,-6.3155,-0.027681,1.2385
17530.0,-47.385,-6.3155,-1.0277,0.23852
17540.0,-49.385,-7.3155,-1.0277,0.23852
17550.0,-54.385,-8.3155,-0.027681,0.23852
17559.0,-57.385,-9.3155,-0.027681,0.23852
17569.0,-59.385,-9.3155,-1.0277,3.2385
17579.0,-64.385,-11.315,-1.0277,3.2385
17589.0,-66.385,-11.315,-1.0277,1.2385
17599.0,-69.385,-11.315,0.97232,3.2385
17609.0,-71.385,-12.315,-4.0277,1.2385
17619.0,-76.385,-14.315,-3.0277,2.2385
17629.0,-78.385,-14.315,-2.0277,2.2385
17639.0,-83.385,-15.315,-2.0277,3.2385
17648.0,-87.385,-16.315,-3.0277,2.2385
17658.0,-88.385,-17.315,-3.0277,2.2385
17668.0,-93.385,-17.315,-2.0277,1.2385
17678.0,-96.385,-17.315,-2.0277,2.2385
17688.0,-99.385,-18.315,-1.0277,3.2385
17698.0,-102.39,-19.315,-3.0277,1.2385
17708.0,-106.39,-21.315,-3.0277,2.2385
17718.0,-108.39,-18.315,-4.0277,1.2385
17728.0,-111.39,-20.315,-4.0277,1.2385
17737.0,-114.39,-21.315,-6.0277,1.2385
17747.0,-118.39,-23.315,-10.028,0.23852
17757.0,-121.39,-23.315,-9.0277,0.23852
17767.0,-125.39,-22.315,-8.0277,0.23852
17777.0,-128.39,-23.315,-8.0277,1.2385
17787.0,-130.39,-24.315,-8.0277,1.2385
17797.0,-133.39,-24.315,-9.0277,1.2385
17807.0,-137.39,-25.315,-8.0277,1.2385
17816.0,-142.39,-26.315,-10.028,0.23852
17826.0,-146.39,-26.315,-11.028,-0.76148
17836.0,-151.39,-28.315,-12.028,-0.76148
17846.0,-154.39,-28.315,-14.028,-2.7615
17856.0,-160.39,-28.315,-16.028,-2.7615
17866.0,-168.39,-30.315,-15.028,-1.7615
17876.0,-176.39,-30.315,-14.028,-1.7615
17886.0,-176.39,-29.315,-13.028,-0.76148
17896.0,-171.39,-27.315,-13.028,-1.7615
17905.0,-164.39,-25.315,-12.028,2.2385
17915.0,-150.39,-24.315,-12.028,2.2385
17925.0,-150.39,-24.315,-10.028,1.2385
17935.0,-114.39,-16.315,-8.0277,2.2385
17945.0,-114.39,-16.315,-2.0277,3.2385
17955.0,-72.385,-10.315,12.972,8.2385
17965.0,-72.385,-10.315,21.972,8.2385
17975.0,-35.385,-3.3155,33.972,11.239
17985.0,-35.385,-3.3155,40.972,14.239
17994.0,-7.385,2.6845,46.972,15.239
18004.0,-7.385,2.6845,50.972,15.239
18014.0,9.615,6.6845,53.972,16.239
18024.0,9.615,6.6845,52.972,14.239
18034.0,22.615,8.6845,51.972,13.239
18044.0,22.615,8.6845,49.972,13.239
18054.0,28.615,10.685,44.972,12.239
18064.0,28.615,10.685,43.972,9.2385
18074.0,32.615,12.685,40.972,5.2385
18083.0,36.615,11.685,37.972,9.2385
18093.0,39.615,13.685,33.972,7.2385
18103.0,41.615,13.685,30.972,6.2385
18113.0,39.615,12.685,31.972,7.2385
18123.0,38.615,14.685,28.972,7.2385
18133.0,37.615,14.685,29.972,6.2385
18143.0,40.615,16.685,21.972,5.2385
18153.0,39.615,14.685,19.972,3.2385
18162.0,40.615,15.685,16.972,3.2385
18172.0,41.615,15.685,11.972,3.2385
18182.0,44.615,15.685,14.972,4.2385
18192.0,47.615,16.685,13.972,2.2385
18202.0,50.615,16.685,13.972,3.2385
18212.0,51.615,17.685,16.972,5.2385
18222.0,53.615,16.685,15.972,5.2385
18232.0,55.615,16.685,20.972,6.2385
18242.0,56.615,18.685,23.972,8.2385
18251.0,57.615,17.685,22.972,7.2385
18261.0,57.615,17.685,24.972,8.2385
18271.0,57.615,17.685,24.972,6.2385
18281.0,55.615,16.685,24.972,7.2385
18291.0,53.615,14.685,26.972,7.2385
18301.0,50.615,14.685,26.972,7.2385
18311.0,49.615,15.685,23.972,6.2385
18321.0,45.615,13.685,23.972,4.2385
18331.0,42.615,12.685,23.972,5.2385
18340.0,39.615,11.685,22.972,5.2385
18350.0,37.615,11.685,19.972,4.2385
18360.0,34.615,9.6845,19.972,4.2385
18370.0,32.615,10.685,17.972,4.2385
18380.0,29.615,8.6845,17.972,2.2385
18390.0,28.615,9.6845,15.972,3.2385
18400.0,26.615,8.6845,15.972,3.2385
18410.0,23.615,6.6845,17.972,4.2385
18419.0,22.615,8.6845,12.972,3.2385
18429.0,20.615,6.6845,12.972,3.2385
18439.0,18.615,7.6845,11.972,2.2385
18449.0,18.615,6.6845,11.972,2.2385
18459.0,16.615,7.6845,11.972,2.2385
18469.0,15.615,7.6845,11.972,2.2385
18479.0,11.615,5.6845,8.9723,2.2385
18489.0,9.615,5.6845,8.9723,2.2385
18499.0,7.615,5.6845,8.9723,5.2385
18508.0,3.615,3.6845,8.9723,5.2385
18518.0,2.615,4.6845,8.9723,4.2385
18528.0,-0.38503,2.6845,8.9723,4.2385
18538.0,-2.385,1.6845,5.9723,4.2385
18548.0,-7.385,1.6845,5.9723,4.2385
18558.0,-10.385,-0.31549,6.9723,3.2385
18568.0,-14.385,0.68451,6.9723,3.2385
18578.0,-18.385,-1.3155,7.9723,4.2385
18588.0,-21.385,-2.3155,7.9723,4.2385
18597.0,-24.385,-2.3155,9.9723,6.2385
18607.0,-28.385,-3.3155,9.9723,6.2385
18617.0,-32.385,-5.3155,4.9723,6.2385
18627.0,-37.385,-5.3155,4.9723,6.2385
18637.0,-40.385,-7.3155,4.9723,5.2385
18647.0,-45.385,-8.3155,3.9723,6.2385
18657.0,-45.385,-8.3155,5.9723,5.2385
18667.0,-52.385,-8.3155,4.9723,3.2385
18677.0,-52.385,-8.3155,5.9723,5.2385
18686.0,-60.385,-10.315,6.9723,4.2385
18696.0,-60.385,-10.315,5.9723,7.2385
18706.0,-67.385,-12.315,7.9723,6.2385
18716.0,-67.385,-12.315,6.9723,7.2385
18726.0,-76.385,-13.315,4.9723,6.2385
18736.0,-76.385,-13.315,6.9723,5.2385
18746.0,-82.385,-14.315,4.9723,6.2385
18756.0,-82.385,-14.315,1.9723,6.2385
18765.0,-89.385,-15.315,2.9723,5.2385
18775.0,-89.385,-15.315,0.97232,4.2385
18785.0,-97.385,-17.315,2.9723,5.2385
18795.0,-97.385,-17.315,1.9723,4.2385
18805.0,-103.39,-18.315,-2.0277,4.2385
18815.0,-106.39,-19.315,-1.0277,2.2385
18825.0,-108.39,-20.315,-3.0277,3.2385
18835.0,-113.39,-20.315,-4.0277,3.2385
18845.0,-118.39,-21.315,-4.0277,2.2385
18854.0,-124.39,-22.315,-5.0277,3.2385
18864.0,-130.39,-24.315,-6.0277,4.2385
18874.0,-134.39,-25.315,-8.0277,1.2385
18884.0,-142.39,-27.315,-8.0277,2.2385
18894.0,-149.39,-28.315,-7.0277,1.2385
18904.0,-158.39,-30.315,-8.0277,3.2385
18914.0,-164.39,-30.315,-7.0277,4.2385
18924.0,-166.39,-29.315,-3.0277,8.2385
18934.0,-162.39,-27.315,-5.0277,6.2385
18943.0,-153.39,-26.315,-4.0277,7.2385
18953.0,-139.39,-23.315,-5.0277,5.2385
18963.0,-122.39,-21.315,-3.0277,6.2385
18973.0,-103.39,-16.315,4.9723,7.2385
18983.0,-82.385,-13.315,12.972,10.239
18993.0,-61.385,-8.3155,26.972,15.239
19003.0,-43.385,-5.3155,34.972,14.239
19013.0,-25.385,-2.3155,43.972,16.239
19023.0,-11.385,0.68451,50.972,18.239
19032.0,-1.385,2.6845,54.972,20.239
19042.0,5.615,4.6845,57.972,21.239
19052.0,13.615,5.6845,56.972,20.239
19062.0,20.615,7.6845,55.972,18.239
19072.0,22.615,8.6845,54.972,17.239
19082.0,26.615,8.6845,54.972,15.239
19092.0,29.615,9.6845,50.972,15.239
19102.0,33.615,9.6845,49.972,13.239
19111.0,36.615,10.685,43.972,11.239
19121.0,38.615,11.685,42.972,11.239
19131.0,34.615,10.685,37.972,12.239
19141.0,34.615,9.6845,35.972,10.239
19151.0,28.615,8.6845,35.972,11.239
19161.0,28.615,8.6845,32.972,11.239
19171.0,27.615,8.6845,27.972,9.2385
19181.0,27.615,10.685,25.972,9.2385
19191.0,27.615,9.6845,22.972,9.2385
19200.0,27.615,9.6845,19.972,8.2385
19210.0,28.615,10.685,20.972,8.2385
19220.0,31.615,11.685,18.972,8.2385
19230.0,32.615,9.6845,18.972,7.2385
19240.0,34.615,9.6845,20.972,9.2385
19250.0,36.615,10.685,22.972,10.239
19260.0,34.615,9.6845,25.972,12.239
19270.0,35.615,10.685,27.972,10.239
19280.0,36.615,10.685,28.972,12.239
19289.0,34.615,9.6845,28.972,11.239
19299.0,32.615,8.6845,33.972,14.239
19309.0,30.615,8.6845,33.972,14.239
19319.0,28.615,7.6845,32.972,12.239
19329.0,24.615,6.6845,29.972,11.239
19339.0,21.615,5.6845,28.972,13.239
19349.0,18.615,4.6845,28.972,12.239
19359.0,13.615,2.6845,28.972,11.239
19369.0,10.615,1.6845,28.972,9.2385
19378.0,7.615,1.6845,27.972,11.239
19388.0,7.615,1.6845,25.972,10.239
19398.0,1.615,-1.3155,26.972,11.239
19408.0,1.615,-1.3155,26.972,11.239
19418.0,-2.385,-1.3155,24.972,11.239
19428.0,-2.385,-1.3155,23.972,11.239
19438.0,-5.385,-2.3155,23.972,11.239
19448.0,-5.385,-2.3155,24.972,10.239
19457.0,-7.385,-3.3155,21.972,9.2385
19467.0,-7.385,-3.3155,20.972,9.2385
19477.0,-9.385,-3.3155,20.972,9.2385
19487.0,-9.385,-3.3155,21.972,11.239
19497.0,-12.385,-4.3155,21.972,11.239
19507.0,-12.385,-4.3155,20.972,11.239
19517.0,-12.385,-3.3155,20.972,11.239
19527.0,-12.385,-3.3155,20.972,11.239
19537.0,-16.385,-4.3155,20.972,11.239
19546.0,-19.385,-4.3155,19.972,12.239
19556.0,-20.385,-4.3155,19.972,12.239
19566.0,-21.385,-6.3155,17.972,11.239
19576.0,-24.385,-7.3155,17.972,11.239
19586.0,-28.385,-7.3155,16.972,13.239
19596.0,-29.385,-6.3155,16.972,13.239
19606.0,-32.385,-7.3155,16.972,13.239
19616.0,-35.385,-8.3155,16.972,13.239
19626.0,-37.385,-9.3155,19.972,15.239
19635.0,-41.385,-10.315,19.972,15.239
19645.0,-44.385,-8.3155,21.972,17.239
19655.0,-50.385,-11.315,21.972,17.239
19665.0,-52.385,-11.315,19.972,17.239
19675.0,-56.385,-12.315,19.972,17.239
19685.0,-57.385,-12.315,19.972,17.239
19695.0,-61.385,-13.315,20.972,16.239
19705.0,-63.385,-14.315,19.972,16.239
19715.0,-68.385,-14.315,19.972,16.239
19724.0,-71.385,-14.315,20.972,18.239
19734.0,-74.385,-16.315,17.972,17.239
19744.0,-77.385,-16.315,21.972,18.239
19754.0,-81.385,-16.315,20.972,18.239
19764.0,-84.385,-17.315,19.972,18.239
19774.0,-87.385,-19.315,21.972,19.239
19784.0,-90.385,-19.315,20.972,20.239
19794.0,-97.385,-19.315,20.972,19.239
19803.0,-99.385,-21.315,19.972,19.239
19813.0,-105.39,-21.315,19.972,19.239
19823.0,-108.39,-22.315,16.972,19.239
19833.0,-114.39,-23.315,17.972,18.239
19843.0,-121.39,-24.315,14.972,18.239
19853.0,-125.39,-24.315,14.972,17.239
19863.0,-134.39,-27.315,13.972,18.239
19873.0,-142.39,-28.315,14.972,20.239
19883.0,-145.39,-27.315,17.972,19.239
19892.0,-143.39,-26.315,17.972,20.239
19902.0,-135.39,-24.315,15.972,21.239
19912.0,-124.39,-23.315,15.972,21.239
19922.0,-108.39,-21.315,16.972,21.239
19932.0,-91.385,-17.315,20.972,22.239
19942.0,-72.385,-13.315,26.972,23.239
19952.0,-53.385,-10.315,35.972,25.239
19962.0,-34.385,-6.3155,47.972,28.239
19972.0,-17.385,-2.3155,57.972,30.239
19981.0,-5.385,-0.31549,65.972,33.239
19991.0,5.615,1.6845,71.972,34.239
20001.0,15.615,4.6845,77.972,38.239
20011.0,22.615,5.6845,79.972,36.239
20021.0,27.615,6.6845,81.972,35.239
20031.0,32.615,7.6845,78.972,34.239
20041.0,35.615,8.6845,76.972,33.239
20051.0,38.615,8.6845,75.972,33.239
20061.0,41.615,8.6845,73.972,32.239
20070.0,42.615,9.6845,69.972,31.239
20080.0,45.615,10.685,67.972,29.239
20090.0,42.615,8.6845,65.972,29.239
20100.0,39.615,8.6845,62.972,28.239
20110.0,36.615,8.6845,63.972,29.239
20120.0,36.615,8.6845,58.972,29.239
20130.0,34.615,9.6845,57.972,28.239
20140.0,34.615,9.6845,54.972,29.239
20149.0,33.615,7.6845,48.972,25.239
20159.0,33.615,7.6845,45.972,27.239
20169.0,37.615,8.6845,44.972,26.239
20179.0,37.615,8.6845,44.972,24.239
20189.0,43.615,9.6845,46.972,23.239
20199.0,43.615,9.6845,45.972,26.239
20209.0,48.615,11.685,47.972,28.239
20219.0,48.615,11.685,53.972,29.239
20229.0,53.615,12.685,58.972,31.239
20238.0,53.615,12.685,55.972,30.239
20248.0,51.615,11.685,58.972,30.239
20258.0,51.615,11.685,58.972,29.239
20268.0,51.615,11.685,58.972,29.239
20278.0,50.615,10.685,57.972,27.239
20288.0,49.615,11.685,56.972,29.239
20298.0,46.615,9.6845,57.972,30.239
20308.0,41.615,8.6845,58.972,28.239
20318.0,39.615,8.6845,57.972,29.239
20327.0,37.615,8.6845,58.972,28.239
20337.0,34.615,7.6845,56.972,28.239
20347.0,30.615,6.6845,57.972,29.239
20357.0,27.615,5.6845,55.972,26.239
20367.0,23.615,4.6845,54.972,28.239
20377.0,20.615,3.6845,54.972,26.239
20387.0,18.615,2.6845,52.972,26.239
20397.0,17.615,5.6845,50.972,24.239
20407.0,12.615,2.6845,44.972,23.239
20416.0,12.615,1.6845,45.972,25.239
20426.0,11.615,1.6845,45.972,24.239
20436.0,7.615,0.68451,45.972,23.239
20446.0,4.615,-0.31549,46.972,25.239
20456.0,1.615,-1.3155,45.972,25.239
20466.0,0.61497,-1.3155,45.972,25.239
20476.0,-2.385,-1.3155,45.972,25.239
20486.0,-4.385,-2.3155,40.972,23.239
20495.0,-8.385,-3.3155,42.972,25.239
20505.0,-10.385,-4.3155,41.972,24.239
20515.0,-14.385,-3.3155,38.972,25.239
20525.0,-16.385,-5.3155,39.972,25.239
20535.0,-19.385,-5.3155,39.972,24.239
20545.0,-23.385,-5.3155,39.972,24.239
20555.0,-25.385,-7.3155,37.972,24.239
20565.0,-29.385,-6.3155,37.972,24.239
20575.0,-32.385,-7.3155,40.972,25.239
20584.0,-36.385,-9.3155,40.972,25.239
20594.0,-41.385,-8.3155,37.972,25.239
20604.0,-43.385,-11.315,37.972,25.239
20614.0,-46.385,-10.315,39.972,26.239
20624.0,-49.385,-11.315,39.972,26.239
20634.0,-51.385,-12.315,34.972,23.239
20644.0,-57.385,-12.315,34.972,23.239
20654.0,-60.385,-13.315,34.972,23.239
20664.0,-63.385,-14.315,34.972,23.239
20673.0,-67.385,-14.315,34.972,23.239
20683.0,-71.385,-15.315,34.972,23.239
20693.0,-72.385,-16.315,34.972,26.239
20703.0,-76.385,-18.315,34.972,26.239
20713.0,-79.385,-17.315,36.972,25.239
20723.0,-82.385,-18.315,36.972,25.239
20733.0,-87.385,-18.315,31.972,24.239
20743.0,-88.385,-19.315,31.972,24.239
20753.0,-93.385,-19.315,33.972,25.239
20762.0,-95.385,-20.315,31.972,24.239
20772.0,-100.39,-21.315,32.972,26.239
20782.0,-105.39,-21.315,30.972,23.239
20792.0,-108.39,-22.315,30.972,23.239
20802.0,-114.39,-23.315,29.972,23.239
20812.0,-116.39,-22.315,28.972,22.239
20822.0,-124.39,-26.315,26.972,22.239
20832.0,-133.39,-27.315,27.972,22.239
20841.0,-136.39,-26.315,26.972,24.239
20851.0,-136.39,-26.315,27.972,24.239
20861.0,-128.39,-21.315,26.972,24.239
20871.0,-128.39,-21.315,25.972,23.239
20881.0,-99.385,-17.315,25.972,24.239
20891.0,-99.385,-17.315,27.972,26.239
20901.0,-59.385,-9.3155,31.972,27.239
20911.0,-59.385,-9.3155,43.972,29.239
20921.0,-17.385,-2.3155,56.972,33.239
20930.0,-17.385,-2.3155,67.972,34.239
20940.0,13.615,3.6845,74.972,37.239
20950.0,13.615,3.6845,83.972,36.239
20960.0,35.615,9.6845,89.972,38.239
20970.0,35.615,9.6845,91.972,40.239
20980.0,52.615,12.685,90.972,38.239
20990.0,52.615,12.685,90.972,36.239
21000.0,58.615,14.685,88.972,36.239
21010.0,64.615,15.685,88.972,34.239
21019.0,67.615,16.685,86.972,35.239
21029.0,72.615,18.685,88.972,34.239
21039.0,78.615,18.685,83.972,32.239
21049.0,80.615,19.685,78.972,31.239
21059.0,84.615,20.685,75.972,31.239
21069.0,82.615,18.685,75.972,32.239
21079.0,79.615,19.685,72.972,31.239
21089.0,79.615,19.685,71.972,30.239
21099.0,81.615,18.685,67.972,30.239
21108.0,82.615,21.685,64.972,30.239
21118.0,81.615,20.685,63.972,29.239
21128.0,85.615,20.685,60.972,29.239
21138.0,85.615,21.685,58.972,27.239
21148.0,88.615,21.685,60.972,28.239
21158.0,90.615,20.685,59.972,27.239
21168.0,93.615,22.685,60.972,27.239
21178.0,96.615,24.685,59.972,26.239
21187.0,97.615,24.685,60.972,28.239
21197.0,99.615,24.685,64.972,30.239
21207.0,100.61,24.685,66.972,32.239
21217.0,100.61,25.685,68.972,30.239
21227.0,101.61,25.685,67.972,30.239
21237.0,100.61,25.685,69.972,29.239
21247.0,98.615,25.685,69.972,31.239
21257.0,97.615,24.685,71.972,31.239
21267.0,96.615,24.685,68.972,30.239
21276.0,94.615,23.685,68.972,28.239
21286.0,90.615,21.685,66.972,28.239
21296.0,88.615,21.685,63.972,30.239
21306.0,83.615,20.685,64.972,27.239
21316.0,81.615,20.685,61.972,28.239
21326.0,80.615,20.685,63.972,28.239
21336.0,78.615,18.685,61.972,28.239
21346.0,76.615,18.685,62.972,28.239
21356.0,73.615,18.685,62.972,29.239
21365.0,70.615,16.685,61.972,26.239
21375.0,70.615,16.685,63.972,29.239
21385.0,71.615,15.685,59.972,27.239
21395.0,65.615,15.685,55.972,27.239
21405.0,63.615,13.685,57.972,27.239
21415.0,63.615,13.685,51.972,27.239
21425.0,61.615,13.685,53.972,28.239
21435.0,59.615,11.685,51.972,26.239
21445.0,59.615,13.685,51.972,26.239
21454.0,54.615,12.685,53.972,27.239
21464.0,52.615,11.685,51.972,28.239
21474.0,51.615,12.685,50.972,29.239
21484.0,48.615,11.685,51.972,29.239
21494.0,46.615,10.685,48.972,28.239
21504.0,44.615,8.6845,47.972,27.239
21514.0,41.615,9.6845,45.972,26.239
21524.0,35.615,9.6845,44.972,27.239
21533.0,32.615,7.6845,47.972,27.239
21543.0,30.615,6.6845,47.972,28.239
21553.0,28.615,6.6845,47.972,28.239
21563.0,26.615,4.6845,48.972,28.239
21573.0,22.615,5.6845,48.972,28.239
21583.0,22.615,5.6845,49.972,30.239
21593.0,12.615,3.6845,49.972,30.239
21603.0,12.615,3.6845,45.972,29.239
21613.0,6.615,1.6845,45.972,29.239
21622.0,6.615,1.6845,47.972,29.239
21632.0,-3.385,0.68451,47.972,29.239
21642.0,-3.385,0.68451,47.972,30.239
21652.0,-10.385,-1.3155,47.972,30.239
21662.0,-10.385,-1.3155,44.972,29.239
21672.0,-19.385,-4.3155,44.972,29.239
21682.0,-19.385,-4.3155,46.972,31.239
21692.0,-28.385,-5.3155,46.972,31.239
21702.0,-28.385,-5.3155,43.972,30.239
21711.0,-33.385,-7.3155,43.972,30.239
21721.0,-33.385,-7.3155,42.972,29.239
21731.0,-37.385,-7.3155,42.972,29.239
21741.0,-39.385,-8.3155,42.972,28.239
21751.0,-44.385,-9.3155,42.972,28.239
21761.0,-46.385,-8.3155,38.972,28.239
21771.0,-51.385,-10.315,41.972,29.239
21781.0,-53.385,-10.315,41.972,30.239
21791.0,-58.385,-11.315,39.972,29.239
21800.0,-62.385,-13.315,40.972,28.239
21810.0,-66.385,-13.315,36.972,27.239
21820.0,-71.385,-15.315,34.972,28.239
21830.0,-77.385,-17.315,35.972,28.239
21840.0,-81.385,-16.315,35.972,27.239
21850.0,-89.385,-18.315,34.972,26.239
21860.0,-95.385,-18.315,34.972,28.239
21870.0,-97.385,-17.315,35.972,29.239
21879.0,-91.385,-15.315,32.972,27.239
21889.0,-81.385,-13.315,34.972,28.239
21899.0,-64.385,-10.315,36.972,31.239
21909.0,-46.385,-7.3155,38.972,33.239
21919.0,-26.385,-3.3155,44.972,32.239
21929.0,-5.385,0.68451,55.972,34.239
21939.0,13.615,4.6845,68.972,37.239
21949.0,32.615,7.6845,77.972,40.239
21959.0,47.615,11.685,86.972,43.239
21968.0,59.615,13.685,95.972,45.239
21978.0,69.615,15.685,98.972,45.239
21988.0,77.615,17.685,97.972,45.239
21998.0,83.615,17.685,96.972,43.239
22008.0,89.615,20.685,99.972,45.239
22018.0,94.615,20.685,96.972,43.239
22028.0,98.615,20.685,94.972,42.239
22038.0,99.615,20.685,93.972,41.239
22048.0,101.61,22.685,88.972,40.239
22057.0,105.61,23.685,88.972,41.239
22067.0,107.61,23.685,86.972,39.239
22077.0,103.61,22.685,84.972,39.239
22087.0,99.615,22.685,79.972,38.239
22097.0,99.615,21.685,76.972,35.239
22107.0,98.615,21.685,74.972,35.239
22117.0,98.615,20.685,68.972,35.239
22127.0,99.615,21.685,68.972,34.239
22137.0,99.615,21.685,65.972,35.239
22146.0,99.615,22.685,61.972,33.239
22156.0,101.61,23.685,62.972,33.239
22166.0,105.61,23.685,63.972,31.239
22176.0,107.61,23.685,61.972,32.239
22186.0,110.61,23.685,61.972,34.239
22196.0,111.61,23.685,64.972,35.239
22206.0,113.61,24.685,66.972,36.239
22216.0,113.61,24.685,66.972,35.239
22225.0,113.61,23.685,67.972,35.239
22235.0,113.61,22.685,69.972,37.239
22245.0,111.61,22.685,71.972,37.239
22255.0,111.61,21.685,70.972,36.239
22265.0,107.61,21.685,69.972,36.239
22275.0,103.61,20.685,70.972,35.239
22285.0,99.615,18.685,67.972,35.239
22295.0,97.615,17.685,68.972,34.239
22305.0,94.615,17.685,65.972,33.239
22314.0,94.615,17.685,62.972,34.239
22324.0,87.615,16.685,64.972,34.239
22334.0,87.615,16.685,61.972,32.239
22344.0,80.615,14.685,61.972,33.239
22354.0,80.615,14.685,60.972,33.239
22364.0,76.615,12.685,56.972,31.239
22374.0,76.615,12.685,56.972,32.239
22384.0,69.615,11.685,57.972,32.239
22394.0,69.615,11.685,54.972,30.239
22403.0,63.615,9.6845,53.972,31.239
22413.0,63.615,9.6845,52.972,31.239
22423.0,56.615,7.6845,54.972,31.239
22433.0,56.615,7.6845,49.972,31.239
22443.0,50.615,5.6845,51.972,33.239
22453.0,50.615,5.6845,50.972,32.239
22463.0,48.615,4.6845,51.972,32.239
22473.0,45.615,3.6845,52.972,30.239
22483.0,42.615,3.6845,48.972,31.239
22492.0,37.615,2.6845,51.972,33.239
22502.0,36.615,1.6845,50.972,33.239
22512.0,32.615,1.6845,48.972,33.239
22522.0,30.615,-0.31549,49.972,34.239
22532.0,25.615,-0.31549,51.972,34.239
22542.0,22.615,-2.3155,50.972,35.239
22552.0,19.615,-2.3155,49.972,34.239
22562.0,15.615,-2.3155,49.972,34.239
22571.0,13.615,-5.3155,49.972,36.239
22581.0,7.615,-4.3155,49.972,36.239
22591.0,3.615,-7.3155,51.972,37.239
22601.0,1.615,-7.3155,51.972,37.239
22611.0,-1.385,-7.3155,50.972,37.239
22621.0,-4.385,-7.3155,50.972,37.239
22631.0,-7.385,-9.3155,49.972,37.239
22641.0,-9.385,-9.3155,49.972,37.239
22651.0,-14.385,-11.315,49.972,38.239
22660.0,-18.385,-10.315,49.972,38.239
22670.0,-20.385,-12.315,49.972,38.239
22680.0,-21.385,-13.315,49.972,38.239
22690.0,-25.385,-13.315,50.972,38.239
22700.0,-30.385,-14.315,50.972,38.239
22710.0,-33.385,-13.315,50.972,37.239
22720.0,-37.385,-15.315,50.972,37.239
22730.0,-40.385,-15.315,52.972,40.239
22740.0,-43.385,-15.315,52.972,40.239
22749.0,-48.385,-17.315,51.972,40.239
22759.0,-53.385,-18.315,51.972,40.239
22769.0,-59.385,-20.315,50.972,41.239
22779.0,-65.385,-21.315,50.972,41.239
22789.0,-70.385,-21.315,49.972,40.239
22799.0,-76.385,-21.315,49.972,40.239
22809.0,-82.385,-24.315,49.972,41.239
22819.0,-87.385,-25.315,49.972,41.239
22829.0,-94.385,-24.315,49.972,39.239
22838.0,-95.385,-24.315,49.972,43.239
22848.0,-89.385,-21.315,50.972,43.239
22858.0,-80.385,-20.315,51.972,42.239
22868.0,-67.385,-18.315,50.972,43.239
22878.0,-51.385,-15.315,52.972,43.239
22888.0,-31.385,-12.315,58.972,46.239
22898.0,-12.385,-9.3155,66.972,48.239
22908.0,6.615,-4.3155,77.972,51.239
22917.0,22.615,-1.3155,90.972,54.239
22927.0,38.615,1.6845,98.972,57.239
22937.0,51.615,3.6845,109.97,59.239
22947.0,61.615,6.6845,110.97,59.239
22957.0,68.615,7.6845,114.97,60.239
22967.0,75.615,9.6845,114.97,62.239
22977.0,81.615,9.6845,114.97,59.239
22987.0,85.615,11.685,113.97,59.239
22997.0,87.615,11.685,112.97,58.239
23006.0,91.615,11.685,111.97,56.239
23016.0,94.615,12.685,110.97,57.239
23026.0,96.615,13.685,106.97,55.239
23036.0,97.615,12.685,106.97,54.239
23046.0,97.615,12.685,102.97,52.239
23056.0,89.615,12.685,100.97,54.239
23066.0,89.615,12.685,97.972,53.239
23076.0,87.615,11.685,94.972,52.239
23086.0,87.615,11.685,91.972,52.239
23095.0,88.615,12.685,90.972,53.239
23105.0,88.615,12.685,85.972,51.239
23115.0,89.615,12.685,87.972,51.239
23125.0,89.615,12.685,84.972,51.239
23135.0,97.615,13.685,84.972,51.239
23145.0,97.615,13.685,86.972,53.239
23155.0,103.61,14.685,86.972,52.239
23165.0,103.61,14.685,89.972,53.239
23175.0,108.61,15.685,91.972,54.239
23184.0,108.61,15.685,95.972,54.239
23194.0,111.61,14.685,97.972,55.239
23204.0,113.61,15.685,100.97,56.239
23214.0,112.61,16.685,97.972,55.239
23224.0,110.61,13.685,97.972,56.239
23234.0,108.61,13.685,100.97,57.239
23244.0,107.61,14.685,99.972,56.239
23254.0,106.61,13.685,99.972,53.239
23263.0,102.61,14.685,96.972,54.239
23273.0,100.61,13.685,97.972,53.239
23283.0,98.615,12.685,94.972,53.239
23293.0,96.615,12.685,94.972,52.239
23303.0,93.615,11.685,93.972,51.239
23313.0,92.615,11.685,91.972,50.239
23323.0,88.615,10.685,89.972,51.239
23333.0,86.615,8.6845,89.972,49.239
23343.0,86.615,9.6845,86.972,50.239
23352.0,82.615,8.6845,85.972,49.239
23362.0,81.615,8.6845,85.972,49.239
23372.0,81.615,7.6845,84.972,48.239
23382.0,77.615,7.6845,81.972,47.239
23392.0,76.615,7.6845,80.972,46.239
23402.0,72.615,6.6845,80.972,46.239
23412.0,70.615,5.6845,81.972,47.239
23422.0,69.615,5.6845,77.972,45.239
23432.0,67.615,5.6845,78.972,46.239
23441.0,64.615,4.6845,78.972,45.239
23451.0,61.615,3.6845,77.972,45.239
23461.0,57.615,1.6845,79.972,46.239
23471.0,52.615,1.6845,80.972,47.239
23481.0,52.615,1.6845,77.972,45.239
23491.0,46.615,-0.31549,78.972,46.239
23501.0,44.615,0.68451,76.972,46.239
23511.0,40.615,-1.3155,76.972,44.239
23520.0,37.615,-2.3155,73.972,45.239
23530.0,34.615,-1.3155,74.972,45.239
23540.0,30.615,-3.3155,70.972,44.239
23550.0,27.615,-3.3155,71.972,43.239
23560.0,23.615,-5.3155,69.972,45.239
23570.0,19.615,-5.3155,69.972,45.239
23580.0,16.615,-5.3155,71.972,46.239
23590.0,13.615,-6.3155,71.972,45.239
23600.0,9.615,-8.3155,73.972,46.239
23609.0,5.615,-8.3155,72.972,46.239
23619.0,2.615,-9.3155,71.972,45.239
23629.0,-0.38503,-11.315,71.972,45.239
23639.0,-4.385,-10.315,70.972,45.239
23649.0,-7.385,-11.315,70.972,45.239
23659.0,-10.385,-10.315,64.972,42.239
23669.0,-13.385,-12.315,64.972,42.239
23679.0,-17.385,-14.315,68.972,43.239
23689.0,-20.385,-12.315,68.972,43.239
23698.0,-22.385,-13.315,66.972,43.239
23708.0,-27.385,-14.315,66.972,43.239
23718.0,-30.385,-16.315,61.972,42.239
23728.0,-34.385,-15.315,61.972,42.239
23738.0,-39.385,-17.315,60.972,41.239
23748.0,-45.385,-18.315,60.972,41.239
23758.0,-52.385,-19.315,57.972,39.239
23768.0,-58.385,-20.315,57.972,39.239
23778.0,-58.385,-20.315,62.972,42.239
23787.0,-61.385,-20.315,62.972,42.239
23797.0,-61.385,-20.315,60.972,43.239
23807.0,-40.385,-15.315,60.972,43.239
23817.0,-40.385,-15.315,60.972,43.239
23827.0,-4.385,-7.3155,60.972,43.239
23837.0,-4.385,-7.3155,63.972,44.239
23847.0,35.615,-0.31549,72.972,45.239
23857.0,35.615,-0.31549,83.972,48.239
23866.0,72.615,7.6845,94.972,50.239
23876.0,72.615,7.6845,105.97,53.239
23886.0,99.615,13.685,114.97,55.239
23896.0,99.615,13.685,116.97,56.239
23906.0,119.61,17.685,118.97,55.239
23916.0,119.61,17.685,120.97,56.239
23926.0,128.61,19.685,123.97,55.239
23936.0,134.61,20.685,118.97,52.239
23946.0,138.61,21.685,117.97,52.239
23955.0,144.61,21.685,112.97,50.239
23965.0,147.61,23.685,112.97,49.239
23975.0,152.61,24.685,110.97,49.239
23985.0,154.61,24.685,108.97,48.239
23995.0,159.61,26.685,107.97,48.239
24005.0,159.61,25.685,102.97,46.239
24015.0,158.61,26.685,100.97,46.239
24025.0,157.61,25.685,96.972,44.239
24035.0,159.61,27.685,96.972,44.239
24044.0,160.61,26.685,91.972,43.239
24054.0,161.61,26.685,85.972,40.239
24064.0,162.61,27.685,82.972,40.239
24074.0,165.61,29.685,83.972,38.239
24084.0,165.61,28.685,82.972,39.239
24094.0,169.61,28.685,83.972,39.239
24104.0,171.61,28.685,82.972,38.239
24114.0,174.61,28.685,84.972,40.239
24124.0,174.61,29.685,83.972,39.239
24133.0,176.61,29.685,85.972,40.239
24143.0,177.61,29.685,87.972,40.239
24153.0,177.61,29.685,87.972,39.239
24163.0,176.61,28.685,86.972,38.239
24173.0,174.61,28.685,85.972,38.239
24183.0,169.61,27.685,86.972,38.239
24193.0,167.61,26.685,84.972,36.239
24203.0,163.61,25.685,83.972,37.239
24212.0,158.61,23.685,82.972,35.239
24222.0,154.61,22.685,82.972,33.239
24232.0,148.61,20.685,81.972,35.239
24242.0,145.61,19.685,79.972,33.239
24252.0,142.61,17.685,80.972,33.239
24262.0,138.61,18.685,76.972,34.239
24272.0,133.61,17.685,75.972,33.239
24282.0,132.61,17.685,77.972,32.239
24292.0,129.61,16.685,75.972,34.239
24301.0,126.61,15.685,74.972,32.239
24311.0,125.61,14.685,70.972,32.239
24321.0,121.61,13.685,73.972,29.239
24331.0,120.61,13.685,68.972,32.239
24341.0,116.61,12.685,70.972,31.239
24351.0,113.61,12.685,70.972,32.239
24361.0,109.61,10.685,68.972,33.239
24371.0,109.61,9.6845,69.972,31.239
24381.0,104.61,9.6845,70.972,30.239
24390.0,102.61,9.6845,64.972,30.239
24400.0,99.615,8.6845,65.972,30.239
24410.0,96.615,7.6845,65.972,31.239
24420.0,94.615,6.6845,63.972,30.239
24430.0,92.615,5.6845,61.972,29.239
24440.0,89.615,5.6845,61.972,31.239
24450.0,86.615,5.6845,61.972,30.239
24460.0,82.615,4.6845,60.972,31.239
24470.0,81.615,4.6845,63.972,31.239
24479.0,78.615,3.6845,64.972,32.239
24489.0,76.615,2.6845,61.972,29.239
24499.0,73.615,3.6845,61.972,31.239
24509.0,71.615,1.6845,57.972,28.239
24519.0,68.615,0.68451,57.972,29.239
24529.0,68.615,0.68451,56.972,28.239
24539.0,61.615,-0.31549,55.972,28.239
24549.0,61.615,-0.31549,56.972,29.239
24558.0,55.615,-1.3155,55.972,29.239
24568.0,55.615,-1.3155,55.972,28.239
24578.0,48.615,-3.3155,54.972,29.239
24588.0,48.615,-3.3155,53.972,29.239
24598.0,42.615,-5.3155,54.972,29.239
24608.0,42.615,-5.3155,50.972,27.239
24618.0,31.615,-7.3155,50.972,26.239
24628.0,31.615,-7.3155,48.972,26.239
24638.0,25.615,-8.3155,51.972,27.239
24647.0,25.615,-8.3155,50.972,26.239
24657.0,22.615,-9.3155,49.972,26.239
24667.0,16.615,-10.315,46.972,26.239
24677.0,14.615,-11.315,46.972,26.239
24687.0,12.615,-12.315,46.972,25.239
24697.0,6.615,-12.315,46.972,25.239
24707.0,4.615,-12.315,45.972,26.239
24717.0,0.61497,-14.315,45.972,26.239
24727.0,-3.385,-15.315,47.972,28.239
24736.0,-5.385,-16.315,47.972,28.239
24746.0,-9.385,-17.315,45.972,26.239
24756.0,-16.385,-17.315,45.972,26.239
24766.0,-20.385,-20.315,42.972,25.239
24776.0,-25.385,-20.315,42.972,25.239
24786.0,-32.385,-23.315,39.972,26.239
24796.0,-37.385,-24.315,39.972,26.239
24806.0,-44.385,-25.315,40.972,25.239
24816.0,-50.385,-24.315,40.972,25.239
24825.0,-52.385,-24.315,43.972,27.239
24835.0,-48.385,-23.315,43.972,27.239
24845.0,-38.385,-19.315,42.972,28.239
24855.0,-26.385,-17.315,42.972,26.239
24865.0,-9.385,-15.315,39.972,28.239
24875.0,12.615,-10.315,45.972,26.239
24885.0,36.615,-7.3155,55.972,31.239
24895.0,55.615,-1.3155,71.972,35.239
24904.0,74.615,1.6845,80.972,37.239
24914.0,92.615,4.6845,91.972,40.239
24924.0,109.61,8.6845,97.972,42.239
24934.0,122.61,11.685,103.97,42.239
24944.0,132.61,13.685,106.97,41.239
24954.0,139.61,15.685,105.97,43.239
24964.0,147.61,16.685,105.97,40.239
24974.0,153.61,17.685,103.97,40.239
24984.0,159.61,17.685,103.97,39.239
24993.0,164.61,19.685,100.97,39.239
25003.0,168.61,20.685,98.972,38.239
25013.0,173.61,21.685,96.972,37.239
25023.0,175.61,21.685,94.972,36.239
25033.0,178.61,22.685,93.972,35.239
25043.0,176.61,21.685,90.972,35.239
25053.0,175.61,22.685,85.972,32.239
25063.0,175.61,22.685,82.972,31.239
25073.0,176.61,23.685,77.972,31.239
25082.0,177.61,23.685,74.972,29.239
25092.0,178.61,23.685,71.972,29.239
25102.0,181.61,24.685,69.972,30.239
25112.0,181.61,24.685,70.972,31.239
25122.0,185.61,25.685,73.972,32.239
25132.0,186.61,25.685,72.972,31.239
25142.0,189.61,25.685,75.972,31.239
25152.0,191.61,25.685,75.972,32.239
25162.0,193.61,25.685,78.972,32.239
25171.0,193.61,25.685,75.972,33.239
25181.0,193.61,26.685,80.972,33.239
25191.0,193.61,25.685,78.972,35.239
25201.0,191.61,25.685,80.972,35.239
25211.0,192.61,26.685,81.972,34.239
25221.0,189.61,23.685,82.972,35.239
25231.0,186.61,23.685,80.972,35.239
25241.0,184.61,23.685,83.972,35.239
25250.0,182.61,21.685,80.972,34.239
25260.0,182.61,21.685,80.972,33.239
25270.0,175.61,20.685,80.972,34.239
25280.0,175.61,20.685,76.972,34.239
25290.0,168.61,19.685,78.972,35.239
25300.0,168.61,19.685,76.972,34.239
25310.0,164.61,17.685,74.972,31.239
25320.0,164.61,17.685,73.972,32.239
25330.0,155.61,14.685,72.972,31.239
25339.0,155.61,14.685,72.972,32.239
25349.0,147.61,12.685,74.972,33.239
25359.0,147.61,12.685,72.972,31.239
25369.0,140.61,11.685,70.972,31.239
25379.0,140.61,11.685,66.972,30.239
25389.0,135.61,10.685,64.972,28.239
25399.0,135.61,10.685,65.972,30.239
25409.0,131.61,9.6845,65.972,29.239
25419.0,126.61,8.6845,63.972,29.239
25428.0,121.61,7.6845,62.972,30.239
25438.0,118.61,6.6845,63.972,29.239
25448.0,114.61,5.6845,64.972,29.239
25458.0,112.61,5.6845,65.972,29.239
25468.0,106.61,4.6845,64.972,30.239
25478.0,103.61,4.6845,61.972,30.239
25488.0,99.615,2.6845,64.972,30.239
25498.0,95.615,1.6845,61.972,29.239
25508.0,89.615,-0.31549,60.972,29.239
25517.0,86.615,-0.31549,60.972,29.239
25527.0,81.615,-2.3155,60.972,29.239
25537.0,78.615,-3.3155,58.972,28.239
25547.0,72.615,-4.3155,62.972,31.239
25557.0,69.615,-5.3155,60.972,28.239
25567.0,64.615,-7.3155,60.972,31.239
25577.0,59.615,-7.3155,61.972,31.239
25587.0,56.615,-9.3155,61.972,31.239
25596.0,50.615,-10.315,59.972,32.239
25606.0,45.615,-10.315,60.972,31.239
25616.0,40.615,-13.315,61.972,32.239
25626.0,37.615,-13.315,60.972,32.239
25636.0,33.615,-15.315,59.972,31.239
25646.0,30.615,-15.315,59.972,31.239
25656.0,25.615,-16.315,60.972,35.239
25666.0,22.615,-17.315,60.972,33.239
25676.0,17.615,-17.315,60.972,33.239
25685.0,14.615,-18.315,58.972,31.239
25695.0,8.615,-20.315,56.972,32.239
25705.0,5.615,-19.315,57.972,32.239
25715.0,4.615,-21.315,56.972,31.239
25725.0,-0.38503,-21.315,56.972,31.239
25735.0,-3.385,-21.315,56.972,33.239
25745.0,-7.385,-22.315,56.972,33.239
25755.0,-9.385,-22.315,56.972,33.239
25765.0,-12.385,-23.315,56.972,33.239
25774.0,-19.385,-25.315,54.972,33.239
25784.0,-25.385,-26.315,54.972,33.239
25794.0,-28.385,-27.315,53.972,31.239
25804.0,-33.385,-28.315,53.972,31.239
25814.0,-38.385,-29.315,53.972,33.239
25824.0,-47.385,-30.315,53.972,33.239
25834.0,-52.385,-30.315,52.972,35.239
25844.0,-53.385,-31.315,52.972,35.239
25854.0,-51.385,-28.315,55.972,35.239
25863.0,-39.385,-27.315,55.972,35.239
25873.0,-23.385,-25.315,54.972,34.239
25883.0,-8.385,-22.315,54.972,34.239
25893.0,11.615,-17.315,61.972,37.239
25903.0,31.615,-14.315,61.972,37.239
25913.0,50.615,-9.3155,86.972,44.239
25923.0,70.615,-6.3155,86.972,44.239
25933.0,83.615,-2.3155,95.972,46.239
25942.0,97.615,-0.31549,102.97,46.239
25952.0,110.61,2.6845,108.97,50.239
25962.0,118.61,4.6845,112.97,48.239
25972.0,126.61,7.6845,115.97,50.239
25982.0,133.61,8.6845,114.97,49.239
25992.0,133.61,8.6845,113.97,47.239
26002.0,143.61,10.685,110.97,49.239
26012.0,143.61,10.685,107.97,46.239
26022.0,150.61,10.685,104.97,45.239
26031.0,150.61,10.685,100.97,43.239
26041.0,154.61,12.685,97.972,43.239
26051.0,154.61,12.685,97.972,42.239
26061.0,147.61,10.685,94.972,41.239
26071.0,147.61,10.685,92.972,40.239
26081.0,143.61,10.685,90.972,40.239
26091.0,143.61,10.685,88.972,39.239
26101.0,141.61,11.685,82.972,38.239
26111.0,141.61,11.685,79.972,36.239
26120.0,141.61,11.685,77.972,37.239
26130.0,141.61,11.685,76.972,37.239
26140.0,144.61,11.685,75.972,35.239
26150.0,146.61,10.685,75.972,35.239
26160.0,149.61,13.685,77.972,36.239
26170.0,151.61,12.685,78.972,37.239
26180.0,153.61,13.685,79.972,38.239
26190.0,154.61,12.685,83.972,37.239
26200.0,155.61,13.685,85.972,40.239
26209.0,155.61,13.685,87.972,39.239
26219.0,154.61,12.685,85.972,38.239
26229.0,153.61,12.685,85.972,39.239
26239.0,151.61,11.685,85.972,39.239
26249.0,149.61,11.685,84.972,37.239
26259.0,146.61,10.685,84.972,36.239
26269.0,142.61,10.685,84.972,37.239
26279.0,139.61,9.6845,85.972,37.239
26288.0,135.61,8.6845,83.972,37.239
26298.0,131.61,7.6845,83.972,38.239
26308.0,128.61,7.6845,81.972,36.239
26318.0,125.61,5.6845,81.972,37.239
26328.0,122.61,4.6845,80.972,36.239
26338.0,117.61,3.6845,78.972,34.239
26348.0,114.61,3.6845,75.972,32.239
26358.0,112.61,1.6845,74.972,30.239
26368.0,110.61,1.6845,74.972,33.239
26377.0,106.61,0.68451,73.972,32.239
26387.0,103.61,-1.3155,71.972,34.239
26397.0,100.61,-0.31549,70.972,30.239
26407.0,98.615,-1.3155,66.972,30.239
26417.0,94.615,-2.3155,65.972,30.239
26427.0,93.615,-2.3155,66.972,29.239
26437.0,87.615,-3.3155,66.972,30.239
26447.0,85.615,-5.3155,64.972,29.239
26457.0,79.615,-5.3155,63.972,28.239
26466.0,77.615,-6.3155,62.972,28.239
26476.0,76.615,-7.3155,61.972,27.239
26486.0,71.615,-6.3155,58.972,27.239
26496.0,67.615,-8.3155,56.972,25.239
26506.0,63.615,-8.3155,59.972,27.239
26516.0,60.615,-10.315,60.972,27.239
26526.0,58.615,-9.3155,59.972,27.239
26536.0,52.615,-10.315,57.972,26.239
26546.0,49.615,-11.315,58.972,26.239
26555.0,44.615,-12.315,56.972,27.239
26565.0,40.615,-14.315,55.972,24.239
26575.0,37.615,-14.315,56.972,25.239
26585.0,32.615,-15.315,52.972,25.239
26595.0,27.615,-15.315,52.972,25.239
26605.0,24.615,-16.315,53.972,25.239
26615.0,19.615,-17.315,52.972,26.239
26625.0,14.615,-18.315,54.972,25.239
26634.0,11.615,-19.315,50.972,24.239
26644.0,7.615,-19.315,50.972,25.239
26654.0,2.615,-21.315,50.972,24.239
26664.0,-1.385,-20.315,46.972,25.239
26674.0,-6.385,-22.315,49.972,25.239
26684.0,-10.385,-23.315,49.972,28.239
26694.0,-14.385,-25.315,47.972,25.239
26704.0,-18.385,-26.315,43.972,23.239
26714.0,-22.385,-26.315,43.972,23.239
26723.0,-22.385,-26.315,41.972,23.239
26733.0,-31.385,-28.315,41.972,23.239
26743.0,-31.385,-28.315,41.972,23.239
26753.0,-38.385,-30.315,41.972,23.239
26763.0,-38.385,-30.315,39.972,24.239
26773.0,-48.385,-32.315,39.972,24.239
26783.0,-48.385,-32.315,36.972,20.239
26793.0,-58.385,-34.315,36.972,20.239
26803.0,-58.385,-34.315,35.972,21.239
26812.0,-72.385,-36.315,35.972,21.239
26822.0,-72.385,-36.315,33.972,19.239
26832.0,-84.385,-38.315,33.972,19.239
26842.0,-84.385,-38.315,32.972,22.239
26852.0,-75.385,-34.315,32.972,22.239
26862.0,-75.385,-34.315,31.972,19.239
26872.0,-63.385,-32.315,31.972,19.239
26882.0,-48.385,-30.315,36.972,20.239
26892.0,-28.385,-25.315,36.972,20.239
26901.0,-8.385,-22.315,57.972,25.239
26911.0,12.615,-18.315,57.972,25.239
26921.0,31.615,-15.315,75.972,29.239
26931.0,49.615,-10.315,75.972,29.239
26941.0,64.615,-8.3155,83.972,31.239
26951.0,78.615,-4.3155,88.972,30.239
26961.0,87.615,-1.3155,86.972,30.239
26971.0,96.615,-0.31549,91.972,30.239
26980.0,102.61,0.68451,90.972,30.239
26990.0,108.61,2.6845,87.972,29.239
27000.0,113.61,2.6845,86.972,25.239
27010.0,117.61,3.6845,82.972,26.239
27020.0,120.61,5.6845,79.972,27.239
27030.0,124.61,5.6845,78.972,24.239
27040.0,128.61,6.6845,76.972,22.239
27050.0,131.61,7.6845,73.972,20.239
27060.0,129.61,5.6845,68.972,21.239
27069.0,127.61,5.6845,67.972,19.239
27079.0,125.61,6.6845,63.972,19.239
27089.0,127.61,6.6845,61.972,18.239
27099.0,127.61,6.6845,55.972,16.239
27109.0,126.61,7.6845,50.972,14.239
27119.0,130.61,7.6845,45.972,12.239
27129.0,131.61,7.6845,43.972,10.239
27139.0,133.61,8.6845,40.972,9.2385
27149.0,134.61,8.6845,42.972,10.239
27158.0,138.61,9.6845,45.972,11.239
27168.0,139.61,10.685,44.972,11.239
27178.0,142.61,9.6845,46.972,10.239
27188.0,143.61,11.685,43.972,10.239
27198.0,143.61,9.6845,44.972,9.2385
27208.0,144.61,10.685,46.972,11.239
27218.0,142.61,9.6845,49.972,12.239
27228.0,141.61,10.685,49.972,12.239
27238.0,139.61,8.6845,50.972,11.239
27247.0,137.61,9.6845,49.972,10.239
27257.0,134.61,8.6845,46.972,10.239
27267.0,131.61,7.6845,47.972,9.2385
27277.0,128.61,6.6845,46.972,9.2385
27287.0,125.61,5.6845,44.972,9.2385
27297.0,120.61,5.6845,43.972,11.239
27307.0,119.61,5.6845,43.972,9.2385
27317.0,114.61,3.6845,44.972,9.2385
27326.0,112.61,2.6845,45.972,11.239
27336.0,108.61,2.6845,43.972,10.239
27346.0,104.61,1.6845,42.972,9.2385
27356.0,101.61,1.6845,38.972,8.2385
27366.0,98.615,-0.31549,42.972,9.2385
27376.0,97.615,-0.31549,37.972,9.2385
27386.0,93.615,-0.31549,37.972,8.2385
27396.0,91.615,-2.3155,38.972,8.2385
27406.0,87.615,-2.3155,39.972,7.2385
27415.0,85.615,-2.3155,36.972,9.2385
27425.0,82.615,-4.3155,36.972,8.2385
27435.0,78.615,-5.3155,37.972,9.2385
27445.0,77.615,-4.3155,35.972,9.2385
27455.0,77.615,-4.3155,35.972,8.2385
27465.0,69.615,-7.3155,33.972,7.2385
27475.0,69.615,-7.3155,34.972,6.2385
27485.0,63.615,-8.3155,33.972,7.2385
27495.0,63.615,-8.3155,30.972,4.2385
27504.0,55.615,-10.315,27.972,4.2385
27514.0,55.615,-10.315,29.972,5.2385
27524.0,48.615,-11.315,26.972,3.2385
27534.0,48.615,-11.315,28.972,4.2385
27544.0,41.615,-12.315,26.972,5.2385
27554.0,41.615,-12.315,27.972,3.2385
27564.0,34.615,-15.315,27.972,5.2385
27574.0,34.615,-15.315,28.972,4.2385
27584.0,25.615,-17.315,28.972,5.2385
27593.0,25.615,-17.315,28.972,6.2385
27603.0,22.615,-19.315,28.972,7.2385
27613.0,18.615,-19.315,28.972,5.2385
27623.0,12.615,-20.315,28.972,5.2385
27633.0,11.615,-20.315,25.972,4.2385
27643.0,5.615,-22.315,24.972,4.2385
27653.0,1.615,-22.315,23.972,6.2385
27663.0,-1.385,-23.315,24.972,4.2385
27672.0,-5.385,-24.315,23.972,7.2385
27682.0,-10.385,-25.315,22.972,5.2385
27692.0,-14.385,-27.315,25.972,5.2385
27702.0,-19.385,-26.315,25.972,6.2385
27712.0,-22.385,-28.315,24.972,5.2385
27722.0,-25.385,-28.315,23.972,5.2385
27732.0,-29.385,-28.315,22.972,6.2385
27742.0,-34.385,-31.315,22.972,6.2385
27752.0,-36.385,-30.315,20.972,6.2385
27761.0,-40.385,-32.315,20.972,6.2385
27771.0,-43.385,-33.315,20.972,7.2385
27781.0,-47.385,-33.315,20.972,7.2385
27791.0,-52.385,-33.315,19.972,6.2385
27801.0,-56.385,-34.315,19.972,6.2385
27811.0,-61.385,-36.315,18.972,6.2385
27821.0,-67.385,-37.315,18.972,6.2385
27831.0,-74.385,-39.315,14.972,5.2385
27841.0,-82.385,-40.315,14.972,5.2385
27850.0,-89.385,-42.315,15.972,6.2385
27860.0,-97.385,-42.315,15.972,6.2385
27870.0,-100.39,-41.315,14.972,7.2385
27880.0,-95.385,-40.315,14.972,7.2385
27890.0,-88.385,-38.315,15.972,6.2385
27900.0,-76.385,-36.315,15.972,6.2385
27910.0,-58.385,-33.315,19.972,9.2385
27920.0,-39.385,-30.315,19.972,9.2385
27930.0,-20.385,-26.315,34.972,12.239
27939.0,0.61497,-22.315,34.972,12.239
27949.0,21.615,-18.315,58.972,18.239
27959.0,38.615,-15.315,58.972,18.239
27969.0,54.615,-12.315,72.972,20.239
27979.0,66.615,-10.315,72.972,20.239
27989.0,75.615,-7.3155,75.972,22.239
27999.0,83.615,-6.3155,78.972,23.239
28009.0,90.615,-4.3155,77.972,20.239
28018.0,95.615,-3.3155,77.972,18.239
28028.0,99.615,-2.3155,76.972,18.239
28038.0,104.61,-1.3155,74.972,16.239
28048.0,108.61,-0.31549,69.972,17.239
28058.0,109.61,-0.31549,70.972,15.239
28068.0,112.61,1.6845,65.972,13.239
28078.0,116.61,1.6845,64.972,12.239
28088.0,109.61,-0.31549,59.972,13.239
28098.0,109.61,-0.31549,59.972,12.239
28107.0,105.61,-0.31549,54.972,10.239
28117.0,105.61,-0.31549,53.972,9.2385
28127.0,105.61,-0.31549,49.972,10.239
28137.0,106.61,0.68451,45.972,7.2385
28147.0,106.61,0.68451,40.972,8.2385
28157.0,107.61,0.68451,42.972,8.2385
28167.0,108.61,-0.31549,44.972,9.2385
28177.0,110.61,0.68451,43.972,7.2385
28187.0,110.61,0.68451,43.972,10.239
28196.0,111.61,0.68451,43.972,9.2385
28206.0,111.61,0.68451,46.972,11.239
28216.0,114.61,-0.31549,47.972,8.2385
28226.0,114.61,-0.31549,48.972,10.239
28236.0,113.61,-1.3155,50.972,11.239
28246.0,113.61,-1.3155,50.972,10.239
28256.0,108.61,-2.3155,53.972,12.239
28266.0,108.61,-2.3155,51.972,11.239
28276.0,102.61,-4.3155,53.972,10.239
28285.0,102.61,-4.3155,53.972,12.239
28295.0,93.615,-6.3155,51.972,12.239
28305.0,93.615,-6.3155,50.972,12.239
28315.0,85.615,-9.3155,48.972,9.2385
28325.0,85.615,-9.3155,48.972,9.2385
28335.0,82.615,-8.3155,48.972,10.239
28345.0,76.615,-10.315,47.972,11.239
28355.0,74.615,-12.315,45.972,8.2385
28364.0,70.615,-12.315,44.972,9.2385
28374.0,66.615,-14.315,44.972,9.2385
28384.0,63.615,-13.315,43.972,8.2385
28394.0,59.615,-15.315,39.972,7.2385
28404.0,55.615,-15.315,40.972,8.2385
28414.0,52.615,-15.315,40.972,8.2385
28424.0,52.615,-17.315,40.972,8.2385
28434.0,49.615,-17.315,37.972,6.2385
28444.0,46.615,-17.315,35.972,6.2385
28453.0,43.615,-18.315,36.972,6.2385
28463.0,41.615,-19.315,34.972,7.2385
28473.0,38.615,-19.315,36.972,8.2385
28483.0,33.615,-20.315,36.972,8.2385
28493.0,31.615,-21.315,37.972,8.2385
28503.0,26.615,-21.315,36.972,8.2385
28513.0,21.615,-23.315,36.972,6.2385
28523.0,17.615,-25.315,36.972,6.2385
28533.0,13.615,-25.315,32.972,7.2385
28542.0,9.615,-25.315,34.972,5.2385
28552.0,5.615,-27.315,33.972,7.2385
28562.0,0.61497,-29.315,33.972,9.2385
28572.0,-4.385,-30.315,34.972,8.2385
28582.0,-8.385,-32.315,32.972,9.2385
28592.0,-13.385,-32.315,32.972,10.239
28602.0,-17.385,-34.315,33.972,10.239
28612.0,-23.385,-34.315,34.972,9.2385
28621.0,-26.385,-36.315,30.972,8.2385
28631.0,-31.385,-36.315,31.972,8.2385
28641.0,-36.385,-39.315,27.972,5.2385
28651.0,-40.385,-39.315,28.972,6.2385
28661.0,-44.385,-40.315,26.972,7.2385
28671.0,-47.385,-41.315,27.972,7.2385
28681.0,-53.385,-41.315,26.972,7.2385
28691.0,-58.385,-43.315,27.972,8.2385
28701.0,-63.385,-42.315,25.972,8.2385
28710.0,-65.385,-44.315,25.972,9.2385
28720.0,-70.385,-45.315,25.972,7.2385
28730.0,-75.385,-46.315,25.972,9.2385
28740.0,-77.385,-46.315,25.972,8.2385
28750.0,-80.385,-47.315,24.972,7.2385
28760.0,-85.385,-48.315,21.972,9.2385
28770.0,-90.385,-49.315,19.972,8.2385
28780.0,-93.385,-49.315,18.972,7.2385
28790.0,-98.385,-51.315,19.972,7.2385
28799.0,-104.39,-53.315,19.972,7.2385
28809.0,-111.39,-53.315,15.972,4.2385
28819.0,-115.39,-54.315,16.972,6.2385
28829.0,-123.39,-56.315,16.972,8.2385
28839.0,-132.39,-57.315,19.972,8.2385
28849.0,-138.39,-57.315,19.972,8.2385
28859.0,-140.39,-57.315,19.972,10.239
28869.0,-136.39,-54.315,19.972,10.239
28879.0,-127.39,-53.315,18.972,9.2385
28888.0,-114.39,-51.315,18.972,9.2385
28898.0,-96.385,-49.315,17.972,8.2385
28908.0,-77.385,-45.315,17.972,8.2385
28918.0,-77.385,-45.315,35.972,15.239
28928.0,-37.385,-36.315,35.972,15.239
28938.0,-37.385,-36.315,57.972,21.239
28948.0,-2.385,-28.315,57.972,21.239
28958.0,-2.385,-28.315,68.972,21.239
28967.0,18.615,-24.315,68.972,21.239
28977.0,18.615,-24.315,74.972,23.239
28987.0,31.615,-22.315,74.972,23.239
28997.0,31.615,-22.315,73.972,22.239
29007.0,43.615,-20.315,73.972,22.239
29017.0,43.615,-20.315,71.972,21.239
29027.0,50.615,-19.315,67.972,17.239
29037.0,50.615,-19.315,65.972,15.239
29047.0,54.615,-17.315,63.972,14.239
29056.0,54.615,-17.315,60.972,15.239
29066.0,52.615,-18.315,59.972,15.239
29076.0,48.615,-19.315,55.972,14.239
29086.0,44.615,-19.315,56.972,13.239
29096.0,41.615,-20.315,53.972,12.239
29106.0,41.615,-20.315,51.972,10.239
29116.0,43.615,-20.315,44.972,10.239
29126.0,42.615,-20.315,40.972,10.239
29136.0,43.615,-20.315,37.972,9.2385
29145.0,47.615,-18.315,38.972,9.2385
29155.0,48.615,-17.315,38.972,8.2385
29165.0,53.615,-17.315,40.972,9.2385
29175.0,57.615,-15.315,39.972,9.2385
29185.0,60.615,-15.315,42.972,8.2385
29195.0,61.615,-15.315,43.972,11.239
29205.0,64.615,-14.315,48.972,12.239
29215.0,65.615,-15.315,49.972,12.239
29225.0,65.615,-15.315,52.972,13.239
29234.0,65.615,-15.315,53.972,13.239
29244.0,62.615,-15.315,53.972,12.239
29254.0,61.615,-16.315,50.972,9.2385
29264.0,60.615,-16.315,49.972,9.2385
29274.0,55.615,-19.315,51.972,11.239
29284.0,53.615,-19.315,52.972,11.239
29294.0,50.615,-19.315,51.972,11.239
29304.0,46.615,-20.315,50.972,11.239
29313.0,43.615,-21.315,50.972,10.239
29323.0,38.615,-23.315,50.972,10.239
29333.0,36.615,-22.315,49.972,9.2385
29343.0,34.615,-23.315,46.972,9.2385
29353.0,31.615,-23.315,47.972,8.2385
29363.0,30.615,-24.315,44.972,8.2385
29373.0,27.615,-25.315,43.972,7.2385
29383.0,24.615,-25.315,43.972,8.2385
29393.0,23.615,-25.315,43.972,7.2385
29402.0,21.615,-26.315,41.972,7.2385
29412.0,19.615,-26.315,40.972,6.2385
29422.0,19.615,-26.315,40.972,5.2385
29432.0,15.615,-28.315,39.972,7.2385
29442.0,13.615,-28.315,38.972,7.2385
29452.0,13.615,-29.315,41.972,7.2385
29462.0,10.615,-28.315,40.972,6.2385
29472.0,8.615,-30.315,38.972,6.2385
29482.0,4.615,-31.315,35.972,6.2385
29491.0,2.615,-30.315,36.972,6.2385
29501.0,0.61497,-31.315,35.972,4.2385
29511.0,-2.385,-32.315,35.972,5.2385
29521.0,-5.385,-32.315,35.972,6.2385
29531.0,-8.385,-33.315,34.972,9.2385
29541.0,-13.385,-33.315,34.972,7.2385
29551.0,-16.385,-34.315,34.972,6.2385
29561.0,-18.385,-35.315,34.972,8.2385
29571.0,-23.385,-35.315,36.972,7.2385
29580.0,-27.385,-37.315,36.972,9.2385
29590.0,-28.385,-37.315,36.972,8.2385
29600.0,-33.385,-37.315,35.972,9.2385
29610.0,-36.385,-38.315,35.972,8.2385
29620.0,-38.385,-39.315,31.972,9.2385
29630.0,-41.385,-40.315,32.972,10.239
29640.0,-46.385,-41.315,33.972,10.239
29650.0,-46.385,-41.315,33.972,8.2385
29659.0,-49.385,-42.315,32.972,9.2385
29669.0,-49.385,-42.315,32.972,10.239
29679.0,-56.385,-42.315,35.972,11.239
29689.0,-56.385,-42.315,36.972,11.239
29699.0,-61.385,-43.315,35.972,11.239
29709.0,-61.385,-43.315,33.972,12.239
29719.0,-70.385,-46.315,33.972,11.239
29729.0,-70.385,-46.315,31.972,10.239
29739.0,-80.385,-47.315,31.972,10.239
29748.0,-80.385,-47.315,31.972,9.2385
29758.0,-89.385,-49.315,29.972,10.239
29768.0,-89.385,-49.315,30.972,11.239
29778.0,-95.385,-49.315,29.972,13.239
29788.0,-99.385,-48.315,31.972,14.239
29798.0,-97.385,-47.315,33.972,15.239
29808.0,-88.385,-44.315,35.972,15.239
29818.0,-79.385,-42.315,35.972,15.239
29828.0,-62.385,-40.315,35.972,14.239
29837.0,-44.385,-35.315,35.972,14.239
29847.0,-27.385,-33.315,48.972,18.239
29857.0,-5.385,-30.315,48.972,18.239
29867.0,12.615,-26.315,72.972,24.239
29877.0,30.615,-22.315,72.972,24.239
29887.0,45.615,-19.315,84.972,25.239
29897.0,55.615,-17.315,84.972,25.239
29907.0,66.615,-14.315,91.972,28.239
29917.0,76.615,-13.315,91.972,28.239
29926.0,81.615,-10.315,93.972,27.239
29936.0,87.615,-10.315,93.972,27.239
29946.0,93.615,-9.3155,86.972,24.239
29956.0,97.615,-9.3155,86.972,24.239
29966.0,100.61,-7.3155,81.972,20.239
29976.0,105.61,-7.3155,81.972,20.239
29986.0,105.61,-6.3155,74.972,17.239
29996.0,108.61,-6.3155,74.972,17.239
