t,lead_I,lead_II,v3,v4
1.5,-15232,-70070,82730,73578
3.5,-16482,-70974,82951,73773
5.5,-16594,-71012,82838,73666
7.5,-15961,-70662,82667,73519
9.5,-15427,-70513,82717,73592
11.5,-15084,-70444,82807,73697
13.5,-14837,-70405,82729,73614
15.5,-15002,-70601,82647,73498
17.5,-15631,-70879,82745,73569
19.5,-16210,-70978,82883,73726
21.5,-16523,-71064,82876,73767
23.5,-16733,-71183,82808,73732
25.5,-16599,-70964,82833,73758
27.5,-15991,-70505,82900,73811
29.5,-15545,-70414,82890,73779
31.5,-15558,-70573,82841,73704
33.5,-15490,-70371,82862,73713
35.5,-15365,-70137,82908,73770
37.5,-15812,-70614,82823,73684
39.5,-16517,-71396,82678,73479
41.5,-16617,-71516,82779,73481
43.5,-16226,-70981,83169,73811
45.5,-15949,-70505,83435,74091
47.5,-15745,-70427,83308,74002
49.5,-15353,-70505,83084,73777
51.5,-14872,-70305,83119,73772
53.53,-14532,-69791,83300,73917
55.55,-14575,-69591,83354,73955
57.58,-15128,-70116,83306,73904
59.6,-15791,-70766,83301,73909
61.6,-15999,-70867,83304,73937
63.6,-15918,-70703,83297,73953
65.6,-16051,-70755,83422,74074
67.6,-16090,-70774,83609,74231
69.6,-15387,-70405,83537,74127
71.6,-14424,-69946,83273,73842
73.6,-14298,-69865,83294,73854
75.6,-14861,-70033,83617,74174
77.6,-15136,-70027,83761,74322
79.6,-15222,-69909,83688,74256
81.6,-15786,-70098,83777,74344
83.6,-16376,-70600,83948,74505
85.6,-16255,-70998,83878,74426
87.6,-15796,-71064,83743,74293
89.6,-15407,-70745,83834,74401
91.6,-14727,-70000,83961,74554
93.6,-13971,-69257,83931,74531
95.6,-14039,-69301,83944,74515
97.6,-14822,-70126,84128,74656
99.6,-15363,-70807,84289,74793
101.6,-15450,-70850,84259,74774
103.6,-15398,-70677,84087,74643
105.6,-15170,-70657,83924,74524
107.6,-14852,-70643,83950,74538
109.6,-14793,-70485,84194,74687
111.6,-14806,-70304,84427,74803
113.6,-14529,-70271,84459,74782
115.6,-14379,-70432,84416,74756
117.6,-14849,-70613,84501,74864
119.6,-15435,-70561,84683,75040
121.6,-15426,-70326,84808,75145
123.6,-15069,-70254,84787,75110
125.6,-15004,-70409,84619,74923
127.6,-15130,-70450,84419,74693
129.6,-14878,-70251,84402,74644
131.6,-14297,-70144,84593,74818
133.6,-14039,-70331,84744,74948
135.6,-14247,-70554,84721,74875
137.6,-14396,-70554,84708,74801
139.6,-14379,-70440,84825,74884
141.6,-14604,-70418,84903,74953
143.6,-14860,-70454,84844,74875
145.6,-14533,-70377,84812,74817
147.6,-13983,-70216,84861,74866
149.6,-14084,-70273,84795,74816
151.6,-14639,-70682,84589,74593
153.6,-14773,-70987,84506,74461
155.6,-14410,-70693,84618,74555
157.6,-14146,-70187,84664,74636
159.6,-14265,-70247,84563,74542
161.6,-14554,-70654,84541,74447
163.6,-14572,-70497,84656,74479
165.6,-14146,-69847,84734,74539
167.6,-13807,-69660,84744,74581
169.6,-14071,-70062,84735,74604
171.6,-14465,-70297,84598,74494
173.6,-14370,-70197,84387,74299
175.6,-14202,-70226,84394,74300
177.6,-14512,-70433,84570,74463
179.6,-14901,-70551,84541,74438
181.6,-14931,-70575,84333,74263
183.6,-14884,-70555,84246,74239
185.6,-14914,-70474,84174,74247
187.6,-14727,-70396,83956,74085
189.6,-14421,-70185,83941,74093
191.6,-14428,-69661,84303,74488
193.6,-14699,-69313,84525,74783
195.6,-14915,-69719,84293,74634
197.6,-15064,-70402,84022,74409
199.6,-15192,-70563,84004,74400
201.6,-15237,-70355,84023,74422
203.6,-15367,-70266,83982,74404
205.6,-15679,-70191,84009,74469
207.6,-15769,-70000,83996,74494
209.6,-15391,-69946,83796,74338
211.6,-14995,-70082,83595,74210
213.6,-14996,-70195,83571,74269
215.6,-15250,-70248,83591,74337
217.6,-15565,-70284,83544,74303
219.6,-15881,-70275,83493,74268
221.6,-15969,-70344,83430,74223
223.6,-15785,-70571,83311,74094
225.6,-15726,-70638,83241,74002
227.6,-15890,-70325,83235,74010
229.6,-15830,-70087,83079,73898
231.6,-15564,-70394,82746,73596
233.6,-15665,-70822,82579,73431
235.6,-16014,-70656,82768,73605
237.6,-15893,-70129,83050,73876
239.6,-15464,-70059,83131,73970
241.6,-15497,-70415,83064,73930
243.6,-15828,-70394,83033,73907
245.6,-15746,-69922,83062,73934
247.6,-15397,-69737,83072,73968
249.6,-15289,-69986,83038,73970
251.6,-15293,-70151,83005,73950
253.6,-15284,-70209,83009,73964
255.6,-15584,-70501,83022,74016
257.6,-16079,-70774,83011,74042
259.6,-16209,-70645,83010,74032
261.6,-16041,-70433,83038,74033
263.6,-16023,-70498,83033,74031
265.6,-15999,-70537,82974,73990
267.6,-15757,-70305,82952,73967
269.6,-15713,-70128,82998,74003
271.6,-15954,-70228,82983,74004
273.6,-15849,-70404,82843,73893
275.6,-15421,-70498,82735,73788
277.6,-15525,-70500,82817,73854
279.6,-16135,-70356,82996,74034
281.6,-16257,-70122,83079,74147
283.6,-15704,-69970,83080,74168
285.6,-15275,-69971,83097,74180
287.6,-15320,-70161,83061,74138
289.6,-15522,-70495,82921,74009
291.6,-15653,-70574,82878,73976
293.6,-15635,-70125,83061,74150
295.6,-15439,-69680,83224,74301
297.6,-15281,-69833,83155,74236
299.6,-15396,-70241,83003,74110
301.6,-15750,-70375,82922,74057
303.6,-16204,-70433,82836,73980
305.6,-16515,-70611,82732,73862
307.6,-16345,-70582,82739,73852
309.6,-15837,-70323,82830,73961
311.6,-15567,-70238,82867,74061
313.6,-15538,-70279,82855,74099
315.6,-15254,-70123,82866,74072
317.6,-14917,-69938,82904,74004
319.6,-15164,-69969,82969,74017
321.6,-15763,-70019,83055,74159
323.6,-15990,-69978,83055,74228
325.6,-15886,-70072,82916,74082
327.6,-15866,-70307,82773,73902
329.6,-15776,-70407,82747,73879
331.6,-15433,-70251,82785,73925
333.6,-15255,-69962,82800,73918
335.6,-15473,-69781,82799,73913
337.6,-15690,-69900,82813,73961
339.6,-15828,-70284,82822,73992
341.6,-16285,-70749,82749,73922
343.6,-16779,-71097,82577,73778
345.6,-16491,-71011,82497,73741
347.6,-15593,-70373,82708,73952
349.6,-15116,-69771,83023,74227
351.6,-15345,-69829,83069,74242
353.6,-15712,-70247,82854,74025
355.6,-15867,-70392,82660,73850
357.6,-15823,-70318,82524,73743
359.6,-15693,-70361,82406,73636
361.6,-15801,-70491,82507,73712
363.6,-16232,-70610,82823,73998
365.6,-16407,-70712,82910,74080
367.6,-15966,-70597,82619,73790
369.6,-15484,-70250,82411,73565
371.6,-15548,-70138,82510,73647
373.6,-15875,-70421,82532,73675
375.6,-15958,-70554,82293,73468
377.6,-15802,-70302,82162,73381
379.6,-15603,-70166,82314,73558
381.6,-15404,-70374,82432,73647
383.6,-15423,-70564,82348,73495
385.6,-15999,-70681,82286,73390
387.6,-16825,-70963,82334,73459
389.6,-17012,-71119,82332,73502
391.6,-16349,-70731,82286,73473
393.6,-15658,-70185,82381,73562
395.6,-15472,-70114,82591,73775
397.6,-15423,-70404,82714,73900
399.6,-15321,-70593,82693,73857
401.6,-15592,-70703,82605,73731
403.6,-16242,-70972,82460,73557
405.6,-16571,-71264,82298,73378
407.6,-16273,-71206,82280,73346
409.6,-15805,-70691,82431,73490
411.6,-15551,-70072,82560,73620
413.6,-15485,-69855,82572,73646
415.6,-15587,-70163,82551,73661
417.6,-15838,-70589,82497,73644
419.6,-15942,-70714,82362,73515
421.7,-15737,-70577,82294,73422
423.7,-15605,-70500,82419,73526
425.7,-15882,-70621,82546,73648
427.7,-16168,-70759,82454,73555
429.7,-15937,-70676,82265,73370
431.7,-15500,-70460,82199,73320
433.7,-15559,-70496,82229,73362
435.7,-16053,-70886,82221,73340
437.7,-16347,-71191,82183,73290
439.7,-16243,-71069,82193,73311
441.7,-15963,-70785,82218,73350
443.7,-15603,-70640,82206,73348
445.7,-15345,-70450,82223,73407
447.7,-15549,-70165,82313,73550
449.7,-16081,-70256,82344,73561
451.7,-16311,-70800,82235,73363
453.7,-16050,-71073,82166,73242
455.7,-15748,-70743,82281,73380
457.7,-15749,-70441,82437,73559
459.7,-15952,-70531,82482,73586
461.7,-16053,-70551,82471,73555
463.7,-15873,-70323,82436,73520
465.7,-15627,-70330,82298,73380
467.7,-15738,-70729,82083,73166
469.7,-16139,-71082,81925,73037
471.7,-16252,-71078,81909,73073
473.7,-15958,-70795,82098,73290
475.7,-15869,-70493,82475,73640
477.7,-16238,-70455,82747,73864
479.7,-16460,-70640,82613,73713
481.7,-16133,-70642,82261,73375
483.7,-15741,-70374,82132,73258
485.7,-15779,-70265,82256,73404
487.7,-16043,-70495,82320,73511
489.7,-16144,-70772,82218,73433
491.7,-15982,-70888,82102,73285
493.7,-15639,-70827,82078,73209
495.7,-15398,-70570,82152,73265
497.7,-15621,-70370,82258,73384
499.7,-16189,-70631,82259,73399
501.7,-16575,-71151,82122,73275
503.7,-16551,-71242,82021,73183
505.7,-16234,-70758,82070,73214
507.7,-15748,-70240,82171,73280
509.7,-15412,-70175,82218,73319
511.7,-15621,-70638,82203,73338
513.7,-16127,-71238,82152,73327
515.7,-16287,-71284,82169,73356
517.7,-16071,-70658,82334,73506
519.7,-15919,-70190,82484,73641
521.7,-15861,-70392,82421,73582
523.7,-15706,-70730,82243,73419
525.7,-15686,-70840,82134,73304
527.7,-16073,-71074,82094,73223
529.7,-16557,-71331,82125,73212
531.7,-16645,-71097,82257,73341
533.7,-16326,-70706,82305,73420
535.7,-15940,-70802,82129,73283
537.7,-15718,-71010,81994,73179
539.7,-15726,-70797,82112,73309
541.7,-15949,-70651,82221,73401
543.7,-16182,-70975,82125,73271
545.7,-16141,-71171,82080,73207
547.7,-15870,-70836,82219,73357
549.7,-15738,-70455,82264,73423
551.7,-15863,-70375,82102,73258
553.7,-15940,-70429,81993,73114
555.7,-15855,-70644,82050,73122
557.7,-15921,-71096,82099,73143
559.7,-16207,-71342,82107,73163
561.7,-16244,-70969,82198,73305
563.7,-15810,-70345,82299,73461
565.7,-15369,-70110,82236,73417
567.7,-15328,-70315,82114,73267
569.7,-15511,-70536,82171,73274
571.7,-15671,-70544,82301,73372
573.7,-15846,-70513,82208,73278
575.7,-15996,-70641,81967,73069
577.7,-15960,-70781,81937,73077
579.7,-15813,-70656,82132,73273
581.7,-15791,-70399,82218,73322
583.7,-15922,-70450,82131,73205
585.7,-16042,-70821,82136,73197
587.7,-16014,-70962,82318,73353
589.7,-15805,-70591,82508,73509
591.7,-15566,-70135,82634,73620
593.7,-15557,-70054,82713,73704
595.7,-15812,-70221,82674,73672
597.7,-15995,-70292,82528,73544
599.7,-15902,-70318,82457,73502
601.7,-15895,-70603,82510,73548
603.7,-16341,-71082,82512,73482
605.7,-16769,-71267,82441,73327
607.7,-16379,-70885,82493,73332
609.7,-15369,-70258,82691,73533
611.7,-14770,-69849,82846,73727
613.7,-14949,-69722,82909,73837
615.7,-15301,-69684,82963,73907
617.7,-15420,-69707,82955,73888
619.7,-15552,-69920,82829,73768
621.7,-15827,-70260,82734,73710
623.7,-15915,-70387,82788,73799
625.7,-15701,-70194,82813,73850
627.7,-15645,-70155,82592,73677
629.7,-16026,-70600,82230,73397
631.7,-16320,-70967,82046,73292
633.7,-15954,-70631,82147,73420
635.7,-15282,-70054,82292,73528
637.7,-15063,-69971,82262,73438
639.7,-15366,-70102,82165,73320
641.7,-15662,-69901,82168,73346
643.7,-15654,-69729,82170,73365
645.7,-15529,-70116,82055,73225
647.7,-15566,-70719,81991,73115
649.7,-15750,-70968,82123,73209
651.7,-15940,-70971,82242,73304
653.7,-16248,-71137,82143,73207
655.7,-16730,-71417,82028,73123
657.7,-16861,-71403,82131,73261
659.7,-16273,-71023,82250,73385
661.7,-15644,-70762,82116,73220
663.7,-15736,-70940,81908,72966
665.7,-16135,-71146,81904,72941
667.7,-16107,-70918,81986,73046
669.7,-15822,-70495,81942,73049
671.7,-15739,-70296,81901,73039
673.7,-15766,-70296,82004,73142
675.7,-15796,-70418,82064,73188
677.7,-16037,-70751,81946,73063
679.7,-16373,-71076,81867,72983
681.7,-16393,-71059,81966,73085
683.7,-16161,-70889,82046,73165
685.7,-16061,-70879,81979,73096
687.7,-16071,-70874,81958,73061
689.7,-16016,-70786,82078,73153
691.7,-16018,-70902,82115,73164
693.7,-16105,-71143,81982,73040
695.7,-16094,-71095,81954,73055
697.7,-16076,-70896,82148,73272
699.7,-16183,-70921,82274,73360
701.7,-16187,-70975,82222,73206
703.7,-16096,-70881,82295,73127
705.7,-16271,-70976,82611,73259
707.7,-16519,-71277,82891,73351
709.7,-16336,-71335,83035,73321
711.7,-15991,-71185,83280,73393
713.7,-15936,-71127,83716,73679
715.7,-15811,-70931,84184,74093
717.7,-15362,-70456,84555,74581
719.7,-15135,-70189,84760,75116
721.7,-15253,-70182,84838,75691
723.7,-15046,-69690,85078,76497
725.7,-14432,-68493,85677,77756
727.7,-14080,-67197,86248,79312
729.7,-14085,-66010,86310,80827
731.7,-13979,-64614,86032,82325
733.7,-13767,-63117,85772,83955
735.7,-13755,-61908,85254,85395
737.7,-13830,-60967,84153,86256
739.7,-13810,-60210,82963,86858
741.7,-13927,-59895,82261,87673
743.7,-14356,-60050,81704,88317
745.7,-14823,-60296,80714,88034
747.7,-15111,-60586,79493,86814
749.7,-15458,-61358,78547,85184
751.7,-16071,-62699,77876,83313
753.7,-16714,-64049,77186,81013
755.7,-17113,-65004,76395,78313
757.7,-17408,-65913,75665,75605
759.7,-17815,-67211,75265,73388
761.7,-18208,-68529,75379,71975
763.7,-18423,-69185,75850,71313
765.7,-18501,-69310,76330,71094
767.7,-18331,-69492,76764,71078
769.7,-17761,-69707,77391,71237
771.7,-17247,-69715,78252,71555
773.7,-17364,-69862,79031,71860
775.7,-17650,-70326,79519,72032
777.7,-17254,-70463,79951,72265
779.7,-16524,-69923,80638,72785
781.7,-16347,-69329,81432,73387
783.73,-16477,-69217,81892,73635
785.75,-16256,-69440,81950,73509
787.78,-16097,-69813,81967,73388
789.8,-16531,-70274,82116,73424
791.8,-16949,-70551,82190,73417
793.8,-16747,-70475,82143,73338
795.8,-16348,-70255,82246,73407
797.8,-16172,-70099,82514,73592
799.8,-16032,-70079,82593,73582
801.8,-15954,-70290,82423,73376
803.8,-16164,-70621,82379,73320
805.8,-16343,-70682,82591,73497
807.8,-16091,-70381,82751,73614
809.8,-15753,-70149,82690,73536
811.8,-15859,-70338,82571,73420
813.8,-16265,-70775,82510,73364
815.8,-16466,-71031,82498,73351
817.8,-16281,-70909,82569,73415
819.8,-15907,-70598,82716,73540
821.8,-15669,-70429,82823,73616
823.8,-15776,-70530,82849,73616
825.8,-16099,-70746,82826,73580
827.8,-16282,-70834,82729,73478
829.8,-16180,-70694,82588,73344
831.8,-16006,-70467,82571,73345
833.8,-15923,-70368,82717,73505
835.8,-15837,-70406,82822,73606
837.8,-15770,-70452,82762,73539
839.8,-15957,-70503,82670,73453
841.8,-16281,-70567,82668,73468
843.8,-16245,-70472,82705,73528
845.8,-15818,-70183,82745,73580
847.8,-15555,-70036,82837,73620
849.8,-15663,-70233,82952,73610
851.8,-15828,-70477,82983,73541
853.8,-15953,-70506,82947,73522
855.8,-16145,-70490,82969,73632
857.8,-16193,-70582,83061,73770
859.8,-15921,-70615,83100,73783
861.8,-15646,-70536,83047,73666
863.8,-15643,-70518,83026,73573
865.8,-15747,-70563,83118,73619
867.8,-15852,-70565,83207,73725
869.8,-16052,-70627,83155,73722
871.8,-16157,-70723,83048,73631
873.8,-15878,-70562,83072,73637
875.8,-15540,-70301,83190,73740
877.8,-15698,-70484,83204,73749
879.8,-16085,-70878,83116,73648
881.8,-16013,-70708,83096,73617
883.8,-15722,-70205,83161,73677
885.8,-15973,-70257,83209,73712
887.8,-16451,-70635,83269,73752
889.8,-16193,-70431,83398,73878
891.8,-15403,-69882,83501,74000
893.8,-15134,-69910,83497,73996
895.8,-15543,-70418,83474,73934
897.8,-15975,-70639,83541,73956
899.8,-16145,-70442,83654,74059
901.8,-16079,-70157,83708,74132
903.8,-15712,-69940,83692,74127
905.8,-15266,-69910,83686,74113
907.8,-15160,-70124,83720,74140
909.8,-15301,-70303,83728,74153
911.8,-15289,-70221,83672,74097
913.8,-15174,-70098,83609,74013
915.8,-15278,-70162,83613,73983
917.8,-15580,-70303,83721,74058
919.8,-15783,-70396,83930,74240
921.8,-15697,-70406,84149,74448
923.8,-15343,-70266,84228,74527
925.8,-14990,-70088,84135,74430
927.8,-15020,-70160,84038,74314
929.8,-15418,-70431,84094,74352
931.8,-15680,-70543,84220,74472
933.8,-15519,-70472,84232,74497
935.8,-15246,-70437,84156,74459
937.8,-15196,-70406,84170,74527
939.8,-15303,-70338,84276,74653
941.8,-15336,-70385,84342,74656
943.8,-15091,-70350,84375,74564
945.8,-14581,-69898,84457,74541
947.8,-14306,-69486,84550,74597
949.8,-14697,-69744,84618,74660
951.8,-15271,-70174,84702,74726
953.8,-15313,-69981,84776,74783
955.8,-15013,-69600,84780,74804
957.8,-14824,-69833,84761,74815
959.8,-14611,-70405,84775,74819
961.8,-14492,-70726,84802,74798
963.8,-15031,-70892,84859,74813
965.8,-15800,-70970,84985,74906
967.8,-15633,-70608,85122,74985
969.8,-14664,-69957,85201,74988
971.8,-14136,-69719,85227,74971
973.8,-14340,-70008,85193,74925
975.8,-14552,-70218,85098,74819
977.8,-14484,-70007,85048,74761
979.8,-14396,-69657,85102,74816
981.8,-14399,-69575,85107,74811
983.8,-14457,-69835,84952,74631
985.8,-14530,-70158,84790,74448
987.8,-14496,-70249,84777,74423
989.8,-14342,-70167,84812,74437
991.8,-14276,-70187,84762,74367
993.8,-14389,-70343,84699,74292
995.8,-14477,-70398,84698,74294
997.8,-14401,-70246,84689,74313
999.8,-14327,-70087,84629,74300
1001.8,-14430,-70148,84554,74252
1003.8,-14632,-70365,84469,74147
1005.8,-14782,-70437,84406,74055
1007.8,-14804,-70219,84451,74110
1009.8,-14673,-69941,84529,74236
1011.8,-14592,-69926,84471,74223
1013.8,-14886,-70172,84359,74131
1015.8,-15340,-70379,84367,74157
1017.8,-15386,-70365,84364,74185
1019.8,-15191,-70272,84175,74037
1021.8,-15375,-70277,84005,73912
1023.8,-15696,-70314,84058,74017
1025.8,-15520,-70295,84124,74139
1027.8,-15145,-70302,84023,74093
1029.8,-15099,-70304,83948,74082
1031.8,-15088,-70090,84022,74249
1033.8,-14923,-69743,84060,74389
1035.8,-15053,-69662,83962,74338
1037.8,-15336,-69924,83842,74192
1039.8,-15076,-70110,83742,74070
1041.8,-14591,-69942,83618,73999
1043.8,-14791,-69665,83519,73982
1045.8,-15428,-69662,83495,73989
1047.8,-15658,-69964,83451,73945
1049.8,-15622,-70268,83313,73835
1051.8,-15803,-70310,83196,73750
1053.8,-15882,-70112,83250,73815
1055.8,-15614,-69889,83412,74008
1057.8,-15496,-69825,83455,74116
1059.8,-15678,-69933,83306,74008
1061.8,-15657,-70078,83143,73851
1063.8,-15464,-70120,83107,73839
1065.8,-15649,-70043,83105,73871
1067.8,-16097,-69978,83025,73766
1069.8,-16222,-70108,82937,73612
1071.8,-16055,-70477,82908,73565
1073.8,-16015,-70897,82828,73530
1075.8,-16119,-71097,82635,73393
1077.8,-16184,-70930,82553,73345
1079.8,-16219,-70444,82798,73609
1081.8,-16201,-69937,83188,73999
1083.8,-16074,-69831,83310,74109
1085.8,-16029,-70191,83043,73859
1087.8,-16240,-70552,82694,73571
1089.8,-16467,-70562,82591,73524
1091.8,-16312,-70402,82713,73649
1093.8,-15725,-70301,82814,73716
1095.8,-15189,-70213,82807,73695
1097.8,-15340,-70135,82816,73735
1099.8,-16071,-70116,82889,73861
1101.8,-16397,-70009,82944,73946
1103.8,-15899,-69795,82981,73960
1105.8,-15500,-69772,83039,73966
1107.8,-15874,-69980,83039,73940
1109.8,-16303,-70047,82926,73862
1111.8,-16075,-69876,82830,73821
1113.8,-15704,-69760,82851,73855
1115.8,-15807,-69813,82897,73871
1117.8,-16058,-69913,82874,73824
1119.8,-16020,-69984,82817,73766
1121.8,-15940,-69955,82769,73721
1123.8,-16025,-69825,82734,73688
1125.8,-15872,-69787,82745,73707
1127.8,-15317,-69865,82826,73798
1129.8,-15011,-69782,82897,73887
1131.8,-15378,-69550,82856,73900
1133.8,-15832,-69529,82769,73888
1135.8,-15823,-69724,82804,73946
1137.8,-15735,-69835,82934,74008
1139.8,-15984,-69941,82927,73918
1141.8,-16237,-70223,82763,73727
1143.8,-16121,-70364,82703,73692
1145.8,-15806,-70096,82841,73856
1147.8,-15560,-69824,82957,73980
1149.8,-15457,-69930,82935,73949
1151.8,-15524,-70116,82880,73885
1153.83,-15702,-70058,82819,73847
1155.85,-15874,-69983,82715,73796
1157.88,-16043,-70120,82666,73766
1159.9,-16145,-70266,82712,73770
1161.9,-15997,-70194,82723,73735
1163.9,-15738,-69956,82712,73724
1165.9,-15731,-69700,82843,73865
1167.9,-15903,-69573,83004,74008
1169.9,-15970,-69671,82922,73913
1171.9,-16043,-69820,82690,73711
1173.9,-16149,-69742,82586,73658
1175.9,-15909,-69537,82594,73693
1177.9,-15471,-69568,82636,73714
1179.9,-15563,-69874,82809,73831
1181.9,-16042,-70135,82965,73954
1183.9,-15982,-70165,82764,73781
1185.9,-15505,-70108,82434,73499
1187.9,-15618,-70148,82540,73617
1189.9,-16194,-70197,82910,73981
1191.9,-16238,-70087,82889,73969
1193.9,-15917,-69975,82558,73638
1195.9,-16153,-70121,82513,73577
1197.9,-16646,-70336,82695,73778
1199.9,-16452,-70305,82619,73765
1201.9,-15888,-70212,82392,73564
1203.9,-15898,-70289,82430,73556
1205.9,-16267,-70285,82582,73651
1207.9,-16188,-70126,82443,73502
1209.9,-15850,-70267,82144,73233
1211.9,-15942,-70729,82105,73236
1213.9,-16255,-70827,82318,73483
1215.9,-16088,-70321,82439,73611
1217.9,-15537,-69824,82388,73534
1219.9,-15281,-69750,82378,73480
1221.9,-15402,-69810,82478,73543
1223.9,-15478,-69735,82538,73585
1225.9,-15557,-69729,82493,73550
1227.9,-15918,-69948,82436,73522
1229.9,-16184,-70129,82386,73509
1231.9,-15916,-70043,82300,73446
1233.9,-15585,-69886,82258,73395
1235.9,-15722,-69900,82351,73457
1237.9,-15949,-70060,82422,73514
1239.9,-15931,-70314,82265,73379
1241.9,-16053,-70624,82022,73159
1243.9,-16340,-70719,82000,73137
1245.9,-16241,-70421,82191,73330
1247.9,-15896,-70074,82333,73497
1249.9,-15960,-70048,82328,73512
1251.9,-16246,-70187,82269,73436
1253.9,-16140,-70249,82219,73346
1255.9,-15879,-70313,82202,73296
1257.9,-16014,-70400,82229,73313
1259.9,-16278,-70344,82216,73310
1261.9,-16163,-70216,82114,73228
1263.9,-15864,-70262,82061,73197
1265.9,-15790,-70422,82140,73298
1267.9,-15881,-70473,82147,73314
1269.9,-15943,-70459,81917,73068
1271.9,-15994,-70505,81693,72834
1273.9,-16043,-70517,81804,72962
1275.9,-16117,-70426,82156,73323
1277.9,-16383,-70336,82404,73540
1279.9,-16715,-70279,82451,73548
1281.9,-16662,-70233,82421,73510
1283.9,-16257,-70320,82341,73448
1285.9,-16063,-70548,82202,73332
1287.9,-16184,-70659,82118,73263
1289.9,-16233,-70594,82143,73275
1291.9,-16222,-70613,82148,73249
1293.9,-16351,-70712,82081,73177
1295.9,-16276,-70583,82079,73199
1297.9,-15752,-70201,82188,73319
1299.9,-15396,-69868,82253,73382
1301.9,-15689,-69795,82200,73347
1303.9,-15952,-69939,82151,73317
1305.9,-15525,-70078,82184,73334
1307.9,-15082,-70009,82213,73335
1309.9,-15484,-69847,82185,73314
1311.9,-16216,-69875,82174,73337
1313.9,-16331,-70115,82187,73374
1315.9,-16029,-70408,82128,73312
1317.9,-15947,-70645,82040,73202
1319.9,-15981,-70645,82091,73224
1321.9,-15926,-70313,82227,73349
1323.9,-16053,-69970,82194,73345
1325.9,-16277,-69910,82001,73197
1327.9,-16121,-69935,81979,73187
1329.9,-15762,-69903,82252,73423
1331.9,-15741,-70071,82500,73629
1333.9,-15861,-70443,82420,73541
1335.9,-15665,-70598,82151,73294
1337.9,-15478,-70452,82055,73232
1339.9,-15834,-70396,82190,73401
1341.9,-16476,-70592,82259,73479
1343.9,-16750,-70743,82088,73284
1345.9,-16494,-70581,81881,73056
1347.9,-16089,-70276,81843,73032
1349.9,-15926,-70212,81885,73100
1351.9,-16020,-70401,81921,73127
1353.9,-16095,-70432,82034,73195
1355.9,-16023,-70234,82170,73282
1357.9,-15962,-70265,82131,73216
1359.9,-15975,-70626,81982,73078
1361.9,-15995,-70878,81951,73086
1363.9,-16241,-70945,81988,73153
1365.9,-16890,-71085,81947,73111
1367.9,-17313,-71020,81962,73113
1369.9,-16759,-70379,82165,73302
1371.9,-15737,-69735,82348,73466
1373.9,-15420,-69845,82289,73396
1375.9,-15832,-70357,82068,73183
1377.9,-16032,-70449,81906,73037
1379.9,-15792,-70132,81978,73104
1381.9,-15668,-69913,82274,73385
1383.9,-15776,-69861,82488,73604
1385.9,-15768,-69800,82335,73490
1387.9,-15611,-69831,82030,73222
1389.9,-15562,-70046,81980,73162
1391.9,-15732,-70212,82152,73287
1393.9,-16058,-70164,82227,73350
1395.9,-16322,-70120,82167,73331
1397.9,-16271,-70257,82132,73311
1399.9,-16082,-70358,82129,73260
1401.9,-16222,-70263,82101,73202
1403.9,-16561,-70246,82061,73216
1405.9,-16436,-70483,81981,73200
1407.9,-15808,-70636,81837,73047
1409.9,-15412,-70448,81794,72954
1411.9,-15633,-70215,82002,73126
1413.9,-16120,-70260,82273,73363
1415.9,-16467,-70438,82294,73346
1417.9,-16463,-70470,82083,73133
1419.9,-15994,-70318,81948,73031
1421.9,-15405,-70130,82049,73147
1423.9,-15386,-70071,82241,73325
1425.9,-15972,-70179,82308,73396
1427.9,-16431,-70331,82195,73319
1429.9,-16394,-70464,82023,73175
1431.9,-16175,-70599,81937,73090
1433.9,-15989,-70568,81990,73128
1435.9,-15812,-70202,82145,73258
1437.9,-15755,-69843,82300,73384
1439.9,-15832,-69982,82300,73380
1441.9,-15792,-70408,82119,73227
1443.9,-15611,-70521,81976,73111
1445.9,-15640,-70356,82049,73183
1447.9,-16053,-70376,82162,73285
1449.9,-16540,-70547,82079,73198
1451.9,-16624,-70492,81925,73027
1453.9,-16214,-70211,81950,73031
1455.9,-15803,-69928,82112,73216
1457.9,-15789,-69730,82187,73347
1459.9,-15891,-69770,82103,73292
1461.9,-15818,-70150,81984,73168
1463.9,-15936,-70547,81960,73151
1465.9,-16411,-70657,82024,73231
1467.9,-16625,-70686,82064,73268
1469.9,-16290,-70779,82051,73251
1471.9,-16021,-70670,82064,73275
1473.9,-16166,-70354,82113,73321
1475.9,-16313,-70250,82135,73311
1477.9,-16271,-70422,82144,73275
1479.9,-16258,-70481,82164,73254
1481.9,-16218,-70343,82123,73184
1483.9,-16066,-70400,81966,73030
1485.9,-16115,-70804,81778,72885
1487.9,-16358,-71045,81717,72880
1489.9,-16227,-70634,81861,73059
1491.9,-15640,-69951,82115,73318
1493.9,-15228,-69750,82305,73484
1495.9,-15288,-69930,82396,73528
1497.9,-15530,-69807,82450,73543
1499.9,-15663,-69409,82417,73514
1501.9,-15543,-69315,82268,73395
1503.9,-15245,-69526,82241,73361
1505.9,-15218,-69638,82523,73583
1507.9,-15682,-69665,82840,73849
1509.9,-16131,-69790,82832,73836
1511.9,-16073,-69904,82599,73607
1513.9,-15681,-69939,82442,73438
1515.9,-15340,-70021,82408,73395
1517.9,-15285,-70091,82430,73429
1519.9,-15586,-69994,82555,73579
1521.9,-15944,-69819,82727,73781
1523.93,-15932,-69675,82775,73845
1525.95,-15730,-69534,82713,73778
1527.98,-15818,-69532,82665,73742
1530.0,-16026,-69778,82573,73703
1532.0,-15876,-69943,82358,73546
1534.0,-15551,-69798,82165,73374
1536.0,-15544,-69741,82113,73324
1538.0,-15740,-69963,82100,73322
1540.0,-15686,-69940,82075,73306
1542.0,-15399,-69517,82117,73353
1544.0,-15253,-69359,82193,73450
1546.0,-15397,-69697,82208,73496
1548.0,-15646,-69918,82206,73514
1550.0,-15755,-69777,82214,73523
1552.0,-15726,-69747,82132,73434
1554.0,-15855,-69990,81985,73292
1556.0,-16226,-70125,81911,73251
1558.0,-16351,-70046,81859,73248
1560.0,-15941,-70054,81755,73148
1562.0,-15555,-70218,81773,73099
1564.0,-15647,-70272,81975,73212
1566.0,-15776,-70149,82081,73262
1568.0,-15651,-70102,82008,73165
1570.0,-15770,-70245,82033,73188
1572.0,-16225,-70409,82166,73344
1574.0,-16341,-70495,82058,73270
1576.0,-16047,-70583,81719,72955
1578.0,-16044,-70635,81560,72812
1580.0,-16406,-70508,81690,72943
1582.0,-16531,-70294,81827,73049
1584.0,-16313,-70244,81833,73026
1586.0,-16066,-70336,81829,73034
1588.0,-15796,-70353,81888,73110
1590.0,-15602,-70371,81940,73143
1592.0,-15927,-70617,81898,73077
1594.0,-16634,-70910,81760,72944
1596.0,-16850,-70900,81668,72869
1598.0,-16349,-70722,81768,72979
1600.0,-15940,-70697,81938,73161
1602.0,-16065,-70630,81929,73160
1604.0,-16229,-70262,81780,73007
1606.0,-16108,-69989,81736,72965
1608.0,-16020,-70237,81832,73075
1610.0,-16101,-70614,81916,73162
1612.0,-16067,-70546,81998,73187
1614.0,-15817,-70206,82212,73215
1616.0,-15527,-70090,82554,73228
1618.0,-15375,-70266,82912,73221
1620.0,-15536,-70537,83248,73287
1622.0,-15928,-70754,83583,73470
1624.0,-16015,-70752,83904,73707
1626.0,-15530,-70488,84175,73949
1628.0,-15019,-70199,84382,74253
1630.0,-14978,-70007,84575,74766
1632.0,-15156,-69677,84848,75574
1634.0,-15225,-69020,85221,76616
1636.0,-15235,-68108,85553,77808
1638.0,-15141,-67017,85637,79179
1640.0,-14823,-65792,85411,80717
1642.0,-14451,-64502,84957,82263
1644.0,-14115,-63070,84333,83684
1646.0,-13628,-61395,83548,84990
1648.0,-13180,-59793,82690,86187
1650.0,-13264,-58805,81864,87198
1652.0,-13754,-58556,80993,87930
1654.0,-14122,-58758,79957,88262
1656.0,-14416,-59193,78865,87988
1658.0,-14938,-59801,77924,87004
1660.0,-15406,-60576,77144,85465
1662.0,-15534,-61618,76462,83594
1664.0,-15781,-62965,75920,81410
1666.0,-16561,-64398,75483,78862
1668.0,-17454,-65726,75036,76173
1670.0,-17978,-66976,74741,73833
1672.0,-18258,-68002,74946,72225
1674.0,-18399,-68448,75588,71389
1676.0,-18184,-68392,76260,71141
1678.0,-17742,-68369,76865,71269
1680.0,-17496,-68576,77599,71544
1682.0,-17403,-68758,78385,71764
1684.0,-17248,-68893,79027,71959
1686.0,-17261,-69186,79630,72326
1688.0,-17433,-69496,80305,72812
1690.0,-17171,-69553,80852,73132
1692.0,-16508,-69538,81169,73237
1694.0,-16238,-69727,81437,73335
1696.0,-16341,-69889,81704,73442
1698.0,-16119,-69770,81856,73427
1700.0,-15822,-69674,81956,73358
1702.0,-16057,-69848,82127,73382
1704.0,-16252,-69912,82291,73469
1706.0,-15797,-69619,82365,73560
1708.0,-15409,-69409,82403,73644
1710.0,-15608,-69571,82394,73624
1712.0,-15656,-69699,82321,73462
1714.0,-15277,-69568,82335,73354
1716.0,-15288,-69582,82491,73422
1718.0,-15810,-69952,82565,73470
1720.0,-16069,-70280,82457,73370
1722.0,-16018,-70281,82407,73329
1724.0,-16211,-70137,82554,73480
1726.0,-16489,-70064,82695,73629
1728.0,-16414,-70085,82674,73621
1730.0,-16227,-70173,82613,73585
1732.0,-16261,-70218,82608,73618
1734.0,-16285,-70111,82572,73599
1736.0,-16116,-70039,82473,73443
1738.0,-16073,-70276,82447,73295
1740.0,-16324,-70625,82573,73322
1742.0,-16443,-70608,82722,73459
1744.0,-16039,-70218,82739,73525
1746.0,-15466,-69889,82680,73503
1748.0,-15392,-69799,82711,73528
1750.0,-15803,-69799,82821,73610
1752.0,-16073,-69840,82846,73623
1754.0,-15976,-69929,82750,73539
1756.0,-15897,-69948,82643,73456
1758.0,-16017,-69905,82597,73433
1760.0,-16038,-69970,82648,73498
1762.0,-15819,-70082,82810,73643
1764.0,-15603,-70020,82952,73737
1766.0,-15565,-69860,82940,73690
1768.0,-15619,-69866,82880,73655
1770.0,-15668,-70007,82893,73725
1772.0,-15665,-70000,82880,73719
1774.0,-15567,-69739,82794,73560
1776.0,-15484,-69469,82786,73459
1778.0,-15566,-69496,82855,73481
1780.0,-15722,-69797,82831,73456
1782.0,-15885,-70115,82764,73398
1784.0,-16202,-70359,82851,73497
1786.0,-16422,-70474,83054,73724
1788.0,-15979,-70219,83214,73887
1790.0,-15204,-69710,83309,73933
1792.0,-15120,-69617,83346,73905
1794.0,-15704,-70063,83292,73834
1796.0,-15950,-70238,83247,73809
1798.0,-15605,-69808,83300,73881
1800.0,-15301,-69496,83335,73930
1802.0,-15341,-69724,83284,73877
1804.0,-15539,-70013,83300,73826
1806.0,-15679,-70043,83405,73813
1808.0,-15613,-69981,83441,73769
1810.0,-15482,-69834,83482,73805
1812.0,-15590,-69588,83718,74060
1814.0,-15771,-69581,83943,74292
1816.0,-15657,-69873,83833,74183
1818.0,-15463,-69969,83564,73907
1820.0,-15478,-69686,83536,73866
1822.0,-15414,-69463,83749,74071
1824.0,-15175,-69610,83924,74239
1826.0,-15253,-69975,83939,74235
1828.0,-15660,-70283,83852,74139
1830.0,-15726,-70299,83800,74091
1832.0,-15405,-70065,83886,74169
1834.0,-15403,-70024,84033,74293
1836.0,-15750,-70286,84084,74336
1838.0,-15629,-70202,84066,74313
1840.0,-14844,-69513,84081,74296
1842.0,-14208,-69042,84113,74275
1844.0,-14268,-69310,84200,74317
1846.0,-14742,-69662,84452,74525
1848.0,-15184,-69615,84713,74740
1850.0,-15342,-69564,84708,74722
1852.0,-15138,-69652,84576,74615
1854.0,-14908,-69537,84662,74715
1856.0,-15049,-69380,84900,74911
1858.0,-15252,-69522,84988,74912
1860.0,-15008,-69640,84938,74776
1862.0,-14639,-69430,84951,74739
1864.0,-14701,-69276,85042,74815
1866.0,-14945,-69438,85133,74901
1868.0,-14881,-69619,85190,74963
1870.0,-14583,-69622,85128,74934
1872.0,-14317,-69559,84942,74784
1874.0,-14157,-69537,84860,74699
1876.0,-14183,-69661,85051,74839
1878.0,-14446,-69944,85342,75058
1880.0,-14860,-70155,85465,75105
1882.0,-15305,-70165,85363,74939
1884.0,-15487,-70102,85154,74710
1886.0,-15070,-69978,85006,74598
1888.0,-14328,-69755,85043,74685
1890.0,-14024,-69616,85205,74850
1892.0,-14320,-69613,85311,74895
1894.03,-14648,-69555,85315,74826
1896.05,-14718,-69523,85316,74792
1898.08,-14758,-69724,85349,74819
1900.1,-14828,-69882,85360,74800
1902.1,-14691,-69696,85314,74701
1904.1,-14359,-69513,85227,74589
1906.1,-14183,-69674,85140,74527
1908.1,-14399,-69884,85099,74520
1910.1,-14835,-69895,85082,74509
1912.1,-15075,-69935,85035,74449
1914.1,-14906,-70037,84983,74391
1916.1,-14586,-69929,84980,74398
1918.1,-14515,-69691,84980,74425
1920.1,-14655,-69611,84914,74392
1922.1,-14663,-69609,84795,74308
1924.1,-14503,-69500,84660,74236
1926.1,-14426,-69368,84564,74234
1928.1,-14520,-69326,84589,74316
1930.1,-14706,-69429,84654,74370
1932.1,-14879,-69721,84523,74246
1934.1,-14870,-69932,84233,74037
1936.1,-14710,-69717,84147,74024
1938.1,-14700,-69387,84343,74218
1940.1,-14815,-69427,84455,74318
1942.1,-14749,-69537,84312,74231
1944.1,-14717,-69318,84169,74179
1946.1,-15095,-69197,84149,74237
1948.1,-15491,-69502,84087,74248
1950.1,-15428,-69714,83963,74196
1952.1,-15252,-69540,83912,74193
1954.1,-15267,-69405,83879,74182
1956.1,-15159,-69464,83741,74075
1958.1,-15028,-69496,83575,73971
1960.1,-15419,-69654,83464,73931
1962.1,-15987,-70027,83341,73857
1964.1,-15901,-70074,83203,73757
1966.1,-15385,-69589,83148,73753
1968.1,-15194,-69244,83136,73808
1970.1,-15255,-69421,83090,73828
1972.1,-15247,-69671,83104,73883
1974.1,-15357,-69714,83203,73984
1976.1,-15477,-69745,83148,73912
1978.1,-15252,-69774,82855,73627
1980.1,-15236,-69746,82639,73450
1982.1,-15992,-69902,82676,73530
1984.1,-16533,-70202,82730,73605
1986.1,-15931,-70171,82671,73544
1988.1,-15254,-69825,82713,73567
1990.1,-15582,-69709,82907,73754
1992.1,-16030,-69824,83017,73880
1994.1,-15789,-69712,82969,73853
1996.1,-15721,-69499,82881,73769
1998.1,-16279,-69651,82741,73641
2000.1,-16444,-70024,82560,73511
2002.1,-15849,-70193,82538,73566
2004.1,-15489,-70178,82711,73794
2006.1,-15734,-70115,82820,73894
2008.1,-15838,-69890,82762,73777
2010.1,-15561,-69598,82727,73684
2012.1,-15465,-69571,82791,73723
2014.1,-15693,-69746,82817,73733
2016.1,-15808,-69782,82760,73653
2018.1,-15670,-69703,82708,73586
2020.1,-15529,-69704,82677,73565
2022.1,-15549,-69680,82628,73550
2024.1,-15733,-69550,82595,73557
2026.1,-15966,-69501,82621,73618
2028.1,-15961,-69574,82687,73706
2030.1,-15658,-69602,82748,73763
2032.1,-15496,-69649,82750,73746
2034.1,-15753,-69835,82690,73679
2036.1,-16032,-69971,82661,73662
2038.1,-15929,-69880,82717,73738
2040.1,-15581,-69661,82788,73823
2042.1,-15267,-69411,82850,73899
2044.1,-15152,-69248,82959,74018
2046.1,-15389,-69431,82979,74052
2048.1,-15793,-69849,82728,73842
2050.1,-15864,-69958,82412,73585
2052.1,-15572,-69660,82414,73597
2054.1,-15366,-69388,82688,73801
2056.1,-15243,-69187,82878,73907
2058.1,-14935,-68842,82879,73885
2060.1,-14802,-68686,82831,73863
2062.1,-15265,-69061,82807,73864
2064.1,-15815,-69520,82795,73877
2066.1,-15853,-69638,82781,73903
2068.1,-15765,-69726,82762,73894
2070.1,-15995,-69928,82777,73855
2072.1,-16091,-69860,82839,73868
2074.1,-15748,-69599,82844,73912
2076.1,-15533,-69625,82738,73877
2078.1,-15705,-69779,82630,73777
2080.1,-15754,-69664,82587,73698
2082.1,-15602,-69522,82554,73656
2084.1,-15762,-69563,82558,73660
2086.1,-16128,-69475,82666,73725
2088.1,-16099,-69299,82772,73787
2090.1,-15727,-69427,82756,73796
2092.1,-15555,-69665,82705,73809
2094.1,-15730,-69702,82718,73840
2096.1,-15981,-69812,82734,73815
2098.1,-16040,-69992,82715,73772
2100.1,-15879,-69750,82723,73809
2102.1,-15780,-69355,82736,73855
2104.1,-15945,-69552,82673,73786
2106.1,-16103,-70055,82574,73672
2108.1,-15978,-70051,82517,73634
2110.1,-15719,-69645,82494,73629
2112.1,-15513,-69405,82494,73605
2114.1,-15399,-69404,82550,73633
2116.1,-15516,-69557,82624,73731
2118.1,-15835,-69861,82623,73776
2120.1,-15923,-70006,82529,73697
2122.1,-15567,-69698,82405,73564
2124.1,-15141,-69238,82322,73468
2126.1,-15040,-69116,82329,73447
2128.1,-15247,-69353,82407,73483
2130.1,-15478,-69655,82478,73531
2132.1,-15445,-69795,82497,73562
2134.1,-15166,-69686,82469,73567
2136.1,-15036,-69451,82407,73546
2138.1,-15269,-69394,82346,73515
2140.1,-15530,-69621,82307,73493
2142.1,-15502,-69888,82229,73450
2144.1,-15388,-69984,82095,73370
2146.1,-15504,-69959,82062,73344
2148.1,-15805,-69905,82234,73449
2150.1,-16021,-69871,82430,73579
2152.1,-15983,-69903,82428,73565
2154.1,-15822,-69902,82291,73439
2156.1,-15878,-69768,82242,73388
2158.1,-16171,-69691,82312,73467
2160.1,-16242,-69852,82325,73506
2162.1,-15977,-70074,82173,73362
2164.1,-15922,-70235,81971,73143
2166.1,-16187,-70411,81926,73078
2168.1,-16100,-70381,82089,73217
2170.1,-15565,-69882,82292,73401
2172.1,-15344,-69314,82357,73497
2174.1,-15545,-69223,82266,73491
2176.1,-15483,-69500,82112,73390
2178.1,-15199,-69806,82015,73256
2180.1,-15403,-70133,82061,73210
2182.1,-16101,-70513,82134,73212
2184.1,-16652,-70815,82030,73086
2186.1,-16687,-70824,81884,72964
2188.1,-16182,-70304,82050,73183
2190.1,-15482,-69437,82432,73613
2192.1,-15260,-68954,82581,73768
2194.1,-15570,-69184,82465,73614
2196.1,-15618,-69577,82381,73490
2198.1,-15232,-69695,82336,73452
2200.1,-15253,-69763,82243,73403
2202.1,-15876,-69937,82261,73440
2204.1,-16171,-69984,82366,73522
2206.1,-15685,-69847,82270,73414
2208.1,-15157,-69808,82029,73206
2210.1,-15311,-70020,81953,73168
2212.1,-15901,-70282,81979,73193
2214.1,-16296,-70369,81913,73100
2216.1,-16406,-70349,81887,73048
2218.1,-16460,-70329,81975,73129
2220.1,-16265,-70163,81991,73161
2222.1,-15617,-69831,81972,73166
2224.1,-15105,-69687,82116,73323
2226.1,-15310,-69803,82252,73454
2228.1,-15707,-69800,82135,73324
2230.1,-15637,-69729,81972,73152
2232.1,-15512,-70053,82009,73185
2234.1,-15817,-70529,82084,73264
2236.1,-16110,-70445,82056,73240
2238.1,-16015,-69984,82079,73253
2240.1,-15899,-69893,82191,73347
2242.1,-15963,-70078,82226,73375
2244.1,-15996,-70013,82179,73347
2246.1,-16031,-69910,82168,73360
2248.1,-16112,-70105,82157,73360
2250.1,-15958,-70206,82082,73284
2252.1,-15649,-70007,82010,73208
2254.13,-15627,-69971,82001,73197
2256.15,-15764,-70140,82038,73249
2258.18,-15713,-70062,82092,73330
2260.2,-15732,-69908,82109,73339
2262.2,-15897,-70039,82076,73238
2264.2,-15706,-70104,82095,73200
2266.2,-15472,-70023,82135,73260
2268.2,-16149,-70447,81942,73126
2270.2,-17156,-71110,81575,72783
2272.2,-16831,-70785,81555,72754
2274.2,-15279,-69572,82048,73237
2276.2,-14258,-68907,82497,73675
2278.2,-14468,-69172,82458,73632
2280.2,-15111,-69510,82162,73379
2282.2,-15545,-69620,81999,73273
2284.2,-15734,-69851,82007,73259
2286.2,-15790,-70170,82035,73176
2288.2,-15935,-70285,82016,73067
2290.2,-16250,-70201,82011,73066
2292.2,-16379,-70077,82096,73215
2294.2,-16118,-69961,82236,73406
2296.2,-15833,-69814,82322,73501
2298.2,-15818,-69635,82328,73477
2300.2,-15879,-69585,82269,73387
2302.2,-15789,-69772,82131,73265
2304.2,-15547,-69947,81995,73180
2306.2,-15289,-69847,82000,73215
2308.2,-15292,-69704,82110,73313
2310.2,-15670,-69843,82149,73327
2312.2,-16036,-70108,82067,73235
2314.2,-16027,-70216,81958,73148
2316.2,-15881,-70245,81897,73135
2318.2,-15954,-70327,81909,73170
2320.2,-16124,-70335,81972,73180
2322.2,-16121,-70178,82003,73112
2324.2,-15903,-69982,81972,73017
2326.2,-15594,-69876,81986,73030
2328.2,-15465,-69907,82092,73169
2330.2,-15734,-70038,82150,73276
2332.2,-16139,-70078,82044,73225
2334.2,-16226,-69952,81872,73086
2336.2,-16052,-69949,81806,73014
2338.2,-15960,-70229,81910,73084
2340.2,-15961,-70433,82114,73246
2342.2,-15956,-70330,82234,73333
2344.2,-16054,-70229,82129,73230
2346.2,-16208,-70347,81919,73061
2348.2,-16183,-70487,81862,73037
2350.2,-16029,-70508,81980,73134
2352.2,-15902,-70372,82088,73190
2354.2,-15620,-69972,82125,73215
2356.2,-15136,-69481,82157,73296
2358.2,-14904,-69342,82171,73357
2360.2,-15152,-69612,82126,73308
2362.2,-15493,-69898,82085,73228
2364.2,-15644,-69933,82091,73201
2366.2,-15706,-69748,82100,73186
2368.2,-15668,-69546,82107,73187
2370.2,-15495,-69617,82148,73273
2372.2,-15550,-70032,82123,73332
2374.2,-16024,-70454,81907,73159
2376.2,-16339,-70501,81680,72885
2378.2,-15962,-70135,81770,72900
2380.2,-15346,-69654,82107,73211
2382.2,-15235,-69458,82263,73387
2384.2,-15530,-69652,82113,73277
2386.2,-15617,-69891,81956,73161
2388.2,-15432,-69906,81942,73161
2390.2,-15442,-69928,81970,73159
2392.2,-15792,-70159,82038,73200
2394.2,-16081,-70319,82138,73311
2396.2,-15995,-70212,82028,73227
2398.2,-15736,-70112,81694,72928
2400.2,-15696,-70152,81608,72898
2402.2,-15963,-70059,81986,73305
2404.2,-16291,-69815,82354,73608
2406.2,-16394,-69750,82345,73479
2408.2,-16144,-69838,82213,73287
2410.2,-15668,-69770,82182,73275
2412.2,-15330,-69665,82080,73208
2414.2,-15465,-69874,81916,73067
2416.2,-15988,-70307,81945,73114
2418.2,-16398,-70603,82036,73207
2420.2,-16324,-70614,81893,73041
2422.2,-15969,-70404,81753,72894
2424.2,-15830,-70126,81962,73132
2426.2,-15977,-69930,82215,73420
2428.2,-16006,-69828,82117,73331
2430.2,-15774,-69835,81916,73118
2432.2,-15657,-70055,81957,73132
2434.2,-15831,-70299,82087,73235
2436.2,-15934,-70197,82089,73246
2438.2,-15750,-69920,82024,73230
2440.2,-15562,-69895,81957,73211
2442.2,-15597,-69976,81907,73186
2444.2,-15803,-69938,81936,73224
2446.2,-16138,-70117,81975,73244
2448.2,-16367,-70490,81910,73115
2450.2,-16003,-70349,81881,73027
2452.2,-15249,-69750,82011,73157
2454.2,-15087,-69624,82104,73285
2456.2,-15663,-70014,82037,73237
2458.2,-15911,-70057,82004,73212
2460.2,-15465,-69697,82073,73297
2462.2,-15243,-69597,82071,73298
2464.2,-15608,-69779,81998,73201
2466.2,-15810,-69834,81992,73174
2468.2,-15575,-69800,81988,73177
2470.2,-15516,-69829,81911,73120
2472.2,-15843,-69828,81890,73116
2474.2,-16100,-69890,81944,73190
2476.2,-16161,-70208,81910,73176
2478.2,-16322,-70514,81835,73103
2480.2,-16467,-70417,81903,73156
2482.2,-16093,-70075,82010,73262
2484.2,-15302,-69892,81958,73243
2486.2,-14948,-69888,81864,73204
2488.2,-15425,-69867,81878,73250
2490.2,-15995,-69855,81874,73218
2492.2,-15933,-69989,81809,73085
2494.2,-15672,-70250,81874,73090
2496.2,-15945,-70452,82075,73257
2498.2,-16389,-70356,82181,73348
2500.2,-16159,-69935,82129,73307
2502.2,-15489,-69556,82040,73257
2504.2,-15318,-69575,81963,73204
2506.2,-15669,-69825,81899,73127
2508.2,-15823,-69956,81893,73100
2510.2,-15681,-69922,81929,73141
2512.2,-15580,-69782,81932,73165
2514.2,-15482,-69554,81898,73146
2516.2,-15432,-69468,81928,73180
2518.2,-15746,-69659,82091,73339
2520.2,-16118,-69792,82252,73498
2522.2,-15986,-69672,82165,73412
2524.2,-15717,-69696,81891,73134
2526.2,-15856,-70080,81826,73074
2528.2,-16011,-70426,82037,73319
2530.2,-15852,-70421,82068,73392
2532.2,-15814,-70183,81743,73061
2534.2,-15951,-69889,81509,72775
2536.2,-15810,-69696,81660,72890
2538.2,-15585,-69779,81934,73161
2540.2,-15695,-70032,82085,73310
2542.2,-15745,-70074,82190,73401
2544.2,-15344,-69762,82295,73495
2546.2,-14997,-69365,82323,73510
2548.2,-15167,-69212,82296,73463
2550.2,-15532,-69359,82292,73438
2552.2,-15726,-69606,82325,73437
2554.2,-15790,-69773,82395,73445
2556.2,-15694,-69788,82470,73472
2558.2,-15352,-69615,82466,73488
2560.2,-15093,-69419,82391,73477
2562.2,-15310,-69552,82325,73458
2564.2,-15740,-69918,82289,73430
2566.2,-15825,-69892,82329,73453
2568.2,-15556,-69336,82498,73603
2570.2,-15395,-68920,82657,73771
2572.2,-15519,-69031,82617,73791
2574.2,-15600,-69271,82433,73696
2576.2,-15407,-69316,82251,73577
2578.2,-15363,-69353,82113,73437
2580.2,-15887,-69493,82098,73365
2582.2,-16338,-69523,82226,73439
2584.2,-15850,-69410,82270,73489
2586.2,-15100,-69459,82141,73407
2588.2,-15384,-69800,82116,73402
2590.2,-16260,-70121,82264,73538
2592.2,-16323,-70109,82257,73545
2594.2,-15658,-69826,82037,73385
2596.2,-15316,-69542,81929,73326
2598.2,-15403,-69485,81967,73365
2600.2,-15498,-69750,81885,73260
2602.2,-15682,-70140,81733,73086
2604.2,-15920,-70243,81760,73087
2606.2,-15806,-69947,81880,73178
2608.2,-15468,-69611,81856,73149
2610.2,-15471,-69561,81762,73085
2612.3,-15789,-69728,81790,73135
2614.3,-15947,-69884,81857,73190
2616.3,-15929,-69979,81780,73092
2618.3,-16038,-70138,81593,72916
2620.3,-16142,-70324,81478,72822
2622.3,-15884,-70239,81533,72870
2624.3,-15479,-69871,81674,72977
2626.3,-15509,-69736,81714,72992
2628.3,-15931,-70039,81609,72896
2630.3,-16112,-70246,81553,72863
2632.3,-15955,-70079,81669,72988
2634.3,-16007,-70005,81799,73116
2636.3,-16225,-70213,81774,73115
2638.3,-15903,-70210,81675,73064
2640.3,-15192,-69859,81685,73077
2642.3,-15114,-69666,81827,73158
2644.3,-15678,-69812,81926,73210
2646.3,-15809,-69918,81825,73119
2648.3,-15403,-69819,81678,72990
2650.3,-15464,-69756,81779,73082
2652.3,-16133,-69884,82022,73316
2654.3,-16501,-70077,82025,73317
2656.3,-16194,-70135,81842,73103
2658.3,-15727,-70040,81899,73058
2660.3,-15664,-70051,82223,73195
2662.3,-16142,-70339,82482,73200
2664.3,-16699,-70588,82645,73111
2666.3,-16688,-70449,82935,73198
2668.3,-16203,-70197,83338,73431
2670.3,-15857,-70259,83690,73648
2672.3,-15609,-70364,84003,73933
2674.3,-15078,-69987,84339,74427
2676.3,-14608,-69281,84625,75064
2678.3,-14598,-68703,84829,75763
2680.3,-14565,-68114,85053,76650
2682.3,-14107,-67124,85301,77903
2684.3,-13729,-65870,85339,79459
2686.3,-13779,-64667,84970,81044
2688.3,-13824,-63449,84279,82486
2690.3,-13608,-62163,83425,83799
2692.3,-13429,-61042,82442,84981
2694.3,-13432,-60140,81436,85999
2696.3,-13492,-59337,80582,86891
2698.3,-13599,-58817,79772,87607
2700.3,-13753,-58741,78782,87894
2702.3,-13956,-58852,77783,87552
2704.3,-14392,-59160,77064,86621
2706.3,-15081,-60207,76477,85187
2708.3,-15656,-61932,75822,83277
2710.3,-16014,-63434,75311,80976
2712.3,-16506,-64422,75096,78474
2714.3,-17167,-65516,74981,76030
2716.3,-17610,-66793,74984,73965
2718.3,-17773,-67583,75357,72512
2720.3,-17908,-67881,75908,71618
2722.3,-17966,-68355,76239,71108
2724.3,-17781,-68934,76585,70996
2726.3,-17549,-68943,77429,71339
2728.3,-17451,-68479,78537,71879
2730.3,-17233,-68257,79331,72275
2732.3,-16726,-68424,79856,72566
2734.3,-16263,-68604,80490,72973
2736.3,-16124,-68634,81148,73416
2738.3,-16108,-68583,81526,73646
2740.3,-16067,-68650,81660,73638
2742.3,-16210,-69116,81745,73519
2744.3,-16498,-69749,81831,73384
2746.3,-16420,-69785,81930,73314
2748.3,-15769,-69168,82048,73326
2750.3,-15068,-68782,82141,73363
2752.3,-14924,-68988,82214,73430
2754.3,-15353,-69237,82294,73532
2756.3,-15899,-69292,82314,73558
2758.3,-16135,-69412,82305,73493
2760.3,-16042,-69516,82419,73505
2762.3,-15937,-69391,82614,73605
2764.3,-15987,-69260,82671,73606
2766.3,-16000,-69355,82568,73485
2768.3,-15880,-69549,82437,73379
2770.3,-15860,-69722,82321,73321
2772.3,-15970,-69830,82261,73299
2774.3,-15873,-69747,82328,73346
2776.3,-15570,-69562,82411,73384
2778.3,-15523,-69582,82352,73296
2780.3,-15769,-69767,82258,73179
2782.3,-15798,-69782,82298,73188
2784.3,-15517,-69649,82382,73255
2786.3,-15337,-69667,82352,73239
2788.3,-15293,-69774,82276,73188
2790.3,-15163,-69667,82337,73252
2792.3,-15247,-69427,82582,73474
2794.3,-15839,-69399,82841,73705
2796.3,-16343,-69529,82867,73732
2798.3,-16092,-69454,82642,73551
2800.3,-15478,-69192,82454,73411
2802.3,-15249,-69136,82490,73437
2804.3,-15397,-69361,82608,73485
2806.3,-15556,-69572,82670,73488
2808.3,-15715,-69673,82730,73546
2810.3,-15921,-69751,82764,73596
2812.3,-15980,-69714,82627,73455
2814.3,-15832,-69521,82405,73227
2816.3,-15686,-69472,82371,73196
2818.3,-15733,-69787,82523,73331
2820.3,-16006,-70241,82561,73336
2822.3,-16328,-70491,82409,73165
2824.3,-16345,-70377,82368,73123
2826.3,-15948,-69912,82612,73360
2828.3,-15482,-69298,82888,73619
2830.3,-15208,-68857,82948,73660
2832.3,-15009,-68761,82936,73645
2834.3,-14889,-68953,83060,73787
2836.3,-15050,-69269,83187,73932
2838.3,-15292,-69458,83109,73855
2840.3,-15191,-69362,82932,73692
2842.3,-14942,-69215,82876,73679
2844.3,-15128,-69378,82957,73752
2846.3,-15676,-69733,83085,73742
2848.3,-15934,-69808,83209,73709
2850.3,-15702,-69512,83289,73783
2852.3,-15390,-69210,83305,73903
2854.3,-15291,-69108,83308,73958
2856.3,-15316,-69114,83340,73955
2858.3,-15308,-69191,83378,73945
2860.3,-15220,-69299,83424,73941
2862.3,-15117,-69261,83502,73967
2864.3,-15080,-69121,83531,74002
2866.3,-15086,-69176,83423,73959
2868.3,-15135,-69406,83302,73859
2870.3,-15329,-69497,83365,73852
2872.3,-15539,-69463,83548,73959
2874.3,-15459,-69525,83637,74031
2876.3,-15248,-69578,83634,74039
2878.3,-15319,-69463,83686,74087
2880.3,-15453,-69387,83779,74164
2882.3,-15212,-69524,83812,74176
2884.3,-14939,-69637,83815,74155
2886.3,-15122,-69456,83888,74218
2888.3,-15390,-69086,84024,74375
2890.3,-15277,-68880,84113,74499
2892.3,-15034,-69016,84103,74491
2894.3,-14926,-69264,84118,74445
2896.3,-14825,-69333,84292,74526
2898.3,-14813,-69288,84511,74681
2900.3,-15003,-69266,84566,74715
2902.3,-15015,-69160,84517,74654
2904.3,-14711,-69015,84584,74697
2906.3,-14649,-69087,84748,74837
2908.3,-14945,-69235,84822,74900
2910.3,-14933,-69111,84806,74879
2912.3,-14503,-68904,84840,74909
2914.3,-14314,-68962,84912,74977
2916.3,-14525,-69099,84886,74941
2918.3,-14711,-69103,84812,74840
2920.3,-14771,-69152,84913,74898
2922.3,-14749,-69198,85165,75117
2924.3,-14452,-68945,85256,75191
2926.3,-14062,-68624,85115,75021
2928.3,-14107,-68724,85054,74896
2930.3,-14463,-69088,85181,74956
2932.3,-14539,-69190,85235,74992
2934.3,-14328,-68987,85158,74937
2936.3,-14222,-68847,85176,74965
2938.3,-14284,-68937,85280,75033
2940.3,-14481,-69082,85237,74930
2942.3,-14832,-69021,85053,74715
2944.3,-14957,-68744,84926,74598
2946.3,-14508,-68589,84943,74613
2948.3,-13991,-68796,85086,74718
2950.3,-14069,-69102,85250,74846
2952.3,-14413,-69138,85209,74808
2954.3,-14342,-68992,84944,74562
2956.3,-14058,-69008,84780,74414
2958.3,-14194,-69253,84878,74531
2960.3,-14644,-69497,84976,74630
2962.3,-14794,-69514,84903,74513
2964.3,-14539,-69285,84854,74403
2966.3,-14305,-69048,84931,74454
2968.3,-14304,-69068,84902,74449
2970.3,-14381,-69248,84667,74270
2972.4,-14442,-69229,84526,74185
2974.4,-14519,-68968,84693,74392
2976.4,-14558,-68808,84881,74631
2978.4,-14515,-68870,84744,74583
2980.4,-14500,-68902,84459,74376
2982.4,-14594,-68823,84392,74317
2984.4,-14714,-68818,84458,74367
2986.4,-14774,-68889,84324,74295
2988.4,-14853,-68954,84015,74115
2990.4,-15146,-69201,83805,73993
2992.4,-15623,-69664,83763,73969
2994.4,-15792,-69828,83772,74003
2996.4,-15272,-69343,83771,74076
2998.4,-14587,-68680,83759,74148
3000.4,-14573,-68456,83732,74178
3002.4,-15070,-68649,83674,74158
3004.4,-15282,-68913,83549,74071
3006.4,-15184,-69089,83364,73926
3008.4,-15285,-69143,83225,73840
3010.4,-15450,-69093,83192,73875
3012.4,-15340,-69076,83176,73918
3014.4,-15300,-69137,83123,73899
3016.4,-15601,-69123,83116,73923
3018.4,-15782,-69050,83117,73986
3020.4,-15637,-69192,82916,73870
3022.4,-15602,-69529,82554,73562
3024.4,-15639,-69584,82402,73407
3026.4,-15251,-69164,82582,73550
3028.4,-14741,-68814,82737,73682
3030.4,-14900,-69044,82634,73585
3032.4,-15586,-69515,82482,73460
3034.4,-15963,-69532,82469,73488
3036.4,-15780,-69092,82484,73556
3038.4,-15403,-68840,82448,73562
3040.4,-15156,-69087,82435,73559
3042.4,-15251,-69498,82425,73538
3044.4,-15703,-69712,82325,73435
3046.4,-16043,-69691,82206,73321
3048.4,-15826,-69482,82209,73310
3050.4,-15326,-69136,82285,73362
3052.4,-15078,-68888,82288,73365
3054.4,-15114,-68962,82225,73339
3056.4,-15225,-69190,82205,73364
3058.4,-15374,-69219,82188,73378
3060.4,-15443,-69031,82078,73292
3062.4,-15317,-68913,82035,73263
3064.4,-15340,-68999,82288,73493
3066.4,-15791,-69194,82625,73764
3068.4,-16137,-69359,82603,73686
3070.4,-15786,-69348,82291,73382
3072.4,-15188,-69146,82158,73302
3074.4,-15207,-69091,82274,73452
3076.4,-15801,-69394,82312,73476
3078.4,-16170,-69623,82214,73339
3080.4,-15933,-69382,82191,73293
3082.4,-15513,-69045,82246,73360
3084.4,-15393,-68998,82244,73396
3086.4,-15514,-68932,82222,73408
3088.4,-15590,-68681,82266,73473
3090.4,-15564,-68698,82328,73562
3092.4,-15533,-69104,82344,73604
3094.4,-15563,-69448,82290,73532
3096.4,-15696,-69582,82164,73338
3098.4,-15784,-69637,82087,73215
3100.4,-15568,-69405,82256,73408
3102.4,-15225,-68861,82598,73799
3104.4,-15266,-68659,82765,73981
3106.4,-15660,-69120,82589,73829
3108.4,-15876,-69512,82323,73646
3110.4,-15797,-69230,82258,73662
3112.4,-15722,-68802,82347,73742
3114.4,-15687,-68883,82389,73704
3116.4,-15608,-69152,82370,73619
3118.4,-15601,-69053,82394,73625
3120.4,-15564,-68765,82433,73680
3122.4,-15219,-68669,82369,73659
3124.4,-14891,-68681,82200,73546
3126.4,-15193,-68705,82057,73421
3128.4,-15827,-68875,82068,73362
3130.4,-15908,-69053,82225,73401
3132.4,-15484,-68994,82344,73462
3134.4,-15419,-68964,82301,73466
3136.4,-15872,-69282,82240,73482
3138.4,-16094,-69571,82307,73572
3140.4,-15714,-69313,82353,73595
3142.4,-15168,-68694,82252,73484
3144.4,-14867,-68289,82202,73450
3146.4,-14778,-68348,82335,73605
3148.4,-14845,-68711,82438,73730
3150.4,-15101,-69025,82362,73670
3152.4,-15381,-69015,82250,73561
3154.4,-15502,-68809,82208,73525
3156.4,-15568,-68783,82158,73515
3158.4,-15704,-68946,82070,73474
3160.4,-15776,-68957,82044,73423
3162.4,-15678,-68786,82131,73398
3164.4,-15504,-68772,82222,73394
3166.4,-15375,-69032,82187,73361
3168.4,-15418,-69351,82099,73311
3170.4,-15717,-69576,82149,73373
3172.4,-16007,-69666,82284,73526
3174.4,-15905,-69560,82215,73506
3176.4,-15574,-69330,81928,73232
3178.4,-15496,-69159,81782,73035
3180.4,-15629,-69038,81926,73151
3182.4,-15591,-68906,82065,73337
3184.4,-15509,-68957,81969,73286
3186.4,-15748,-69235,81811,73107
3188.4,-16013,-69320,81815,73084
3190.4,-15780,-69068,81887,73199
3192.4,-15337,-68953,81825,73212
3194.4,-15308,-69095,81691,73098
3196.4,-15519,-69022,81705,73071
3198.4,-15493,-68784,81870,73197
3200.4,-15478,-68963,81973,73288
3202.4,-15826,-69448,81919,73213
3204.4,-16038,-69554,81826,73082
3206.4,-15593,-69205,81800,73052
3208.4,-15037,-68906,81828,73133
3210.4,-15199,-68918,81838,73209
3212.4,-15847,-69147,81767,73184
3214.4,-16032,-69332,81649,73091
3216.4,-15511,-69205,81638,73072
3218.4,-15016,-68886,81796,73166
3220.4,-15090,-68822,81928,73207
3222.4,-15416,-69086,81854,73079
3224.4,-15540,-69288,81712,72947
3226.4,-15489,-69274,81703,72978
3228.4,-15427,-69299,81734,73031
3230.4,-15427,-69450,81665,72953
3232.4,-15641,-69465,81631,72907
3234.4,-16054,-69278,81736,73022
3236.4,-16327,-69249,81797,73107
3238.4,-16308,-69582,81711,73036
3240.4,-16195,-69892,81640,72987
3242.4,-16035,-69770,81651,73036
3244.4,-15740,-69394,81615,73018
3246.4,-15485,-69189,81524,72905
3248.4,-15489,-69248,81499,72856
3250.4,-15635,-69320,81557,72921
3252.4,-15683,-69167,81641,73013
3254.4,-15588,-68877,81714,73068
3256.4,-15500,-68803,81728,73053
3258.4,-15591,-69030,81684,72984
3260.4,-15823,-69269,81648,72924
3262.4,-15986,-69414,81620,72901
3264.4,-15975,-69544,81588,72911
3266.4,-15778,-69428,81638,72992
3268.4,-15364,-68953,81777,73119
3270.4,-14962,-68670,81843,73156
3272.4,-15015,-68956,81794,73081
3274.4,-15456,-69288,81787,73049
3276.4,-15661,-69183,81851,73107
3278.4,-15462,-68993,81833,73115
3280.4,-15405,-69145,81710,73018
3282.4,-15761,-69476,81613,72926
3284.4,-16123,-69715,81587,72902
3286.4,-16221,-69861,81589,72905
3288.4,-16238,-69901,81604,72907
3290.4,-16177,-69724,81610,72904
3292.4,-15828,-69409,81588,72897
3294.4,-15410,-69182,81594,72911
3296.4,-15369,-69113,81656,72947
3298.4,-15632,-69144,81670,72956
3300.4,-15821,-69296,81594,72939
3302.4,-15876,-69538,81555,72971
3304.4,-15880,-69652,81611,73039
3306.4,-15801,-69528,81646,73046
3308.4,-15746,-69336,81601,72974
3310.4,-15849,-69222,81573,72903
3312.4,-15873,-69143,81607,72873
3314.4,-15586,-69062,81620,72864
3316.4,-15318,-69049,81580,72862
3318.4,-15488,-69171,81556,72867
3320.4,-15871,-69339,81585,72873
3322.4,-15879,-69322,81632,72890
3324.4,-15494,-69121,81642,72914
3326.4,-15373,-69145,81575,72878
3328.4,-15810,-69512,81441,72756
3330.4,-16177,-69705,81349,72667
3332.4,-15977,-69512,81378,72712
3334.4,-15687,-69423,81448,72802
3336.4,-15775,-69573,81461,72819
3338.4,-15876,-69506,81467,72817
3340.4,-15721,-69208,81489,72854
3342.4,-15658,-69076,81425,72838
3344.43,-15782,-69080,81316,72762
3346.45,-15797,-69099,81369,72786
3348.48,-15769,-69318,81554,72914
3350.5,-15828,-69534,81629,72967
3352.5,-15646,-69222,81604,72941
3354.5,-15169,-68635,81654,72973
3356.5,-14993,-68539,81691,73005
3358.5,-15344,-68914,81574,72937
3360.5,-15700,-69188,81477,72878
3362.5,-15770,-69312,81553,72902
3364.5,-15872,-69545,81612,72870
3366.5,-16173,-69748,81525,72747
3368.5,-16308,-69659,81462,72709
3370.5,-15948,-69312,81524,72803
3372.5,-15386,-68911,81583,72891
3374.5,-15228,-68708,81568,72902
3376.5,-15480,-68885,81512,72863
3378.5,-15549,-69228,81439,72808
3380.5,-15416,-69367,81439,72829
3382.5,-15736,-69358,81588,72972
3384.5,-16358,-69423,81732,73074
3386.5,-16243,-69410,81666,72979
3388.5,-15363,-69185,81498,72817
3390.5,-14959,-69041,81469,72805
3392.5,-15485,-69167,81553,72906
3394.5,-16021,-69316,81564,72951
3396.5,-15949,-69312,81485,72903
3398.5,-15723,-69316,81411,72823
3400.5,-15909,-69519,81366,72748
3402.5,-16425,-69833,81352,72721
3404.5,-16657,-69841,81404,72795
3406.5,-16148,-69292,81509,72933
3408.5,-15420,-68800,81563,73000
3410.5,-15509,-69212,81485,72895
3412.5,-16291,-70100,81316,72686
3414.5,-16485,-70176,81210,72576
3416.5,-15729,-69349,81283,72688
3418.5,-15083,-68775,81479,72915
3420.5,-15135,-68879,81647,73064
3422.5,-15344,-69018,81710,73086
3424.5,-15369,-68943,81675,73042
3426.5,-15410,-68968,81566,72961
3428.5,-15427,-69053,81450,72867
3430.5,-15319,-69015,81438,72841
3432.5,-15381,-69059,81543,72925
3434.5,-15685,-69228,81649,73032
3436.5,-15867,-69223,81640,73028
3438.5,-15917,-69209,81509,72878
3440.5,-16078,-69537,81352,72707
3442.5,-16052,-69723,81297,72682
3444.5,-15633,-69230,81387,72805
3446.5,-15494,-68751,81503,72907
3448.5,-15955,-69023,81503,72873
3450.5,-16106,-69375,81405,72774
3452.5,-15587,-69175,81335,72721
3454.5,-15558,-69214,81336,72713
3456.5,-16465,-69916,81369,72727
3458.5,-16849,-70112,81456,72814
3460.5,-15868,-69197,81626,72983
3462.5,-14822,-68443,81752,73089
3464.5,-14904,-68787,81680,73011
3466.5,-15536,-69370,81511,72875
3468.5,-15912,-69313,81500,72893
3470.5,-16125,-69036,81657,73031
3472.5,-16233,-69094,81733,73066
3474.5,-15983,-69226,81653,72977
3476.5,-15622,-69100,81596,72937
3478.5,-15588,-68930,81587,72937
3480.5,-15744,-69009,81460,72806
3482.5,-15814,-69268,81282,72640
3484.5,-15834,-69447,81304,72695
3486.5,-15751,-69398,81469,72892
3488.5,-15597,-69204,81492,72946
3490.5,-15760,-69079,81377,72864
3492.5,-16091,-69127,81308,72802
3494.5,-15869,-69305,81238,72696
3496.5,-15449,-69600,81100,72516
3498.5,-15954,-69922,81099,72516
3500.5,-16875,-69944,81330,72766
3502.5,-16666,-69558,81509,72937
3504.5,-15680,-69204,81465,72864
3506.5,-15429,-69144,81438,72827
3508.5,-15636,-69005,81583,72971
3510.5,-15182,-68632,81668,73037
3512.5,-14684,-68555,81551,72901
3514.5,-15156,-69015,81447,72804
3516.5,-15776,-69437,81478,72848
3518.5,-15485,-69288,81476,72845
3520.5,-15001,-68760,81424,72813
3522.5,-15304,-68447,81545,72984
3524.5,-15916,-68705,81783,73236
3526.5,-16052,-69269,81788,73187
3528.5,-15918,-69543,81521,72881
3530.5,-15896,-69398,81313,72713
3532.5,-15802,-69251,81305,72748
3534.5,-15585,-69317,81365,72770
3536.5,-15642,-69401,81441,72777
3538.5,-15918,-69359,81517,72839
3540.5,-15765,-69201,81446,72799
3542.5,-15143,-69000,81233,72606
3544.5,-14894,-68936,81173,72557
3546.5,-15386,-69085,81368,72774
3548.5,-16029,-69284,81515,72933
3550.5,-16334,-69459,81445,72841
3552.5,-16299,-69561,81390,72748
3554.5,-15883,-69315,81489,72829
3556.5,-15326,-68791,81555,72910
3558.5,-15400,-68639,81511,72894
3560.5,-16169,-69000,81513,72887
3562.5,-16562,-69235,81541,72854
3564.5,-16114,-69207,81427,72678
3566.5,-15711,-69383,81296,72537
3568.5,-15845,-69560,81399,72671
3570.5,-15862,-69167,81610,72911
3572.5,-15471,-68588,81591,72931
3574.5,-15250,-68582,81361,72762
3576.5,-15375,-68915,81244,72677
3578.5,-15408,-68954,81386,72775
3580.5,-15361,-68889,81608,72925
3582.5,-15556,-69146,81674,72974
3584.5,-15752,-69389,81572,72906
3586.5,-15568,-69170,81475,72835
3588.5,-15304,-68861,81460,72838
3590.5,-15419,-68991,81442,72865
3592.5,-15726,-69280,81407,72874
3594.5,-15783,-69170,81448,72889
3596.5,-15572,-68801,81535,72884
3598.5,-15404,-68774,81548,72818
3600.5,-15521,-69224,81490,72749
3602.5,-15855,-69597,81454,72754
3604.5,-16068,-69402,81456,72815
3606.5,-16015,-68978,81468,72867
3608.5,-16027,-69066,81447,72829
3610.5,-16331,-69576,81344,72666
3612.5,-16534,-69643,81234,72521
3614.5,-16191,-69078,81305,72633
3616.5,-15548,-68632,81562,72960
3618.5,-15275,-68753,81755,73170
3620.5,-15653,-69178,81710,73088
3622.5,-16234,-69576,81513,72860
3624.5,-16330,-69725,81328,72678
3626.5,-15865,-69531,81259,72606
3628.5,-15496,-69283,81353,72679
3630.5,-15698,-69248,81562,72881
3632.5,-16150,-69221,81714,73054
3634.5,-16325,-69119,81660,73024
3636.5,-16199,-69254,81467,72831
3638.5,-16002,-69511,81356,72699
3640.5,-15756,-69362,81430,72761
3642.5,-15489,-68918,81563,72913
3644.5,-15514,-68814,81583,72967
3646.5,-15934,-69108,81475,72852
3648.5,-16198,-69306,81361,72672
3650.5,-15914,-69228,81342,72594
3652.5,-15676,-69147,81383,72637
3654.5,-16042,-69269,81383,72663
3656.5,-16365,-69401,81379,72663
3658.5,-15947,-69154,81487,72780
3660.5,-15376,-68560,81624,72964
3662.5,-15367,-68248,81597,72985
3664.5,-15559,-68615,81491,72891
3666.5,-15555,-69165,81538,72937
3668.5,-15612,-69218,81653,73059
3670.5,-15672,-68865,81626,73004
3672.5,-15383,-68645,81584,72877
3674.5,-15123,-68720,81696,72910
3676.5,-15417,-68914,81736,72955
3678.5,-15832,-69088,81502,72794
3680.5,-15780,-69134,81294,72639
3682.5,-15591,-69016,81424,72764
3684.5,-15748,-68890,81693,73011
3686.5,-15997,-68800,81784,73094
3688.5,-15916,-68571,81747,73041
3690.5,-15643,-68356,81782,73027
3692.5,-15610,-68539,81916,73089
3694.5,-15889,-68861,82073,73176
3696.5,-16082,-68737,82148,73206
3698.5,-15926,-68481,82008,73073
3700.5,-15698,-68779,81719,72835
3702.5,-15692,-69195,81586,72750
3704.5,-15725,-68876,81702,72900
3706.5,-15646,-68246,81809,73045
3708.5,-15676,-68277,81751,73024
3710.5,-15867,-68834,81659,72946
3712.5,-16057,-69239,81610,72909
3714.5,-16323,-69424,81598,72928
3716.5,-16613,-69440,81712,73061
3718.5,-16443,-69050,81908,73256
3720.5,-15788,-68470,81946,73313
3722.5,-15393,-68280,81813,73222
3724.5,-15567,-68488,81732,73170
3726.5,-15798,-68678,81711,73161
3728.5,-15797,-68736,81657,73113
3730.5,-15785,-68706,81672,73111
3732.5,-15774,-68569,81743,73156
3734.53,-15665,-68507,81643,73055
3736.55,-15725,-68673,81440,72855
3738.58,-16015,-68775,81441,72840
3740.6,-15973,-68537,81592,73003
3742.6,-15411,-68240,81626,73091
3744.6,-15096,-68298,81571,73043
3746.6,-15518,-68669,81547,72945
3748.6,-16055,-69002,81496,72833
3750.6,-16063,-69124,81411,72751
3752.6,-15812,-69188,81374,72731
3754.6,-15776,-69292,81342,72709
3756.6,-15864,-69238,81293,72683
3758.6,-15813,-68999,81351,72755
3760.6,-15730,-68966,81508,72893
3762.6,-15785,-69185,81567,72932
3764.6,-15782,-69090,81493,72862
3766.6,-15566,-68607,81458,72838
3768.6,-15533,-68481,81504,72879
3770.6,-15990,-68937,81492,72848
3772.6,-16345,-69242,81409,72728
3774.6,-15971,-69020,81370,72647
3776.6,-15412,-68784,81354,72619
3778.6,-15525,-68914,81260,72555
3780.6,-16066,-69162,81172,72517
3782.6,-16299,-69295,81213,72584
3784.6,-16208,-69401,81267,72613
3786.6,-16084,-69474,81205,72506
3788.6,-15872,-69302,81169,72454
3790.6,-15673,-68928,81267,72573
3792.6,-15860,-68787,81336,72662
3794.6,-16265,-69125,81257,72578
3796.6,-16273,-69595,81149,72463
3798.6,-15907,-69736,81119,72450
3800.6,-15754,-69544,81149,72508
3802.6,-15912,-69268,81256,72622
3804.6,-16015,-69020,81445,72787
3806.6,-16011,-68858,81579,72874
3808.6,-16004,-68880,81577,72784
3810.6,-15869,-69069,81629,72649
3812.6,-15728,-69307,81909,72640
3814.6,-15997,-69506,82249,72677
3816.6,-16423,-69536,82438,72645
3818.6,-16150,-69269,82651,72723
3820.6,-15213,-68867,83145,73128
3822.6,-14704,-68669,83737,73717
3824.6,-15044,-68673,84076,74247
3826.6,-15417,-68562,84210,74807
3828.6,-15257,-68193,84408,75594
3830.6,-14923,-67583,84653,76585
3832.6,-14662,-66587,84728,77739
3834.6,-14290,-65165,84593,79158
3836.6,-13991,-63689,84293,80768
3838.6,-14081,-62493,83742,82217
3840.6,-14208,-61455,82861,83300
3842.6,-13991,-60432,81826,84198
3844.6,-13845,-59566,80922,85154
3846.6,-14060,-58900,80198,86138
3848.6,-14130,-58334,79410,86843
3850.6,-13869,-57998,78424,86948
3852.6,-13881,-58083,77476,86387
3854.6,-14407,-58559,76800,85343
3856.6,-15030,-59469,76252,83912
3858.6,-15584,-60874,75639,81981
3860.6,-16212,-62431,75100,79572
3862.6,-16883,-63790,74810,77052
3864.6,-17515,-65062,74686,74796
3866.6,-17976,-66142,74675,72927
3868.6,-17973,-66554,74898,71537
3870.6,-17584,-66521,75365,70817
3872.6,-17323,-66827,75973,70766
3874.6,-17318,-67468,76740,71045
3876.6,-17283,-67846,77667,71333
3878.6,-17181,-67917,78528,71599
3880.6,-17035,-67935,79140,71916
3882.6,-16696,-67872,79612,72251
3884.6,-16354,-67828,80108,72540
3886.6,-16383,-68061,80562,72751
3888.6,-16565,-68427,80835,72842
3890.6,-16416,-68603,80960,72808
3892.6,-15987,-68573,81083,72759
3894.6,-15678,-68485,81240,72770
3896.6,-15747,-68514,81336,72768
3898.6,-16193,-68786,81337,72697
3900.6,-16613,-69052,81346,72640
3902.6,-16503,-68931,81440,72664
3904.6,-16035,-68595,81604,72754
3906.6,-15814,-68461,81801,72894
3908.6,-15804,-68453,81971,73044
3910.6,-15546,-68346,82016,73086
3912.6,-15245,-68355,81919,72968
3914.6,-15413,-68632,81804,72803
3916.6,-15825,-68859,81789,72731
3918.6,-16021,-68878,81884,72790
3920.6,-16141,-68973,81988,72907
3922.6,-16259,-69148,81982,72947
3924.6,-15934,-68989,81886,72889
3926.6,-15301,-68568,81884,72891
3928.6,-15225,-68486,82025,73012
3930.6,-15750,-68773,82098,73056
3932.6,-15937,-68823,82038,72957
3934.6,-15532,-68560,82075,72963
3936.6,-15245,-68497,82252,73139
3938.6,-15434,-68661,82279,73195
3940.6,-15833,-68640,82102,73058
3942.6,-16168,-68488,82014,72990
3944.6,-16200,-68561,82061,73026
3946.6,-15836,-68791,81997,72962
3948.6,-15517,-68903,81870,72863
3950.6,-15698,-68933,81935,72921
3952.6,-16159,-69007,82096,72998
3954.6,-16391,-69023,82105,72905
3956.6,-16184,-68851,82076,72833
3958.6,-15664,-68555,82230,72988
3960.6,-15304,-68308,82432,73199
3962.6,-15550,-68260,82465,73254
3964.6,-16035,-68444,82379,73203
3966.6,-16023,-68717,82295,73113
3968.6,-15697,-68877,82235,72993
3970.6,-15755,-68868,82257,72959
3972.6,-15958,-68728,82368,73062
3974.6,-15556,-68451,82406,73120
3976.6,-14857,-68212,82322,73041
3978.6,-14924,-68391,82290,72999
3980.6,-15792,-68908,82357,73070
3982.6,-16296,-69050,82378,73122
3984.6,-15873,-68558,82364,73135
3986.6,-15360,-68177,82445,73192
3988.6,-15518,-68417,82548,73222
3990.6,-15907,-68764,82523,73131
3992.6,-15915,-68737,82428,73017
3994.6,-15722,-68601,82413,73006
3996.6,-15632,-68581,82488,73065
3998.6,-15586,-68534,82577,73124
4000.6,-15601,-68538,82644,73179
4002.6,-15694,-68733,82718,73257
4004.6,-15561,-68819,82803,73359
4006.6,-15133,-68554,82823,73417
4008.6,-14918,-68262,82746,73390
4010.6,-15204,-68315,82703,73356
4012.6,-15626,-68635,82775,73365
4014.6,-15845,-68927,82842,73354
4016.6,-15886,-68964,82868,73358
4018.6,-15667,-68732,82962,73474
4020.6,-15030,-68438,83060,73569
4022.6,-14423,-68231,83049,73520
4024.6,-14619,-68063,83107,73558
4026.6,-15383,-67951,83352,73821
4028.6,-15579,-67966,83502,73992
4030.6,-15047,-68028,83426,73919
4032.6,-14964,-68156,83440,73922
4034.6,-15690,-68508,83632,74096
4036.6,-15980,-68810,83662,74107
4038.6,-15188,-68577,83493,73927
4040.6,-14500,-68137,83495,73921
4042.6,-14868,-68260,83683,74091
4044.6,-15390,-68714,83707,74085
4046.6,-15048,-68609,83599,73941
4048.6,-14546,-68049,83747,74043
4050.6,-14873,-67913,84123,74371
4052.6,-15417,-68261,84283,74517
4054.6,-15238,-68404,84124,74391
4056.6,-14821,-68194,83988,74285
4058.6,-14914,-68021,84029,74307
4060.6,-15101,-68025,84090,74322
4062.6,-14937,-68156,84124,74320
4064.6,-14825,-68395,84242,74397
4066.6,-14887,-68519,84429,74516
4068.6,-14673,-68318,84566,74584
4070.6,-14308,-68050,84610,74591
4072.6,-14324,-68057,84600,74558
4074.6,-14568,-68213,84585,74509
4076.6,-14570,-68246,84598,74482
4078.6,-14411,-68185,84636,74493
4080.6,-14337,-68138,84679,74528
4082.6,-14296,-68066,84720,74578
4084.6,-14356,-68009,84726,74594
4086.6,-14682,-68144,84675,74529
4088.6,-14911,-68424,84619,74437
4090.6,-14497,-68463,84610,74399
4092.6,-13793,-68051,84642,74421
4094.6,-13778,-67595,84712,74483
4096.6,-14568,-67664,84779,74528
4098.6,-15174,-68195,84727,74466
4100.6,-14991,-68593,84603,74356
4102.6,-14593,-68570,84627,74384
4104.6,-14643,-68390,84794,74526
4106.6,-14900,-68269,84836,74552
4108.6,-14830,-68135,84683,74414
4110.6,-14538,-68020,84542,74276
4112.6,-14460,-68074,84524,74226
4114.63,-14560,-68151,84565,74236
4116.65,-14523,-67994,84591,74258
4118.68,-14455,-67771,84536,74212
4120.7,-14626,-67796,84379,74091
4122.7,-14807,-67938,84225,74006
4124.7,-14714,-67944,84150,73985
4126.7,-14690,-67981,84082,73927
4128.7,-15002,-68181,83991,73842
4130.7,-15103,-68204,83962,73844
4132.7,-14659,-67918,83987,73893
4134.7,-14410,-67873,83918,73845
4136.7,-14896,-68370,83705,73700
4138.7,-15381,-68767,83504,73599
4140.7,-15158,-68457,83501,73641
4142.7,-14746,-67831,83666,73797
4144.7,-14804,-67625,83773,73927
4146.7,-15086,-67947,83669,73901
4148.7,-15228,-68397,83429,73741
4150.7,-15335,-68551,83216,73595
4152.7,-15395,-68253,83108,73556
4154.7,-15260,-67834,83083,73576
4156.7,-15194,-67781,83055,73558
4158.7,-15466,-68036,82949,73478
4160.7,-15745,-68189,82776,73383
4162.7,-15607,-68211,82611,73315
4164.7,-15185,-68298,82519,73308
4166.7,-14948,-68402,82529,73387
4168.7,-15220,-68506,82609,73489
4170.7,-15844,-68733,82617,73465
4172.7,-16212,-68902,82466,73292
4174.7,-16007,-68755,82299,73163
4176.7,-15718,-68555,82284,73208
4178.7,-15869,-68659,82334,73295
4180.7,-16205,-68852,82277,73259
4182.7,-16180,-68783,82145,73146
4184.7,-15743,-68578,82057,73074
4186.7,-15329,-68516,81995,73036
4188.7,-15395,-68622,81899,72979
4190.7,-15962,-68819,81825,72927
4192.7,-16502,-69031,81809,72907
4194.7,-16580,-69085,81787,72878
4196.7,-16353,-68875,81771,72870
4198.7,-16055,-68530,81874,72985
4200.7,-15609,-68233,82028,73141
4202.7,-15209,-68092,82011,73117
4204.7,-15359,-68199,81870,72974
4206.7,-15884,-68465,81862,72991
4208.7,-16019,-68560,81947,73120
4210.7,-15735,-68428,81860,73055
4212.7,-15730,-68451,81645,72832
4214.7,-16054,-68708,81578,72744
4216.7,-16121,-68746,81686,72806
4218.7,-15882,-68410,81817,72860
4220.7,-15701,-68071,81954,72948
4222.7,-15575,-67962,82096,73114
4224.7,-15514,-68041,82113,73183
4226.7,-15787,-68284,81960,73054
4228.7,-16172,-68544,81783,72891
4230.7,-16142,-68563,81715,72846
4232.7,-15891,-68377,81735,72878
4234.7,-15851,-68196,81742,72884
4236.7,-15736,-68050,81701,72845
4238.7,-15361,-67998,81690,72840
4240.7,-15352,-68226,81767,72919
4242.7,-15934,-68644,81856,73011
4244.7,-16370,-68890,81871,73028
4246.7,-16288,-68842,81851,73000
4248.7,-16086,-68681,81853,72998
4250.7,-15886,-68532,81877,73028
4252.7,-15551,-68374,81935,73083
4254.7,-15378,-68198,82022,73162
4256.7,-15563,-68046,82042,73195
4258.7,-15754,-67976,81929,73123
4260.7,-15886,-68017,81780,73016
4262.7,-16226,-68106,81711,72986
4264.7,-16369,-68114,81712,73000
4266.7,-15757,-67941,81741,72983
4268.7,-15017,-67648,81844,72998
4270.7,-15116,-67475,82021,73142
4272.7,-15739,-67649,82123,73302
4274.7,-16033,-68110,82041,73279
4276.7,-16109,-68547,81886,73111
4278.7,-16382,-68690,81820,73008
4280.7,-16459,-68520,81839,73037
4282.7,-15958,-68230,81882,73114
4284.7,-15422,-68051,81957,73188
4286.7,-15444,-68058,82022,73223
4288.7,-15762,-68157,81966,73161
4290.7,-15891,-68274,81797,73029
4292.7,-15795,-68406,81654,72925
4294.7,-15663,-68488,81606,72880
4296.7,-15669,-68418,81637,72881
4298.7,-15856,-68248,81722,72935
4300.7,-15939,-68151,81771,72976
4302.7,-15749,-68205,81683,72903
4304.7,-15740,-68317,81555,72807
4306.7,-16179,-68384,81587,72865
4308.7,-16468,-68458,81725,73018
4310.7,-16290,-68621,81760,73052
4312.7,-16198,-68676,81716,72991
4314.7,-16262,-68338,81753,73020
4316.7,-15855,-67830,81804,73103
4318.7,-15212,-67733,81709,73058
4320.7,-15231,-68112,81548,72912
4322.7,-15794,-68445,81461,72802
4324.7,-16099,-68469,81376,72709
4326.7,-16064,-68375,81284,72628
4328.7,-15997,-68293,81393,72718
4330.7,-15876,-68257,81681,72962
4332.7,-15715,-68329,81775,73039
4334.7,-15689,-68364,81567,72849
4336.7,-15741,-68215,81429,72737
4338.7,-15755,-68161,81558,72893
4340.7,-15745,-68384,81674,73036
4342.7,-15692,-68496,81565,72934
4344.7,-15700,-68319,81406,72762
4346.7,-15959,-68247,81375,72731
4348.7,-16233,-68349,81420,72799
4350.7,-16143,-68255,81475,72869
4352.7,-15866,-68067,81525,72911
4354.7,-15732,-68149,81509,72893
4356.7,-15674,-68343,81422,72839
4358.7,-15732,-68399,81366,72822
4360.7,-16082,-68474,81357,72802
4362.7,-16306,-68546,81307,72688
4364.7,-15972,-68363,81236,72561
4366.7,-15656,-68165,81227,72539
4368.7,-15976,-68351,81227,72539
4370.7,-16390,-68619,81158,72461
4372.7,-16274,-68549,81106,72421
4374.7,-16003,-68440,81164,72519
4376.7,-15966,-68615,81249,72614
4378.7,-15888,-68733,81267,72581
4380.7,-15690,-68537,81277,72526
4382.7,-15661,-68354,81326,72559
4384.7,-15815,-68432,81316,72591
4386.7,-16041,-68643,81176,72521
4388.7,-16325,-68834,81046,72433
4390.7,-16374,-68866,81087,72449
4392.7,-16032,-68669,81209,72514
4394.7,-15839,-68521,81226,72503
4396.7,-16020,-68562,81176,72440
4398.7,-15914,-68357,81233,72460
4400.7,-15478,-67829,81369,72564
4402.7,-15595,-67744,81416,72631
4404.7,-16143,-68313,81368,72622
4406.7,-16094,-68672,81326,72588
4408.7,-15724,-68500,81302,72547
4410.7,-16050,-68445,81277,72514
4412.7,-16574,-68641,81303,72542
4414.7,-16248,-68585,81351,72591
4416.7,-15581,-68365,81300,72543
4418.7,-15513,-68400,81185,72430
4420.7,-15855,-68599,81168,72405
4422.7,-16246,-68826,81221,72441
4424.7,-16682,-69163,81167,72377
4426.7,-16687,-69290,81039,72260
4428.7,-15982,-68824,81032,72282
4430.7,-15390,-68159,81158,72433
4432.7,-15450,-67882,81272,72544
4434.7,-15591,-67929,81321,72567
4436.7,-15583,-68022,81323,72551
4438.7,-15858,-68142,81289,72519
4440.7,-16237,-68267,81285,72520
4442.7,-16242,-68374,81358,72586
4444.7,-16146,-68558,81409,72632
4446.7,-16281,-68747,81356,72582
4448.7,-16364,-68745,81279,72509
4450.7,-16281,-68662,81227,72475
4452.7,-16274,-68682,81150,72440
4454.7,-16232,-68634,81081,72398
4456.7,-15982,-68427,81099,72378
4458.7,-15871,-68452,81130,72332
4460.7,-16114,-68813,81091,72260
4462.7,-16271,-68820,81065,72271
4464.7,-16081,-68112,81095,72348
4466.7,-15955,-67554,81086,72344
4468.7,-16106,-67955,81022,72273
4470.7,-16133,-68731,80985,72259
4472.7,-15999,-69001,80963,72267
4474.7,-16252,-68982,80958,72255
4476.7,-16765,-69098,81090,72342
4478.7,-16661,-68969,81322,72536
4480.7,-15949,-68434,81405,72607
4482.7,-15666,-68219,81280,72490
4484.7,-16084,-68633,81167,72395
4486.7,-16390,-68941,81157,72408
4488.7,-16183,-68664,81128,72396
4490.7,-15855,-68281,81069,72337
4492.7,-15694,-68210,81108,72369
4494.73,-15626,-68177,81212,72475
4496.75,-15583,-67975,81182,72467
4498.78,-15619,-67949,81011,72331
4500.8,-15843,-68330,80939,72283
4502.8,-16201,-68758,81058,72398
4504.8,-16397,-68877,81176,72496
4506.8,-16324,-68830,81182,72476
4508.8,-16254,-68829,81183,72450
4510.8,-16259,-68752,81213,72462
4512.8,-16126,-68521,81195,72446
4514.8,-16012,-68400,81162,72426
4516.8,-16280,-68619,81136,72415
4518.8,-16678,-68940,80999,72303
4520.8,-16640,-68940,80802,72137
4522.8,-16230,-68654,80811,72155
4524.8,-15949,-68492,81042,72358
4526.8,-15897,-68475,81187,72469
4528.8,-15865,-68257,81115,72384
4530.8,-15864,-68006,81013,72280
4532.8,-15976,-68203,81032,72291
4534.8,-16075,-68596,81129,72392
4536.8,-16110,-68602,81203,72506
4538.8,-16225,-68455,81195,72557
4540.8,-16374,-68637,81127,72518
4542.8,-16312,-68843,81074,72441
4544.8,-16092,-68719,81087,72393
4546.8,-16033,-68636,81158,72402
4548.8,-16231,-68811,81246,72454
4550.8,-16495,-68852,81261,72473
4552.8,-16536,-68654,81128,72381
4554.8,-16193,-68578,80969,72269
4556.8,-15875,-68693,81008,72326
4558.8,-16177,-68794,81195,72494
4560.8,-16662,-68812,81228,72506
4562.8,-16326,-68625,81088,72385
4564.8,-15579,-68138,81090,72429
4566.8,-15726,-67756,81248,72608
4568.8,-16514,-67894,81240,72600
4570.8,-16620,-68221,81106,72477
4572.8,-16153,-68275,81143,72532
4574.8,-16228,-68355,81210,72596
4576.8,-16811,-68867,80996,72363
4578.8,-16992,-69403,80729,72086
4580.8,-16558,-69293,80781,72146
4582.8,-16012,-68613,81036,72408
4584.8,-15768,-68031,81211,72582
4586.8,-15831,-67980,81247,72626
4588.8,-15888,-68268,81154,72566
4590.8,-15802,-68446,80990,72430
4592.8,-15912,-68439,80915,72329
4594.8,-16326,-68531,80943,72287
4596.8,-16442,-68659,80961,72265
4598.8,-15989,-68473,81012,72338
4600.8,-15752,-68263,81113,72475
4602.8,-16261,-68611,81094,72458
4604.8,-16687,-69106,80993,72339
4606.8,-16225,-68891,81076,72416
4608.8,-15590,-68273,81278,72630
4610.8,-15770,-68152,81279,72644
4612.8,-16308,-68389,81084,72464
4614.8,-16262,-68345,80944,72347
4616.8,-15886,-68167,80934,72352
4618.8,-15919,-68247,81002,72403
4620.8,-16187,-68389,81071,72436
4622.8,-16120,-68349,80982,72332
4624.8,-15843,-68244,80752,72120
4626.8,-15874,-68170,80709,72092
4628.8,-16314,-68169,80936,72307
4630.8,-16790,-68381,81063,72405
4632.8,-16876,-68685,80967,72290
4634.8,-16471,-68718,80969,72289
4636.8,-15880,-68530,81099,72416
4638.8,-15567,-68526,81026,72332
4640.8,-15851,-68742,80814,72121
4642.8,-16596,-68852,80850,72180
4644.8,-17063,-68723,81083,72437
4646.8,-16692,-68482,81179,72556
4648.8,-16039,-68308,81174,72586
4650.8,-15998,-68357,81263,72702
4652.8,-16314,-68543,81323,72749
4654.8,-16165,-68547,81183,72595
4656.8,-15742,-68366,80960,72405
4658.8,-15819,-68361,80824,72308
4660.8,-16309,-68561,80805,72271
4662.8,-16558,-68629,80877,72292
4664.8,-16480,-68594,80948,72333
4666.8,-16424,-68728,80948,72294
4668.8,-16395,-68827,80997,72285
4670.8,-16143,-68563,81174,72449
4672.8,-15757,-68231,81255,72573
4674.8,-15682,-68285,81084,72428
4676.8,-16053,-68547,80895,72228
4678.8,-16361,-68602,80894,72252
4680.8,-16175,-68466,80960,72383
4682.8,-15878,-68397,80980,72441
4684.8,-16064,-68463,81012,72467
4686.8,-16461,-68532,81051,72486
4688.8,-16362,-68430,81041,72433
4690.8,-15910,-68205,81005,72328
4692.8,-15928,-68202,80958,72245
4694.8,-16457,-68515,80923,72235
4696.8,-16600,-68628,81009,72360
4698.8,-16057,-68224,81192,72557
4700.8,-15604,-67818,81239,72603
4702.8,-15709,-67907,81088,72453
4704.8,-15879,-68181,80942,72315
4706.8,-15764,-68234,80879,72272
4708.8,-15692,-68201,80803,72225
4710.8,-15843,-68214,80758,72198
4712.8,-15972,-68126,80856,72286
4714.8,-16030,-68002,81008,72428
4716.8,-16195,-68104,81080,72516
4718.8,-16418,-68408,81072,72533
4720.8,-16477,-68681,81000,72437
4722.8,-16302,-68791,80858,72213
4724.8,-15973,-68671,80752,72044
4726.8,-15660,-68360,80785,72096
4728.8,-15633,-68137,80874,72246
4730.8,-16021,-68192,80919,72324
4732.8,-16532,-68355,80992,72395
4734.8,-16759,-68455,81143,72530
4736.8,-16728,-68537,81239,72595
4738.8,-16691,-68545,81170,72499
4740.8,-16582,-68396,81015,72362
4742.8,-16377,-68403,80889,72279
4744.8,-16461,-68771,80832,72218
4746.8,-16749,-68940,80867,72210
4748.8,-16473,-68471,80985,72325
4750.8,-15760,-68034,81057,72444
4752.8,-15757,-68276,80981,72401
4754.8,-16494,-68610,80854,72266
4756.8,-16796,-68433,80827,72231
4758.8,-16499,-68265,80904,72305
4760.8,-16381,-68484,81007,72386
4762.8,-16355,-68476,81097,72444
4764.8,-15983,-68029,81129,72471
4766.8,-15728,-67880,81066,72434
4768.8,-15952,-68242,81001,72395
4770.8,-16106,-68441,81053,72460
4772.8,-15926,-68295,81138,72553
4774.8,-15847,-68339,81052,72463
4776.8,-15973,-68603,80813,72204
4778.8,-16060,-68550,80713,72078
4780.8,-16158,-68189,80882,72240
4782.8,-16249,-68049,81074,72449
4784.8,-16076,-68160,81087,72483
4786.8,-15796,-68145,81071,72467
4788.8,-15700,-68099,81135,72502
4790.8,-15522,-68299,81101,72437
4792.8,-15249,-68434,80960,72291
4794.8,-15569,-68156,81016,72358
4796.8,-16349,-67874,81259,72603
4798.8,-16383,-68074,81281,72622
4800.8,-15618,-68465,81042,72390
4802.8,-15444,-68570,80952,72312
4804.8,-16195,-68508,81085,72456
4806.8,-16749,-68563,81129,72506
4808.8,-16678,-68569,81083,72453
4810.8,-16553,-68334,81200,72548
4812.8,-16559,-68176,81360,72681
4814.8,-16530,-68384,81273,72575
4816.8,-16510,-68531,81099,72381
4818.8,-16358,-68135,81162,72421
4820.8,-15965,-67639,81349,72590
4822.8,-15927,-67775,81382,72608
4824.8,-16569,-68293,81319,72538
4826.8,-16989,-68376,81323,72568
4828.8,-16499,-67988,81344,72635
4830.8,-15829,-67764,81345,72656
4832.8,-15733,-67907,81413,72718
4834.8,-15849,-68082,81487,72803
4836.8,-15752,-68084,81405,72759
4838.8,-15672,-67996,81247,72634
4840.8,-15760,-67963,81193,72604
4842.8,-15843,-68084,81175,72626
4844.8,-15890,-68274,81071,72570
4846.8,-15897,-68228,80976,72517
4848.8,-15737,-67865,80976,72563
4850.8,-15582,-67586,80989,72613
4852.8,-15789,-67679,81018,72615
4854.8,-16161,-67873,81143,72655
4856.8,-16181,-67906,81229,72690
4858.8,-15978,-67976,81091,72574
4860.8,-16092,-68148,80887,72406
4862.8,-16388,-68062,80919,72438
4864.8,-16247,-67719,81102,72624
4866.8,-15707,-67724,81058,72616
4868.8,-15389,-68238,80728,72334
4870.8,-15457,-68577,80516,72157
4872.8,-15592,-68315,80698,72372
4874.83,-15707,-67882,81046,72740
4876.85,-15895,-67708,81209,72880
4878.88,-16059,-67686,81139,72751
4880.9,-16122,-67701,80980,72539
4882.9,-16200,-67853,80842,72388
4884.9,-16324,-68096,80788,72358
4886.9,-16360,-68269,80768,72385
4888.9,-16281,-68392,80676,72330
4890.9,-16238,-68525,80593,72234
4892.9,-16357,-68612,80689,72270
4894.9,-16554,-68633,80835,72350
4896.9,-16635,-68624,80783,72257
4898.9,-16609,-68561,80650,72106
4900.9,-16501,-68380,80696,72154
4902.9,-15996,-68054,80810,72291
4904.9,-15157,-67775,80739,72254
4906.9,-15106,-68030,80555,72109
4908.9,-16524,-68945,80492,72083
4910.9,-18022,-69683,80578,72191
4912.9,-17835,-69356,80701,72323
4914.9,-16442,-68368,80805,72440
4916.9,-15645,-67856,80878,72517
4918.9,-15890,-68067,80914,72530
4920.9,-16250,-68322,80917,72515
4922.9,-16249,-68281,80875,72487
4924.9,-16231,-68257,80792,72411
4926.9,-16429,-68449,80762,72347
4928.9,-16636,-68645,80825,72387
4930.9,-16616,-68667,80837,72424
4932.9,-16437,-68569,80720,72319
4934.9,-16322,-68427,80707,72234
4936.9,-16259,-68297,80990,72364
4938.9,-16071,-68300,81348,72521
4940.9,-15867,-68441,81514,72451
4942.9,-15923,-68579,81611,72313
4944.9,-16091,-68697,81869,72390
4946.9,-16047,-68819,82275,72669
4948.9,-15924,-68721,82730,73038
4950.9,-15822,-68319,83128,73460
4952.9,-15320,-67983,83269,73853
4954.9,-14550,-67861,83241,74298
4956.9,-14620,-67519,83542,75167
4958.9,-15654,-66728,84243,76534
4960.9,-16089,-65725,84669,77929
4962.9,-15246,-64526,84502,79170
4964.9,-14404,-62984,84273,80654
4966.9,-14305,-61404,84192,82395
4968.9,-14204,-60223,83661,83759
4970.9,-13913,-59395,82478,84522
4972.9,-14031,-58688,81320,85201
4974.9,-14276,-58121,80604,86084
4976.9,-14111,-57815,79957,86805
4978.9,-14152,-57842,79073,86948
4980.9,-14928,-58256,78090,86367
4982.9,-15713,-59077,77096,85024
4984.9,-16025,-60281,76082,83062
4986.9,-16450,-61784,75250,80794
4988.9,-17182,-63295,74705,78367
4990.9,-17611,-64440,74253,75839
4992.9,-17675,-65174,73898,73562
4994.9,-17920,-65780,73940,71948
4996.9,-18292,-66375,74377,70983
4998.9,-18299,-66742,74921,70481
5000.9,-18080,-66801,75546,70464
5002.9,-18090,-66851,76353,70809
5004.9,-18158,-67109,77126,71084
5006.9,-17873,-67351,77680,71156
5008.9,-17410,-67337,78242,71389
5010.9,-17113,-67212,78997,71947
5012.9,-16872,-67193,79695,72475
5014.9,-16551,-67237,80037,72653
5016.9,-16368,-67269,80098,72578
5018.9,-16419,-67383,80172,72509
5020.9,-16478,-67626,80428,72549
5022.9,-16417,-67784,80782,72645
5024.9,-16286,-67629,81055,72733
5026.9,-16096,-67343,81172,72793
5028.9,-15895,-67380,81166,72785
5030.9,-15860,-67731,81091,72686
5032.9,-16043,-67885,81047,72598
5034.9,-16195,-67740,81109,72626
5036.9,-16086,-67791,81166,72643
5038.9,-15935,-68184,81094,72520
5040.9,-16121,-68455,81065,72450
5042.9,-16456,-68373,81243,72608
5044.9,-16403,-68157,81405,72767
5046.9,-16104,-67920,81363,72748
5048.9,-16255,-67711,81388,72797
5050.9,-16863,-67796,81650,73040
5052.9,-17153,-68221,81797,73140
5054.9,-16804,-68542,81606,72920
5056.9,-16310,-68468,81407,72692
5058.9,-16062,-68233,81439,72670
5060.9,-15979,-68116,81488,72677
5062.9,-16043,-68164,81422,72614
5064.9,-16302,-68319,81412,72620
5066.9,-16377,-68335,81504,72729
5068.9,-15930,-67994,81543,72813
5070.9,-15540,-67694,81510,72825
5072.9,-15944,-68055,81492,72792
5074.9,-16695,-68760,81464,72700
5076.9,-16856,-68871,81396,72573
5078.9,-16468,-68360,81382,72522
5080.9,-16125,-68109,81457,72574
5082.9,-16017,-68409,81496,72609
5084.9,-16168,-68640,81414,72539
5086.9,-16461,-68389,81331,72475
5088.9,-16281,-67879,81437,72607
5090.9,-15451,-67389,81740,72930
5092.9,-14941,-67032,82016,73191
5094.9,-15404,-66984,82066,73200
5096.9,-16048,-67317,81931,73051
5098.9,-16034,-67739,81770,72931
5100.9,-15764,-67961,81688,72893
5102.9,-15940,-68092,81740,72921
5104.9,-16375,-68283,81907,72981
5106.9,-16460,-68388,82011,72979
5108.9,-16127,-68314,81919,72866
5110.9,-15766,-68193,81804,72784
5112.9,-15611,-68052,81873,72869
5114.9,-15688,-67901,81994,72978
5116.9,-16021,-67989,81928,72894
5118.9,-16351,-68312,81762,72704
5120.9,-16177,-68374,81739,72662
5122.9,-15602,-68054,81867,72796
5124.9,-15407,-67879,82003,72945
5126.9,-15860,-68019,82109,73035
5128.9,-16351,-68075,82176,73069
5130.9,-16432,-68003,82132,73013
5132.9,-16264,-68090,82024,72923
5134.9,-16067,-68222,82062,72991
5136.9,-15916,-68156,82311,73268
5138.9,-15887,-68041,82555,73512
5140.9,-15915,-67941,82599,73510
5142.9,-15839,-67645,82534,73389
5144.9,-15728,-67317,82578,73408
5146.9,-15746,-67397,82716,73540
5148.9,-15855,-67795,82696,73492
5150.9,-15990,-68113,82433,73195
5152.9,-16146,-68322,82230,72995
5154.9,-16102,-68407,82361,73170
5156.9,-15661,-68044,82669,73526
5158.9,-15195,-67375,82840,73701
5160.9,-15195,-67170,82841,73653
5162.9,-15451,-67587,82825,73569
5164.9,-15502,-67878,82839,73549
5166.9,-15472,-67765,82861,73577
5168.9,-15574,-67801,82903,73635
5170.9,-15515,-68086,82958,73709
5172.9,-15243,-68093,83009,73783
5174.9,-15319,-67919,83054,73839
5176.9,-15821,-68128,83087,73852
5178.9,-16029,-68375,83142,73859
5180.9,-15646,-67848,83308,73961
5182.9,-15153,-66889,83550,74168
5184.9,-14898,-66562,83673,74317
5186.9,-14837,-66950,83625,74299
5188.9,-14911,-67287,83613,74241
5190.9,-14980,-67302,83775,74319
5192.9,-14895,-67312,83967,74485
5194.9,-14782,-67441,84014,74560
5196.9,-14746,-67556,83957,74500
5198.9,-14658,-67624,83921,74408
5200.9,-14600,-67712,83925,74354
5202.9,-14789,-67793,83962,74361
5204.9,-14996,-67765,84060,74446
5206.9,-14904,-67580,84175,74548
5208.9,-14730,-67325,84212,74569
5210.9,-14802,-67172,84197,74550
5212.9,-15033,-67246,84211,74570
5214.9,-15191,-67483,84206,74554
5216.9,-15164,-67638,84142,74454
5218.9,-15016,-67592,84134,74411
5220.9,-14975,-67547,84212,74480
5222.9,-14972,-67602,84226,74495
5224.9,-14614,-67540,84158,74410
5226.9,-14196,-67445,84154,74371
5228.9,-14584,-67750,84185,74381
5230.9,-15471,-68224,84124,74334
5232.9,-15525,-68079,84075,74308
5234.9,-14662,-67376,84163,74384
5236.9,-14105,-66997,84218,74400
5238.9,-14251,-67186,84102,74262
5240.9,-14503,-67402,83998,74170
5242.9,-14625,-67381,84005,74200
5244.9,-14724,-67319,83918,74121
5246.9,-14744,-67349,83711,73913
5248.9,-14814,-67438,83668,73883
5250.9,-15102,-67519,83795,74041
5252.9,-15315,-67538,83772,74040
5254.9,-15222,-67501,83618,73884
5256.9,-15087,-67441,83635,73905
5258.9,-15092,-67420,83748,74060
5260.9,-15167,-67556,83668,74047
5262.9,-15309,-67803,83473,73911
5264.93,-15331,-67836,83392,73871
5266.95,-14965,-67502,83398,73918
5268.98,-14635,-67127,83416,73993
5271.0,-14917,-67039,83433,74073
5273.0,-15331,-67133,83312,74002
5275.0,-15182,-67187,83017,73744
5277.0,-15020,-67254,82804,73568
5279.0,-15536,-67435,82806,73605
5281.0,-16040,-67578,82803,73631
5283.0,-15792,-67594,82642,73505
5285.0,-15509,-67708,82445,73363
5287.0,-15895,-67926,82342,73341
5289.0,-16228,-67816,82337,73421
5291.0,-15886,-67371,82389,73521
5293.0,-15625,-67259,82441,73569
5295.0,-16053,-67644,82435,73562
5297.0,-16432,-67855,82346,73518
5299.0,-16100,-67646,82177,73414
5301.0,-15667,-67534,81984,73254
5303.0,-15860,-67699,81852,73121
5305.0,-16339,-67808,81769,73042
5307.0,-16451,-67800,81684,72987
5309.0,-16259,-67789,81671,73009
5311.0,-16147,-67621,81783,73133
5313.0,-16113,-67329,81848,73194
5315.0,-16024,-67347,81755,73106
5317.0,-16008,-67727,81684,73051
5319.0,-16161,-67995,81751,73113
5321.0,-16331,-68034,81756,73073
5323.0,-16427,-68163,81591,72851
5325.0,-16477,-68321,81460,72698
5327.0,-16407,-68166,81499,72753
5329.0,-16179,-67821,81587,72860
5331.0,-15957,-67644,81626,72911
5333.0,-15841,-67596,81621,72938
5335.0,-15796,-67554,81569,72935
5337.0,-15914,-67678,81504,72897
5339.0,-16221,-67961,81483,72871
5341.0,-16378,-68077,81470,72830
5343.0,-16179,-67923,81449,72774
5345.0,-15997,-67747,81529,72834
5347.0,-16152,-67738,81656,72973
5349.0,-16399,-67924,81583,72931
5351.0,-16463,-68164,81373,72749
5353.0,-16425,-68103,81370,72777
5355.0,-16279,-67651,81558,73001
5357.0,-15949,-67322,81596,73056
5359.0,-15751,-67448,81505,72953
5361.0,-15925,-67575,81531,72985
5363.0,-16044,-67358,81558,73059
5365.0,-15799,-67273,81401,72948
5367.0,-15721,-67672,81323,72876
5369.0,-16225,-68020,81566,73105
5371.0,-16766,-67843,81842,73376
5373.0,-16732,-67514,81830,73362
5375.0,-16345,-67456,81664,73195
5377.0,-16111,-67503,81581,73129
5379.0,-16127,-67458,81563,73148
5381.0,-16213,-67436,81528,73146
5383.0,-16233,-67453,81498,73125
5385.0,-16127,-67394,81491,73096
5387.0,-15950,-67346,81489,73062
5389.0,-15957,-67460,81516,73083
5391.0,-16324,-67690,81586,73183
5393.0,-16725,-67853,81612,73252
5395.0,-16709,-67781,81512,73166
5397.0,-16502,-67543,81372,72987
5399.0,-16589,-67513,81352,72904
5401.0,-16691,-67815,81439,72966
5403.0,-16368,-67998,81497,73051
5405.0,-16094,-67770,81481,73065
5407.0,-16352,-67554,81404,73002
5409.0,-16590,-67734,81259,72878
5411.0,-16300,-67955,81154,72798
5413.0,-15861,-67707,81263,72888
5415.0,-15637,-67178,81490,73048
5417.0,-15583,-66986,81535,73043
5419.0,-15794,-67235,81391,72903
5421.0,-16267,-67412,81340,72888
5423.0,-16585,-67331,81457,73034
5425.0,-16529,-67390,81530,73114
5427.0,-16266,-67630,81463,73045
5429.0,-15895,-67561,81384,72972
5431.0,-15613,-67252,81352,72966
5433.0,-15813,-67374,81300,72937
5435.0,-16326,-67892,81232,72856
5437.0,-16402,-67995,81231,72826
5439.0,-15946,-67555,81282,72885
5441.0,-15775,-67403,81280,72926
5443.0,-16302,-67875,81210,72881
5445.0,-16898,-68257,81166,72835
5447.0,-16892,-68021,81195,72858
5449.0,-16407,-67624,81219,72857
5451.0,-15974,-67638,81152,72741
5453.0,-15939,-67909,81047,72617
5455.0,-16293,-67997,81020,72632
5457.0,-16638,-67801,81063,72723
5459.0,-16554,-67479,81088,72763
5461.0,-16278,-67308,81113,72796
5463.0,-16420,-67591,81160,72855
5465.0,-16854,-68180,81118,72795
5467.0,-16817,-68436,80966,72595
5469.0,-16272,-68129,80906,72505
5471.0,-16012,-67793,81033,72644
5473.0,-16300,-67789,81152,72800
5475.0,-16571,-67819,81113,72804
5477.0,-16511,-67681,80997,72725
5479.0,-16348,-67638,80917,72634
5481.0,-16178,-67781,80904,72539
5483.0,-16010,-67831,80957,72508
5485.0,-16166,-67687,81025,72584
5487.0,-16686,-67568,81023,72664
5489.0,-16868,-67605,80956,72643
5491.0,-16341,-67738,80890,72552
5493.0,-15900,-67928,80852,72479
5495.0,-16256,-68116,80849,72474
5497.0,-16805,-68152,80891,72517
5499.0,-16697,-68002,80932,72541
5501.0,-16199,-67836,80943,72531
5503.0,-15983,-67755,80998,72566
5505.0,-16040,-67733,81099,72655
5507.0,-16119,-67826,81093,72673
5509.0,-16251,-68029,80943,72574
5511.0,-16334,-68059,80840,72475
5513.0,-16180,-67793,80890,72454
5515.0,-16065,-67617,81000,72484
5517.0,-16318,-67809,81078,72538
5519.0,-16683,-68038,81063,72547
5521.0,-16807,-68003,80890,72413
5523.0,-16749,-67928,80700,72243
5525.0,-16576,-68010,80770,72297
5527.0,-16254,-68025,81047,72550
5529.0,-16035,-67828,81145,72676
5531.0,-16093,-67640,80952,72541
5533.0,-16097,-67639,80764,72352
5535.0,-15955,-67762,80765,72295
5537.0,-16200,-67941,80842,72344
5539.0,-16828,-68119,80899,72420
5541.0,-16930,-68112,80950,72476
5543.0,-16264,-67839,80952,72472
5545.0,-15788,-67539,80857,72412
5547.0,-16004,-67461,80761,72366
5549.0,-16344,-67578,80788,72379
5551.0,-16508,-67786,80889,72409
5553.0,-16747,-68034,80921,72396
5555.0,-16857,-68159,80875,72363
5557.0,-16542,-68066,80884,72393
5559.0,-16316,-67993,80980,72489
5561.0,-16623,-68110,81012,72527
5563.0,-16930,-68188,80896,72440
5565.0,-16855,-68121,80793,72353
5567.0,-16854,-68175,80851,72392
5569.0,-17005,-68328,80951,72468
5571.0,-16752,-68173,80945,72471
5573.0,-16237,-67765,80927,72477
5575.0,-16148,-67645,80986,72547
5577.0,-16345,-67908,80971,72525
5579.0,-16283,-68120,80785,72330
5581.0,-16215,-68114,80606,72164
5583.0,-16495,-68043,80597,72216
5585.0,-16702,-67931,80699,72398
5587.0,-16577,-67851,80799,72505
5589.0,-16555,-68067,80823,72445
5591.0,-16697,-68426,80745,72287
5593.0,-16562,-68336,80682,72207
5595.0,-16325,-67838,80742,72268
5597.0,-16564,-67724,80812,72324
5599.0,-17085,-68157,80795,72306
5601.0,-17210,-68367,80820,72327
5603.0,-16822,-68027,80901,72377
5605.0,-16292,-67643,80860,72315
5607.0,-15989,-67479,80729,72217
5609.0,-16190,-67384,80723,72255
5611.0,-16747,-67461,80807,72352
5613.0,-16954,-67802,80820,72370
5615.0,-16497,-68025,80805,72360
5617.0,-16013,-67870,80843,72376
5619.0,-16055,-67638,80888,72386
5621.0,-16354,-67629,80946,72446
5623.0,-16560,-67796,81058,72576
5625.0,-16676,-68012,81094,72605
5627.0,-16629,-68189,80953,72448
5629.0,-16417,-68234,80808,72316
5631.0,-16392,-68127,80832,72363
5633.0,-16558,-67900,80896,72431
5635.0,-16398,-67647,80850,72379
5637.0,-16024,-67624,80816,72342
5639.0,-16224,-67968,80886,72411
5641.0,-16927,-68336,80903,72435
5643.0,-17159,-68307,80805,72341
5645.03,-16697,-67977,80764,72291
5647.05,-16263,-67689,80819,72333
5649.08,-16219,-67540,80817,72327
5651.1,-16366,-67580,80773,72275
5653.1,-16588,-67883,80820,72311
5655.1,-16764,-68178,80873,72388
5657.1,-16666,-68100,80809,72367
5659.1,-16414,-67847,80743,72301
5661.1,-16351,-67831,80780,72307
5663.1,-16451,-67968,80804,72343
5665.1,-16480,-67994,80754,72330
5667.1,-16434,-68004,80741,72296
5669.1,-16433,-68123,80760,72260
5671.1,-16568,-68220,80673,72176
5673.1,-16890,-68209,80534,72074
5675.1,-17196,-68154,80553,72075
5677.1,-17113,-68079,80742,72208
5679.1,-16661,-67967,80914,72370
5681.1,-16239,-67824,80981,72468
5683.1,-16026,-67715,80951,72447
5685.1,-15936,-67760,80807,72285
5687.1,-16020,-67922,80632,72100
5689.1,-16402,-68035,80610,72086
5691.1,-16950,-68180,80735,72219
5693.1,-17301,-68480,80804,72293
5695.1,-17151,-68553,80766,72266
5697.1,-16585,-68103,80718,72246
5699.1,-16143,-67693,80652,72209
5701.1,-16247,-67858,80555,72102
5703.1,-16605,-68104,80580,72087
5705.1,-16682,-67876,80772,72271
5707.1,-16517,-67563,80909,72444
5709.1,-16457,-67581,80881,72413
5711.1,-16510,-67654,80841,72290
5713.1,-16608,-67665,80855,72226
5715.1,-16855,-67905,80811,72198
5717.1,-16992,-68151,80727,72188
5719.1,-16592,-67919,80731,72243
5721.1,-16032,-67557,80820,72344
5723.1,-16125,-67696,80923,72427
5725.1,-16796,-68099,81005,72466
5727.1,-17245,-68258,80976,72402
5729.1,-17079,-68227,80786,72228
5731.1,-16534,-68097,80626,72113
5733.1,-16201,-67889,80649,72169
5735.1,-16617,-68008,80690,72225
5737.1,-17344,-68454,80608,72152
5739.1,-17195,-68359,80589,72134
5741.1,-16111,-67547,80747,72292
5743.1,-15428,-67085,80861,72426
5745.1,-15773,-67450,80782,72384
5747.1,-16400,-67916,80658,72278
5749.1,-16698,-68002,80631,72226
5751.1,-16778,-67912,80699,72238
5753.1,-16813,-67834,80838,72325
5755.1,-16807,-67804,80936,72399
5757.1,-16678,-67742,80841,72318
5759.1,-16410,-67513,80661,72183
5761.1,-16352,-67403,80660,72220
5763.1,-16747,-67831,80804,72373
5765.1,-17034,-68389,80860,72419
5767.1,-16701,-68356,80829,72388
5769.1,-16279,-67922,80838,72410
5771.1,-16347,-67723,80818,72400
5773.1,-16525,-67782,80696,72276
5775.1,-16416,-67840,80626,72198
5777.1,-16349,-67939,80706,72268
5779.1,-16546,-68082,80798,72354
5781.1,-16683,-68081,80811,72365
5783.1,-16647,-68004,80790,72341
5785.1,-16746,-68125,80697,72248
5787.1,-16999,-68362,80510,72070
5789.1,-17021,-68328,80436,72005
5791.1,-16740,-68006,80619,72174
5793.1,-16532,-67785,80827,72345
5795.1,-16558,-67807,80825,72320
5797.1,-16625,-67893,80734,72246
5799.1,-16617,-68010,80691,72237
5801.1,-16505,-68136,80597,72161
5803.1,-16221,-68017,80473,72046
5805.1,-15958,-67619,80576,72161
5807.1,-16089,-67351,80913,72501
5809.1,-16582,-67459,81120,72701
5811.1,-17002,-67729,80966,72563
5813.1,-17086,-67873,80674,72307
5815.1,-16869,-67815,80599,72225
5817.1,-16561,-67717,80755,72314
5819.1,-16505,-67813,80823,72333
5821.1,-16833,-68008,80660,72198
5823.1,-17167,-67930,80556,72130
5825.1,-17066,-67586,80725,72264
5827.1,-16620,-67430,80913,72384
5829.1,-16292,-67621,80870,72319
5831.1,-16313,-67840,80769,72240
5833.1,-16512,-67915,80789,72279
5835.1,-16691,-67995,80797,72293
5837.1,-16846,-68097,80735,72247
5839.1,-16966,-68057,80782,72309
5841.1,-16989,-67979,80915,72438
5843.1,-17026,-68131,80869,72390
5845.1,-17128,-68323,80666,72207
5847.1,-16987,-68109,80626,72178
5849.1,-16447,-67601,80794,72318
5851.1,-15968,-67323,80904,72380
5853.1,-15992,-67372,80858,72307
5855.1,-16316,-67474,80786,72238
5857.1,-16513,-67552,80739,72212
5859.1,-16504,-67640,80727,72227
5861.1,-16472,-67701,80815,72336
5863.1,-16540,-67773,80946,72465
5865.1,-16680,-67873,80970,72457
5867.1,-16834,-67880,80931,72377
5869.1,-16973,-67795,80961,72372
5871.1,-16951,-67721,81006,72400
5873.1,-16600,-67562,81012,72406
5875.1,-16169,-67265,81106,72505
5877.1,-16187,-67134,81272,72672
5879.1,-16655,-67370,81249,72673
5881.1,-16952,-67662,81004,72502
5883.1,-16756,-67657,80859,72434
5885.1,-16436,-67484,80961,72545
5887.1,-16392,-67506,81079,72618
5889.1,-16503,-67742,81026,72553
5891.1,-16470,-67869,80874,72448
5893.1,-16341,-67818,80705,72320
5895.1,-16424,-67889,80539,72151
5897.1,-16756,-68071,80506,72108
5899.1,-16987,-67888,80694,72306
5901.1,-16854,-67281,80914,72525
5903.1,-16532,-66871,80967,72562
5905.1,-16364,-66970,80966,72560
5907.1,-16429,-67120,81059,72660
5909.1,-16485,-66942,81124,72708
5911.1,-16280,-66708,81043,72614
5913.1,-15900,-66781,80955,72571
5915.1,-15790,-67074,80978,72673
5917.1,-16231,-67326,80991,72731
5919.1,-16839,-67518,80884,72613
5921.1,-16992,-67718,80774,72468
5923.1,-16736,-67820,80792,72453
5925.1,-16619,-67729,80843,72478
5927.1,-16675,-67616,80744,72367
5929.1,-16516,-67669,80534,72167
5931.1,-16312,-67816,80458,72102
5933.1,-16502,-67863,80582,72213
5935.1,-16765,-67725,80688,72298
5937.1,-16583,-67492,80653,72258
5939.1,-16347,-67417,80615,72219
5941.1,-16589,-67681,80647,72233
5943.1,-16890,-68049,80620,72188
5945.1,-16803,-68128,80513,72070
5947.1,-16777,-67965,80466,71998
5949.1,-17090,-67893,80478,71990
5951.1,-17153,-67913,80451,71978
5953.1,-16728,-67793,80426,71978
5955.1,-16509,-67694,80439,71989
5957.1,-16894,-68058,80391,71941
5959.1,-17387,-68764,80314,71895
5961.1,-17430,-69003,80391,72005
5963.1,-16953,-68343,80550,72171
5965.1,-16281,-67471,80537,72170
5967.1,-16043,-67306,80420,72080
5969.1,-16564,-67745,80466,72124
5971.1,-17196,-67971,80619,72222
5973.1,-17135,-67727,80653,72188
5975.1,-16704,-67556,80589,72107
5977.1,-16729,-67850,80537,72099
5979.1,-17084,-68238,80480,72100
5981.1,-17097,-68190,80488,72119
5983.1,-16877,-67885,80674,72228
5985.1,-16983,-67916,80879,72279
5987.1,-17308,-68298,80913,72125
5989.1,-17425,-68582,80954,71972
5991.1,-17420,-68763,81210,72024
5993.1,-17438,-68992,81578,72179
5995.1,-17162,-68827,81987,72414
5997.1,-16524,-67988,82523,72868
5999.1,-16067,-67183,83005,73376
6001.1,-16035,-67057,83124,73651
6003.1,-15996,-67144,83050,73913
6005.1,-15647,-66762,83212,74574
6007.1,-15181,-65986,83633,75572
6009.1,-14893,-65122,84094,76728
6011.1,-14902,-64118,84545,78199
6013.1,-15046,-62891,84841,79947
6015.1,-14933,-61591,84625,81472
6017.1,-14493,-60365,83883,82579
6019.1,-14203,-59251,83010,83621
6021.1,-14364,-58321,82194,84731
6023.1,-14660,-57672,81324,85653
6025.13,-14788,-57322,80423,86316
6027.15,-14893,-57229,79588,86757
6029.18,-15184,-57390,78701,86654
6031.2,-15652,-57879,77637,85655
6033.2,-16200,-58798,76536,83931
6035.2,-16681,-60070,75629,81898
6037.2,-16956,-61358,75002,79698
6039.2,-17205,-62437,74576,77319
6041.2,-17781,-63491,74231,74914
6043.2,-18567,-64668,73971,72786
6045.2,-18993,-65621,73961,71209
6047.2,-18849,-66042,74260,70298
6049.2,-18545,-66237,74738,69988
6051.2,-18455,-66548,75354,70128
6053.2,-18514,-66741,76202,70544
6055.2,-18487,-66596,77158,70993
6057.2,-18232,-66415,77907,71276
6059.2,-17749,-66454,78379,71441
6061.2,-17235,-66581,78778,71653
6063.2,-17005,-66718,79218,71924
6065.2,-17187,-66882,79645,72158
6067.2,-17506,-66897,80008,72322
6069.2,-17554,-66780,80282,72407
6071.2,-17363,-66966,80463,72425
6073.2,-17393,-67541,80567,72414
6075.2,-17672,-67919,80561,72355
6077.2,-17556,-67794,80464,72225
6079.2,-16874,-67570,80484,72181
6081.2,-16409,-67528,80765,72367
6083.2,-16647,-67422,81114,72623
6085.2,-17069,-67166,81291,72729
6087.2,-17155,-67133,81306,72706
6089.2,-16948,-67440,81216,72628
6091.2,-16544,-67623,81032,72489
6093.2,-16188,-67434,80881,72382
6095.2,-16446,-67348,80889,72412
6097.2,-17151,-67670,80978,72503
6099.2,-17254,-67873,81076,72562
6101.2,-16672,-67664,81190,72586
6103.2,-16674,-67752,81194,72496
6105.2,-17519,-68403,81019,72280
6107.2,-17751,-68520,80934,72207
6109.2,-16722,-67544,81129,72409
6111.2,-15702,-66692,81353,72590
6113.2,-15712,-66910,81403,72591
6115.2,-16182,-67402,81433,72630
6117.2,-16331,-67388,81472,72723
6119.2,-16264,-67324,81361,72641
6121.2,-16306,-67513,81246,72510
6123.2,-16382,-67483,81353,72601
6125.2,-16310,-67259,81460,72711
6127.2,-16197,-67408,81323,72568
6129.2,-16381,-67783,81168,72418
6131.2,-16914,-67790,81217,72516
6133.2,-17266,-67524,81311,72668
6135.2,-17021,-67432,81356,72694
6137.2,-16573,-67482,81441,72684
6139.2,-16434,-67453,81495,72660
6141.2,-16437,-67366,81450,72604
6143.2,-16341,-67312,81460,72638
6145.2,-16421,-67376,81540,72727
6147.2,-16802,-67621,81499,72671
6149.2,-17046,-67866,81383,72522
6151.2,-16879,-67867,81384,72483
6153.2,-16565,-67717,81448,72506
6155.2,-16383,-67550,81506,72532
6157.2,-16356,-67290,81669,72689
6159.2,-16449,-67063,81842,72884
6161.2,-16540,-67139,81762,72821
6163.2,-16405,-67276,81551,72588
6165.2,-16102,-67112,81546,72542
6167.2,-16057,-66988,81687,72675
6169.2,-16391,-67266,81719,72725
6171.2,-16590,-67435,81680,72683
6173.2,-16302,-67054,81692,72676
6175.2,-15979,-66721,81696,72697
6177.2,-16144,-66999,81696,72742
6179.2,-16562,-67455,81800,72843
6181.2,-16758,-67591,81932,72913
6183.2,-16775,-67594,81951,72890
6185.2,-16753,-67619,81932,72888
6187.2,-16493,-67439,82000,72960
6189.2,-16083,-67121,82078,72992
6191.2,-16078,-67094,82044,72925
6193.2,-16469,-67433,81944,72837
6195.2,-16508,-67731,81924,72803
6197.2,-16009,-67675,82079,72895
6199.2,-15653,-67311,82359,73141
6201.2,-15754,-66893,82583,73408
6203.2,-15929,-66719,82618,73506
6205.2,-16012,-66881,82531,73436
6207.2,-16143,-67083,82485,73363
6209.2,-16171,-67009,82547,73383
6211.2,-15913,-66842,82662,73466
6213.2,-15639,-66939,82761,73558
6215.2,-15638,-67178,82814,73623
6217.2,-15784,-67221,82811,73620
6219.2,-15870,-67143,82770,73563
6221.2,-15931,-67180,82763,73553
6223.2,-16036,-67255,82852,73662
6225.2,-16063,-67233,82994,73818
6227.2,-15902,-67170,83095,73914
6229.2,-15802,-67123,83116,73920
6231.2,-16108,-67172,83069,73835
6233.2,-16499,-67384,83012,73709
6235.2,-16212,-67439,83085,73737
6237.2,-15357,-66984,83371,74044
6239.2,-14961,-66482,83670,74380
6241.2,-15327,-66633,83707,74415
6243.2,-15598,-67069,83551,74237
6245.2,-15241,-66946,83493,74160
6247.2,-14714,-66453,83575,74198
6249.2,-14560,-66398,83628,74175
6251.2,-14814,-66793,83642,74129
6253.2,-15192,-67038,83702,74164
6255.2,-15347,-66999,83735,74193
6257.2,-15238,-66957,83693,74176
6259.2,-15233,-66958,83719,74265
6261.2,-15459,-66874,83862,74441
6263.2,-15505,-66759,83944,74457
6265.2,-15192,-66771,83872,74271
6267.2,-14950,-66924,83775,74106
6269.2,-15047,-67037,83736,74049
6271.2,-15157,-66927,83685,73989
6273.2,-15033,-66737,83595,73899
6275.2,-14977,-66868,83546,73850
6277.2,-15233,-67337,83545,73835
6279.2,-15454,-67581,83514,73788
6281.2,-15269,-67314,83472,73748
6283.2,-15001,-66988,83536,73820
6285.2,-15110,-66951,83688,73959
6287.2,-15328,-66922,83747,73986
6289.2,-15168,-66737,83659,73860
6291.2,-14906,-66740,83536,73712
6293.2,-15071,-67013,83413,73599
6295.2,-15410,-67097,83261,73491
6297.2,-15407,-66808,83180,73451
6299.2,-15226,-66535,83255,73539
6301.2,-15166,-66516,83358,73638
6303.2,-15060,-66586,83355,73638
6305.2,-15049,-66740,83291,73591
6307.2,-15605,-67080,83193,73525
6309.2,-16199,-67234,83029,73402
6311.2,-15851,-66862,82911,73322
6313.2,-15121,-66490,82966,73415
6315.2,-15190,-66682,83049,73545
6317.2,-15589,-66975,82941,73495
6319.2,-15459,-66857,82744,73349
6321.2,-15508,-66781,82666,73321
6323.2,-16173,-67018,82652,73358
6325.2,-16378,-66985,82562,73303
6327.2,-15989,-66694,82467,73228
6329.2,-16225,-66936,82442,73249
6331.2,-16781,-67450,82363,73252
6333.2,-16329,-67144,82162,73118
6335.2,-15567,-66316,82016,72990
6337.2,-15951,-66300,82037,73015
6339.2,-16715,-67059,82058,73071
6341.2,-16534,-67401,81911,72996
6343.2,-16055,-67132,81711,72874
6345.2,-16211,-67003,81687,72888
6347.2,-16458,-67183,81833,73016
6349.2,-16318,-67260,81907,73061
6351.2,-16227,-67100,81793,72965
6353.2,-16244,-66883,81647,72869
6355.2,-16133,-66873,81590,72832
6357.2,-16330,-67222,81540,72766
6359.2,-16905,-67549,81459,72665
6361.2,-16900,-67335,81420,72605
6363.2,-16189,-66935,81376,72533
6365.2,-16024,-67063,81251,72407
6367.2,-16693,-67466,81204,72402
6369.2,-16989,-67451,81378,72621
6371.2,-16537,-67171,81577,72835
6373.2,-16227,-67077,81593,72868
6375.2,-16313,-67001,81539,72853
6377.2,-16266,-66787,81522,72870
6379.2,-16140,-66768,81408,72773
6381.2,-16358,-67014,81220,72585
6383.2,-16756,-67171,81218,72564
6385.2,-16902,-67166,81378,72712
6387.2,-16779,-67207,81371,72738
6389.2,-16670,-67303,81165,72581
6391.2,-16750,-67360,81088,72504
6393.2,-16851,-67362,81224,72603
6395.2,-16662,-67278,81296,72657
6397.2,-16298,-67135,81201,72564
6399.2,-16232,-67083,81162,72512
6401.2,-16479,-67174,81259,72591
6403.3,-16626,-67323,81287,72625
6405.3,-16617,-67394,81202,72564
6407.3,-16648,-67200,81238,72621
6409.3,-16645,-66806,81425,72814
6411.3,-16574,-66671,81484,72876
6413.3,-16585,-66917,81346,72761
6415.3,-16509,-67014,81249,72706
6417.3,-16180,-66785,81249,72731
6419.3,-16123,-66752,81224,72702
6421.3,-16725,-67022,81222,72697
6423.3,-17293,-67076,81266,72765
6425.3,-17108,-66868,81170,72702
6427.3,-16543,-66858,80991,72531
6429.3,-16238,-67033,81088,72606
6431.3,-16190,-67032,81434,72913
6433.3,-16269,-66919,81576,73027
6435.3,-16547,-66948,81421,72874
6437.3,-16834,-67039,81288,72772
6439.3,-16808,-67052,81252,72779
6441.3,-16623,-67063,81159,72717
6443.3,-16600,-67077,81104,72652
6445.3,-16597,-66983,81218,72712
6447.3,-16388,-66876,81276,72724
6449.3,-16219,-66944,81076,72535
6451.3,-16396,-67135,80871,72367
6453.3,-16762,-67292,80953,72448
6455.3,-16925,-67302,81178,72635
6457.3,-16660,-66971,81301,72737
6459.3,-16108,-66349,81363,72808
6461.3,-15761,-66071,81424,72879
6463.3,-15930,-66504,81369,72844
6465.3,-16261,-66973,81205,72738
6467.3,-16302,-66815,81110,72697
6469.3,-16198,-66489,81130,72690
6471.3,-16256,-66626,81194,72662
6473.3,-16427,-66902,81279,72685
6475.3,-16538,-66779,81271,72690
6477.3,-16512,-66469,81034,72506
6479.3,-16389,-66490,80766,72300
6481.3,-16440,-66876,80785,72382
6483.3,-16759,-67216,80995,72622
6485.3,-16915,-67206,81084,72677
6487.3,-16697,-67016,81030,72568
6489.3,-16548,-67000,80986,72515
6491.3,-16643,-67120,80992,72545
6493.3,-16609,-67124,81037,72589
6495.3,-16503,-67184,81052,72585
6497.3,-16743,-67570,80907,72440
6499.3,-17075,-67909,80708,72240
6501.3,-16956,-67683,80760,72268
6503.3,-16636,-67172,81030,72531
6505.3,-16655,-66987,81160,72694
6507.3,-16798,-67094,81077,72639
6509.3,-16639,-67096,81002,72567
6511.3,-16448,-67009,80960,72537
6513.3,-16623,-67022,80839,72436
6515.3,-16896,-67047,80725,72313
6517.3,-16903,-67032,80727,72280
6519.3,-16791,-67116,80751,72292
6521.3,-16665,-67167,80761,72324
6523.3,-16378,-66937,80868,72449
6525.3,-16173,-66732,80982,72572
6527.3,-16429,-66985,80889,72499
6529.3,-16747,-67342,80698,72336
6531.3,-16552,-67248,80690,72317
6533.3,-16239,-67037,80771,72336
6535.3,-16485,-67288,80684,72193
6537.3,-17009,-67695,80568,72076
6539.3,-17078,-67609,80667,72207
6541.3,-16599,-67118,80815,72357
6543.3,-16029,-66760,80783,72298
6545.3,-15826,-66716,80746,72250
6547.3,-16189,-66821,80871,72386
6549.3,-16817,-66947,80941,72460
6551.3,-17067,-67026,80794,72317
6553.3,-16784,-67023,80638,72202
6555.3,-16542,-67040,80660,72278
6557.3,-16760,-67218,80748,72362
6559.3,-17090,-67453,80746,72297
6561.3,-17015,-67456,80669,72176
6563.3,-16618,-67204,80616,72122
6565.3,-16399,-67033,80642,72140
6567.3,-16576,-67121,80732,72200
6569.3,-16855,-67254,80793,72250
6571.3,-16869,-67286,80714,72182
6573.3,-16644,-67381,80500,71974
6575.3,-16520,-67577,80352,71823
6577.3,-16697,-67617,80471,71949
6579.3,-17013,-67416,80777,72270
6581.3,-17169,-67228,80958,72479
6583.3,-17066,-67209,80859,72423
6585.3,-16891,-67263,80673,72237
6587.3,-16893,-67319,80648,72126
6589.3,-17056,-67354,80772,72144
6591.3,-17092,-67289,80833,72181
6593.3,-16848,-67155,80749,72144
6595.3,-16548,-67129,80669,72107
6597.3,-16502,-67227,80704,72152
6599.3,-16712,-67294,80728,72177
6601.3,-16943,-67342,80612,72061
6603.3,-17020,-67458,80462,71917
6605.3,-16906,-67471,80439,71919
6607.3,-16715,-67252,80496,72016
6609.3,-16739,-67172,80462,72012
6611.3,-17115,-67590,80298,71844
6613.3,-17449,-68050,80193,71700
6615.3,-17235,-67768,80388,71859
6617.3,-16599,-66881,80789,72264
6619.3,-16140,-66350,80966,72457
6621.3,-16182,-66580,80794,72252
6623.3,-16534,-67011,80680,72080
6625.3,-16755,-67141,80815,72209
6627.3,-16565,-67117,80839,72272
6629.3,-16228,-67190,80628,72078
6631.3,-16331,-67333,80575,72007
6633.3,-16973,-67510,80733,72161
6635.3,-17585,-67739,80676,72119
6637.3,-17687,-67854,80414,71869
6639.3,-17342,-67660,80421,71886
6641.3,-16864,-67260,80683,72172
6643.3,-16501,-66929,80753,72270
6645.3,-16364,-66832,80620,72154
6647.3,-16453,-66961,80611,72151
6649.3,-16678,-67181,80682,72223
6651.3,-16907,-67317,80590,72131
6653.3,-17051,-67338,80444,71988
6655.3,-17067,-67312,80469,72016
6657.3,-16852,-67244,80569,72113
6659.3,-16423,-67159,80580,72105
6661.3,-16185,-67133,80588,72077
6663.3,-16416,-67094,80657,72110
6665.3,-16660,-66985,80628,72068
6667.3,-16472,-67042,80479,71922
6669.3,-16323,-67346,80478,71913
6671.3,-16699,-67464,80681,72110
6673.3,-17072,-67203,80759,72206
6675.3,-16937,-67073,80593,72058
6677.3,-16808,-67353,80485,71941
6679.3,-17112,-67567,80566,72010
6681.3,-17358,-67465,80601,72064
6683.3,-17225,-67468,80523,72002
6685.3,-17071,-67673,80518,71982
6687.3,-16959,-67593,80582,72037
6689.3,-16654,-67222,80559,72049
6691.3,-16483,-67128,80480,72018
6693.3,-16755,-67332,80441,72002
6695.3,-16961,-67350,80393,71955
6697.3,-16803,-67275,80327,71863
6699.3,-16840,-67510,80350,71833
6701.3,-17224,-67771,80474,71910
6703.3,-17356,-67644,80560,71988
6705.3,-17137,-67467,80511,71961
6707.3,-16951,-67511,80416,71899
6709.3,-16702,-67335,80456,71966
6711.3,-16360,-66904,80643,72156
6713.3,-16476,-66921,80740,72243
6715.3,-17032,-67376,80623,72145
6717.3,-17181,-67407,80512,72065
6719.3,-16730,-66932,80579,72114
6721.3,-16375,-66731,80623,72108
6723.3,-16397,-66944,80497,71981
6725.3,-16519,-67049,80441,71968
6727.3,-16668,-66995,80579,72119
6729.3,-16805,-67060,80601,72118
6731.3,-16680,-67148,80368,71886
6733.3,-16393,-67100,80262,71805
6735.3,-16411,-67026,80512,72050
6737.3,-16778,-66973,80763,72275
6739.3,-17054,-66924,80708,72215
6741.3,-17048,-67058,80533,72042
6743.3,-16978,-67411,80460,71948
6745.3,-17011,-67662,80421,71885
6747.3,-17062,-67649,80344,71802
6749.3,-16942,-67522,80305,71763
6751.3,-16607,-67298,80377,71844
6753.3,-16311,-66943,80559,72059
6755.3,-16331,-66726,80749,72273
6757.3,-16535,-66845,80761,72256
6759.3,-16619,-67032,80567,72013
6761.3,-16648,-67045,80408,71845
6763.3,-16821,-67042,80428,71878
6765.3,-16986,-67179,80472,71918
6767.3,-16954,-67322,80426,71874
6769.3,-16863,-67294,80423,71907
6771.3,-16835,-67095,80544,72059
6773.3,-16838,-66946,80644,72142
6775.33,-16946,-67077,80589,72050
6777.35,-17077,-67282,80464,71922
6779.38,-16894,-67159,80454,71932
6781.4,-16546,-66973,80557,72032
6783.4,-16619,-67309,80567,72006
6785.4,-17043,-67856,80437,71848
6787.4,-17232,-67875,80383,71804
6789.4,-17198,-67558,80478,71926
6791.4,-17212,-67434,80537,72004
6793.4,-16995,-67236,80526,71999
6795.4,-16467,-66750,80571,72050
6797.4,-16289,-66583,80587,72093
6799.4,-16651,-66962,80429,71998
6801.4,-16811,-67173,80266,71894
6803.4,-16477,-66898,80329,71938
6805.4,-16316,-66718,80539,72034
6807.4,-16656,-66983,80652,72027
6809.4,-16975,-67326,80581,71931
6811.4,-16965,-67395,80459,71868
6813.4,-16949,-67264,80444,71911
6815.4,-16988,-67112,80512,71989
6817.4,-16750,-66990,80524,71987
6819.4,-16435,-66983,80464,71936
6821.4,-16637,-67227,80394,71898
6823.4,-17115,-67532,80299,71820
6825.4,-17039,-67381,80222,71731
6827.4,-16451,-66724,80291,71792
6829.4,-16161,-66274,80433,71939
6831.4,-16367,-66505,80445,71949
6833.4,-16615,-66950,80403,71893
6835.4,-16684,-67048,80500,71990
6837.4,-16622,-66946,80641,72140
6839.4,-16508,-66972,80662,72157
6841.4,-16623,-67079,80640,72135
6843.4,-17117,-67195,80617,72138
6845.4,-17483,-67362,80489,72034
6847.4,-17209,-67391,80361,71884
6849.4,-16651,-67142,80445,71910
6851.4,-16488,-66970,80599,72025
6853.4,-16675,-67113,80556,72004
6855.4,-16767,-67235,80403,71926
6857.4,-16860,-67281,80292,71885
6859.4,-17324,-67701,80135,71731
6861.4,-17815,-68223,80030,71571
6863.4,-17567,-67907,80289,71790
6865.4,-16666,-66855,80740,72257
6867.4,-16024,-66212,80807,72366
6869.4,-16074,-66373,80498,72084
6871.4,-16434,-66717,80375,71957
6873.4,-16682,-66849,80532,72082
6875.4,-16687,-66881,80541,72059
6877.4,-16489,-66923,80362,71877
6879.4,-16370,-66998,80373,71913
6881.4,-16576,-67051,80621,72173
6883.4,-16880,-67004,80748,72284
6885.4,-16970,-67035,80594,72101
6887.4,-16945,-67277,80374,71854
6889.4,-16927,-67328,80314,71786
6891.4,-16829,-66983,80395,71896
6893.4,-16782,-66867,80456,71998
6895.4,-16959,-67301,80424,71973
6897.4,-17079,-67542,80372,71894
6899.4,-16905,-67187,80363,71868
6901.4,-16713,-66906,80368,71872
6903.4,-16653,-67014,80382,71871
6905.4,-16535,-66970,80450,71917
6907.4,-16549,-66761,80517,71987
6909.4,-16999,-66967,80478,71952
6911.4,-17377,-67343,80413,71846
6913.4,-17053,-67144,80519,71879
6915.4,-16507,-66628,80773,72089
6917.4,-16492,-66544,80938,72260
6919.4,-16697,-66688,80942,72282
6921.4,-16566,-66527,80921,72261
6923.4,-16460,-66426,80902,72247
6925.4,-16745,-66818,80815,72193
6927.4,-16918,-67164,80763,72166
6929.4,-16588,-66914,80899,72280
6931.4,-16147,-66461,81098,72444
6933.4,-15973,-66328,81137,72498
6935.4,-16063,-66389,81073,72488
6937.4,-16351,-66403,81050,72512
6939.4,-16522,-66420,80957,72456
6941.4,-16173,-66416,80729,72262
6943.4,-15688,-66242,80653,72184
6945.4,-15898,-66031,80867,72356
6947.4,-16714,-66159,81000,72465
6949.4,-17252,-66642,80770,72267
6951.4,-17144,-66970,80448,72000
6953.4,-16803,-66851,80324,71925
6955.4,-16725,-66735,80300,71952
6957.4,-16972,-67016,80271,71954
6959.4,-17056,-67212,80330,71989
6961.4,-16516,-66815,80452,72065
6963.4,-15797,-66328,80467,72077
6965.4,-15790,-66421,80374,71998
6967.4,-16434,-66813,80325,71920
6969.4,-16793,-66944,80370,71912
6971.4,-16572,-66905,80400,71925
6973.4,-16453,-66949,80348,71875
6975.4,-16825,-66970,80317,71821
6977.4,-17167,-66939,80384,71870
6979.4,-17033,-67040,80393,71910
6981.4,-16835,-67238,80199,71762
6983.4,-16989,-67302,79951,71531
6985.4,-17010,-67168,79843,71416
6987.4,-16488,-66968,79876,71424
6989.4,-16204,-66899,80044,71542
6991.4,-16798,-67067,80285,71753
6993.4,-17341,-67289,80309,71828
6995.4,-16988,-67319,80090,71698
6997.4,-16660,-67251,80119,71758
6999.4,-17245,-67321,80510,72115
7001.4,-17885,-67470,80662,72240
7003.4,-17714,-67476,80375,71966
7005.4,-17281,-67277,80189,71814
7007.4,-17129,-67033,80231,71898
7009.4,-17013,-67015,80086,71791
7011.4,-16891,-67258,79867,71565
7013.4,-16904,-67374,80012,71637
7015.4,-16761,-67157,80296,71833
7017.4,-16475,-67022,80304,71797
7019.4,-16622,-67234,80272,71750
7021.4,-17140,-67390,80498,71903
7023.4,-17296,-67303,80758,71973
7025.4,-17018,-67398,80927,71874
7027.4,-16836,-67747,81208,71891
7029.4,-16844,-67846,81535,72017
7031.4,-16860,-67641,81699,72046
7033.4,-16885,-67583,81893,72155
7035.4,-16758,-67580,82324,72580
7037.4,-16282,-67070,82753,73172
7039.4,-15796,-66129,82991,73805
7041.4,-15633,-65417,83230,74611
7043.4,-15487,-65050,83552,75609
7045.4,-15176,-64442,83773,76747
7047.4,-15032,-63259,83810,78143
7049.4,-15006,-61784,83672,79753
7051.4,-14686,-60355,83289,81238
7053.4,-14317,-59035,82658,82484
7055.4,-14451,-57927,81835,83617
7057.4,-14906,-57281,80812,84561
7059.4,-15194,-57038,79754,85286
7061.4,-15330,-56766,78932,86003
7063.4,-15517,-56369,78158,86485
7065.4,-15803,-56323,77037,86066
7067.4,-16229,-56865,75834,84776
7069.4,-16682,-57682,75140,83331
7071.4,-16939,-58648,74827,81798
7073.4,-17136,-59979,74330,79608
7075.4,-17568,-61480,73667,76863
7077.4,-18100,-62670,73299,74355
7079.4,-18480,-63566,73382,72472
7081.4,-18775,-64421,73750,71098
7083.4,-19017,-65050,74247,70241
7085.4,-18994,-65250,74786,69959
7087.4,-18681,-65310,75365,70040
7089.4,-18344,-65515,76056,70228
7091.4,-18204,-65773,76830,70497
7093.4,-18252,-65960,77572,70890
7095.4,-18210,-66031,78244,71333
7097.4,-17826,-65916,78826,71682
7099.4,-17375,-65751,79254,71885
7101.4,-17308,-65815,79593,72034
7103.4,-17385,-66086,79954,72183
7105.4,-17107,-66331,80251,72234
7107.4,-16755,-66508,80392,72163
7109.4,-16887,-66627,80487,72115
7111.4,-17252,-66640,80581,72126
7113.4,-17272,-66627,80600,72118
7115.4,-16996,-66618,80659,72176
7117.4,-16706,-66447,80844,72338
7119.4,-16329,-66212,80869,72331
7121.4,-15933,-66255,80593,72066
7123.4,-16039,-66541,80435,71939
7125.4,-16806,-66788,80656,72140
7127.4,-17509,-66972,80897,72298
7129.4,-17475,-67023,80900,72199
7131.4,-17065,-66756,80888,72116
7133.4,-17068,-66530,80967,72193
7135.4,-17465,-66831,80960,72240
7137.4,-17563,-67187,80877,72194
7139.4,-17175,-66916,80863,72157
7141.4,-16847,-66524,80858,72124
7143.4,-16931,-66766,80836,72112
7145.4,-17156,-67148,80986,72273
7147.4,-17198,-66923,81262,72524
7149.4,-17080,-66565,81295,72533
7151.4,-16894,-66780,81029,72271
7153.4,-16670,-67133,80856,72085
7155.43,-16536,-66927,80956,72132
7157.45,-16568,-66451,81096,72241
7159.48,-16585,-66332,81109,72297
7161.5,-16542,-66513,81083,72327
7163.5,-16748,-66632,81100,72338
7165.5,-17191,-66719,81162,72343
7167.5,-17281,-66866,81234,72372
7169.5,-16849,-66804,81230,72372
7171.5,-16562,-66402,81141,72321
7173.5,-16768,-66106,81114,72334
7175.5,-16937,-66302,81211,72446
7177.5,-16754,-66712,81285,72507
7179.5,-16632,-66902,81231,72444
7181.5,-16727,-66884,81130,72357
7183.5,-16662,-66825,81083,72322
7185.5,-16530,-66799,81106,72314
7187.5,-16876,-66954,81154,72285
7189.5,-17445,-67251,81169,72205
7191.5,-17343,-67200,81173,72139
7193.5,-16565,-66590,81269,72219
7195.5,-16006,-66016,81443,72423
7197.5,-16002,-65986,81561,72574
7199.5,-16157,-66174,81589,72610
7201.5,-16340,-66140,81576,72583
7203.5,-16637,-66066,81492,72472
7205.5,-16828,-66280,81370,72315
7207.5,-16825,-66652,81399,72321
7209.5,-16840,-66797,81618,72535
7211.5,-16749,-66583,81790,72692
7213.5,-16365,-66308,81788,72656
7215.5,-16131,-66341,81771,72609
7217.5,-16377,-66589,81831,72664
7219.5,-16624,-66679,81855,72714
7221.5,-16556,-66625,81823,72715
7223.5,-16498,-66680,81844,72742
7225.5,-16446,-66708,81903,72771
7227.5,-16112,-66531,81883,72710
7229.5,-15835,-66447,81787,72590
7231.5,-16079,-66609,81728,72532
7233.5,-16542,-66609,81789,72615
7235.5,-16741,-66308,81963,72819
7237.5,-16682,-66164,82162,73007
7239.5,-16610,-66376,82291,73057
7241.5,-16768,-66661,82362,73034
7243.5,-17135,-66847,82422,73068
7245.5,-17180,-66893,82421,73104
7247.5,-16650,-66705,82313,73016
7249.5,-16232,-66457,82214,72892
7251.5,-16377,-66483,82257,72909
7253.5,-16452,-66643,82391,73052
7255.5,-16087,-66499,82526,73201
7257.5,-15982,-66116,82719,73374
7259.5,-16482,-65982,83008,73619
7261.5,-16873,-66225,83216,73792
7263.5,-16670,-66443,83162,73739
7265.5,-16266,-66308,82988,73597
7267.5,-16071,-65999,82990,73615
7269.5,-16026,-65946,83186,73761
7271.5,-16004,-66234,83329,73811
7273.5,-15968,-66478,83289,73712
7275.5,-15836,-66382,83180,73616
7277.5,-15625,-66166,83140,73624
7279.5,-15489,-66162,83186,73683
7281.5,-15383,-66212,83278,73708
7283.5,-15159,-65956,83417,73720
7285.5,-15053,-65581,83616,73812
7287.5,-15364,-65613,83795,73973
7289.5,-15708,-65971,83847,74054
7291.5,-15541,-66076,83804,74010
7293.5,-15206,-65892,83783,73956
7295.5,-15360,-65928,83775,73915
7297.5,-15749,-66176,83702,73814
7299.5,-15704,-66094,83618,73703
7301.5,-15368,-65693,83619,73699
7303.5,-15384,-65648,83680,73756
