t,lead_I,lead_II,v3,v4
1.6,12786,48145,89386,76580
3.6,12600,48238,89285,76440
5.6,12449,48187,88866,75967
7.6,12371,48097,88456,75579
9.6,12326,48079,88337,75563
11.6,12168,47931,88280,75553
13.6,11928,47455,88104,75351
15.6,11817,46880,87903,75193
17.6,11862,46597,87682,75105
19.6,11870,46653,87392,74911
21.6,11732,46814,87154,74683
23.6,11537,46925,86998,74521
25.6,11394,46946,86762,74302
27.6,11322,46858,86484,74048
29.6,11308,46741,86377,73982
31.6,11338,46788,86361,74029
33.6,11372,47067,86172,73878
35.6,11394,47396,85869,73554
37.6,11436,47538,85703,73358
39.6,11455,47465,85690,73367
41.6,11351,47265,85711,73448
43.6,11193,46898,85772,73563
45.6,11159,46338,85887,73725
47.6,11199,45913,85947,73837
49.6,11127,46016,85858,73774
51.6,10982,46435,85680,73561
53.6,10894,46466,85549,73374
55.6,10816,45911,85516,73347
57.6,10730,45416,85500,73420
59.6,10768,45484,85459,73491
61.6,10898,45754,85475,73588
63.6,10916,45764,85535,73692
65.6,10859,45731,85471,73652
67.6,10948,45941,85285,73486
69.6,11128,46097,85204,73422
71.6,11126,45965,85259,73481
73.6,10926,45874,85234,73453
75.6,10793,46015,85102,73343
77.6,10846,46070,85062,73341
79.6,10942,45921,85121,73424
81.6,10934,45840,85111,73430
83.6,10807,45856,85048,73386
85.6,10633,45739,85046,73379
87.6,10504,45522,85026,73343
89.6,10450,45411,84899,73247
91.6,10405,45437,84781,73192
93.6,10347,45564,84732,73175
95.6,10336,45738,84641,73090
97.6,10361,45731,84538,72987
99.6,10355,45429,84595,73000
101.6,10337,45121,84738,73072
103.6,10321,45063,84746,73079
105.6,10263,45096,84663,73069
107.6,10222,45096,84650,73101
109.6,10299,45232,84639,73099
111.6,10402,45491,84526,73032
113.6,10394,45575,84398,72969
115.6,10333,45458,84297,72881
117.6,10287,45384,84144,72720
119.6,10200,45355,84034,72605
121.6,10115,45201,84124,72659
123.6,10159,44978,84270,72763
125.6,10284,44852,84247,72770
127.6,10345,44840,84169,72756
129.6,10345,44898,84224,72822
131.6,10330,44976,84281,72849
133.6,10276,44978,84164,72702
135.6,10233,44923,84003,72507
137.6,10303,44970,83954,72452
139.6,10405,45134,83926,72510
141.6,10375,45205,83856,72570
143.6,10263,45066,83881,72639
145.6,10194,44855,84002,72684
147.6,10113,44709,83995,72573
149.6,9969,44558,83834,72384
151.6,9907,44303,83758,72371
153.63,9965,44069,83799,72487
155.65,9960,44023,83724,72422
157.68,9860,44061,83537,72207
159.7,9835,44015,83508,72167
161.7,9858,43993,83650,72305
163.7,9804,44148,83701,72327
165.7,9805,44328,83613,72234
167.7,9960,44318,83582,72258
169.7,10032,44193,83642,72358
171.7,9900,44129,83644,72323
173.7,9798,44075,83585,72193
175.7,9807,43910,83589,72138
177.7,9745,43768,83623,72123
179.7,9646,43846,83570,72071
181.7,9702,44048,83489,72073
183.7,9835,44202,83475,72147
185.7,9860,44390,83422,72120
187.7,9837,44591,83281,71978
189.7,9866,44474,83278,71967
191.7,9887,44041,83500,72137
193.7,9857,43808,83640,72220
195.7,9809,43930,83516,72123
197.7,9731,43943,83394,72056
199.7,9637,43634,83482,72124
201.7,9633,43336,83627,72212
203.7,9726,43320,83657,72243
205.7,9768,43489,83618,72230
207.7,9671,43587,83598,72168
209.7,9519,43468,83600,72090
211.7,9430,43300,83551,72033
213.7,9453,43390,83393,71953
215.7,9561,43689,83222,71856
217.7,9656,43838,83196,71838
219.7,9655,43753,83275,71881
221.7,9583,43646,83313,71876
223.7,9513,43588,83334,71850
225.7,9455,43473,83405,71896
227.7,9407,43296,83453,71966
229.7,9413,43152,83438,71988
231.7,9481,43077,83452,71996
233.7,9556,43024,83511,72021
235.7,9631,42964,83532,72029
237.7,9739,42979,83502,72018
239.7,9798,43166,83457,72005
241.7,9697,43399,83403,71986
243.7,9523,43410,83371,71980
245.7,9469,43222,83390,72001
247.7,9508,43145,83406,72001
249.7,9441,43228,83384,71947
251.7,9279,43192,83383,71888
253.7,9240,43017,83400,71852
255.7,9357,42977,83365,71815
257.7,9425,43032,83318,71795
259.7,9366,42838,83385,71855
261.7,9296,42399,83561,71986
263.7,9253,42100,83718,72104
265.7,9180,42141,83787,72160
267.7,9127,42427,83800,72168
269.7,9186,42832,83794,72144
271.7,9319,43225,83780,72099
273.7,9404,43433,83783,72086
275.7,9392,43398,83846,72148
277.7,9343,43248,83962,72237
279.7,9356,43169,84061,72269
281.7,9450,43218,84094,72259
283.7,9520,43268,84085,72268
285.7,9487,43249,84066,72269
287.7,9441,43339,84022,72191
289.7,9494,43634,83942,72082
291.7,9602,43814,83887,72069
293.7,9646,43574,83907,72151
295.7,9630,43122,83949,72207
297.7,9636,42798,83950,72207
299.7,9658,42631,83953,72231
301.7,9611,42605,83989,72277
303.7,9506,42803,83994,72257
305.7,9427,43044,83966,72219
307.7,9391,43027,83976,72262
309.7,9322,42900,83951,72285
311.7,9189,42975,83798,72174
313.7,9062,43072,83683,72075
315.7,9045,42911,83752,72121
317.7,9164,42759,83799,72139
319.7,9330,42910,83650,72010
321.7,9432,43044,83491,71909
323.7,9433,42810,83454,71922
325.7,9363,42442,83426,71920
327.7,9299,42272,83409,71910
329.7,9315,42209,83485,71985
331.7,9355,42073,83515,72027
333.7,9270,41941,83392,71918
335.7,9078,41926,83286,71788
337.7,8967,41974,83294,71745
339.7,8980,41971,83283,71721
341.7,8970,41888,83239,71712
343.7,8907,41785,83277,71767
345.7,8880,41744,83332,71782
347.7,8837,41743,83257,71633
349.7,8679,41621,83098,71424
351.7,8504,41301,82992,71335
353.7,8464,41024,82948,71353
355.7,8529,41120,82906,71346
357.7,8616,41517,82868,71294
359.7,8745,41816,82879,71284
361.7,8915,41851,82942,71340
363.7,9004,41757,83021,71398
365.7,8908,41570,83107,71448
367.7,8697,41281,83188,71505
369.7,8569,41111,83217,71520
371.7,8622,41170,83188,71473
373.7,8736,41161,83176,71452
375.7,8749,40905,83212,71492
377.7,8654,40702,83218,71477
379.7,8537,40798,83128,71344
381.7,8472,41049,82988,71190
383.7,8523,41314,82923,71125
385.7,8667,41505,83036,71178
387.7,8739,41353,83306,71315
389.7,8641,40856,83572,71429
391.7,8529,40570,83733,71418
393.7,8600,40737,83882,71325
395.7,8775,40801,84150,71284
397.7,8809,40401,84491,71309
399.7,8652,40017,84779,71311
401.7,8491,40112,84997,71290
403.7,8473,40439,85222,71363
405.7,8577,40579,85475,71612
407.7,8756,40576,85681,72054
409.7,8978,40812,85821,72694
411.7,9172,41529,86003,73559
413.7,9321,42563,86284,74697
415.7,9538,43630,86474,76146
417.7,9885,44815,86283,77842
419.7,10242,46289,85677,79607
421.7,10478,47715,84819,81296
423.7,10635,48684,83677,82804
425.7,10821,49436,82117,84030
427.7,10991,50216,80477,85030
429.7,10953,50545,79369,86019
431.7,10628,50096,78747,86948
433.7,10195,49442,77922,87368
435.7,9877,49075,76660,86922
437.7,9666,48683,75469,85704
439.7,9418,47921,74792,84048
441.7,9069,46880,74578,82186
443.73,8633,45609,74528,80072
445.75,8123,44127,74307,77499
447.78,7593,42774,73846,74572
449.8,7115,41835,73559,71831
451.8,6704,41182,73777,69627
453.8,6378,40717,74239,67880
455.8,6226,40539,74681,66698
457.8,6297,40498,75363,66447
459.8,6492,40289,76436,66956
461.8,6699,40022,77511,67508
463.8,6926,39966,78331,67808
465.8,7213,40004,79103,68155
467.8,7537,40029,79887,68653
469.8,7843,40269,80445,69055
471.8,8077,40578,80814,69320
473.8,8201,40364,81287,69638
475.8,8268,39788,81814,69956
477.8,8373,39710,82098,70047
479.8,8482,40070,82175,69968
481.8,8490,39945,82321,69964
483.8,8419,39380,82536,70048
485.8,8364,39301,82622,70028
487.8,8311,39648,82617,69909
489.8,8243,39494,82710,69895
491.8,8246,38869,82870,70014
493.8,8322,38632,82927,70065
495.8,8294,38836,82902,69964
497.8,8113,38851,82931,69850
499.8,7987,38697,82984,69804
501.8,8046,38830,82979,69781
503.8,8178,39077,83031,69821
505.8,8292,39007,83274,70010
507.8,8419,38778,83571,70242
509.8,8512,38714,83704,70339
511.8,8497,38672,83710,70339
513.8,8469,38528,83738,70372
515.8,8532,38553,83793,70405
517.8,8595,38841,83816,70350
519.8,8578,39048,83834,70263
521.8,8584,39018,83877,70235
523.8,8658,39012,83934,70266
525.8,8687,39193,84003,70313
527.8,8664,39372,84085,70365
529.8,8693,39355,84173,70430
531.8,8740,39231,84250,70500
533.8,8686,39220,84255,70504
535.8,8583,39309,84173,70410
537.8,8566,39210,84161,70356
539.8,8629,38820,84352,70476
541.8,8691,38482,84595,70656
543.8,8745,38492,84695,70726
545.8,8794,38690,84714,70734
547.8,8786,38816,84760,70780
549.8,8719,38863,84773,70828
551.8,8682,38908,84746,70857
553.8,8718,38953,84794,70936
555.8,8764,39009,84914,71055
557.8,8782,39045,85008,71146
559.8,8836,38989,85107,71244
561.8,8948,38904,85285,71411
563.8,9024,38912,85474,71588
565.8,9010,38957,85612,71712
567.8,9002,38942,85779,71835
569.8,9082,38982,86009,72001
571.8,9189,39266,86190,72147
573.8,9250,39718,86304,72233
575.8,9314,39975,86526,72364
577.8,9430,39801,86952,72643
579.8,9516,39432,87430,72990
581.8,9519,39254,87803,73265
583.8,9558,39278,88131,73487
585.8,9719,39295,88522,73758
587.8,9878,39353,88936,74061
589.8,9931,39591,89285,74317
591.8,9973,39854,89579,74533
593.8,10078,39920,89875,74770
595.8,10162,39848,90186,75021
597.8,10218,39871,90478,75239
599.8,10344,40098,90712,75404
601.8,10513,40387,90879,75532
603.8,10611,40474,91039,75671
605.8,10660,40359,91231,75847
607.8,10733,40393,91367,75981
609.8,10788,40710,91347,75977
611.8,10768,40926,91236,75894
613.8,10713,40803,91154,75848
615.8,10681,40672,91074,75811
617.8,10661,40750,90926,75698
619.8,10597,40771,90758,75544
621.8,10486,40681,90590,75378
623.8,10406,40771,90356,75168
625.8,10386,40889,90121,74992
627.8,10345,40636,90005,74948
629.8,10261,40283,89893,74900
631.8,10257,40286,89640,74712
633.8,10353,40365,89383,74520
635.8,10374,40192,89217,74404
637.8,10268,40132,88955,74184
639.8,10181,40360,88540,73825
641.8,10147,40444,88186,73533
643.8,10064,40306,87931,73328
645.8,9957,40302,87645,73092
647.8,9917,40287,87406,72909
649.8,9849,39917,87295,72842
651.8,9660,39464,87126,72703
653.8,9507,39311,86813,72426
655.8,9529,39266,86561,72214
657.8,9583,39064,86441,72120
659.8,9525,38771,86296,72000
661.8,9431,38466,86085,71843
663.8,9353,38257,85853,71683
665.8,9218,38399,85546,71431
667.8,9072,38739,85232,71146
669.8,9032,38681,85105,71051
671.8,9005,38197,85096,71088
673.8,8860,37954,84953,70977
675.8,8708,38085,84713,70749
677.8,8690,38046,84596,70654
679.8,8735,37807,84552,70655
681.8,8759,37839,84426,70566
683.8,8820,38051,84303,70449
685.8,8920,38046,84287,70430
687.8,8971,37968,84265,70421
689.8,8960,37989,84175,70356
691.8,8933,37789,84151,70348
693.8,8885,37394,84198,70395
695.8,8813,37382,84119,70317
697.8,8760,37756,83900,70104
699.8,8742,37899,83757,69968
701.8,8750,37753,83747,69976
703.8,8769,37739,83715,69987
705.8,8769,37782,83632,69959
707.8,8746,37605,83607,69974
709.8,8748,37455,83622,70009
711.8,8765,37590,83577,69967
713.8,8731,37714,83506,69885
715.8,8693,37598,83492,69853
717.8,8744,37486,83484,69840
719.8,8806,37523,83403,69769
721.8,8756,37488,83296,69682
723.8,8670,37253,83254,69662
725.8,8659,36993,83251,69681
727.8,8659,36938,83180,69624
729.8,8633,37150,83012,69463
731.9,8699,37393,82859,69322
733.9,8841,37304,82838,69314
735.9,8854,36938,82890,69365
737.9,8706,36757,82856,69323
739.9,8584,36883,82714,69186
741.9,8560,36994,82582,69063
743.9,8547,37029,82502,68976
745.9,8519,37135,82414,68881
747.9,8513,37154,82314,68805
749.9,8513,37041,82216,68755
751.9,8498,37178,82061,68643
753.9,8495,37475,81877,68491
755.9,8520,37224,81847,68492
757.9,8527,36488,81980,68647
759.9,8458,36180,82013,68682
761.9,8330,36407,81862,68515
763.9,8244,36371,81770,68408
765.9,8259,35959,81831,68461
767.9,8311,35756,81842,68469
769.9,8338,35819,81744,68364
771.9,8371,35811,81681,68295
773.9,8411,35798,81638,68251
775.9,8401,35919,81505,68108
777.9,8369,36002,81372,67937
779.9,8377,35968,81353,67875
781.9,8365,35908,81351,67866
783.9,8261,35797,81271,67808
785.9,8177,35702,81161,67716
787.9,8228,35797,81066,67635
789.9,8315,35904,80990,67581
791.9,8306,35730,80964,67563
793.9,8263,35510,80957,67524
795.9,8299,35609,80887,67414
797.9,8359,35824,80788,67307
799.9,8342,35827,80742,67282
801.9,8280,35771,80704,67268
803.9,8257,35853,80612,67205
805.9,8267,35862,80543,67161
807.9,8251,35634,80544,67159
809.9,8213,35469,80509,67091
811.9,8201,35671,80365,66928
813.9,8216,35972,80219,66805
815.9,8199,35829,80199,66835
817.9,8150,35237,80283,66950
819.9,8146,34802,80352,67006
821.9,8198,34856,80329,66953
823.9,8211,34991,80254,66874
825.9,8167,34807,80220,66854
827.9,8151,34569,80233,66865
829.9,8181,34662,80208,66818
831.9,8201,34929,80115,66700
833.9,8207,35047,80010,66567
835.9,8190,35035,79930,66453
837.9,8104,34971,79888,66386
839.9,8007,34760,79904,66400
841.9,8002,34521,79929,66426
843.9,8043,34576,79852,66348
845.9,8050,34840,79715,66208
847.9,8087,34897,79699,66175
849.9,8170,34706,79814,66253
851.9,8194,34579,79869,66276
853.9,8160,34643,79787,66184
855.9,8168,34820,79673,66067
857.9,8197,35044,79611,65996
859.9,8207,35207,79604,65979
861.9,8272,35208,79640,66001
863.9,8343,35091,79673,66012
865.9,8260,34885,79663,65981
867.9,8107,34586,79654,65968
869.9,8112,34382,79678,66006
871.9,8259,34440,79667,66025
873.9,8386,34591,79598,65987
875.9,8488,34644,79559,65952
877.9,8577,34729,79559,65932
879.9,8547,34927,79496,65857
881.9,8421,34993,79401,65760
883.9,8389,34765,79436,65780
885.9,8486,34478,79577,65892
887.9,8558,34455,79592,65890
889.9,8555,34678,79437,65721
891.9,8548,34850,79324,65585
893.9,8532,34825,79340,65593
895.9,8467,34803,79351,65622
897.9,8427,34918,79340,65617
899.9,8478,34917,79469,65723
901.9,8529,34651,79714,65950
903.9,8483,34537,79807,66047
905.9,8401,34939,79645,65876
907.9,8381,35445,79462,65657
909.9,8395,35477,79463,65615
911.9,8386,35194,79549,65674
913.9,8397,35050,79570,65693
915.9,8482,35001,79572,65720
917.9,8597,34879,79590,65773
919.9,8658,34889,79518,65725
921.9,8665,35085,79380,65594
923.9,8699,35118,79381,65598
925.9,8790,34900,79522,65740
927.9,8849,34712,79548,65774
929.9,8794,34601,79386,65631
931.9,8703,34481,79222,65495
933.9,8706,34527,79163,65462
935.9,8775,34786,79158,65473
937.9,8779,34930,79183,65503
939.9,8705,34865,79232,65555
941.9,8648,34823,79247,65577
943.9,8638,34805,79202,65546
945.9,8641,34684,79127,65501
947.9,8647,34610,79030,65442
949.9,8652,34651,78906,65338
951.9,8634,34580,78784,65211
953.9,8624,34434,78663,65081
955.9,8684,34520,78497,64928
957.9,8785,34740,78329,64779
959.9,8848,34734,78273,64723
961.9,8858,34599,78282,64723
963.9,8824,34654,78182,64618
965.9,8743,34753,77989,64412
967.9,8647,34581,77916,64300
969.9,8577,34232,78014,64353
971.9,8488,33967,78107,64428
973.9,8366,33829,78096,64425
975.9,8346,33841,78054,64398
977.9,8478,34049,78027,64381
979.9,8573,34254,77963,64330
981.9,8514,34197,77842,64224
983.9,8431,33928,77728,64115
985.9,8408,33657,77682,64063
987.9,8358,33516,77671,64040
989.9,8305,33560,77625,63983
991.9,8363,33664,77576,63924
993.9,8442,33572,77590,63937
995.9,8398,33363,77611,63969
997.9,8328,33389,77567,63929
999.9,8346,33577,77539,63891
1001.9,8362,33548,77589,63946
1003.9,8343,33406,77594,63994
1005.9,8407,33582,77472,63917
1007.9,8525,33982,77364,63795
1009.9,8552,34087,77392,63765
1011.9,8518,33755,77476,63815
1013.93,8522,33330,77504,63844
1015.95,8509,33111,77495,63815
1017.98,8441,33118,77516,63778
1020.0,8416,33268,77571,63773
1022.0,8450,33475,77632,63753
1024.0,8452,33560,77729,63664
1026.0,8445,33351,77923,63560
1028.0,8493,32951,78189,63512
1030.0,8539,32666,78426,63466
1032.0,8524,32633,78622,63371
1034.0,8527,32733,78884,63337
1036.0,8629,32853,79257,63490
1038.0,8836,32999,79586,63782
1040.0,9135,33267,79680,64124
1042.0,9447,33797,79603,64592
1044.0,9620,34588,79636,65359
1046.0,9638,35445,79854,66470
1048.0,9692,36336,79952,67848
1050.0,9903,37496,79665,69437
1052.0,10183,38977,79079,71180
1054.0,10429,40447,78285,72875
1056.0,10627,41595,77112,74302
1058.0,10762,42410,75554,75461
1060.0,10808,43036,74061,76533
1062.0,10801,43590,72983,77596
1064.0,10747,44050,72076,78518
1066.0,10570,44245,70963,79061
1068.0,10248,44017,69778,79001
1070.0,9881,43385,68945,78247
1072.0,9561,42481,68595,76942
1074.0,9270,41411,68517,75313
1076.0,8912,40215,68453,73353
1078.0,8411,38859,68265,70921
1080.0,7830,37317,68022,68160
1082.0,7344,35802,67916,65461
1084.0,7024,34737,68036,63044
1086.0,6796,34288,68345,61019
1088.0,6656,34155,68859,59693
1090.0,6705,34016,69582,59272
1092.0,6924,33887,70387,59436
1094.0,7170,33799,71173,59698
1096.0,7383,33620,71975,59948
1098.0,7587,33418,72775,60290
1100.0,7764,33421,73471,60685
1102.0,7894,33491,74076,61060
1104.0,8048,33301,74658,61427
1106.0,8268,32963,75152,61749
1108.0,8462,32816,75482,61927
1110.0,8533,32819,75714,61962
1112.0,8510,32733,75919,61943
1114.0,8500,32587,76075,61935
1116.0,8568,32579,76182,61953
1118.0,8695,32761,76291,61980
1120.0,8777,32955,76383,61980
1122.0,8747,32953,76405,61947
1124.0,8712,32833,76384,61907
1126.0,8820,32860,76400,61888
1128.0,9004,32965,76482,61903
1130.0,9077,32823,76585,61939
1132.0,9019,32514,76630,61935
1134.0,8951,32440,76599,61864
1136.0,8905,32655,76562,61787
1138.0,8835,32854,76567,61766
1140.0,8775,32852,76601,61795
1142.0,8800,32711,76661,61863
1144.0,8881,32579,76747,61959
1146.0,8912,32555,76802,62018
1148.0,8897,32613,76813,62013
1150.0,8964,32696,76870,62029
1152.0,9141,32792,77017,62122
1154.0,9253,32797,77176,62241
1156.0,9186,32608,77276,62318
1158.0,9069,32430,77313,62334
1160.0,9076,32509,77321,62304
1162.0,9187,32729,77356,62288
1164.0,9287,32927,77429,62322
1166.0,9336,33141,77480,62346
1168.0,9352,33222,77514,62352
1170.0,9372,32982,77623,62428
1172.0,9449,32822,77742,62516
1174.0,9557,33191,77709,62443
1176.0,9580,33561,77644,62310
1178.0,9511,33213,77823,62423
1180.0,9515,32611,78152,62727
1182.0,9639,32656,78289,62872
1184.0,9710,33105,78245,62831
1186.0,9647,33133,78298,62888
1188.0,9592,32817,78467,63064
1190.0,9634,32839,78551,63133
1192.0,9690,33245,78536,63080
1194.0,9724,33509,78580,63104
1196.0,9811,33413,78770,63289
1198.0,9968,33245,79072,63551
1200.0,10121,33328,79364,63769
1202.0,10229,33618,79541,63899
1204.0,10295,33785,79684,64026
1206.0,10331,33697,79947,64245
1208.0,10358,33583,80289,64498
1210.0,10406,33593,80579,64683
1212.0,10479,33606,80835,64834
1214.0,10570,33614,81118,65013
1216.0,10670,33759,81377,65191
1218.0,10751,33994,81604,65358
1220.0,10822,34225,81876,65561
1222.0,10949,34546,82185,65785
1224.0,11153,34903,82470,65995
1226.0,11350,35050,82750,66211
1228.0,11466,35064,83040,66431
1230.0,11510,35171,83295,66616
1232.0,11517,35156,83536,66803
1234.0,11523,34789,83807,67036
1236.0,11571,34463,84039,67241
1238.0,11662,34575,84168,67352
1240.0,11750,34874,84233,67415
1242.0,11804,35029,84242,67447
1244.0,11825,35151,84146,67397
1246.0,11804,35338,83992,67283
1248.0,11748,35406,83875,67192
1250.0,11695,35266,83784,67141
1252.0,11665,35113,83648,67062
1254.0,11648,35175,83451,66904
1256.0,11633,35453,83217,66688
1258.0,11609,35674,82991,66495
1260.0,11567,35560,82831,66397
1262.0,11529,35198,82737,66389
1264.0,11515,34966,82607,66375
1266.0,11491,35096,82346,66225
1268.0,11425,35399,81998,65924
1270.0,11340,35440,81709,65641
1272.0,11255,35048,81533,65514
1274.0,11157,34613,81350,65431
1276.0,11066,34575,81051,65225
1278.0,11018,34790,80701,64958
1280.0,10979,34858,80415,64767
1282.0,10886,34808,80171,64617
1284.0,10764,34837,79910,64425
1286.0,10679,34782,79687,64253
1288.0,10621,34505,79542,64156
1290.0,10533,34314,79351,64027
1292.0,10423,34384,79034,63801
1294.03,10346,34367,78748,63619
1296.05,10333,34082,78634,63595
1298.08,10359,33891,78571,63614
1300.1,10382,33968,78428,63544
1302.1,10387,33982,78290,63453
1304.1,10380,33803,78222,63413
1306.1,10366,33686,78128,63368
1308.1,10332,33655,77984,63291
1310.1,10282,33547,77881,63239
1312.1,10240,33533,77797,63190
1314.1,10211,33819,77647,63082
1316.1,10181,34153,77486,62962
1318.1,10152,34262,77390,62898
1320.1,10129,34271,77305,62860
1322.1,10089,34239,77217,62829
1324.1,10028,33949,77234,62861
1326.1,10005,33471,77344,62950
1328.1,10042,33212,77369,62980
1330.1,10057,33280,77253,62912
1332.1,10016,33385,77149,62857
1334.1,10011,33335,77162,62907
1336.1,10087,33194,77218,63008
1338.1,10150,33099,77221,63055
1340.1,10143,33150,77178,63030
1342.1,10121,33266,77148,62995
1344.1,10119,33276,77133,62964
1346.1,10133,33321,77059,62886
1348.1,10181,33688,76880,62737
1350.1,10245,34099,76693,62607
1352.1,10253,33973,76646,62608
1354.1,10204,33448,76719,62716
1356.1,10180,33173,76759,62789
1358.1,10188,33229,76731,62768
1360.1,10156,33237,76718,62722
1362.1,10086,33184,76702,62685
1364.1,10032,33237,76601,62623
1366.1,9979,33251,76476,62551
1368.1,9893,33114,76446,62529
1370.1,9828,33003,76463,62536
1372.1,9822,33014,76398,62497
1374.1,9822,33082,76257,62401
1376.1,9834,33211,76159,62322
1378.1,9926,33311,76152,62329
1380.1,10016,33202,76172,62387
1382.1,9966,33010,76136,62384
1384.1,9884,32990,76054,62310
1386.1,9959,32992,76015,62285
1388.1,10091,32823,76029,62326
1390.1,10071,32760,75981,62274
1392.1,9954,32959,75838,62101
1394.1,9901,33053,75737,61994
1396.1,9888,32876,75745,62017
1398.1,9815,32721,75757,62029
1400.1,9710,32618,75725,61987
1402.1,9662,32342,75729,61996
1404.1,9697,32063,75770,62044
1406.1,9772,32093,75748,62012
1408.1,9834,32290,75657,61914
1410.1,9876,32391,75591,61846
1412.1,9920,32478,75549,61796
1414.1,9940,32696,75452,61693
1416.1,9895,32939,75310,61568
1418.1,9839,33005,75245,61532
1420.1,9852,32831,75295,61611
1422.1,9906,32561,75338,61695
1424.1,9905,32397,75278,61677
1426.1,9811,32325,75199,61597
1428.1,9660,32203,75180,61532
1430.1,9518,32098,75130,61451
1432.1,9445,32121,75001,61343
1434.1,9454,32109,74943,61314
1436.1,9502,31978,75015,61394
1438.1,9568,32015,75056,61441
1440.1,9689,32313,75009,61413
1442.1,9860,32494,75022,61433
1444.1,9989,32402,75106,61504
1446.1,10015,32369,75096,61489
1448.1,10002,32495,75002,61402
1450.1,10027,32450,74986,61385
1452.1,10071,32147,75050,61438
1454.1,10098,31918,75066,61466
1456.1,10135,31964,75019,61459
1458.1,10177,32134,74963,61430
1460.1,10139,32204,74901,61346
1462.1,9993,32112,74839,61239
1464.1,9835,31975,74808,61184
1466.1,9787,31961,74807,61167
1468.1,9887,32083,74813,61141
1470.1,10049,32216,74831,61140
1472.1,10135,32317,74837,61168
1474.1,10101,32424,74775,61144
1476.1,10035,32494,74660,61051
1478.1,10018,32507,74588,60989
1480.1,10035,32565,74595,60997
1482.1,10052,32652,74631,61024
1484.1,10061,32548,74662,61061
1486.1,10031,32196,74696,61130
1488.1,9964,31893,74701,61173
1490.1,9925,31886,74644,61122
1492.1,9941,32012,74598,61049
1494.1,9958,31936,74660,61079
1496.1,9943,31648,74776,61187
1498.1,9903,31489,74788,61219
1500.1,9856,31654,74662,61113
1502.1,9840,31928,74526,60976
1504.1,9884,32049,74480,60917
1506.1,9944,32041,74495,60916
1508.1,9962,32001,74511,60914
1510.1,9956,31891,74535,60926
1512.1,9965,31746,74584,60969
1514.1,9982,31762,74614,60989
1516.1,9986,31952,74595,60967
1518.1,9982,32029,74587,60974
1520.1,9976,31834,74649,61048
1522.1,9975,31603,74718,61106
1524.1,9978,31584,74711,61087
1526.1,9981,31690,74657,61047
1528.1,10009,31821,74614,61013
1530.1,10087,32137,74548,60915
1532.1,10155,32638,74447,60769
1534.1,10125,32895,74424,60735
1536.1,10023,32624,74573,60897
1538.1,9963,32117,74837,61159
1540.1,9988,31833,75073,61377
1542.1,10040,31929,75180,61469
1544.1,10069,32299,75156,61430
1546.1,10077,32629,75111,61355
1548.1,10077,32538,75176,61386
1550.1,10080,32098,75339,61530
1552.1,10126,31878,75444,61638
1554.1,10219,32081,75422,61635
1556.1,10285,32238,75375,61610
1558.1,10277,32094,75352,61620
1560.1,10257,31981,75289,61607
1562.1,10281,32042,75218,61569
1564.1,10324,32014,75227,61568
1566.1,10348,31929,75213,61545
1568.1,10348,32064,75059,61435
1570.1,10325,32265,74918,61368
1572.1,10281,32251,74948,61445
1574.1,10231,32286,74998,61501
1576.1,10185,32666,74929,61415
1578.1,10167,33045,74888,61353
1580.1,10208,32975,74975,61458
1582.1,10273,32585,75068,61612
1584.13,10319,32292,75101,61688
1586.15,10403,32318,75108,61694
1588.18,10548,32594,75042,61633
1590.2,10621,32792,74882,61520
1592.2,10551,32637,74738,61445
1594.2,10465,32324,74658,61419
1596.2,10446,32194,74595,61363
1598.2,10409,32170,74558,61288
1600.2,10332,32059,74548,61247
1602.2,10316,31970,74485,61194
1604.2,10355,31944,74391,61110
1606.2,10318,31798,74396,61080
1608.2,10182,31633,74465,61101
1610.2,10063,31740,74453,61069
1612.2,10028,31989,74394,61012
1614.2,10051,32037,74416,61041
1616.2,10088,31923,74483,61110
1618.2,10082,31838,74468,61081
1620.2,9997,31747,74360,60949
1622.2,9893,31652,74221,60806
1624.2,9850,31637,74125,60717
1626.2,9831,31525,74149,60723
1628.2,9781,31206,74251,60805
1630.2,9757,31101,74255,60823
1632.2,9803,31485,74110,60702
1634.2,9852,31844,74010,60599
1636.2,9878,31712,74086,60666
1638.2,9942,31488,74205,60801
1640.2,10014,31638,74203,60822
1642.2,9996,31845,74131,60749
1644.2,9935,31676,74139,60729
1646.2,9964,31367,74254,60801
1648.2,10057,31305,74364,60877
1650.2,10075,31330,74373,60901
1652.2,10021,31155,74346,60928
1654.2,10016,30993,74401,61005
1656.2,10067,31161,74525,61062
1658.2,10052,31402,74638,61042
1660.2,9938,31282,74776,61008
1662.2,9852,30981,74981,60990
1664.2,9875,30963,75170,60904
1666.2,9923,31128,75317,60757
1668.2,9898,31092,75543,60692
1670.2,9824,30976,75852,60738
1672.2,9802,31119,76127,60817
1674.2,9925,31339,76406,61017
1676.2,10233,31284,76742,61462
1678.2,10654,31201,76946,62037
1680.2,11036,31585,76949,62632
1682.2,11309,32402,77099,63452
1684.2,11554,33342,77538,64668
1686.2,11849,34426,77817,66110
1688.2,12163,35740,77611,67622
1690.2,12464,37035,77181,69263
1692.2,12748,38128,76668,70900
1694.2,12945,39209,75738,72157
1696.2,12965,40364,74349,72993
1698.2,12884,41292,73089,73812
1700.2,12866,41760,72322,74849
1702.2,12884,41898,71674,75822
1704.2,12736,41896,70677,76208
1706.2,12363,41698,69444,75700
1708.2,11919,41083,68454,74448
1710.2,11505,39992,67967,72865
1712.2,11031,38651,67780,71098
1714.2,10394,37307,67495,68918
1716.2,9663,36009,66984,66276
1718.2,9015,34839,66506,63569
1720.2,8526,33980,66337,61210
1722.2,8114,33361,66464,59372
1724.2,7762,32726,66769,58187
1726.2,7640,32165,67254,57721
1728.2,7859,31988,67941,57743
1730.2,8250,32094,68743,57887
1732.2,8589,32061,69565,58037
1734.2,8839,31768,70390,58299
1736.2,9037,31435,71195,58722
1738.2,9156,31203,71907,59201
1740.2,9213,31036,72491,59607
1742.2,9300,30909,72974,59882
1744.2,9438,30870,73366,60028
1746.2,9561,30930,73648,60074
1748.2,9618,30984,73847,60066
1750.2,9616,30889,74002,60049
1752.2,9608,30679,74109,60050
1754.2,9652,30605,74181,60082
1756.2,9729,30790,74261,60139
1758.2,9768,31014,74348,60202
1760.2,9793,31097,74376,60240
1762.2,9882,31223,74331,60215
1764.2,10001,31477,74292,60136
1766.2,10049,31497,74364,60109
1768.2,10046,31137,74541,60193
1770.2,10059,30931,74662,60247
1772.2,10063,31206,74633,60162
1774.2,10009,31418,74634,60112
1776.2,9946,31104,74850,60273
1778.2,9947,30700,75133,60497
1780.2,10006,30677,75253,60595
1782.2,10067,30739,75286,60664
1784.2,10092,30593,75409,60815
1786.2,10090,30577,75542,60909
1788.2,10077,30885,75537,60842
1790.2,10039,31057,75480,60760
1792.2,9999,30848,75521,60802
1794.2,10057,30732,75619,60892
1796.2,10229,31014,75683,60936
1798.2,10354,31280,75765,60995
1800.2,10317,31231,75909,61106
1802.2,10231,31239,75987,61133
1804.2,10219,31566,75916,60998
1806.2,10238,31783,75865,60896
1808.2,10220,31526,75987,61011
1810.2,10206,31167,76151,61197
1812.2,10221,31129,76207,61257
1814.2,10224,31193,76257,61285
1816.2,10211,31093,76413,61419
1818.2,10238,31075,76571,61561
1820.2,10302,31290,76644,61609
1822.2,10347,31438,76707,61652
1824.2,10374,31463,76798,61749
1826.2,10440,31670,76872,61851
1828.2,10537,31981,76952,61957
1830.2,10601,32026,77086,62106
1832.2,10612,31809,77272,62293
1834.2,10607,31511,77538,62543
1836.2,10623,31172,77884,62854
1838.2,10669,31045,78152,63086
1840.2,10752,31373,78262,63160
1842.2,10886,31751,78413,63262
1844.2,11066,31704,78751,63523
1846.2,11224,31537,79099,63778
1848.2,11291,31685,79286,63878
1850.2,11298,31900,79436,63959
1852.2,11334,31867,79686,64161
1854.2,11420,31824,79968,64407
1856.2,11523,32013,80211,64608
1858.2,11640,32283,80460,64798
1860.2,11763,32486,80707,64991
1862.2,11881,32651,80908,65161
1864.23,12025,32790,81136,65358
1866.25,12198,32980,81434,65592
1868.28,12329,33374,81657,65746
1870.3,12418,33839,81749,65808
1872.3,12545,34010,81891,65944
1874.3,12668,33867,82154,66180
1876.3,12697,33775,82362,66353
1878.3,12709,33915,82450,66430
1880.3,12821,34150,82527,66505
1882.3,12941,34323,82604,66553
1884.3,12929,34313,82626,66524
1886.3,12828,34083,82634,66495
1888.3,12746,33852,82638,66491
1890.3,12703,33844,82550,66425
1892.3,12661,33940,82381,66296
1894.3,12579,34019,82192,66149
1896.3,12446,34210,81953,65934
1898.3,12311,34373,81699,65691
1900.3,12209,34076,81578,65581
1902.3,12099,33501,81538,65560
1904.3,11986,33380,81358,65400
1906.3,11952,33744,81054,65114
1908.3,11984,33888,80842,64920
1910.3,11984,33677,80722,64826
1912.3,11982,33704,80526,64668
1914.3,12094,34102,80265,64468
1916.3,12243,34330,80068,64351
1918.3,12210,34181,79891,64258
1920.3,11994,34070,79600,64042
1922.3,11823,34227,79238,63741
1924.3,11779,34328,78954,63515
1926.3,11718,34062,78785,63407
1928.3,11572,33542,78678,63358
1930.3,11445,33030,78621,63353
1932.3,11385,32675,78576,63367
1934.3,11315,32580,78444,63312
1936.3,11220,32720,78222,63177
1938.3,11157,32846,78038,63073
1940.3,11124,32778,77936,63048
1942.3,11074,32642,77841,63016
1944.3,11006,32599,77723,62933
1946.3,10940,32609,77618,62843
1948.3,10884,32604,77514,62764
1950.3,10845,32601,77391,62685
1952.3,10822,32596,77280,62619
1954.3,10792,32568,77207,62581
1956.3,10739,32553,77145,62542
1958.3,10681,32560,77073,62481
1960.3,10624,32518,77009,62415
1962.3,10528,32402,76958,62366
1964.3,10371,32285,76890,62317
1966.3,10226,32213,76806,62258
1968.3,10205,32132,76776,62245
1970.3,10293,32034,76826,62309
1972.3,10372,32059,76847,62357
1974.3,10415,32296,76761,62311
1976.3,10486,32560,76657,62247
1978.3,10570,32652,76626,62241
1980.3,10614,32673,76614,62223
1982.3,10640,32722,76587,62172
1984.3,10666,32612,76615,62197
1986.3,10650,32351,76668,62268
1988.3,10599,32379,76585,62193
1990.3,10555,32749,76379,61981
1992.3,10497,32843,76272,61884
1994.3,10408,32417,76332,61973
1996.3,10339,32029,76381,62055
1998.3,10307,32033,76311,62025
2000.3,10265,32090,76217,61973
2002.3,10199,31914,76188,61957
2004.3,10149,31690,76187,61945
2006.3,10137,31648,76159,61917
2008.3,10143,31785,76101,61872
2010.3,10137,31979,76023,61798
2012.3,10156,32183,75932,61700
2014.3,10265,32467,75838,61598
2016.3,10411,32773,75781,61526
2018.3,10448,32835,75783,61519
2020.3,10346,32630,75780,61547
2022.3,10216,32529,75683,61510
2024.3,10130,32609,75550,61411
2026.3,10072,32419,75544,61404
2028.3,10045,31796,75693,61559
2030.3,10062,31217,75850,61730
2032.3,10080,31049,75891,61764
2034.3,10059,31176,75815,61671
2036.3,10026,31408,75677,61531
2038.3,10014,31634,75530,61378
2040.3,10002,31699,75419,61238
2042.3,9987,31621,75361,61160
2044.3,10013,31641,75348,61149
2046.3,10063,31813,75333,61137
2048.3,10043,31948,75252,61058
2050.3,9941,31984,75114,60939
2052.3,9828,31903,75027,60872
2054.3,9723,31574,75059,60902
2056.3,9631,31132,75146,60989
2058.3,9661,31038,75198,61067
2060.3,9843,31379,75185,61095
2062.3,9980,31710,75111,61061
2064.3,9928,31752,75022,60998
2066.3,9833,31615,75015,60990
2068.3,9866,31422,75107,61067
2070.3,9954,31327,75157,61107
2072.3,9962,31573,75033,60975
2074.3,9922,32055,74813,60751
2076.3,9913,32283,74676,60635
2078.3,9903,32070,74675,60670
2080.3,9859,31752,74729,60730
2082.3,9844,31631,74757,60747
2084.3,9882,31671,74739,60740
2086.3,9870,31700,74711,60724
2088.3,9767,31595,74727,60716
2090.3,9679,31395,74769,60727
2092.3,9684,31288,74759,60719
2094.3,9726,31306,74718,60687
2096.3,9735,31282,74733,60691
2098.3,9711,31229,74746,60699
2100.3,9677,31300,74659,60623
2102.3,9657,31413,74553,60519
2104.3,9670,31485,74516,60474
2106.3,9709,31700,74463,60423
2108.3,9763,31982,74385,60348
2110.3,9822,31922,74412,60373
2112.3,9844,31634,74492,60475
2114.3,9820,31686,74451,60476
2116.3,9834,31990,74378,60412
2118.3,9931,31972,74456,60463
2120.3,9995,31688,74579,60579
2122.3,9912,31566,74577,60598
2124.3,9754,31518,74549,60563
2126.3,9659,31344,74591,60569
2128.3,9624,31313,74572,60525
2130.3,9571,31551,74442,60381
2132.3,9499,31632,74388,60301
2134.3,9446,31347,74486,60362
2136.3,9410,31140,74535,60381
2138.3,9411,31361,74414,60253
2140.3,9493,31702,74299,60158
2142.3,9617,31778,74332,60210
2144.3,9688,31798,74373,60232
2146.3,9706,32108,74296,60112
2148.3,9719,32442,74232,60022
2150.3,9717,32339,74305,60094
2152.4,9696,31978,74409,60220
2154.4,9692,31787,74440,60298
2156.4,9672,31675,74456,60369
2158.4,9592,31433,74489,60432
2160.4,9546,31313,74488,60438
2162.4,9630,31477,74476,60438
2164.4,9746,31603,74507,60481
2166.4,9746,31624,74505,60466
2168.4,9675,31917,74383,60329
2170.4,9674,32406,74258,60214
2172.4,9760,32559,74267,60235
2174.4,9823,32409,74304,60245
2176.4,9790,32374,74229,60130
2178.4,9702,32266,74200,60091
2180.4,9655,31753,74412,60295
2182.4,9680,31309,74676,60521
2184.4,9705,31450,74733,60538
2186.4,9667,31794,74709,60489
2188.4,9623,31914,74807,60561
2190.4,9666,32074,74907,60644
2192.4,9763,32387,74875,60636
2194.4,9792,32439,74864,60653
2196.4,9748,32154,74977,60757
2198.4,9744,31969,75077,60845
2200.4,9809,32125,75057,60847
2202.4,9860,32492,74956,60776
2204.4,9854,32764,74854,60685
2206.4,9832,32601,74838,60694
2208.4,9837,32138,74906,60806
2210.4,9882,32042,74895,60808
2212.4,9954,32462,74741,60632
2214.4,10020,32744,74647,60531
2216.4,10064,32642,74722,60625
2218.4,10094,32678,74794,60706
2220.4,10080,32994,74762,60668
2222.4,10001,33117,74783,60686
2224.4,9933,32939,74947,60848
2226.4,9953,32814,75101,61010
2228.4,9990,32850,75062,61039
2230.4,9937,32913,74833,60933
2232.4,9833,32977,74587,60776
2234.4,9796,32979,74488,60685
2236.4,9825,32790,74506,60686
2238.4,9836,32561,74467,60657
2240.4,9832,32595,74312,60508
2242.4,9888,32854,74168,60344
2244.4,9983,33027,74142,60309
2246.4,9997,32972,74192,60388
2248.4,9913,32735,74234,60465
2250.4,9867,32431,74235,60473
2252.4,9919,32251,74205,60425
2254.4,9934,32236,74201,60390
2256.4,9811,32163,74277,60421
2258.4,9656,32021,74350,60454
2260.4,9614,32126,74297,60399
2262.4,9653,32396,74205,60334
2264.4,9648,32332,74223,60368
2266.4,9556,31991,74245,60376
2268.4,9441,31894,74104,60211
2270.4,9372,31976,73940,60036
2272.4,9359,31848,73961,60046
2274.4,9371,31791,74033,60087
2276.4,9392,32220,73942,59966
2278.4,9414,32690,73779,59826
2280.4,9402,32570,73749,59864
2282.4,9334,32086,73855,60012
2284.4,9261,31842,73988,60128
2286.4,9265,31975,74072,60182
2288.4,9356,32249,74075,60183
2290.4,9472,32387,74061,60171
2292.4,9550,32233,74126,60212
2294.4,9557,31992,74207,60267
2296.4,9493,32010,74183,60236
2298.4,9382,32124,74133,60184
2300.4,9268,31907,74196,60233
2302.4,9218,31527,74308,60334
2304.4,9279,31505,74382,60397
2306.4,9396,31776,74505,60462
2308.4,9462,31899,74730,60533
2310.4,9458,31828,74956,60505
2312.4,9427,31752,75131,60389
2314.4,9370,31673,75332,60322
2316.4,9291,31626,75592,60327
2318.4,9253,31710,75885,60355
2320.4,9287,31818,76202,60456
2322.4,9383,31891,76503,60682
2324.4,9599,32096,76696,60979
2326.4,9967,32377,76792,61383
2328.4,10339,32566,76957,62077
2330.4,10559,33029,77311,63124
2332.4,10707,34175,77732,64388
2334.4,10960,35625,77943,65802
2336.4,11327,36895,77801,67402
2338.4,11682,38214,77383,69095
2340.4,11928,39709,76726,70658
2342.4,12062,40835,75700,71975
2344.4,12132,41329,74355,73110
2346.4,12163,41629,73117,74176
2348.4,12119,41992,72290,75206
2350.4,11939,42202,71609,76051
2352.4,11618,42122,70637,76337
2354.4,11223,41793,69385,75707
2356.4,10833,41189,68260,74242
2358.4,10445,40297,67596,72413
2360.4,9962,39154,67375,70487
2362.4,9326,37791,67229,68253
2364.4,8646,36398,66799,65564
2366.4,8086,35235,66219,62799
2368.4,7672,34289,65986,60475
2370.4,7348,33492,66246,58735
2372.4,7163,33097,66656,57514
2374.4,7194,33213,67031,56858
2376.4,7373,33355,67582,56784
2378.4,7581,33144,68398,57048
2380.4,7820,32896,69223,57336
2382.4,8094,32914,69905,57566
2384.4,8315,32939,70574,57864
2386.4,8477,32824,71272,58291
2388.4,8680,32857,71825,58711
2390.4,8885,33015,72173,58980
2392.4,8960,32846,72494,59135
2394.4,8975,32359,72923,59316
2396.4,9074,32074,73375,59527
2398.4,9197,32124,73685,59658
2400.4,9242,32178,73825,59702
2402.4,9280,32104,73948,59781
2404.4,9349,32005,74169,59934
2406.4,9357,31921,74384,60036
2408.4,9318,31920,74433,60006
2410.4,9330,32070,74373,59919
2412.4,9367,32205,74373,59863
2414.4,9374,32165,74457,59849
2416.4,9382,32049,74544,59874
2418.4,9366,31916,74602,59945
2420.4,9281,31745,74647,60024
2422.4,9245,31808,74679,60059
2424.4,9346,32279,74719,60062
2426.4,9424,32606,74827,60116
2428.4,9349,32308,75006,60263
2430.4,9282,31970,75121,60376
2432.4,9362,32269,75070,60315
2434.43,9480,32717,75014,60207
2436.45,9536,32600,75188,60303
2438.48,9604,32222,75522,60572
2440.5,9709,32124,75754,60759
2442.5,9756,32129,75852,60812
2444.5,9744,32024,75955,60864
2446.5,9765,32083,76054,60923
2448.5,9805,32354,76066,60915
2450.5,9774,32425,76064,60897
2452.5,9692,32188,76136,60950
2454.5,9639,32021,76204,61014
2456.5,9615,32152,76168,61009
2458.5,9607,32394,76083,60975
2460.5,9650,32508,76077,61020
2462.5,9723,32510,76160,61182
2464.5,9745,32597,76233,61374
2466.5,9732,32853,76252,61483
2468.5,9774,33111,76271,61508
2470.5,9872,33247,76330,61547
2472.5,9961,33362,76415,61655
2474.5,10001,33453,76544,61821
2476.5,9984,33295,76753,62034
2478.5,9941,32906,77002,62268
2480.5,9960,32672,77200,62454
2482.5,10084,32832,77326,62561
2484.5,10248,33278,77440,62633
2486.5,10371,33787,77583,62717
2488.5,10433,34064,77766,62836
2490.5,10467,33923,78015,63018
2492.5,10536,33659,78336,63264
2494.5,10664,33686,78688,63533
2496.5,10796,33859,79015,63790
2498.5,10899,33859,79291,64024
2500.5,11012,33836,79548,64238
2502.5,11125,33968,79885,64499
2504.5,11163,34027,80348,64871
2506.5,11134,33970,80808,65259
2508.5,11147,34185,81109,65504
2510.5,11273,34737,81305,65651
2512.5,11488,35149,81576,65899
2514.5,11705,35148,81974,66292
2516.5,11854,35059,82376,66650
2518.5,11955,35291,82660,66834
2520.5,12079,35766,82833,66914
2522.5,12221,36036,83006,67050
2524.5,12303,35933,83249,67277
2526.5,12302,35830,83491,67495
2528.5,12274,36015,83635,67624
2530.5,12257,36195,83714,67682
2532.5,12237,36035,83818,67741
2534.5,12205,35759,83924,67821
2536.5,12170,35735,83919,67854
2538.5,12142,35905,83774,67773
2540.5,12122,36027,83583,67627
2542.5,12093,36043,83433,67517
2544.5,12028,35967,83321,67440
2546.5,11941,35823,83203,67312
2548.5,11884,35775,83023,67106
2550.5,11850,35927,82769,66876
2552.5,11774,36045,82542,66701
2554.5,11654,35879,82424,66608
2556.5,11572,35582,82298,66510
2558.5,11551,35465,82023,66307
2560.5,11513,35528,81705,66050
2562.5,11414,35539,81495,65841
2564.5,11320,35435,81310,65638
2566.5,11281,35387,81030,65374
2568.5,11251,35457,80750,65140
2570.5,11167,35449,80564,65030
2572.5,11064,35231,80377,64947
2574.5,11009,35021,80103,64764
2576.5,10979,35056,79813,64525
2578.5,10882,35179,79596,64353
2580.5,10721,35113,79443,64269
2582.5,10597,34956,79302,64175
2584.5,10546,34971,79135,64011
2586.5,10494,35071,78964,63858
2588.5,10426,34969,78862,63826
2590.5,10403,34705,78838,63869
2592.5,10410,34586,78789,63827
2594.5,10364,34653,78659,63680
2596.5,10282,34641,78529,63561
2598.5,10227,34496,78441,63510
2600.5,10180,34464,78313,63432
2602.5,10127,34591,78141,63333
2604.5,10127,34632,78086,63348
2606.5,10166,34521,78182,63472
2608.5,10184,34448,78220,63518
2610.5,10232,34427,78098,63428
2612.5,10316,34270,77985,63359
2614.5,10276,33989,77988,63384
2616.5,10085,33798,77968,63373
2618.5,9973,33818,77838,63247
2620.5,10029,34088,77683,63078
2622.5,10061,34571,77539,62933
2624.5,9974,34962,77396,62827
2626.5,9896,34912,77348,62811
2628.5,9892,34535,77462,62916
2630.5,9919,34204,77629,63085
2632.5,9960,33969,77711,63198
2634.5,9998,33725,77684,63167
2636.5,9986,33617,77584,63043
2638.5,9931,33720,77480,62991
2640.5,9870,33764,77434,63045
2642.5,9832,33667,77408,63044
2644.5,9869,33799,77296,62898
2646.5,9975,34313,77088,62689
2648.5,10008,34755,76903,62494
2650.5,9912,34666,76869,62396
2652.5,9851,34188,76993,62515
2654.5,9902,33820,77118,62760
2656.5,9914,33778,77108,62855
2658.5,9831,33848,77015,62756
2660.5,9814,33832,76946,62661
2662.5,9898,33818,76874,62615
2664.5,9910,33847,76789,62546
2666.5,9789,33757,76779,62515
2668.5,9671,33635,76798,62536
2670.5,9638,33819,76682,62449
2672.5,9647,34207,76482,62259
2674.5,9679,34283,76453,62218
2676.5,9726,33987,76610,62366
2678.5,9718,33748,76663,62416
2680.5,9634,33679,76487,62250
2682.5,9573,33582,76313,62099
2684.5,9602,33527,76315,62113
2686.5,9644,33637,76348,62141
2688.5,9606,33661,76274,62066
2690.5,9500,33447,76216,62001
2692.5,9402,33326,76245,61991
2694.5,9365,33516,76206,61891
2696.5,9400,33775,76042,61687
2698.5,9467,33905,75936,61573
2700.5,9495,33937,75974,61631
2702.5,9463,33825,76014,61705
2704.5,9450,33614,75954,61664
2706.5,9527,33548,75875,61587
2708.5,9628,33600,75884,61614
2710.5,9635,33510,75930,61707
2712.5,9558,33431,75876,61699
2714.53,9497,33623,75745,61592
2716.55,9488,33761,75700,61560
2718.58,9514,33543,75742,61595
2720.6,9567,33352,75720,61534
2722.6,9578,33443,75654,61439
2724.6,9481,33491,75646,61461
2726.6,9405,33495,75609,61479
2728.6,9497,33792,75474,61369
2730.6,9599,34098,75412,61302
2732.6,9521,33928,75487,61370
2734.6,9435,33602,75529,61399
2736.6,9516,33518,75523,61363
2738.6,9531,33322,75606,61396
2740.6,9307,32864,75659,61381
2742.6,9120,32711,75504,61173
2744.6,9187,32995,75338,61011
2746.6,9300,33113,75415,61131
2748.6,9295,32902,75594,61336
2750.6,9317,32824,75645,61376
2752.6,9465,33042,75617,61309
2754.6,9624,33344,75600,61232
2756.6,9684,33654,75532,61118
2758.6,9647,33894,75416,61013
2760.6,9576,33865,75378,61018
2762.6,9564,33606,75444,61106
2764.6,9621,33370,75532,61192
2766.6,9648,33205,75601,61261
2768.6,9627,33038,75648,61312
2770.6,9634,32957,75652,61326
2772.6,9651,33003,75622,61329
2774.6,9598,33035,75591,61345
2776.6,9538,33041,75552,61332
2778.6,9576,33179,75489,61270
2780.6,9645,33411,75427,61202
2782.6,9606,33538,75384,61142
2784.6,9472,33543,75352,61064
2786.6,9385,33506,75344,61011
2788.6,9403,33347,75368,61035
2790.6,9425,33034,75385,61080
2792.6,9370,32805,75368,61079
2794.6,9294,32873,75330,61046
2796.6,9280,33095,75270,61007
2798.6,9301,33178,75208,60970
2800.6,9314,33080,75211,60963
2802.6,9353,33049,75269,60982
2804.6,9458,33216,75292,60976
2806.6,9580,33361,75288,60990
2808.6,9626,33240,75358,61104
2810.6,9560,32959,75474,61234
2812.6,9439,32812,75495,61218
2814.6,9339,32959,75366,61051
2816.6,9306,33379,75158,60831
2818.6,9363,33869,74992,60651
2820.6,9485,34089,74985,60626
2822.6,9561,33895,75147,60798
2824.6,9524,33489,75340,61019
2826.6,9449,33119,75466,61134
2828.6,9429,32961,75552,61163
2830.6,9446,33228,75615,61152
2832.6,9471,33841,75627,61084
2834.6,9502,34241,75637,61020
2836.6,9512,34079,75709,61064
2838.6,9509,33746,75813,61201
2840.6,9562,33713,75887,61316
2842.6,9651,33852,75921,61345
2844.6,9654,33786,75945,61330
2846.6,9569,33523,76002,61362
2848.6,9535,33450,76053,61426
2850.6,9612,33811,75972,61400
2852.6,9725,34265,75788,61307
2854.6,9806,34203,75738,61345
2856.6,9820,33636,75854,61498
2858.6,9748,33253,75875,61496
2860.6,9678,33395,75743,61313
2862.6,9757,33660,75702,61234
2864.6,9929,33744,75786,61326
2866.6,9963,33853,75770,61354
2868.6,9826,34053,75668,61270
2870.6,9714,34062,75704,61263
2872.6,9681,33853,75821,61339
2874.6,9623,33762,75781,61328
2876.6,9570,33878,75629,61259
2878.6,9628,33916,75596,61313
2880.6,9712,33734,75692,61462
2882.6,9688,33499,75721,61496
2884.6,9586,33385,75572,61322
2886.6,9492,33395,75317,61054
2888.6,9450,33446,75109,60856
2890.6,9501,33490,75043,60805
2892.6,9621,33599,75082,60866
2894.6,9693,33827,75129,60945
2896.6,9689,33982,75144,60958
2898.6,9678,33823,75118,60895
2900.6,9639,33471,75044,60813
2902.6,9515,33270,74972,60777
2904.6,9408,33296,74969,60798
2906.6,9438,33348,74998,60832
2908.6,9529,33302,74977,60847
2910.6,9549,33216,74923,60833
2912.6,9523,33196,74891,60772
2914.6,9518,33299,74870,60678
2916.6,9476,33431,74821,60601
2918.6,9316,33413,74741,60548
2920.6,9123,33182,74691,60503
2922.6,9065,32837,74740,60515
2924.6,9129,32523,74844,60600
2926.6,9145,32369,74865,60645
2928.6,9054,32429,74802,60587
2930.6,8975,32599,74804,60535
2932.6,8980,32751,74874,60548
2934.6,9036,32910,74847,60550
2936.6,9132,33133,74742,60530
2938.6,9236,33317,74732,60539
2940.6,9237,33335,74800,60533
2942.6,9168,33240,74800,60481
2944.6,9234,33180,74761,60484
2946.6,9425,33166,74785,60557
2948.6,9501,33103,74836,60588
2950.6,9475,33051,74880,60586
2952.6,9539,33232,74969,60603
2954.6,9589,33588,75080,60519
2956.6,9445,33624,75203,60323
2958.6,9285,33045,75491,60307
2960.6,9264,32302,75978,60538
2962.6,9159,32040,76369,60628
2964.6,8912,32259,76485,60402
2966.6,8863,32520,76578,60239
2968.6,9108,32674,76873,60419
2970.6,9336,32842,77198,60760
2972.6,9424,32995,77348,61129
2974.6,9552,33152,77453,61714
2976.6,9760,33673,77731,62655
2978.6,9978,34782,78123,63904
2980.6,10265,36123,78324,65421
2982.6,10637,37314,78115,67159
2984.6,10951,38507,77543,68968
2986.6,11129,39875,76731,70716
2988.6,11220,41087,75603,72316
2990.6,11249,41811,74112,73659
2992.6,11248,42243,72629,74745
2994.63,11269,42667,71583,75705
2996.65,11248,42964,70803,76496
2998.68,11056,42895,69793,76792
3000.7,10743,42476,68522,76304
3002.7,10456,41839,67402,75053
3004.7,10167,40980,66733,73335
3006.7,9763,39815,66508,71431
3008.7,9294,38426,66450,69230
3010.7,8839,37095,66131,66435
3012.7,8321,36022,65501,63273
3014.7,7716,35147,65108,60485
3016.7,7227,34409,65356,58432
3018.7,7036,33978,65942,56899
3020.7,7077,33951,66482,55858
3022.7,7206,33985,67134,55620
3024.7,7386,33643,68137,56125
3026.7,7637,33074,69272,56811
3028.7,7927,32872,70184,57291
3030.7,8182,33109,70897,57661
3032.7,8363,33109,71626,58130
3034.7,8491,32554,72361,58655
3036.7,8599,32100,72924,59037
3038.7,8694,32313,73282,59211
3040.7,8784,32762,73570,59307
3042.7,8867,32814,73879,59440
3044.7,8921,32586,74175,59558
3046.7,8970,32490,74365,59565
3048.7,9045,32540,74426,59509
3050.7,9077,32569,74476,59503
3052.7,9030,32581,74620,59549
3054.7,9043,32607,74761,59546
3056.7,9145,32620,74769,59465
3058.7,9145,32637,74730,59386
3060.7,9032,32654,74808,59381
3062.7,9037,32547,74990,59473
3064.7,9154,32262,75159,59625
3066.7,9147,31998,75264,59742
3068.7,9080,31997,75314,59770
3070.7,9187,32211,75341,59786
3072.7,9366,32387,75387,59852
3074.7,9387,32456,75457,59906
3076.7,9354,32540,75526,59927
3078.7,9438,32636,75614,59999
3080.7,9530,32652,75741,60115
3082.7,9536,32681,75843,60134
3084.7,9594,32832,75849,60017
3086.7,9713,32949,75800,59876
3088.7,9684,32907,75808,59800
3090.7,9468,32844,75914,59791
3092.7,9280,32831,76058,59854
3094.7,9259,32752,76163,59988
3096.7,9365,32655,76214,60150
3098.7,9529,32684,76249,60292
3100.7,9673,32725,76295,60400
3102.7,9711,32664,76314,60441
3104.7,9655,32695,76263,60394
3106.7,9582,32881,76206,60344
3108.7,9537,32933,76264,60435
3110.7,9561,32846,76407,60664
3112.7,9686,33016,76480,60857
3114.7,9822,33441,76464,60914
3116.7,9847,33680,76477,60912
3118.7,9821,33701,76541,60923
3120.7,9858,33791,76595,60956
3122.7,9894,33792,76683,61054
3124.7,9839,33495,76855,61216
3126.7,9793,33320,77025,61329
3128.7,9881,33558,77174,61386
3130.7,10044,33701,77430,61551
3132.7,10179,33437,77794,61850
3134.7,10284,33296,78079,62107
3136.7,10360,33581,78245,62259
3138.7,10338,33831,78436,62389
3140.7,10212,33803,78709,62500
3142.7,10128,33865,79012,62589
3144.7,10225,34168,79352,62768
3146.7,10438,34372,79783,63099
3148.7,10595,34275,80280,63486
3150.7,10677,34137,80742,63819
3152.7,10803,34263,81102,64090
3154.7,10968,34535,81426,64382
3156.7,11071,34575,81839,64784
3158.7,11169,34379,82315,65236
3160.7,11386,34408,82685,65557
3162.7,11613,34868,82888,65698
3164.7,11664,35358,83044,65794
3166.7,11598,35503,83250,65946
3168.7,11575,35457,83490,66131
3170.7,11600,35529,83716,66318
3172.7,11635,35740,83887,66500
3174.7,11694,35884,83985,66657
3176.7,11728,35848,84030,66761
3178.7,11723,35777,84039,66789
3180.7,11785,35880,84019,66761
3182.7,11879,36080,83998,66746
3184.7,11825,36143,83961,66732
3186.7,11686,36182,83803,66587
3188.7,11687,36475,83495,66281
3190.7,11749,36761,83196,66004
3192.7,11656,36525,83052,65907
3194.7,11497,35940,82984,65887
3196.7,11433,35620,82836,65771
3198.7,11392,35657,82573,65536
3200.7,11326,35736,82250,65234
3202.7,11329,35790,81917,64903
3204.7,11314,35839,81627,64606
3206.7,11107,35731,81396,64398
3208.7,10825,35437,81163,64241
3210.7,10702,35122,80909,64088
3212.7,10709,34895,80691,63950
3214.7,10716,34829,80493,63809
3216.7,10730,34930,80224,63601
3218.7,10738,34981,79889,63339
3220.7,10663,34873,79571,63068
3222.7,10561,34815,79300,62788
3224.7,10527,34832,79085,62543
3226.7,10503,34723,78914,62397
3228.7,10416,34633,78678,62251
3230.7,10334,34753,78348,62013
3232.7,10290,34731,78111,61834
3234.7,10236,34404,78022,61811
3236.7,10198,34305,77853,61747
3238.7,10207,34555,77565,61555
3240.7,10161,34478,77433,61455
3242.7,10017,33977,77476,61483
3244.7,9920,33729,77405,61415
3246.7,9939,33797,77220,61270
3248.7,9953,33679,77158,61257
3250.7,9914,33494,77169,61302
3252.7,9901,33614,77064,61218
3254.7,9909,33765,76920,61081
3256.7,9874,33641,76859,61025
3258.7,9822,33509,76814,61007
3260.7,9804,33574,76740,60979
3262.7,9816,33694,76676,60938
3264.7,9884,33820,76602,60859
3266.7,10007,33936,76528,60800
3268.7,10069,33953,76521,60830
3270.7,9996,34007,76519,60841
3272.7,9904,34176,76451,60771
3274.7,9900,34162,76421,60764
3276.7,9896,34002,76425,60785
3278.7,9790,34167,76279,60602
3280.7,9667,34401,76085,60354
3282.7,9659,34026,76138,60401
3284.73,9722,33501,76288,60593
3286.75,9726,33702,76181,60531
3288.78,9679,34143,75978,60357
3290.8,9665,33956,76018,60409
3292.8,9641,33559,76131,60527
3294.8,9530,33547,76074,60477
3296.8,9438,33542,76022,60432
3298.8,9484,33369,76073,60487
3300.8,9578,33498,75987,60417
3302.8,9604,33795,75765,60225
3304.8,9617,33686,75686,60172
3306.8,9646,33394,75736,60236
3308.8,9614,33388,75708,60225
3310.8,9548,33395,75674,60201
3312.8,9561,33167,75737,60247
3314.8,9624,33096,75725,60216
3316.8,9646,33300,75577,60080
3318.8,9673,33372,75503,60026
3320.8,9782,33301,75534,60065
3322.8,9901,33405,75481,60032
3324.8,9913,33538,75350,59931
3326.8,9814,33429,75273,59848
3328.8,9706,33311,75199,59733
3330.8,9676,33385,75062,59588
3332.8,9690,33401,74980,59542
3334.8,9640,33226,74991,59580
3336.8,9534,33053,74978,59555
3338.8,9504,32938,74928,59475
3340.8,9550,32854,74897,59404
3342.8,9531,32942,74810,59273
3344.8,9439,33164,74640,59078
3346.8,9420,33210,74538,58975
3348.8,9475,33054,74561,58989
3350.8,9459,32979,74571,58989
3352.8,9368,32996,74526,58955
3354.8,9334,32903,74504,58958
3356.8,9389,32773,74489,58961
3358.8,9457,32780,74422,58909
3360.8,9499,32806,74343,58852
3362.8,9510,32711,74289,58816
3364.8,9494,32674,74217,58752
3366.8,9473,32802,74135,58679
3368.8,9444,32851,74105,58660
3370.8,9384,32793,74079,58632
3372.8,9344,33012,73939,58480
3374.8,9385,33422,73758,58294
3376.8,9460,33333,73756,58308
3378.8,9509,32712,73928,58499
3380.8,9522,32379,74000,58566
3382.8,9444,32541,73859,58388
3384.8,9262,32568,73710,58199
3386.8,9175,32353,73699,58178
3388.8,9329,32366,73738,58236
3390.8,9501,32525,73746,58260
3392.8,9447,32425,73749,58253
3394.8,9308,32234,73728,58203
3396.8,9304,32275,73646,58108
3398.8,9358,32376,73559,58044
3400.8,9332,32321,73535,58051
3402.8,9270,32219,73542,58055
3404.8,9232,32167,73518,57989
3406.8,9193,32159,73448,57875
3408.8,9178,32231,73374,57780
3410.8,9229,32292,73369,57770
3412.8,9301,32197,73444,57834
3414.8,9355,32134,73482,57857
3416.8,9392,32295,73416,57781
3418.8,9381,32356,73369,57718
3420.8,9331,32053,73427,57745
3422.8,9348,31816,73471,57759
3424.8,9458,31976,73412,57691
3426.8,9525,32116,73370,57651
3428.8,9475,31933,73408,57683
3430.8,9426,31816,73419,57682
3432.8,9484,31983,73375,57631
3434.8,9593,32102,73368,57635
3436.8,9654,32037,73392,57674
3438.8,9643,31992,73364,57634
3440.8,9585,32014,73290,57525
3442.8,9499,32048,73200,57418
3444.8,9418,32118,73096,57332
3446.8,9386,32121,73037,57293
3448.8,9413,31992,73062,57323
3450.8,9464,31974,73079,57340
3452.8,9503,32170,73033,57278
3454.8,9517,32316,72999,57201
3456.8,9491,32283,73002,57166
3458.8,9427,32189,72985,57146
3460.8,9391,32035,72984,57145
3462.8,9435,31895,73032,57171
3464.8,9499,32034,73044,57154
3466.8,9497,32356,73016,57093
3468.8,9484,32419,73102,57128
3470.8,9540,32231,73314,57297
3472.8,9577,32179,73465,57452
3474.8,9512,32254,73508,57519
3476.8,9466,32238,73552,57556
3478.8,9546,32292,73574,57545
3480.8,9644,32628,73476,57420
3482.8,9662,33020,73341,57261
3484.8,9651,33109,73305,57202
3486.8,9602,32789,73349,57246
3488.8,9482,32233,73410,57322
3490.8,9435,31829,73474,57396
3492.8,9590,31862,73497,57438
3494.8,9786,32108,73465,57453
3496.8,9842,32171,73443,57475
3498.8,9835,32094,73414,57463
3500.8,9863,32111,73304,57364
3502.8,9878,32156,73184,57262
3504.8,9864,32197,73154,57247
3506.8,9859,32462,73130,57227
3508.8,9807,32880,73044,57131
3510.8,9665,33020,73008,57079
3512.8,9553,32830,73042,57125
3514.8,9565,32688,72994,57137
3516.8,9617,32699,72842,57061
3518.8,9605,32686,72705,56971
3520.8,9546,32586,72606,56891
3522.8,9498,32321,72524,56823
3524.8,9492,31838,72499,56811
3526.8,9543,31475,72491,56811
3528.8,9626,31542,72427,56743
3530.8,9682,31719,72387,56674
3532.8,9682,31636,72430,56681
3534.8,9631,31522,72403,56641
3536.8,9552,31624,72227,56459
3538.8,9527,31748,72090,56274
3540.8,9598,31750,72124,56228
3542.8,9641,31706,72209,56250
3544.8,9546,31631,72218,56222
3546.8,9444,31565,72175,56148
3548.8,9471,31559,72155,56106
3550.8,9519,31461,72157,56107
3552.8,9447,31223,72094,56052
3554.8,9332,31106,71935,55901
3556.8,9269,31107,71803,55784
3558.8,9218,30978,71786,55776
3560.8,9144,30899,71754,55723
3562.8,9092,31069,71618,55550
3564.83,9071,31048,71546,55461
3566.85,9034,30663,71618,55532
3568.88,8974,30611,71637,55543
3570.9,8981,31153,71542,55444
3572.9,9166,31591,71551,55464
3574.9,9473,31683,71674,55600
3576.9,9660,31886,71682,55607
3578.9,9607,32016,71613,55532
3580.9,9462,31531,71692,55599
3582.9,9375,30859,71812,55696
3584.9,9314,30691,71743,55621
3586.9,9258,30712,71640,55534
3588.9,9271,30523,71726,55608
3590.9,9325,30613,71840,55641
3592.9,9321,31184,71814,55478
3594.9,9269,31482,71850,55320
3596.9,9258,31138,72108,55300
3598.9,9291,30725,72429,55281
3600.9,9321,30609,72671,55192
3602.9,9345,30622,72871,55101
3604.9,9354,30721,73065,55016
3606.9,9342,30894,73306,55006
3608.9,9407,30914,73653,55224
3610.9,9648,30880,73930,55624
3612.9,9962,31193,73918,56051
3614.9,10158,31795,73827,56648
3616.9,10235,32365,73980,57671
3618.9,10329,33051,74172,59062
3620.9,10505,34119,73997,60648
3622.9,10759,35415,73487,62425
3624.9,11060,36769,72799,64281
3626.9,11296,38232,71708,65865
3628.9,11375,39626,70063,67058
3630.9,11373,40619,68324,68110
3632.9,11387,41205,67082,69212
3634.9,11344,41551,66309,70259
3636.9,11164,41699,65510,70997
3638.9,10911,41671,64435,71153
3640.9,10661,41414,63364,70569
3642.9,10414,40732,62731,69383
3644.9,10182,39662,62627,67868
3646.9,9943,38490,62703,66030
3648.9,9559,37201,62564,63645
3650.9,8984,35598,62208,60780
3652.9,8414,33962,61994,57919
3654.9,8030,32809,62131,55439
3656.9,7769,32177,62473,53353
3658.9,7551,31802,62895,51740
3660.9,7477,31594,63544,50945
3662.9,7633,31508,64495,51028
3664.9,7894,31446,65491,51454
3666.9,8104,31461,66280,51716
3668.9,8275,31579,66942,51893
3670.9,8474,31612,67655,52258
3672.9,8682,31525,68354,52734
3674.9,8864,31544,68875,53079
3676.9,9014,31624,69255,53300
3678.9,9093,31464,69646,53517
3680.9,9084,31127,70016,53666
3682.9,9059,30936,70227,53649
3684.9,9067,30850,70321,53578
3686.9,9081,30651,70451,53610
3688.9,9122,30481,70626,53697
3690.9,9220,30551,70747,53724
3692.9,9295,30690,70808,53711
3694.9,9300,30644,70862,53718
3696.9,9340,30480,70920,53722
3698.9,9475,30439,70959,53676
3700.9,9594,30594,70958,53576
3702.9,9618,30734,70919,53465
3704.9,9615,30652,70908,53412
3706.9,9672,30558,70978,53452
3708.9,9790,30774,71102,53537
3710.9,9873,31029,71241,53629
3712.9,9826,30898,71383,53731
3714.9,9719,30715,71464,53796
3716.9,9705,30982,71447,53783
3718.9,9780,31320,71457,53776
3720.9,9810,31187,71576,53842
3722.9,9772,30887,71675,53885
3724.9,9746,30868,71664,53846
3726.9,9751,30960,71664,53830
3728.9,9755,31031,71734,53875
3730.9,9755,31257,71764,53885
3732.9,9766,31439,71766,53875
3734.9,9791,31225,71875,53956
3736.9,9833,30947,72028,54062
3738.9,9864,31114,72050,54014
3740.9,9854,31432,71997,53866
3742.9,9837,31377,72052,53830
3744.9,9874,31142,72197,53936
3746.9,9942,31086,72302,54043
3748.9,9962,31032,72393,54122
3750.9,9929,30848,72517,54215
3752.9,9913,30874,72581,54267
3754.9,9945,31205,72554,54253
3756.9,10002,31382,72593,54300
3758.9,10073,31184,72772,54473
3760.9,10150,30992,72943,54631
3762.9,10224,31152,72995,54665
3764.9,10302,31500,73028,54675
3766.9,10378,31693,73155,54769
3768.9,10416,31675,73349,54912
3770.9,10432,31670,73557,55063
3772.9,10494,31773,73798,55243
3774.9,10581,31837,74066,55433
3776.9,10630,31827,74302,55573
3778.9,10692,31946,74490,55676
3780.9,10839,32249,74688,55795
3782.9,10999,32527,74931,55931
3784.9,11091,32662,75197,56071
3786.9,11186,32762,75483,56253
3788.9,11329,32902,75818,56498
3790.9,11415,32987,76200,56772
3792.9,11418,32917,76581,57048
3794.9,11495,32774,76935,57333
3796.9,11693,32738,77265,57620
3798.9,11832,32847,77564,57872
3800.9,11813,33003,77808,58057
3802.9,11778,33130,78002,58190
3804.9,11842,33155,78203,58338
3806.9,11933,33059,78422,58528
3808.9,11982,33085,78576,58673
3810.9,12041,33472,78609,58704
3812.9,12140,33987,78587,58682
3814.9,12211,34258,78570,58664
3816.9,12200,34331,78540,58626
3818.9,12151,34343,78496,58583
3820.9,12121,34203,78451,58574
3822.9,12092,34061,78320,58499
3824.9,12024,34248,78041,58274
3826.9,11952,34479,77784,58069
3828.9,11922,34143,77724,58063
3830.9,11873,33425,77722,58106
3832.9,11725,33081,77516,57948
3834.9,11550,33282,77117,57624
3836.9,11481,33553,76748,57334
3838.9,11511,33642,76495,57136
3840.9,11558,33736,76265,56957
3842.9,11622,34011,75991,56736
3844.9,11701,34367,75685,56461
3846.9,11709,34573,75382,56178
3848.9,11644,34522,75136,55986
3850.9,11632,34313,74977,55920
3853.0,11687,34084,74844,55877
3855.0,11664,33892,74630,55746
3857.0,11527,33752,74325,55523
3859.0,11414,33619,74025,55282
3861.0,11355,33420,73801,55076
3863.0,11227,33191,73595,54880
3865.0,11015,33065,73316,54645
3867.0,10863,33052,72992,54392
3869.0,10831,33059,72737,54198
3871.0,10814,33091,72547,54052
3873.0,10740,33164,72321,53880
3875.0,10673,33129,72084,53735
3877.0,10694,32906,71964,53729
3879.0,10759,32695,71929,53789
3881.0,10769,32657,71825,53755
3883.0,10726,32639,71653,53657
3885.0,10725,32532,71544,53610
3887.0,10773,32505,71502,53579
3889.0,10769,32638,71429,53485
3891.0,10711,32753,71319,53404
3893.0,10698,32753,71232,53406
3895.0,10708,32721,71166,53411
3897.0,10626,32686,71067,53331
3899.0,10498,32643,70928,53204
3901.0,10476,32635,70811,53114
3903.0,10557,32624,70768,53085
3905.0,10609,32563,70767,53078
3907.0,10603,32591,70732,53040
3909.0,10592,32755,70647,52971
3911.0,10565,32792,70578,52925
3913.0,10514,32602,70563,52924
3915.0,10491,32525,70550,52922
3917.0,10515,32738,70488,52882
3919.0,10515,32925,70401,52824
3921.0,10472,32869,70349,52778
3923.0,10476,32780,70342,52733
3925.0,10567,32811,70338,52691
3927.0,10652,32794,70322,52692
3929.0,10644,32647,70301,52735
3931.0,10572,32562,70247,52737
3933.0,10503,32631,70154,52663
3935.0,10464,32669,70091,52596
3937.0,10470,32578,70081,52575
3939.0,10509,32535,70029,52511
3941.0,10524,32630,69896,52380
3943.0,10512,32707,69781,52285
3945.0,10535,32742,69719,52233
3947.0,10578,32914,69605,52116
3949.0,10565,33143,69436,51969
3951.0,10523,33111,69359,51947
3953.0,10516,32850,69381,52016
3955.0,10502,32691,69343,52007
3957.0,10459,32646,69244,51940
3959.0,10472,32478,69227,51947
3961.0,10534,32263,69251,51964
3963.0,10516,32259,69160,51849
3965.0,10420,32389,69002,51675
3967.0,10368,32418,68926,51583
3969.0,10365,32406,68893,51526
3971.0,10360,32487,68822,51441
3973.0,10386,32495,68775,51407
3975.0,10419,32361,68745,51406
3977.0,10363,32414,68584,51252
3979.0,10263,32734,68336,50967
3981.0,10264,32807,68252,50838
3983.0,10353,32409,68353,50940
3985.0,10430,32069,68404,51038
3987.0,10514,32149,68339,51023
3989.0,10601,32338,68288,51003
3991.0,10576,32357,68257,50992
3993.0,10428,32341,68158,50907
3995.0,10325,32429,68012,50770
3997.0,10361,32585,67885,50665
3999.0,10444,32709,67789,50594
4001.0,10470,32667,67733,50536
4003.0,10439,32423,67718,50504
4005.0,10398,32091,67725,50524
4007.0,10363,31715,67770,50606
4009.0,10326,31403,67825,50665
4011.0,10314,31520,67756,50556
4013.0,10365,32097,67543,50321
4015.0,10419,32439,67390,50201
4017.0,10375,32116,67409,50268
4019.0,10298,31688,67466,50325
4021.0,10333,31714,67449,50259
4023.0,10408,31915,67395,50159
4025.0,10353,31932,67310,50070
4027.0,10244,31929,67184,49957
4029.0,10264,32028,67115,49870
4031.0,10349,32099,67131,49839
4033.0,10335,32195,67094,49766
4035.0,10274,32352,66975,49630
4037.0,10276,32332,66927,49552
4039.0,10283,32199,66943,49522
4041.0,10233,32333,66863,49414
4043.0,10191,32536,66738,49284
4045.0,10188,32291,66737,49287
4047.0,10189,31892,66784,49340
4049.0,10237,31977,66724,49292
4051.0,10385,32332,66657,49239
4053.0,10554,32390,66731,49315
4055.0,10624,32184,66858,49429
4057.0,10571,31947,66913,49461
4059.0,10464,31676,66900,49441
4061.0,10418,31524,66826,49392
4063.0,10480,31756,66679,49272
4065.0,10536,32266,66515,49098
4067.0,10458,32719,66378,48931
4069.0,10331,32917,66245,48806
4071.0,10319,32805,66164,48779
4073.0,10427,32522,66240,48886
4075.0,10560,32381,66414,49027
4077.0,10669,32456,66493,49065
4079.0,10725,32476,66434,49013
4081.0,10723,32294,66398,48998
4083.0,10724,32072,66466,49054
4085.0,10749,31960,66517,49096
4087.0,10731,31931,66450,49066
4089.0,10667,31934,66355,49011
4091.0,10642,31974,66332,48987
4093.0,10661,32073,66318,48963
4095.0,10648,32212,66232,48898
4097.0,10620,32333,66140,48820
4099.0,10655,32420,66106,48760
4101.0,10736,32522,66057,48690
4103.0,10772,32602,65958,48616
4105.0,10731,32572,65913,48612
4107.0,10655,32562,65977,48676
4109.0,10604,32769,66068,48720
4111.0,10608,33039,66141,48751
4113.0,10652,33040,66256,48855
4115.0,10703,32818,66430,49016
4117.0,10747,32673,66594,49135
4119.0,10780,32657,66690,49182
4121.0,10791,32677,66711,49182
4123.0,10757,32782,66663,49116
4125.0,10696,32951,66572,48996
4127.0,10694,32980,66495,48918
4129.0,10794,32875,66458,48931
4131.0,10902,32879,66403,48942
4133.0,10918,32977,66296,48892
4135.03,10907,32930,66213,48862
4137.05,10966,32822,66195,48882
4139.08,11028,32936,66146,48842
4141.1,10993,33160,66042,48733
4143.1,10913,33147,66023,48713
4145.1,10881,32971,66115,48794
4147.1,10900,32953,66158,48819
4149.1,10947,33022,66146,48814
4151.1,11006,32897,66221,48915
4153.1,11018,32717,66296,49012
4155.1,10955,32827,66155,48909
4157.1,10888,33117,65886,48714
4159.1,10870,33242,65718,48605
4161.1,10866,33264,65594,48492
4163.1,10864,33388,65386,48295
4165.1,10907,33374,65249,48194
4167.1,10985,32996,65312,48276
4169.1,11030,32715,65386,48338
4171.1,11026,32999,65301,48251
4173.1,11014,33392,65163,48138
4175.1,11009,33201,65102,48106
4177.1,10998,32633,65098,48122
4179.1,10962,32373,65101,48125
4181.1,10875,32480,65067,48075
4183.1,10755,32526,64992,47986
4185.1,10683,32405,64977,47958
4187.1,10688,32344,65059,48007
4189.1,10690,32347,65078,47992
4191.1,10638,32215,64956,47872
4193.1,10586,32027,64831,47772
4195.1,10567,32104,64759,47712
4197.1,10544,32409,64671,47625
4199.1,10532,32533,64624,47578
4201.1,10588,32393,64683,47629
4203.1,10677,32336,64696,47644
4205.1,10723,32421,64583,47568
4207.1,10731,32363,64518,47564
4209.1,10731,32174,64583,47664
4211.1,10699,32124,64622,47695
4213.1,10642,32197,64572,47635
4215.1,10628,32234,64529,47613
4217.1,10670,32269,64509,47622
4219.1,10718,32301,64488,47591
4221.1,10743,32245,64503,47558
4223.1,10761,32247,64505,47526
4225.1,10782,32490,64400,47433
4227.1,10790,32753,64301,47357
4229.1,10762,32721,64387,47431
4231.1,10707,32489,64599,47575
4233.1,10675,32318,64787,47627
4235.1,10693,32231,64976,47585
4237.1,10747,32148,65199,47508
4239.1,10810,32066,65386,47395
4241.1,10847,31930,65573,47311
4243.1,10827,31714,65872,47356
4245.1,10792,31644,66226,47492
4247.1,10853,31931,66500,47648
4249.1,11074,32341,66691,47897
4251.1,11388,32542,66808,48320
4253.1,11667,32742,66833,48889
4255.1,11863,33347,66903,49636
4257.1,12046,34270,67146,50712
4259.1,12309,35259,67330,52144
4261.1,12633,36446,67130,53776
4263.1,12925,37849,66600,55465
4265.1,13146,39067,65901,57094
4267.1,13304,40014,64874,58462
4269.1,13396,41032,63437,59482
4271.1,13442,41994,62040,60392
4273.1,13500,42488,61071,61428
4275.1,13531,42758,60194,62370
4277.1,13377,43185,58943,62738
4279.1,13002,43339,57582,62347
4281.1,12593,42729,56707,61392
4283.1,12276,41679,56398,60097
4285.1,11924,40519,56321,58502
4287.1,11389,39044,56246,56512
4289.1,10742,37402,56064,54076
4291.1,10148,36208,55756,51379
4293.1,9663,35480,55541,48793
4295.1,9290,34753,55650,46609
4297.1,9061,34082,56008,44990
4299.1,8997,33733,56488,44123
4301.1,9077,33449,57180,44033
4303.1,9267,33045,58067,44327
4305.1,9511,32861,58889,44542
4307.1,9739,32964,59580,44678
4309.1,9923,32941,60319,45001
4311.1,10077,32744,61086,45494
4313.1,10212,32650,61692,45931
4315.1,10350,32592,62163,46259
4317.1,10514,32473,62606,46517
4319.1,10653,32503,62933,46625
4321.1,10691,32577,63114,46582
4323.1,10662,32307,63309,46561
4325.1,10663,31912,63539,46622
4327.1,10715,31920,63654,46650
4329.1,10786,32162,63681,46637
4331.1,10873,32204,63764,46678
4333.1,10951,32194,63853,46745
4335.1,10988,32311,63868,46772
4337.1,11026,32300,63902,46795
4339.1,11112,32202,63973,46804
4341.1,11173,32412,63936,46712
4343.1,11134,32742,63813,46579
4345.1,11071,32691,63805,46585
4347.1,11103,32425,63936,46737
4349.1,11187,32381,64054,46874
4351.1,11181,32425,64126,46934
4353.1,11069,32313,64226,46999
4355.1,10975,32189,64362,47116
4357.1,10967,32107,64497,47243
4359.1,10994,31958,64606,47318
4361.1,11014,31943,64639,47316
4363.1,11043,32265,64581,47265
4365.1,11083,32648,64514,47226
4367.1,11131,32829,64506,47234
4369.1,11220,32985,64552,47287
4371.1,11339,33200,64647,47370
4373.1,11416,33190,64803,47474
4375.1,11429,32857,64979,47582
4377.1,11436,32518,65123,47678
4379.1,11464,32411,65243,47756
4381.1,11471,32454,65351,47817
4383.1,11450,32558,65394,47837
4385.1,11454,32800,65346,47803
4387.1,11503,33116,65306,47787
4389.1,11546,33181,65420,47894
4391.1,11555,32858,65686,48122
4393.1,11568,32515,65940,48345
4395.1,11609,32568,66046,48452
4397.1,11643,32902,66060,48456
4399.1,11655,33092,66127,48457
4401.1,11683,33047,66257,48526
4403.1,11749,33080,66340,48633
4405.1,11824,33334,66364,48736
4407.1,11871,33536,66458,48857
4409.1,11897,33463,66693,49038
4411.1,11963,33321,66979,49260
4413.1,12096,33406,67207,49466
4415.1,12222,33691,67353,49613
4417.1,12271,33968,67462,49703
4419.1,12330,34082,67657,49841
4421.1,12506,33966,68035,50135
4423.1,12723,33760,68477,50490
4425.13,12850,33786,68765,50706
4427.15,12920,34054,68930,50824
4429.18,13028,34181,69207,51069
4431.2,13167,34127,69603,51422
4433.2,13292,34337,69879,51624
4435.2,13395,34862,69995,51652
4437.2,13485,35196,70167,51764
4439.2,13578,35194,70461,52038
4441.2,13670,35204,70734,52297
4443.2,13719,35252,70961,52488
4445.2,13722,35086,71223,52715
4447.2,13737,34869,71459,52944
4449.2,13779,34946,71558,53057
4451.2,13797,35231,71563,53083
4453.2,13811,35467,71579,53122
4455.2,13894,35614,71629,53191
4457.2,14019,35636,71705,53275
4459.2,14073,35500,71766,53353
4461.2,14053,35482,71702,53329
4463.2,14073,35787,71510,53179
4465.2,14138,36059,71367,53051
4467.2,14118,35995,71337,53013
4469.2,13998,35929,71249,52926
4471.2,13899,36091,71017,52741
4473.2,13847,36072,70794,52621
4475.2,13795,35738,70685,52627
4477.2,13789,35618,70570,52603
4479.2,13841,35900,70324,52440
4481.2,13806,36166,69973,52179
4483.2,13627,36288,69611,51870
4485.2,13455,36411,69299,51579
4487.2,13374,36335,69070,51412
4489.2,13333,35977,68912,51376
4491.2,13322,35779,68777,51341
4493.2,13343,35867,68621,51238
4495.2,13299,35752,68449,51132
4497.2,13141,35325,68286,51048
4499.2,12974,35067,68102,50921
4501.2,12895,35139,67855,50734
4503.2,12871,35220,67601,50565
4505.2,12842,35157,67441,50471
4507.2,12797,35061,67352,50416
4509.2,12744,34994,67215,50345
4511.2,12681,34973,67025,50257
4513.2,12627,35003,66869,50190
4515.2,12593,34969,66755,50156
4517.2,12535,34815,66632,50124
4519.2,12418,34736,66520,50068
4521.2,12305,34840,66455,50006
4523.2,12243,34860,66400,49984
4525.2,12175,34600,66332,50005
4527.2,12115,34389,66292,50028
4529.2,12186,34604,66276,50024
4531.2,12337,34995,66227,50005
4533.2,12361,35037,66173,50011
4535.2,12269,34783,66183,50066
4537.2,12263,34727,66209,50120
4539.2,12326,34928,66160,50111
4541.2,12296,34942,66098,50081
4543.2,12238,34628,66145,50124
4545.2,12300,34370,66251,50221
4547.2,12392,34424,66259,50244
4549.2,12362,34578,66154,50164
4551.2,12278,34556,66064,50103
4553.2,12248,34440,66042,50127
4555.2,12225,34510,65997,50136
4557.2,12159,34772,65883,50059
4559.2,12103,34878,65807,50002
4561.2,12088,34639,65843,50056
4563.2,12092,34346,65893,50132
4565.2,12116,34289,65869,50117
4567.2,12137,34323,65826,50057
4569.2,12083,34273,65815,50028
4571.2,11967,34281,65779,50009
4573.2,11886,34402,65696,49967
4575.2,11847,34397,65632,49933
4577.2,11802,34226,65611,49927
4579.2,11794,34176,65593,49930
4581.2,11870,34342,65561,49925
4583.2,11958,34536,65520,49912
4585.2,12000,34653,65477,49904
4587.2,12032,34679,65465,49937
4589.2,12046,34539,65497,50012
4591.2,11967,34288,65499,50042
4593.2,11828,34163,65406,49960
4595.2,11766,34248,65289,49841
4597.2,11835,34393,65260,49806
4599.2,11951,34489,65313,49852
4601.2,12006,34590,65335,49864
4603.2,11977,34788,65237,49762
4605.2,11917,35018,65060,49595
4607.2,11874,34989,64961,49513
4609.2,11848,34511,65058,49615
4611.2,11834,33919,65243,49800
4613.2,11845,33800,65276,49848
4615.2,11841,34200,65098,49699
4617.2,11764,34544,64908,49525
4619.2,11651,34429,64870,49489
4621.2,11599,34097,64922,49549
4623.2,11607,33984,64927,49565
4625.2,11623,34173,64857,49497
4627.2,11646,34481,64742,49384
4629.2,11642,34815,64577,49234
4631.2,11558,35079,64417,49082
4633.2,11484,34952,64428,49084
4635.2,11531,34277,64667,49324
4637.2,11610,33554,64915,49600
4639.2,11631,33418,64962,49665
4641.2,11695,33728,64900,49581
4643.2,11826,33896,64904,49560
4645.2,11865,33865,64937,49600
4647.2,11795,33945,64906,49578
4649.2,11763,34058,64855,49521
4651.2,11758,33977,64848,49523
4653.2,11668,33849,64858,49570
4655.2,11542,33814,64859,49596
4657.2,11476,33716,64837,49579
4659.2,11432,33593,64754,49516
4661.2,11363,33712,64626,49420
4663.2,11319,33948,64560,49353
4665.2,11347,33921,64618,49370
4667.2,11424,33720,64730,49435
4669.2,11498,33735,64770,49449
4671.2,11531,33944,64715,49389
4673.2,11550,34014,64693,49373
4675.2,11612,33891,64795,49476
4677.2,11677,33799,64907,49584
4679.2,11659,33843,64881,49581
4681.2,11582,33941,64778,49530
4683.2,11544,34027,64735,49515
4685.2,11548,34076,64735,49498
4687.2,11528,34021,64721,49475
4689.2,11483,33823,64746,49520
4691.2,11469,33642,64825,49606
4693.2,11503,33730,64845,49610
4695.2,11542,34083,64759,49527
4697.2,11532,34370,64669,49464
4699.2,11468,34333,64659,49463
4701.2,11423,34075,64715,49497
4703.2,11457,33883,64775,49534
4705.2,11500,33915,64762,49516
4707.2,11453,34073,64658,49429
4709.2,11388,34109,64589,49401
4711.2,11430,33934,64670,49535
4713.3,11533,33823,64789,49695
4715.3,11576,34090,64762,49694
4717.3,11577,34557,64645,49592
4719.3,11601,34712,64645,49580
4721.3,11605,34413,64780,49681
4723.3,11547,34011,64897,49766
4725.3,11457,33772,64928,49780
4727.3,11372,33636,64933,49775
4729.3,11329,33584,64956,49786
4731.3,11356,33769,64948,49766
4733.3,11385,34179,64846,49669
4735.3,11343,34477,64714,49564
4737.3,11301,34397,64711,49595
4739.3,11327,34096,64865,49767
4741.3,11339,33886,65019,49929
4743.3,11319,33822,65089,50004
4745.3,11399,33819,65136,50052
4747.3,11572,33925,65171,50071
4749.3,11649,34151,65120,50001
4751.3,11579,34287,65037,49909
4753.3,11502,34185,65077,49948
4755.3,11484,34018,65255,50111
4757.3,11472,34093,65403,50220
4759.3,11449,34498,65412,50178
4761.3,11431,34896,65391,50110
4763.3,11396,34851,65493,50164
4765.3,11343,34473,65656,50273
4767.3,11312,34322,65703,50286
4769.3,11329,34526,65653,50242
4771.3,11383,34671,65667,50273
4773.3,11435,34579,65751,50353
4775.3,11471,34447,65813,50403
4777.3,11570,34414,65864,50451
4779.3,11781,34576,65907,50494
4781.3,11970,34959,65872,50447
4783.3,11991,35229,65799,50372
4785.3,11933,35093,65812,50408
4787.3,11935,34863,65862,50486
4789.3,11917,34887,65827,50457
4791.3,11785,34978,65738,50367
4793.3,11676,34996,65692,50338
4795.3,11712,35159,65702,50372
4797.3,11788,35369,65777,50455
4799.3,11777,35263,65895,50586
4801.3,11716,35018,65914,50653
4803.3,11673,35054,65768,50578
4805.3,11643,35198,65628,50489
4807.3,11627,35119,65609,50494
4809.3,11643,35023,65580,50487
4811.3,11675,35112,65455,50399
4813.3,11672,35138,65341,50332
4815.3,11615,35030,65288,50308
4817.3,11531,35036,65239,50248
4819.3,11483,35065,65238,50197
4821.3,11513,34841,65331,50232
4823.3,11574,34531,65383,50260
4825.3,11577,34484,65285,50186
4827.3,11515,34710,65150,50077
4829.3,11459,34998,65110,50035
4831.3,11419,35049,65185,50103
4833.3,11329,34624,65331,50280
4835.3,11191,33999,65443,50429
4837.3,11108,33767,65412,50388
4839.3,11122,33955,65294,50219
4841.3,11141,34127,65192,50086
4843.3,11097,34202,65083,49986
4845.3,11040,34307,64981,49906
4847.3,11016,34282,65013,49945
4849.3,10999,34094,65138,50073
4851.3,11002,34081,65155,50108
4853.3,11086,34350,65065,50039
4855.3,11222,34652,65040,50014
4857.3,11292,34849,65108,50065
4859.3,11265,34846,65216,50164
4861.3,11230,34523,65380,50343
4863.3,11239,34140,65540,50524
4865.3,11249,34133,65545,50538
4867.3,11205,34398,65404,50391
4869.3,11106,34580,65260,50234
4871.3,11026,34728,65155,50126
4873.3,11041,34909,65098,50082
4875.3,11115,34834,65187,50173
4877.3,11118,34497,65425,50364
4879.3,11023,34309,65656,50491
4881.3,10942,34297,65816,50489
4883.3,10938,34143,65999,50424
4885.3,10981,33931,66239,50331
4887.3,11068,33906,66504,50248
4889.3,11172,33913,66820,50265
4891.3,11183,33844,67174,50386
4893.3,11127,33970,67503,50544
4895.3,11249,34330,67815,50781
4897.3,11644,34573,68099,51175
4899.3,12065,34664,68219,51679
4901.3,12295,35004,68225,52301
4903.3,12404,35738,68423,53197
4905.3,12538,36637,68819,54409
4907.3,12779,37647,68989,55797
4909.3,13197,38970,68753,57322
4911.3,13727,40553,68360,59002
4913.3,14094,42009,67802,60594
4915.3,14160,43138,66743,61793
4917.3,14124,44115,65286,62684
4919.3,14160,45022,64030,63578
4921.3,14156,45693,63168,64533
4923.3,14006,46102,62307,65318
4925.3,13768,46273,61233,65650
4927.3,13459,45848,60206,65298
4929.3,13026,44554,59496,64232
4931.3,12515,42940,59091,62676
4933.3,11976,41703,58831,60790
4935.3,11335,40572,58540,58501
4937.3,10577,38984,58142,55872
4939.3,9877,37365,57756,53245
4941.3,9393,36536,57567,50908
4943.3,9102,36350,57650,49016
4945.3,8931,36122,57975,47788
4947.3,8875,35813,58473,47304
4949.3,8950,35714,59084,47286
4951.3,9161,35664,59815,47434
4953.3,9492,35417,60679,47714
4955.3,9856,35144,61580,48123
4957.3,10117,35058,62355,48526
4959.3,10257,35132,62950,48845
4961.3,10393,35285,63429,49131
4963.3,10574,35401,63855,49388
4965.3,10710,35337,64240,49560
4967.3,10743,35172,64576,49648
4969.3,10726,35046,64860,49711
4971.3,10725,34859,65088,49778
4973.3,10768,34596,65267,49852
4975.3,10858,34568,65403,49917
4977.3,10933,34830,65493,49947
4979.3,10937,35001,65550,49956
4981.3,10911,34938,65617,49997
4983.3,10904,34891,65705,50068
4985.3,10893,34934,65778,50106
4987.3,10875,34956,65826,50112
4989.3,10887,35017,65865,50131
4991.3,10910,35116,65881,50163
4993.4,10913,35043,65888,50193
4995.4,10935,34828,65962,50261
4997.4,10993,34751,66119,50385
4999.4,11029,34800,66261,50512
5001.4,11001,34802,66308,50588
5003.4,10937,34869,66283,50590
5005.4,10879,35074,66285,50550
5007.4,10879,35144,66398,50579
5009.4,10953,35013,66583,50716
5011.4,11042,35042,66699,50816
5013.4,11106,35331,66705,50783
5015.4,11165,35539,66717,50747
5017.4,11214,35555,66786,50806
5019.4,11221,35571,66851,50870
5021.4,11213,35577,66928,50893
5023.4,11226,35443,67064,50950
5025.4,11238,35305,67169,51015
5027.4,11251,35319,67183,51017
5029.4,11287,35336,67219,51032
5031.4,11293,35266,67318,51117
5033.4,11249,35339,67357,51179
5035.4,11256,35665,67326,51207
5037.4,11340,35915,67381,51340
5039.4,11348,35830,67521,51571
5041.4,11238,35629,67597,51744
5043.4,11187,35587,67624,51848
5045.4,11271,35585,67722,51987
5047.4,11356,35484,67862,52133
5049.4,11410,35513,67951,52203
5051.4,11533,35854,68013,52238
5053.4,11666,36239,68097,52303
5055.4,11667,36421,68172,52363
5057.4,11639,36597,68245,52400
5059.4,11767,36938,68379,52473
5061.4,11937,37170,68577,52612
5063.4,11971,37088,68807,52793
5065.4,11976,36966,69087,52997
5067.4,12096,37046,69419,53222
5069.4,12237,37101,69755,53466
5071.4,12291,36928,70070,53733
5073.4,12303,36783,70366,53990
5075.4,12312,36933,70629,54186
5077.4,12352,37199,70899,54383
5079.4,12530,37286,71282,54706
5081.4,12824,37239,71757,55121
5083.4,13024,37306,72149,55442
5085.4,13064,37569,72396,55628
5087.4,13116,37908,72626,55818
5089.4,13266,38198,72917,56076
5091.4,13415,38444,73197,56329
5093.4,13518,38715,73423,56544
5095.4,13637,39022,73645,56758
5097.4,13768,39317,73861,56952
5099.4,13829,39527,74028,57093
5101.4,13817,39569,74170,57222
5103.4,13818,39492,74297,57344
5105.4,13865,39520,74338,57378
5107.4,13874,39671,74291,57314
5109.4,13763,39630,74265,57266
5111.4,13586,39310,74277,57278
5113.4,13464,39034,74246,57286
5115.4,13416,38946,74185,57279
5117.4,13391,38883,74160,57279
5119.4,13412,38878,74107,57242
5121.4,13496,39047,73943,57117
5123.4,13516,39202,73711,56910
5125.4,13374,39191,73461,56637
5127.4,13200,39215,73177,56335
5129.4,13144,39366,72886,56087
5131.4,13124,39466,72647,55905
5133.4,13018,39435,72434,55718
5135.4,12896,39286,72219,55549
5137.4,12860,38986,72052,55485
5139.4,12864,38713,71928,55457
5141.4,12816,38740,71740,55318
5143.4,12712,38924,71462,55078
5145.4,12586,38953,71176,54831
5147.4,12460,38868,70921,54590
5149.4,12362,38772,70700,54381
5151.4,12294,38553,70541,54273
5153.4,12229,38295,70406,54208
5155.4,12151,38244,70204,54066
5157.4,12039,38282,69949,53891
5159.4,11884,38171,69738,53776
5161.4,11770,38073,69581,53686
5163.4,11782,38167,69433,53586
5165.4,11823,38258,69311,53532
5167.4,11758,38185,69236,53506
5169.4,11661,38054,69169,53442
5171.4,11659,37945,69078,53371
5173.4,11686,37916,68955,53327
5175.4,11643,38063,68813,53258
5177.4,11584,38247,68704,53174
5179.4,11559,38232,68649,53140
5181.4,11536,38151,68586,53113
5183.4,11554,38266,68496,53043
5185.4,11654,38490,68439,52992
5187.4,11712,38640,68399,52963
5189.4,11621,38687,68317,52885
5191.4,11491,38546,68267,52833
5193.4,11449,38248,68318,52906
5195.4,11445,38135,68332,52973
5197.4,11387,38260,68211,52915
5199.4,11283,38176,68101,52856
5201.4,11195,37825,68107,52882
5203.4,11190,37693,68133,52901
5205.4,11283,37791,68163,52938
5207.4,11379,37710,68264,53084
5209.4,11390,37623,68294,53167
5211.4,11354,37894,68099,53005
5213.4,11336,38154,67879,52810
5215.4,11323,38021,67864,52820
5217.4,11303,37898,67917,52885
5219.4,11297,38041,67863,52840
5221.4,11301,38091,67797,52794
5223.4,11300,38032,67767,52776
5225.4,11303,38173,67677,52681
5227.4,11301,38238,67593,52600
5229.4,11271,37956,67629,52657
5231.4,11241,37841,67644,52694
5233.4,11242,38116,67527,52590
5235.4,11243,38139,67455,52511
5237.4,11221,37808,67492,52512
5239.4,11210,37831,67417,52402
5241.4,11201,38159,67203,52196
5243.4,11121,38025,67103,52153
5245.4,10998,37529,67167,52293
5247.4,10968,37373,67189,52393
5249.4,11041,37491,67111,52386
5251.4,11079,37473,67047,52355
5253.4,11059,37520,67002,52293
5255.4,11090,37853,66913,52166
5257.4,11164,38150,66827,52053
5259.4,11153,38152,66820,52029
5261.4,11059,37948,66879,52070
5263.4,11003,37601,66949,52124
5265.4,10990,37252,66969,52137
5267.4,10956,37229,66900,52072
5269.4,10933,37512,66807,51974
5271.4,10948,37656,66793,51923
5273.4,10898,37496,66815,51895
5275.43,10747,37332,66756,51823
5277.45,10650,37312,66649,51734
5279.48,10682,37281,66606,51704
5281.5,10716,37231,66622,51724
5283.5,10699,37331,66631,51743
5285.5,10735,37539,66610,51737
5287.5,10828,37690,66515,51665
5289.5,10852,37832,66335,51510
5291.5,10807,38043,66211,51394
5293.5,10809,38129,66264,51451
5295.5,10852,37927,66388,51608
5297.5,10843,37608,66440,51702
5299.5,10782,37441,66441,51706
5301.5,10731,37489,66429,51665
5303.5,10703,37614,66379,51584
5305.5,10692,37642,66343,51505
5307.5,10715,37554,66388,51512
5309.5,10793,37494,66444,51584
5311.5,10909,37528,66425,51612
5313.5,11002,37616,66377,51567
5315.5,11011,37741,66368,51527
5317.5,10959,37791,66404,51546
5319.5,10932,37668,66450,51579
5321.5,10946,37632,66430,51532
5323.5,10928,37896,66300,51402
5325.5,10851,38042,66175,51307
5327.5,10767,37759,66168,51302
5329.5,10706,37546,66197,51298
5331.5,10671,37726,66154,51256
5333.5,10668,37773,66117,51266
5335.5,10649,37413,66157,51335
5337.5,10548,37135,66190,51338
5339.5,10443,37181,66175,51261
5341.5,10475,37273,66193,51234
5343.5,10619,37329,66255,51309
5345.5,10751,37441,66305,51408
5347.5,10845,37531,66329,51459
5349.5,10895,37645,66299,51425
5351.5,10818,37911,66174,51306
5353.5,10644,38096,66063,51203
5355.5,10570,38014,66091,51202
5357.5,10669,38042,66133,51200
5359.5,10762,38344,66024,51096
5361.5,10716,38328,65939,51045
5363.5,10656,37705,66106,51226
5365.5,10737,37166,66358,51488
5367.5,10877,37262,66406,51587
5369.5,10893,37550,66304,51558
5371.5,10796,37508,66256,51562
5373.5,10748,37362,66256,51579
5375.5,10775,37465,66220,51526
5377.5,10768,37610,66187,51449
5379.5,10731,37527,66183,51419
5381.5,10751,37462,66138,51402
5383.5,10774,37695,66041,51346
5385.5,10683,37909,66004,51299
5387.5,10574,37690,66103,51354
5389.5,10628,37362,66253,51469
5391.5,10786,37537,66276,51456
5393.5,10856,38070,66112,51230
5395.5,10838,38342,65888,50953
5397.5,10878,38313,65769,50837
5399.5,10969,38324,65806,50929
5401.5,10988,38276,65982,51174
5403.5,10939,37962,66242,51482
5405.5,10920,37753,66460,51701
5407.5,10920,38031,66510,51716
5409.5,10851,38466,66440,51610
5411.5,10737,38556,66422,51562
5413.5,10701,38367,66514,51620
5415.5,10780,38246,66614,51698
5417.5,10876,38287,66649,51744
5419.5,10894,38344,66682,51784
5421.5,10864,38282,66748,51828
5423.5,10863,38169,66746,51817
5425.5,10894,38287,66601,51709
5427.5,10928,38703,66442,51595
5429.5,10988,39005,66443,51625
5431.5,11109,38875,66591,51813
5433.5,11243,38590,66725,51990
5435.5,11297,38485,66758,52018
5437.5,11249,38452,66718,51944
5439.5,11178,38404,66646,51880
5441.5,11159,38561,66579,51851
5443.5,11166,38914,66566,51836
5445.5,11130,39122,66623,51847
5447.5,11053,39087,66695,51889
5449.5,11009,38976,66734,51939
5451.5,11048,38802,66748,51995
5453.5,11123,38534,66721,52036
5455.5,11140,38311,66614,52005
5457.5,11093,38230,66446,51905
5459.5,11091,38319,66259,51765
5461.5,11165,38643,66051,51558
5463.5,11200,39035,65874,51336
5465.5,11163,39175,65847,51279
5467.5,11162,39163,65927,51395
5469.5,11184,39266,65927,51452
5471.5,11111,39205,65839,51382
5473.5,10987,38638,65839,51378
5475.5,10940,37963,65961,51507
5477.5,10921,37718,66081,51626
5479.5,10837,37801,66133,51656
5481.5,10768,37889,66128,51643
5483.5,10779,37920,66084,51608
5485.5,10763,37881,66037,51541
5487.5,10664,37765,65980,51438
5489.5,10590,37721,65863,51303
5491.5,10594,37841,65711,51181
5493.5,10591,38040,65603,51110
5495.5,10552,38230,65551,51068
5497.5,10552,38291,65551,51050
5499.5,10598,38078,65627,51098
5501.5,10607,37769,65711,51178
5503.5,10559,37774,65708,51192
5505.5,10501,38084,65667,51158
5507.5,10468,38247,65681,51170
5509.5,10504,38107,65716,51242
5511.5,10646,37962,65723,51319
5513.5,10800,37955,65751,51365
5515.5,10815,37965,65801,51350
5517.5,10726,38031,65796,51274
5519.5,10692,38246,65739,51212
5521.5,10722,38404,65706,51215
5523.5,10712,38331,65733,51240
5525.5,10673,38170,65858,51278
5527.5,10678,37972,66139,51399
5529.5,10697,37679,66465,51538
5531.5,10678,37580,66609,51485
5533.5,10665,37864,66611,51255
5535.5,10693,38013,66779,51148
5537.5,10690,37701,67172,51254
5539.5,10603,37540,67513,51320
5541.5,10523,37899,67714,51287
5543.5,10611,38177,67964,51436
5545.5,10894,38075,68241,51840
5547.5,11224,38162,68333,52278
5549.5,11432,38691,68370,52794
5551.5,11529,39369,68705,53739
5553.5,11694,40287,69280,55196
5555.5,12045,41647,69630,56897
5557.5,12467,43069,69503,58652
5559.5,12754,44295,68990,60417
5561.5,12876,45647,68129,62039
5563.5,12945,47011,66834,63388
5565.5,12999,47730,65284,64565
5567.5,13003,47902,63933,65698
5569.5,12944,48257,63002,66709
5571.5,12772,48657,62268,67447
5573.6,12432,48366,61398,67736
5575.6,12031,47583,60285,67254
5577.6,11720,47033,59122,65838
5579.6,11451,46472,58327,63899
5581.6,11106,45211,58139,61918
5583.6,10673,43553,58171,59723
5585.6,10138,42242,57821,56949
5587.6,9497,41233,57169,53920
5589.6,8929,40229,56846,51298
5591.6,8626,39522,57059,49252
5593.6,8505,39334,57488,47716
5595.6,8435,39310,58004,46910
5597.6,8503,39176,58753,46950
5599.6,8768,38925,59704,47463
5601.6,9084,38463,60674,48035
5603.6,9354,37976,61578,48549
5605.6,9639,38037,62360,48963
5607.6,9925,38611,62956,49251
5609.6,10127,38972,63430,49530
5611.6,10274,38905,63880,49890
5613.6,10434,38796,64297,50234
5615.6,10561,38669,64669,50470
5617.6,10592,38350,65023,50608
5619.6,10570,38078,65301,50656
5621.6,10554,38055,65442,50624
5623.6,10561,38055,65544,50599
5625.6,10607,37987,65732,50654
5627.6,10703,38050,65950,50751
5629.6,10802,38234,66059,50808
5631.6,10837,38338,66050,50793
5633.6,10795,38342,66043,50740
5635.6,10735,38310,66106,50691
5637.6,10737,38260,66166,50630
5639.6,10817,38252,66158,50553
5641.6,10859,38309,66153,50528
5643.6,10772,38314,66234,50582
5645.6,10665,38233,66363,50663
5647.6,10724,38220,66489,50782
5649.6,10911,38328,66610,50964
5651.6,11023,38424,66667,51083
5653.6,11024,38459,66634,51065
5655.6,11063,38542,66660,51083
5657.6,11168,38689,66834,51235
5659.6,11175,38739,66986,51323
5661.6,11031,38637,66993,51245
5663.6,10889,38609,66979,51174
5665.6,10876,38828,67034,51183
5667.6,10958,39048,67091,51187
5669.6,11042,38930,67162,51241
5671.6,11088,38655,67295,51403
5673.6,11115,38688,67375,51498
5675.6,11137,38947,67333,51441
5677.6,11131,38909,67322,51448
5679.6,11107,38574,67418,51619
5681.6,11139,38508,67479,51751
5683.6,11229,38815,67459,51762
5685.6,11271,38998,67493,51819
5687.6,11253,38884,67595,51979
5689.6,11256,38753,67655,52130
5691.6,11289,38690,67698,52255
5693.6,11323,38708,67787,52382
5695.6,11393,39075,67823,52423
5697.6,11484,39747,67775,52346
5699.6,11518,40152,67804,52303
5701.6,11522,40077,67985,52410
5703.6,11571,39877,68236,52651
5705.6,11634,39670,68546,52991
5707.6,11684,39365,68898,53336
5709.6,11758,39217,69151,53535
5711.6,11849,39393,69306,53628
5713.6,11931,39552,69565,53808
5715.6,12044,39551,69955,54081
5717.6,12181,39739,70297,54298
5719.6,12244,40177,70564,54454
5721.6,12248,40475,70865,54655
5723.6,12329,40500,71230,54928
5725.6,12498,40458,71659,55257
5727.6,12621,40460,72160,55633
5729.6,12684,40534,72638,55996
5731.6,12808,40728,72989,56280
5733.6,12981,40939,73255,56511
5735.6,13065,41016,73539,56759
5737.6,13087,41097,73858,57054
5739.6,13214,41367,74194,57385
5741.6,13428,41663,74540,57738
5743.6,13560,41783,74838,58065
5745.6,13585,41898,74998,58268
5747.6,13609,42153,75044,58338
5749.6,13656,42305,75118,58413
5751.6,13667,42218,75272,58568
5753.6,13609,42143,75376,58662
5755.6,13501,42179,75336,58602
5757.6,13436,42137,75236,58514
5759.6,13494,42083,75156,58467
5761.6,13603,42273,75044,58340
5763.6,13615,42601,74863,58105
5765.6,13498,42777,74670,57903
5767.6,13332,42739,74501,57791
5769.6,13222,42496,74338,57701
5771.6,13219,42073,74162,57602
5773.6,13246,41733,73955,57466
5775.6,13175,41732,73695,57215
5777.6,13047,41940,73415,56870
5779.6,12989,42085,73188,56602
5781.6,12944,42053,73034,56510
5783.6,12803,41807,72874,56466
5785.6,12657,41451,72615,56287
5787.6,12629,41289,72290,55978
5789.6,12654,41420,72009,55696
5791.6,12625,41535,71790,55504
5793.6,12557,41455,71549,55315
5795.6,12505,41419,71269,55067
5797.6,12494,41533,71013,54815
5799.6,12485,41519,70769,54601
5801.6,12400,41318,70470,54373
5803.6,12256,41292,70149,54117
5805.6,12173,41506,69902,53914
5807.6,12143,41545,69735,53805
5809.6,12053,41301,69601,53742
5811.6,11933,41112,69513,53697
5813.6,11877,41032,69484,53674
5815.6,11825,40852,69428,53599
5817.6,11736,40711,69267,53408
5819.6,11718,40772,69073,53218
5821.6,11786,40718,68973,53197
5823.6,11836,40391,68972,53313
5825.6,11890,40256,68969,53385
5827.6,11964,40523,68908,53324
5829.6,11906,40660,68811,53201
5831.6,11714,40328,68740,53142
5833.6,11662,39949,68741,53207
5835.6,11810,39934,68768,53311
5837.6,11880,40134,68711,53306
5839.6,11770,40344,68541,53156
5841.6,11678,40674,68337,52958
5843.6,11686,41128,68170,52810
5845.6,11699,41338,68094,52776
5847.6,11701,41091,68144,52864
5849.6,11719,40795,68198,52926
5851.6,11711,40984,68070,52803
5853.6,11672,41472,67852,52630
5855.63,11648,41489,67843,52693
5857.65,11610,40737,68068,52980
5859.68,11556,39906,68250,53192
5861.7,11581,39787,68238,53169
5863.7,11673,40209,68135,53034
5865.7,11692,40404,68066,52966
5867.7,11647,40241,68049,52999
5869.7,11676,40303,68013,53004
5871.7,11741,40741,67898,52880
5873.7,11691,40992,67771,52735
5875.7,11555,40840,67704,52687
5877.7,11493,40792,67608,52642
5879.7,11552,41058,67440,52522
5881.7,11644,41124,67363,52477
5883.7,11683,40725,67443,52576
5885.7,11666,40329,67506,52636
5887.7,11638,40296,67476,52571
5889.7,11595,40342,67462,52520
5891.7,11499,40183,67456,52533
5893.7,11407,40016,67368,52508
5895.7,11439,40075,67258,52438
5897.7,11576,40234,67210,52391
5899.7,11669,40297,67145,52331
5901.7,11670,40342,66981,52185
5903.7,11631,40499,66801,52008
5905.7,11567,40632,66721,51919
5907.7,11493,40595,66728,51916
5909.7,11475,40578,66705,51871
5911.7,11509,40779,66587,51725
5913.7,11537,40942,66448,51585
5915.7,11554,40685,66410,51573
5917.7,11517,40115,66482,51647
5919.7,11353,39689,66539,51667
5921.7,11198,39656,66488,51576
5923.7,11262,39872,66384,51449
5925.7,11441,40054,66326,51391
5927.7,11494,40107,66312,51414
5929.7,11457,40183,66275,51432
5931.7,11470,40350,66204,51383
5933.7,11486,40424,66145,51300
5935.7,11458,40313,66112,51236
5937.7,11456,40186,66094,51202
5939.7,11472,40115,66103,51201
5941.7,11455,40008,66145,51227
5943.7,11463,39945,66167,51224
5945.7,11511,40053,66110,51141
5947.7,11496,40159,65995,51034
5949.7,11428,40068,65913,51018
5951.7,11419,39977,65900,51079
5953.7,11450,40133,65869,51067
5955.7,11443,40369,65770,50930
5957.7,11456,40394,65703,50810
5959.7,11534,40258,65740,50813
5961.7,11563,40131,65799,50869
5963.7,11475,39982,65817,50890
5965.7,11381,39817,65827,50881
5967.7,11372,39802,65821,50852
5969.7,11385,39843,65793,50825
5971.7,11349,39657,65820,50855
5973.7,11297,39445,65861,50863
5975.7,11308,39713,65759,50712
5977.7,11397,40277,65595,50518
5979.7,11478,40409,65609,50516
5981.7,11464,40004,65749,50635
5983.7,11397,39652,65770,50650
5985.7,11381,39661,65675,50578
5987.7,11374,39848,65591,50520
5989.7,11305,40058,65502,50419
5991.7,11271,40193,65413,50293
5993.7,11351,40132,65426,50289
5995.7,11382,39990,65473,50352
5997.7,11252,40011,65412,50299
5999.7,11126,40091,65330,50188
6001.7,11120,40005,65355,50180
6003.7,11116,39941,65362,50194
6005.7,11090,40153,65250,50113
6007.7,11176,40356,65197,50082
6009.7,11357,40165,65353,50247
6011.7,11511,39848,65571,50476
6013.7,11673,39935,65654,50567
6015.7,11845,40353,65586,50501
6017.7,11840,40581,65451,50360
6019.7,11626,40435,65327,50224
6021.7,11484,40153,65304,50183
6023.7,11559,39946,65407,50275
6025.7,11663,39893,65513,50375
6027.7,11645,40065,65486,50333
6029.7,11601,40425,65371,50179
6031.7,11618,40737,65308,50073
6033.7,11631,40733,65322,50084
6035.7,11592,40384,65349,50153
6037.7,11577,39967,65361,50206
6039.7,11633,39779,65352,50208
6041.7,11654,39817,65298,50152
6043.7,11541,39900,65236,50082
6045.7,11396,39963,65272,50086
6047.7,11381,39986,65448,50212
6049.7,11443,39894,65680,50396
6051.7,11435,39780,65832,50509
6053.7,11388,39893,65841,50489
6055.7,11428,40209,65763,50413
6057.7,11536,40469,65699,50366
6059.7,11593,40651,65670,50328
6061.7,11570,40865,65647,50267
6063.7,11549,40909,65666,50265
6065.7,11611,40607,65783,50392
6067.7,11754,40306,65924,50546
6069.7,11869,40374,65953,50588
6071.7,11875,40587,65868,50536
6073.7,11846,40600,65795,50510
6075.7,11907,40509,65801,50541
6077.7,12020,40503,65817,50557
6079.7,12030,40528,65756,50500
6081.7,11900,40529,65637,50398
6083.7,11753,40581,65534,50311
6085.7,11701,40695,65484,50271
6087.7,11736,40810,65489,50288
6089.7,11801,40922,65538,50344
6091.7,11861,41064,65558,50364
6093.7,11898,41209,65486,50297
6095.7,11894,41250,65376,50213
6097.7,11867,41133,65318,50181
6099.7,11861,40958,65289,50149
6101.7,11898,40800,65246,50080
6103.7,11949,40583,65212,50039
6105.7,11979,40315,65196,50045
6107.7,11971,40150,65178,50055
6109.7,11894,40082,65177,50074
6111.7,11729,39971,65165,50080
6113.7,11566,39876,65052,49980
6115.7,11520,39925,64875,49798
6117.7,11552,40023,64778,49673
6119.7,11541,40037,64799,49645
6121.7,11506,40002,64860,49656
6123.7,11508,39973,64895,49667
6125.7,11474,39944,64849,49622
6127.7,11393,39942,64732,49498
6129.7,11430,39990,64652,49403
6131.7,11601,40064,64630,49391
6133.7,11677,40194,64550,49343
6135.73,11603,40376,64419,49221
6137.75,11585,40491,64371,49156
6139.78,11656,40493,64379,49162
6141.8,11649,40482,64314,49113
6143.8,11579,40446,64230,49035
6145.8,11586,40310,64241,49045
6147.8,11618,40230,64284,49091
6149.8,11562,40323,64276,49076
6151.8,11495,40278,64297,49089
6153.8,11500,39836,64410,49218
6155.8,11492,39336,64519,49361
6157.8,11430,39199,64557,49400
6159.8,11423,39266,64580,49387
6161.8,11505,39235,64612,49391
6163.8,11579,39250,64597,49366
6165.8,11587,39478,64543,49282
6167.8,11531,39689,64534,49211
6169.8,11439,39763,64585,49184
6171.8,11424,39958,64656,49143
6173.8,11561,40205,64790,49086
6175.8,11673,39973,65044,49073
6177.8,11579,39275,65331,49070
6179.8,11439,38852,65562,49006
6181.8,11467,38949,65807,48936
6183.8,11522,39026,66141,48961
6185.8,11458,38960,66492,49067
6187.8,11530,39265,66767,49234
6189.8,11931,39952,66943,49548
6191.8,12336,40465,67006,50069
6193.8,12420,40818,67016,50780
6195.8,12389,41524,67118,51734
6197.8,12551,42568,67277,53052
6199.8,12826,43569,67204,54710
6201.8,13060,44612,66725,56522
6203.8,13322,45897,65931,58302
6205.8,13630,47121,64843,59921
6207.8,13815,48031,63339,61256
6209.8,13841,48846,61627,62299
6211.8,13834,49575,60266,63240
6213.8,13798,49827,59452,64219
6215.8,13630,49631,58724,64997
6217.8,13373,49443,57691,65121
6219.8,13137,49286,56591,64388
6221.8,12913,48793,55891,63019
6223.8,12622,47877,55708,61364
6225.8,12195,46631,55765,59487
6227.8,11599,45081,55661,57139
6229.8,10940,43493,55258,54274
6231.8,10411,42261,54898,51370
6233.8,10046,41409,54973,48927
6235.8,9749,40799,55367,46957
6237.8,9574,40499,55797,45436
6239.8,9652,40494,56382,44694
6241.8,9923,40577,57302,44815
6243.8,10217,40672,58328,45257
6245.8,10457,40731,59212,45575
6247.8,10631,40534,60039,45895
6249.8,10755,40098,60890,46392
6251.8,10899,39801,61627,46923
6253.8,11110,39827,62161,47314
6255.8,11336,39984,62565,47557
6257.8,11515,40072,62918,47713
6259.8,11625,40062,63232,47821
6261.8,11660,40059,63437,47841
6263.8,11646,40210,63469,47725
6265.8,11642,40379,63447,47601
6267.8,11650,40138,63588,47672
6269.8,11622,39464,63868,47882
6271.8,11569,39009,64031,47964
6273.8,11549,39206,63972,47837
6275.8,11574,39613,63876,47697
6277.8,11618,39631,63935,47694
6279.8,11671,39355,64102,47753
6281.8,11731,39208,64206,47744
6283.8,11789,39241,64197,47679
6285.8,11850,39284,64185,47669
6287.8,11925,39359,64255,47746
6289.8,11981,39533,64353,47827
6291.8,11952,39650,64409,47850
6293.8,11859,39534,64455,47860
6295.8,11831,39296,64545,47921
6297.8,11942,39229,64654,48006
6299.8,12076,39391,64728,48049
6301.8,12086,39514,64776,48054
6303.8,12009,39463,64829,48068
6305.8,11981,39521,64863,48070
6307.8,11998,39846,64877,48034
6309.8,11963,40014,64980,48064
6311.8,11906,39697,65231,48254
6313.8,11928,39326,65465,48464
6315.8,11996,39401,65507,48484
6317.8,12012,39667,65452,48379
6319.8,11993,39680,65494,48363
6321.8,12004,39585,65600,48441
6323.8,12021,39672,65628,48453
6325.8,12018,39783,65610,48404
6327.8,12052,39726,65676,48437
6329.8,12147,39704,65825,48568
6331.8,12240,39865,65952,48682
6333.8,12301,39969,66035,48767
6335.8,12350,39865,66117,48898
6337.8,12388,39870,66171,49031
6339.8,12415,40235,66150,49055
6341.8,12455,40620,66129,49029
6343.8,12489,40601,66220,49105
6345.8,12484,40364,66388,49279
6347.8,12463,40327,66537,49454
6349.8,12458,40451,66690,49635
6351.8,12471,40519,66887,49836
6353.8,12537,40640,67080,49991
6355.8,12686,40917,67273,50114
6357.8,12859,41113,67565,50318
6359.8,12982,41034,67945,50600
6361.8,13060,40817,68289,50860
6363.8,13138,40684,68570,51080
6365.8,13262,40736,68872,51312
6367.8,13443,40989,69212,51540
6369.8,13606,41360,69526,51724
6371.8,13672,41658,69802,51903
6373.8,13705,41730,70113,52158
6375.8,13783,41637,70492,52480
6377.8,13838,41579,70855,52765
6379.8,13844,41660,71133,52959
6381.8,13936,41822,71371,53135
6383.8,14151,42012,71619,53353
6385.8,14342,42232,71834,53559
6387.8,14453,42456,71994,53721
6389.8,14561,42673,72150,53884
6391.8,14641,42894,72297,54036
6393.8,14625,43037,72376,54111
6395.8,14578,43043,72389,54108
6397.8,14550,43021,72371,54073
6399.8,14456,43030,72298,53999
6401.8,14304,42995,72151,53867
6403.8,14259,43024,71960,53695
6405.8,14350,43313,71758,53510
6407.8,14426,43654,71580,53344
6409.8,14433,43658,71470,53244
6411.8,14435,43369,71400,53200
6413.8,14411,43079,71272,53143
6415.8,14306,42884,71053,53024
6417.8,14198,42869,70766,52822
6419.8,14168,43116,70429,52534
6421.8,14162,43304,70109,52256
6423.8,14128,43082,69897,52103
6425.83,14080,42731,69742,52015
6427.85,13983,42647,69517,51852
6429.88,13831,42632,69247,51654
6431.9,13732,42433,69013,51523
6433.9,13723,42267,68766,51386
6435.9,13674,42255,68452,51155
6437.9,13539,42155,68155,50915
6439.9,13436,41957,67922,50737
6441.9,13410,41920,67688,50552
6443.9,13372,42009,67429,50330
6445.9,13291,42019,67196,50152
6447.9,13226,42023,66992,50034
6449.9,13206,42137,66789,49918
6451.9,13200,42237,66594,49789
6453.9,13192,42235,66424,49680
6455.9,13184,42174,66288,49610
6457.9,13155,41987,66194,49582
6459.9,13092,41678,66095,49556
6461.9,13026,41543,65920,49456
6463.9,12975,41713,65687,49277
6465.9,12917,41862,65505,49137
6467.9,12875,41755,65467,49151
6469.9,12910,41581,65546,49275
6471.9,12980,41573,65593,49337
6473.9,12985,41747,65485,49231
6475.9,12947,41980,65299,49063
6477.9,12952,42018,65232,49021
6479.9,12958,41734,65304,49105
6481.9,12890,41444,65330,49138
6483.9,12808,41444,65238,49071
6485.9,12804,41482,65182,49054
6487.9,12852,41310,65252,49144
6489.9,12876,41195,65322,49204
6491.9,12882,41305,65310,49178
6493.9,12911,41392,65281,49170
6495.9,12944,41442,65230,49174
6497.9,12932,41673,65100,49089
6499.9,12881,41913,64973,48980
6501.9,12832,41919,64927,48945
6503.9,12786,41936,64849,48885
6505.9,12751,42091,64716,48766
6507.9,12759,42011,64715,48778
6509.9,12790,41643,64838,48941
6511.9,12789,41504,64838,49014
6513.9,12795,41722,64715,48955
6515.9,12871,41878,64693,48957
6517.9,12987,41937,64742,48999
6519.9,13075,42242,64662,48904
6521.9,13091,42553,64538,48760
6523.9,13013,42272,64584,48804
6525.9,12921,41602,64722,48988
6527.9,12927,41331,64722,49065
6529.9,12953,41507,64585,48995
6531.9,12855,41509,64488,48959
6533.9,12743,41283,64472,49006
6535.9,12783,41304,64426,48985
6537.9,12845,41526,64319,48837
6539.9,12754,41500,64241,48705
6541.9,12640,41290,64214,48681
6543.9,12687,41329,64158,48674
6545.9,12815,41603,64051,48611
6547.9,12863,41727,63963,48549
6549.9,12820,41580,63916,48530
6551.9,12763,41383,63881,48520
6553.9,12747,41293,63851,48509
6555.9,12780,41272,63825,48495
6557.9,12808,41244,63760,48434
6559.9,12782,41225,63657,48328
6561.9,12736,41265,63571,48252
6563.9,12712,41330,63517,48223
6565.9,12653,41327,63443,48179
6567.9,12560,41334,63322,48102
6569.9,12595,41652,63189,48024
6571.9,12808,42299,63102,47954
6573.9,12945,42603,63114,47940
6575.9,12831,41966,63238,48076
6577.9,12690,40918,63394,48316
6579.9,12792,40544,63469,48457
6581.9,13031,40937,63443,48422
6583.9,13150,41252,63390,48350
6585.9,13095,41151,63359,48327
6587.9,12968,41084,63320,48270
6589.9,12878,41272,63238,48147
6591.9,12891,41432,63141,48059
6593.9,12951,41406,63070,48055
6595.9,12936,41315,63022,48058
6597.9,12858,41232,62976,48016
6599.9,12820,41142,62942,47977
6601.9,12812,41101,62913,47966
6603.9,12785,41140,62863,47949
6605.9,12814,41191,62820,47930
6607.9,12934,41223,62833,47943
6609.9,13008,41291,62862,47957
6611.9,12964,41412,62821,47913
6613.9,12931,41546,62716,47821
6615.9,12974,41656,62633,47745
6617.9,12993,41637,62636,47751
6619.9,12961,41403,62739,47854
6621.9,12977,41161,62868,47966
6623.9,13031,41212,62896,47962
6625.9,13007,41389,62819,47880
6627.9,12903,41275,62780,47883
6629.9,12811,40954,62815,47975
6631.9,12744,40847,62808,47997
6633.9,12672,40964,62740,47917
6635.9,12655,41055,62718,47860
6637.9,12732,41153,62736,47856
6639.9,12813,41346,62695,47815
6641.9,12840,41454,62618,47741
6643.9,12882,41411,62602,47719
6645.9,12979,41436,62643,47761
6647.9,13052,41580,62674,47806
6649.9,13042,41635,62684,47835
6651.9,12984,41547,62690,47867
6653.9,12935,41478,62699,47920
6655.9,12958,41547,62704,47986
6657.9,13072,41738,62686,48018
6659.9,13157,41887,62638,47990
6661.9,13106,41771,62627,47971
6663.9,13017,41479,62687,48022
6665.9,13036,41466,62698,48049
6667.9,13112,41903,62561,47944
6669.9,13130,42318,62427,47832
6671.9,13122,42247,62492,47904
6673.9,13150,41846,62674,48084
6675.9,13170,41509,62769,48174
6677.9,13141,41307,62791,48180
6679.9,13099,41123,62844,48214
6681.9,13069,40977,62882,48245
6683.9,13053,40941,62868,48224
6685.9,13080,40996,62916,48250
6687.9,13159,41142,63075,48385
6689.9,13237,41409,63219,48527
6691.9,13265,41687,63276,48604
6693.9,13267,41817,63317,48669
6695.9,13277,41858,63386,48751
6697.9,13277,41973,63448,48794
6699.9,13256,42096,63477,48791
6701.9,13247,42059,63475,48791
6703.9,13263,41925,63454,48804
6705.9,13257,41849,63436,48804
6707.9,13240,41850,63425,48788
6709.9,13309,41956,63382,48764
6711.9,13461,42206,63295,48728
6713.9,13558,42419,63226,48706
6715.93,13576,42451,63213,48720
6717.95,13639,42524,63204,48736
6719.98,13732,42727,63165,48743
6722.0,13698,42683,63174,48809
6724.0,13550,42316,63261,48949
6726.0,13463,42182,63322,49058
6728.0,13472,42449,63318,49097
6730.0,13479,42554,63351,49141
6732.0,13491,42351,63411,49182
6734.0,13580,42439,63353,49130
6736.0,13690,42914,63204,49033
6738.0,13701,43029,63155,49031
6740.0,13627,42535,63212,49093
6742.0,13591,42152,63195,49062
6744.0,13626,42321,63046,48914
6746.0,13660,42582,62873,48775
6748.0,13651,42525,62774,48733
6750.0,13604,42353,62778,48776
6752.0,13513,42295,62819,48819
6754.0,13405,42260,62764,48782
6756.0,13345,42147,62619,48695
6758.0,13302,41968,62561,48674
6760.0,13194,41736,62656,48743
6762.0,13082,41526,62794,48838
6764.0,13105,41482,62906,48926
6766.0,13212,41663,62965,48953
6768.0,13254,41984,62891,48849
6770.0,13255,42190,62762,48719
6772.0,13316,42067,62783,48771
6774.0,13378,41851,62884,48917
6776.0,13337,41992,62798,48886
6778.0,13249,42335,62601,48729
6780.0,13212,42330,62588,48725
6782.0,13205,42012,62718,48851
6784.0,13199,41817,62763,48910
6786.0,13239,41711,62790,48964
6788.0,13319,41499,62935,49137
6790.0,13355,41418,63060,49293
6792.0,13340,41572,63043,49305
6794.0,13319,41581,63011,49302
6796.0,13277,41358,63044,49369
6798.0,13212,41335,63048,49397
6800.0,13192,41612,62996,49335
6802.0,13199,41833,62910,49247
6804.0,13128,41901,62763,49140
6806.0,13012,41953,62643,49047
6808.0,12981,41877,62747,49102
6810.0,13024,41586,63044,49321
6812.0,13066,41356,63318,49528
6814.0,13148,41349,63553,49620
6816.0,13315,41360,63859,49645
6818.0,13493,41332,64160,49613
6820.0,13623,41402,64384,49527
6822.0,13700,41431,64672,49518
6824.0,13676,41279,65089,49660
6826.0,13580,41264,65464,49848
6828.0,13632,41604,65712,50054
6830.0,13962,41967,65885,50415
6832.0,14358,42220,65961,50971
6834.0,14531,42729,65990,51675
6836.0,14515,43501,66187,52650
6838.0,14583,44232,66475,54018
6840.0,14854,45256,66403,55605
6842.0,15192,47027,65843,57192
6844.0,15459,48910,65149,58808
6846.0,15665,50014,64407,60422
6848.0,15823,50609,63310,61765
6850.0,15883,51388,61924,62763
6852.0,15886,52249,60731,63695
6854.0,15934,52847,59802,64684
6856.0,15952,53212,58758,65413
6858.0,15757,53214,57565,65515
6860.0,15370,52620,56595,64889
6862.0,14968,51745,55991,63644
6864.0,14571,50943,55623,61992
6866.0,14045,49894,55436,60082
6868.0,13374,48321,55346,57862
6870.0,12710,46679,55176,55301
6872.0,12185,45430,54997,52680
6874.0,11785,44498,55061,50358
6876.0,11442,43840,55354,48476
6878.0,11188,43633,55710,47170
6880.0,11155,43696,56224,46661
6882.0,11369,43532,57040,46856
6884.0,11685,43025,58012,47275
6886.0,11964,42492,58935,47630
6888.0,12191,42178,59792,48017
6890.0,12389,42129,60573,48491
6892.0,12582,42310,61221,48936
6894.0,12823,42504,61824,49341
6896.0,13101,42430,62464,49758
6898.0,13277,42155,62986,50055
6900.0,13278,41942,63261,50114
6902.0,13231,41797,63440,50086
6904.0,13269,41642,63652,50135
6906.0,13342,41645,63780,50174
6908.0,13363,41868,63776,50134
6910.0,13370,42038,63814,50150
6912.0,13414,42026,63953,50274
6914.0,13447,42012,64047,50351
6916.0,13426,42011,64055,50332
6918.0,13370,41837,64101,50357
6920.0,13318,41562,64199,50458
6922.0,13314,41457,64242,50509
6924.0,13386,41564,64226,50485
6926.0,13470,41730,64246,50493
6928.0,13495,41861,64349,50588
6930.0,13488,41874,64528,50739
6932.0,13493,41705,64738,50906
6934.0,13499,41523,64881,51028
6936.0,13520,41579,64908,51066
6938.0,13583,41826,64924,51082
6940.0,13650,42087,65015,51137
6942.0,13695,42386,65125,51180
6944.0,13749,42634,65220,51195
6946.0,13797,42504,65384,51292
6948.0,13806,42114,65624,51493
6950.0,13838,42064,65802,51642
6952.0,13911,42393,65861,51658
6954.0,13911,42490,65897,51654
6956.0,13841,42243,65989,51723
6958.0,13871,42164,66110,51818
6960.0,14003,42322,66214,51870
6962.0,14017,42301,66277,51888
6964.0,13856,42083,66306,51929
6966.0,13717,42008,66350,52037
6968.0,13692,42099,66463,52204
6970.0,13681,42130,66641,52388
6972.0,13671,42086,66828,52570
6974.0,13777,42124,66996,52770
6976.0,13979,42339,67135,52963
6978.0,14112,42727,67222,53064
6980.0,14144,43105,67285,53093
6982.0,14220,43196,67437,53203
6984.0,14401,43043,67699,53449
6986.0,14552,43014,67937,53693
6988.0,14564,43166,68100,53847
6990.0,14504,43161,68313,53996
6992.0,14494,42987,68612,54186
6994.0,14548,43034,68859,54331
6996.0,14603,43307,69032,54424
6998.0,14658,43387,69278,54582
7000.0,14766,43251,69626,54821
7002.0,14905,43326,69932,55010
7004.0,14995,43705,70138,55109
7006.03,15045,44006,70368,55257
7008.05,15150,44025,70721,55567
7010.08,15325,43969,71134,55951
7012.1,15472,44046,71485,56257
7014.1,15549,44179,71759,56487
7016.1,15647,44197,72067,56761
7018.1,15811,44122,72464,57113
7020.1,15936,44124,72844,57441
7022.1,15960,44242,73094,57668
7024.1,15991,44357,73261,57836
7026.1,16095,44455,73421,57981
7028.1,16166,44646,73539,58078
7030.1,16154,44907,73589,58150
7032.1,16165,45079,73647,58269
7034.1,16218,45121,73733,58394
7036.1,16210,45149,73780,58423
7038.1,16175,45245,73803,58395
7040.1,16235,45401,73861,58416
7042.1,16355,45605,73882,58442
7044.1,16407,45856,73762,58367
7046.1,16403,46093,73566,58239
7048.1,16422,46223,73413,58146
7050.1,16413,46190,73303,58063
7052.1,16261,45965,73211,57967
7054.1,16000,45595,73153,57913
7056.1,15818,45327,73066,57873
7058.1,15792,45336,72851,57739
7060.1,15759,45360,72570,57540
7062.1,15579,45130,72346,57392
7064.1,15389,44952,72144,57270
7066.1,15358,45132,71890,57099
7068.1,15393,45297,71655,56949
7070.1,15342,45109,71492,56881
7072.1,15277,44936,71319,56810
7074.1,15313,45066,71118,56691
7076.1,15371,45170,70981,56601
7078.1,15354,45049,70894,56560
7080.1,15316,44914,70767,56509
7082.1,15286,44820,70594,56424
7084.1,15186,44707,70391,56286
7086.1,15017,44740,70129,56066
7088.1,14888,44896,69870,55853
7090.1,14816,44844,69729,55777
7092.1,14738,44617,69654,55786
7094.1,14663,44523,69522,55749
7096.1,14617,44397,69404,55721
7098.1,14565,43956,69419,55794
7100.1,14490,43622,69432,55838
7102.1,14415,43912,69241,55680
7104.1,14338,44416,68976,55452
7106.1,14280,44404,68937,55437
7108.1,14292,43976,69120,55643
7110.1,14319,43769,69238,55815
7112.1,14274,43960,69178,55828
7114.1,14221,44210,69083,55783
7116.1,14234,44277,69044,55771
7118.1,14235,44211,69023,55776
7120.1,14183,44141,69002,55786
7122.1,14186,44107,69000,55817
7124.1,14263,44042,69009,55858
7126.1,14283,43919,69025,55896
7128.1,14209,43837,69048,55928
7130.1,14118,43846,69043,55936
7132.1,14035,43825,69005,55913
7134.1,13971,43755,68997,55911
7136.1,13998,43803,69047,55967
7138.1,14106,43964,69092,56027
7140.1,14174,44015,69092,56029
7142.1,14152,43951,69074,55994
7144.1,14113,43966,69058,55982
7146.1,14103,44046,69043,56003
7148.1,14088,44081,69024,56004
7150.1,14041,44148,68973,55950
7152.1,13973,44245,68894,55897
7154.1,13914,44139,68871,55931
7156.1,13851,43854,68924,56015
7158.1,13752,43744,68930,56006
7160.1,13669,43875,68855,55911
7162.1,13720,43936,68857,55916
7164.1,13879,43818,68982,56067
7166.1,13948,43693,69056,56182
7168.1,13861,43616,69015,56174
7170.1,13785,43544,68996,56169
7172.1,13803,43515,69040,56217
7174.1,13775,43495,69031,56221
7176.1,13657,43398,68966,56170
7178.1,13613,43351,68934,56150
7180.1,13692,43505,68906,56134
7182.1,13716,43687,68802,56030
7184.1,13634,43697,68674,55883
7186.1,13593,43638,68625,55832
7188.1,13628,43617,68664,55898
7190.1,13624,43570,68714,55978
7192.1,13597,43551,68721,55998
7194.1,13655,43673,68708,55993
7196.1,13730,43814,68717,56006
7198.1,13691,43863,68715,55973
7200.1,13594,43926,68646,55848
7202.1,13553,43935,68579,55752
7204.1,13517,43620,68628,55803
7206.1,13416,43104,68749,55923
7208.1,13331,42821,68797,55974
7210.1,13323,42848,68725,55948
7212.1,13309,42966,68599,55883
7214.1,13251,43113,68512,55811
7216.1,13222,43239,68515,55792
7218.1,13237,43232,68553,55821
7220.1,13234,43185,68548,55822
7222.1,13209,43198,68552,55817
7224.1,13190,43111,68632,55879
7226.1,13174,42966,68684,55929
7228.1,13169,43111,68610,55863
7230.1,13184,43403,68533,55799
7232.1,13196,43288,68599,55885
7234.1,13221,42880,68733,56047
7236.1,13280,42809,68789,56130
7238.1,13298,43046,68755,56112
7240.1,13219,43076,68708,56053
7242.1,13151,42900,68705,56010
7244.1,13184,42790,68767,56046
7246.1,13212,42626,68859,56155
7248.1,13139,42331,68903,56224
7250.1,13049,42209,68889,56203
7252.1,13009,42356,68873,56166
7254.1,12959,42496,68859,56151
7256.1,12898,42529,68820,56121
7258.1,12917,42514,68812,56117
7260.1,12978,42374,68888,56198
7262.1,12943,42179,68954,56259
7264.1,12840,42224,68906,56187
7266.1,12834,42503,68827,56082
7268.1,12947,42691,68844,56089
7270.1,13041,42697,68905,56146
7272.1,13041,42711,68893,56133
7274.1,12999,42800,68831,56093
7276.1,12967,42850,68825,56121
7278.1,12946,42787,68886,56193
7280.1,12938,42688,68931,56229
7282.1,12954,42691,68941,56228
7284.1,12978,42766,68977,56239
7286.1,12965,42721,69047,56266
7288.1,12909,42544,69082,56280
7290.1,12880,42406,69076,56293
7292.1,12912,42344,69097,56333
7294.1,12925,42319,69129,56365
7296.13,12863,42412,69100,56340
7298.15,12802,42601,69029,56299
7300.18,12817,42704,68996,56301
7302.2,12860,42724,69014,56321
7304.2,12879,42794,69063,56333
7306.2,12894,42886,69119,56348
7308.2,12912,42977,69122,56341
7310.2,12901,43099,69072,56300
7312.2,12864,43080,69073,56318
7314.2,12837,42864,69136,56400
7316.2,12824,42848,69128,56395
7318.2,12822,43128,69084,56319
7320.2,12829,43084,69206,56400
7322.2,12822,42497,69452,56624
7324.2,12790,42078,69532,56694
7326.2,12746,42199,69390,56544
7328.2,12706,42289,69292,56448
7330.2,12684,42057,69391,56555
7332.2,12686,42027,69541,56699
7334.2,12681,42442,69601,56747
7336.2,12648,42821,69657,56790
7338.2,12627,42907,69811,56918
7340.2,12654,43006,69977,57038
7342.2,12692,43243,70031,57049
7344.2,12730,43409,70025,57023
7346.2,12818,43498,70064,57063
7348.2,12928,43582,70132,57136
7350.2,12955,43455,70192,57191
7352.2,12896,43045,70273,57259
7354.2,12858,42689,70369,57344
7356.2,12863,42586,70406,57381
7358.2,12854,42573,70377,57361
7360.2,12867,42567,70353,57356
7362.2,12982,42636,70373,57402
7364.2,13144,42736,70417,57463
7366.2,13187,42790,70457,57500
7368.2,13060,42843,70456,57498
7370.2,12887,42994,70396,57461
7372.2,12795,43282,70326,57428
7374.2,12791,43587,70313,57446
7376.2,12813,43698,70335,57486
7378.2,12825,43649,70323,57489
7380.2,12808,43630,70283,57473
7382.2,12758,43501,70280,57508
7384.2,12730,43047,70334,57601
7386.2,12804,42601,70399,57678
7388.2,12934,42625,70383,57662
7390.2,12973,42900,70223,57536
7392.2,12887,42876,70032,57419
7394.2,12796,42530,70023,57465
7396.2,12774,42261,70170,57622
7398.2,12767,42244,70201,57648
7400.2,12724,42340,70027,57466
7402.2,12676,42420,69844,57259
7404.2,12630,42462,69797,57176
7406.2,12549,42451,69844,57194
7408.2,12443,42396,69930,57250
7410.2,12383,42358,70039,57307
7412.2,12404,42344,70108,57328
7414.2,12434,42326,70066,57278
7416.2,12385,42372,69924,57151
7418.2,12272,42527,69757,56995
7420.2,12205,42638,69645,56903
7422.2,12247,42571,69627,56916
7424.2,12307,42458,69674,56957
7426.2,12259,42448,69710,56951
7428.2,12136,42458,69688,56921
7430.2,12066,42405,69645,56916
7432.2,12063,42382,69663,56944
7434.2,12052,42363,69772,57024
7436.2,12035,42151,69925,57184
7438.2,12058,41792,70061,57380
7440.2,12097,41628,70149,57510
7442.2,12108,41766,70187,57534
7444.2,12100,41908,70200,57493
7446.2,12081,41892,70210,57429
7448.2,12068,41904,70211,57377
7450.2,12113,41983,70216,57397
7452.2,12193,41909,70268,57488
7454.2,12187,41727,70355,57545
7456.2,12061,41699,70450,57524
7458.2,11932,41717,70604,57517
7460.2,11900,41531,70835,57537
7462.2,11961,41365,71020,57453
7464.2,12054,41451,71139,57295
7466.2,12088,41445,71388,57278
7468.2,12048,41132,71840,57454
7470.2,12057,40963,72322,57693
7472.2,12241,41243,72729,57976
7474.2,12590,41676,73065,58349
7476.2,13007,42024,73236,58758
7478.2,13363,42385,73235,59238
7480.2,13546,42910,73322,59960
7482.2,13602,43800,73622,60958
7484.2,13739,45071,73899,62182
7486.2,14053,46264,73951,63714
7488.2,14414,47170,73784,65495
7490.2,14689,48304,73304,67105
7492.2,14864,49797,72362,68285
7494.2,14929,50897,71130,69263
7496.2,14884,51344,69986,70269
7498.2,14802,51758,69070,71218
7500.2,14713,52225,68235,72012
7502.2,14515,52217,67274,72533
7504.2,14154,51931,66079,72370
7506.2,13744,51883,64815,71251
7508.2,13359,51562,63936,69594
7510.2,12900,50204,63691,67943
7512.2,12262,48227,63706,66147
7514.2,11502,46512,63443,63792
7516.2,10788,45217,62925,61075
7518.2,10286,44205,62588,58596
7520.2,10035,43570,62610,56647
7522.2,9892,43215,62824,55228
7524.2,9750,42873,63139,54389
7526.2,9717,42581,63654,54156
7528.2,9908,42434,64407,54322
7530.2,10209,42302,65254,54569
7532.2,10469,42158,66026,54742
7534.2,10709,42084,66735,54958
7536.2,10966,42006,67478,55375
7538.2,11171,41963,68173,55879
7540.2,11295,42138,68650,56214
7542.2,11375,42291,68988,56393
7544.2,11429,42021,69400,56619
7546.2,11480,41573,69862,56876
7548.2,11553,41404,70184,57002
7550.2,11589,41337,70341,57013
7552.2,11551,41067,70462,57058
7554.2,11557,40800,70644,57194
7556.2,11680,40778,70859,57354
7558.2,11780,40939,70962,57394
7560.2,11753,41178,70881,57261
7562.2,11712,41304,70808,57147
7564.2,11764,41126,70914,57214
7566.2,11843,40915,71044,57297
7568.2,11865,41000,71042,57233
7570.2,11833,41092,71049,57179
7572.2,11782,40963,71145,57250
7574.2,11768,41049,71189,57302
7576.2,11821,41443,71201,57318
7578.2,11859,41521,71330,57436
7580.2,11799,41202,71465,57566
7582.2,11717,41070,71459,57555
7584.2,11713,41082,71494,57562
7586.23,11760,40806,71705,57733
7588.25,11817,40587,71859,57878
7590.28,11918,40883,71821,57873
7592.3,12029,41235,71811,57900
7594.3,12056,41196,71949,58031
7596.3,12013,41128,72063,58101
7598.3,11977,41235,72077,58074
7600.3,11956,41200,72107,58081
7602.3,11965,41121,72184,58117
7604.3,12058,41362,72244,58099
7606.3,12168,41604,72318,58094
7608.3,12167,41418,72461,58189
7610.3,12121,41219,72588,58302
7612.3,12182,41492,72606,58333
7614.3,12293,41857,72596,58352
7616.3,12289,41769,72715,58491
7618.3,12204,41359,72976,58748
7620.3,12163,41010,73231,58979
7622.3,12146,40819,73362,59068
7624.3,12103,40782,73407,59056
7626.3,12113,40990,73449,59060
7628.3,12225,41383,73491,59111
7630.3,12338,41679,73540,59199
7632.3,12399,41708,73673,59367
7634.3,12475,41644,73883,59596
7636.3,12564,41695,74071,59781
7638.3,12621,41773,74244,59923
7640.3,12694,41742,74489,60122
7642.3,12800,41705,74747,60342
7644.3,12838,41774,74911,60468
7646.3,12795,41889,75051,60549
7648.3,12822,42034,75261,60691
7650.3,12972,42210,75500,60874
7652.3,13153,42304,75745,61074
7654.3,13316,42371,76032,61311
7656.3,13470,42628,76318,61542
7658.3,13593,42921,76571,61741
7660.3,13705,42930,76875,61981
7662.3,13868,42906,77219,62235
7664.3,14065,43232,77471,62380
7666.3,14211,43579,77661,62474
7668.3,14288,43563,77902,62657
7670.3,14354,43561,78118,62855
7672.3,14461,43882,78239,62976
7674.3,14610,44098,78426,63159
7676.3,14754,43969,78736,63466
7678.3,14823,43897,78950,63691
7680.3,14775,44019,78977,63728
7682.3,14641,43989,78977,63720
7684.3,14516,43792,79010,63744
7686.3,14473,43753,78976,63724
7688.3,14468,43846,78880,63659
7690.3,14409,43786,78815,63613
7692.3,14304,43567,78785,63585
7694.3,14233,43428,78741,63534
7696.3,14207,43508,78649,63442
7698.3,14194,43709,78497,63301
7700.3,14206,43799,78333,63151
7702.3,14232,43699,78219,63035
7704.3,14208,43648,78085,62893
7706.3,14143,43845,77826,62653
7708.3,14118,44073,77514,62393
7710.3,14118,44051,77285,62221
7712.3,14053,43867,77118,62098
7714.3,13932,43686,76943,61962
7716.3,13833,43432,76791,61849
7718.3,13743,43095,76667,61763
7720.3,13615,42901,76481,61620
7722.3,13486,42905,76224,61419
7724.3,13394,42862,75994,61250
7726.3,13293,42659,75820,61137
7728.3,13166,42501,75630,61005
7730.3,13065,42591,75380,60801
7732.3,12987,42799,75131,60582
7734.3,12870,42757,74974,60467
7736.3,12732,42355,74912,60478
7738.3,12639,41974,74855,60496
7740.3,12583,41916,74754,60442
7742.3,12532,41953,74657,60379
7744.3,12502,41823,74588,60360
7746.3,12489,41682,74524,60343
7748.3,12458,41719,74454,60293
7750.3,12453,41945,74345,60196
7752.3,12540,42343,74154,60038
7754.3,12637,42678,73974,59895
7756.3,12605,42573,73931,59871
7758.3,12462,42209,73939,59893
7760.3,12363,42166,73848,59834
7762.3,12386,42399,73739,59770
7764.3,12459,42362,73751,59818
7766.3,12463,42011,73821,59903
7768.3,12375,41715,73852,59930
7770.3,12291,41585,73866,59931
7772.3,12290,41605,73838,59898
7774.3,12330,41814,73712,59776
7776.3,12321,41996,73585,59648
7778.3,12244,41867,73579,59633
7780.3,12140,41563,73634,59679
7782.3,12059,41351,73650,59714
7784.3,12037,41201,73655,59776
7786.3,12044,41047,73672,59853
7788.3,12026,40982,73647,59847
7790.3,11990,40981,73597,59775
7792.3,11986,40939,73571,59732
7794.3,12028,40995,73529,59696
7796.3,12100,41303,73435,59599
7798.3,12169,41589,73359,59507
7800.3,12191,41523,73343,59501
7802.3,12164,41379,73293,59493
7804.3,12134,41662,73137,59361
7806.3,12101,42171,72953,59177
7808.3,12019,42217,72875,59113
7810.3,11925,41735,72918,59189
7812.3,11901,41295,72989,59267
7814.3,11942,41088,73029,59290
7816.3,11972,40864,73047,59309
7818.3,11958,40665,73033,59317
7820.3,11902,40656,72963,59263
7822.3,11817,40638,72889,59190
7824.3,11738,40506,72863,59148
7826.3,11709,40562,72834,59078
7828.3,11747,40878,72742,58954
7830.3,11830,41106,72640,58870
7832.3,11887,41066,72595,58880
7834.3,11866,40896,72597,58908
7836.3,11827,40830,72582,58871
7838.3,11875,41120,72495,58750
7840.3,11965,41619,72375,58612
7842.3,11954,41661,72348,58579
7844.3,11850,41084,72440,58678
7846.3,11788,40632,72503,58764
7848.3,11779,40629,72468,58760
7850.3,11704,40487,72437,58750
7852.3,11533,40047,72432,58755
7854.3,11375,39888,72355,58686
7856.3,11290,40051,72239,58575
7858.3,11236,40043,72193,58533
