t,lead_I,lead_II,v3,v4
1.1,14677,-100816,114833,119716
3.1,14318,-100791,114393,119327
5.1,13434,-101090,114616,119571
7.1,13162,-101235,115166,120182
9.1,13950,-100972,115386,120501
11.1,14849,-100653,115437,120607
13.1,15339,-100438,115620,120779
15.1,15714,-100248,115731,120864
17.1,15965,-100140,115586,120711
19.1,15810,-100069,115379,120489
21.1,15320,-99893,115360,120428
23.1,14740,-99711,115588,120594
25.1,14291,-99616,115956,120911
27.1,14261,-99510,116300,121266
29.1,14673,-99498,116540,121590
31.1,15205,-99727,116677,121807
33.1,15722,-99874,116690,121826
35.1,16239,-99632,116541,121652
37.1,16426,-99298,116245,121373
39.1,16010,-99171,115916,121081
41.1,15329,-99092,115741,120912
43.1,14794,-99015,115805,120964
45.1,14418,-99138,115997,121145
47.1,14278,-99353,116166,121276
49.1,14589,-99384,116263,121303
51.1,15186,-99283,116288,121249
53.1,15682,-99208,116259,121143
55.1,15959,-99125,116190,121010
57.1,15967,-99081,116029,120817
59.1,15555,-99214,115752,120504
61.1,14900,-99410,115496,120181
63.13,14446,-99489,115423,120056
65.15,14293,-99586,115511,120138
67.18,14237,-99862,115629,120229
69.2,14324,-100059,115693,120203
71.2,14769,-99876,115678,120106
73.2,15403,-99533,115575,120003
75.2,15725,-99465,115375,119856
77.2,15525,-99685,115076,119606
79.2,15064,-99892,114755,119330
81.2,14594,-100014,114561,119197
83.2,14138,-100204,114562,119253
85.2,13842,-100461,114655,119368
87.2,13932,-100607,114702,119411
89.2,14242,-100562,114689,119389
91.2,14490,-100390,114697,119408
93.2,14864,-100160,114688,119455
95.2,15463,-99959,114484,119328
97.2,15679,-99955,114123,119006
99.2,15127,-100231,113920,118802
101.2,14359,-100603,113939,118839
103.2,13882,-100782,113894,118834
105.2,13589,-100697,113796,118737
107.2,13506,-100498,113981,118888
109.2,13862,-100332,114371,119279
111.2,14431,-100268,114543,119506
113.2,14857,-100267,114488,119515
115.2,15156,-100166,114486,119548
117.2,15277,-99876,114513,119549
119.2,14990,-99574,114434,119377
121.2,14434,-99483,114368,119224
123.2,13969,-99577,114433,119267
125.2,13698,-99700,114556,119389
127.2,13648,-99778,114660,119465
129.2,13885,-99777,114698,119520
131.2,14255,-99657,114661,119589
133.2,14568,-99481,114658,119696
135.2,14837,-99393,114729,119794
137.2,14942,-99419,114687,119721
139.2,14663,-99422,114471,119478
141.2,14215,-99318,114312,119333
143.2,14018,-99202,114329,119409
145.2,14079,-99168,114375,119531
147.2,14223,-99153,114397,119601
149.2,14503,-99072,114490,119711
151.2,14885,-98971,114621,119866
153.2,15098,-98943,114673,119950
155.2,15092,-99006,114615,119912
157.2,15117,-99104,114443,119761
159.2,15181,-99145,114151,119530
161.2,14962,-99117,113872,119342
163.2,14383,-99150,113824,119341
165.2,13884,-99295,114024,119500
167.2,13887,-99344,114227,119613
169.2,14249,-99148,114250,119585
171.2,14547,-98907,114207,119568
173.2,14701,-98868,114212,119658
175.2,14856,-98991,114116,119661
177.2,14905,-99138,113830,119446
179.2,14675,-99284,113558,119211
181.2,14343,-99414,113417,119097
183.2,14135,-99516,113275,118977
185.2,13953,-99664,113149,118829
187.2,13697,-99893,113176,118801
189.2,13575,-100113,113225,118838
191.2,13772,-100291,113111,118761
193.2,14146,-100475,112949,118591
195.2,14409,-100615,112873,118470
197.2,14379,-100613,112787,118457
199.2,14104,-100557,112637,118518
201.2,13773,-100655,112516,118498
203.23,13498,-100916,112451,118276
205.25,13326,-101077,112401,118004
207.28,13379,-100959,112374,117925
209.3,13659,-100830,112367,118017
211.3,13922,-101051,112355,118133
213.3,14075,-101372,112358,118238
215.3,14258,-101250,112371,118297
217.3,14400,-100829,112297,118217
219.3,14309,-100748,112114,118047
221.3,14124,-101073,112009,117987
223.3,14035,-101363,112110,118110
225.3,13914,-101523,112239,118259
227.3,13766,-101674,112255,118327
229.3,13889,-101650,112365,118416
231.3,14243,-101397,112617,118516
233.3,14411,-101262,112636,118346
235.3,14301,-101404,112368,117857
237.3,14135,-101593,112324,117445
239.3,13924,-101749,112664,117345
241.3,13612,-101974,112937,117308
243.3,13389,-102162,112889,117106
245.3,13370,-102231,112701,116914
247.3,13406,-102379,112599,117152
249.3,13495,-102534,112796,118105
251.3,13876,-102189,113314,119562
253.3,14557,-101246,113739,120993
255.3,15229,-100295,113675,122259
257.3,15675,-99669,113186,123617
259.3,15909,-99024,112369,125025
261.3,15966,-98135,111202,126201
263.3,15817,-97319,109966,127175
265.3,15475,-96838,108982,127954
267.3,15072,-96579,108024,128087
269.3,14794,-96477,106798,127284
271.3,14674,-96690,105645,125967
273.3,14547,-97261,105050,124703
275.3,14319,-98089,104919,123455
277.3,14055,-99209,104863,121634
279.3,13666,-100624,104792,118920
281.3,12960,-101949,104900,116067
283.3,12175,-102736,105345,114421
285.3,11917,-103050,106111,114390
287.3,12347,-103251,107032,115062
289.3,12971,-103396,107900,115574
291.3,13364,-103332,108615,115941
293.3,13567,-103137,109199,116341
295.3,13679,-102991,109667,116609
297.3,13610,-102869,109999,116681
299.3,13392,-102697,110258,116787
301.3,13279,-102524,110569,117054
303.3,13372,-102364,110926,117363
305.3,13506,-102155,111201,117608
307.3,13605,-101936,111377,117798
309.3,13794,-101787,111548,117943
311.3,14102,-101635,111706,118002
313.3,14337,-101375,111793,117975
315.3,14328,-101099,111874,117947
317.3,14096,-100973,111995,117987
319.3,13792,-101021,112063,118081
321.3,13565,-101146,112107,118227
323.3,13469,-101218,112297,118447
325.3,13450,-101153,112562,118663
327.3,13451,-101046,112650,118746
329.3,13515,-101056,112577,118734
331.3,13725,-101111,112556,118757
333.3,14074,-101009,112584,118791
335.3,14441,-100780,112533,118743
337.3,14648,-100591,112443,118669
339.3,14512,-100466,112407,118687
341.3,14082,-100396,112440,118814
343.33,13759,-100448,112560,119018
345.35,13823,-100569,112790,119265
347.38,13987,-100562,113044,119485
349.4,13910,-100371,113181,119592
351.4,13759,-100195,113164,119564
353.4,13748,-100244,113097,119474
355.4,13706,-100421,113085,119401
357.4,13573,-100424,113085,119343
359.4,13576,-100238,113019,119287
361.4,13680,-100173,112976,119275
363.4,13670,-100223,113082,119326
365.4,13702,-100064,113273,119422
367.4,13962,-99763,113399,119560
369.4,14175,-99697,113437,119693
371.4,14139,-99793,113457,119739
373.4,14151,-99721,113489,119730
375.4,14396,-99587,113514,119751
377.4,14618,-99600,113578,119811
379.4,14635,-99579,113785,119953
381.4,14555,-99440,114063,120226
383.4,14446,-99460,114166,120460
385.4,14268,-99625,114104,120524
387.4,14055,-99573,114167,120612
389.4,13924,-99346,114417,120881
391.4,14005,-99284,114667,121169
393.4,14283,-99311,114861,121321
395.4,14506,-99183,114970,121336
397.4,14495,-99049,114939,121310
399.4,14427,-99068,114998,121520
401.4,14478,-99053,115334,122077
403.4,14549,-98904,115589,122504
405.4,14644,-98741,115509,122417
407.4,14930,-98524,115523,122221
409.4,15269,-98204,115898,122376
411.4,15329,-98030,116224,122664
413.4,15158,-98150,116249,122782
415.4,15025,-98321,116241,122823
417.4,14962,-98325,116294,122851
419.4,14927,-98234,116238,122780
421.4,14944,-98174,116131,122676
423.4,14864,-98185,116128,122643
425.4,14593,-98241,116179,122619
427.4,14451,-98203,116214,122561
429.4,14685,-97990,116254,122514
431.4,14982,-97783,116237,122432
433.4,15042,-97787,116082,122248
435.4,15008,-97925,115902,122062
437.4,14989,-98032,115867,122030
439.4,14861,-98098,115923,122126
441.4,14670,-98112,115888,122158
443.4,14532,-97975,115742,122033
445.4,14301,-97807,115654,121876
447.4,13930,-97916,115691,121816
449.4,13734,-98285,115706,121785
451.4,13866,-98537,115616,121702
453.4,14049,-98573,115520,121641
455.4,14094,-98636,115457,121624
457.4,14137,-98710,115324,121538
459.4,14272,-98553,115107,121379
461.4,14397,-98292,114917,121262
463.4,14423,-98271,114823,121213
465.4,14362,-98472,114826,121226
467.4,14295,-98683,114906,121336
469.4,14316,-98862,114987,121437
471.4,14388,-98944,115004,121351
473.4,14334,-98842,114999,121157
475.4,14113,-98781,115015,121125
477.4,13897,-98960,115032,121311
479.4,13789,-99088,115028,121495
481.4,13710,-98906,114979,121474
483.43,13653,-98694,114903,121297
485.45,13709,-98682,114919,121218
487.48,13832,-98657,115056,121321
489.5,13895,-98539,115130,121400
491.5,13923,-98536,115086,121357
493.5,14014,-98568,115113,121368
495.5,14153,-98418,115254,121455
497.5,14244,-98309,115342,121447
499.5,14213,-98481,115388,121430
501.5,14085,-98638,115527,121621
503.5,13993,-98593,115698,121894
505.5,13954,-98691,115796,122005
507.5,13834,-98947,115873,122012
509.5,13731,-98855,115926,122038
511.5,13886,-98459,115889,122062
513.5,14131,-98318,115888,122163
515.5,14134,-98317,116063,122462
517.5,14036,-97969,116213,122725
519.5,14068,-97550,116091,122616
521.5,14002,-97575,115890,122332
523.5,13703,-97786,115940,122350
525.5,13563,-97791,116134,122621
527.5,13814,-97812,116204,122747
529.5,14116,-98020,116253,122766
531.5,14159,-98088,116430,122908
533.5,14057,-97838,116484,122942
535.5,13986,-97535,116261,122638
537.5,13950,-97417,116060,122327
539.5,13960,-97471,116030,122311
541.5,14080,-97607,115966,122428
543.5,14244,-97708,115853,122560
545.5,14349,-97628,115851,122730
547.5,14413,-97353,115915,122791
549.5,14392,-97120,116024,122726
551.5,14128,-97180,116249,122750
553.5,13765,-97435,116361,122768
555.5,13727,-97549,116121,122547
557.5,14033,-97462,115833,122333
559.5,14228,-97450,115822,122386
561.5,14113,-97665,115889,122442
563.5,13931,-97969,115851,122342
565.5,13838,-98207,115866,122333
567.5,13770,-98374,115929,122409
569.5,13753,-98513,115836,122313
571.5,13896,-98658,115643,122116
573.5,14109,-98875,115517,121980
575.5,14146,-99192,115404,121782
577.5,13967,-99467,115249,121533
579.5,13832,-99491,115177,121547
581.5,13931,-99326,115247,121840
583.5,14101,-99314,115313,122021
585.5,14068,-99609,115262,121909
587.5,13811,-99941,115208,121762
589.5,13536,-100022,115313,121840
591.5,13431,-99920,115503,122065
593.5,13531,-99831,115546,122184
595.5,13720,-99723,115413,122087
597.5,13884,-99528,115261,121872
599.5,14045,-99412,115161,121707
601.5,14215,-99515,115134,121723
603.5,14238,-99674,115250,121928
605.5,14031,-99720,115440,122189
607.5,13837,-99735,115535,122370
609.5,13894,-99776,115548,122423
611.5,13997,-99787,115576,122293
613.5,13816,-99858,115590,122017
615.5,13454,-100084,115605,121827
617.5,13245,-100288,115749,121846
619.5,13213,-100327,116002,121879
621.6,13169,-100359,116215,121763
623.6,13156,-100437,116375,121564
625.6,13366,-100365,116508,121379
627.6,13715,-100204,116563,121399
629.6,13912,-100263,116614,121956
631.6,13959,-100401,116834,123049
633.6,14156,-100124,117187,124319
635.6,14534,-99461,117462,125741
637.6,14819,-98895,117517,127555
639.6,15039,-98400,117227,129453
641.6,15425,-97527,116488,130851
643.6,15724,-96394,115454,131846
645.6,15559,-95574,114383,132804
647.6,15246,-95118,113210,133281
649.6,15171,-94712,111765,132568
651.6,14937,-94559,110356,131009
653.6,14256,-95133,109553,129662
655.6,13715,-96351,109377,128719
657.6,13662,-97726,109269,127225
659.6,13541,-99018,108939,124571
661.6,13083,-100182,108726,121557
663.6,12860,-101053,109013,119533
665.6,13133,-101585,109750,118896
667.6,13424,-102038,110668,118995
669.6,13509,-102516,111614,119265
671.6,13690,-102751,112555,119739
673.6,13998,-102668,113413,120434
675.6,14070,-102596,114054,121004
677.6,13894,-102595,114477,121316
679.6,13886,-102315,114901,121720
681.6,14174,-101785,115417,122311
683.6,14401,-101484,115803,122604
685.6,14299,-101516,115951,122413
687.6,14072,-101548,116080,122251
689.6,14052,-101501,116294,122430
691.6,14191,-101523,116485,122664
693.6,14184,-101486,116673,122765
695.6,13990,-101161,116872,122851
697.6,13857,-100675,116972,122946
699.6,13841,-100393,117105,123072
701.6,13773,-100494,117476,123327
703.6,13694,-100837,117806,123558
705.6,13808,-101117,117770,123541
707.6,14067,-101144,117636,123416
709.6,14259,-100983,117679,123374
711.6,14377,-100804,117702,123341
713.6,14517,-100643,117643,123336
715.6,14576,-100430,117761,123504
717.6,14383,-100208,118058,123763
719.6,14019,-100118,118331,123998
721.6,13743,-100133,118569,124272
723.6,13679,-100086,118754,124531
725.6,13761,-99987,118761,124621
727.6,13897,-99965,118706,124634
729.6,14017,-99959,118790,124707
731.6,14044,-99869,118894,124719
733.6,14004,-99831,118837,124593
735.6,14065,-99896,118749,124469
737.6,14286,-99807,118809,124442
739.6,14481,-99515,118920,124505
741.6,14461,-99352,118910,124611
743.6,14300,-99402,118827,124610
745.6,14146,-99419,118885,124447
747.6,13968,-99435,119133,124352
749.6,13791,-99609,119340,124480
751.6,13899,-99685,119377,124695
753.6,14364,-99467,119451,124914
755.6,14759,-99319,119680,125176
757.6,14790,-99449,119831,125403
759.6,14661,-99477,119780,125540
761.7,14546,-99241,119751,125662
763.7,14420,-99081,119901,125749
765.7,14395,-99099,120163,125788
767.7,14479,-99113,120474,125974
769.7,14412,-99248,120746,126359
771.7,14260,-99600,120855,126695
773.7,14441,-99693,120917,126924
775.7,14944,-99145,121152,127212
777.7,15339,-98428,121463,127486
779.7,15406,-98223,121619,127577
781.7,15161,-98463,121667,127592
783.7,14823,-98585,121776,127664
785.7,14893,-98392,121951,127736
787.7,15460,-98170,122147,127800
789.7,15819,-98200,122339,127890
791.7,15609,-98426,122439,127921
793.7,15389,-98535,122460,127942
795.7,15398,-98355,122584,128181
797.7,15080,-98103,122824,128539
799.7,14398,-98029,122948,128610
801.7,14098,-98019,122926,128415
803.7,14397,-97906,122976,128397
805.7,14783,-97777,123049,128518
807.7,15046,-97670,122891,128308
809.7,15311,-97477,122683,127884
811.7,15403,-97332,122805,127793
813.7,15138,-97475,123036,127893
815.7,14798,-97772,122892,127645
817.7,14707,-97963,122524,127241
819.7,14805,-98095,122363,127174
821.7,14860,-98287,122367,127296
823.7,14734,-98448,122309,127286
825.7,14490,-98462,122193,127210
827.7,14387,-98364,122087,127093
829.7,14555,-98276,122085,126904
831.7,14791,-98321,122238,126855
833.7,14885,-98508,122255,126940
835.7,14840,-98688,121895,126845
837.7,14678,-98746,121517,126628
839.7,14459,-98695,121430,126516
841.7,14408,-98598,121355,126340
843.7,14569,-98577,121190,126062
845.7,14613,-98785,121243,126045
847.7,14382,-99143,121435,126267
849.7,14196,-99299,121452,126374
851.7,14280,-99109,121446,126411
853.7,14394,-98922,121573,126491
855.7,14323,-99066,121567,126375
857.7,14250,-99313,121361,126040
859.7,14365,-99279,121225,125796
861.7,14512,-99067,121182,125737
863.7,14469,-99022,121154,125833
865.7,14284,-99166,121275,126124
867.7,14177,-99320,121506,126360
869.7,14273,-99388,121590,126243
871.7,14495,-99316,121557,126039
873.7,14633,-99204,121612,126135
875.7,14555,-99313,121696,126363
877.7,14399,-99544,121688,126443
879.7,14403,-99435,121665,126494
881.7,14593,-98995,121700,126643
883.7,14799,-98681,121793,126737
885.7,14876,-98539,121956,126706
887.7,14781,-98392,122140,126731
889.7,14570,-98514,122244,126888
891.7,14398,-98984,122266,126987
893.73,14433,-99115,122244,126891
895.75,14683,-98600,122172,126729
897.78,14907,-98197,122067,126633
899.8,14810,-98427,121985,126560
901.8,14476,-98790,121960,126542
903.8,14369,-98835,121996,126691
905.8,14701,-98727,122063,126895
907.8,15111,-98518,122154,127017
909.8,15214,-98062,122347,127224
911.8,15036,-97601,122613,127547
913.8,14770,-97461,122722,127628
915.8,14547,-97538,122584,127361
917.8,14459,-97668,122406,127059
919.8,14482,-97887,122317,126820
921.8,14476,-98051,122258,126602
923.8,14392,-98005,122243,126654
925.8,14313,-98010,122315,127036
927.8,14369,-98250,122382,127325
929.8,14641,-98365,122370,127347
931.8,14985,-98093,122310,127312
933.8,15080,-97755,122192,127135
935.8,14948,-97704,122033,126640
937.8,14995,-97908,121936,126178
939.8,15276,-98185,121913,126167
941.8,15325,-98376,121892,126471
943.8,14914,-98399,121914,126785
945.8,14359,-98394,122058,127040
947.8,14041,-98544,122209,127135
949.8,14083,-98758,122150,126858
951.8,14354,-98928,121867,126318
953.8,14531,-99239,121620,126004
955.8,14426,-99757,121572,126145
957.8,14255,-100101,121526,126352
959.8,14302,-100003,121338,126273
961.8,14492,-99779,121238,126138
963.8,14578,-99800,121326,126189
965.8,14507,-99980,121303,126188
967.8,14399,-100113,121070,125937
969.8,14312,-100264,120930,125634
971.8,14221,-100512,121011,125489
973.8,14199,-100698,121132,125537
975.8,14383,-100667,121154,125725
977.8,14633,-100541,121065,125870
979.8,14611,-100549,120969,125911
981.8,14342,-100679,121018,126029
983.8,14216,-100695,121111,126138
985.8,14341,-100512,121026,125930
987.8,14455,-100332,120899,125618
989.8,14443,-100344,120946,125648
991.8,14427,-100525,121025,125821
993.8,14477,-100741,121011,125727
995.8,14553,-100842,121050,125520
997.8,14592,-100768,121186,125518
999.8,14560,-100688,121400,125680
1001.8,14535,-100843,121772,125797
1003.8,14560,-101221,122128,125675
1005.8,14422,-101596,122182,125292
1007.8,13972,-101816,122128,125010
1009.8,13534,-101841,122291,125223
1011.8,13524,-101672,122530,125914
1013.8,13855,-101399,122682,126911
1015.8,14163,-101098,122918,128184
1017.8,14456,-100655,123285,129743
1019.8,15038,-99910,123529,131530
1021.8,15882,-98942,123326,133259
1023.8,16525,-98036,122437,134471
1025.8,16675,-97413,121075,135190
1027.8,16520,-97063,119827,135853
1029.8,16328,-96797,118687,136192
1031.8,16127,-96482,117123,135501
1033.83,15854,-96260,115472,134112
1035.85,15492,-96427,114688,132936
1037.88,15077,-97118,114601,131795
1039.9,14716,-98212,114234,129905
1041.9,14422,-99496,113608,127331
1043.9,14045,-100737,113508,124719
1045.9,13641,-101711,114014,122573
1047.9,13557,-102361,114652,121409
1049.9,13825,-102837,115333,121477
1051.9,14084,-103253,116223,122258
1053.9,14235,-103536,117240,123046
1055.9,14440,-103621,118158,123646
1057.9,14500,-103618,118870,124097
1059.9,14126,-103639,119383,124379
1061.9,13676,-103549,119765,124556
1063.9,13770,-103115,120085,124704
1065.9,14290,-102471,120343,124807
1067.9,14548,-102101,120464,124900
1069.9,14352,-102124,120417,125029
1071.9,14195,-102112,120338,125114
1073.9,14363,-101851,120408,125117
1075.9,14551,-101628,120596,125151
1077.9,14474,-101557,120758,125285
1079.9,14253,-101396,120903,125452
1081.9,14065,-101129,121102,125610
1083.9,13936,-101035,121292,125818
1085.9,13895,-101215,121417,126084
1087.9,13951,-101489,121525,126247
1089.9,14013,-101657,121627,126178
1091.9,14017,-101665,121698,126001
1093.9,14011,-101601,121782,125940
1095.9,14074,-101503,121920,126081
1097.9,14227,-101292,122063,126374
1099.9,14343,-101036,122110,126652
1101.9,14280,-100944,122063,126734
1103.9,14188,-100952,122082,126678
1105.9,14321,-100807,122247,126645
1107.9,14547,-100600,122389,126552
1109.9,14583,-100635,122435,126393
1111.9,14524,-100874,122557,126485
1113.9,14533,-101026,122690,126820
1115.9,14469,-100989,122529,126893
1117.9,14322,-100853,122198,126588
1119.9,14338,-100714,122091,126321
1121.9,14462,-100676,122187,126273
1123.9,14466,-100770,122257,126366
1125.9,14544,-100839,122294,126608
1127.9,14892,-100756,122276,126860
1129.9,15154,-100622,122166,126909
1131.9,15059,-100530,122172,126885
1133.9,14887,-100466,122330,126939
1135.9,14776,-100516,122355,126945
1137.9,14553,-100710,122293,126940
1139.9,14438,-100752,122461,127055
1141.9,14789,-100491,122741,127115
1143.9,15245,-100310,122880,127136
1145.9,15186,-100456,123027,127505
1147.9,14759,-100584,123305,128098
1149.9,14537,-100478,123578,128392
1151.9,14579,-100357,123847,128465
1153.9,14581,-100260,124087,128614
1155.9,14518,-100070,124084,128620
1157.9,14585,-99991,123989,128461
1159.9,14799,-100120,124191,128610
1161.9,14962,-100113,124532,129030
1163.9,14928,-99920,124675,129253
1165.9,14790,-99967,124811,129368
1167.9,14787,-100201,125117,129687
1169.9,14984,-100070,125304,129987
1171.9,15191,-99566,125279,130005
1173.93,15284,-99253,125293,129873
1175.95,15350,-99307,125358,129716
1177.98,15431,-99374,125341,129567
1180.0,15478,-99226,125326,129534
1182.0,15551,-99005,125349,129588
1184.0,15699,-98917,125311,129592
1186.0,15776,-98924,125278,129606
1188.0,15690,-98832,125337,129661
1190.0,15579,-98676,125366,129550
1192.0,15480,-98749,125278,129219
1194.0,15254,-99066,125157,128908
1196.0,15005,-99256,125059,128758
1198.0,15022,-99162,124979,128688
1200.0,15216,-99046,124884,128612
1202.0,15187,-99122,124712,128535
1204.0,14898,-99318,124528,128538
1206.0,14739,-99447,124486,128615
1208.0,14873,-99415,124531,128571
1210.0,15027,-99383,124469,128303
1212.0,14995,-99606,124308,128005
1214.0,14920,-99953,124136,127806
1216.0,14936,-100034,123909,127600
1218.0,14904,-99899,123656,127421
1220.0,14709,-99953,123535,127435
1222.0,14497,-100165,123536,127510
1224.0,14411,-100172,123511,127370
1226.0,14401,-100029,123472,127112
1228.0,14418,-100085,123532,127035
1230.0,14447,-100354,123584,127096
1232.0,14390,-100597,123441,127015
1234.0,14270,-100692,123233,126794
1236.0,14325,-100654,123208,126635
1238.0,14561,-100650,123216,126466
1240.0,14629,-100927,123019,126205
1242.0,14482,-101350,122905,126232
1244.0,14484,-101441,123140,126759
1246.0,14632,-101158,123326,127161
1248.0,14495,-100941,123188,126938
1250.0,14076,-100906,123169,126568
1252.0,13866,-100825,123499,126576
1254.0,14064,-100744,123781,126769
1256.0,14440,-100792,123860,126892
1258.0,14705,-100782,123926,126960
1260.0,14609,-100685,123917,126909
1262.0,14210,-100766,123795,126801
1264.0,14035,-100870,123820,126915
1266.0,14334,-100539,123987,127171
1268.0,14616,-99937,123989,127201
1270.0,14547,-99648,123843,127010
1272.0,14497,-99744,123794,126883
1274.0,14666,-99960,123869,126922
1276.0,14725,-100263,123944,127051
1278.0,14615,-100539,123918,127153
1280.0,14643,-100459,123788,127187
1282.0,14767,-100087,123713,127251
1284.0,14708,-99853,123763,127321
1286.0,14543,-99864,123746,127226
1288.0,14474,-99956,123593,127082
1290.0,14445,-100102,123494,127139
1292.0,14462,-100191,123510,127263
1294.0,14664,-99971,123544,127257
1296.0,14860,-99590,123566,127226
1298.0,14698,-99501,123525,127163
1300.0,14343,-99701,123406,126958
1302.0,14272,-99796,123371,126860
1304.0,14481,-99748,123423,127033
1306.0,14584,-99817,123335,127134
1308.0,14534,-99940,123163,127009
1310.0,14594,-99852,123132,126921
1312.1,14782,-99672,123121,126842
1314.1,14862,-99740,122991,126616
1316.1,14787,-100001,122952,126514
1318.1,14762,-100121,123040,126659
1320.1,14852,-100072,122969,126656
1322.1,14807,-100071,122757,126389
1324.1,14521,-100120,122661,126238
1326.1,14335,-100112,122668,126319
1328.1,14485,-100166,122669,126418
1330.1,14647,-100403,122673,126437
1332.1,14582,-100681,122582,126324
1334.1,14538,-100863,122341,126059
1336.1,14545,-101065,122171,125820
1338.1,14279,-101439,122162,125711
1340.1,13979,-101878,122094,125594
1342.1,14210,-102087,121900,125447
1344.1,14644,-101983,121738,125392
1346.1,14518,-101908,121659,125410
1348.1,14038,-102165,121644,125448
1350.1,13905,-102527,121694,125502
1352.1,14031,-102670,121703,125470
1354.1,13987,-102742,121617,125333
1356.1,13962,-102884,121585,125311
1358.1,14223,-102783,121661,125466
1360.1,14439,-102391,121698,125590
1362.1,14290,-102281,121626,125611
1364.1,14036,-102672,121504,125590
1366.1,14003,-102987,121380,125462
1368.1,14103,-102850,121320,125238
1370.1,14158,-102569,121398,125139
1372.1,14206,-102440,121551,125221
1374.1,14330,-102423,121634,125271
1376.1,14478,-102512,121597,125188
1378.1,14502,-102746,121544,125117
1380.1,14297,-103019,121597,125095
1382.1,13984,-103219,121718,124934
1384.1,13890,-103312,121807,124590
1386.1,14084,-103310,121905,124292
1388.1,14167,-103355,122024,124114
1390.1,13896,-103599,122062,123977
1392.1,13688,-103825,122154,124192
1394.1,14026,-103631,122537,125148
1396.1,14704,-103044,122998,126511
1398.1,15163,-102448,123220,127741
1400.1,15291,-101993,123356,129021
1402.1,15436,-101531,123455,130662
1404.1,15820,-100982,123016,132310
1406.1,16312,-100377,121837,133547
1408.1,16674,-99708,120423,134441
1410.1,16750,-99014,119161,135047
1412.1,16498,-98457,117879,135102
1414.1,16017,-98174,116403,134352
1416.1,15487,-98204,115009,132916
1418.1,14997,-98615,114164,131334
1420.1,14558,-99522,113886,129911
1422.1,14148,-100900,113661,128097
1424.1,13605,-102462,113305,125378
1426.1,12886,-103819,113282,122503
1428.1,12509,-104797,113770,120698
1430.1,13001,-105473,114389,120222
1432.1,13750,-105892,115126,120610
1434.1,13567,-106035,116260,121447
1436.1,12644,-106035,117441,122245
1438.1,12534,-105946,118021,122521
1440.1,13802,-105520,118067,122352
1442.1,15172,-104819,118154,122252
1444.13,15468,-104505,118572,122538
1446.15,14991,-104783,119148,123066
1448.18,14576,-104870,119558,123427
1450.2,14521,-104325,119704,123451
1452.2,14722,-103840,119807,123424
1454.2,14957,-103943,119976,123532
1456.2,14966,-104144,120045,123544
1458.2,14747,-104038,119998,123402
1460.2,14548,-103918,120027,123411
1462.2,14446,-103885,120166,123666
1464.2,14342,-103617,120385,124001
1466.2,14276,-103194,120730,124366
1468.2,14315,-103041,121070,124676
1470.2,14329,-103156,121207,124731
1472.2,14252,-103242,121223,124588
1474.2,14242,-103264,121237,124490
1476.2,14346,-103327,121177,124493
1478.2,14362,-103411,121074,124537
1480.2,14209,-103452,121048,124568
1482.2,14111,-103402,121027,124503
1484.2,14247,-103260,120993,124435
1486.2,14464,-103158,121135,124613
1488.2,14487,-103196,121418,124952
1490.2,14287,-103275,121571,125115
1492.2,14088,-103269,121566,125059
1494.2,14082,-103167,121547,124936
1496.2,14283,-103008,121514,124757
1498.2,14542,-102880,121461,124569
1500.2,14598,-102862,121446,124520
1502.2,14330,-102830,121420,124576
1504.2,14089,-102644,121328,124610
1506.2,14333,-102461,121267,124651
1508.2,14828,-102477,121349,124760
1510.2,14832,-102591,121564,124906
1512.2,14219,-102707,121745,124998
1514.2,13650,-102948,121677,124921
1516.2,13546,-103210,121449,124752
1518.2,13703,-103089,121430,124793
1520.2,13952,-102570,121640,125068
1522.2,14364,-102160,121712,125234
1524.2,14806,-102158,121629,125241
1526.2,15003,-102339,121734,125386
1528.2,14976,-102452,122026,125651
1530.2,14951,-102498,122224,125730
1532.2,14987,-102486,122313,125641
1534.2,15008,-102367,122451,125672
1536.2,14954,-102228,122601,125878
1538.2,14813,-102188,122663,126076
1540.2,14686,-102174,122765,126235
1542.2,14723,-102063,123107,126552
1544.2,14868,-101903,123565,127031
1546.2,14928,-101814,123763,127329
1548.2,14911,-101804,123657,127284
1550.2,14963,-101766,123615,127187
1552.2,15086,-101590,123785,127255
1554.2,15222,-101335,123929,127337
1556.2,15383,-101244,123927,127325
1558.2,15497,-101404,123868,127306
1560.2,15441,-101552,123804,127339
1562.2,15274,-101462,123810,127454
1564.2,15132,-101245,123924,127622
1566.2,15061,-101067,123960,127648
1568.2,15122,-100915,123794,127448
1570.2,15311,-100801,123616,127208
1572.2,15373,-100825,123559,127008
1574.2,15164,-100945,123517,126740
1576.2,14981,-101005,123422,126430
1578.2,15020,-101019,123310,126188
1580.2,14980,-101182,123212,126042
1582.2,14710,-101496,123186,126044
1584.23,14627,-101641,123213,126147
1586.25,14970,-101438,123120,126111
1588.28,15297,-101209,122884,125883
1590.3,15156,-101319,122663,125656
1592.3,14788,-101619,122474,125437
1594.3,14748,-101755,122264,125148
1596.3,15095,-101724,122128,124969
1598.3,15288,-101701,122110,125001
1600.3,14947,-101728,122130,125067
1602.3,14410,-101851,122174,125100
1604.3,14202,-102133,122164,125111
1606.3,14265,-102411,121943,124946
1608.3,14218,-102474,121662,124664
1610.3,14095,-102429,121611,124579
1612.3,14168,-102489,121666,124646
1614.3,14312,-102608,121568,124558
1616.3,14283,-102642,121447,124413
1618.3,14326,-102598,121452,124444
1620.3,14751,-102511,121400,124490
1622.3,15181,-102382,121221,124404
1624.3,15001,-102300,121131,124393
1626.3,14342,-102336,121224,124559
1628.3,13899,-102366,121371,124693
1630.3,13930,-102272,121434,124646
1632.3,14094,-102201,121371,124501
1634.3,14130,-102325,121289,124413
1636.3,14109,-102488,121328,124442
1638.3,14105,-102419,121411,124515
1640.3,14101,-102158,121395,124560
1642.3,14158,-101949,121355,124631
1644.3,14335,-101840,121391,124762
1646.3,14512,-101736,121458,124891
1648.3,14564,-101694,121523,124978
1650.3,14550,-101774,121550,124975
1652.3,14547,-101819,121457,124839
1654.3,14532,-101762,121363,124727
1656.3,14509,-101806,121444,124809
1658.3,14460,-101964,121552,124920
1660.3,14275,-101927,121494,124856
1662.3,14063,-101659,121380,124728
1664.3,14151,-101490,121298,124643
1666.3,14392,-101533,121203,124574
1668.3,14222,-101632,121218,124615
1670.3,13770,-101700,121380,124754
1672.3,13821,-101664,121396,124701
1674.3,14387,-101470,121231,124479
1676.3,14657,-101335,121249,124498
1678.3,14494,-101429,121456,124725
1680.3,14462,-101534,121462,124723
1682.3,14481,-101531,121256,124520
1684.3,14071,-101617,121143,124485
1686.3,13582,-101743,121104,124555
1688.3,13714,-101694,120954,124459
1690.3,14298,-101658,120823,124334
1692.3,14698,-101774,120890,124400
1694.3,14751,-101620,120963,124450
1696.3,14601,-101084,120775,124228
1698.3,14321,-100862,120464,123925
1700.3,14015,-101290,120327,123828
1702.3,13731,-101754,120341,123868
1704.3,13416,-101828,120319,123880
1706.3,13236,-101894,120243,123888
1708.3,13434,-102250,120130,123849
1710.3,13781,-102603,119956,123658
1712.3,13917,-102696,119842,123461
1714.33,14021,-102675,119843,123400
1716.35,14363,-102740,119739,123306
1718.38,14620,-102913,119447,123090
1720.4,14457,-103104,119198,122923
1722.4,14215,-103179,119092,122829
1724.4,14289,-103128,119054,122746
1726.4,14436,-103117,119098,122796
1728.4,14295,-103220,119152,122909
1730.4,14018,-103352,119086,122831
1732.4,13857,-103575,119078,122732
1734.4,13708,-103951,119267,122897
1736.4,13446,-104211,119322,123029
1738.4,13268,-104157,119070,122827
1740.4,13390,-104042,118835,122589
1742.4,13690,-104041,118758,122563
1744.4,13886,-103946,118693,122595
1746.4,13898,-103747,118711,122634
1748.4,13884,-103728,118876,122708
1750.4,13959,-103864,118983,122702
1752.4,14039,-103944,118997,122658
1754.4,14017,-104062,119020,122647
1756.4,13928,-104330,118926,122452
1758.4,13797,-104579,118758,122087
1760.4,13542,-104704,118875,121942
1762.4,13237,-104782,119236,121950
1764.4,13151,-104813,119467,121715
1766.4,13350,-104776,119609,121424
1768.4,13622,-104722,119847,121436
1770.4,13856,-104665,119987,121558
1772.4,14039,-104634,119969,121723
1774.4,14043,-104652,120086,122343
1776.4,13918,-104515,120399,123459
1778.4,14036,-104035,120721,124706
1780.4,14488,-103420,120962,126084
1782.4,14959,-102877,120882,127673
1784.4,15398,-102217,120159,129169
1786.4,15945,-101350,119018,130451
1788.4,16232,-100585,117971,131706
1790.4,15838,-100099,116960,132638
1792.4,15176,-99734,115592,132604
1794.4,14865,-99447,113953,131568
1796.4,14725,-99483,112590,130126
1798.4,14373,-100047,111878,128787
1800.4,14071,-101064,111722,127562
1802.4,14051,-102286,111724,125965
1804.4,13868,-103594,111653,123539
1806.4,13254,-104967,111681,120747
1808.4,12761,-106102,112040,118786
1810.4,12854,-106601,112649,118191
1812.4,13143,-106638,113320,118380
1814.4,13117,-106780,114091,118765
1816.4,12998,-107064,114998,119305
1818.4,13218,-107022,115765,119847
1820.4,13564,-106609,116175,120080
1822.4,13528,-106294,116521,120238
1824.4,13226,-106243,117128,120737
1826.4,13214,-106113,117690,121259
1828.4,13555,-105698,117786,121252
1830.4,13838,-105225,117646,120946
1832.4,13929,-104961,117693,120867
1834.4,13967,-104947,117894,120984
1836.4,13930,-105064,118079,121073
1838.4,13837,-105081,118238,121158
1840.4,13892,-104826,118331,121269
1842.4,14001,-104519,118388,121412
1844.4,13789,-104549,118531,121647
1846.4,13310,-104822,118619,121801
1848.4,13007,-104813,118446,121643
1850.4,13028,-104340,118252,121381
1852.5,13185,-103818,118355,121340
1854.5,13312,-103709,118656,121497
1856.5,13304,-104054,118928,121716
1858.5,13257,-104502,119029,121866
1860.5,13524,-104707,118883,121766
1862.5,14070,-104639,118732,121611
1864.5,14297,-104429,118941,121855
1866.5,14036,-104122,119312,122331
1868.5,13763,-103859,119383,122446
1870.5,13552,-103910,119238,122220
1872.5,13171,-104178,119196,122088
1874.5,13084,-104202,119201,122100
1876.5,13738,-103907,119128,122093
1878.5,14404,-103731,119031,122029
1880.5,14310,-103875,118928,121879
1882.5,13964,-104079,118881,121770
1884.5,14036,-104117,118998,121929
1886.5,14199,-103978,119126,122156
1888.5,14076,-103745,119093,122129
1890.5,13967,-103593,119094,122057
1892.5,14076,-103633,119250,122188
1894.5,14182,-103698,119348,122273
1896.5,14190,-103601,119359,122221
1898.5,14191,-103432,119449,122317
1900.5,14176,-103322,119516,122525
1902.5,14137,-103246,119449,122592
1904.5,14145,-103210,119447,122635
1906.5,14148,-103256,119606,122806
1908.5,13977,-103334,119785,122945
1910.5,13592,-103426,119971,123015
1912.5,13252,-103595,120175,123137
1914.5,13367,-103699,120222,123192
1916.5,13937,-103494,120134,123101
1918.5,14364,-103095,120220,123139
1920.5,14295,-102842,120537,123445
1922.5,14234,-102722,120802,123733
1924.5,14607,-102487,120892,123805
1926.5,14895,-102203,120969,123842
1928.5,14598,-102135,121134,124007
1930.5,14218,-102270,121252,124139
1932.5,14350,-102434,121172,124042
1934.5,14683,-102570,121015,123891
1936.5,14757,-102604,121046,124021
1938.5,14741,-102443,121254,124355
1940.5,14778,-102212,121347,124481
1942.5,14601,-102090,121231,124292
1944.5,14270,-102037,121089,124054
1946.5,14243,-102051,121027,123922
1948.5,14454,-102246,120991,123836
1950.5,14409,-102431,120966,123767
1952.5,14186,-102262,120969,123716
1954.5,14261,-101946,120962,123638
1956.5,14547,-101984,120923,123544
1958.5,14597,-102283,120897,123513
1960.5,14420,-102352,120915,123553
1962.5,14292,-102134,120929,123568
1964.5,14198,-101970,120852,123481
1966.5,14018,-102040,120676,123305
1968.5,13859,-102259,120491,123085
1970.5,13832,-102441,120387,122868
1972.5,13871,-102454,120396,122750
1974.5,13878,-102368,120442,122758
1976.5,13747,-102347,120391,122736
1978.5,13341,-102407,120265,122615
1980.5,12821,-102480,120186,122518
1982.5,12736,-102555,120039,122397
1984.53,13283,-102581,119672,122119
1986.55,13872,-102537,119377,121917
1988.58,13998,-102577,119453,122013
1990.6,13918,-102723,119618,122117
1992.6,13893,-102738,119576,122017
1994.6,13679,-102641,119523,121973
1996.6,13305,-102765,119534,122005
1998.6,13294,-103032,119324,121795
2000.6,13689,-103012,118911,121446
2002.6,13944,-102771,118648,121332
2004.6,13859,-102750,118640,121438
2006.6,13696,-102950,118747,121585
2008.6,13598,-103122,118845,121734
2010.6,13627,-103326,118864,121808
2012.6,13849,-103531,118900,121818
2014.6,13970,-103349,119057,121902
2016.6,13659,-102744,119111,121913
2018.6,13320,-102282,118891,121657
2020.6,13522,-102340,118746,121472
2022.6,13841,-102698,118925,121657
2024.6,13570,-102976,119119,121892
2026.6,13149,-102957,119128,121956
2028.6,13425,-102637,119153,122078
2030.6,14062,-102271,119256,122272
2032.6,14206,-102178,119333,122300
2034.6,13957,-102341,119383,122194
2036.6,13854,-102446,119355,122055
2038.6,13827,-102311,119197,121844
2040.6,13685,-102098,119119,121708
2042.6,13618,-102028,119226,121832
2044.6,13601,-102048,119302,122070
2046.6,13366,-102012,119305,122246
2048.6,13153,-102036,119400,122374
2050.6,13376,-102261,119464,122368
2052.6,13685,-102433,119298,122130
2054.6,13460,-102324,119056,121849
2056.6,13000,-102173,118916,121726
2058.6,13066,-102120,118828,121722
2060.6,13530,-101884,118780,121751
2062.6,13680,-101528,118780,121743
2064.6,13542,-101557,118730,121659
2066.6,13642,-101912,118685,121663
2068.6,13839,-102042,118798,121888
2070.6,13645,-101961,118942,122094
2072.6,13262,-102040,118957,122084
2074.6,13173,-102118,118974,122054
2076.6,13197,-101957,119029,122084
2078.6,12928,-101934,118880,121930
2080.6,12552,-102309,118516,121581
2082.6,12521,-102616,118205,121320
2084.6,12837,-102504,118037,121226
2086.6,13097,-102381,117965,121213
2088.6,12971,-102663,118023,121275
2090.6,12588,-103124,118077,121264
2092.6,12506,-103410,117856,120955
2094.6,13008,-103561,117454,120525
2096.6,13538,-103721,117221,120339
2098.6,13413,-103832,117136,120297
2100.6,12840,-103827,116955,120133
2102.6,12496,-103771,116830,120071
2104.6,12488,-103702,117026,120365
2106.6,12528,-103599,117272,120618
2108.6,12595,-103535,117186,120450
2110.6,12687,-103688,117016,120216
2112.6,12557,-104021,117122,120257
2114.63,12306,-104154,117266,120277
2116.65,12394,-103891,117138,120077
2118.68,12745,-103645,116913,119919
2120.7,12825,-103797,116810,119913
2122.7,12666,-104062,116832,120010
2124.7,12660,-104105,116977,120299
2126.7,12620,-104102,117088,120548
2128.7,12253,-104143,116910,120343
2130.7,12018,-104010,116639,119968
2132.7,12334,-103828,116629,119937
2134.7,12733,-103938,116709,119971
2136.7,12755,-104199,116653,119724
2138.7,12670,-104352,116709,119558
2140.7,12681,-104552,116989,119611
2142.7,12584,-104818,117240,119477
2144.7,12457,-104820,117408,119159
2146.7,12488,-104660,117516,118947
2148.7,12360,-104861,117390,118736
2150.7,11946,-105320,117162,118591
2152.7,11884,-105325,117267,119057
2154.7,12471,-104704,117694,120179
2156.7,13111,-103961,118103,121413
2158.7,13536,-103318,118387,122613
2160.7,14121,-102555,118414,124033
2162.7,14741,-101729,117839,125596
2164.7,14857,-101173,116663,126975
2166.7,14588,-100821,115341,128031
2168.7,14404,-100310,114103,128711
2170.7,14294,-99617,112752,128848
2172.7,14156,-99042,111264,128366
2174.7,14145,-98800,110089,127491
2176.7,14153,-99096,109565,126522
2178.7,13853,-100145,109430,125420
2180.7,13267,-101797,109335,123883
2182.7,12558,-103646,109334,121731
2184.7,11722,-105460,109408,119097
2186.7,11161,-106829,109384,116620
2188.7,11598,-106969,109632,115346
2190.7,12742,-105958,110658,115667
2192.7,13248,-105251,111935,116560
2194.7,12672,-105774,112576,116884
2196.7,12043,-106602,112840,116854
2198.7,12012,-106633,113476,117211
2200.7,12119,-106140,114280,117827
2202.7,12141,-105792,114674,118210
2204.7,12366,-105573,114840,118423
2206.7,12537,-105341,115163,118668
2208.7,12253,-105264,115466,118791
2210.7,11977,-105367,115527,118717
2212.7,12182,-105402,115536,118663
2214.7,12353,-105252,115660,118724
2216.7,12051,-105018,115790,118769
2218.7,11804,-104795,115862,118766
2220.7,11923,-104639,115948,118801
2222.7,11763,-104642,116047,118890
2224.7,11137,-104760,116085,119011
2226.7,11087,-104682,116068,119177
2228.7,12114,-104295,116088,119360
2230.7,13003,-104011,116211,119459
2232.7,12701,-104107,116381,119445
2234.7,11977,-104184,116470,119431
2236.7,11868,-103927,116451,119525
2238.7,11994,-103695,116449,119696
2240.7,11751,-103813,116531,119825
2242.7,11521,-104065,116598,119858
2244.7,11626,-104219,116576,119820
2246.7,11739,-104247,116559,119750
2248.7,11883,-104004,116660,119708
2250.7,12394,-103451,116813,119739
2252.7,12915,-103029,116846,119762
2254.73,12871,-103122,116742,119669
2256.75,12456,-103462,116696,119592
2258.78,12131,-103574,116835,119732
2260.8,11956,-103445,116958,119935
2262.8,11991,-103312,116816,119887
2264.8,12368,-103176,116542,119674
2266.8,12766,-102996,116467,119615
2268.8,12748,-102941,116585,119683
2270.8,12473,-103054,116668,119671
2272.8,12362,-103132,116786,119718
2274.8,12418,-103131,117093,120019
2276.8,12435,-103178,117320,120304
2278.8,12434,-103188,117195,120283
2280.8,12543,-102982,116991,120163
2282.8,12792,-102608,117011,120177
2284.8,13167,-102274,117113,120221
2286.8,13512,-102220,117170,120278
2288.8,13509,-102532,117291,120465
2290.8,13072,-102870,117456,120671
2292.8,12614,-102832,117614,120829
2294.8,12589,-102586,117847,121091
2296.8,12897,-102477,117999,121313
2298.8,13066,-102403,117837,121209
2300.8,12994,-102206,117644,121036
2302.8,13080,-102036,117813,121168
2304.8,13437,-101927,118179,121446
2306.8,13514,-101767,118449,121691
2308.8,13044,-101649,118641,121982
2310.8,12691,-101643,118730,122132
2312.8,12972,-101612,118665,121985
2314.8,13362,-101599,118616,121894
2316.8,13348,-101765,118613,121992
2318.8,13318,-101888,118468,121871
2320.8,13537,-101621,118273,121545
2322.8,13523,-101084,118292,121510
2324.8,13099,-100716,118449,121742
2326.8,12762,-100789,118533,121799
2328.8,12681,-101222,118536,121657
2330.8,12607,-101619,118510,121588
2332.8,12598,-101701,118527,121659
2334.8,12737,-101712,118672,121753
2336.8,12785,-101911,118778,121717
2338.8,12790,-101996,118585,121473
2340.8,13041,-101740,118210,121131
2342.8,13231,-101522,117917,120828
2344.8,12924,-101524,117713,120577
2346.8,12551,-101357,117605,120496
2348.8,12675,-100999,117742,120687
2350.8,12988,-100935,117973,120854
2352.8,13065,-101193,117927,120646
2354.8,13085,-101400,117630,120269
2356.8,13141,-101545,117418,120089
2358.8,12955,-101749,117329,120010
2360.8,12544,-101839,117141,119798
2362.8,12258,-101785,116848,119584
2364.8,12210,-101809,116681,119587
2366.8,12321,-101895,116769,119776
2368.8,12531,-101931,116989,119987
2370.8,12613,-102099,117116,120085
2372.8,12294,-102444,117074,120028
2374.8,11799,-102537,116979,119912
2376.8,11662,-102192,116887,119851
2378.8,11872,-101926,116744,119849
2380.8,11892,-102164,116615,119884
2382.8,11671,-102492,116618,119907
2384.83,11735,-102327,116651,119791
2386.85,12094,-101911,116583,119590
2388.88,12189,-101879,116550,119602
2390.9,11997,-102167,116643,119834
2392.9,11951,-102256,116643,119885
2394.9,11945,-102201,116479,119705
2396.9,11702,-102374,116435,119714
2398.9,11594,-102507,116574,119924
2400.9,11897,-102184,116596,119913
2402.9,12092,-101826,116503,119768
2404.9,11863,-102000,116605,119946
2406.9,11714,-102296,116820,120272
2408.9,11992,-102091,116819,120244
2410.9,12378,-101687,116661,119989
2412.9,12631,-101574,116557,119864
2414.9,12831,-101492,116428,119731
2416.9,12886,-101203,116288,119494
2418.9,12563,-101177,116368,119473
2420.9,11919,-101673,116616,119728
2422.9,11270,-102156,116776,119954
2424.9,11006,-102102,116842,120059
2426.9,11466,-101573,116823,120066
2428.9,12457,-100970,116610,119880
2430.9,13101,-100719,116399,119656
2432.9,12815,-100885,116470,119677
2434.9,12106,-101051,116594,119795
2436.9,11753,-101009,116447,119742
2438.9,11785,-101036,116221,119598
2440.9,11865,-101114,116175,119494
2442.9,11968,-100909,116206,119469
2444.9,12107,-100626,116229,119660
2446.9,12062,-100691,116342,119997
2448.9,11779,-100883,116479,120103
2450.9,11522,-100939,116452,119924
2452.9,11488,-101139,116274,119772
2454.9,11610,-101470,116125,119705
2456.9,11678,-101459,116052,119540
2458.9,11563,-101207,115913,119297
2460.9,11467,-101186,115697,119159
2462.9,11678,-101259,115656,119278
2464.9,11971,-101233,115847,119612
2466.9,11874,-101455,115898,119813
2468.9,11578,-101881,115635,119627
2470.9,11640,-101920,115399,119314
2472.9,11913,-101729,115378,119166
2474.9,11876,-101999,115323,119035
2476.9,11697,-102515,115111,118800
2478.9,11771,-102617,114909,118626
2480.9,11796,-102545,114819,118578
2482.9,11402,-102859,114847,118583
2484.9,10943,-103390,114929,118639
2486.9,10799,-103792,114852,118635
2488.9,10819,-104053,114599,118428
2490.9,10993,-103997,114486,118191
2492.9,11565,-103426,114569,118118
2494.9,12153,-102787,114558,118058
2496.9,12001,-102685,114491,117937
2498.9,11292,-103018,114624,117975
2500.9,10965,-103312,114770,118188
2502.9,11197,-103414,114662,118327
2504.9,11317,-103379,114496,118308
2506.9,11176,-103222,114447,118202
2508.9,11270,-103030,114396,118098
2510.9,11552,-102970,114398,118154
2512.9,11465,-103101,114554,118308
2514.9,11083,-103329,114621,118200
2516.9,10997,-103510,114505,117866
2518.9,11205,-103604,114523,117790
2520.9,11205,-103724,114707,117909
2522.9,10949,-103886,114757,117683
2524.93,10791,-103925,114755,117199
2526.95,10815,-103847,114941,116978
2528.98,10839,-103912,115125,116979
2531.0,10823,-104121,115102,116988
2533.0,10889,-104119,115071,117295
2535.0,11108,-103770,115210,118121
2537.0,11405,-103263,115547,119251
2539.0,11690,-102644,116152,120664
2541.0,12045,-101823,116737,122436
2543.0,12616,-100900,116560,124069
2545.0,13314,-100008,115390,125069
2547.0,13864,-99114,113932,125794
2549.0,14081,-98291,112826,126666
2551.0,13873,-97756,111946,127270
2553.0,13258,-97544,111017,127146
2555.0,12580,-97639,110159,126477
2557.0,12277,-98249,109511,125410
2559.0,12237,-99432,108974,123793
2561.0,11879,-100810,108529,121784
2563.0,11083,-102092,108316,119686
2565.0,10433,-103350,108352,117514
2567.0,10282,-104532,108498,115526
2569.0,10254,-105344,108630,114308
2571.0,10074,-105720,108755,113896
2573.0,10092,-105818,109113,113897
2575.0,10470,-105625,109887,114291
2577.0,10731,-105146,110766,115030
2579.0,10633,-104755,111336,115606
2581.0,10594,-104741,111739,115855
2583.0,10870,-104772,112254,116162
2585.0,11149,-104421,112722,116586
2587.0,11145,-103937,113006,116855
2589.0,10966,-103795,113277,116982
2591.0,10888,-103851,113529,117067
2593.0,11012,-103752,113644,117081
2595.0,11083,-103678,113716,117106
2597.0,10860,-103867,113764,117194
2599.0,10632,-103968,113708,117212
2601.0,10783,-103663,113715,117191
2603.0,11048,-103247,113864,117277
2605.0,11002,-103035,113932,117382
2607.0,10864,-102915,113988,117449
2609.0,11019,-102774,114256,117582
2611.0,11298,-102690,114405,117656
2613.0,11369,-102709,114149,117515
2615.0,11292,-102877,113945,117426
2617.0,11265,-103168,114095,117575
2619.0,11216,-103320,114161,117646
2621.0,10977,-103197,113931,117480
2623.0,10705,-103048,113792,117382
2625.0,10779,-102952,113913,117514
2627.0,11179,-102647,114092,117702
2629.0,11432,-102242,114238,117832
2631.0,11366,-102206,114375,117929
2633.0,11289,-102498,114494,118019
2635.0,11286,-102629,114585,118117
2637.0,11105,-102500,114582,118141
2639.0,10846,-102355,114427,118000
2641.0,10928,-102210,114260,117839
2643.0,11382,-101992,114208,117846
2645.0,11765,-101911,114160,117910
2647.0,11699,-102175,114072,117888
2649.0,11199,-102598,114134,117932
2651.0,10704,-102774,114366,118134
2653.0,10751,-102526,114516,118253
2655.03,11287,-102044,114471,118134
2657.05,11601,-101640,114401,118016
2659.08,11333,-101473,114484,118171
2661.1,10976,-101554,114717,118527
2663.1,11022,-101775,114912,118777
2665.1,11348,-101810,114890,118760
2667.1,11671,-101430,114777,118664
2669.1,11801,-101034,114875,118769
2671.1,11497,-101202,115164,119026
2673.1,10916,-101679,115357,119175
2675.1,10773,-101690,115415,119200
2677.1,11285,-101215,115487,119255
2679.1,11753,-100906,115535,119322
2681.1,11793,-100888,115507,119351
2683.1,11838,-100769,115567,119468
2685.1,12059,-100580,115770,119715
2687.1,12099,-100638,115949,119936
2689.1,11990,-100826,116088,120093
2691.1,12098,-100839,116297,120282
2693.1,12345,-100674,116428,120390
2695.1,12486,-100395,116263,120222
2697.1,12601,-100047,115975,119929
2699.1,12670,-99890,115900,119840
2701.1,12462,-100061,116027,119956
2703.1,12116,-100263,116138,120061
2705.1,11950,-100284,116197,120126
2707.1,11865,-100247,116239,120184
2709.1,11744,-100158,116215,120127
2711.1,11836,-99968,116154,119953
2713.1,12154,-99918,116148,119819
2715.1,12301,-100107,116164,119751
2717.1,12178,-100227,116141,119660
2719.1,12055,-100129,116072,119530
2721.1,11999,-99961,115886,119326
2723.1,11925,-99733,115617,119071
2725.1,11886,-99531,115542,118997
2727.1,11902,-99672,115699,119152
2729.1,11897,-100066,115726,119171
2731.1,11870,-100218,115505,118880
2733.1,11774,-100121,115314,118564
2735.1,11517,-100159,115253,118402
2737.1,11259,-100329,115195,118308
2739.1,11237,-100456,115119,118248
2741.1,11362,-100640,115020,118213
2743.1,11420,-100836,114870,118149
2745.1,11393,-100754,114773,118116
2747.1,11329,-100472,114738,118117
2749.1,11297,-100360,114621,118014
2751.1,11413,-100511,114507,117868
2753.1,11560,-100823,114592,117878
2755.1,11405,-101161,114711,117945
2757.1,10989,-101243,114632,117894
2759.1,10765,-100974,114450,117800
2761.1,10919,-100710,114288,117737
2763.1,11163,-100716,114170,117689
2765.1,11169,-100882,114195,117755
2767.1,10898,-101106,114328,117923
2769.1,10638,-101236,114325,117937
2771.1,10724,-100968,114187,117755
2773.1,11036,-100469,114134,117607
2775.1,11159,-100339,114159,117553
2777.1,11098,-100570,114151,117516
2779.1,11158,-100581,114157,117514
2781.1,11215,-100346,114210,117554
2783.1,10966,-100317,114304,117655
2785.13,10642,-100425,114480,117880
2787.15,10654,-100297,114591,118046
2789.18,10882,-100088,114444,117908
2791.2,10931,-100164,114259,117693
2793.2,10745,-100377,114314,117731
2795.2,10579,-100382,114393,117815
2797.2,10601,-100212,114257,117675
2799.2,10705,-100050,114123,117530
2801.2,10694,-99894,114161,117576
2803.2,10587,-99759,114206,117662
2805.2,10582,-99714,114158,117677
2807.2,10754,-99663,114085,117658
2809.2,10961,-99543,114016,117605
2811.2,11014,-99541,114002,117578
2813.2,10862,-99714,114063,117637
2815.2,10690,-99791,114050,117633
2817.2,10763,-99661,113899,117504
2819.2,11029,-99544,113795,117464
2821.2,11128,-99560,113781,117547
2823.2,10963,-99567,113664,117494
2825.2,10861,-99486,113456,117312
2827.2,10994,-99440,113399,117290
2829.2,11122,-99508,113515,117449
2831.2,11049,-99509,113572,117528
2833.2,10892,-99282,113503,117428
2835.2,10808,-99080,113450,117270
2837.2,10798,-99193,113456,117140
2839.2,10800,-99409,113434,117074
2841.2,10763,-99460,113368,117093
2843.2,10724,-99487,113261,117095
2845.2,10795,-99516,113020,116932
2847.2,10912,-99329,112701,116676
2849.2,10859,-99167,112540,116542
2851.2,10706,-99513,112545,116515
2853.2,10737,-100213,112504,116429
2855.2,10850,-100784,112419,116330
2857.2,10738,-101133,112371,116292
2859.2,10548,-101265,112217,116166
2861.2,10558,-101110,111928,115925
2863.2,10591,-100917,111765,115815
2865.2,10478,-100985,111795,115907
2867.2,10455,-101147,111855,116029
2869.2,10573,-101213,111935,116115
2871.2,10560,-101332,112037,116167
2873.2,10458,-101515,112035,116134
2875.2,10490,-101550,111960,116091
2877.2,10519,-101483,111922,116112
2879.2,10434,-101476,111818,116064
2881.2,10504,-101430,111602,115886
2883.2,10753,-101329,111435,115729
2885.2,10743,-101437,111373,115671
2887.2,10394,-101752,111397,115718
2889.2,10221,-101868,111564,115900
2891.2,10496,-101575,111768,116069
2893.2,10788,-101140,111815,116046
2895.2,10601,-100997,111807,115966
2897.2,10123,-101331,111891,115981
2899.2,9989,-101799,111939,115950
2901.2,10334,-101788,111903,115753
2903.2,10588,-101305,111912,115425
2905.2,10388,-101145,111961,115004
2907.2,10055,-101709,112017,114660
2909.2,9949,-102340,112126,114547
2911.2,10021,-102398,112169,114491
2913.2,10185,-102135,112088,114510
2915.2,10475,-101922,112144,115075
2917.2,10768,-101579,112424,116198
2919.2,10927,-101040,112706,117359
2921.2,11101,-100611,112964,118612
2923.2,11485,-100189,113121,120321
2925.23,11987,-99322,112669,122066
2927.25,12358,-98143,111476,123314
2929.28,12432,-97217,110194,124344
2931.3,12204,-96625,109198,125321
2933.3,11912,-96078,108163,125705
2935.3,11828,-95642,106958,125234
2937.3,11829,-95690,105891,124199
2939.3,11561,-96397,105141,122792
2941.3,11011,-97612,104704,121150
2943.3,10480,-99077,104571,119387
2945.3,10111,-100597,104598,117209
2947.3,9834,-101988,104652,114575
2949.3,9586,-103016,104870,112512
2951.3,9402,-103580,105394,111923
2953.3,9451,-103776,106088,112267
2955.3,9818,-103671,106772,112564
2957.3,10189,-103338,107412,112735
2959.3,10199,-103059,108011,113081
2961.3,10013,-103030,108567,113498
2963.3,9952,-103105,109079,113832
2965.3,9910,-103131,109477,114150
2967.3,9736,-103130,109720,114439
2969.3,9630,-103081,109906,114594
2971.3,9666,-102957,110103,114640
2973.3,9630,-102805,110204,114624
2975.3,9590,-102539,110196,114552
2977.3,9861,-102060,110304,114583
2979.3,10326,-101581,110612,114847
2981.3,10581,-101300,110844,115111
2983.3,10649,-101085,110886,115167
2985.3,10823,-100920,111049,115299
2987.3,11047,-100982,111427,115690
2989.3,11067,-101056,111606,115917
2991.3,10892,-100786,111440,115710
2993.3,10630,-100471,111313,115477
2995.3,10307,-100596,111399,115516
2997.3,10075,-100882,111465,115607
2999.3,10091,-100857,111432,115614
3001.3,10211,-100725,111395,115636
3003.3,10278,-100760,111345,115666
3005.3,10414,-100694,111337,115732
3007.3,10638,-100442,111459,115934
3009.3,10732,-100396,111557,116101
3011.3,10692,-100554,111493,116018
3013.3,10692,-100471,111407,115828
3015.3,10678,-100203,111428,115771
3017.3,10536,-100180,111517,115866
3019.3,10366,-100333,111607,116022
3021.3,10250,-100332,111591,116096
3023.3,10165,-100264,111471,116069
3025.3,10164,-100275,111468,116179
3027.3,10251,-100160,111581,116446
3029.3,10322,-99861,111480,116473
3031.3,10419,-99687,111202,116203
3033.3,10619,-99749,111145,116094
3035.3,10719,-99824,111304,116262
3037.3,10569,-99791,111360,116399
3039.3,10427,-99697,111295,116448
3041.3,10531,-99572,111261,116547
3043.3,10686,-99493,111320,116696
3045.3,10667,-99529,111537,116884
3047.3,10601,-99499,111844,117061
3049.3,10669,-99221,112014,117075
3051.3,10804,-98944,112096,117006
3053.3,10873,-99053,112312,117099
3055.33,10866,-99440,112567,117279
3057.35,10821,-99627,112699,117373
3059.38,10795,-99449,112826,117488
3061.4,10867,-99222,113001,117688
3063.4,10987,-99208,113146,117874
3065.4,11024,-99229,113345,118098
3067.4,11052,-99029,113583,118369
3069.4,11269,-98723,113643,118465
3071.4,11607,-98554,113569,118379
3073.4,11846,-98458,113548,118309
3075.4,11958,-98340,113456,118222
3077.4,11932,-98457,113292,118125
3079.4,11611,-98921,113398,118290
3081.4,11104,-99175,113725,118653
3083.4,10879,-98686,113840,118816
3085.4,11138,-97791,113784,118798
3087.4,11579,-97210,113853,118847
3089.4,11851,-97122,113908,118849
3091.4,11842,-97297,113779,118675
3093.4,11603,-97640,113637,118471
3095.4,11298,-98056,113525,118251
3097.4,11116,-98270,113396,118002
3099.4,11101,-98170,113477,117989
3101.4,11170,-97949,113805,118230
3103.4,11247,-97753,113947,118298
3105.4,11250,-97586,113738,118074
3107.4,11139,-97503,113523,117886
3109.4,11062,-97515,113479,117845
3111.4,11150,-97513,113479,117814
3113.4,11199,-97562,113472,117776
3115.4,10957,-97878,113432,117706
3117.4,10617,-98286,113264,117501
3119.4,10525,-98311,113053,117262
3121.4,10606,-98024,112981,117181
3123.4,10617,-98018,112966,117158
3125.4,10635,-98359,112805,117005
3127.4,10776,-98451,112572,116825
3129.4,10827,-98172,112458,116797
3131.4,10635,-98074,112404,116797
3133.4,10412,-98319,112303,116657
3135.4,10363,-98466,112283,116529
3137.4,10376,-98403,112386,116563
3139.4,10302,-98443,112362,116582
3141.4,10222,-98566,112146,116469
3143.4,10303,-98488,112001,116412
3145.4,10518,-98323,111994,116470
3147.4,10678,-98374,111981,116495
3149.4,10695,-98570,112012,116525
3151.4,10672,-98668,112141,116656
3153.4,10683,-98652,112220,116769
3155.4,10644,-98574,112234,116798
3157.4,10498,-98428,112285,116811
3159.4,10342,-98380,112264,116765
3161.4,10242,-98617,112128,116642
3163.4,10138,-98848,112041,116553
3165.4,10078,-98590,112014,116490
3167.4,10267,-98039,112033,116480
3169.4,10656,-97804,112249,116686
3171.4,10854,-97776,112472,116876
3173.4,10706,-97443,112356,116681
3175.4,10523,-97144,112218,116481
3177.4,10517,-97519,112478,116774
3179.4,10562,-98072,112718,117109
3181.4,10573,-97970,112544,116997
3183.4,10591,-97555,112361,116851
3185.43,10565,-97472,112424,117003
3187.45,10515,-97417,112450,117146
3189.48,10611,-97079,112437,117172
3191.5,10815,-96885,112575,117239
3193.5,10876,-96974,112672,117223
3195.5,10749,-96962,112596,117081
3197.5,10588,-96872,112531,117054
3199.5,10448,-96918,112475,117102
3201.5,10311,-96918,112308,117006
3203.5,10227,-96880,112175,116880
3205.5,10261,-97132,112194,116909
3207.5,10430,-97471,112250,117048
3209.5,10652,-97434,112299,117224
3211.5,10776,-97183,112349,117355
3213.5,10784,-97042,112359,117341
3215.5,10815,-96871,112382,117276
3217.5,10865,-96648,112435,117276
3219.5,10798,-96648,112349,117219
3221.5,10642,-96785,112089,117037
3223.5,10526,-96828,111845,116846
3225.5,10428,-96993,111664,116663
3227.5,10313,-97416,111498,116485
3229.5,10259,-97715,111408,116419
3231.5,10290,-97724,111398,116451
3233.5,10348,-97768,111415,116494
3235.5,10427,-97892,111490,116574
3237.5,10464,-97859,111484,116532
3239.5,10320,-97855,111167,116122
3241.5,10080,-98163,110784,115663
3243.5,10020,-98473,110738,115663
3245.5,10157,-98405,110815,115912
3247.5,10257,-98196,110650,115928
3249.5,10300,-98233,110494,115832
3251.5,10421,-98516,110637,115894
3253.5,10517,-98843,110763,115924
3255.5,10439,-99030,110558,115713
3257.5,10373,-99008,110243,115432
3259.5,10524,-98943,110140,115318
3261.5,10693,-98969,110250,115414
3263.5,10617,-98925,110366,115583
3265.5,10408,-98784,110333,115625
3267.5,10328,-98775,110236,115562
3269.5,10424,-98809,110323,115657
3271.5,10554,-98605,110621,115955
3273.5,10551,-98428,110837,116133
3275.5,10358,-98679,110770,115974
3277.5,10118,-99061,110565,115660
3279.5,10006,-99139,110446,115474
3281.5,9986,-99100,110435,115429
3283.5,9945,-99187,110472,115326
3285.5,9865,-99275,110594,115086
3287.5,9726,-99432,110800,114805
3289.5,9531,-99874,110914,114524
3291.5,9445,-100337,110843,114221
3293.5,9577,-100424,110733,114073
3295.5,9809,-100226,110743,114401
3297.5,10072,-99880,110920,115337
3299.5,10395,-99268,111265,116652
3301.5,10696,-98498,111631,117998
3303.5,10990,-97816,111775,119328
3305.5,11510,-97121,111622,120874
3307.5,12174,-96268,111096,122522
3309.5,12533,-95398,110001,123765
3311.5,12479,-94619,108525,124506
3313.5,12263,-93963,107174,125021
3315.53,11874,-93607,105959,125066
3317.55,11187,-93637,104619,124219
3319.58,10459,-93988,103489,122854
3321.6,10030,-94700,102976,121601
3323.6,9904,-95685,102765,120357
3325.6,9904,-96661,102529,118640
3327.6,9846,-97716,102488,116311
3329.6,9627,-99064,102745,113735
3331.6,9425,-100241,103096,111755
3333.6,9485,-100689,103565,111039
3335.6,9616,-100745,104298,111268
3337.6,9485,-100929,105239,111753
3339.6,9281,-101012,106237,112401
3341.6,9436,-100683,107063,113175
3343.6,9896,-100236,107547,113675
3345.6,10301,-99945,107931,113916
3347.6,10593,-99652,108464,114254
3349.6,10844,-99314,108856,114523
3351.6,10870,-99193,108901,114487
3353.6,10556,-99299,108967,114474
3355.6,10167,-99349,109263,114663
3357.6,9891,-99365,109532,114768
3359.6,9588,-99603,109672,114762
3361.6,9293,-99867,109795,114854
3363.6,9320,-99709,109921,115012
3365.6,9713,-99251,110116,115243
3367.6,10213,-98941,110404,115619
3369.6,10664,-98741,110545,115880
3371.6,10907,-98414,110445,115811
3373.6,10760,-98143,110365,115676
3375.6,10468,-98119,110387,115643
3377.6,10420,-98136,110377,115559
3379.6,10420,-98111,110410,115489
3381.6,10154,-98333,110580,115645
3383.6,9961,-98796,110742,115947
3385.6,10178,-98934,110808,116216
3387.6,10472,-98362,110775,116359
3389.6,10563,-97501,110593,116291
3391.6,10657,-97096,110432,116178
3393.6,10798,-97215,110532,116333
3395.6,10774,-97231,110666,116578
3397.6,10639,-96934,110538,116505
3399.6,10561,-96857,110428,116269
3401.6,10524,-97189,110618,116220
3403.6,10550,-97430,110811,116200
3405.6,10645,-97467,110764,116042
3407.6,10568,-97702,110703,116008
3409.6,10274,-97998,110748,116197
3411.6,10147,-97836,110771,116348
3413.6,10307,-97380,110819,116406
3415.6,10431,-97091,110976,116504
3417.6,10460,-96776,111092,116568
3419.6,10620,-96181,111121,116584
3421.6,10829,-95757,111295,116822
3423.6,10858,-95902,111589,117259
3425.6,10795,-96296,111649,117444
3427.6,10856,-96533,111471,117340
3429.6,11076,-96562,111449,117427
3431.6,11330,-96362,111605,117696
3433.6,11383,-96048,111638,117663
3435.6,11071,-96094,111703,117496
3437.6,10581,-96620,112105,117755
3439.6,10276,-96958,112501,118212
3441.6,10317,-96648,112505,118348
3443.6,10662,-96122,112428,118390
3445.6,11185,-95791,112547,118645
3447.6,11717,-95472,112678,118909
3449.6,12193,-95157,112877,119219
3451.6,12552,-95196,113322,119766
3453.6,12554,-95440,113658,120124
3455.63,12129,-95382,113627,119987
3457.65,11656,-95096,113589,119846
3459.68,11390,-95019,113703,119936
3461.7,11196,-95136,113733,119866
3463.7,11123,-95161,113758,119651
3465.7,11398,-95046,113900,119631
3467.7,11796,-94857,113880,119690
3469.7,11939,-94663,113620,119651
3471.7,11894,-94621,113410,119631
3473.7,11770,-94786,113275,119576
3475.7,11387,-94979,113119,119382
3477.7,10864,-95007,113103,119250
3479.7,10676,-94827,113256,119270
3481.7,10866,-94542,113375,119294
3483.7,11059,-94364,113434,119323
3485.7,11200,-94401,113479,119363
3487.7,11487,-94542,113421,119265
3489.7,11817,-94644,113270,119080
3491.7,11947,-94615,113099,118958
3493.7,11891,-94396,112906,118833
3495.7,11709,-94196,112799,118727
3497.7,11312,-94403,112819,118753
3499.7,10755,-94975,112701,118702
3501.7,10348,-95429,112403,118416
3503.7,10285,-95500,112283,118223
3505.7,10496,-95297,112339,118298
3507.7,10844,-94970,112230,118367
3509.7,11178,-94732,112044,118342
3511.7,11363,-94804,112042,118371
3513.7,11424,-95028,112028,118348
3515.7,11435,-95073,111813,118168
3517.7,11328,-95048,111622,118052
3519.7,11129,-95257,111607,118142
3521.7,11070,-95544,111610,118249
3523.7,11183,-95552,111513,118152
3525.7,11170,-95356,111369,117883
3527.7,10898,-95283,111347,117757
3529.7,10575,-95359,111566,118004
3531.7,10424,-95361,111837,118352
3533.7,10514,-95218,111901,118455
3535.7,10750,-95094,111874,118480
3537.7,10847,-95138,111928,118625
3539.7,10598,-95273,111899,118614
3541.7,10172,-95281,111728,118352
3543.7,9871,-95106,111673,118239
3545.7,9825,-94914,111790,118395
3547.7,10101,-94802,111859,118496
3549.7,10632,-94709,111884,118522
3551.7,11026,-94691,112026,118735
3553.7,10980,-94884,112194,119044
3555.7,10747,-95116,112156,119117
3557.7,10665,-95043,111945,118928
3559.7,10586,-94749,111841,118748
3561.7,10293,-94690,111933,118700
3563.7,10026,-94959,111997,118681
3565.7,10112,-95128,111960,118699
3567.7,10513,-94919,112073,118891
3569.7,10996,-94539,112335,119161
3571.7,11348,-94260,112388,119250
3573.7,11422,-94057,112191,119203
3575.7,11285,-93792,112055,119212
3577.7,11149,-93467,112036,119211
3579.7,11004,-93205,111993,119145
3581.7,10684,-93128,111958,119121
3583.7,10300,-93314,111986,119080
3585.73,10155,-93704,112053,118965
3587.75,10330,-94028,112188,119008
3589.78,10654,-94054,112295,119242
3591.8,10931,-93903,112187,119356
3593.8,11074,-93797,111990,119366
3595.8,11149,-93637,111932,119516
3597.8,11174,-93305,111927,119659
3599.8,10970,-93071,111897,119593
3601.8,10587,-93124,111973,119497
3603.8,10462,-93202,112117,119492
3605.8,10672,-93201,112144,119493
3607.8,10812,-93360,112068,119520
3609.8,10947,-93572,111952,119554
3611.8,11460,-93488,111784,119470
3613.8,11967,-93248,111656,119390
3615.8,11823,-93171,111629,119488
3617.8,11322,-93191,111599,119575
3619.8,10992,-93330,111533,119417
3621.8,10601,-93876,111502,119144
3623.8,10008,-94689,111488,119023
3625.8,9722,-95225,111464,119120
3627.8,9925,-95349,111395,119227
3629.8,10278,-95326,111203,119116
3631.8,10749,-95281,111001,118938
3633.8,11330,-95202,110985,118968
3635.8,11501,-95120,111002,119039
3637.8,11013,-95091,110882,118917
3639.8,10403,-95192,110842,118840
3641.8,10112,-95401,110968,118977
3643.8,10025,-95542,111009,119107
3645.8,10035,-95603,110984,119190
3647.8,10228,-95712,111064,119321
3649.8,10624,-95711,111045,119287
3651.8,11108,-95437,110814,119065
3653.8,11398,-95262,110668,119007
3655.8,11226,-95466,110655,119066
3657.8,10753,-95633,110540,118954
3659.8,10306,-95510,110431,118944
3661.8,9887,-95467,110518,119260
3663.8,9595,-95530,110622,119392
3665.8,9842,-95321,110660,119070
3667.8,10485,-95118,110840,118835
3669.8,10845,-95393,111141,118979
3671.8,10943,-95679,111366,119125
3673.8,11271,-95477,111554,119090
3675.8,11502,-95357,111744,119041
3677.8,11051,-95755,111742,118882
3679.8,10328,-96014,111506,118450
3681.8,9971,-95751,111355,118173
3683.8,9832,-95584,111586,118797
3685.8,9750,-95736,112086,120375
3687.8,10059,-95527,112444,122095
3689.8,10790,-94663,112481,123408
3691.8,11581,-93686,112401,124708
3693.8,12313,-93048,112182,126369
3695.8,12917,-92678,111407,127901
3697.8,13128,-92334,110095,128830
3699.8,12984,-91801,108860,129453
3701.8,12777,-91015,107867,129931
3703.8,12480,-90206,106678,129735
3705.8,12035,-89689,105363,128687
3707.8,11738,-89664,104559,127446
3709.8,11632,-90280,104335,126312
3711.8,11304,-91486,104104,124581
3713.8,10743,-92889,103682,121739
3715.8,10497,-94158,103547,118632
3717.8,10794,-95243,104013,116673
3719.8,11288,-96021,104804,116207
3721.8,11619,-96324,105556,116432
3723.9,11679,-96372,106279,116725
3725.9,11572,-96500,107095,117131
3727.9,11540,-96653,107939,117715
3729.9,11664,-96647,108723,118312
3731.9,11776,-96501,109420,118812
3733.9,11868,-96267,109950,119197
3735.9,12193,-95956,110335,119534
3737.9,12797,-95617,110721,119942
3739.9,13403,-95260,111006,120309
3741.9,13765,-94922,110981,120388
3743.9,13810,-94699,110834,120264
3745.9,13589,-94472,110857,120160
3747.9,13245,-94069,110979,120056
3749.9,12843,-93756,111123,120006
3751.9,12413,-93819,111398,120221
3753.9,12268,-93859,111731,120606
3755.9,12726,-93423,111979,120906
3757.9,13514,-92880,112203,121157
3759.9,14159,-92753,112385,121380
3761.9,14664,-92817,112386,121396
3763.9,14998,-92679,112320,121271
3765.9,14734,-92541,112344,121212
3767.9,13917,-92646,112367,121170
3769.9,13229,-92770,112378,121116
3771.9,12885,-92801,112520,121240
3773.9,12644,-92924,112749,121547
3775.9,12779,-93003,112983,121879
3777.9,13632,-92720,113259,122237
3779.9,14714,-92287,113457,122558
3781.9,15342,-92093,113433,122588
3783.9,15399,-92063,113344,122283
3785.9,14932,-92069,113304,121895
3787.9,14041,-92234,113209,121700
3789.9,13200,-92452,113139,121824
3791.9,12795,-92488,113246,122152
3793.9,12748,-92485,113405,122470
3795.9,13012,-92581,113523,122829
3797.9,13681,-92578,113671,123292
3799.9,14534,-92455,113700,123538
3801.9,15227,-92366,113485,123356
3803.9,15618,-92134,113262,123085
3805.9,15503,-91674,113176,123037
3807.9,14743,-91421,113130,123136
3809.9,13766,-91521,113235,123259
3811.9,13168,-91542,113611,123363
3813.9,13041,-91449,114041,123513
3815.9,13288,-91600,114405,123942
3817.9,14032,-91692,114794,124545
3819.9,15182,-91142,115068,124774
3821.9,16205,-90352,115128,124650
3823.9,16661,-90196,115247,124801
3825.9,16469,-90637,115454,125154
3827.9,15588,-91024,115430,125107
3829.9,14132,-91185,115313,124936
3831.9,12882,-91210,115572,125337
3833.9,12841,-90884,116113,126006
3835.9,14015,-90188,116502,126216
3837.9,15412,-89581,116714,126089
3839.9,16406,-89250,116952,126171
3841.9,17113,-88942,117173,126502
3843.9,17493,-88733,117243,126798
3845.9,17224,-88943,117161,126917
3847.9,16337,-89409,117007,126855
3849.9,15173,-89762,116947,126743
3851.9,14114,-90055,117170,126824
3853.9,13644,-90369,117574,127109
3855.93,13960,-90420,117750,127249
3857.95,14686,-90111,117585,127065
3859.98,15508,-89805,117476,126880
3862.0,16366,-89761,117602,126915
3864.0,16877,-89750,117567,126858
3866.0,16660,-89444,117259,126581
3868.0,15969,-89038,117187,126544
3870.0,15095,-89102,117490,126878
3872.0,14138,-89589,117656,127012
3874.0,13696,-89735,117529,126700
3876.0,14258,-89396,117465,126374
3878.0,15199,-89266,117532,126300
3880.0,15926,-89364,117531,126350
3882.0,16776,-89033,117437,126403
3884.0,17450,-88632,117248,126359
3886.0,16779,-89113,116995,126183
3888.0,15012,-90050,116862,126055
3890.0,13724,-90295,116808,126002
3892.0,13246,-90010,116640,125840
3894.0,12862,-90025,116554,125690
3896.0,12904,-90157,116730,125757
3898.0,14061,-89888,116804,125830
3900.0,15669,-89527,116604,125759
3902.0,16575,-89448,116470,125725
3904.0,16556,-89383,116494,125692
3906.0,15913,-89224,116535,125574
3908.0,14867,-89373,116726,125673
3910.0,13760,-89881,117029,126016
3912.0,13014,-90257,117127,126168
3914.0,12834,-90270,117153,126167
3916.0,13178,-90162,117393,126396
3918.0,13861,-90098,117587,126631
3920.0,14666,-90037,117540,126501
3922.0,15371,-89967,117520,126259
3924.0,15718,-89832,117548,126246
3926.0,15625,-89529,117438,126389
3928.0,15245,-89223,117361,126482
3930.0,14616,-89230,117440,126386
3932.0,13842,-89490,117535,126209
3934.0,13535,-89652,117734,126311
3936.0,14110,-89637,118087,126671
3938.0,15062,-89615,118261,126875
3940.0,15793,-89598,118208,126955
3942.0,16242,-89477,118270,127179
3944.0,16232,-89309,118413,127334
3946.0,15545,-89247,118446,127287
3948.0,14632,-89283,118530,127350
3950.0,14018,-89247,118674,127472
3952.0,13621,-89069,118633,127357
3954.0,13464,-88887,118573,127297
3956.0,13907,-88787,118760,127551
3958.0,14838,-88608,118917,127716
3960.0,15702,-88228,118792,127664
3962.0,16120,-87857,118658,127818
3964.0,15962,-87750,118738,128100
3966.0,15388,-87881,118901,128035
3968.0,14759,-88186,119021,127715
3970.0,14086,-88732,119105,127582
3972.0,13326,-89319,119175,127765
3974.0,13132,-89387,119227,128181
3976.0,13995,-88718,119196,128638
3978.0,15175,-87823,119056,128751
3980.0,15728,-87301,118928,128384
3982.0,15657,-87238,118905,127970
3984.0,15284,-87412,118962,127961
3986.03,14703,-87647,119064,128207
3988.05,14168,-87867,119182,128290
3990.08,14001,-88098,119313,128213
3992.1,14148,-88377,119486,128243
3994.1,14320,-88593,119580,128307
3996.1,14376,-88628,119470,128249
3998.1,14460,-88512,119371,128365
4000.1,14719,-88231,119420,128765
4002.1,14856,-87782,119329,128853
4004.1,14542,-87505,119113,128368
4006.1,14212,-87727,119248,127988
4008.1,14417,-88170,119662,128138
4010.1,14776,-88448,119788,128420
4012.1,14748,-88729,119621,128507
4014.1,14603,-89205,119473,128477
4016.1,14657,-89553,119273,128390
4018.1,14667,-89557,118986,128285
4020.1,14469,-89518,118823,128181
4022.1,14192,-89695,118749,127999
4024.1,13927,-89982,118685,127896
4026.1,13869,-90157,118787,128122
4028.1,14191,-90054,118975,128433
4030.1,14585,-89743,119012,128495
4032.1,14689,-89621,119030,128501
4034.1,14704,-89838,119157,128597
4036.1,14881,-89954,119180,128594
4038.1,14998,-89740,119099,128577
4040.1,14886,-89643,119144,128725
4042.1,14789,-89884,119236,128802
4044.1,14806,-90021,119229,128690
4046.1,14641,-89873,119234,128631
4048.1,14246,-89821,119289,128630
4050.1,14122,-89930,119354,128588
4052.1,14546,-89843,119538,128658
4054.1,15042,-89586,119794,128784
4056.1,15116,-89534,119926,128753
4058.1,14975,-89722,120031,128758
4060.1,14955,-89929,120273,128899
4062.1,14959,-90097,120513,128802
4064.1,14896,-90238,120652,128499
4066.1,14884,-90349,120769,128465
4068.1,14825,-90515,120835,128635
4070.1,14581,-90681,120911,128771
4072.1,14423,-90523,121250,129227
4074.1,14596,-89960,121786,130173
4076.1,14934,-89371,122200,131190
4078.1,15380,-89001,122512,132329
4080.1,16083,-88667,122868,134206
4082.1,16781,-88168,122996,136685
4084.1,16946,-87483,122466,138730
4086.1,16515,-86654,121259,139674
4088.1,15860,-85886,119779,139817
4090.1,15283,-85472,118329,139674
4092.1,14880,-85345,116789,139267
4094.1,14645,-85285,115168,138412
4096.1,14559,-85512,114072,137239
4098.1,14589,-86265,113795,135831
4100.1,14523,-87187,113650,133856
4102.1,14120,-88008,113216,131243
4104.1,13556,-89092,113080,128629
4106.1,13290,-90431,113540,126719
4108.1,13449,-91257,114147,125844
4110.1,13767,-91389,114859,126020
4112.1,13993,-91628,115982,126742
4114.1,14019,-92298,117224,127289
4116.13,13819,-92757,118175,127622
4118.15,13446,-92642,118941,128095
4120.18,13021,-92350,119595,128547
4122.2,12740,-92164,120044,128759
4124.2,12713,-91976,120439,129046
4126.2,12749,-91848,120780,129504
4128.2,12645,-91949,120784,129754
4130.2,12654,-92002,120634,129787
4132.2,13062,-91601,120800,129878
4134.2,13553,-90945,121159,129903
4136.2,13638,-90560,121336,129746
4138.2,13314,-90493,121441,129765
4140.2,12823,-90482,121721,130175
4142.2,12347,-90563,122072,130672
4144.2,12121,-90759,122320,130931
4146.2,12237,-90699,122501,130951
4148.2,12450,-90290,122725,130959
4150.2,12641,-90118,122964,131119
4152.2,12925,-90461,123050,131309
4154.2,13118,-90693,122958,131347
4156.2,12934,-90343,122898,131327
4158.2,12597,-89896,122964,131348
4160.2,12408,-89863,123061,131270
4162.2,12284,-89972,123201,131062
4164.2,12339,-89905,123401,130956
4166.2,12869,-89940,123560,131119
4168.2,13448,-90270,123724,131538
4170.2,13470,-90470,123971,132040
4172.2,13338,-90154,124071,132289
4174.2,13588,-89576,123887,132127
4176.2,13588,-89228,123727,131795
4178.2,12698,-89296,123795,131587
4180.2,11611,-89633,123890,131631
4182.2,11251,-89887,123847,132021
4184.2,11521,-89710,123749,132669
4186.2,11989,-89133,123784,133169
4188.2,12624,-88591,124090,133142
4190.2,13333,-88398,124511,132612
4192.2,13688,-88547,124693,132048
4194.2,13496,-89040,124637,131991
4196.2,13121,-89790,124623,132417
4198.2,12944,-90282,124678,132794
4200.2,12790,-90115,124746,132996
4202.2,12366,-89662,124967,133357
4204.2,11993,-89473,125300,133814
4206.2,12203,-89470,125503,134056
4208.2,12888,-89285,125609,134240
4210.2,13601,-88826,125747,134575
4212.2,14132,-88199,125807,134812
4214.2,14243,-87669,125826,134776
4216.2,13743,-87661,126057,134608
4218.2,13100,-88185,126448,134434
4220.2,12941,-88582,126737,134500
4222.2,13090,-88400,126965,135073
4224.2,13070,-88038,127333,135792
4226.2,13025,-88000,127837,136031
4228.2,13312,-88069,128283,135871
4230.2,13821,-87852,128466,135769
4232.2,14181,-87633,128414,135783
4234.2,14191,-87832,128387,135842
4236.2,13895,-88101,128457,136003
4238.2,13481,-87916,128469,136192
4240.2,13134,-87535,128529,136352
4242.2,13001,-87381,128812,136591
4244.2,13172,-87210,129072,136769
4246.2,13501,-86791,129100,136624
4248.2,13737,-86523,129094,136342
4250.2,13946,-86708,129095,136273
4252.2,14287,-87065,128929,136385
4254.2,14444,-87281,128745,136489
4256.23,14007,-87315,128675,136444
4258.25,13212,-87221,128488,136054
4260.28,12669,-87167,128246,135396
4262.3,12619,-87305,128334,134981
4264.3,12884,-87494,128620,135132
4266.3,13216,-87536,128704,135601
4268.3,13506,-87475,128648,135929
4270.3,13789,-87349,128599,135793
4272.3,14052,-87109,128487,135225
4274.3,14109,-86973,128428,134733
4276.3,13821,-87225,128435,134785
4278.3,13316,-87629,128119,135165
4280.3,12858,-87731,127554,135256
4282.3,12656,-87582,127434,134849
4284.3,12839,-87498,127806,134332
4286.3,13420,-87471,127972,134152
4288.3,14117,-87433,127795,134336
4290.3,14405,-87563,127733,134613
4292.3,14068,-87799,127808,134798
4294.3,13566,-87792,127723,134771
4296.3,13382,-87632,127617,134402
4298.3,13315,-87755,127792,133927
4300.3,13030,-88121,128087,133876
4302.3,12727,-88389,128198,134289
4304.3,12603,-88563,128187,134689
4306.3,12421,-88709,128199,134874
4308.3,12216,-88639,128159,134975
4310.3,12502,-88332,128114,134965
4312.3,13283,-87972,128241,134818
4314.3,13842,-87622,128381,134797
4316.3,13791,-87428,128324,135059
4318.3,13437,-87656,128364,135318
4320.3,13056,-88126,128701,135199
4322.3,12682,-88367,128897,134806
4324.3,12507,-88356,128699,134685
4326.3,12738,-88295,128496,135017
4328.3,13204,-88032,128522,135277
4330.3,13538,-87511,128634,135197
4332.3,13570,-87165,128816,135279
4334.3,13384,-87254,129086,135778
4336.3,13196,-87477,129303,136163
4338.3,13090,-87567,129462,136131
4340.3,12927,-87578,129585,136041
4342.3,12716,-87497,129515,136089
4344.3,12709,-87224,129318,136048
4346.3,12887,-86914,129279,135809
4348.3,12976,-86778,129333,135549
4350.3,13025,-86729,129298,135474
4352.3,13257,-86624,129307,135619
4354.3,13552,-86520,129394,135815
4356.3,13653,-86465,129397,135890
4358.3,13473,-86455,129473,135833
4360.3,13014,-86579,129745,135660
4362.3,12614,-86753,129846,135477
4364.3,12835,-86661,129628,135612
4366.3,13454,-86383,129490,136107
4368.3,13527,-86413,129546,136417
4370.3,13021,-86766,129545,136215
4372.3,12886,-86939,129561,135889
4374.3,13281,-86792,129740,135885
4376.3,13482,-86558,129865,136272
4378.3,13403,-86279,129825,136874
4380.3,13463,-85987,129820,137178
4382.3,13467,-85956,129924,136682
4384.3,13151,-86293,130067,135735
4386.33,12960,-86824,130215,135165
4388.35,13196,-87376,130257,135203
4390.38,13444,-87769,130127,135603
4392.4,13425,-87850,129958,136114
4394.4,13356,-87786,129821,136296
4396.4,13319,-87869,129710,135912
4398.4,13203,-88020,129689,135492
4400.4,13077,-88045,129660,135505
4402.4,12970,-88175,129434,135665
4404.4,12765,-88674,129194,135749
4406.4,12665,-89137,129131,135895
4408.4,13052,-88971,128993,135928
4410.4,13668,-88430,128730,135636
4412.4,13800,-88281,128748,135315
4414.4,13381,-88570,129020,135197
4416.4,13060,-88735,129080,135194
4418.4,13110,-88725,128942,135340
4420.4,13107,-88926,128907,135524
4422.4,12808,-89271,128916,135382
4424.4,12568,-89387,128906,135091
4426.4,12725,-89265,129013,135148
4428.4,13112,-89178,129124,135314
4430.4,13397,-89310,129056,135186
4432.4,13523,-89650,129013,135186
4434.4,13595,-89920,129173,135607
4436.4,13566,-89852,129297,135804
4438.4,13284,-89641,129257,135458
4440.4,12798,-89630,129299,135218
4442.4,12412,-89703,129495,135353
4444.4,12349,-89619,129604,135305
4446.4,12537,-89546,129643,134957
4448.4,12806,-89665,129928,134898
4450.4,13074,-89841,130424,135217
4452.4,13253,-90017,130732,135352
4454.4,13278,-90253,130754,135119
4456.4,13279,-90340,130663,134838
4458.4,13396,-90084,130496,134808
4460.4,13489,-89777,130467,135368
4462.4,13426,-89681,130956,136670
4464.4,13475,-89480,131694,138111
4466.4,13945,-88849,132088,139155
4468.4,14647,-88081,132317,140381
4470.4,15188,-87548,132600,142258
4472.4,15511,-87090,132216,143986
4474.4,15686,-86427,130840,144962
4476.4,15491,-85687,129343,145676
4478.4,14821,-85125,128084,146172
4480.4,14199,-84739,126461,145746
4482.4,14125,-84515,124658,144512
4484.4,14218,-84688,123551,143202
4486.4,13897,-85389,123074,141811
4488.4,13452,-86355,122601,139933
4490.4,13429,-87314,122146,137496
4492.4,13539,-88331,121974,134674
4494.4,13271,-89421,122099,132166
4496.4,12868,-90283,122593,131012
4498.4,12782,-90806,123467,131222
4500.4,12912,-91305,124491,131830
4502.4,12990,-91872,125547,132433
4504.4,13036,-92134,126569,133149
4506.4,13150,-91993,127347,133727
4508.4,13355,-91785,127892,134094
4510.4,13635,-91527,128406,134576
4512.4,13890,-90963,128789,134981
4514.4,14035,-90407,128926,134877
4516.43,14162,-90402,129031,134542
4518.45,14358,-90710,129154,134398
4520.48,14492,-90780,129145,134404
4522.5,14373,-90697,129210,134610
4524.5,13960,-90669,129571,135120
4526.5,13368,-90490,129985,135580
4528.5,12813,-90220,130253,135670
4530.5,12548,-90145,130490,135584
4532.5,12670,-89924,130695,135596
4534.5,13001,-89211,130768,135792
4536.5,13301,-88633,130780,136111
4538.5,13478,-88709,130798,136260
4540.5,13502,-88883,130862,136100
4542.5,13390,-88775,131079,136011
4544.5,13350,-88877,131399,136264
4546.5,13563,-89276,131618,136576
4548.5,13860,-89359,131698,136692
4550.5,14008,-89083,131664,136701
4552.5,14098,-88980,131486,136708
4554.5,14260,-89016,131343,136740
4556.5,14340,-88793,131442,136755
4558.5,14174,-88504,131590,136603
4560.5,13865,-88617,131544,136291
4562.5,13692,-89022,131438,136049
4564.5,13890,-89235,131443,135967
4566.5,14342,-89092,131536,136009
4568.5,14514,-88803,131709,136249
4570.5,14072,-88609,131932,136625
4572.5,13411,-88584,132045,136836
4574.5,13149,-88616,132009,136793
4576.5,13281,-88625,131998,136732
4578.5,13357,-88709,132126,136819
4580.5,13341,-88802,132298,136983
4582.5,13667,-88532,132397,137110
4584.5,14298,-87943,132453,137205
4586.5,14512,-87713,132515,137293
4588.5,14104,-88032,132489,137300
4590.5,13847,-88204,132394,137263
4592.5,14180,-87926,132496,137414
4594.5,14538,-87742,132816,137734
4596.5,14533,-87887,133019,137889
4598.5,14527,-87985,133084,137944
4600.5,14693,-87969,133293,138291
4602.5,14752,-88041,133527,138749
4604.5,14703,-88051,133532,138815
4606.5,14764,-87839,133534,138619
4608.5,14842,-87591,133773,138655
4610.5,14766,-87412,134081,138961
4612.5,14625,-87253,134349,139275
4614.5,14501,-87232,134647,139476
4616.5,14374,-87362,134907,139617
4618.5,14314,-87364,135120,139853
4620.5,14333,-87211,135381,140181
4622.5,14264,-87186,135503,140295
4624.5,14134,-87242,135321,140090
4626.5,14285,-87039,135109,139846
4628.5,14877,-86603,135079,139695
4630.5,15645,-86291,135089,139627
4632.5,16197,-86227,135101,139782
4634.5,16237,-86280,135181,139973
4636.5,15743,-86373,135249,139733
4638.5,15205,-86446,135343,139284
4640.5,15125,-86427,135544,139240
4642.5,15165,-86448,135600,139436
4644.5,14699,-86687,135373,139408
4646.5,14077,-86944,135178,139323
4648.5,14105,-86889,135105,139321
4650.5,14557,-86622,134904,139105
4652.5,14606,-86487,134682,138765
4654.5,14257,-86590,134686,138697
4656.53,14074,-86853,134733,138777
4658.55,14131,-87120,134648,138705
4660.58,14217,-87091,134575,138565
4662.6,14408,-86702,134503,138422
4664.6,14723,-86428,134315,138208
4666.6,14857,-86656,134140,138058
4668.6,14669,-87106,134046,138024
4670.6,14443,-87364,133885,137890
4672.6,14427,-87456,133707,137675
4674.6,14527,-87482,133672,137635
4676.6,14569,-87319,133677,137714
4678.6,14498,-87076,133592,137646
4680.6,14231,-87196,133524,137413
4682.6,13778,-87732,133558,137228
4684.6,13496,-88115,133645,137250
4686.6,13684,-87974,133692,137411
4688.6,14066,-87636,133631,137479
4690.6,14229,-87514,133536,137433
4692.6,14234,-87561,133542,137471
4694.6,14302,-87586,133560,137565
4696.6,14338,-87646,133474,137548
4698.6,14207,-87805,133447,137535
4700.6,14010,-87886,133535,137614
4702.6,13892,-87741,133509,137575
4704.6,13936,-87539,133402,137435
4706.6,14175,-87489,133465,137473
4708.6,14447,-87460,133586,137591
4710.6,14518,-87248,133545,137498
4712.6,14494,-87006,133490,137333
4714.6,14644,-87013,133564,137354
4716.6,14838,-87234,133631,137484
4718.6,14786,-87437,133644,137605
4720.6,14701,-87467,133694,137743
4722.6,14912,-87287,133739,137837
4724.6,15113,-87045,133703,137787
4726.6,14900,-86985,133672,137674
4728.6,14565,-87080,133734,137670
4730.6,14522,-87060,133850,137805
4732.6,14599,-86889,133924,137917
4734.6,14505,-86794,133936,137870
4736.6,14249,-86855,133941,137735
4738.6,13990,-86886,133933,137650
4740.6,14050,-86675,133902,137693
4742.6,14575,-86277,133987,137935
4744.6,14938,-86038,134224,138286
4746.6,14573,-86156,134353,138414
4748.6,14114,-86384,134239,138248
4750.6,14282,-86465,134085,138127
4752.6,14509,-86501,134006,138154
4754.6,14185,-86575,133927,138075
4756.6,13915,-86512,133859,137884
4758.6,14191,-86291,133802,137792
4760.6,14384,-86204,133688,137783
4762.6,14097,-86353,133604,137747
4764.6,13970,-86417,133626,137697
4766.6,14368,-86257,133645,137643
4768.6,14670,-86245,133702,137654
4770.6,14429,-86534,133906,137812
4772.6,14126,-86651,133988,137911
4774.6,14271,-86376,133724,137730
4776.6,14624,-86193,133436,137499
4778.6,14730,-86325,133389,137475
4780.6,14561,-86425,133371,137496
4782.6,14366,-86480,133266,137418
4784.6,14312,-86780,133212,137372
4786.63,14392,-87153,133190,137393
4788.65,14439,-87362,133104,137335
4790.68,14319,-87670,132984,137147
4792.7,14169,-88125,132821,136903
4794.7,14213,-88287,132628,136718
4796.7,14377,-88137,132513,136638
4798.7,14404,-88170,132437,136545
4800.7,14265,-88472,132306,136422
4802.7,14166,-88710,132260,136465
4804.7,14217,-88782,132363,136625
4806.7,14336,-88786,132409,136624
4808.7,14459,-88716,132385,136545
4810.7,14557,-88653,132457,136628
4812.7,14432,-88805,132492,136677
4814.7,13968,-89104,132319,136478
4816.7,13603,-89171,132103,136270
4818.7,13839,-88855,132010,136246
4820.7,14309,-88508,132019,136271
4822.7,14302,-88511,132133,136281
4824.7,13984,-88823,132288,136309
4826.7,13976,-89200,132337,136321
4828.7,14256,-89503,132332,136347
4830.7,14550,-89625,132312,136353
4832.7,14898,-89534,132106,136142
4834.7,15059,-89484,131834,135799
4836.7,14570,-89669,131925,135683
4838.7,13793,-89793,132396,135808
4840.7,13518,-89514,132907,135964
4842.7,13588,-89094,133343,136119
4844.7,13336,-89020,133663,136171
4846.7,12968,-89236,133750,136040
4848.7,13134,-89278,133788,136207
4850.7,13696,-89028,134036,137110
4852.7,14113,-88778,134349,138377
4854.7,14491,-88575,134574,139672
4856.7,15165,-88146,134790,141287
4858.7,15826,-87566,134709,143123
4860.7,16080,-87178,133822,144470
4862.7,16275,-86778,132339,145226
4864.7,16772,-85874,130955,145907
4866.7,17148,-84716,129782,146432
4868.7,17005,-83990,128465,146216
4870.7,16594,-83790,127114,145255
4872.7,16019,-83898,126260,144108
4874.7,15077,-84484,125969,142993
4876.7,14131,-85687,125773,141510
4878.7,13739,-87193,125484,139245
4880.7,13643,-88694,125360,136419
4882.7,13407,-90055,125472,133880
4884.7,13295,-91039,125659,132445
4886.7,13529,-91514,126012,132231
4888.7,13827,-91657,126677,132644
4890.7,14178,-91625,127486,133079
4892.7,14737,-91461,128287,133480
4894.7,15049,-91302,129087,133969
4896.7,14723,-91166,129748,134386
4898.7,14346,-90814,130198,134647
4900.7,14508,-90259,130662,134978
4902.7,14776,-89918,131154,135377
4904.7,14633,-89924,131409,135554
4906.7,14442,-89891,131462,135537
4908.7,14608,-89653,131538,135537
4910.7,14729,-89603,131623,135506
4912.7,14380,-89864,131743,135436
4914.7,13932,-89897,132021,135497
4916.73,13839,-89494,132254,135596
4918.75,13858,-89230,132232,135561
4920.78,13734,-89318,132208,135593
4922.8,13861,-89183,132364,135840
4924.8,14438,-88714,132477,136060
4926.8,14873,-88532,132457,136128
4928.8,14751,-88741,132464,136185
4930.8,14453,-88870,132496,136255
4932.8,14325,-88929,132486,136291
4934.8,14246,-89128,132518,136362
4936.8,14169,-89188,132633,136483
4938.8,14202,-88997,132770,136600
4940.8,14284,-88960,132890,136711
4942.8,14420,-89068,132950,136778
4944.8,14722,-88894,132944,136756
4946.8,14961,-88611,132943,136681
4948.8,14800,-88655,132921,136554
4950.8,14479,-88739,132843,136397
4952.8,14512,-88445,132855,136379
4954.8,14842,-88114,132977,136487
4956.8,14982,-88167,132993,136460
4958.8,14779,-88392,132917,136339
4960.8,14549,-88477,132961,136406
4962.8,14577,-88444,133043,136578
4964.8,14836,-88389,133002,136617
4966.8,15096,-88396,132979,136636
4968.8,15147,-88518,133071,136761
4970.8,14955,-88556,133161,136904
4972.8,14717,-88353,133279,137098
4974.8,14667,-88183,133524,137398
4976.8,14773,-88242,133756,137613
4978.8,14856,-88217,133828,137646
4980.8,14942,-87965,133784,137632
4982.8,15152,-87832,133694,137589
4984.8,15322,-87890,133674,137524
4986.8,15222,-87793,133872,137615
4988.8,15036,-87558,134167,137844
4990.8,15145,-87528,134337,137979
4992.8,15553,-87667,134443,138046
4994.8,15900,-87698,134633,138235
4996.8,15976,-87595,134861,138526
4998.8,15889,-87414,135071,138825
5000.8,15719,-87195,135272,139079
5002.8,15413,-87169,135395,139192
5004.8,15178,-87377,135409,139174
5006.8,15376,-87358,135403,139194
5008.8,15796,-86897,135491,139324
5010.8,15836,-86501,135742,139517
5012.8,15544,-86537,135990,139623
5014.8,15500,-86701,135882,139409
5016.8,15713,-86693,135493,138977
5018.8,15715,-86614,135365,138834
5020.8,15546,-86558,135595,139072
5022.8,15622,-86487,135691,139173
5024.8,15897,-86420,135499,138952
5026.8,15991,-86394,135349,138757
5028.8,15884,-86436,135378,138747
5030.8,15907,-86544,135430,138747
5032.8,16119,-86539,135383,138639
5034.8,16145,-86308,135244,138420
5036.8,15773,-86192,135116,138187
5038.8,15306,-86522,135037,138067
5040.8,15060,-86994,134893,138022
5042.8,14977,-87150,134705,137949
5044.8,15007,-87059,134650,137872
5046.8,15289,-86987,134643,137773
5048.8,15702,-86961,134460,137571
5050.8,15883,-86962,134213,137370
5052.8,15755,-87041,134113,137311
5054.8,15509,-87167,134112,137299
5056.83,15233,-87257,134102,137180
5058.85,15000,-87248,134043,136943
5060.88,14948,-87118,133904,136704
5062.9,15013,-87038,133793,136667
5064.9,14939,-87242,133825,136861
5066.9,14658,-87555,133856,137005
5068.9,14370,-87596,133793,136979
5070.9,14294,-87442,133762,136960
5072.9,14488,-87405,133711,136907
5074.9,14795,-87369,133501,136656
5076.9,15034,-87159,133298,136412
5078.9,15238,-87047,133216,136353
5080.9,15506,-87194,133086,136269
5082.9,15681,-87268,132972,136137
5084.9,15574,-87165,133092,136223
5086.9,15360,-87201,133263,136442
5088.9,15298,-87365,133244,136520
5090.9,15258,-87352,133198,136533
5092.9,15025,-87260,133274,136623
5094.9,14794,-87314,133348,136691
5096.9,14844,-87332,133345,136647
5098.9,14970,-87232,133280,136508
5100.9,14810,-87288,133196,136349
5102.9,14447,-87409,133228,136336
5104.9,14211,-87235,133364,136483
5106.9,14188,-87030,133421,136614
5108.9,14337,-87210,133481,136762
5110.9,14698,-87354,133685,137005
5112.9,15157,-86993,133771,137082
5114.9,15377,-86644,133579,136875
5116.9,15278,-86845,133436,136716
5118.9,15180,-87153,133486,136735
5120.9,15261,-87096,133484,136719
5122.9,15264,-86973,133408,136678
5124.9,15014,-87042,133408,136718
5126.9,14780,-87051,133434,136745
5128.9,14819,-86866,133479,136800
5130.9,14988,-86641,133599,136964
5132.9,15098,-86427,133610,136959
5134.9,15209,-86239,133422,136666
5136.9,15327,-86202,133297,136492
5138.9,15296,-86279,133278,136577
5140.9,15170,-86323,133110,136545
5142.9,15247,-86384,132879,136349
5144.9,15621,-86449,132889,136346
5146.9,16038,-86262,133047,136550
5148.9,16153,-85904,133093,136690
5150.9,15770,-85901,133056,136715
5152.9,14975,-86347,133019,136674
5154.9,14207,-86690,132923,136521
5156.9,13938,-86638,132841,136366
5158.9,14174,-86476,132976,136464
5160.9,14489,-86419,133236,136764
5162.9,14591,-86389,133252,136876
5164.9,14602,-86389,132958,136644
5166.9,14743,-86478,132662,136352
5168.9,14989,-86577,132465,136170
5170.9,15154,-86678,132211,135975
5172.9,15176,-86928,132011,135814
5174.9,15173,-87307,132030,135808
5176.9,15223,-87602,131997,135708
5178.9,15218,-87738,131730,135367
5180.9,15023,-87846,131583,135176
5182.9,14672,-88049,131701,135305
5184.9,14324,-88339,131702,135351
5186.93,14081,-88636,131470,135159
5188.95,13939,-88939,131271,134981
5190.98,13897,-89292,131151,134836
5193.0,14046,-89486,131075,134674
5195.0,14455,-89199,131181,134700
5197.0,14999,-88626,131386,134899
5199.0,15378,-88384,131444,135008
5201.0,15336,-88643,131405,135038
5203.0,14896,-89002,131356,135066
5205.0,14485,-89111,131178,134938
5207.0,14610,-88922,130953,134718
5209.0,15084,-88645,130904,134655
5211.0,15098,-88664,130918,134645
5213.0,14500,-89039,130840,134543
5215.0,14199,-89296,130856,134587
5217.0,14703,-89174,131032,134840
5219.0,15282,-88987,131136,134967
5221.0,15187,-88971,131124,134882
5223.0,14632,-89068,131191,134785
5225.0,14104,-89351,131395,134649
5227.0,13720,-89789,131627,134354
5229.0,13550,-89951,131763,134009
5231.0,13726,-89695,131757,133772
5233.0,14079,-89537,131728,133718
5235.0,14284,-89738,131810,133957
5237.0,14339,-89783,131962,134595
5239.0,14529,-89296,132195,135653
5241.0,15006,-88639,132619,137062
5243.0,15660,-88122,133075,138655
5245.0,16283,-87478,133152,140263
5247.0,16744,-86620,132618,141789
5249.0,17074,-85923,131533,143105
5251.0,17369,-85369,130170,144064
5253.0,17531,-84551,128863,144622
5255.0,17295,-83754,127628,144695
5257.0,16636,-83706,126299,144174
5259.0,15911,-84295,125145,143221
5261.0,15461,-84857,124538,142080
5263.0,15261,-85444,124218,140665
5265.0,15054,-86564,123859,138756
5267.0,14696,-88111,123720,136340
5269.0,14343,-89523,123896,133642
5271.0,14247,-90509,124009,131305
5273.0,14337,-91067,124122,130193
5275.0,14329,-91251,124703,130389
5277.0,14276,-91269,125666,131047
5279.0,14472,-91369,126562,131592
5281.0,14853,-91444,127300,132076
5283.0,15100,-91189,127949,132454
5285.0,15170,-90765,128454,132613
5287.0,15192,-90640,128841,132757
5289.0,15130,-90712,129142,132949
5291.0,14896,-90499,129294,132976
5293.0,14554,-90148,129413,132970
5295.0,14278,-90132,129719,133269
5297.0,14193,-90247,130132,133714
5299.0,14213,-90081,130394,133904
5301.0,14236,-89844,130444,133799
5303.0,14419,-89743,130387,133593
5305.0,14773,-89488,130320,133407
5307.0,14832,-89035,130354,133378
5309.0,14460,-88762,130580,133631
5311.0,14257,-88745,130917,134062
5313.0,14492,-88793,131103,134349
5315.0,14628,-88952,131010,134293
5317.0,14403,-89260,130829,134087
5319.0,14235,-89479,130763,134058
5321.0,14370,-89449,130747,134217
5323.0,14655,-89222,130712,134338
5325.0,14997,-88836,130712,134341
5327.03,15263,-88422,130722,134326
5329.05,15193,-88279,130739,134394
5331.08,14902,-88447,130898,134563
5333.1,14839,-88591,131134,134715
5335.1,14999,-88550,131188,134724
5337.1,14919,-88528,131095,134624
5339.1,14598,-88588,131034,134427
5341.1,14562,-88534,130928,134103
5343.1,14872,-88386,130793,133903
5345.1,15036,-88376,130868,134101
5347.1,14970,-88458,131086,134460
5349.1,15036,-88401,131168,134640
5351.1,15180,-88281,131194,134747
5353.1,15139,-88304,131305,134875
5355.1,15160,-88342,131315,134833
5357.1,15407,-88207,131150,134676
5359.1,15395,-88109,131031,134670
5361.1,14997,-88255,131055,134780
5363.1,14838,-88375,131179,134883
5365.1,15035,-88200,131385,135043
5367.1,14997,-87990,131547,135195
5369.1,14734,-88045,131585,135230
5371.1,14820,-88153,131685,135293
5373.1,15210,-88015,131893,135425
5375.1,15409,-87777,131988,135443
5377.1,15397,-87679,132007,135441
5379.1,15411,-87636,132176,135618
5381.1,15403,-87527,132376,135761
5383.1,15298,-87494,132397,135702
5385.1,15266,-87596,132392,135756
5387.1,15447,-87589,132561,136102
5389.1,15694,-87385,132816,136466
5391.1,15755,-87284,132993,136652
5393.1,15612,-87381,133037,136706
5395.1,15514,-87328,133010,136656
5397.1,15624,-86984,133023,136549
5399.1,15852,-86654,133042,136474
5401.1,16080,-86491,132966,136438
5403.1,16211,-86414,132893,136421
5405.1,16087,-86514,132936,136428
5407.1,15761,-86760,132980,136443
5409.1,15663,-86722,132969,136503
5411.1,16007,-86332,132971,136602
5413.1,16377,-86172,132924,136564
5415.1,16331,-86484,132833,136392
5417.1,16051,-86765,132856,136316
5419.1,15969,-86650,132872,136248
5421.1,16076,-86360,132669,135950
5423.1,16045,-86232,132497,135674
5425.1,15801,-86357,132567,135687
5427.1,15549,-86589,132564,135670
5429.1,15431,-86701,132332,135412
5431.1,15455,-86618,132146,135227
5433.1,15546,-86432,132014,135210
5435.1,15475,-86318,131792,135122
5437.1,15162,-86483,131709,135018
5439.1,15043,-86870,131853,135033
5441.1,15440,-87032,131814,134953
5443.1,15829,-86844,131462,134664
5445.1,15628,-86808,131202,134445
5447.1,15212,-87138,131172,134435
5449.1,15077,-87454,131073,134360
5451.1,14857,-87661,130810,134000
5453.1,14433,-87939,130644,133601
5455.1,14736,-87954,130704,133557
5457.13,16015,-87436,130773,133835
5459.15,16796,-87035,130711,134090
5461.18,16075,-87314,130711,134237
5463.2,14918,-87711,130865,134343
5465.2,14525,-87642,130893,134265
5467.2,14491,-87557,130683,133993
5469.2,14237,-87857,130529,133863
5471.2,14278,-88000,130560,133968
5473.2,14929,-87658,130575,134050
5475.2,15429,-87454,130484,134049
5477.2,15230,-87730,130353,134038
5479.2,14879,-87922,130215,133925
5481.2,15001,-87794,130136,133737
5483.2,15366,-87810,130172,133680
5485.2,15391,-87982,130292,133774
5487.2,15037,-87787,130488,133874
5489.2,14854,-87249,130651,133912
5491.2,15141,-86853,130554,133899
5493.2,15403,-86714,130339,133971
5495.2,15062,-86674,130419,134227
5497.2,14426,-86670,130685,134406
5499.2,14261,-86638,130719,134291
5501.2,14612,-86587,130628,134211
5503.2,14861,-86713,130692,134393
5505.2,14762,-87029,130715,134473
5507.2,14645,-87232,130543,134286
5509.2,14776,-87140,130430,134184
5511.2,15084,-86888,130452,134239
5513.2,15331,-86669,130409,134171
5515.2,15316,-86546,130316,134021
5517.2,15105,-86519,130319,134023
5519.2,14953,-86582,130366,134118
5521.2,14917,-86667,130340,134089
5523.2,14976,-86621,130215,133887
5525.2,15316,-86446,130050,133684
5527.2,15784,-86391,129958,133674
5529.2,15699,-86529,129936,133743
5531.2,15038,-86600,129849,133602
5533.2,14803,-86486,129721,133345
5535.2,15397,-86347,129721,133329
5537.2,15883,-86310,129832,133526
5539.2,15467,-86486,129922,133641
5541.2,14512,-86898,129948,133588
5543.2,13849,-87125,129902,133440
5545.2,13991,-86818,129839,133324
5547.2,14891,-86456,129806,133347
5549.2,15893,-86549,129617,133313
5551.2,16202,-86705,129233,133038
5553.2,15737,-86480,129116,132886
5555.2,15216,-86197,129382,133077
5557.2,15243,-86205,129417,133098
5559.2,15526,-86451,129091,132777
5561.2,15357,-86963,129048,132737
5563.2,14741,-87639,129299,133046
5565.2,14382,-87955,129198,133034
5567.2,14479,-87766,128820,132716
5569.2,14500,-87653,128709,132672
5571.2,14251,-87897,128728,132787
5573.2,14118,-88151,128504,132616
5575.2,14228,-88269,128270,132355
5577.2,14329,-88432,128320,132365
5579.2,14374,-88573,128415,132474
5581.2,14472,-88575,128282,132399
5583.2,14556,-88620,128104,132259
5585.2,14601,-88739,128128,132257
5587.2,14730,-88667,128157,132254
5589.2,14905,-88469,127945,132062
5591.2,14944,-88503,127795,131927
5593.2,14839,-88714,127986,132092
5595.2,14689,-88787,128056,132195
5597.23,14551,-88774,127687,131922
5599.25,14540,-88879,127493,131710
5601.28,14694,-89038,127869,131929
5603.3,14796,-89127,128180,132147
5605.3,14747,-89099,127961,131946
5607.3,14783,-88884,127654,131584
5609.3,14949,-88648,127725,131460
5611.3,14969,-88753,128046,131566
5613.3,14841,-89122,128299,131583
5615.3,14757,-89338,128373,131299
5617.3,14557,-89424,128390,130918
5619.3,14129,-89638,128453,130753
5621.3,13933,-89772,128478,130762
5623.3,14261,-89559,128495,130936
5625.3,14676,-89217,128721,131611
5627.3,14861,-88909,129135,132836
5629.3,15156,-88387,129533,134227
5631.3,15760,-87605,129858,135659
5633.3,16363,-86895,129858,137186
5635.3,16843,-86288,129088,138575
5637.3,17398,-85451,127737,139706
5639.3,17928,-84351,126474,140713
5641.3,18060,-83361,125376,141376
5643.3,17716,-82791,124085,141290
5645.3,17164,-82766,122754,140538
5647.3,16721,-83334,121855,139431
5649.3,16522,-84358,121455,138104
5651.3,16316,-85582,121298,136638
5653.3,15734,-86978,121211,134887
5655.3,14917,-88618,121185,132521
5657.3,14304,-90162,121270,129911
5659.3,13951,-91007,121429,128090
5661.3,13777,-91065,121602,127444
5663.3,13941,-90901,121974,127514
5665.3,14268,-90955,122780,127997
5667.3,14224,-91023,123846,128820
5669.3,13959,-90712,124767,129629
5671.3,14164,-90127,125378,130098
5673.3,14760,-89756,125714,130296
5675.3,15028,-89767,125874,130396
5677.3,14814,-89840,126031,130433
5679.3,14518,-89751,126193,130354
5681.3,14387,-89657,126163,130116
5683.3,14514,-89654,126015,129875
5685.3,14855,-89527,126123,129944
5687.3,15060,-89177,126583,130365
5689.3,14939,-88892,127093,130815
5691.3,14825,-88890,127367,131010
5693.3,14894,-88938,127366,130921
5695.3,14851,-88792,127267,130706
5697.3,14691,-88649,127213,130535
5699.3,14810,-88732,127080,130401
5701.3,15142,-88792,126829,130328
5703.3,15244,-88559,126834,130592
5705.3,15168,-88312,127210,131179
5707.3,15198,-88431,127426,131486
5709.3,15149,-88729,127248,131281
5711.3,14855,-88762,127125,131103
5713.3,14688,-88506,127222,131227
5715.3,14831,-88307,127243,131342
5717.3,14890,-88345,127242,131395
5719.3,14681,-88447,127424,131530
5721.3,14557,-88362,127517,131497
5723.3,14753,-88083,127310,131158
5725.3,15134,-87853,127149,130920
5727.3,15493,-87844,127267,130983
5729.3,15579,-87994,127361,131000
5731.3,15192,-88190,127193,130789
5733.3,14625,-88380,126989,130632
5735.4,14473,-88463,127010,130736
5737.4,14814,-88284,127188,130947
5739.4,15135,-87883,127380,131089
5741.4,15174,-87595,127667,131310
5743.4,15223,-87648,128021,131732
5745.4,15503,-87772,128089,132032
5747.4,15772,-87628,127786,131912
5749.4,15731,-87447,127538,131666
5751.4,15517,-87587,127538,131638
5753.4,15513,-87766,127537,131701
5755.4,15774,-87551,127503,131730
5757.4,15938,-87199,127605,131843
5759.4,15793,-87192,127752,132030
5761.4,15574,-87456,127882,132195
5763.4,15520,-87618,128154,132382
5765.4,15565,-87538,128470,132564
5767.4,15620,-87325,128530,132638
5769.4,15720,-87182,128379,132607
5771.4,15806,-87176,128306,132506
5773.4,15764,-87102,128447,132451
5775.4,15680,-86872,128723,132634
5777.4,15759,-86733,128897,132917
5779.4,16082,-86699,128871,132970
5781.4,16529,-86432,128930,132970
5783.4,16811,-85992,129228,133220
5785.4,16716,-85848,129412,133419
5787.4,16450,-86047,129281,133266
5789.4,16387,-86191,129128,133058
5791.4,16501,-86130,129110,133003
5793.4,16527,-86018,129086,132932
5795.4,16491,-85944,129046,132865
5797.4,16514,-85936,129023,132932
5799.4,16470,-86022,128945,133030
5801.4,16307,-86119,128886,133089
5803.4,16226,-86140,128927,133116
5805.4,16262,-86124,128923,133000
5807.4,16255,-86066,128844,132812
5809.4,16270,-85876,128826,132773
5811.4,16437,-85657,128780,132749
5813.4,16543,-85694,128610,132570
5815.4,16400,-85984,128515,132494
5817.4,16281,-86177,128530,132580
5819.4,16451,-86121,128427,132457
5821.4,16616,-86038,128247,132108
5823.4,16369,-86093,128165,131869
5825.4,15853,-86230,128053,131739
5827.4,15506,-86401,127864,131632
5829.4,15423,-86547,127833,131672
5831.4,15410,-86574,127897,131709
5833.4,15430,-86610,127721,131451
5835.4,15521,-86884,127399,131125
5837.4,15512,-87258,127302,131077
5839.4,15307,-87426,127362,131111
5841.4,15141,-87442,127208,130922
5843.4,15207,-87503,126865,130642
5845.4,15435,-87540,126750,130511
5847.4,15776,-87476,126936,130493
5849.4,16173,-87441,126954,130406
5851.4,16255,-87455,126642,130275
5853.4,15752,-87346,126527,130359
5855.4,15106,-87076,126839,130689
5857.4,14992,-86828,127042,130895
5859.4,15356,-86768,126895,130835
5861.4,15553,-86902,126862,130831
5863.4,15337,-87111,127073,130978
5865.4,15119,-87283,127093,130965
5867.43,15194,-87381,126820,130730
5869.45,15264,-87388,126577,130569
5871.48,14989,-87354,126482,130604
5873.5,14603,-87404,126474,130714
5875.5,14537,-87489,126595,130838
5877.5,14768,-87372,126843,131015
5879.5,15091,-87051,127052,131190
5881.5,15627,-86766,127038,131165
5883.5,16294,-86551,126833,130893
5885.5,16347,-86332,126700,130668
5887.5,15461,-86272,126737,130672
5889.5,14602,-86471,126728,130677
5891.5,14690,-86690,126646,130600
5893.5,15210,-86765,126703,130646
5895.5,15245,-86812,126752,130686
5897.5,14948,-86855,126545,130492
5899.5,14924,-86766,126363,130379
5901.5,15140,-86571,126460,130595
5903.5,15268,-86436,126518,130750
5905.5,15278,-86402,126374,130660
5907.5,15232,-86392,126329,130665
5909.5,15176,-86369,126432,130801
5911.5,15252,-86358,126454,130787
5913.5,15437,-86344,126393,130669
5915.5,15488,-86258,126328,130613
5917.5,15383,-86073,126203,130555
5919.5,15308,-85913,126069,130472
5921.5,15255,-85959,126005,130431
5923.5,15190,-86176,125954,130417
5925.5,15296,-86271,125910,130447
5927.5,15579,-86080,125920,130531
5929.5,15761,-85826,125924,130543
5931.5,15780,-85791,125912,130470
5933.5,15776,-85933,125952,130449
5935.5,15712,-86076,125981,130449
5937.5,15579,-86188,125883,130328
5939.5,15571,-86276,125667,130074
5941.5,15634,-86307,125410,129760
5943.5,15479,-86325,125265,129541
5945.5,15179,-86395,125354,129576
5947.5,15067,-86498,125502,129711
5949.5,15163,-86625,125473,129657
5951.5,15254,-86837,125343,129480
5953.5,15254,-87119,125197,129338
5955.5,15195,-87366,124937,129121
5957.5,15185,-87521,124672,128850
5959.5,15283,-87623,124605,128737
5961.5,15280,-87725,124572,128694
5963.5,15057,-87828,124387,128534
5965.5,15008,-87881,124227,128407
5967.5,15347,-87849,124185,128420
5969.5,15512,-87795,124125,128412
5971.5,15156,-87810,124094,128368
5973.5,14857,-87866,124169,128372
5975.5,14971,-87876,124190,128347
5977.5,14917,-87885,124137,128331
5979.5,14407,-87951,124144,128446
5981.5,14088,-87907,124095,128502
5983.5,14330,-87675,123908,128379
5985.5,14632,-87617,123872,128395
5987.5,14671,-87980,124077,128647
5989.5,14748,-88342,124201,128765
5991.5,14963,-88313,124140,128637
5993.5,15002,-88190,124072,128468
5995.5,14834,-88307,123994,128241
5997.5,14745,-88479,123834,127915
5999.5,14755,-88523,123712,127646
6001.5,14692,-88541,123716,127407
6003.5,14572,-88608,123823,127064
6005.5,14462,-88774,124009,126762
6007.53,14345,-89103,124175,126632
6009.55,14302,-89396,124236,126572
6011.58,14410,-89348,124298,126677
6013.6,14541,-89039,124450,127231
6015.6,14681,-88714,124660,128214
6017.6,15084,-88275,125009,129404
6019.6,15781,-87503,125525,130778
6021.6,16445,-86538,125804,132357
6023.6,16932,-85690,125362,133927
6025.6,17420,-84973,124247,135270
6027.6,17845,-84181,122990,136453
6029.6,17828,-83313,121991,137532
6031.6,17350,-82574,121070,138130
6033.6,16919,-82064,119856,137814
6035.6,16781,-81908,118568,136764
6037.6,16558,-82458,117751,135441
6039.6,15998,-83806,117388,133888
6041.6,15399,-85463,117149,131992
6043.6,14946,-87021,117082,129814
6045.6,14434,-88511,117184,127336
6047.6,13942,-89758,117143,124840
6049.6,13901,-90345,117073,123319
6051.6,14317,-90413,117451,123293
6053.6,14717,-90464,118254,123985
6055.6,14860,-90460,119118,124601
6057.6,14881,-90080,119896,125175
6059.6,14889,-89548,120510,125717
6061.6,14856,-89293,120931,126040
6063.6,14762,-89229,121347,126320
6065.6,14664,-89053,121788,126689
6067.6,14669,-88824,122038,126863
6069.6,14788,-88734,122099,126764
6071.6,14916,-88687,122137,126632
6073.6,15046,-88494,122200,126578
6075.6,15234,-88222,122365,126658
6077.6,15311,-88058,122646,126892
6079.6,15107,-88007,122816,127039
6081.6,14885,-87972,122831,126991
6083.6,14916,-87940,122911,127010
6085.6,14927,-87888,123008,127147
6087.6,14635,-87756,122968,127197
6089.6,14375,-87659,122973,127243
6091.6,14513,-87700,123112,127414
6093.6,14824,-87658,123139,127527
6095.6,14972,-87398,123054,127541
6097.6,14987,-87278,123104,127679
6099.6,14963,-87531,123240,127893
6101.6,14881,-87768,123281,127961
6103.6,14838,-87669,123287,127950
6105.6,14957,-87473,123339,128018
6107.6,15132,-87387,123374,128101
6109.6,15208,-87258,123345,128071
6111.6,15209,-87035,123250,127904
6113.6,15212,-86892,123131,127685
6115.6,15215,-86894,123085,127579
6117.6,15205,-86996,123120,127637
6119.6,15170,-87162,123170,127744
6121.6,15111,-87268,123222,127805
6123.6,15084,-87193,123215,127792
6125.6,15145,-87028,123101,127737
6127.6,15228,-86925,123051,127788
6129.6,15221,-86852,123135,127949
6131.6,15174,-86751,123109,127971
6133.6,15265,-86695,122964,127851
6135.6,15489,-86696,123027,127920
6137.6,15568,-86652,123273,128196
6139.6,15385,-86611,123405,128401
6141.6,15237,-86732,123466,128520
6143.6,15381,-86902,123576,128629
6145.7,15624,-86825,123589,128621
6147.7,15700,-86539,123518,128557
6149.7,15705,-86369,123546,128621
6151.7,15792,-86368,123620,128709
6153.7,15843,-86274,123680,128731
6155.7,15766,-85998,123873,128859
6157.7,15731,-85753,124174,129111
6159.7,15851,-85687,124402,129320
6161.7,15973,-85687,124543,129488
6163.7,15999,-85569,124628,129628
6165.7,16029,-85339,124671,129690
6167.7,16099,-85180,124774,129762
6169.7,16096,-85160,124897,129882
6171.7,16021,-85149,124939,129977
6173.7,16010,-85071,125085,130183
6175.7,16096,-84977,125338,130473
6177.7,16163,-84886,125284,130406
6179.7,16115,-84833,124994,130036
6181.7,16014,-84896,125046,130004
6183.7,16058,-84952,125322,130275
6185.7,16347,-84783,125259,130267
6187.7,16679,-84510,125015,130080
6189.7,16777,-84383,124991,130114
6191.7,16649,-84341,125041,130213
6193.7,16476,-84308,125033,130195
6195.7,16299,-84427,125079,130175
6197.7,16105,-84573,125054,130066
6199.7,15985,-84403,124882,129815
6201.7,15963,-84126,124825,129705
6203.7,15885,-84275,124895,129755
6205.7,15673,-84795,124772,129619
6207.7,15491,-85224,124449,129278
6209.7,15504,-85436,124187,129012
6211.7,15659,-85525,124079,128914
6213.7,15838,-85430,124054,128906
6215.7,16044,-85144,124015,128882
6217.7,16285,-84853,123920,128764
6219.7,16382,-84729,123838,128603
6221.7,16144,-84838,123777,128462
6223.7,15691,-85126,123642,128290
6225.7,15353,-85382,123497,128142
6227.7,15251,-85464,123457,128104
6229.7,15237,-85492,123420,128052
6231.7,15169,-85647,123314,127904
6233.7,15002,-85958,123234,127809
6235.7,14759,-86317,123155,127789
6237.7,14611,-86508,122972,127689
6239.7,14766,-86338,122746,127507
6241.7,15167,-85917,122590,127363
6243.7,15565,-85614,122575,127349
6245.7,15869,-85623,122712,127489
6247.7,16091,-85779,122798,127617
6249.7,16097,-85847,122672,127595
6251.7,15786,-85775,122571,127624
6253.7,15331,-85656,122646,127812
6255.7,14977,-85602,122628,127862
6257.7,14787,-85674,122467,127709
6259.7,14745,-85803,122448,127656
6261.7,14848,-85818,122495,127650
6263.7,14975,-85706,122405,127484
6265.7,14972,-85683,122413,127437
6267.7,14911,-85818,122637,127692
6269.7,14972,-85881,122734,127864
6271.7,15100,-85765,122629,127791
6273.7,15126,-85656,122605,127774
6275.7,15087,-85602,122667,127852
6277.73,15121,-85431,122658,127826
6279.75,15263,-85152,122613,127725
6281.78,15525,-84955,122562,127634
6283.8,15869,-84868,122500,127567
6285.8,16117,-84781,122513,127590
6287.8,16177,-84694,122549,127645
6289.8,16094,-84707,122520,127593
6291.8,15798,-84844,122595,127576
6293.8,15316,-84930,122812,127731
6295.8,15072,-84753,122900,127879
6297.8,15265,-84434,122861,127963
6299.8,15407,-84307,122913,128094
6301.8,15207,-84336,122892,128084
6303.8,15100,-84217,122633,127813
6305.8,15255,-84056,122464,127661
6307.8,15199,-84178,122595,127848
6309.8,14910,-84421,122724,128027
6311.8,14939,-84417,122610,127927
6313.8,15231,-84242,122367,127679
6315.8,15228,-84155,122189,127480
6317.8,15033,-84121,122144,127408
6319.8,15120,-84078,122137,127412
6321.8,15314,-84181,122100,127426
6323.8,15240,-84454,122174,127548
6325.8,15100,-84636,122350,127756
6327.8,15148,-84556,122311,127726
6329.8,15228,-84379,122047,127406
6331.8,15247,-84361,121882,127175
6333.8,15308,-84538,121804,127129
6335.8,15350,-84743,121633,127062
6337.8,15298,-84882,121535,126996
6339.8,15226,-85034,121575,126952
6341.8,15120,-85240,121508,126764
6343.8,15008,-85380,121339,126543
6345.8,15122,-85410,121206,126506
6347.8,15382,-85556,120968,126426
6349.8,15339,-85974,120635,126102
6351.8,15057,-86377,120530,125830
6353.8,15080,-86429,120668,125865
6355.8,15360,-86318,120757,126064
6357.8,15344,-86407,120722,126202
6359.8,15022,-86609,120652,126170
6361.8,14806,-86665,120607,126048
6363.8,14751,-86645,120634,126034
6365.8,14749,-86654,120635,126070
6367.8,14905,-86552,120493,125944
6369.8,15151,-86341,120350,125751
6371.8,15196,-86262,120291,125638
6373.8,15093,-86372,120163,125486
6375.8,15090,-86592,120038,125356
6377.8,15044,-86988,120117,125494
6379.8,14764,-87502,120241,125750
6381.8,14589,-87788,120261,125834
6383.8,14794,-87706,120342,125796
6385.8,14969,-87541,120489,125719
6387.8,14790,-87477,120585,125619
6389.8,14693,-87343,120792,125675
6391.8,15033,-87105,121155,125852
6393.8,15385,-87056,121391,125791
6395.8,15286,-87271,121451,125480
6397.8,14894,-87391,121457,125196
6399.8,14555,-87273,121326,125025
6401.8,14450,-87242,121176,125194
6403.8,14684,-87358,121354,126050
6405.8,15152,-87194,121719,127297
6407.8,15537,-86635,121907,128436
6409.8,15791,-86090,121987,129716
6411.8,16202,-85670,121910,131413
6413.8,16856,-85059,121184,132992
6415.9,17507,-84239,119787,134027
6417.9,17937,-83506,118364,134805
6419.9,18047,-82901,117197,135431
6421.9,17728,-82324,115958,135473
6423.9,16982,-81910,114564,134729
6425.9,16083,-81801,113503,133576
6427.9,15372,-82051,113145,132464
6429.9,14904,-82889,113125,131286
6431.9,14457,-84393,112831,129380
6433.9,13982,-86057,112392,126515
6435.9,13720,-87361,112459,123625
6437.9,13758,-88324,113080,121883
6439.9,13880,-89039,113771,121454
6441.9,13981,-89379,114464,121740
6443.9,14208,-89422,115366,122256
6445.9,14616,-89412,116310,122809
6447.9,15047,-89308,117069,123323
6449.9,15286,-89009,117708,123740
6451.9,15200,-88672,118264,123982
6453.9,14881,-88440,118656,124093
6455.9,14627,-88270,118944,124253
6457.9,14628,-88137,119220,124496
6459.9,14827,-88038,119462,124730
6461.9,15088,-87936,119613,124928
6463.9,15255,-87853,119626,125044
6465.9,15228,-87720,119538,125055
6467.9,15172,-87366,119493,125120
6469.9,15285,-86943,119498,125251
6471.9,15378,-86831,119487,125242
6473.9,15206,-86932,119623,125164
6475.9,14997,-86798,119932,125206
6477.9,15057,-86489,120034,125141
6479.9,15189,-86467,119869,124864
6481.9,15055,-86754,119881,124829
6483.9,14790,-86960,120129,125197
6485.9,14836,-86978,120264,125522
6487.9,15291,-87002,120283,125575
6489.9,15756,-87009,120366,125540
6491.9,15831,-86771,120483,125570
6493.9,15545,-86339,120666,125775
6495.9,15155,-86115,120938,126118
6497.9,14815,-86325,121055,126291
6499.9,14657,-86653,120983,126207
6501.9,14774,-86639,121007,126142
6503.9,14924,-86337,121098,126135
6505.9,14801,-86225,121032,126057
6507.9,14594,-86416,120927,126060
6509.9,14741,-86490,120907,126221
6511.9,15231,-86265,120831,126346
6513.9,15694,-86041,120696,126384
6515.9,15921,-85937,120589,126388
6517.9,15932,-85772,120433,126287
6519.9,15821,-85618,120265,126165
6521.9,15756,-85639,120231,126176
6523.9,15825,-85648,120250,126250
6525.9,15852,-85552,120242,126411
6527.9,15659,-85637,120340,126758
6529.9,15444,-85875,120557,126969
6531.9,15513,-85816,120788,126805
6533.9,15732,-85445,121048,126676
6535.9,15718,-85213,121280,126877
6537.9,15502,-85237,121390,127134
6539.9,15411,-85287,121507,127326
6541.9,15488,-85274,121679,127555
6543.9,15610,-85216,121758,127684
6545.9,15837,-85093,121836,127678
6547.93,16113,-84953,122059,127740
6549.95,16169,-84861,122224,127852
6551.98,16059,-84802,122257,127959
6554.0,16113,-84825,122406,128245
6556.0,16305,-84943,122621,128642
6558.0,16357,-84953,122718,128879
6560.0,16279,-84742,122888,129062
6562.0,16218,-84513,123187,129310
6564.0,16140,-84395,123270,129376
6566.0,16032,-84223,123150,129270
6568.0,16041,-83929,123187,129315
6570.0,16239,-83687,123344,129445
6572.0,16482,-83594,123392,129399
6574.0,16534,-83593,123400,129289
6576.0,16312,-83655,123451,129278
6578.0,16042,-83751,123471,129257
6580.0,16029,-83753,123429,129149
6582.0,16243,-83625,123298,128999
6584.0,16399,-83551,123103,128842
6586.0,16454,-83654,123038,128715
6588.0,16635,-83720,123144,128615
6590.0,16912,-83543,123203,128525
6592.0,16913,-83366,123173,128547
6594.0,16522,-83532,123137,128659
6596.0,16111,-83900,122990,128583
6598.0,15978,-84105,122778,128310
6600.0,15974,-84129,122762,128157
6602.0,15858,-84113,122822,128139
6604.0,15661,-84009,122612,128014
6606.0,15547,-83836,122272,127854
6608.0,15543,-83796,122189,127866
6610.0,15569,-83912,122305,127950
6612.0,15594,-84047,122269,127871
6614.0,15675,-84242,121973,127545
6616.0,15870,-84564,121640,127097
6618.0,16184,-84845,121456,126747
6620.0,16572,-84959,121270,126511
6622.0,16853,-84998,120949,126286
6624.0,16736,-85029,120819,126253
6626.0,16187,-85015,121093,126535
6628.0,15578,-84946,121336,126735
6630.0,15219,-84845,121250,126644
6632.0,14982,-84786,121199,126665
6634.0,14696,-84895,121370,126911
6636.0,14540,-85074,121469,126994
6638.0,14721,-84995,121408,126895
6640.0,15073,-84651,121332,126872
6642.0,15293,-84504,121255,126851
6644.0,15332,-84784,121266,126769
6646.0,15368,-85088,121414,126736
6648.0,15505,-85041,121411,126609
6650.0,15660,-84846,121196,126336
6652.0,15708,-84799,121191,126322
6654.0,15675,-84787,121466,126695
6656.0,15677,-84694,121624,127029
6658.0,15721,-84665,121583,127113
6660.0,15734,-84643,121564,127095
6662.0,15698,-84421,121588,127063
6664.0,15593,-84207,121614,127115
6666.0,15416,-84244,121649,127278
6668.0,15321,-84191,121605,127266
6670.0,15462,-83828,121459,126919
6672.0,15712,-83655,121335,126546
6674.0,15850,-83911,121280,126438
6676.0,15861,-84093,121323,126572
6678.0,15771,-84013,121487,126839
6680.0,15556,-84052,121616,127102
6682.0,15359,-84160,121633,127268
6684.0,15397,-83914,121703,127388
6686.1,15612,-83472,121770,127430
6688.1,15770,-83314,121631,127296
6690.1,15858,-83358,121485,127139
6692.1,16024,-83287,121541,127092
6694.1,16258,-83252,121538,127000
6696.1,16371,-83479,121360,126891
6698.1,16236,-83695,121270,126998
6700.1,15897,-83567,121284,127207
6702.1,15513,-83286,121249,127292
6704.1,15258,-83214,121275,127332
6706.1,15219,-83312,121380,127322
6708.1,15318,-83335,121361,127135
6710.1,15368,-83296,121262,126996
6712.1,15331,-83361,121232,127064
6714.1,15406,-83448,121173,127036
6716.1,15668,-83318,121075,126882
6718.1,15808,-83096,121066,127000
6720.1,15601,-83218,121064,127301
6722.1,15392,-83641,120970,127296
6724.1,15585,-83733,120893,126994
6726.1,15936,-83344,120818,126783
6728.1,15942,-83184,120654,126771
6730.1,15658,-83621,120526,126793
6732.1,15504,-84060,120491,126713
6734.1,15535,-84045,120379,126582
6736.1,15481,-83970,120212,126600
6738.1,15317,-84194,120189,126749
6740.1,15295,-84493,120269,126696
6742.1,15472,-84690,120248,126344
6744.1,15612,-84926,120077,126077
6746.1,15558,-85153,119882,126210
6748.1,15397,-85167,119790,126515
6750.1,15300,-85048,119721,126431
6752.1,15395,-84991,119560,125829
6754.1,15673,-85045,119541,125368
6756.1,15886,-85291,119823,125546
6758.1,15791,-85707,119956,125916
6760.1,15496,-85917,119659,126029
6762.1,15265,-85675,119427,126169
6764.1,15148,-85338,119540,126363
6766.1,15126,-85311,119596,126160
6768.1,15275,-85508,119486,125760
6770.1,15503,-85658,119491,125724
6772.1,15551,-85658,119569,125898
6774.1,15382,-85560,119615,126012
6776.1,15193,-85520,119701,126180
6778.1,15126,-85590,119633,126141
6780.1,15225,-85591,119359,125636
6782.1,15398,-85547,119428,125317
6784.1,15376,-85809,119996,125621
6786.1,15074,-86322,120421,125842
6788.1,14859,-86536,120463,125541
6790.1,14969,-86410,120484,125266
6792.1,15054,-86502,120527,125415
6794.1,14859,-86842,120515,125932
6796.1,14799,-86768,120705,126831
6798.1,15258,-86038,121114,127972
6800.1,15953,-85144,121452,129165
6802.1,16572,-84458,121706,130703
6804.1,17263,-83794,121808,132689
6806.1,18074,-82934,121278,134385
6808.1,18684,-82087,119982,135248
6810.1,18841,-81580,118449,135679
6812.1,18487,-81346,117004,136076
6814.1,17756,-81007,115433,136092
6816.1,17166,-80475,113692,135263
6818.13,17072,-80183,112300,133753
6820.15,17043,-80578,111684,132093
6822.18,16754,-81627,111464,130327
6824.2,16665,-82965,111034,127977
6826.2,16749,-84338,110668,125163
6828.2,16054,-85654,111049,122952
6830.2,14630,-86735,111999,122050
6832.2,13922,-87370,112878,122058
6834.2,14388,-87643,113729,122362
6836.2,14833,-87867,114824,122835
6838.2,14598,-88089,115900,123516
6840.2,14358,-88023,116679,124229
6842.2,14540,-87620,117247,124611
6844.2,14750,-87260,117687,124525
6846.2,14827,-87169,118053,124450
6848.2,15074,-87080,118447,124857
6850.2,15458,-86798,118725,125397
6852.2,15600,-86557,118714,125517
6854.2,15481,-86518,118619,125349
6856.2,15402,-86449,118633,125243
6858.2,15431,-86211,118648,125237
6860.2,15413,-85975,118663,125383
6862.2,15314,-85795,118794,125674
6864.2,15196,-85593,118978,125814
6866.2,15128,-85505,119165,125771
6868.2,15240,-85615,119404,125888
6870.2,15504,-85674,119579,126173
6872.2,15598,-85564,119602,126364
6874.2,15403,-85495,119642,126497
6876.2,15288,-85475,119777,126638
6878.2,15482,-85300,119873,126604
6880.2,15656,-85104,119897,126396
6882.2,15532,-85147,119907,126255
6884.2,15371,-85267,119929,126250
6886.2,15470,-85217,120045,126362
6888.2,15638,-85156,120253,126678
6890.2,15566,-85275,120377,127180
6892.2,15349,-85393,120352,127555
6894.2,15292,-85253,120266,127441
6896.2,15465,-84882,120179,126875
6898.2,15719,-84531,120163,126367
6900.2,15891,-84455,120214,126290
6902.2,15866,-84681,120183,126539
6904.2,15730,-84906,120156,127006
6906.2,15783,-84829,120352,127590
6908.2,16138,-84516,120519,127795
6910.2,16504,-84211,120326,127393
6912.2,16584,-84010,120080,127043
6914.2,16359,-83924,120113,127239
6916.2,15961,-84021,120224,127617
6918.2,15611,-84252,120300,127835
6920.2,15587,-84369,120435,127895
6922.2,15898,-84214,120486,127744
6924.2,16212,-83972,120436,127636
6926.2,16270,-83924,120552,127989
6928.2,16161,-84025,120729,128421
6930.2,16151,-83965,120712,128354
6932.2,16363,-83690,120763,128213
6934.2,16579,-83489,121084,128487
6936.2,16466,-83552,121392,128742
6938.2,16114,-83785,121628,128738
6940.2,16000,-84009,121990,128939
6942.2,16281,-84089,122322,129396
6944.2,16612,-83998,122467,129697
6946.2,16747,-83856,122609,129830
6948.2,16822,-83720,122757,129964
6950.2,16974,-83493,122788,130062
6952.2,17114,-83190,122884,130199
6954.2,17125,-82946,123108,130461
6956.2,17014,-82704,123190,130623
6958.23,16884,-82381,123156,130499
6960.25,16853,-82188,123265,130254
6962.28,16920,-82307,123453,130187
6964.3,16927,-82536,123570,130457
6966.3,16781,-82606,123678,130878
6968.3,16636,-82493,123753,131019
6970.3,16680,-82254,123707,130778
6972.3,16830,-81944,123630,130456
6974.3,16863,-81722,123562,130231
6976.3,16736,-81734,123421,130177
6978.3,16552,-81901,123317,130417
6980.3,16369,-82044,123386,130710
6982.3,16207,-82109,123503,130612
6984.3,16122,-82102,123510,130281
6986.3,16148,-82043,123413,130191
6988.3,16238,-82090,123254,130265
6990.3,16286,-82385,123052,130154
6992.3,16222,-82692,122805,129806
6994.3,16135,-82684,122515,129315
6996.3,16249,-82567,122322,128859
6998.3,16591,-82734,122354,128745
7000.3,16793,-82991,122421,128966
7002.3,16579,-82896,122285,129109
7004.3,16296,-82592,122045,128954
7006.3,16391,-82538,121883,128620
7008.3,16556,-82790,121818,128254
7010.3,16204,-83089,121802,128013
7012.3,15583,-83282,121710,128005
7014.3,15403,-83336,121453,128082
7016.3,15612,-83275,121245,128030
7018.3,15667,-83235,121294,127867
7020.3,15647,-83385,121425,127766
7022.3,15938,-83704,121464,127852
7024.3,16294,-83938,121479,128047
7026.3,16311,-83884,121419,128144
