t,carotid_880nm,carotid_660nm,brachial_880nm,brachial_660nm
3.8,-475.39,18.739,325.42,210.37
13.7,-476.39,18.739,326.42,210.37
23.6,-476.39,18.739,325.42,209.37
33.5,-477.39,18.739,326.42,210.37
43.4,-477.39,18.739,326.42,209.37
53.2,-480.39,17.739,326.42,210.37
63.1,-482.39,17.739,327.42,210.37
73.0,-483.39,17.739,325.42,209.37
82.9,-484.39,17.739,325.42,209.37
92.8,-485.39,17.739,325.42,207.37
102.7,-487.39,17.739,325.42,208.37
112.6,-489.39,17.739,326.42,208.37
122.4,-488.39,17.739,329.42,210.37
132.3,-481.39,19.739,335.42,211.37
142.2,-472.39,21.739,343.42,215.37
152.1,-457.39,25.739,353.42,220.37
162.0,-442.39,29.739,364.42,225.37
171.9,-430.39,32.739,374.42,231.37
181.8,-422.39,34.739,384.42,235.37
191.6,-414.39,36.739,384.42,235.37
201.5,-411.39,36.739,382.42,234.37
211.4,-410.39,37.739,378.42,232.37
221.3,-411.39,37.739,372.42,232.37
231.2,-412.39,36.739,367.42,229.37
241.1,-414.39,36.739,365.42,228.37
251.0,-415.39,35.739,365.42,229.37
260.8,-418.39,36.739,365.42,227.37
270.7,-418.39,37.739,364.42,227.37
280.6,-420.39,37.739,364.42,227.37
290.5,-421.39,36.739,358.42,224.37
300.4,-423.39,36.739,351.42,221.37
310.3,-423.39,37.739,347.42,219.37
320.2,-426.39,36.739,346.42,219.37
330.0,-426.39,36.739,345.42,218.37
339.9,-428.39,35.739,346.42,218.37
349.8,-430.39,35.739,344.42,218.37
359.7,-431.39,35.739,344.42,218.37
369.6,-431.39,36.739,342.42,218.37
379.5,-432.39,35.739,342.42,217.37
389.4,-435.39,34.739,341.42,217.37
399.2,-436.39,35.739,339.42,216.37
409.1,-438.39,34.739,340.42,218.37
419.0,-440.39,34.739,342.42,218.37
428.9,-441.39,34.739,344.42,220.37
438.8,-444.39,33.739,344.42,219.37
448.7,-446.39,33.739,342.42,219.37
458.6,-448.39,33.739,340.42,216.37
468.4,-450.39,33.739,336.42,216.37
478.3,-453.39,32.739,334.42,214.37
488.2,-456.39,32.739,331.42,213.37
498.1,-453.39,34.739,333.42,215.37
508.0,-446.39,36.739,337.42,214.37
517.9,-446.39,36.739,343.42,219.37
527.8,-423.39,43.739,353.42,222.37
537.6,-423.39,43.739,363.42,226.37
547.5,-399.39,49.739,369.42,230.37
557.4,-399.39,49.739,372.42,230.37
567.3,-387.39,51.739,368.42,230.37
577.2,-387.39,51.739,368.42,230.37
587.1,-385.39,51.739,361.42,225.37
597.0,-385.39,51.739,361.42,225.37
606.8,-389.39,50.739,350.42,222.37
616.7,-389.39,50.739,350.42,222.37
626.6,-394.39,49.739,341.42,217.37
636.5,-394.39,49.739,341.42,217.37
646.4,-396.39,49.739,337.42,216.37
656.3,-399.39,48.739,337.42,216.37
666.2,-402.39,46.739,335.42,215.37
676.0,-405.39,45.739,335.42,215.37
685.9,-408.39,44.739,329.42,212.37
695.8,-410.39,43.739,329.42,212.37
705.7,-412.39,41.739,325.42,211.37
715.6,-417.39,40.739,325.42,211.37
725.5,-421.39,40.739,322.42,208.37
735.4,-424.39,38.739,322.42,208.37
745.2,-429.39,36.739,323.42,209.37
755.1,-432.39,35.739,323.42,209.37
765.0,-437.39,34.739,325.42,209.37
774.9,-441.39,33.739,325.42,209.37
784.8,-446.39,31.739,326.42,211.37
794.7,-451.39,30.739,328.42,212.37
804.6,-455.39,29.739,330.42,212.37
814.4,-459.39,29.739,331.42,212.37
824.3,-463.39,27.739,328.42,211.37
834.2,-468.39,26.739,325.42,210.37
844.1,-472.39,25.739,326.42,210.37
854.0,-476.39,24.739,326.42,211.37
863.9,-479.39,25.739,328.42,210.37
873.8,-482.39,24.739,328.42,211.37
883.6,-480.39,25.739,330.42,210.37
893.5,-473.39,27.739,332.42,210.37
903.4,-464.39,30.739,340.42,214.37
913.3,-450.39,34.739,351.42,219.37
923.2,-437.39,37.739,360.42,224.37
933.1,-426.39,40.739,371.42,228.37
943.0,-418.39,41.739,374.42,230.37
952.8,-414.39,42.739,375.42,230.37
962.7,-414.39,42.739,371.42,229.37
972.6,-416.39,41.739,366.42,228.37
982.5,-417.39,41.739,363.42,225.37
992.4,-421.39,40.739,358.42,224.37
1002.3,-424.39,40.739,356.42,223.37
1012.2,-427.39,39.739,355.42,222.37
1022.0,-430.39,39.739,349.42,221.37
1031.9,-433.39,38.739,349.42,219.37
1041.8,-436.39,37.739,345.42,218.37
1051.7,-438.39,37.739,342.42,216.37
1061.6,-442.39,37.739,341.42,214.37
1071.5,-445.39,37.739,337.42,215.37
1081.4,-447.39,36.739,334.42,213.37
1091.2,-450.39,36.739,334.42,211.37
1101.1,-453.39,36.739,327.42,211.37
1111.0,-457.39,34.739,328.42,209.37
1120.9,-460.39,33.739,325.42,208.37
1130.8,-463.39,32.739,325.42,207.37
1140.7,-466.39,32.739,327.42,208.37
1150.6,-469.39,31.739,327.42,208.37
1160.4,-471.39,32.739,327.42,208.37
1170.3,-476.39,30.739,327.42,208.37
1180.2,-479.39,29.739,327.42,207.37
1190.1,-484.39,28.739,325.42,207.37
1200.0,-488.39,28.739,325.42,206.37
1209.9,-492.39,27.739,326.42,206.37
1219.8,-496.39,27.739,323.42,204.37
1229.6,-496.39,27.739,318.42,203.37
1239.5,-503.39,25.739,316.42,202.37
1249.4,-503.39,25.739,316.42,200.37
1259.3,-505.39,27.739,315.42,200.37
1269.2,-505.39,27.739,315.42,201.37
1279.1,-490.39,31.739,318.42,201.37
1289.0,-490.39,31.739,325.42,203.37
1298.8,-465.39,38.739,333.42,208.37
1308.7,-465.39,38.739,341.42,211.37
1318.6,-446.39,42.739,342.42,212.37
1328.5,-446.39,42.739,339.42,209.37
1338.4,-444.39,42.739,333.42,207.37
1348.3,-444.39,42.739,330.42,205.37
1358.2,-448.39,41.739,325.42,204.37
1368.0,-448.39,41.739,320.42,202.37
1377.9,-452.39,41.739,315.42,200.37
1387.8,-455.39,41.739,313.42,197.37
1397.7,-457.39,41.739,306.42,196.37
1407.6,-461.39,41.739,302.42,193.37
1417.5,-464.39,40.739,296.42,189.37
1427.4,-467.39,39.739,291.42,187.37
1437.2,-469.39,38.739,287.42,186.37
1447.1,-470.39,38.739,283.42,183.37
1457.0,-473.39,37.739,279.42,180.37
1466.9,-476.39,36.739,275.42,179.37
1476.8,-479.39,35.739,272.42,176.37
1486.7,-483.39,33.739,267.42,175.37
1496.6,-484.39,32.739,265.42,173.37
1506.4,-487.39,31.739,263.42,171.37
1516.3,-488.39,30.739,263.42,170.37
1526.2,-490.39,29.739,262.42,170.37
1536.1,-493.39,27.739,261.42,170.37
1546.0,-495.39,26.739,262.42,171.37
1555.9,-497.39,24.739,264.42,170.37
1565.8,-499.39,22.739,264.42,170.37
1575.6,-503.39,19.739,258.42,168.37
1585.5,-508.39,17.739,258.42,168.37
1595.4,-512.39,14.739,251.42,163.37
1605.3,-517.39,12.739,251.42,163.37
1615.2,-520.39,10.739,244.42,161.37
1625.1,-524.39,7.7391,244.42,161.37
1635.0,-525.39,6.7391,240.42,159.37
1644.8,-523.39,7.7391,240.42,159.37
1654.7,-515.39,9.7391,244.42,159.37
1664.6,-500.39,10.739,244.42,159.37
1674.5,-485.39,12.739,256.42,164.37
1684.4,-470.39,14.739,256.42,164.37
1694.3,-458.39,16.739,269.42,171.37
1704.2,-450.39,17.739,269.42,171.37
1714.0,-445.39,16.739,271.42,171.37
1723.9,-441.39,15.739,271.42,171.37
1733.8,-439.39,17.739,266.42,169.37
1743.7,-437.39,16.739,266.42,169.37
1753.6,-437.39,16.739,255.42,165.37
1763.5,-434.39,18.739,255.42,165.37
1773.4,-429.39,19.739,251.42,163.37
1783.2,-428.39,19.739,249.42,162.37
1793.1,-426.39,19.739,247.42,162.37
1803.0,-423.39,20.739,246.42,161.37
1812.9,-423.39,21.739,244.42,159.37
1822.8,-421.39,21.739,240.42,158.37
1832.7,-419.39,21.739,238.42,157.37
1842.6,-418.39,21.739,238.42,155.37
1852.4,-415.39,21.739,234.42,155.37
1862.3,-415.39,21.739,235.42,155.37
1872.2,-414.39,21.739,235.42,154.37
1882.1,-415.39,20.739,233.42,152.37
1892.0,-416.39,19.739,232.42,152.37
1901.9,-416.39,18.739,233.42,153.37
1911.8,-416.39,17.739,234.42,153.37
1921.6,-419.39,17.739,235.42,153.37
1931.5,-421.39,15.739,236.42,154.37
1941.4,-425.39,14.739,237.42,155.37
1951.3,-429.39,12.739,241.42,156.37
1961.2,-429.39,12.739,241.42,156.37
1971.1,-438.39,8.7391,240.42,156.37
1981.0,-438.39,8.7391,239.42,156.37
1990.8,-446.39,5.7391,236.42,156.37
2000.7,-446.39,5.7391,237.42,154.37
2010.6,-455.39,1.7391,236.42,155.37
2020.5,-455.39,1.7391,237.42,155.37
2030.4,-447.39,2.7391,242.42,158.37
2040.3,-447.39,2.7391,249.42,160.37
2050.2,-424.39,5.7391,259.42,164.37
2060.0,-424.39,5.7391,271.42,169.37
2069.9,-405.39,9.7391,279.42,173.37
2079.8,-405.39,9.7391,282.42,174.37
2089.7,-399.39,9.7391,282.42,175.37
2099.6,-396.39,10.739,280.42,175.37
2109.5,-393.39,11.739,279.42,174.37
2119.4,-391.39,10.739,277.42,172.37
2129.2,-389.39,11.739,272.42,170.37
2139.1,-389.39,10.739,271.42,170.37
2149.0,-390.39,9.7391,267.42,168.37
2158.9,-392.39,9.7391,266.42,168.37
2168.8,-396.39,8.7391,265.42,167.37
2178.7,-399.39,7.7391,263.42,167.37
2188.5,-401.39,6.7391,262.42,167.37
2198.4,-406.39,5.7391,259.42,166.37
2208.3,-408.39,3.7391,256.42,163.37
2218.2,-412.39,3.7391,254.42,162.37
2228.1,-417.39,1.7391,251.42,161.37
2238.0,-419.39,0.73912,250.42,160.37
2247.9,-422.39,0.73912,248.42,161.37
2257.8,-423.39,-0.26088,249.42,161.37
2267.6,-423.39,0.73912,252.42,160.37
2277.5,-424.39,1.7391,252.42,161.37
2287.4,-427.39,1.7391,254.42,161.37
2297.3,-428.39,0.73912,255.42,162.37
2307.2,-432.39,-1.2609,255.42,162.37
2317.1,-436.39,-0.26088,255.42,161.37
2326.9,-438.39,-2.2609,252.42,161.37
2336.8,-440.39,-1.2609,250.42,160.37
2346.7,-442.39,-2.2609,250.42,158.37
2356.6,-445.39,-3.2609,249.42,159.37
2366.5,-445.39,-2.2609,248.42,159.37
2376.4,-447.39,-2.2609,248.42,160.37
2386.3,-445.39,-1.2609,248.42,157.37
2396.1,-443.39,-0.26088,249.42,159.37
2406.0,-432.39,2.7391,252.42,159.37
2415.9,-417.39,7.7391,258.42,161.37
2425.8,-400.39,11.739,267.42,166.37
2435.7,-383.39,15.739,275.42,170.37
2445.6,-370.39,17.739,282.42,172.37
2455.5,-360.39,20.739,284.42,173.37
2465.3,-355.39,22.739,282.42,173.37
2475.2,-352.39,22.739,276.42,171.37
2485.1,-351.39,22.739,274.42,170.37
2495.0,-350.39,22.739,271.42,169.37
2504.9,-350.39,23.739,267.42,167.37
2514.8,-351.39,22.739,265.42,166.37
2524.7,-353.39,21.739,265.42,165.37
2534.5,-355.39,22.739,265.42,165.37
2544.4,-356.39,22.739,262.42,164.37
2554.3,-358.39,21.739,257.42,161.37
2564.2,-358.39,21.739,254.42,161.37
2574.1,-360.39,20.739,251.42,158.37
2584.0,-359.39,21.739,249.42,157.37
2593.9,-360.39,20.739,249.42,157.37
2603.7,-362.39,20.739,248.42,156.37
2613.6,-364.39,19.739,248.42,156.37
2623.5,-365.39,19.739,246.42,155.37
2633.4,-367.39,18.739,246.42,155.37
2643.3,-369.39,17.739,245.42,155.37
2653.2,-371.39,17.739,245.42,155.37
2663.1,-374.39,16.739,246.42,155.37
2672.9,-374.39,16.739,246.42,155.37
2682.8,-378.39,15.739,247.42,155.37
2692.7,-378.39,15.739,247.42,155.37
2702.6,-383.39,14.739,247.42,155.37
2712.5,-383.39,14.739,247.42,155.37
2722.4,-388.39,13.739,247.42,154.37
2732.3,-388.39,13.739,247.42,154.37
2742.1,-391.39,13.739,244.42,152.37
2752.0,-391.39,13.739,244.42,152.37
2761.9,-389.39,14.739,242.42,151.37
2771.8,-389.39,14.739,242.42,151.37
2781.7,-368.39,20.739,243.42,150.37
2791.6,-368.39,20.739,243.42,152.37
2801.5,-336.39,29.739,254.42,155.37
2811.3,-336.39,29.739,263.42,161.37
2821.2,-321.39,32.739,273.42,166.37
2831.1,-311.39,34.739,283.42,169.37
2841.0,-304.39,36.739,284.42,171.37
2850.9,-298.39,38.739,284.42,171.37
2860.8,-293.39,38.739,280.42,168.37
2870.7,-288.39,40.739,272.42,165.37
2880.5,-306.39,40.739,267.42,163.37
2890.4,-304.39,41.739,264.42,161.37
2900.3,-303.39,41.739,261.42,161.37
2910.2,-303.39,41.739,256.42,159.37
2920.1,-303.39,41.739,257.42,158.37
2930.0,-306.39,40.739,253.42,158.37
2939.9,-306.39,40.739,252.42,155.37
2949.7,-306.39,39.739,248.42,154.37
2959.6,-308.39,39.739,245.42,153.37
2969.5,-307.39,40.739,243.42,153.37
2979.4,-306.39,41.739,244.42,152.37
2989.3,-305.39,41.739,242.42,152.37
2999.2,-304.39,40.739,243.42,151.37
3009.1,-302.39,41.739,243.42,150.37
3018.9,-302.39,41.739,244.42,150.37
3028.8,-303.39,40.739,245.42,151.37
3038.7,-304.39,40.739,247.42,152.37
3048.6,-305.39,39.739,248.42,153.37
3058.5,-307.39,38.739,246.42,152.37
3068.4,-310.39,37.739,247.42,152.37
3078.3,-313.39,36.739,247.42,153.37
3088.1,-317.39,35.739,249.42,153.37
3098.0,-320.39,34.739,249.42,154.37
3107.9,-323.39,34.739,249.42,153.37
3117.8,-327.39,32.739,248.42,152.37
3127.7,-330.39,31.739,250.42,154.37
3137.6,-331.39,30.739,250.42,153.37
3147.5,-325.39,31.739,254.42,154.37
3157.3,-313.39,34.739,260.42,158.37
3167.2,-297.39,38.739,268.42,160.37
3177.1,-281.39,43.739,275.42,165.37
3187.0,-266.39,46.739,283.42,168.37
3196.9,-257.39,48.739,285.42,170.37
3206.8,-250.39,50.739,283.42,169.37
3216.7,-242.39,50.739,280.42,167.37
3226.5,-239.39,52.739,274.42,166.37
3236.4,-235.39,53.739,272.42,165.37
3246.3,-231.39,52.739,270.42,164.37
3256.2,-230.39,52.739,268.42,163.37
3266.1,-229.39,52.739,265.42,162.37
3276.0,-231.39,51.739,263.42,162.37
3285.9,-235.39,50.739,261.42,160.37
3295.7,-237.39,48.739,259.42,159.37
3305.6,-241.39,48.739,259.42,159.37
3315.5,-246.39,46.739,257.42,157.37
3325.4,-251.39,45.739,254.42,157.37
3335.3,-253.39,43.739,252.42,156.37
3345.2,-256.39,42.739,249.42,154.37
3355.1,-259.39,42.739,246.42,153.37
3364.9,-262.39,41.739,245.42,152.37
3374.8,-265.39,40.739,244.42,152.37
3384.7,-269.39,38.739,243.42,151.37
3394.6,-272.39,37.739,241.42,149.37
3404.5,-272.39,37.739,239.42,148.37
3414.4,-280.39,35.739,236.42,149.37
3424.3,-280.39,35.739,236.42,148.37
3434.1,-290.39,32.739,236.42,147.37
3444.0,-290.39,32.739,235.42,147.37
3453.9,-302.39,28.739,233.42,146.37
3463.8,-302.39,28.739,229.42,143.37
3473.7,-312.39,26.739,226.42,142.37
3483.6,-312.39,26.739,226.42,142.37
3493.5,-324.39,24.739,227.42,142.37
3503.3,-324.39,24.739,228.42,143.37
3513.2,-320.39,25.739,232.42,145.37
3523.1,-320.39,25.739,235.42,147.37
3533.0,-308.39,29.739,244.42,150.37
3542.9,-294.39,33.739,244.42,150.37
3552.8,-277.39,36.739,253.42,156.37
3562.7,-260.39,41.739,253.42,156.37
3572.5,-247.39,43.739,256.42,157.37
3582.4,-239.39,44.739,256.42,157.37
3592.3,-231.39,45.739,247.42,154.37
3602.2,-225.39,46.739,247.42,154.37
3612.1,-220.39,46.739,235.42,148.37
3622.0,-213.39,48.739,235.42,148.37
3631.9,-208.39,48.739,222.42,141.37
3641.7,-208.39,47.739,222.42,141.37
3651.6,-209.39,46.739,207.42,133.37
3661.5,-213.39,44.739,207.42,133.37
3671.4,-217.39,42.739,200.42,132.37
3681.3,-222.39,39.739,200.42,132.37
3691.2,-229.39,37.739,192.42,127.37
3701.1,-234.39,35.739,192.42,127.37
3710.9,-240.39,34.739,182.42,122.37
3720.8,-244.39,31.739,182.42,122.37
3730.7,-247.39,29.739,176.42,121.37
3740.6,-251.39,27.739,170.42,117.37
3750.5,-253.39,27.739,167.42,116.37
3760.4,-256.39,25.739,161.42,113.37
3770.3,-260.39,23.739,160.42,112.37
3780.1,-264.39,21.739,158.42,111.37
3790.0,-269.39,19.739,156.42,110.37
3799.9,-272.39,18.739,154.42,109.37
3809.8,-276.39,15.739,151.42,106.37
3819.7,-282.39,14.739,146.42,105.37
3829.6,-287.39,11.739,142.42,102.37
3839.5,-293.39,9.7391,138.42,101.37
3849.3,-298.39,7.7391,135.42,99.367
3859.2,-303.39,5.7391,132.42,97.367
3869.1,-306.39,3.7391,128.42,95.367
3879.0,-311.39,1.7391,124.42,93.367
3888.9,-311.39,1.7391,124.42,93.367
3898.8,-304.39,2.7391,126.42,93.367
3908.7,-292.39,5.7391,129.42,94.367
3918.5,-275.39,8.7391,130.42,93.367
3928.4,-259.39,11.739,132.42,93.367
3938.3,-245.39,15.739,128.42,93.367
3948.2,-234.39,16.739,127.42,92.367
3958.1,-226.39,17.739,122.42,89.367
3968.0,-218.39,17.739,115.42,86.367
3977.9,-211.39,18.739,107.42,82.367
3987.7,-205.39,19.739,102.42,80.367
3997.6,-200.39,20.739,96.417,77.367
4007.5,-197.39,19.739,91.417,75.367
4017.4,-198.39,18.739,85.417,71.367
4027.3,-200.39,18.739,77.417,69.367
4037.2,-202.39,17.739,71.417,64.367
4047.1,-207.39,15.739,62.417,61.367
4056.9,-211.39,13.739,57.417,59.367
4066.8,-214.39,12.739,52.417,57.367
4076.7,-219.39,11.739,49.417,56.367
4086.6,-221.39,9.7391,43.417,51.367
4096.5,-223.39,8.7391,36.417,49.367
4106.4,-224.39,7.7391,31.417,45.367
4116.3,-224.39,7.7391,24.417,42.367
4126.1,-229.39,5.7391,21.417,41.367
4136.0,-229.39,5.7391,18.417,40.367
4145.9,-236.39,3.7391,18.417,40.367
4155.8,-236.39,3.7391,17.417,38.367
4165.7,-244.39,-0.26088,15.417,38.367
4175.6,-244.39,-0.26088,12.417,37.367
4185.5,-253.39,-3.2609,10.417,36.367
4195.3,-253.39,-3.2609,7.4173,36.367
4205.2,-263.39,-6.2609,11.417,39.367
4215.1,-263.39,-6.2609,28.417,50.367
4225.0,-273.39,-9.2609,33.417,52.367
4234.9,-273.39,-9.2609,27.417,50.367
4244.8,-285.39,-12.261,11.417,42.367
4254.7,-285.39,-12.261,-3.5827,36.367
4264.5,-286.39,-13.261,-14.583,32.367
4274.4,-288.39,-12.261,-10.583,32.367
4284.3,-282.39,-11.261,3.4173,37.367
4294.2,-268.39,-7.2609,19.417,44.367
4304.1,-250.39,-3.2609,33.417,49.367
4314.0,-231.39,0.73912,37.417,51.367
4323.9,-216.39,4.7391,39.417,52.367
4333.7,-203.39,6.7391,38.417,50.367
4343.6,-195.39,7.7391,34.417,49.367
4353.5,-188.39,8.7391,29.417,47.367
4363.4,-179.39,10.739,24.417,45.367
4373.3,-173.39,11.739,16.417,42.367
4383.2,-170.39,10.739,8.4173,39.367
4393.1,-168.39,9.7391,2.4173,36.367
4402.9,-167.39,8.7391,-2.5827,34.367
4412.8,-168.39,6.7391,-6.5827,32.367
4422.7,-172.39,4.7391,-8.5827,32.367
4432.6,-176.39,2.7391,-10.583,31.367
4442.5,-181.39,1.7391,-12.583,32.367
4452.4,-183.39,-0.26088,-12.583,30.367
4462.3,-186.39,-1.2609,-17.583,28.367
4472.1,-186.39,-2.2609,-21.583,26.367
4482.0,-187.39,-3.2609,-22.583,25.367
4491.9,-188.39,-3.2609,-23.583,24.367
4501.8,-189.39,-4.2609,-22.583,24.367
4511.7,-191.39,-6.2609,-23.583,24.367
4521.6,-194.39,-5.2609,-22.583,23.367
4531.5,-197.39,-6.2609,-22.583,22.367
4541.3,-197.39,-6.2609,-25.583,20.367
4551.2,-200.39,-7.2609,-26.583,21.367
4561.1,-204.39,-8.2609,-27.583,21.367
4571.0,-208.39,-9.2609,-27.583,21.367
4580.9,-213.39,-10.261,-31.583,20.367
4590.8,-216.39,-11.261,-31.583,20.367
4600.7,-219.39,-12.261,-30.583,18.367
4610.5,-223.39,-13.261,-30.583,18.367
4620.4,-227.39,-13.261,-29.583,18.367
4630.3,-229.39,-15.261,-29.583,18.367
4640.2,-230.39,-14.261,-29.583,19.367
4650.1,-235.39,-16.261,-29.583,19.367
4660.0,-229.39,-15.261,-32.583,18.367
4669.9,-215.39,-13.261,-32.583,18.367
4679.7,-198.39,-8.2609,-23.583,20.367
4689.6,-179.39,-5.2609,-23.583,20.367
4699.5,-165.39,-1.2609,-14.583,24.367
4709.4,-153.39,-0.26088,-14.583,24.367
4719.3,-143.39,1.7391,-11.583,25.367
4729.2,-136.39,2.7391,-11.583,25.367
4739.0,-129.39,4.7391,-18.583,24.367
4748.9,-123.39,4.7391,-18.583,24.367
4758.8,-120.39,6.7391,-30.583,20.367
4768.7,-118.39,5.7391,-30.583,20.367
4778.6,-118.39,4.7391,-35.583,16.367
4788.5,-119.39,4.7391,-43.583,15.367
4798.4,-124.39,2.7391,-48.583,11.367
4808.3,-130.39,0.73912,-56.583,10.367
4818.1,-135.39,-1.2609,-61.583,6.3672
4828.0,-142.39,-3.2609,-67.583,4.3672
4837.9,-146.39,-5.2609,-71.583,4.3672
4847.8,-146.39,-5.2609,-71.583,3.3672
4857.7,-154.39,-10.261,-71.583,1.3672
4867.6,-154.39,-10.261,-72.583,2.3672
4877.4,-162.39,-14.261,-72.583,2.3672
4887.3,-162.39,-14.261,-71.583,0.36719
4897.2,-173.39,-20.261,-72.583,1.3672
4907.1,-173.39,-20.261,-74.583,1.3672
4917.0,-186.39,-24.261,-74.583,0.36719
4926.9,-186.39,-24.261,-74.583,1.3672
4936.8,-194.39,-30.261,-74.583,0.36719
4946.7,-194.39,-30.261,-71.583,0.36719
4956.5,-205.39,-34.261,-70.583,1.3672
4966.4,-205.39,-34.261,-70.583,0.36719
4976.3,-210.39,-37.261,-71.583,0.36719
4986.2,-215.39,-38.261,-73.583,0.36719
4996.1,-218.39,-39.261,-75.583,-0.63281
5006.0,-225.39,-42.261,-75.583,-0.63281
5015.8,-227.39,-43.261,-73.583,-0.63281
5025.7,-230.39,-44.261,-74.583,-0.63281
5035.6,-231.39,-44.261,-73.583,-0.63281
5045.5,-223.39,-42.261,-70.583,-0.63281
5055.4,-207.39,-37.261,-66.583,1.3672
5065.3,-190.39,-32.261,-58.583,3.3672
5075.2,-167.39,-27.261,-54.583,5.3672
5085.0,-152.39,-24.261,-48.583,6.3672
5094.9,-140.39,-20.261,-47.583,8.3672
5104.8,-129.39,-18.261,-47.583,7.3672
5114.7,-119.39,-16.261,-47.583,9.3672
5124.6,-109.39,-12.261,-50.583,9.3672
5134.5,-101.39,-11.261,-52.583,8.3672
5144.4,-93.389,-9.2609,-54.583,9.3672
5154.2,-89.389,-9.2609,-54.583,8.3672
5164.1,-88.389,-9.2609,-58.583,7.3672
5174.0,-89.389,-10.261,-59.583,8.3672
5183.9,-93.389,-11.261,-59.583,7.3672
5193.8,-97.389,-13.261,-62.583,6.3672
5203.7,-101.39,-14.261,-63.583,5.3672
5213.6,-106.39,-16.261,-62.583,6.3672
5223.4,-111.39,-17.261,-62.583,7.3672
5233.3,-113.39,-16.261,-62.583,6.3672
5243.2,-117.39,-17.261,-61.583,6.3672
5253.1,-119.39,-18.261,-62.583,5.3672
5263.0,-122.39,-19.261,-61.583,6.3672
5272.9,-123.39,-19.261,-58.583,6.3672
5282.8,-125.39,-19.261,-55.583,7.3672
5292.6,-128.39,-20.261,-54.583,8.3672
5302.5,-130.39,-21.261,-50.583,8.3672
5312.4,-134.39,-22.261,-51.583,10.367
5322.3,-137.39,-22.261,-51.583,9.3672
5332.2,-140.39,-24.261,-49.583,10.367
5342.1,-144.39,-24.261,-48.583,9.3672
5352.0,-146.39,-25.261,-46.583,10.367
5361.8,-151.39,-26.261,-46.583,9.3672
5371.7,-154.39,-27.261,-46.583,10.367
5381.6,-158.39,-27.261,-46.583,11.367
5391.5,-162.39,-28.261,-44.583,12.367
5401.4,-164.39,-29.261,-44.583,11.367
5411.3,-165.39,-28.261,-42.583,11.367
5421.2,-158.39,-26.261,-40.583,11.367
5431.0,-142.39,-21.261,-36.583,12.367
5440.9,-122.39,-16.261,-31.583,15.367
5450.8,-102.39,-11.261,-22.583,17.367
5460.7,-83.389,-8.2609,-17.583,20.367
5470.6,-70.389,-4.2609,-15.583,23.367
5480.5,-59.389,-2.2609,-13.583,22.367
5490.4,-48.389,-0.26088,-18.583,22.367
5500.2,-37.389,2.7391,-23.583,21.367
5510.1,-28.389,4.7391,-26.583,20.367
5520.0,-19.389,6.7391,-30.583,18.367
5529.9,-13.389,7.7391,-36.583,17.367
5539.8,-8.3893,7.7391,-38.583,16.367
5549.7,-7.3893,8.7391,-41.583,15.367
5559.6,-7.3893,8.7391,-41.583,15.367
5569.4,-11.389,6.7391,-47.583,11.367
5579.3,-11.389,6.7391,-47.583,11.367
5589.2,-21.389,2.7391,-55.583,11.367
5599.1,-21.389,2.7391,-55.583,11.367
5609.0,-28.389,1.7391,-55.583,9.3672
5618.9,-28.389,1.7391,-55.583,9.3672
5628.8,-33.389,-0.26088,-54.583,8.3672
5638.6,-33.389,-0.26088,-54.583,8.3672
5648.5,-37.389,-2.2609,-55.583,7.3672
5658.4,-37.389,-2.2609,-55.583,7.3672
5668.3,-45.389,-5.2609,-57.583,6.3672
5678.2,-45.389,-5.2609,-57.583,6.3672
5688.1,-51.389,-7.2609,-52.583,8.3672
5698.0,-51.389,-7.2609,-52.583,8.3672
5707.8,-55.389,-8.2609,-47.583,9.3672
5717.7,-59.389,-10.261,-47.583,9.3672
5727.6,-64.389,-11.261,-45.583,10.367
5737.5,-67.389,-11.261,-45.583,10.367
5747.4,-71.389,-13.261,-45.583,10.367
5757.3,-75.389,-14.261,-43.583,11.367
5767.2,-78.389,-14.261,-41.583,11.367
5777.0,-81.389,-15.261,-40.583,11.367
5786.9,-84.389,-16.261,-40.583,11.367
5796.8,-86.389,-16.261,-40.583,10.367
5806.7,-83.389,-15.261,-36.583,13.367
5816.6,-71.389,-11.261,-33.583,14.367
5826.5,-54.389,-6.2609,-26.583,16.367
5836.4,-33.389,-0.26088,-19.583,20.367
5846.2,-11.389,5.7391,-15.583,20.367
5856.1,5.6107,10.739,-15.583,20.367
5866.0,20.611,13.739,-15.583,22.367
5875.9,33.611,17.739,-19.583,21.367
5885.8,46.611,21.739,-21.583,19.367
5895.7,58.611,24.739,-24.583,18.367
5905.6,69.611,26.739,-26.583,19.367
5915.4,78.611,27.739,-23.583,21.367
5925.3,84.611,29.739,-23.583,22.367
5935.2,89.611,29.739,-22.583,22.367
5945.1,90.611,28.739,-20.583,23.367
5955.0,88.611,27.739,-19.583,26.367
5964.9,83.611,25.739,-16.583,27.367
5974.8,77.611,23.739,-14.583,29.367
5984.6,71.611,20.739,-14.583,29.367
5994.5,65.611,19.739,-13.583,28.367
6004.4,61.611,17.739,-14.583,29.367
6014.3,57.611,15.739,-16.583,28.367
6024.2,53.611,14.739,-17.583,27.367
6034.1,50.611,13.739,-19.583,26.367
6044.0,49.611,12.739,-18.583,26.367
6053.8,44.611,11.739,-19.583,26.367
6063.7,42.611,10.739,-16.583,26.367
6073.6,39.611,9.7391,-17.583,26.367
6083.5,37.611,9.7391,-15.583,27.367
6093.4,33.611,8.7391,-17.583,25.367
6103.3,29.611,7.7391,-15.583,25.367
6113.2,25.611,6.7391,-15.583,25.367
6123.0,19.611,5.7391,-15.583,26.367
6132.9,15.611,4.7391,-15.583,26.367
6142.8,11.611,2.7391,-15.583,26.367
6152.7,5.6107,1.7391,-13.583,27.367
6162.6,0.61073,-0.26088,-13.583,26.367
6172.5,-4.3893,-2.2609,-13.583,27.367
6182.4,-8.3893,-3.2609,-12.583,26.367
6192.2,-12.389,-3.2609,-9.5827,27.367
6202.1,-13.389,-4.2609,-6.5827,29.367
6212.0,-5.3893,-0.26088,3.4173,33.367
6221.9,9.6107,3.7391,17.417,38.367
6231.8,30.611,9.7391,33.417,46.367
6241.7,50.611,14.739,46.417,52.367
6251.6,68.611,19.739,54.417,57.367
6261.4,81.611,22.739,60.417,59.367
6271.3,93.611,25.739,60.417,61.367
6281.2,106.61,29.739,56.417,60.367
6291.1,106.61,29.739,53.417,58.367
6301.0,128.61,34.739,47.417,57.367
6310.9,128.61,34.739,45.417,56.367
6320.8,143.61,37.739,43.417,56.367
6330.6,143.61,37.739,40.417,55.367
6340.5,152.61,38.739,35.417,54.367
6350.4,152.61,38.739,34.417,53.367
6360.3,148.61,38.739,31.417,51.367
6370.2,148.61,38.739,27.417,51.367
6380.1,138.61,34.739,26.417,50.367
6390.0,138.61,34.739,27.417,50.367
6399.8,127.61,31.739,26.417,50.367
6409.7,127.61,31.739,26.417,51.367
6419.6,122.61,30.739,30.417,51.367
6429.5,119.61,30.739,31.417,52.367
6439.4,115.61,27.739,29.417,51.367
6449.3,110.61,26.739,30.417,50.367
6459.2,106.61,25.739,30.417,51.367
6469.0,102.61,24.739,31.417,51.367
6478.9,99.611,22.739,32.417,51.367
6488.8,95.611,22.739,33.417,52.367
6498.7,89.611,21.739,38.417,54.367
6508.6,86.611,20.739,41.417,56.367
6518.5,82.611,18.739,45.417,55.367
6528.4,76.611,17.739,45.417,55.367
6538.2,71.611,16.739,50.417,58.367
6548.1,68.611,16.739,50.417,58.367
6558.0,63.611,14.739,55.417,60.367
6567.9,58.611,13.739,55.417,60.367
6577.8,52.611,12.739,61.417,61.367
6587.7,48.611,11.739,61.417,61.367
6597.6,41.611,9.7391,61.417,62.367
6607.4,37.611,6.7391,61.417,62.367
6617.3,31.611,6.7391,59.417,59.367
6627.2,25.611,4.7391,59.417,59.367
6637.1,21.611,2.7391,58.417,59.367
6647.0,23.611,4.7391,58.417,59.367
6656.9,34.611,8.7391,76.417,66.367
6666.8,51.611,12.739,76.417,66.367
6676.6,69.611,18.739,93.417,73.367
6686.5,87.611,20.739,93.417,73.367
6696.4,100.61,24.739,106.42,80.367
6706.3,109.61,25.739,106.42,80.367
6716.2,120.61,26.739,107.42,82.367
6726.1,128.61,28.739,110.42,84.367
6736.0,138.61,29.739,109.42,84.367
6745.8,145.61,30.739,109.42,87.367
6755.7,150.61,31.739,106.42,85.367
6765.6,154.61,32.739,104.42,84.367
6775.5,156.61,30.739,97.417,81.367
6785.4,154.61,29.739,90.417,80.367
6795.3,149.61,26.739,87.417,77.367
6805.2,143.61,24.739,84.417,75.367
6815.0,137.61,22.739,81.417,75.367
6824.9,130.61,19.739,79.417,75.367
6834.8,123.61,17.739,79.417,74.367
6844.7,116.61,15.739,80.417,75.367
6854.6,111.61,13.739,77.417,73.367
6864.5,106.61,10.739,73.417,71.367
6874.4,101.61,9.7391,73.417,71.367
6884.2,95.611,7.7391,70.417,69.367
6894.1,90.611,6.7391,70.417,68.367
6904.0,86.611,3.7391,71.417,68.367
6913.9,79.611,2.7391,70.417,67.367
6923.8,73.611,0.73912,68.417,65.367
6933.7,67.611,-1.2609,64.417,64.367
6943.6,61.611,-3.2609,63.417,63.367
6953.4,53.611,-6.2609,61.417,62.367
6963.3,47.611,-7.2609,63.417,62.367
6973.2,40.611,-9.2609,61.417,62.367
6983.1,34.611,-11.261,65.417,63.367
6993.0,29.611,-11.261,68.417,65.367
7002.9,29.611,-11.261,71.417,65.367
7012.8,17.611,-17.261,74.417,65.367
7022.6,17.611,-17.261,76.417,67.367
7032.5,4.6107,-19.261,77.417,67.367
7042.4,4.6107,-19.261,76.417,67.367
7052.3,-7.3893,-24.261,74.417,64.367
7062.2,-7.3893,-24.261,74.417,65.367
7072.1,-18.389,-27.261,71.417,63.367
7082.0,-18.389,-27.261,70.417,61.367
7091.8,-32.389,-31.261,68.417,62.367
7101.7,-32.389,-31.261,68.417,60.367
7111.6,-42.389,-33.261,66.417,60.367
7121.5,-42.389,-33.261,70.417,61.367
7131.4,-23.389,-27.261,75.417,63.367
7141.3,-23.389,-27.261,81.417,65.367
7151.2,-4.3893,-22.261,90.417,70.367
7161.0,17.611,-16.261,101.42,73.367
7170.9,35.611,-11.261,108.42,78.367
7180.8,48.611,-9.2609,112.42,81.367
7190.7,55.611,-8.2609,109.42,78.367
7200.6,64.611,-5.2609,100.42,76.367
7210.5,72.611,-3.2609,92.417,71.367
7220.4,79.611,-2.2609,85.417,70.367
7230.2,84.611,-0.26088,79.417,66.367
7240.1,85.611,-1.2609,75.417,66.367
7250.0,88.611,-1.2609,68.417,62.367
7259.9,85.611,-1.2609,64.417,61.367
7269.8,83.611,-2.2609,57.417,58.367
7279.7,75.611,-5.2609,51.417,55.367
7289.5,68.611,-7.2609,44.417,52.367
7299.4,61.611,-8.2609,38.417,48.367
7309.3,55.611,-11.261,33.417,45.367
7319.2,49.611,-12.261,26.417,43.367
7329.1,44.611,-14.261,25.417,41.367
7339.0,42.611,-15.261,25.417,40.367
7348.9,39.611,-16.261,22.417,39.367
7358.8,35.611,-16.261,23.417,38.367
7368.6,33.611,-17.261,21.417,37.367
7378.5,30.611,-18.261,18.417,36.367
7388.4,26.611,-19.261,17.417,36.367
7398.3,22.611,-20.261,14.417,34.367
7408.2,17.611,-22.261,14.417,33.367
7418.1,13.611,-23.261,11.417,30.367
7427.9,10.611,-24.261,11.417,31.367
7437.8,7.6107,-25.261,11.417,31.367
7447.7,4.6107,-26.261,12.417,31.367
7457.6,0.61073,-28.261,8.4173,30.367
7467.5,-3.3893,-28.261,9.4173,30.367
7477.4,-7.3893,-30.261,8.4173,28.367
7487.3,-11.389,-31.261,7.4173,29.367
7497.2,-15.389,-33.261,6.4173,27.367
7507.0,-19.389,-34.261,5.4173,27.367
7516.9,-23.389,-36.261,4.4173,27.367
7526.8,-28.389,-38.261,5.4173,26.367
7536.7,-33.389,-38.261,2.4173,26.367
7546.6,-37.389,-39.261,-0.58272,24.367
7556.5,-40.389,-41.261,-0.58272,24.367
7566.3,-46.389,-43.261,-1.5827,24.367
7576.2,-49.389,-44.261,-1.5827,24.367
7586.1,-53.389,-45.261,-2.5827,23.367
7596.0,-58.389,-45.261,-2.5827,23.367
7605.9,-56.389,-44.261,-2.5827,22.367
7615.8,-46.389,-42.261,-2.5827,22.367
7625.7,-27.389,-37.261,6.4173,25.367
7635.5,-5.3893,-31.261,6.4173,25.367
7645.4,14.611,-26.261,23.417,32.367
7655.3,29.611,-23.261,23.417,32.367
7665.2,38.611,-22.261,27.417,35.367
7675.1,47.611,-20.261,27.417,35.367
7685.0,51.611,-20.261,19.417,32.367
7694.9,53.611,-20.261,19.417,32.367
7704.7,56.611,-21.261,2.4173,27.367
7714.6,56.611,-21.261,2.4173,27.367
7724.5,56.611,-22.261,-5.5827,23.367
7734.4,56.611,-22.261,-5.5827,23.367
7744.3,52.611,-24.261,-11.583,21.367
7754.2,52.611,-24.261,-11.583,21.367
7764.1,37.611,-29.261,-20.583,17.367
7773.9,37.611,-29.261,-20.583,17.367
7783.8,23.611,-34.261,-27.583,15.367
7793.7,23.611,-34.261,-30.583,10.367
7803.6,14.611,-37.261,-33.583,10.367
7813.5,14.611,-37.261,-30.583,11.367
7823.4,4.6107,-40.261,-31.583,10.367
7833.3,4.6107,-40.261,-29.583,10.367
7843.1,-6.3893,-45.261,-30.583,10.367
7853.0,-6.3893,-45.261,-30.583,9.3672
7862.9,-11.389,-47.261,-33.583,9.3672
7872.8,-18.389,-49.261,-35.583,8.3672
7882.7,-23.389,-50.261,-32.583,9.3672
7892.6,-31.389,-52.261,-31.583,10.367
7902.5,-36.389,-54.261,-29.583,9.3672
7912.3,-42.389,-56.261,-28.583,10.367
7922.2,-48.389,-56.261,-31.583,10.367
7932.1,-54.389,-59.261,-30.583,8.3672
7942.0,-59.389,-60.261,-31.583,8.3672
7951.9,-65.389,-61.261,-33.583,7.3672
7961.8,-71.389,-63.261,-33.583,7.3672
7971.7,-77.389,-66.261,-33.583,8.3672
7981.5,-83.389,-67.261,-31.583,7.3672
7991.4,-87.389,-68.261,-31.583,8.3672
8001.3,-93.389,-69.261,-33.583,7.3672
8011.2,-99.389,-71.261,-32.583,7.3672
8021.1,-103.39,-72.261,-31.583,8.3672
8031.0,-106.39,-72.261,-28.583,7.3672
8040.9,-108.39,-73.261,-27.583,8.3672
8050.7,-100.39,-70.261,-24.583,9.3672
8060.6,-87.389,-66.261,-22.583,11.367
8070.5,-68.389,-61.261,-16.583,13.367
8080.4,-49.389,-57.261,-9.5827,16.367
8090.3,-33.389,-53.261,-0.58272,19.367
8100.2,-23.389,-51.261,3.4173,21.367
8110.1,-18.389,-50.261,1.4173,22.367
8119.9,-18.389,-50.261,-1.5827,21.367
8129.8,-17.389,-49.261,-6.5827,20.367
8139.7,-17.389,-50.261,-9.5827,19.367
8149.6,-18.389,-50.261,-12.583,18.367
8159.5,-22.389,-50.261,-15.583,18.367
8169.4,-25.389,-51.261,-15.583,19.367
8179.3,-29.389,-52.261,-15.583,18.367
8189.1,-33.389,-53.261,-16.583,17.367
8199.0,-36.389,-53.261,-17.583,16.367
8208.9,-37.389,-54.261,-18.583,16.367
8218.8,-41.389,-55.261,-18.583,15.367
8228.7,-42.389,-53.261,-17.583,16.367
8238.6,-43.389,-53.261,-15.583,16.367
8248.5,-46.389,-54.261,-16.583,16.367
8258.3,-45.389,-53.261,-14.583,16.367
8268.2,-47.389,-54.261,-12.583,16.367
8278.1,-50.389,-54.261,-12.583,17.367
8288.0,-52.389,-55.261,-8.5827,17.367
8297.9,-54.389,-55.261,-10.583,17.367
8307.8,-57.389,-55.261,-8.5827,17.367
8317.7,-61.389,-57.261,-7.5827,19.367
8327.5,-64.389,-57.261,-4.5827,20.367
8337.4,-68.389,-58.261,-2.5827,21.367
8347.3,-70.389,-59.261,-1.5827,23.367
8357.2,-74.389,-60.261,0.41728,24.367
8367.1,-77.389,-61.261,3.4173,24.367
8377.0,-80.389,-62.261,5.4173,24.367
8386.9,-83.389,-62.261,6.4173,24.367
8396.7,-87.389,-63.261,6.4173,25.367
8406.6,-90.389,-64.261,9.4173,25.367
8416.5,-93.389,-65.261,10.417,26.367
8426.4,-97.389,-65.261,14.417,27.367
8436.3,-101.39,-66.261,13.417,27.367
8446.2,-101.39,-66.261,18.417,30.367
8456.1,-106.39,-67.261,22.417,32.367
8465.9,-106.39,-67.261,25.417,32.367
8475.8,-96.389,-62.261,31.417,34.367
8485.7,-96.389,-62.261,35.417,36.367
8495.6,-61.389,-53.261,46.417,40.367
8505.5,-61.389,-53.261,54.417,44.367
8515.4,-24.389,-44.261,62.417,48.367
8525.3,-24.389,-44.261,68.417,51.367
8535.1,-5.3893,-39.261,69.417,51.367
8545.0,-5.3893,-39.261,69.417,51.367
8554.9,-0.38927,-37.261,65.417,50.367
8564.8,-0.38927,-37.261,65.417,50.367
8574.7,2.6107,-38.261,61.417,50.367
8584.6,2.6107,-38.261,61.417,50.367
8594.5,2.6107,-37.261,61.417,51.367
8604.3,1.6107,-37.261,61.417,51.367
8614.2,-1.3893,-39.261,65.417,53.367
8624.1,-3.3893,-39.261,65.417,53.367
8634.0,-7.3893,-40.261,69.417,55.367
8643.9,-10.389,-41.261,69.417,55.367
8653.8,-13.389,-43.261,70.417,55.367
8663.7,-15.389,-42.261,70.417,55.367
8673.5,-16.389,-42.261,71.417,54.367
8683.4,-19.389,-43.261,71.417,54.367
8693.3,-20.389,-43.261,71.417,53.367
8703.2,-22.389,-44.261,71.417,53.367
8713.1,-25.389,-45.261,75.417,54.367
8723.0,-26.389,-45.261,75.417,54.367
8732.9,-29.389,-45.261,76.417,54.367
8742.7,-30.389,-46.261,78.417,56.367
8752.6,-35.389,-46.261,81.417,57.367
8762.5,-36.389,-47.261,86.417,60.367
8772.4,-40.389,-48.261,91.417,61.367
8782.3,-43.389,-49.261,95.417,64.367
8792.2,-47.389,-50.261,99.417,65.367
8802.1,-50.389,-50.261,102.42,65.367
8811.9,-53.389,-50.261,103.42,66.367
8821.8,-55.389,-50.261,104.42,67.367
8831.7,-57.389,-49.261,104.42,67.367
8841.6,-60.389,-48.261,104.42,68.367
8851.5,-61.389,-47.261,107.42,68.367
8861.4,-62.389,-44.261,108.42,67.367
8871.3,-62.389,-41.261,109.42,68.367
8881.1,-60.389,-39.261,111.42,69.367
8891.0,-58.389,-37.261,113.42,71.367
8900.9,-47.389,-31.261,121.42,74.367
8910.8,-31.389,-26.261,130.42,77.367
8920.7,-12.389,-20.261,142.42,82.367
8930.6,7.6107,-15.261,156.42,89.367
8940.5,25.611,-10.261,164.42,94.367
8950.3,40.611,-5.2609,171.42,98.367
8960.2,50.611,-1.2609,171.42,96.367
8970.1,60.611,2.7391,167.42,94.367
8980.0,66.611,5.7391,159.42,91.367
8989.9,73.611,9.7391,151.42,88.367
8999.8,78.611,10.739,145.42,85.367
9009.7,83.611,12.739,140.42,83.367
9019.5,85.611,14.739,136.42,82.367
9029.4,86.611,14.739,138.42,83.367
9039.3,84.611,14.739,137.42,82.367
9049.2,81.611,14.739,138.42,84.367
9059.1,78.611,14.739,138.42,83.367
9069.0,74.611,14.739,138.42,83.367
9078.9,72.611,13.739,138.42,83.367
9088.7,68.611,14.739,142.42,84.367
9098.6,66.611,16.739,140.42,83.367
9108.5,65.611,16.739,140.42,84.367
9118.4,65.611,19.739,138.42,83.367
9128.3,64.611,20.739,138.42,81.367
9138.2,64.611,21.739,140.42,82.367
9148.1,63.611,23.739,138.42,81.367
9157.9,62.611,24.739,138.42,81.367
9167.8,61.611,25.739,137.42,79.367
9177.7,61.611,25.739,137.42,79.367
9187.6,57.611,25.739,140.42,81.367
9197.5,57.611,25.739,141.42,81.367
9207.4,48.611,24.739,142.42,82.367
9217.3,48.611,24.739,146.42,83.367
9227.1,40.611,21.739,149.42,83.367
9237.0,40.611,21.739,151.42,85.367
9246.9,28.611,18.739,154.42,85.367
9256.8,28.611,18.739,154.42,85.367
9266.7,18.611,15.739,153.42,85.367
9276.6,18.611,15.739,156.42,85.367
9286.5,8.6107,12.739,154.42,86.367
9296.3,8.6107,12.739,155.42,85.367
9306.2,4.6107,11.739,156.42,85.367
9316.1,-0.38927,9.7391,159.42,86.367
9326.0,0.61073,12.739,165.42,89.367
9335.9,7.6107,14.739,174.42,94.367
9345.8,19.611,16.739,186.42,99.367
9355.7,36.611,21.739,197.42,103.37
9365.5,56.611,26.739,207.42,109.37
9375.4,70.611,30.739,216.42,113.37
9385.3,82.611,32.739,220.42,115.37
9395.2,90.611,35.739,220.42,115.37
9405.1,96.611,36.739,212.42,112.37
9415.0,99.611,35.739,206.42,109.37
9424.9,103.61,36.739,201.42,108.37
9434.7,106.61,36.739,198.42,108.37
9444.6,106.61,36.739,196.42,107.37
9454.5,106.61,35.739,196.42,108.37
9464.4,105.61,34.739,196.42,107.37
9474.3,101.61,32.739,194.42,106.37
9484.2,94.611,31.739,191.42,105.37
9494.1,88.611,29.739,189.42,104.37
9503.9,83.611,27.739,187.42,102.37
9513.8,76.611,24.739,187.42,102.37
9523.7,71.611,22.739,182.42,100.37
9533.6,66.611,21.739,182.42,100.37
9543.5,62.611,20.739,174.42,96.367
9553.4,58.611,18.739,174.42,96.367
9563.3,55.611,17.739,168.42,91.367
9573.1,52.611,16.739,168.42,91.367
9583.0,50.611,16.739,168.42,92.367
9592.9,48.611,15.739,168.42,92.367
9602.8,44.611,14.739,168.42,90.367
9612.7,40.611,14.739,168.42,90.367
9622.6,36.611,12.739,165.42,90.367
9632.5,32.611,11.739,165.42,90.367
9642.3,28.611,11.739,164.42,90.367
9652.2,24.611,10.739,164.42,90.367
9662.1,19.611,9.7391,167.42,89.367
9672.0,15.611,7.7391,167.42,89.367
9681.9,9.6107,6.7391,165.42,90.367
9691.8,3.6107,4.7391,165.42,90.367
9701.7,-1.3893,3.7391,164.42,88.367
9711.5,-6.3893,2.7391,163.42,86.367
9721.4,-11.389,1.7391,161.42,87.367
9731.3,-16.389,0.73912,158.42,85.367
9741.2,-22.389,-1.2609,156.42,84.367
9751.1,-21.389,-0.26088,157.42,86.367
9761.0,-13.389,2.7391,158.42,82.367
9770.9,0.61073,6.7391,164.42,86.367
9780.7,17.611,10.739,170.42,90.367
9790.6,35.611,14.739,180.42,95.367
9800.5,48.611,18.739,189.42,97.367
9810.4,55.611,19.739,193.42,100.37
9820.3,57.611,20.739,193.42,101.37
9830.2,56.611,21.739,190.42,99.367
9840.1,52.611,19.739,182.42,96.367
9849.9,48.611,17.739,175.42,93.367
9859.8,41.611,16.739,170.42,91.367
9869.7,34.611,13.739,164.42,88.367
9879.6,27.611,12.739,160.42,86.367
9889.5,27.611,12.739,157.42,84.367
9899.4,11.611,8.7391,153.42,84.367
9909.3,11.611,8.7391,150.42,82.367
9919.1,-1.3893,5.7391,146.42,81.367
9929.0,-1.3893,5.7391,145.42,79.367
9938.9,-13.389,2.7391,145.42,79.367
9948.8,-13.389,2.7391,146.42,78.367
9958.7,-23.389,1.7391,144.42,78.367
9968.6,-23.389,1.7391,144.42,78.367
9978.4,-30.389,-0.26088,144.42,77.367
9988.3,-30.389,-0.26088,142.42,76.367
9998.2,-38.389,-2.2609,142.42,75.367
10008.0,-38.389,-2.2609,141.42,75.367
10018.0,-46.389,-4.2609,141.42,76.367
10028.0,-46.389,-4.2609,142.42,76.367
10038.0,-51.389,-5.2609,144.42,74.367
10048.0,-56.389,-6.2609,143.42,76.367
10058.0,-59.389,-6.2609,144.42,77.367
10067.0,-64.389,-7.2609,142.42,76.367
10077.0,-70.389,-8.2609,142.42,76.367
10087.0,-75.389,-10.261,142.42,75.367
10097.0,-79.389,-11.261,140.42,74.367
10107.0,-85.389,-12.261,139.42,73.367
10117.0,-91.389,-14.261,140.42,73.367
10127.0,-95.389,-15.261,139.42,73.367
10137.0,-99.389,-17.261,137.42,72.367
10147.0,-104.39,-18.261,138.42,73.367
10156.0,-109.39,-19.261,137.42,72.367
10166.0,-113.39,-20.261,141.42,73.367
10176.0,-117.39,-20.261,140.42,72.367
10186.0,-114.39,-19.261,142.42,74.367
10196.0,-102.39,-14.261,146.42,74.367
10206.0,-85.389,-10.261,151.42,77.367
10216.0,-64.389,-3.2609,159.42,80.367
10226.0,-46.389,0.73912,166.42,84.367
10236.0,-34.389,4.7391,170.42,86.367
10245.0,-26.389,5.7391,170.42,87.367
10255.0,-24.389,5.7391,166.42,84.367
10265.0,-25.389,5.7391,159.42,80.367
10275.0,-28.389,4.7391,153.42,78.367
10285.0,-32.389,3.7391,147.42,75.367
10295.0,-37.389,2.7391,142.42,74.367
10305.0,-42.389,2.7391,141.42,74.367
10315.0,-45.389,1.7391,137.42,74.367
10324.0,-49.389,0.73912,136.42,72.367
10334.0,-53.389,-0.26088,132.42,70.367
10344.0,-56.389,-1.2609,128.42,68.367
10354.0,-59.389,-1.2609,124.42,65.367
10364.0,-61.389,-2.2609,119.42,63.367
10374.0,-64.389,-2.2609,114.42,61.367
10384.0,-65.389,-3.2609,112.42,61.367
10394.0,-69.389,-4.2609,112.42,59.367
10404.0,-71.389,-3.2609,112.42,58.367
10413.0,-74.389,-3.2609,110.42,60.367
10423.0,-76.389,-3.2609,111.42,58.367
10433.0,-77.389,-3.2609,110.42,59.367
10443.0,-79.389,-3.2609,113.42,57.367
10453.0,-83.389,-4.2609,115.42,59.367
10463.0,-85.389,-5.2609,113.42,59.367
10473.0,-87.389,-4.2609,112.42,58.367
10483.0,-90.389,-5.2609,109.42,57.367
10493.0,-93.389,-5.2609,108.42,56.367
10502.0,-96.389,-5.2609,107.42,56.367
10512.0,-98.389,-5.2609,106.42,54.367
10522.0,-102.39,-6.2609,105.42,55.367
10532.0,-105.39,-7.2609,103.42,53.367
10542.0,-108.39,-7.2609,100.42,52.367
10552.0,-112.39,-8.2609,99.417,51.367
10562.0,-113.39,-7.2609,98.417,50.367
10572.0,-117.39,-8.2609,96.417,50.367
10582.0,-120.39,-8.2609,96.417,50.367
10591.0,-118.39,-7.2609,94.417,47.367
10601.0,-110.39,-5.2609,94.417,47.367
10611.0,-95.389,0.73912,97.417,48.367
10621.0,-95.389,0.73912,97.417,48.367
10631.0,-54.389,10.739,112.42,54.367
10641.0,-54.389,10.739,112.42,54.367
10651.0,-27.389,16.739,124.42,60.367
10661.0,-27.389,16.739,124.42,60.367
10670.0,-22.389,16.739,115.42,56.367
10680.0,-22.389,16.739,115.42,56.367
10690.0,-29.389,13.739,102.42,51.367
10700.0,-29.389,13.739,102.42,51.367
10710.0,-38.389,11.739,92.417,48.367
10720.0,-38.389,11.739,92.417,48.367
10730.0,-47.389,10.739,88.417,47.367
10740.0,-47.389,10.739,88.417,47.367
10750.0,-53.389,10.739,88.417,45.367
10759.0,-53.389,10.739,88.417,45.367
10769.0,-53.389,10.739,85.417,44.367
10779.0,-54.389,9.7391,82.417,43.367
10789.0,-56.389,8.7391,80.417,40.367
10799.0,-58.389,9.7391,74.417,39.367
10809.0,-59.389,8.7391,74.417,38.367
10819.0,-61.389,8.7391,73.417,37.367
10829.0,-61.389,7.7391,71.417,34.367
10839.0,-64.389,7.7391,71.417,35.367
10848.0,-67.389,8.7391,69.417,35.367
10858.0,-68.389,6.7391,71.417,34.367
10868.0,-69.389,6.7391,69.417,35.367
10878.0,-73.389,5.7391,71.417,35.367
10888.0,-77.389,4.7391,69.417,34.367
10898.0,-80.389,3.7391,72.417,35.367
10908.0,-83.389,1.7391,73.417,36.367
10918.0,-86.389,1.7391,74.417,37.367
10928.0,-90.389,-0.26088,75.417,36.367
10937.0,-93.389,-1.2609,74.417,36.367
10947.0,-97.389,-2.2609,73.417,36.367
10957.0,-100.39,-2.2609,71.417,34.367
10967.0,-104.39,-3.2609,71.417,36.367
10977.0,-109.39,-5.2609,67.417,33.367
10987.0,-112.39,-5.2609,68.417,32.367
10997.0,-114.39,-5.2609,69.417,32.367
11007.0,-117.39,-6.2609,70.417,33.367
11016.0,-107.39,-2.2609,74.417,34.367
11026.0,-94.389,0.73912,81.417,35.367
11036.0,-74.389,7.7391,87.417,38.367
11046.0,-52.389,13.739,95.417,43.367
11056.0,-32.389,17.739,102.42,47.367
11066.0,-18.389,21.739,107.42,48.367
11076.0,-10.389,22.739,106.42,48.367
11086.0,-4.3893,23.739,101.42,46.367
11096.0,-4.3893,23.739,94.417,42.367
11105.0,-6.3893,23.739,85.417,38.367
11115.0,-9.3893,22.739,82.417,37.367
11125.0,-13.389,20.739,79.417,35.367
11135.0,-17.389,19.739,77.417,35.367
11145.0,-19.389,19.739,78.417,36.367
11155.0,-22.389,19.739,79.417,36.367
11165.0,-23.389,19.739,79.417,37.367
11175.0,-24.389,18.739,79.417,37.367
11185.0,-27.389,18.739,78.417,37.367
11194.0,-28.389,17.739,75.417,35.367
11204.0,-30.389,18.739,74.417,34.367
11214.0,-31.389,17.739,73.417,34.367
11224.0,-31.389,17.739,72.417,33.367
11234.0,-33.389,16.739,70.417,31.367
11244.0,-34.389,17.739,72.417,30.367
11254.0,-35.389,16.739,72.417,30.367
11264.0,-37.389,16.739,72.417,31.367
11274.0,-39.389,15.739,75.417,33.367
11283.0,-41.389,14.739,76.417,33.367
11293.0,-43.389,15.739,80.417,35.367
11303.0,-45.389,13.739,82.417,35.367
11313.0,-49.389,14.739,86.417,37.367
11323.0,-53.389,11.739,88.417,38.367
11333.0,-56.389,11.739,91.417,39.367
11343.0,-60.389,11.739,92.417,41.367
11353.0,-60.389,11.739,93.417,41.367
11362.0,-68.389,7.7391,92.417,41.367
11372.0,-68.389,7.7391,91.417,39.367
11382.0,-76.389,6.7391,88.417,39.367
11392.0,-76.389,6.7391,87.417,38.367
11402.0,-83.389,4.7391,87.417,37.367
11412.0,-83.389,4.7391,91.417,39.367
11422.0,-74.389,9.7391,96.417,41.367
11432.0,-74.389,9.7391,105.42,46.367
11442.0,-39.389,18.739,118.42,50.367
11451.0,-39.389,18.739,129.42,56.367
11461.0,-3.3893,28.739,139.42,60.367
11471.0,-3.3893,28.739,142.42,62.367
11481.0,13.611,32.739,142.42,63.367
11491.0,13.611,32.739,136.42,61.367
11501.0,14.611,31.739,134.42,59.367
11511.0,13.611,31.739,134.42,59.367
11521.0,11.611,30.739,124.42,56.367
11531.0,7.6107,29.739,124.42,56.367
11540.0,3.6107,29.739,117.42,53.367
11550.0,0.61073,29.739,117.42,53.367
11560.0,-1.3893,29.739,114.42,52.367
11570.0,-3.3893,28.739,114.42,52.367
11580.0,-5.3893,28.739,116.42,52.367
11590.0,-8.3893,28.739,116.42,52.367
11600.0,-9.3893,26.739,115.42,51.367
11610.0,-11.389,27.739,115.42,51.367
11620.0,-12.389,27.739,112.42,50.367
11629.0,-14.389,26.739,112.42,50.367
11639.0,-16.389,25.739,113.42,49.367
11649.0,-19.389,25.739,113.42,49.367
11659.0,-19.389,25.739,121.42,52.367
11669.0,-21.389,24.739,121.42,52.367
11679.0,-24.389,24.739,121.42,51.367
11689.0,-25.389,23.739,121.42,51.367
11699.0,-27.389,22.739,123.42,53.367
11708.0,-30.389,21.739,124.42,53.367
11718.0,-31.389,21.739,124.42,53.367
11728.0,-35.389,20.739,124.42,54.367
11738.0,-39.389,20.739,124.42,53.367
11748.0,-42.389,18.739,125.42,54.367
11758.0,-46.389,17.739,125.42,53.367
11768.0,-50.389,16.739,126.42,54.367
11778.0,-55.389,14.739,123.42,52.367
11788.0,-59.389,14.739,121.42,50.367
11797.0,-63.389,13.739,120.42,49.367
11807.0,-67.389,11.739,120.42,50.367
11817.0,-72.389,11.739,120.42,50.367
11827.0,-67.389,12.739,124.42,51.367
11837.0,-55.389,16.739,130.42,53.367
11847.0,-39.389,21.739,138.42,57.367
11857.0,-19.389,25.739,149.42,62.367
11867.0,0.61073,29.739,161.42,66.367
11877.0,15.611,32.739,165.42,70.367
11886.0,24.611,33.739,168.42,70.367
11896.0,28.611,34.739,166.42,70.367
11906.0,31.611,35.739,161.42,68.367
11916.0,30.611,34.739,156.42,66.367
11926.0,27.611,33.739,148.42,63.367
11936.0,24.611,32.739,143.42,62.367
11946.0,22.611,32.739,142.42,61.367
11956.0,19.611,30.739,139.42,60.367
11966.0,15.611,29.739,140.42,59.367
11975.0,10.611,28.739,136.42,60.367
11985.0,6.6107,26.739,137.42,59.367
11995.0,1.6107,26.739,134.42,58.367
12005.0,-2.3893,25.739,132.42,57.367
12015.0,-6.3893,24.739,129.42,55.367
12025.0,-8.3893,22.739,125.42,54.367
12035.0,-11.389,22.739,123.42,51.367
12045.0,-14.389,20.739,120.42,50.367
12054.0,-16.389,19.739,118.42,49.367
12064.0,-20.389,18.739,116.42,48.367
12074.0,-23.389,19.739,115.42,46.367
12084.0,-23.389,19.739,115.42,46.367
12094.0,-28.389,17.739,115.42,47.367
12104.0,-28.389,17.739,113.42,47.367
12114.0,-35.389,14.739,114.42,46.367
12124.0,-35.389,14.739,114.42,45.367
12134.0,-44.389,11.739,113.42,46.367
12143.0,-44.389,11.739,113.42,45.367
12153.0,-54.389,9.7391,112.42,45.367
12163.0,-54.389,9.7391,109.42,45.367
12173.0,-62.389,7.7391,108.42,43.367
12183.0,-62.389,7.7391,105.42,41.367
12193.0,-72.389,5.7391,104.42,41.367
12203.0,-72.389,5.7391,102.42,39.367
12213.0,-75.389,5.7391,99.417,38.367
12223.0,-81.389,3.7391,98.417,38.367
12232.0,-81.389,2.7391,100.42,37.367
12242.0,-74.389,5.7391,104.42,39.367
12252.0,-58.389,9.7391,112.42,43.367
12262.0,-38.389,15.739,121.42,46.367
12272.0,-19.389,19.739,129.42,51.367
12282.0,-3.3893,23.739,138.42,53.367
12292.0,5.6107,24.739,136.42,54.367
12302.0,10.611,27.739,130.42,53.367
12312.0,10.611,27.739,128.42,51.367
12321.0,9.6107,26.739,122.42,49.367
12331.0,5.6107,25.739,116.42,47.367
12341.0,0.61073,25.739,111.42,45.367
12351.0,-4.3893,23.739,107.42,43.367
12361.0,-8.3893,22.739,105.42,40.367
12371.0,-13.389,21.739,102.42,40.367
12381.0,-18.389,19.739,99.417,38.367
12391.0,-23.389,18.739,97.417,38.367
12400.0,-27.389,17.739,95.417,36.367
12410.0,-30.389,16.739,94.417,37.367
12420.0,-33.389,15.739,96.417,36.367
12430.0,-36.389,15.739,96.417,35.367
12440.0,-39.389,15.739,96.417,35.367
12450.0,-41.389,14.739,95.417,36.367
12460.0,-43.389,13.739,95.417,35.367
12470.0,-46.389,14.739,94.417,34.367
12480.0,-47.389,13.739,95.417,34.367
12489.0,-50.389,12.739,95.417,35.367
12499.0,-52.389,11.739,95.417,35.367
12509.0,-56.389,11.739,97.417,35.367
12519.0,-60.389,10.739,97.417,35.367
12529.0,-63.389,10.739,99.417,35.367
12539.0,-67.389,9.7391,99.417,35.367
12549.0,-70.389,8.7391,98.417,34.367
12559.0,-73.389,7.7391,98.417,34.367
12569.0,-76.389,7.7391,97.417,33.367
12578.0,-81.389,5.7391,97.417,33.367
12588.0,-83.389,4.7391,98.417,33.367
12598.0,-88.389,4.7391,98.417,33.367
12608.0,-90.389,4.7391,96.417,32.367
12618.0,-95.389,4.7391,96.417,32.367
12628.0,-93.389,5.7391,94.417,30.367
12638.0,-83.389,7.7391,94.417,30.367
12648.0,-64.389,13.739,103.42,33.367
12658.0,-44.389,18.739,103.42,33.367
12667.0,-23.389,24.739,119.42,42.367
12677.0,-8.3893,26.739,119.42,42.367
12687.0,1.6107,29.739,127.42,46.367
12697.0,5.6107,30.739,127.42,46.367
12707.0,8.6107,30.739,123.42,44.367
12717.0,7.6107,29.739,123.42,44.367
12727.0,4.6107,29.739,112.42,40.367
12737.0,1.6107,28.739,112.42,40.367
12746.0,-1.3893,28.739,108.42,39.367
12756.0,-5.3893,27.739,104.42,37.367
12766.0,-9.3893,26.739,100.42,36.367
12776.0,-13.389,24.739,97.417,35.367
12786.0,-17.389,23.739,93.417,34.367
12796.0,-17.389,23.739,90.417,31.367
12806.0,-22.389,22.739,89.417,29.367
12816.0,-22.389,22.739,83.417,28.367
12826.0,-24.389,22.739,83.417,27.367
12835.0,-24.389,22.739,81.417,26.367
12845.0,-27.389,21.739,81.417,25.367
12855.0,-27.389,21.739,79.417,25.367
12865.0,-28.389,21.739,81.417,25.367
12875.0,-28.389,21.739,80.417,25.367
12885.0,-32.389,19.739,83.417,25.367
12895.0,-32.389,19.739,83.417,25.367
12905.0,-39.389,17.739,84.417,26.367
12915.0,-39.389,17.739,83.417,25.367
12924.0,-46.389,15.739,83.417,25.367
12934.0,-46.389,15.739,80.417,24.367
12944.0,-50.389,14.739,76.417,22.367
12954.0,-53.389,13.739,77.417,22.367
12964.0,-58.389,12.739,76.417,22.367
12974.0,-62.389,11.739,76.417,22.367
12984.0,-66.389,10.739,74.417,21.367
12994.0,-70.389,9.7391,74.417,21.367
13004.0,-72.389,8.7391,72.417,20.367
13013.0,-76.389,8.7391,73.417,18.367
13023.0,-76.389,9.7391,70.417,18.367
13033.0,-70.389,11.739,71.417,17.367
13043.0,-56.389,16.739,77.417,20.367
13053.0,-36.389,21.739,87.417,23.367
13063.0,-13.389,27.739,95.417,28.367
13073.0,3.6107,31.739,105.42,32.367
13083.0,16.611,34.739,109.42,35.367
13092.0,24.611,35.739,112.42,35.367
13102.0,27.611,36.739,109.42,34.367
13112.0,27.611,36.739,102.42,33.367
13122.0,28.611,35.739,99.417,31.367
13132.0,23.611,34.739,93.417,28.367
13142.0,19.611,33.739,88.417,26.367
13152.0,16.611,32.739,86.417,25.367
13162.0,12.611,32.739,84.417,24.367
13172.0,8.6107,30.739,82.417,23.367
13181.0,3.6107,29.739,78.417,23.367
13191.0,0.61073,28.739,75.417,21.367
13201.0,-1.3893,28.739,72.417,20.367
13211.0,-3.3893,27.739,72.417,20.367
13221.0,-4.3893,27.739,71.417,19.367
13231.0,-5.3893,26.739,68.417,17.367
13241.0,-7.3893,26.739,68.417,16.367
13251.0,-7.3893,26.739,67.417,15.367
13261.0,-10.389,26.739,65.417,15.367
13270.0,-12.389,25.739,68.417,15.367
13280.0,-13.389,24.739,70.417,16.367
13290.0,-16.389,23.739,72.417,17.367
13300.0,-19.389,23.739,73.417,17.367
13310.0,-23.389,21.739,72.417,18.367
13320.0,-26.389,20.739,73.417,17.367
13330.0,-30.389,18.739,71.417,16.367
13340.0,-34.389,17.739,70.417,16.367
13350.0,-39.389,16.739,67.417,16.367
13359.0,-43.389,15.739,67.417,14.367
13369.0,-46.389,13.739,65.417,14.367
13379.0,-50.389,13.739,64.417,14.367
13389.0,-55.389,12.739,63.417,13.367
13399.0,-58.389,11.739,63.417,14.367
13409.0,-60.389,9.7391,64.417,13.367
13419.0,-59.389,11.739,64.417,15.367
13429.0,-50.389,15.739,69.417,13.367
13438.0,-32.389,19.739,75.417,17.367
13448.0,-13.389,25.739,83.417,19.367
13458.0,6.6107,29.739,90.417,24.367
13468.0,22.611,33.739,98.417,27.367
13478.0,32.611,34.739,99.417,28.367
13488.0,36.611,35.739,99.417,28.367
13498.0,39.611,35.739,96.417,26.367
13508.0,38.611,35.739,89.417,23.367
13518.0,36.611,34.739,84.417,22.367
13527.0,36.611,34.739,79.417,20.367
13537.0,31.611,32.739,77.417,19.367
13547.0,31.611,32.739,75.417,18.367
13557.0,22.611,29.739,73.417,18.367
13567.0,22.611,29.739,73.417,18.367
13577.0,16.611,27.739,70.417,16.367
13587.0,16.611,27.739,70.417,16.367
13597.0,10.611,27.739,66.417,14.367
13607.0,10.611,27.739,66.417,14.367
13616.0,7.6107,25.739,59.417,12.367
13626.0,7.6107,25.739,59.417,12.367
13636.0,3.6107,24.739,58.417,9.3672
13646.0,3.6107,24.739,58.417,9.3672
13656.0,2.6107,24.739,61.417,10.367
13666.0,0.61073,24.739,61.417,10.367
13676.0,-2.3893,23.739,65.417,11.367
13686.0,-4.3893,22.739,65.417,11.367
13696.0,-7.3893,21.739,65.417,12.367
13705.0,-10.389,20.739,65.417,12.367
13715.0,-12.389,19.739,65.417,12.367
13725.0,-17.389,18.739,65.417,12.367
13735.0,-21.389,17.739,64.417,11.367
13745.0,-26.389,16.739,64.417,12.367
13755.0,-29.389,14.739,62.417,10.367
13765.0,-33.389,15.739,61.417,11.367
13775.0,-36.389,13.739,61.417,9.3672
13784.0,-40.389,14.739,60.417,8.3672
13794.0,-46.389,13.739,59.417,9.3672
13804.0,-47.389,12.739,60.417,8.3672
13814.0,-47.389,15.739,61.417,9.3672
13824.0,-38.389,18.739,63.417,9.3672
13834.0,-20.389,25.739,68.417,11.367
13844.0,0.61073,30.739,73.417,13.367
13854.0,19.611,35.739,83.417,19.367
13864.0,36.611,39.739,91.417,23.367
13873.0,47.611,43.739,96.417,25.367
13883.0,55.611,45.739,95.417,24.367
13893.0,60.611,46.739,91.417,23.367
13903.0,63.611,47.739,85.417,21.367
13913.0,64.611,47.739,78.417,19.367
13923.0,63.611,47.739,73.417,16.367
13933.0,62.611,46.739,68.417,14.367
13943.0,61.611,46.739,67.417,13.367
13953.0,59.611,46.739,65.417,14.367
13962.0,58.611,46.739,64.417,12.367
13972.0,55.611,45.739,65.417,12.367
13982.0,51.611,45.739,63.417,12.367
13992.0,49.611,44.739,61.417,11.367
14002.0,46.611,43.739,57.417,10.367
14012.0,44.611,43.739,55.417,7.3672
14022.0,43.611,41.739,53.417,6.3672
14032.0,40.611,42.739,51.417,5.3672
14042.0,38.611,40.739,50.417,5.3672
14051.0,37.611,40.739,50.417,4.3672
14061.0,35.611,41.739,51.417,3.3672
14071.0,34.611,40.739,51.417,4.3672
14081.0,33.611,39.739,49.417,5.3672
14091.0,33.611,39.739,52.417,6.3672
14101.0,31.611,39.739,53.417,6.3672
14111.0,27.611,38.739,55.417,6.3672
14121.0,25.611,36.739,56.417,8.3672
14130.0,19.611,36.739,55.417,6.3672
14140.0,17.611,35.739,57.417,8.3672
14150.0,12.611,34.739,55.417,6.3672
14160.0,8.6107,32.739,54.417,5.3672
14170.0,6.6107,31.739,52.417,4.3672
14180.0,1.6107,30.739,51.417,3.3672
14190.0,-1.3893,29.739,48.417,2.3672
14200.0,-4.3893,29.739,49.417,2.3672
14210.0,-3.3893,30.739,51.417,3.3672
14219.0,4.6107,32.739,56.417,5.3672
14229.0,19.611,38.739,64.417,8.3672
14239.0,19.611,38.739,74.417,13.367
14249.0,60.611,48.739,82.417,17.367
14259.0,60.611,48.739,87.417,20.367
14269.0,88.611,55.739,87.417,21.367
14279.0,88.611,55.739,84.417,19.367
14289.0,97.611,55.739,78.417,17.367
14299.0,97.611,55.739,72.417,14.367
14308.0,95.611,53.739,68.417,13.367
14318.0,95.611,53.739,66.417,12.367
14328.0,89.611,51.739,65.417,11.367
14338.0,89.611,51.739,64.417,11.367
14348.0,84.611,49.739,63.417,11.367
14358.0,84.611,49.739,61.417,9.3672
14368.0,77.611,46.739,60.417,12.367
14378.0,77.611,46.739,58.417,10.367
14388.0,72.611,44.739,56.417,7.3672
14397.0,70.611,45.739,56.417,7.3672
14407.0,68.611,44.739,56.417,9.3672
14417.0,65.611,43.739,56.417,9.3672
14427.0,63.611,44.739,56.417,7.3672
14437.0,59.611,41.739,56.417,6.3672
14447.0,57.611,41.739,57.417,7.3672
14457.0,55.611,40.739,58.417,8.3672
14467.0,51.611,40.739,59.417,8.3672
14476.0,49.611,39.739,61.417,10.367
14486.0,46.611,38.739,64.417,11.367
14496.0,42.611,37.739,64.417,11.367
14506.0,39.611,37.739,67.417,11.367
14516.0,35.611,35.739,67.417,11.367
14526.0,31.611,34.739,67.417,12.367
14536.0,27.611,33.739,67.417,12.367
14546.0,21.611,32.739,67.417,12.367
14556.0,18.611,30.739,67.417,12.367
14565.0,13.611,28.739,68.417,12.367
14575.0,8.6107,27.739,68.417,12.367
14585.0,4.6107,26.739,70.417,12.367
14595.0,-0.38927,25.739,70.417,12.367
14605.0,-2.3893,25.739,78.417,16.367
14615.0,0.61073,26.739,78.417,16.367
14625.0,12.611,30.739,97.417,25.367
14635.0,30.611,35.739,97.417,25.367
14645.0,51.611,41.739,112.42,33.367
14654.0,70.611,46.739,112.42,33.367
14664.0,85.611,49.739,114.42,34.367
14674.0,94.611,50.739,114.42,34.367
14684.0,97.611,51.739,104.42,30.367
14694.0,98.611,51.739,104.42,30.367
14704.0,94.611,49.739,95.417,26.367
14714.0,92.611,47.739,90.417,25.367
14724.0,87.611,47.739,89.417,25.367
14734.0,85.611,45.739,87.417,24.367
14743.0,81.611,44.739,87.417,24.367
14753.0,77.611,44.739,87.417,24.367
14763.0,74.611,42.739,84.417,23.367
14773.0,70.611,42.739,84.417,23.367
14783.0,65.611,42.739,82.417,21.367
14793.0,63.611,41.739,78.417,19.367
14803.0,60.611,40.739,76.417,19.367
14813.0,57.611,39.739,71.417,17.367
14822.0,54.611,38.739,70.417,15.367
14832.0,51.611,38.739,66.417,14.367
14842.0,48.611,37.739,66.417,14.367
14852.0,45.611,36.739,65.417,13.367
14862.0,41.611,34.739,68.417,14.367
14872.0,37.611,34.739,69.417,14.367
14882.0,33.611,32.739,72.417,14.367
14892.0,29.611,30.739,74.417,16.367
14902.0,24.611,29.739,76.417,17.367
14911.0,18.611,27.739,77.417,18.367
14921.0,13.611,24.739,78.417,19.367
14931.0,5.6107,22.739,77.417,18.367
14941.0,-1.3893,20.739,79.417,16.367
14951.0,-7.3893,17.739,75.417,17.367
14961.0,-13.389,15.739,74.417,17.367
14971.0,-13.389,15.739,74.417,16.367
14981.0,-25.389,12.739,73.417,16.367
14991.0,-25.389,12.739,74.417,16.367
15000.0,-32.389,11.739,77.417,16.367
15010.0,-32.389,11.739,81.417,19.367
15020.0,-10.389,17.739,90.417,23.367
15030.0,-10.389,17.739,101.42,28.367
15040.0,29.611,28.739,110.42,34.367
15050.0,29.611,28.739,122.42,37.367
15060.0,59.611,34.739,126.42,40.367
15070.0,59.611,34.739,125.42,40.367
15079.0,69.611,34.739,120.42,37.367
15089.0,69.611,34.739,117.42,36.367
15099.0,67.611,32.739,109.42,32.367
15109.0,67.611,32.739,103.42,31.367
15119.0,63.611,31.739,100.42,29.367
15129.0,58.611,30.739,96.417,29.367
15139.0,54.611,28.739,93.417,28.367
15149.0,50.611,26.739,95.417,27.367
15159.0,44.611,24.739,92.417,27.367
15168.0,39.611,23.739,88.417,25.367
15178.0,34.611,21.739,86.417,23.367
15188.0,30.611,20.739,83.417,23.367
15198.0,25.611,19.739,81.417,21.367
15208.0,22.611,17.739,78.417,20.367
15218.0,17.611,16.739,77.417,19.367
15228.0,14.611,15.739,78.417,18.367
15238.0,9.6107,14.739,77.417,19.367
15248.0,6.6107,12.739,77.417,19.367
15257.0,4.6107,11.739,78.417,18.367
15267.0,1.6107,10.739,78.417,19.367
15277.0,-1.3893,9.7391,79.417,19.367
15287.0,-5.3893,8.7391,79.417,18.367
15297.0,-11.389,6.7391,81.417,19.367
15307.0,-14.389,4.7391,81.417,19.367
15317.0,-19.389,3.7391,81.417,19.367
15327.0,-24.389,2.7391,80.417,18.367
15337.0,-29.389,0.73912,79.417,18.367
15346.0,-33.389,-1.2609,75.417,16.367
15356.0,-40.389,-2.2609,71.417,15.367
15366.0,-44.389,-3.2609,70.417,13.367
15376.0,-49.389,-5.2609,70.417,15.367
15386.0,-53.389,-6.2609,70.417,13.367
15396.0,-58.389,-7.2609,71.417,15.367
15406.0,-58.389,-7.2609,76.417,15.367
15416.0,-52.389,-6.2609,82.417,19.367
15425.0,-36.389,-0.26088,91.417,22.367
15435.0,-17.389,3.7391,99.417,27.367
15445.0,5.6107,8.7391,106.42,29.367
15455.0,20.611,11.739,110.42,31.367
15465.0,31.611,13.739,104.42,30.367
15475.0,37.611,14.739,101.42,29.367
15485.0,40.611,15.739,95.417,26.367
15495.0,41.611,15.739,89.417,24.367
15505.0,38.611,13.739,87.417,23.367
15514.0,37.611,12.739,84.417,21.367
15524.0,34.611,11.739,77.417,20.367
15534.0,30.611,9.7391,74.417,17.367
15544.0,25.611,7.7391,68.417,15.367
15554.0,21.611,6.7391,65.417,12.367
15564.0,16.611,5.7391,65.417,12.367
15574.0,10.611,3.7391,56.417,9.3672
15584.0,4.6107,1.7391,56.417,9.3672
15594.0,-0.38927,-1.2609,49.417,5.3672
15603.0,-4.3893,-0.26088,49.417,5.3672
15613.0,-8.3893,-2.2609,43.417,2.3672
15623.0,-12.389,-2.2609,43.417,2.3672
15633.0,-15.389,-4.2609,43.417,1.3672
15643.0,-19.389,-4.2609,43.417,1.3672
15653.0,-23.389,-5.2609,45.417,2.3672
15663.0,-25.389,-7.2609,45.417,2.3672
15673.0,-29.389,-7.2609,46.417,2.3672
15683.0,-33.389,-8.2609,46.417,2.3672
15692.0,-37.389,-9.2609,44.417,-0.63281
15702.0,-37.389,-9.2609,44.417,-0.63281
15712.0,-48.389,-12.261,41.417,-0.63281
15722.0,-48.389,-12.261,41.417,-0.63281
15732.0,-57.389,-14.261,40.417,-2.6328
15742.0,-57.389,-14.261,40.417,-2.6328
15752.0,-65.389,-16.261,36.417,-3.6328
15762.0,-65.389,-16.261,36.417,-3.6328
15771.0,-73.389,-18.261,34.417,-3.6328
15781.0,-73.389,-18.261,33.417,-4.6328
15791.0,-80.389,-20.261,32.417,-6.6328
15801.0,-80.389,-20.261,33.417,-6.6328
15811.0,-65.389,-14.261,33.417,-6.6328
15821.0,-65.389,-14.261,39.417,-1.6328
15831.0,-45.389,-8.2609,50.417,2.3672
15841.0,-23.389,-2.2609,59.417,5.3672
15851.0,-2.3893,2.7391,66.417,8.3672
15860.0,13.611,5.7391,67.417,10.367
15870.0,23.611,7.7391,64.417,9.3672
15880.0,28.611,8.7391,60.417,7.3672
15890.0,31.611,9.7391,56.417,6.3672
15900.0,33.611,9.7391,50.417,3.3672
15910.0,32.611,8.7391,44.417,1.3672
15920.0,31.611,7.7391,39.417,-0.63281
15930.0,28.611,7.7391,34.417,-2.6328
15940.0,25.611,6.7391,32.417,-3.6328
15949.0,21.611,5.7391,28.417,-5.6328
15959.0,18.611,4.7391,25.417,-6.6328
15969.0,13.611,2.7391,21.417,-10.633
15979.0,9.6107,1.7391,17.417,-10.633
15989.0,6.6107,0.73912,14.417,-12.633
15999.0,3.6107,0.73912,13.417,-13.633
16009.0,1.6107,0.73912,11.417,-14.633
16019.0,-0.38927,-0.26088,10.417,-14.633
16029.0,-0.38927,-1.2609,12.417,-14.633
16038.0,-1.3893,-1.2609,13.417,-13.633
16048.0,-3.3893,-2.2609,14.417,-14.633
16058.0,-6.3893,-3.2609,14.417,-14.633
16068.0,-9.3893,-3.2609,13.417,-13.633
16078.0,-13.389,-5.2609,12.417,-14.633
16088.0,-17.389,-5.2609,11.417,-15.633
16098.0,-21.389,-7.2609,10.417,-16.633
16108.0,-25.389,-8.2609,10.417,-16.633
16117.0,-27.389,-9.2609,7.4173,-16.633
16127.0,-33.389,-10.261,8.4173,-17.633
16137.0,-38.389,-12.261,7.4173,-17.633
16147.0,-42.389,-13.261,6.4173,-17.633
16157.0,-46.389,-15.261,7.4173,-16.633
16167.0,-50.389,-16.261,6.4173,-17.633
16177.0,-55.389,-17.261,3.4173,-17.633
16187.0,-57.389,-17.261,4.4173,-19.633
16197.0,-56.389,-15.261,7.4173,-18.633
16206.0,-46.389,-12.261,11.417,-16.633
16216.0,-27.389,-6.2609,22.417,-12.633
16226.0,-4.3893,-0.26088,33.417,-7.6328
16236.0,17.611,5.7391,41.417,-2.6328
16246.0,35.611,8.7391,47.417,-0.63281
16256.0,45.611,10.739,48.417,-0.63281
16266.0,53.611,12.739,45.417,-0.63281
16276.0,57.611,14.739,39.417,-3.6328
16286.0,59.611,13.739,32.417,-4.6328
16295.0,61.611,14.739,26.417,-8.6328
16305.0,59.611,13.739,22.417,-9.6328
16315.0,57.611,12.739,17.417,-10.633
16325.0,54.611,11.739,16.417,-12.633
16335.0,51.611,11.739,13.417,-14.633
16345.0,46.611,8.7391,10.417,-12.633
16355.0,42.611,8.7391,8.4173,-15.633
16365.0,38.611,7.7391,5.4173,-16.633
16375.0,36.611,6.7391,4.4173,-18.633
16384.0,31.611,6.7391,1.4173,-17.633
16394.0,29.611,5.7391,2.4173,-19.633
16404.0,28.611,5.7391,2.4173,-19.633
16414.0,28.611,5.7391,2.4173,-19.633
16424.0,25.611,4.7391,2.4173,-19.633
16434.0,25.611,4.7391,4.4173,-18.633
16444.0,19.611,2.7391,6.4173,-17.633
16454.0,19.611,2.7391,7.4173,-19.633
16463.0,14.611,1.7391,8.4173,-17.633
16473.0,14.611,1.7391,8.4173,-18.633
16483.0,8.6107,0.73912,7.4173,-18.633
16493.0,8.6107,0.73912,4.4173,-19.633
16503.0,-0.38927,-1.2609,3.4173,-20.633
16513.0,-0.38927,-1.2609,-0.58272,-20.633
16523.0,-10.389,-6.2609,-0.58272,-22.633
16533.0,-10.389,-6.2609,-0.58272,-22.633
16543.0,-19.389,-8.2609,-2.5827,-21.633
16552.0,-19.389,-8.2609,-2.5827,-21.633
16562.0,-23.389,-9.2609,0.41728,-22.633
16572.0,-27.389,-10.261,0.41728,-22.633
16582.0,-31.389,-10.261,0.41728,-22.633
16592.0,-32.389,-10.261,0.41728,-22.633
16602.0,-23.389,-6.2609,11.417,-17.633
16612.0,-6.3893,-2.2609,11.417,-17.633
16622.0,15.611,5.7391,29.417,-9.6328
16632.0,36.611,9.7391,29.417,-9.6328
16641.0,55.611,14.739,39.417,-4.6328
16651.0,68.611,17.739,39.417,-4.6328
16661.0,74.611,17.739,31.417,-7.6328
16671.0,79.611,18.739,31.417,-7.6328
16681.0,78.611,18.739,22.417,-9.6328
16691.0,81.611,17.739,22.417,-9.6328
16701.0,78.611,17.739,14.417,-13.633
16711.0,76.611,15.739,12.417,-14.633
16721.0,72.611,14.739,9.4173,-17.633
16730.0,68.611,13.739,6.4173,-16.633
16740.0,63.611,11.739,6.4173,-18.633
16750.0,58.611,10.739,3.4173,-19.633
16760.0,54.611,8.7391,0.41728,-20.633
16770.0,52.611,8.7391,-1.5827,-21.633
16780.0,50.611,7.7391,-1.5827,-22.633
16790.0,48.611,7.7391,-1.5827,-21.633
16800.0,47.611,6.7391,-1.5827,-21.633
16809.0,45.611,5.7391,-0.58272,-22.633
16819.0,43.611,5.7391,-1.5827,-22.633
16829.0,42.611,5.7391,-1.5827,-22.633
16839.0,39.611,4.7391,-0.58272,-20.633
16849.0,37.611,3.7391,1.4173,-20.633
16859.0,34.611,3.7391,3.4173,-20.633
16869.0,30.611,1.7391,3.4173,-19.633
16879.0,26.611,0.73912,3.4173,-20.633
16889.0,23.611,0.73912,2.4173,-19.633
16898.0,18.611,-1.2609,3.4173,-19.633
16908.0,14.611,-2.2609,3.4173,-19.633
16918.0,10.611,-4.2609,2.4173,-20.633
16928.0,5.6107,-5.2609,2.4173,-21.633
16938.0,2.6107,-6.2609,1.4173,-21.633
16948.0,-3.3893,-7.2609,-0.58272,-21.633
16958.0,-6.3893,-9.2609,1.4173,-21.633
16968.0,-10.389,-10.261,1.4173,-22.633
16978.0,-12.389,-9.2609,1.4173,-21.633
16987.0,-4.3893,-7.2609,6.4173,-19.633
16997.0,12.611,-1.2609,14.417,-15.633
17007.0,33.611,4.7391,24.417,-11.633
17017.0,56.611,10.739,33.417,-5.6328
17027.0,75.611,14.739,43.417,-2.6328
17037.0,90.611,18.739,46.417,-0.63281
17047.0,99.611,20.739,43.417,-1.6328
17057.0,105.61,21.739,41.417,-2.6328
17067.0,109.61,22.739,37.417,-4.6328
17076.0,110.61,21.739,30.417,-5.6328
17086.0,110.61,21.739,29.417,-7.6328
17096.0,109.61,20.739,25.417,-8.6328
17106.0,107.61,19.739,24.417,-8.6328
17116.0,102.61,18.739,20.417,-10.633
17126.0,97.611,17.739,16.417,-7.6328
17136.0,92.611,15.739,14.417,-12.633
17146.0,92.611,15.739,13.417,-13.633
17155.0,83.611,13.739,13.417,-13.633
17165.0,83.611,13.739,10.417,-15.633
17175.0,79.611,10.739,10.417,-15.633
17185.0,79.611,10.739,10.417,-15.633
17195.0,76.611,9.7391,10.417,-14.633
17205.0,76.611,9.7391,11.417,-14.633
17215.0,71.611,8.7391,12.417,-14.633
17225.0,71.611,8.7391,15.417,-13.633
17235.0,65.611,6.7391,17.417,-13.633
17244.0,65.611,6.7391,18.417,-12.633
17254.0,58.611,4.7391,18.417,-12.633
17264.0,58.611,4.7391,19.417,-12.633
17274.0,49.611,1.7391,18.417,-12.633
17284.0,49.611,1.7391,17.417,-12.633
17294.0,45.611,-0.26088,18.417,-12.633
17304.0,40.611,-1.2609,17.417,-12.633
17314.0,35.611,-2.2609,16.417,-13.633
17324.0,31.611,-4.2609,14.417,-14.633
17333.0,26.611,-5.2609,14.417,-15.633
17343.0,22.611,-6.2609,14.417,-15.633
17353.0,17.611,-7.2609,16.417,-14.633
17363.0,14.611,-9.2609,17.417,-14.633
17373.0,13.611,-9.2609,21.417,-12.633
17383.0,16.611,-7.2609,27.417,-9.6328
17393.0,31.611,-2.2609,37.417,-6.6328
17403.0,52.611,3.7391,45.417,-0.63281
17413.0,76.611,9.7391,54.417,3.3672
17422.0,95.611,15.739,58.417,5.3672
17432.0,112.61,17.739,57.417,5.3672
17442.0,120.61,19.739,54.417,5.3672
17452.0,128.61,20.739,49.417,2.3672
17462.0,133.61,21.739,44.417,-0.63281
17472.0,136.61,21.739,41.417,-0.63281
17482.0,138.61,22.739,35.417,-2.6328
17492.0,138.61,21.739,34.417,-2.6328
17501.0,136.61,19.739,34.417,-2.6328
17511.0,133.61,18.739,31.417,-4.6328
17521.0,129.61,17.739,31.417,-4.6328
17531.0,123.61,15.739,28.417,-5.6328
17541.0,120.61,13.739,28.417,-5.6328
17551.0,116.61,12.739,22.417,-7.6328
17561.0,113.61,12.739,22.417,-7.6328
17571.0,108.61,10.739,16.417,-11.633
17581.0,106.61,9.7391,16.417,-11.633
17590.0,105.61,8.7391,17.417,-10.633
17600.0,103.61,8.7391,17.417,-10.633
17610.0,101.61,8.7391,21.417,-10.633
17620.0,99.611,7.7391,21.417,-10.633
17630.0,96.611,5.7391,20.417,-10.633
17640.0,93.611,4.7391,20.417,-10.633
17650.0,90.611,3.7391,22.417,-9.6328
17660.0,86.611,1.7391,22.417,-9.6328
17670.0,82.611,1.7391,25.417,-7.6328
17679.0,78.611,0.73912,25.417,-7.6328
17689.0,73.611,-1.2609,28.417,-7.6328
17699.0,69.611,-2.2609,25.417,-7.6328
17709.0,64.611,-3.2609,26.417,-8.6328
17719.0,60.611,-5.2609,23.417,-9.6328
17729.0,57.611,-6.2609,22.417,-8.6328
17739.0,53.611,-7.2609,20.417,-9.6328
17749.0,49.611,-8.2609,22.417,-12.633
17759.0,45.611,-10.261,22.417,-10.633
17768.0,45.611,-8.2609,26.417,-8.6328
17778.0,54.611,-5.2609,33.417,-5.6328
17788.0,72.611,0.73912,42.417,-2.6328
17798.0,97.611,7.7391,51.417,1.3672
17808.0,119.61,14.739,59.417,6.3672
17818.0,137.61,17.739,66.417,9.3672
17828.0,150.61,21.739,70.417,11.367
17838.0,157.61,22.739,70.417,13.367
17847.0,164.61,23.739,67.417,11.367
17857.0,169.61,24.739,62.417,10.367
17867.0,173.61,25.739,58.417,8.3672
17877.0,173.61,25.739,54.417,7.3672
17887.0,180.61,26.739,52.417,7.3672
17897.0,180.61,26.739,51.417,6.3672
17907.0,176.61,22.739,48.417,5.3672
17917.0,176.61,22.739,46.417,6.3672
17927.0,165.61,18.739,44.417,4.3672
17936.0,165.61,18.739,42.417,3.3672
17946.0,156.61,16.739,43.417,3.3672
17956.0,156.61,16.739,40.417,3.3672
17966.0,148.61,14.739,40.417,2.3672
17976.0,148.61,14.739,39.417,2.3672
17986.0,141.61,11.739,40.417,2.3672
17996.0,141.61,11.739,41.417,2.3672
18006.0,133.61,8.7391,41.417,2.3672
18016.0,133.61,8.7391,40.417,1.3672
18025.0,129.61,7.7391,42.417,1.3672
18035.0,126.61,6.7391,44.417,1.3672
18045.0,122.61,5.7391,43.417,3.3672
18055.0,119.61,3.7391,44.417,3.3672
18065.0,114.61,2.7391,46.417,3.3672
18075.0,110.61,1.7391,49.417,6.3672
18085.0,107.61,1.7391,50.417,6.3672
18095.0,102.61,0.73912,49.417,7.3672
18105.0,95.611,-1.2609,51.417,7.3672
18114.0,90.611,-3.2609,54.417,8.3672
18124.0,85.611,-4.2609,54.417,8.3672
18134.0,79.611,-6.2609,55.417,8.3672
18144.0,76.611,-6.2609,55.417,8.3672
18154.0,70.611,-7.2609,54.417,7.3672
18164.0,65.611,-7.2609,51.417,7.3672
18174.0,60.611,-7.2609,53.417,7.3672
18184.0,62.611,-5.2609,59.417,8.3672
18193.0,75.611,-0.26088,67.417,12.367
18203.0,93.611,5.7391,74.417,16.367
18213.0,116.61,12.739,82.417,19.367
18223.0,138.61,17.739,88.417,23.367
18233.0,154.61,21.739,88.417,25.367
18243.0,164.61,24.739,85.417,24.367
18253.0,169.61,25.739,80.417,20.367
18263.0,174.61,26.739,74.417,19.367
18273.0,177.61,27.739,68.417,16.367
18282.0,183.61,29.739,66.417,16.367
18292.0,184.61,28.739,64.417,16.367
18302.0,186.61,30.739,64.417,17.367
18312.0,186.61,31.739,62.417,15.367
18322.0,184.61,29.739,58.417,14.367
18332.0,181.61,28.739,55.417,12.367
18342.0,178.61,28.739,51.417,11.367
18352.0,174.61,27.739,49.417,9.3672
18362.0,171.61,27.739,47.417,8.3672
18371.0,165.61,25.739,44.417,7.3672
18381.0,161.61,25.739,41.417,5.3672
18391.0,156.61,24.739,38.417,3.3672
18401.0,152.61,22.739,37.417,4.3672
18411.0,147.61,20.739,39.417,3.3672
18421.0,141.61,19.739,41.417,4.3672
18431.0,137.61,17.739,43.417,5.3672
18441.0,133.61,16.739,49.417,7.3672
18451.0,129.61,15.739,50.417,8.3672
18460.0,126.61,13.739,54.417,9.3672
18470.0,124.61,12.739,57.417,10.367
18480.0,120.61,12.739,58.417,11.367
18490.0,117.61,10.739,61.417,13.367
18500.0,115.61,9.7391,60.417,13.367
18510.0,115.61,9.7391,61.417,12.367
18520.0,112.61,8.7391,60.417,12.367
18530.0,108.61,7.7391,60.417,12.367
18539.0,103.61,5.7391,60.417,11.367
18549.0,97.611,3.7391,57.417,10.367
18559.0,92.611,1.7391,57.417,10.367
18569.0,84.611,-0.26088,57.417,10.367
18579.0,81.611,-1.2609,57.417,11.367
18589.0,78.611,-1.2609,57.417,11.367
18599.0,82.611,-1.2609,73.417,18.367
18609.0,82.611,-1.2609,73.417,18.367
18619.0,105.61,5.7391,96.417,27.367
18628.0,105.61,5.7391,96.417,27.367
18638.0,121.61,6.7391,103.42,32.367
18648.0,121.61,6.7391,103.42,32.367
18658.0,118.61,1.7391,95.417,28.367
18668.0,118.61,1.7391,95.417,28.367
18678.0,103.61,-6.2609,75.417,19.367
18688.0,103.61,-6.2609,75.417,19.367
18698.0,89.611,-12.261,66.417,18.367
18708.0,89.611,-12.261,66.417,18.367
18717.0,79.611,-15.261,61.417,14.367
18727.0,79.611,-15.261,61.417,14.367
18737.0,75.611,-16.261,54.417,12.367
18747.0,70.611,-17.261,54.417,12.367
18757.0,66.611,-19.261,52.417,11.367
18767.0,65.611,-19.261,52.417,11.367
18777.0,61.611,-19.261,52.417,10.367
18787.0,58.611,-20.261,51.417,10.367
18797.0,59.611,-19.261,49.417,8.3672
18806.0,58.611,-19.261,48.417,7.3672
18816.0,56.611,-19.261,46.417,6.3672
18826.0,50.611,-21.261,44.417,5.3672
18836.0,43.611,-25.261,45.417,5.3672
18846.0,36.611,-28.261,46.417,5.3672
18856.0,27.611,-32.261,49.417,6.3672
18866.0,19.611,-37.261,50.417,7.3672
18876.0,9.6107,-42.261,51.417,6.3672
18885.0,-1.3893,-46.261,48.417,6.3672
18895.0,-4.3893,-49.261,49.417,6.3672
18905.0,-10.389,-51.261,49.417,5.3672
18915.0,-12.389,-52.261,49.417,5.3672
18925.0,-10.389,-51.261,49.417,6.3672
18935.0,-9.3893,-52.261,50.417,6.3672
18945.0,-7.3893,-53.261,48.417,5.3672
18955.0,-6.3893,-56.261,47.417,4.3672
18965.0,-6.3893,-60.261,45.417,3.3672
18974.0,-6.3893,-65.261,44.417,2.3672
18984.0,-7.3893,-71.261,45.417,3.3672
18994.0,-6.3893,-76.261,44.417,2.3672
19004.0,-5.3893,-79.261,45.417,3.3672
19014.0,-4.3893,-83.261,52.417,5.3672
19024.0,6.6107,-84.261,62.417,9.3672
19034.0,21.611,-84.261,70.417,12.367
19044.0,38.611,-82.261,79.417,16.367
19054.0,54.611,-79.261,83.417,19.367
19063.0,64.611,-79.261,84.417,20.367
19073.0,67.611,-80.261,83.417,20.367
19083.0,66.611,-83.261,77.417,18.367
19093.0,59.611,-85.261,72.417,15.367
19103.0,50.611,-89.261,65.417,13.367
19113.0,42.611,-91.261,58.417,11.367
19123.0,32.611,-92.261,57.417,10.367
19133.0,25.611,-93.261,52.417,9.3672
19143.0,19.611,-94.261,53.417,8.3672
19152.0,13.611,-93.261,54.417,9.3672
19162.0,7.6107,-95.261,55.417,10.367
19172.0,2.6107,-94.261,58.417,10.367
19182.0,-0.38927,-94.261,58.417,10.367
19192.0,-7.3893,-94.261,57.417,10.367
19202.0,-11.389,-94.261,58.417,10.367
19212.0,-15.389,-94.261,54.417,9.3672
19222.0,-18.389,-94.261,53.417,8.3672
19231.0,-24.389,-94.261,52.417,6.3672
19241.0,-27.389,-94.261,47.417,5.3672
19251.0,-32.389,-94.261,45.417,2.3672
19261.0,-35.389,-94.261,47.417,3.3672
19271.0,-38.389,-94.261,45.417,2.3672
19281.0,-43.389,-94.261,45.417,2.3672
19291.0,-46.389,-94.261,45.417,2.3672
19301.0,-51.389,-93.261,44.417,1.3672
19311.0,-55.389,-94.261,45.417,2.3672
19320.0,-55.389,-94.261,47.417,3.3672
19330.0,-64.389,-95.261,47.417,5.3672
19340.0,-64.389,-95.261,47.417,2.3672
19350.0,-73.389,-96.261,46.417,2.3672
19360.0,-73.389,-96.261,45.417,1.3672
19370.0,-81.389,-97.261,42.417,2.3672
19380.0,-81.389,-97.261,40.417,0.36719
19390.0,-89.389,-98.261,39.417,-1.6328
19400.0,-89.389,-98.261,36.417,-1.6328
19409.0,-96.389,-99.261,35.417,-1.6328
19419.0,-96.389,-99.261,43.417,0.36719
19429.0,-93.389,-96.261,51.417,3.3672
19439.0,-93.389,-96.261,62.417,8.3672
19449.0,-56.389,-84.261,74.417,14.367
19459.0,-56.389,-84.261,82.417,18.367
19469.0,-35.389,-78.261,88.417,21.367
19479.0,-15.389,-72.261,89.417,21.367
19489.0,-2.3893,-70.261,83.417,20.367
19498.0,2.6107,-68.261,83.417,20.367
19508.0,5.6107,-68.261,69.417,13.367
19518.0,4.6107,-70.261,69.417,13.367
19528.0,2.6107,-68.261,58.417,9.3672
19538.0,-1.3893,-70.261,58.417,9.3672
19548.0,-4.3893,-70.261,49.417,6.3672
19558.0,-7.3893,-71.261,49.417,6.3672
19568.0,-12.389,-72.261,46.417,4.3672
19577.0,-17.389,-73.261,46.417,4.3672
19587.0,-22.389,-74.261,43.417,2.3672
19597.0,-27.389,-76.261,43.417,2.3672
19607.0,-29.389,-77.261,36.417,0.36719
19617.0,-35.389,-78.261,36.417,0.36719
19627.0,-38.389,-78.261,35.417,-1.6328
19637.0,-42.389,-80.261,35.417,-1.6328
19647.0,-45.389,-80.261,33.417,-2.6328
19657.0,-48.389,-81.261,33.417,-2.6328
19666.0,-52.389,-82.261,31.417,-3.6328
19676.0,-54.389,-83.261,31.417,-3.6328
19686.0,-58.389,-84.261,30.417,-4.6328
19696.0,-59.389,-83.261,30.417,-4.6328
19706.0,-63.389,-84.261,30.417,-3.6328
19716.0,-67.389,-85.261,31.417,-3.6328
19726.0,-71.389,-86.261,30.417,-4.6328
19736.0,-75.389,-87.261,30.417,-2.6328
19746.0,-80.389,-89.261,30.417,-5.6328
19755.0,-84.389,-90.261,28.417,-6.6328
19765.0,-89.389,-90.261,25.417,-8.6328
19775.0,-94.389,-91.261,23.417,-9.6328
19785.0,-99.389,-91.261,20.417,-10.633
19795.0,-103.39,-93.261,19.417,-11.633
19805.0,-108.39,-94.261,18.417,-11.633
19815.0,-111.39,-95.261,16.417,-11.633
19825.0,-116.39,-95.261,20.417,-10.633
19835.0,-119.39,-94.261,22.417,-10.633
19844.0,-113.39,-93.261,28.417,-8.6328
19854.0,-100.39,-88.261,33.417,-5.6328
19864.0,-78.389,-84.261,41.417,-2.6328
19874.0,-56.389,-77.261,47.417,0.36719
19884.0,-39.389,-73.261,52.417,2.3672
19894.0,-27.389,-70.261,53.417,3.3672
19904.0,-18.389,-69.261,51.417,3.3672
19914.0,-15.389,-68.261,47.417,1.3672
19923.0,-13.389,-68.261,42.417,0.36719
19933.0,-13.389,-68.261,37.417,-2.6328
19943.0,-13.389,-67.261,34.417,-2.6328
19953.0,-16.389,-68.261,32.417,-4.6328
19963.0,-18.389,-69.261,28.417,-4.6328
19973.0,-22.389,-69.261,25.417,-6.6328
19983.0,-28.389,-71.261,20.417,-10.633
19993.0,-32.389,-72.261,13.417,-12.633
20003.0,-39.389,-74.261,9.4173,-15.633
20012.0,-44.389,-75.261,2.4173,-18.633
20022.0,-47.389,-76.261,-2.5827,-20.633
20032.0,-50.389,-76.261,-5.5827,-22.633
20042.0,-54.389,-78.261,-8.5827,-25.633
20052.0,-54.389,-78.261,-10.583,-25.633
20062.0,-57.389,-78.261,-12.583,-27.633
20072.0,-57.389,-78.261,-11.583,-26.633
20082.0,-63.389,-79.261,-12.583,-27.633
20092.0,-63.389,-79.261,-11.583,-27.633
20101.0,-69.389,-81.261,-10.583,-26.633
20111.0,-69.389,-81.261,-9.5827,-27.633
20121.0,-77.389,-83.261,-11.583,-26.633
20131.0,-77.389,-83.261,-11.583,-26.633
20141.0,-84.389,-85.261,-10.583,-26.633
20151.0,-84.389,-85.261,-9.5827,-27.633
20161.0,-93.389,-86.261,-9.5827,-28.633
20171.0,-93.389,-86.261,-14.583,-27.633
20181.0,-98.389,-87.261,-15.583,-30.633
20190.0,-102.39,-89.261,-15.583,-30.633
20200.0,-107.39,-89.261,-18.583,-31.633
20210.0,-112.39,-91.261,-18.583,-32.633
20220.0,-115.39,-91.261,-20.583,-32.633
20230.0,-119.39,-92.261,-21.583,-34.633
20240.0,-123.39,-92.261,-21.583,-34.633
20250.0,-124.39,-91.261,-17.583,-32.633
20260.0,-114.39,-87.261,-9.5827,-28.633
20269.0,-96.389,-81.261,1.4173,-24.633
20279.0,-73.389,-74.261,10.417,-20.633
20289.0,-51.389,-68.261,16.417,-17.633
20299.0,-34.389,-64.261,17.417,-16.633
20309.0,-22.389,-62.261,15.417,-16.633
20319.0,-17.389,-61.261,11.417,-17.633
20329.0,-14.389,-60.261,6.4173,-20.633
20339.0,-11.389,-61.261,1.4173,-22.633
20349.0,-12.389,-59.261,-4.5827,-25.633
20358.0,-15.389,-60.261,-9.5827,-26.633
20368.0,-17.389,-62.261,-13.583,-29.633
20378.0,-22.389,-62.261,-16.583,-29.633
20388.0,-28.389,-64.261,-16.583,-30.633
20398.0,-33.389,-66.261,-20.583,-31.633
20408.0,-37.389,-66.261,-25.583,-34.633
20418.0,-42.389,-68.261,-26.583,-34.633
20428.0,-47.389,-69.261,-29.583,-36.633
20438.0,-50.389,-70.261,-31.583,-38.633
20447.0,-53.389,-71.261,-32.583,-38.633
20457.0,-55.389,-71.261,-32.583,-38.633
20467.0,-57.389,-72.261,-32.583,-39.633
20477.0,-61.389,-72.261,-30.583,-37.633
20487.0,-62.389,-72.261,-28.583,-38.633
20497.0,-65.389,-73.261,-29.583,-38.633
20507.0,-69.389,-75.261,-29.583,-38.633
20517.0,-73.389,-75.261,-28.583,-38.633
20527.0,-78.389,-77.261,-28.583,-38.633
20536.0,-84.389,-78.261,-27.583,-39.633
20546.0,-89.389,-80.261,-27.583,-39.633
20556.0,-94.389,-81.261,-30.583,-40.633
20566.0,-98.389,-82.261,-30.583,-40.633
20576.0,-103.39,-83.261,-30.583,-39.633
20586.0,-110.39,-84.261,-30.583,-39.633
20596.0,-116.39,-86.261,-28.583,-40.633
20606.0,-120.39,-87.261,-28.583,-40.633
20615.0,-126.39,-88.261,-31.583,-41.633
20625.0,-133.39,-89.261,-31.583,-41.633
20635.0,-139.39,-90.261,-30.583,-41.633
20645.0,-139.39,-89.261,-30.583,-41.633
20655.0,-135.39,-86.261,-21.583,-39.633
20665.0,-119.39,-79.261,-21.583,-39.633
20675.0,-97.389,-73.261,-0.58272,-28.633
20685.0,-75.389,-68.261,-0.58272,-28.633
20695.0,-56.389,-62.261,11.417,-23.633
20704.0,-42.389,-58.261,11.417,-23.633
20714.0,-35.389,-57.261,10.417,-23.633
20724.0,-30.389,-56.261,7.4173,-24.633
20734.0,-29.389,-55.261,1.4173,-26.633
20744.0,-27.389,-54.261,-5.5827,-27.633
20754.0,-29.389,-55.261,-7.5827,-28.633
20764.0,-29.389,-55.261,-7.5827,-29.633
20774.0,-33.389,-54.261,-10.583,-30.633
20784.0,-33.389,-54.261,-13.583,-29.633
20793.0,-41.389,-57.261,-17.583,-34.633
20803.0,-41.389,-57.261,-22.583,-35.633
20813.0,-49.389,-58.261,-27.583,-38.633
20823.0,-49.389,-58.261,-31.583,-39.633
20833.0,-55.389,-58.261,-32.583,-40.633
20843.0,-55.389,-58.261,-33.583,-40.633
20853.0,-58.389,-59.261,-34.583,-41.633
20863.0,-58.389,-59.261,-34.583,-40.633
20872.0,-61.389,-58.261,-33.583,-42.633
20882.0,-61.389,-58.261,-35.583,-42.633
20892.0,-64.389,-59.261,-33.583,-42.633
20902.0,-64.389,-59.261,-35.583,-42.633
20912.0,-68.389,-60.261,-31.583,-41.633
20922.0,-70.389,-61.261,-30.583,-41.633
20932.0,-73.389,-61.261,-29.583,-40.633
20942.0,-76.389,-62.261,-27.583,-40.633
20952.0,-79.389,-62.261,-28.583,-41.633
20961.0,-82.389,-63.261,-30.583,-41.633
20971.0,-87.389,-64.261,-32.583,-42.633
20981.0,-91.389,-65.261,-35.583,-43.633
20991.0,-94.389,-65.261,-37.583,-44.633
21001.0,-99.389,-67.261,-40.583,-45.633
21011.0,-102.39,-68.261,-39.583,-45.633
21021.0,-108.39,-69.261,-41.583,-44.633
21031.0,-113.39,-70.261,-39.583,-45.633
21041.0,-116.39,-70.261,-41.583,-46.633
21050.0,-118.39,-71.261,-38.583,-14.633
21060.0,-112.39,-67.261,-33.583,-13.633
21070.0,-97.389,-63.261,-27.583,-10.633
21080.0,-75.389,-55.261,-19.583,-7.6328
21090.0,-51.389,-49.261,-10.583,-2.6328
21100.0,-29.389,-43.261,-3.5827,-0.63281
21110.0,-15.389,-39.261,-3.5827,1.3672
21120.0,-7.3893,-38.261,-7.5827,-0.63281
21130.0,-2.3893,-37.261,-11.583,-3.6328
21139.0,1.6107,-36.261,-16.583,-4.6328
21149.0,2.6107,-36.261,-21.583,-6.6328
21159.0,2.6107,-37.261,-26.583,-7.6328
21169.0,1.6107,-37.261,-30.583,-9.6328
21179.0,-1.3893,-39.261,-33.583,-11.633
21189.0,-6.3893,-40.261,-34.583,-11.633
21199.0,-12.389,-43.261,-37.583,-12.633
21209.0,-17.389,-44.261,-40.583,-13.633
21218.0,-22.389,-46.261,-41.583,-14.633
21228.0,-25.389,-46.261,-43.583,-15.633
21238.0,-28.389,-47.261,-45.583,-15.633
21248.0,-31.389,-47.261,-43.583,-16.633
21258.0,-32.389,-48.261,-43.583,-16.633
21268.0,-35.389,-49.261,-44.583,-15.633
21278.0,-37.389,-50.261,-43.583,-16.633
21288.0,-40.389,-51.261,-43.583,-15.633
21298.0,-42.389,-52.261,-41.583,-15.633
21307.0,-46.389,-53.261,-43.583,-15.633
21317.0,-48.389,-54.261,-37.583,-14.633
21327.0,-52.389,-56.261,-38.583,-15.633
21337.0,-56.389,-57.261,-38.583,-14.633
21347.0,-60.389,-58.261,-39.583,-14.633
21357.0,-65.389,-60.261,-39.583,-14.633
21367.0,-69.389,-62.261,-40.583,-15.633
21377.0,-72.389,-63.261,-40.583,-15.633
21387.0,-78.389,-64.261,-42.583,-15.633
21396.0,-81.389,-64.261,-44.583,-16.633
21406.0,-86.389,-66.261,-44.583,-18.633
21416.0,-90.389,-67.261,-44.583,-17.633
21426.0,-95.389,-68.261,-41.583,-15.633
21436.0,-98.389,-69.261,-41.583,-17.633
21446.0,-99.389,-69.261,-39.583,-16.633
21456.0,-97.389,-67.261,-38.583,-16.633
21466.0,-82.389,-63.261,-33.583,-14.633
21476.0,-61.389,-56.261,-25.583,-10.633
21485.0,-37.389,-50.261,-14.583,-6.6328
21495.0,-37.389,-50.261,-7.5827,-1.6328
21505.0,0.61073,-39.261,-4.5827,0.36719
21515.0,0.61073,-39.261,-6.5827,-1.6328
21525.0,14.611,-35.261,-12.583,-2.6328
21535.0,14.611,-35.261,-16.583,-3.6328
21545.0,21.611,-33.261,-23.583,-6.6328
21555.0,21.611,-33.261,-23.583,-6.6328
21564.0,21.611,-34.261,-33.583,-10.633
21574.0,21.611,-34.261,-33.583,-10.633
21584.0,17.611,-36.261,-40.583,-13.633
21594.0,17.611,-36.261,-40.583,-13.633
21604.0,10.611,-38.261,-45.583,-15.633
21614.0,10.611,-38.261,-45.583,-15.633
21624.0,4.6107,-39.261,-50.583,-17.633
21634.0,4.6107,-39.261,-50.583,-17.633
21644.0,3.6107,-37.261,-49.583,-18.633
21653.0,2.6107,-38.261,-49.583,-18.633
21663.0,1.6107,-38.261,-48.583,-18.633
21673.0,1.6107,-38.261,-48.583,-18.633
21683.0,0.61073,-38.261,-46.583,-18.633
21693.0,-1.3893,-38.261,-46.583,-18.633
21703.0,-2.3893,-38.261,-47.583,-18.633
21713.0,-5.3893,-39.261,-47.583,-18.633
21723.0,-7.3893,-39.261,-44.583,-18.633
21733.0,-9.3893,-39.261,-44.583,-18.633
21742.0,-14.389,-40.261,-43.583,-18.633
21752.0,-16.389,-42.261,-45.583,-18.633
21762.0,-21.389,-42.261,-45.583,-18.633
21772.0,-25.389,-43.261,-46.583,-18.633
21782.0,-28.389,-44.261,-46.583,-17.633
21792.0,-31.389,-43.261,-46.583,-18.633
21802.0,-37.389,-44.261,-47.583,-19.633
21812.0,-40.389,-45.261,-47.583,-21.633
21822.0,-43.389,-46.261,-47.583,-20.633
21831.0,-46.389,-46.261,-47.583,-20.633
21841.0,-49.389,-47.261,-45.583,-20.633
21851.0,-51.389,-47.261,-44.583,-19.633
21861.0,-48.389,-44.261,-40.583,-18.633
21871.0,-34.389,-39.261,-36.583,-16.633
21881.0,-11.389,-31.261,-30.583,-13.633
21891.0,12.611,-23.261,-24.583,-11.633
21901.0,36.611,-17.261,-18.583,-8.6328
21910.0,53.611,-12.261,-18.583,-7.6328
21920.0,64.611,-9.2609,-23.583,-9.6328
21930.0,71.611,-7.2609,-29.583,-10.633
21940.0,77.611,-5.2609,-33.583,-12.633
21950.0,82.611,-4.2609,-38.583,-14.633
21960.0,85.611,-3.2609,-42.583,-16.633
21970.0,89.611,-3.2609,-42.583,-14.633
21980.0,90.611,-3.2609,-40.583,-15.633
21990.0,90.611,-3.2609,-42.583,-15.633
21999.0,86.611,-3.2609,-44.583,-15.633
22009.0,81.611,-5.2609,-45.583,-17.633
22019.0,76.611,-6.2609,-49.583,-19.633
22029.0,72.611,-6.2609,-54.583,-20.633
22039.0,67.611,-7.2609,-59.583,-24.633
22049.0,64.611,-8.2609,-62.583,-24.633
22059.0,62.611,-9.2609,-63.583,-25.633
22069.0,59.611,-9.2609,-64.583,-26.633
22079.0,58.611,-9.2609,-64.583,-26.633
22088.0,56.611,-9.2609,-63.583,-26.633
22098.0,54.611,-10.261,-63.583,-26.633
22108.0,51.611,-10.261,-60.583,-25.633
22118.0,50.611,-10.261,-59.583,-24.633
22128.0,46.611,-11.261,-59.583,-25.633
22138.0,43.611,-12.261,-59.583,-26.633
22148.0,40.611,-12.261,-61.583,-26.633
22158.0,36.611,-13.261,-62.583,-26.633
22168.0,33.611,-13.261,-60.583,-25.633
22177.0,27.611,-15.261,-59.583,-26.633
22187.0,22.611,-16.261,-60.583,-26.633
22197.0,16.611,-17.261,-59.583,-27.633
22207.0,16.611,-17.261,-59.583,-25.633
22217.0,6.6107,-20.261,-57.583,-25.633
22227.0,6.6107,-20.261,-58.583,-25.633
22237.0,-3.3893,-22.261,-57.583,-24.633
22247.0,-3.3893,-22.261,-54.583,-24.633
22256.0,-9.3893,-23.261,-51.583,-22.633
22266.0,-9.3893,-23.261,-47.583,-20.633
22276.0,8.6107,-14.261,-39.583,-18.633
22286.0,8.6107,-14.261,-33.583,-15.633
22296.0,55.611,0.73912,-27.583,-12.633
22306.0,55.611,0.73912,-24.583,-10.633
22316.0,89.611,10.739,-19.583,-7.6328
22326.0,89.611,10.739,-20.583,-6.6328
22336.0,106.61,14.739,-23.583,-7.6328
22345.0,106.61,14.739,-29.583,-10.633
22355.0,111.61,15.739,-34.583,-11.633
22365.0,118.61,16.739,-38.583,-14.633
22375.0,123.61,18.739,-45.583,-15.633
22385.0,125.61,19.739,-50.583,-17.633
22395.0,125.61,18.739,-55.583,-19.633
22405.0,124.61,17.739,-60.583,-21.633
22415.0,120.61,17.739,-62.583,-22.633
22425.0,115.61,15.739,-64.583,-23.633
22434.0,110.61,14.739,-68.583,-26.633
22444.0,105.61,13.739,-69.583,-25.633
22454.0,100.61,12.739,-71.583,-26.633
22464.0,96.611,11.739,-70.583,-27.633
22474.0,90.611,11.739,-73.583,-28.633
22484.0,86.611,11.739,-73.583,-28.633
22494.0,84.611,10.739,-75.583,-31.633
22504.0,79.611,9.7391,-75.583,-31.633
22514.0,76.611,7.7391,-72.583,-29.633
22523.0,74.611,7.7391,-72.583,-29.633
22533.0,69.611,6.7391,-66.583,-27.633
22543.0,65.611,4.7391,-66.583,-27.633
22553.0,63.611,3.7391,-62.583,-27.633
22563.0,59.611,1.7391,-62.583,-27.633
22573.0,54.611,-0.26088,-65.583,-27.633
22583.0,50.611,-0.26088,-65.583,-27.633
22593.0,45.611,-2.2609,-67.583,-27.633
22602.0,38.611,-4.2609,-67.583,-27.633
22612.0,34.611,-6.2609,-62.583,-25.633
22622.0,28.611,-8.2609,-62.583,-25.633
22632.0,22.611,-10.261,-57.583,-24.633
22642.0,16.611,-12.261,-57.583,-24.633
22652.0,11.611,-14.261,-56.583,-25.633
22662.0,7.6107,-15.261,-56.583,-25.633
22672.0,1.6107,-16.261,-60.583,-27.633
22682.0,-3.3893,-18.261,-60.583,-27.633
22691.0,-2.3893,-17.261,-56.583,-26.633
22701.0,7.6107,-13.261,-48.583,-22.633
22711.0,26.611,-7.2609,-40.583,-17.633
22721.0,49.611,-0.26088,-30.583,-12.633
22731.0,70.611,5.7391,-20.583,-9.6328
22741.0,86.611,10.739,-14.583,-5.6328
22751.0,98.611,12.739,-12.583,-3.6328
22761.0,107.61,14.739,-12.583,-3.6328
22771.0,114.61,16.739,-18.583,-6.6328
22780.0,120.61,16.739,-25.583,-8.6328
22790.0,126.61,19.739,-29.583,-9.6328
22800.0,130.61,17.739,-33.583,-10.633
22810.0,130.61,17.739,-37.583,-12.633
22820.0,130.61,16.739,-42.583,-14.633
22830.0,129.61,16.739,-44.583,-16.633
22840.0,123.61,13.739,-46.583,-16.633
22850.0,117.61,11.739,-49.583,-19.633
22860.0,113.61,9.7391,-51.583,-19.633
22869.0,107.61,6.7391,-54.583,-21.633
22879.0,102.61,5.7391,-58.583,-24.633
22889.0,99.611,3.7391,-62.583,-24.633
22899.0,96.611,2.7391,-63.583,-26.633
22909.0,96.611,1.7391,-65.583,-26.633
22919.0,96.611,1.7391,-66.583,-27.633
22929.0,92.611,0.73912,-63.583,-27.633
22939.0,92.611,0.73912,-62.583,-26.633
22948.0,90.611,-2.2609,-60.583,-26.633
22958.0,90.611,-2.2609,-58.583,-27.633
22968.0,80.611,-6.2609,-60.583,-26.633
22978.0,80.611,-6.2609,-62.583,-27.633
22988.0,73.611,-9.2609,-63.583,-27.633
22998.0,73.611,-9.2609,-60.583,-29.633
23008.0,64.611,-12.261,-63.583,-28.633
23018.0,64.611,-12.261,-61.583,-29.633
23028.0,54.611,-16.261,-62.583,-29.633
23037.0,54.611,-16.261,-64.583,-30.633
23047.0,43.611,-19.261,-63.583,-31.633
23057.0,43.611,-19.261,-64.583,-31.633
23067.0,32.611,-23.261,-67.583,-34.633
23077.0,32.611,-23.261,-72.583,-35.633
23087.0,25.611,-25.261,-73.583,-36.633
23097.0,17.611,-28.261,-77.583,-38.633
23107.0,8.6107,-29.261,-79.583,-38.633
23117.0,3.6107,-29.261,-78.583,-38.633
23126.0,2.6107,-30.261,-76.583,-38.633
23136.0,6.6107,-29.261,-71.583,-36.633
23146.0,20.611,-25.261,-69.583,-36.633
23156.0,43.611,-18.261,-66.583,-33.633
23166.0,68.611,-11.261,-61.583,-31.633
23176.0,89.611,-6.2609,-61.583,-31.633
23186.0,106.61,-4.2609,-64.583,-31.633
23196.0,118.61,-2.2609,-66.583,-32.633
23206.0,124.61,-1.2609,-71.583,-34.633
23215.0,128.61,-1.2609,-78.583,-36.633
23225.0,131.61,-2.2609,-86.583,-39.633
23235.0,133.61,-2.2609,-92.583,-42.633
23245.0,130.61,-4.2609,-101.58,-47.633
23255.0,127.61,-7.2609,-106.58,-50.633
23265.0,123.61,-10.261,-110.58,-51.633
23275.0,119.61,-13.261,-113.58,-53.633
23285.0,111.61,-16.261,-116.58,-54.633
23294.0,106.61,-19.261,-119.58,-56.633
23304.0,101.61,-19.261,-124.58,-58.633
23314.0,98.611,-21.261,-126.58,-59.633
23324.0,97.611,-22.261,-128.58,-60.633
23334.0,95.611,-22.261,-129.58,-61.633
23344.0,95.611,-22.261,-128.58,-62.633
23354.0,94.611,-22.261,-132.58,-65.633
23364.0,94.611,-22.261,-132.58,-65.633
23374.0,95.611,-23.261,-132.58,-65.633
23383.0,93.611,-24.261,-132.58,-66.633
23393.0,94.611,-23.261,-132.58,-66.633
23403.0,95.611,-23.261,-131.58,-65.633
23413.0,96.611,-23.261,-128.58,-64.633
23423.0,94.611,-23.261,-128.58,-64.633
23433.0,93.611,-23.261,-127.58,-64.633
23443.0,92.611,-23.261,-126.58,-65.633
23453.0,91.611,-23.261,-127.58,-65.633
23463.0,89.611,-22.261,-128.58,-66.633
23472.0,89.611,-22.261,-129.58,-67.633
23482.0,88.611,-22.261,-129.58,-69.633
23492.0,86.611,-22.261,-129.58,-69.633
23502.0,86.611,-21.261,-134.58,-69.633
23512.0,84.611,-20.261,-134.58,-70.633
23522.0,84.611,-20.261,-135.58,-70.633
23532.0,82.611,-19.261,-135.58,-70.633
23542.0,81.611,-19.261,-131.58,-69.633
23552.0,80.611,-17.261,-131.58,-69.633
23561.0,81.611,-15.261,-127.58,-69.633
23571.0,88.611,-11.261,-127.58,-69.633
23581.0,106.61,-4.2609,-122.58,-67.633
23591.0,132.61,3.7391,-122.58,-67.633
23601.0,158.61,11.739,-108.58,-60.633
23611.0,186.61,20.739,-108.58,-60.633
23621.0,204.61,25.739,-100.58,-55.633
23631.0,214.61,28.739,-100.58,-55.633
23640.0,222.61,31.739,-108.58,-58.633
23650.0,222.61,31.739,-108.58,-58.633
23660.0,231.61,34.739,-117.58,-61.633
23670.0,231.61,34.739,-117.58,-61.633
23680.0,232.61,35.739,-125.58,-64.633
23690.0,232.61,35.739,-125.58,-64.633
23700.0,228.61,34.739,-125.58,-63.633
23710.0,228.61,34.739,-125.58,-63.633
23720.0,219.61,33.739,-125.58,-63.633
23729.0,219.61,33.739,-126.58,-64.633
23739.0,210.61,32.739,-128.58,-65.633
23749.0,210.61,32.739,-128.58,-65.633
23759.0,205.61,31.739,-130.58,-66.633
23769.0,205.61,31.739,-129.58,-66.633
23779.0,199.61,29.739,-129.58,-68.633
23789.0,199.61,29.739,-129.58,-68.633
23799.0,197.61,29.739,-130.58,-68.633
23809.0,193.61,27.739,-125.58,-67.633
23818.0,190.61,26.739,-123.58,-66.633
23828.0,187.61,26.739,-120.58,-66.633
23838.0,183.61,25.739,-120.58,-65.633
23848.0,179.61,24.739,-117.58,-64.633
23858.0,174.61,22.739,-114.58,-64.633
23868.0,170.61,21.739,-113.58,-63.633
23878.0,165.61,20.739,-109.58,-63.633
23888.0,162.61,19.739,-108.58,-63.633
23898.0,158.61,18.739,-108.58,-63.633
23907.0,154.61,17.739,-108.58,-64.633
23917.0,149.61,16.739,-110.58,-65.633
23927.0,146.61,14.739,-110.58,-64.633
23937.0,141.61,14.739,-110.58,-64.633
23947.0,135.61,12.739,-108.58,-64.633
23957.0,131.61,11.739,-106.58,-63.633
23967.0,126.61,10.739,-104.58,-62.633
23977.0,121.61,9.7391,-103.58,-61.633
23986.0,120.61,9.7391,-102.58,-63.633
23996.0,117.61,8.7391,-102.58,-61.633
24006.0,120.61,10.739,-93.583,-60.633
24016.0,136.61,14.739,-85.583,-54.633
24026.0,157.61,22.739,-73.583,-50.633
24036.0,181.61,28.739,-65.583,-46.633
24046.0,199.61,33.739,-59.583,-44.633
24056.0,208.61,34.739,-61.583,-44.633
24066.0,216.61,37.739,-64.583,-45.633
24075.0,218.61,37.739,-69.583,-47.633
24085.0,218.61,37.739,-74.583,-48.633
24095.0,217.61,36.739,-78.583,-48.633
24105.0,214.61,36.739,-80.583,-51.633
24115.0,212.61,35.739,-85.583,-53.633
24125.0,207.61,33.739,-88.583,-54.633
24135.0,204.61,32.739,-90.583,-54.633
24145.0,199.61,30.739,-89.583,-54.633
24155.0,194.61,29.739,-91.583,-56.633
24164.0,192.61,29.739,-93.583,-56.633
24174.0,189.61,29.739,-92.583,-58.633
24184.0,189.61,29.739,-93.583,-57.633
24194.0,186.61,28.739,-92.583,-56.633
24204.0,184.61,27.739,-91.583,-56.633
24214.0,184.61,27.739,-91.583,-56.633
24224.0,181.61,26.739,-92.583,-58.633
24234.0,180.61,25.739,-92.583,-58.633
24244.0,176.61,25.739,-92.583,-57.633
24253.0,174.61,24.739,-90.583,-57.633
24263.0,170.61,23.739,-89.583,-57.633
24273.0,168.61,22.739,-86.583,-56.633
24283.0,164.61,22.739,-86.583,-56.633
24293.0,161.61,20.739,-86.583,-56.633
24303.0,158.61,21.739,-87.583,-57.633
24313.0,154.61,19.739,-87.583,-56.633
24323.0,151.61,18.739,-89.583,-58.633
24332.0,145.61,16.739,-91.583,-57.633
24342.0,141.61,15.739,-91.583,-58.633
24352.0,136.61,13.739,-91.583,-59.633
24362.0,130.61,12.739,-93.583,-60.633
24372.0,126.61,12.739,-94.583,-60.633
24382.0,126.61,12.739,-95.583,-61.633
24392.0,120.61,10.739,-96.583,-60.633
24402.0,120.61,10.739,-96.583,-61.633
24412.0,116.61,9.7391,-91.583,-60.633
24421.0,116.61,9.7391,-82.583,-56.633
24431.0,135.61,16.739,-75.583,-52.633
24441.0,135.61,16.739,-65.583,-49.633
24451.0,184.61,29.739,-60.583,-45.633
24461.0,184.61,29.739,-54.583,-42.633
24471.0,218.61,39.739,-52.583,-41.633
24481.0,218.61,39.739,-54.583,-41.633
24491.0,234.61,43.739,-59.583,-43.633
24501.0,234.61,43.739,-65.583,-44.633
24510.0,241.61,45.739,-70.583,-46.633
24520.0,247.61,46.739,-70.583,-46.633
24530.0,252.61,47.739,-77.583,-48.633
24540.0,253.61,47.739,-77.583,-48.633
24550.0,254.61,47.739,-85.583,-53.633
24560.0,255.61,48.739,-85.583,-53.633
24570.0,251.61,47.739,-94.583,-57.633
24580.0,247.61,46.739,-94.583,-57.633
24590.0,244.61,45.739,-101.58,-60.633
24599.0,240.61,43.739,-101.58,-60.633
24609.0,238.61,44.739,-107.58,-62.633
24619.0,237.61,43.739,-107.58,-62.633
24629.0,236.61,43.739,-105.58,-63.633
24639.0,235.61,42.739,-105.58,-63.633
24649.0,234.61,43.739,-108.58,-64.633
24659.0,233.61,43.739,-108.58,-64.633
24669.0,233.61,43.739,-113.58,-67.633
24678.0,232.61,43.739,-113.58,-67.633
24688.0,230.61,43.739,-112.58,-68.633
24698.0,227.61,43.739,-112.58,-68.633
24708.0,225.61,41.739,-112.58,-66.633
24718.0,223.61,41.739,-112.58,-66.633
24728.0,219.61,39.739,-114.58,-68.633
24738.0,216.61,39.739,-116.58,-68.633
24748.0,212.61,37.739,-116.58,-69.633
24758.0,209.61,37.739,-118.58,-70.633
24767.0,205.61,35.739,-120.58,-72.633
24777.0,201.61,35.739,-122.58,-71.633
24787.0,197.61,34.739,-122.58,-73.633
24797.0,194.61,33.739,-127.58,-76.633
24807.0,190.61,32.739,-127.58,-77.633
24817.0,189.61,32.739,-129.58,-79.633
24827.0,186.61,32.739,-129.58,-77.633
24837.0,187.61,32.739,-124.58,-76.633
24847.0,199.61,35.739,-118.58,-74.633
24856.0,221.61,42.739,-108.58,-68.633
24866.0,246.61,49.739,-101.58,-65.633
24876.0,271.61,56.739,-94.583,-62.633
24886.0,287.61,60.739,-91.583,-57.633
24896.0,301.61,63.739,-91.583,-56.633
24906.0,311.61,65.739,-95.583,-56.633
24916.0,322.61,68.739,-103.58,-61.633
24926.0,330.61,69.739,-111.58,-63.633
24936.0,338.61,70.739,-119.58,-66.633
24945.0,345.61,72.739,-123.58,-66.633
24955.0,349.61,72.739,-125.58,-68.633
24965.0,351.61,72.739,-126.58,-68.633
24975.0,351.61,71.739,-125.58,-68.633
24985.0,347.61,71.739,-127.58,-68.633
24995.0,343.61,69.739,-125.58,-68.633
25005.0,338.61,67.739,-128.58,-68.633
25015.0,334.61,65.739,-126.58,-69.633
25024.0,328.61,63.739,-125.58,-70.633
25034.0,325.61,63.739,-128.58,-71.633
25044.0,323.61,62.739,-126.58,-71.633
25054.0,321.61,62.739,-124.58,-70.633
25064.0,319.61,62.739,-124.58,-70.633
25074.0,318.61,60.739,-123.58,-69.633
25084.0,315.61,61.739,-121.58,-68.633
25094.0,315.61,61.739,-118.58,-68.633
25104.0,312.61,60.739,-116.58,-67.633
25113.0,312.61,60.739,-115.58,-66.633
25123.0,305.61,58.739,-113.58,-66.633
25133.0,305.61,58.739,-110.58,-64.633
25143.0,298.61,56.739,-108.58,-64.633
25153.0,298.61,56.739,-107.58,-63.633
25163.0,288.61,53.739,-104.58,-62.633
25173.0,288.61,53.739,-102.58,-62.633
25183.0,278.61,50.739,-100.58,-60.633
25193.0,278.61,50.739,-99.583,-60.633
25202.0,267.61,46.739,-97.583,-61.633
25212.0,267.61,46.739,-95.583,-58.633
25222.0,257.61,45.739,-94.583,-58.633
25232.0,257.61,45.739,-95.583,-58.633
25242.0,251.61,43.739,-96.583,-59.633
25252.0,246.61,42.739,-93.583,-59.633
25262.0,242.61,41.739,-86.583,-54.633
25272.0,245.61,43.739,-73.583,-49.633
25282.0,260.61,47.739,-61.583,-42.633
25291.0,282.61,53.739,-55.583,-40.633
25301.0,304.61,59.739,-55.583,-38.633
25311.0,325.61,63.739,-57.583,-38.633
25321.0,338.61,67.739,-63.583,-40.633
25331.0,349.61,69.739,-68.583,-43.633
25341.0,359.61,71.739,-76.583,-45.633
25351.0,367.61,72.739,-83.583,-47.633
25361.0,372.61,73.739,-89.583,-50.633
25370.0,377.61,74.739,-92.583,-51.633
25380.0,380.61,73.739,-100.58,-54.633
25390.0,380.61,72.739,-110.58,-58.633
25400.0,380.61,71.739,-115.58,-61.633
25410.0,376.61,69.739,-124.58,-64.633
25420.0,369.61,65.739,-133.58,-67.633
25430.0,361.61,63.739,-139.58,-68.633
25440.0,353.61,59.739,-142.58,-71.633
25450.0,345.61,58.739,-146.58,-73.633
25459.0,338.61,55.739,-149.58,-74.633
25469.0,331.61,53.739,-149.58,-74.633
25479.0,323.61,50.739,-150.58,-76.633
25489.0,316.61,47.739,-150.58,-76.633
25499.0,308.61,43.739,-152.58,-78.633
25509.0,300.61,40.739,-152.58,-78.633
25519.0,291.61,37.739,-159.58,-82.633
25529.0,280.61,32.739,-159.58,-82.633
25539.0,270.61,28.739,-167.58,-86.633
25548.0,260.61,25.739,-167.58,-86.633
25558.0,249.61,21.739,-172.58,-89.633
25568.0,240.61,18.739,-172.58,-89.633
25578.0,230.61,13.739,-171.58,-90.633
25588.0,220.61,9.7391,-171.58,-90.633
25598.0,210.61,7.7391,-175.58,-92.633
25608.0,199.61,3.7391,-175.58,-92.633
25618.0,190.61,0.73912,-178.58,-93.633
25628.0,181.61,-3.2609,-178.58,-93.633
25637.0,172.61,-7.2609,-179.58,-93.633
25647.0,164.61,-9.2609,-179.58,-93.633
25657.0,155.61,-12.261,-181.58,-95.633
25667.0,148.61,-14.261,-181.58,-95.633
25677.0,141.61,-18.261,-185.58,-97.633
25687.0,137.61,-19.261,-185.58,-97.633
25697.0,143.61,-16.261,-180.58,-94.633
25707.0,160.61,-11.261,-171.58,-91.633
25716.0,183.61,-5.2609,-165.58,-87.633
25726.0,208.61,0.73912,-161.58,-85.633
25736.0,227.61,4.7391,-162.58,-86.633
25746.0,239.61,7.7391,-162.58,-85.633
25756.0,250.61,8.7391,-168.58,-86.633
25766.0,259.61,9.7391,-176.58,-87.633
25776.0,268.61,10.739,-185.58,-93.633
25786.0,274.61,9.7391,-191.58,-96.633
25796.0,280.61,11.739,-199.58,-97.633
25805.0,285.61,11.739,-205.58,-99.633
25815.0,286.61,10.739,-212.58,-103.63
25825.0,286.61,10.739,-220.58,-106.63
25835.0,284.61,8.7391,-229.58,-109.63
25845.0,284.61,8.7391,-234.58,-113.63
25855.0,268.61,2.7391,-239.58,-116.63
25865.0,268.61,2.7391,-244.58,-118.63
25875.0,251.61,-3.2609,-248.58,-121.63
25885.0,251.61,-3.2609,-250.58,-122.63
25894.0,240.61,-5.2609,-253.58,-123.63
25904.0,240.61,-5.2609,-252.58,-125.63
25914.0,231.61,-9.2609,-253.58,-124.63
25924.0,231.61,-9.2609,-255.58,-126.63
25934.0,221.61,-14.261,-256.58,-127.63
25944.0,221.61,-14.261,-259.58,-128.63
25954.0,211.61,-16.261,-258.58,-128.63
25964.0,211.61,-16.261,-261.58,-129.63
25973.0,206.61,-18.261,-261.58,-131.63
25983.0,203.61,-19.261,-263.58,-131.63
25993.0,198.61,-20.261,-264.58,-131.63
26003.0,195.61,-21.261,-266.58,-133.63
26013.0,191.61,-21.261,-268.58,-135.63
26023.0,188.61,-22.261,-272.58,-136.63
26033.0,185.61,-21.261,-275.58,-139.63
26043.0,181.61,-24.261,-278.58,-140.63
26053.0,177.61,-24.261,-280.58,-142.63
26062.0,172.61,-26.261,-283.58,-144.63
26072.0,169.61,-27.261,-285.58,-145.63
26082.0,164.61,-28.261,-290.58,-148.63
26092.0,160.61,-28.261,-292.58,-149.63
26102.0,155.61,-30.261,-297.58,-152.63
26112.0,150.61,-32.261,-300.58,-154.63
26122.0,146.61,-33.261,-301.58,-156.63
26132.0,140.61,-34.261,-304.58,-157.63
26142.0,139.61,-34.261,-305.58,-159.63
26151.0,143.61,-31.261,-307.58,-160.63
26161.0,163.61,-24.261,-304.58,-159.63
26171.0,190.61,-15.261,-301.58,-157.63
26181.0,219.61,-7.2609,-300.58,-156.63
26191.0,242.61,-2.2609,-302.58,-156.63
26201.0,259.61,2.7391,-307.58,-159.63
26211.0,274.61,5.7391,-316.58,-161.63
26221.0,286.61,8.7391,-320.58,-163.63
26231.0,296.61,10.739,-326.58,-164.63
26240.0,304.61,11.739,-334.58,-168.63
26250.0,311.61,13.739,-340.58,-169.63
26260.0,316.61,14.739,-347.58,-173.63
26270.0,319.61,13.739,-354.58,-175.63
26280.0,317.61,13.739,-357.58,-178.63
26290.0,314.61,12.739,-364.58,-181.63
26300.0,308.61,9.7391,-369.58,-184.63
26310.0,303.61,8.7391,-379.58,-189.63
26319.0,298.61,6.7391,-381.58,-192.63
26329.0,295.61,6.7391,-384.58,-193.63
26339.0,293.61,5.7391,-384.58,-194.63
26349.0,292.61,4.7391,-384.58,-193.63
26359.0,290.61,3.7391,-382.58,-195.63
26369.0,288.61,3.7391,-382.58,-196.63
26379.0,286.61,1.7391,-381.58,-195.63
26389.0,282.61,-0.26088,-383.58,-197.63
26399.0,280.61,-0.26088,-383.58,-198.63
26408.0,275.61,-1.2609,-382.58,-199.63
26418.0,271.61,-3.2609,-383.58,-198.63
26428.0,267.61,-4.2609,-384.58,-199.63
26438.0,264.61,-5.2609,-382.58,-199.63
26448.0,260.61,-7.2609,-382.58,-200.63
26458.0,255.61,-8.2609,-381.58,-201.63
26468.0,250.61,-9.2609,-382.58,-200.63
26478.0,246.61,-11.261,-382.58,-201.63
26488.0,241.61,-12.261,-385.58,-203.63
26497.0,236.61,-14.261,-387.58,-205.63
26507.0,232.61,-15.261,-390.58,-206.63
26517.0,228.61,-16.261,-390.58,-206.63
26527.0,224.61,-18.261,-393.58,-209.63
26537.0,219.61,-19.261,-393.58,-209.63
26547.0,213.61,-21.261,-395.58,-210.63
26557.0,213.61,-21.261,-395.58,-210.63
26567.0,202.61,-23.261,-398.58,-213.63
26577.0,202.61,-23.261,-398.58,-213.63
26586.0,199.61,-23.261,-402.58,-217.63
26596.0,199.61,-23.261,-402.58,-217.63
26606.0,238.61,-11.261,-400.58,-216.63
26616.0,238.61,-11.261,-400.58,-216.63
26626.0,292.61,3.7391,-403.58,-217.63
26636.0,292.61,3.7391,-403.58,-217.63
26646.0,323.61,10.739,-412.58,-220.63
26656.0,323.61,10.739,-412.58,-220.63
26665.0,342.61,15.739,-421.58,-223.63
26675.0,342.61,15.739,-421.58,-223.63
26685.0,358.61,19.739,-435.58,-227.63
26695.0,358.61,19.739,-435.58,-227.63
26705.0,364.61,20.739,-447.58,-232.63
26715.0,367.61,20.739,-447.58,-232.63
26725.0,369.61,20.739,-451.58,-234.63
26735.0,368.61,19.739,-457.58,-236.63
26745.0,361.61,17.739,-461.58,-238.63
26754.0,353.61,14.739,-464.58,-240.63
26764.0,347.61,12.739,-467.58,-241.63
26774.0,341.61,10.739,-467.58,-243.63
26784.0,336.61,9.7391,-469.58,-244.63
26794.0,333.61,8.7391,-468.58,-244.63
26804.0,329.61,8.7391,-467.58,-245.63
26814.0,327.61,7.7391,-465.58,-245.63
26824.0,323.61,6.7391,-462.58,-244.63
26834.0,319.61,4.7391,-458.58,-242.63
26843.0,316.61,4.7391,-456.58,-243.63
26853.0,312.61,2.7391,-452.58,-242.63
26863.0,309.61,2.7391,-448.58,-241.63
26873.0,305.61,2.7391,-446.58,-240.63
26883.0,300.61,1.7391,-443.58,-237.63
26893.0,297.61,0.73912,-438.58,-236.63
26903.0,293.61,-0.26088,-434.58,-235.63
26913.0,288.61,-0.26088,-431.58,-235.63
26923.0,285.61,-2.2609,-430.58,-234.63
26932.0,279.61,-4.2609,-429.58,-233.63
26942.0,275.61,-5.2609,-428.58,-234.63
26952.0,269.61,-6.2609,-426.58,-233.63
26962.0,265.61,-7.2609,-427.58,-234.63
26972.0,259.61,-8.2609,-426.58,-234.63
26982.0,254.61,-10.261,-421.58,-233.63
26992.0,249.61,-12.261,-419.58,-232.63
27002.0,245.61,-13.261,-419.58,-231.63
27011.0,238.61,-15.261,-416.58,-231.63
27021.0,236.61,-15.261,-413.58,-231.63
27031.0,236.61,-14.261,-410.58,-229.63
27041.0,253.61,-8.2609,-405.58,-228.63
27051.0,280.61,-0.26088,-400.58,-226.63
27061.0,308.61,8.7391,-395.58,-223.63
27071.0,330.61,13.739,-392.58,-221.63
27081.0,348.61,17.739,-396.58,-222.63
27091.0,361.61,20.739,-399.58,-223.63
27100.0,371.61,23.739,-407.58,-225.63
27110.0,381.61,25.739,-414.58,-227.63
27120.0,390.61,26.739,-421.58,-229.63
27130.0,397.61,28.739,-425.58,-230.63
27140.0,403.61,29.739,-431.58,-234.63
27150.0,406.61,30.739,-435.58,-234.63
27160.0,407.61,30.739,-439.58,-238.63
27170.0,407.61,29.739,-445.58,-239.63
27180.0,399.61,27.739,-450.58,-241.63
27189.0,391.61,23.739,-454.58,-244.63
27199.0,384.61,21.739,-455.58,-244.63
27209.0,377.61,19.739,-459.58,-245.63
27219.0,372.61,18.739,-459.58,-246.63
27229.0,367.61,16.739,-460.58,-248.63
27239.0,364.61,16.739,-461.58,-249.63
27249.0,360.61,13.739,-461.58,-249.63
27259.0,355.61,13.739,-461.58,-250.63
27269.0,350.61,10.739,-461.58,-250.63
27278.0,347.61,9.7391,-461.58,-251.63
27288.0,347.61,9.7391,-459.58,-251.63
27298.0,337.61,6.7391,-461.58,-251.63
27308.0,337.61,6.7391,-460.58,-252.63
27318.0,325.61,2.7391,-458.58,-251.63
27328.0,325.61,2.7391,-457.58,-252.63
27338.0,314.61,0.73912,-458.58,-252.63
27348.0,314.61,0.73912,-459.58,-253.63
27357.0,304.61,-2.2609,-459.58,-252.63
27367.0,304.61,-2.2609,-459.58,-254.63
27377.0,293.61,-5.2609,-458.58,-252.63
27387.0,293.61,-5.2609,-458.58,-254.63
27397.0,282.61,-8.2609,-457.58,-254.63
27407.0,282.61,-8.2609,-456.58,-253.63
27417.0,273.61,-11.261,-456.58,-253.63
27427.0,273.61,-11.261,-454.58,-253.63
27437.0,266.61,-13.261,-452.58,-252.63
27446.0,260.61,-15.261,-450.58,-252.63
27456.0,255.61,-15.261,-447.58,-251.63
27466.0,250.61,-17.261,-443.58,-250.63
27476.0,245.61,-18.261,-436.58,-248.63
27486.0,244.61,-18.261,-436.58,-248.63
27496.0,256.61,-14.261,-422.58,-242.63
27506.0,281.61,-6.2609,-422.58,-242.63
27516.0,308.61,2.7391,-415.58,-236.63
27526.0,335.61,7.7391,-415.58,-236.63
27535.0,354.61,12.739,-422.58,-236.63
27545.0,368.61,15.739,-422.58,-236.63
27555.0,380.61,18.739,-437.58,-242.63
27565.0,392.61,21.739,-437.58,-242.63
27575.0,403.61,24.739,-446.58,-243.63
27585.0,413.61,26.739,-446.58,-243.63
27595.0,423.61,29.739,-445.58,-242.63
27605.0,428.61,30.739,-445.58,-242.63
27615.0,432.61,31.739,-446.58,-240.63
27624.0,433.61,30.739,-446.58,-240.63
27634.0,430.61,28.739,-443.58,-238.63
27644.0,424.61,26.739,-443.58,-238.63
27654.0,415.61,24.739,-440.58,-238.63
27664.0,409.61,22.739,-440.58,-238.63
27674.0,402.61,20.739,-437.58,-236.63
27684.0,395.61,18.739,-437.58,-236.63
27694.0,391.61,17.739,-435.58,-236.63
27703.0,386.61,16.739,-432.58,-235.63
27713.0,383.61,15.739,-427.58,-234.63
27723.0,380.61,15.739,-419.58,-230.63
27733.0,376.61,13.739,-413.58,-227.63
27743.0,372.61,12.739,-404.58,-224.63
27753.0,367.61,11.739,-396.58,-221.63
27763.0,362.61,9.7391,-389.58,-218.63
27773.0,357.61,8.7391,-384.58,-216.63
27783.0,352.61,7.7391,-376.58,-212.63
27792.0,348.61,6.7391,-372.58,-211.63
27802.0,342.61,5.7391,-367.58,-208.63
27812.0,337.61,3.7391,-360.58,-206.63
27822.0,332.61,2.7391,-357.58,-205.63
27832.0,326.61,1.7391,-353.58,-202.63
27842.0,321.61,-1.2609,-348.58,-202.63
27852.0,315.61,-1.2609,-345.58,-199.63
27862.0,309.61,-4.2609,-340.58,-198.63
27872.0,304.61,-5.2609,-335.58,-195.63
27881.0,301.61,-6.2609,-332.58,-194.63
27891.0,296.61,-6.2609,-328.58,-192.63
27901.0,291.61,-7.2609,-325.58,-191.63
27911.0,285.61,-8.2609,-322.58,-192.63
27921.0,279.61,-10.261,-320.58,-190.63
27931.0,273.61,-12.261,-317.58,-189.63
27941.0,265.61,-13.261,-315.58,-189.63
27951.0,261.61,-16.261,-315.58,-189.63
27961.0,255.61,-16.261,-314.58,-189.63
27970.0,250.61,-17.261,-314.58,-189.63
27980.0,246.61,-17.261,-310.58,-188.63
27990.0,247.61,-16.261,-301.58,-185.63
28000.0,247.61,-16.261,-292.58,-181.63
28010.0,285.61,-4.2609,-283.58,-176.63
28020.0,285.61,-4.2609,-271.58,-172.63
28030.0,335.61,10.739,-266.58,-166.63
28040.0,335.61,10.739,-265.58,-166.63
28049.0,369.61,19.739,-266.58,-165.63
28059.0,369.61,19.739,-272.58,-166.63
28069.0,395.61,26.739,-279.58,-169.63
28079.0,395.61,26.739,-285.58,-170.63
28089.0,417.61,32.739,-289.58,-172.63
28099.0,417.61,32.739,-297.58,-174.63
28109.0,433.61,36.739,-302.58,-175.63
28119.0,433.61,36.739,-304.58,-177.63
28129.0,440.61,37.739,-306.58,-178.63
28138.0,440.61,37.739,-311.58,-180.63
28148.0,440.61,38.739,-317.58,-181.63
28158.0,436.61,36.739,-320.58,-182.63
28168.0,432.61,34.739,-322.58,-184.63
28178.0,423.61,31.739,-324.58,-186.63
28188.0,416.61,30.739,-328.58,-188.63
28198.0,411.61,27.739,-329.58,-189.63
28208.0,403.61,26.739,-332.58,-191.63
28218.0,399.61,24.739,-333.58,-192.63
28227.0,396.61,24.739,-334.58,-192.63
28237.0,393.61,24.739,-332.58,-193.63
28247.0,389.61,23.739,-333.58,-194.63
28257.0,385.61,22.739,-335.58,-195.63
28267.0,381.61,22.739,-335.58,-194.63
28277.0,377.61,20.739,-334.58,-195.63
28287.0,373.61,19.739,-335.58,-195.63
28297.0,366.61,18.739,-334.58,-197.63
28307.0,361.61,17.739,-332.58,-194.63
28316.0,354.61,14.739,-331.58,-194.63
28326.0,348.61,11.739,-331.58,-194.63
28336.0,340.61,10.739,-329.58,-195.63
28346.0,334.61,8.7391,-329.58,-193.63
28356.0,327.61,7.7391,-327.58,-193.63
28366.0,320.61,5.7391,-324.58,-193.63
28376.0,314.61,4.7391,-322.58,-191.63
28386.0,307.61,1.7391,-320.58,-190.63
28395.0,298.61,-0.26088,-316.58,-189.63
28405.0,291.61,-2.2609,-314.58,-188.63
28415.0,285.61,-5.2609,-313.58,-188.63
28425.0,278.61,-6.2609,-310.58,-186.63
28435.0,272.61,-8.2609,-309.58,-186.63
28445.0,267.61,-8.2609,-306.58,-184.63
28455.0,260.61,-11.261,-301.58,-182.63
28465.0,253.61,-13.261,-295.58,-180.63
28475.0,247.61,-14.261,-295.58,-180.63
28484.0,241.61,-16.261,-287.58,-175.63
28494.0,236.61,-18.261,-287.58,-175.63
28504.0,230.61,-19.261,-286.58,-177.63
28514.0,223.61,-20.261,-286.58,-177.63
28524.0,218.61,-21.261,-289.58,-179.63
28534.0,212.61,-23.261,-289.58,-179.63
28544.0,206.61,-25.261,-290.58,-181.63
28554.0,198.61,-27.261,-290.58,-181.63
28564.0,191.61,-30.261,-291.58,-181.63
28573.0,184.61,-32.261,-291.58,-181.63
28583.0,179.61,-33.261,-290.58,-181.63
28593.0,178.61,-32.261,-290.58,-181.63
28603.0,187.61,-29.261,-282.58,-180.63
28613.0,207.61,-23.261,-282.58,-180.63
28623.0,230.61,-16.261,-273.58,-174.63
28633.0,254.61,-10.261,-273.58,-174.63
28643.0,273.61,-6.2609,-275.58,-172.63
28653.0,287.61,-2.2609,-275.58,-172.63
28662.0,298.61,-0.26088,-280.58,-174.63
28672.0,309.61,2.7391,-290.58,-176.63
28682.0,321.61,4.7391,-298.58,-180.63
28692.0,329.61,8.7391,-306.58,-183.63
28702.0,333.61,8.7391,-314.58,-186.63
28712.0,336.61,8.7391,-320.58,-190.63
28722.0,338.61,8.7391,-323.58,-191.63
28732.0,338.61,8.7391,-329.58,-193.63
28741.0,332.61,6.7391,-335.58,-195.63
28751.0,332.61,6.7391,-343.58,-198.63
28761.0,320.61,1.7391,-348.58,-201.63
28771.0,320.61,1.7391,-352.58,-202.63
28781.0,304.61,-2.2609,-357.58,-205.63
28791.0,304.61,-2.2609,-360.58,-207.63
28801.0,292.61,-6.2609,-363.58,-210.63
28811.0,292.61,-6.2609,-364.58,-212.63
28821.0,285.61,-9.2609,-368.58,-213.63
28830.0,285.61,-9.2609,-374.58,-216.63
28840.0,276.61,-11.261,-374.58,-218.63
28850.0,276.61,-11.261,-378.58,-218.63
28860.0,266.61,-14.261,-379.58,-221.63
28870.0,266.61,-14.261,-382.58,-221.63
28880.0,261.61,-15.261,-384.58,-224.63
28890.0,256.61,-17.261,-388.58,-225.63
28900.0,250.61,-19.261,-391.58,-228.63
28910.0,244.61,-20.261,-392.58,-228.63
28919.0,237.61,-23.261,-393.58,-228.63
28929.0,231.61,-24.261,-392.58,-229.63
28939.0,226.61,-26.261,-390.58,-228.63
28949.0,219.61,-28.261,-391.58,-228.63
28959.0,214.61,-28.261,-390.58,-229.63
28969.0,208.61,-30.261,-392.58,-230.63
28979.0,202.61,-31.261,-394.58,-232.63
28989.0,198.61,-34.261,-396.58,-233.63
28999.0,191.61,-35.261,-399.58,-234.63
29008.0,185.61,-36.261,-401.58,-235.63
29018.0,180.61,-38.261,-405.58,-237.63
29028.0,173.61,-40.261,-405.58,-237.63
29038.0,167.61,-41.261,-405.58,-239.63
29048.0,161.61,-43.261,-407.58,-239.63
29058.0,154.61,-44.261,-406.58,-239.63
29068.0,149.61,-46.261,-406.58,-240.63
29078.0,143.61,-48.261,-406.58,-240.63
29087.0,137.61,-48.261,-405.58,-240.63
29097.0,132.61,-50.261,-404.58,-241.63
29107.0,126.61,-52.261,-405.58,-241.63
29117.0,120.61,-54.261,-405.58,-241.63
29127.0,115.61,-55.261,-404.58,-242.63
29137.0,108.61,-57.261,-405.58,-243.63
29147.0,103.61,-59.261,-403.58,-242.63
29157.0,97.611,-60.261,-403.58,-241.63
29167.0,91.611,-62.261,-403.58,-241.63
29176.0,86.611,-63.261,-403.58,-242.63
29186.0,80.611,-64.261,-404.58,-243.63
29196.0,76.611,-66.261,-403.58,-243.63
29206.0,70.611,-67.261,-403.58,-242.63
29216.0,66.611,-68.261,-403.58,-245.63
29226.0,64.611,-69.261,-400.58,-243.63
29236.0,72.611,-66.261,-396.58,-241.63
29246.0,89.611,-60.261,-386.58,-239.63
29256.0,114.61,-52.261,-380.58,-236.63
29265.0,142.61,-45.261,-376.58,-235.63
29275.0,166.61,-39.261,-373.58,-233.63
29285.0,180.61,-36.261,-379.58,-235.63
29295.0,191.61,-33.261,-386.58,-236.63
29305.0,201.61,-31.261,-393.58,-238.63
29315.0,210.61,-28.261,-400.58,-242.63
29325.0,219.61,-26.261,-403.58,-242.63
29335.0,224.61,-25.261,-406.58,-243.63
29345.0,229.61,-24.261,-410.58,-245.63
29354.0,230.61,-24.261,-415.58,-246.63
29364.0,230.61,-24.261,-422.58,-249.63
29374.0,229.61,-24.261,-427.58,-252.63
29384.0,223.61,-27.261,-434.58,-254.63
29394.0,218.61,-27.261,-438.58,-257.63
29404.0,212.61,-29.261,-446.58,-261.63
29414.0,209.61,-30.261,-447.58,-263.63
29424.0,204.61,-31.261,-452.58,-264.63
29433.0,202.61,-31.261,-451.58,-265.63
29443.0,201.61,-31.261,-449.58,-264.63
29453.0,199.61,-32.261,-445.58,-263.63
29463.0,199.61,-32.261,-445.58,-263.63
29473.0,196.61,-32.261,-441.58,-262.63
29483.0,196.61,-32.261,-441.58,-262.63
29493.0,191.61,-34.261,-439.58,-262.63
29503.0,191.61,-34.261,-439.58,-262.63
29513.0,185.61,-35.261,-437.58,-261.63
29522.0,185.61,-35.261,-437.58,-261.63
29532.0,177.61,-37.261,-434.58,-260.63
29542.0,177.61,-37.261,-434.58,-260.63
29552.0,167.61,-39.261,-433.58,-260.63
29562.0,167.61,-39.261,-433.58,-260.63
29572.0,160.61,-42.261,-433.58,-262.63
29582.0,160.61,-42.261,-433.58,-262.63
29592.0,156.61,-42.261,-428.58,-260.63
29602.0,152.61,-43.261,-428.58,-260.63
29611.0,148.61,-44.261,-422.58,-257.63
29621.0,142.61,-46.261,-422.58,-257.63
29631.0,137.61,-47.261,-421.58,-258.63
29641.0,133.61,-48.261,-421.58,-258.63
29651.0,130.61,-48.261,-422.58,-259.63
29661.0,125.61,-49.261,-422.58,-259.63
29671.0,122.61,-50.261,-420.58,-258.63
29681.0,119.61,-51.261,-420.58,-258.63
29691.0,113.61,-52.261,-417.58,-258.63
29700.0,109.61,-53.261,-417.58,-258.63
29710.0,104.61,-54.261,-419.58,-259.63
29720.0,100.61,-56.261,-419.58,-259.63
29730.0,96.611,-57.261,-418.58,-260.63
29740.0,90.611,-58.261,-421.58,-261.63
29750.0,87.611,-58.261,-422.58,-261.63
29760.0,82.611,-59.261,-423.58,-263.63
29770.0,78.611,-60.261,-421.58,-261.63
29779.0,73.611,-62.261,-423.58,-261.63
29789.0,69.611,-63.261,-422.58,-262.63
29799.0,70.611,-62.261,-420.58,-262.63
29809.0,82.611,-58.261,-418.58,-261.63
29819.0,104.61,-51.261,-410.58,-258.63
29829.0,131.61,-44.261,-402.58,-255.63
29839.0,157.61,-37.261,-397.58,-252.63
29849.0,176.61,-32.261,-399.58,-252.63
29859.0,190.61,-30.261,-406.58,-253.63
29868.0,197.61,-28.261,-415.58,-256.63
29878.0,205.61,-26.261,-423.58,-260.63
29888.0,213.61,-23.261,-427.58,-261.63
29898.0,217.61,-23.261,-433.58,-261.63
29908.0,219.61,-22.261,-436.58,-262.63
29918.0,220.61,-23.261,-437.58,-264.63
29928.0,219.61,-22.261,-441.58,-263.63
29938.0,215.61,-24.261,-444.58,-264.63
29948.0,211.61,-24.261,-444.58,-266.63
29957.0,204.61,-27.261,-446.58,-267.63
29967.0,199.61,-28.261,-448.58,-269.63
29977.0,195.61,-29.261,-447.58,-270.63
29987.0,190.61,-30.261,-451.58,-271.63
29997.0,187.61,-31.261,-452.58,-272.63
