t,carotid_880nm,carotid_660nm,brachial_880nm,brachial_660nm
3.0,261.48,138.01,-191.39,-155.74
12.9,274.48,139.01,-189.39,-152.74
22.8,274.48,139.01,-184.39,-150.74
32.7,287.48,142.01,-179.39,-149.74
42.6,287.48,142.01,-172.39,-145.74
52.5,301.48,147.01,-169.39,-144.74
62.3,301.48,147.01,-164.39,-142.74
72.2,309.48,151.01,-160.39,-143.74
82.1,316.48,155.01,-157.39,-141.74
92.0,323.48,157.01,-153.39,-139.74
101.9,329.48,159.01,-152.39,-140.74
111.8,333.48,160.01,-151.39,-140.74
121.7,334.48,160.01,-151.39,-142.74
131.5,334.48,160.01,-150.39,-141.74
141.4,337.48,162.01,-151.39,-141.74
151.3,338.48,163.01,-151.39,-140.74
161.2,337.48,163.01,-151.39,-139.74
171.1,338.48,165.01,-149.39,-137.74
181.0,338.48,165.01,-151.39,-138.74
190.9,339.48,164.01,-152.39,-140.74
200.7,336.48,164.01,-152.39,-138.74
210.6,336.48,163.01,-154.39,-140.74
220.5,334.48,161.01,-157.39,-140.74
230.4,330.48,160.01,-159.39,-141.74
240.3,328.48,159.01,-158.39,-141.74
250.2,325.48,158.01,-158.39,-141.74
260.1,323.48,156.01,-162.39,-141.74
269.9,318.48,155.01,-162.39,-143.74
279.8,313.48,151.01,-162.39,-142.74
289.7,308.48,150.01,-162.39,-140.74
299.6,300.48,148.01,-161.39,-141.74
309.5,295.48,143.01,-161.39,-140.74
319.4,286.48,141.01,-161.39,-137.74
329.3,281.48,138.01,-160.39,-137.74
339.1,275.48,136.01,-159.39,-135.74
349.0,270.48,133.01,-158.39,-136.74
358.9,261.48,130.01,-159.39,-137.74
368.8,253.48,128.01,-159.39,-134.74
378.7,246.48,126.01,-158.39,-135.74
388.6,237.48,122.01,-160.39,-133.74
398.5,230.48,118.01,-158.39,-133.74
408.3,223.48,115.01,-157.39,-131.74
418.2,215.48,112.01,-157.39,-130.74
428.1,207.48,109.01,-160.39,-129.74
438.0,198.48,104.01,-160.39,-128.74
447.9,189.48,101.01,-159.39,-128.74
457.8,183.48,98.006,-160.39,-127.74
467.7,175.48,96.006,-160.39,-127.74
477.5,167.48,91.006,-160.39,-126.74
487.4,156.48,88.006,-160.39,-126.74
497.3,152.48,88.006,-163.39,-126.74
507.2,153.48,89.006,-164.39,-125.74
517.1,159.48,94.006,-165.39,-126.74
527.0,165.48,100.01,-166.39,-125.74
536.9,175.48,104.01,-164.39,-125.74
546.7,182.48,106.01,-164.39,-125.74
556.6,190.48,107.01,-163.39,-123.74
566.5,198.48,106.01,-163.39,-123.74
576.4,203.48,107.01,-154.39,-120.74
586.3,208.48,106.01,-154.39,-120.74
596.2,211.48,106.01,-144.39,-114.74
606.1,213.48,106.01,-144.39,-114.74
615.9,221.48,109.01,-134.39,-110.74
625.8,225.48,109.01,-134.39,-110.74
635.7,228.48,112.01,-123.39,-107.74
645.6,232.48,114.01,-123.39,-107.74
655.5,234.48,115.01,-111.39,-102.74
665.4,236.48,116.01,-111.39,-102.74
675.2,234.48,114.01,-104.39,-98.742
685.1,234.48,113.01,-104.39,-98.742
695.0,233.48,112.01,-99.387,-98.742
704.9,232.48,111.01,-99.387,-98.742
714.8,230.48,113.01,-99.387,-96.742
724.7,233.48,114.01,-99.387,-96.742
734.6,232.48,114.01,-95.387,-92.742
744.5,229.48,112.01,-95.387,-92.742
754.3,229.48,112.01,-96.387,-91.742
764.2,225.48,110.01,-96.387,-92.742
774.1,225.48,110.01,-94.387,-90.742
784.0,221.48,105.01,-94.387,-90.742
793.9,221.48,105.01,-94.387,-89.742
803.8,216.48,103.01,-94.387,-88.742
813.6,216.48,103.01,-90.387,-85.742
823.5,207.48,99.006,-90.387,-85.742
833.4,207.48,99.006,-91.387,-83.742
843.3,200.48,94.006,-91.387,-82.742
853.2,200.48,94.006,-90.387,-81.742
863.1,186.48,89.006,-90.387,-82.742
873.0,186.48,89.006,-90.387,-81.742
882.8,176.48,84.006,-87.387,-79.742
892.7,176.48,84.006,-89.387,-77.742
902.6,163.48,79.006,-88.387,-76.742
912.5,163.48,79.006,-89.387,-76.742
922.4,158.48,73.006,-88.387,-76.742
932.3,151.48,71.006,-88.387,-74.742
942.2,144.48,69.006,-86.387,-74.742
952.0,138.48,64.006,-86.387,-72.742
961.9,130.48,61.006,-87.387,-73.742
971.8,123.48,58.006,-88.387,-75.742
981.7,116.48,56.006,-91.387,-74.742
991.6,108.48,53.006,-90.387,-74.742
1001.5,102.48,51.006,-92.387,-73.742
1011.4,95.481,48.006,-93.387,-74.742
1021.2,87.481,46.006,-94.387,-74.742
1031.1,82.481,42.006,-94.387,-75.742
1041.0,73.481,40.006,-95.387,-74.742
1050.9,65.481,37.006,-95.387,-73.742
1060.8,60.481,36.006,-97.387,-74.742
1070.7,60.481,40.006,-98.387,-76.742
1080.6,68.481,46.006,-98.387,-77.742
1090.4,81.481,56.006,-101.39,-78.742
1100.3,98.481,66.006,-101.39,-78.742
1110.2,112.48,73.006,-102.39,-80.742
1120.1,125.48,77.006,-104.39,-82.742
1130.0,139.48,82.006,-107.39,-82.742
1139.9,147.48,85.006,-101.39,-82.742
1149.8,154.48,88.006,-100.39,-83.742
1159.6,162.48,90.006,-93.387,-81.742
1169.5,167.48,92.006,-91.387,-81.742
1179.4,171.48,94.006,-85.387,-79.742
1189.3,176.48,97.006,-78.387,-78.742
1199.2,179.48,98.006,-74.387,-77.742
1209.1,182.48,100.01,-70.387,-77.742
1219.0,185.48,101.01,-65.387,-74.742
1228.8,185.48,100.01,-61.387,-73.742
1238.7,185.48,100.01,-59.387,-75.742
1248.6,183.48,97.006,-56.387,-75.742
1258.5,182.48,98.006,-56.387,-74.742
1268.4,179.48,98.006,-56.387,-74.742
1278.3,179.48,98.006,-54.387,-76.742
1288.2,182.48,98.006,-55.387,-74.742
1298.0,181.48,98.006,-55.387,-75.742
1307.9,178.48,96.006,-56.387,-75.742
1317.8,177.48,96.006,-57.387,-75.742
1327.7,177.48,94.006,-58.387,-75.742
1337.6,173.48,93.006,-60.387,-75.742
1347.5,172.48,91.006,-60.387,-78.742
1357.4,171.48,91.006,-62.387,-76.742
1367.2,169.48,88.006,-65.387,-77.742
1377.1,166.48,86.006,-65.387,-79.742
1387.0,162.48,85.006,-69.387,-81.742
1396.9,159.48,83.006,-68.387,-81.742
1406.8,156.48,82.006,-69.387,-80.742
1416.7,152.48,81.006,-71.387,-81.742
1426.6,148.48,79.006,-69.387,-80.742
1436.4,144.48,76.006,-71.387,-79.742
1446.3,140.48,76.006,-74.387,-81.742
1456.2,139.48,75.006,-73.387,-82.742
1466.1,134.48,73.006,-74.387,-81.742
1476.0,131.48,72.006,-76.387,-82.742
1485.9,125.48,71.006,-76.387,-80.742
1495.8,123.48,68.006,-76.387,-81.742
1505.6,117.48,68.006,-79.387,-82.742
1515.5,115.48,67.006,-81.387,-83.742
1525.4,110.48,66.006,-83.387,-83.742
1535.3,106.48,65.006,-82.387,-83.742
1545.2,104.48,63.006,-87.387,-82.742
1555.1,98.481,62.006,-88.387,-84.742
1565.0,93.481,61.006,-89.387,-85.742
1574.8,87.481,58.006,-89.387,-85.742
1584.7,82.481,55.006,-91.387,-84.742
1594.6,77.481,54.006,-91.387,-84.742
1604.5,77.481,54.006,-96.387,-84.742
1614.4,76.481,58.006,-96.387,-84.742
1624.3,76.481,58.006,-98.387,-86.742
1634.2,98.481,76.006,-98.387,-86.742
1644.0,98.481,76.006,-101.39,-87.742
1653.9,131.48,91.006,-101.39,-87.742
1663.8,131.48,91.006,-104.39,-86.742
1673.7,149.48,94.006,-104.39,-86.742
1683.6,149.48,94.006,-102.39,-86.742
1693.5,165.48,95.006,-102.39,-86.742
1703.4,165.48,95.006,-94.387,-83.742
1713.2,177.48,98.006,-94.387,-83.742
1723.1,177.48,98.006,-83.387,-82.742
1733.0,190.48,101.01,-83.387,-82.742
1742.9,190.48,101.01,-73.387,-79.742
1752.8,202.48,106.01,-73.387,-79.742
1762.7,202.48,106.01,-63.387,-77.742
1772.6,208.48,108.01,-63.387,-77.742
1782.4,211.48,109.01,-59.387,-75.742
1792.3,213.48,108.01,-57.387,-75.742
1802.2,214.48,107.01,-56.387,-74.742
1812.1,211.48,107.01,-54.387,-74.742
1822.0,214.48,107.01,-56.387,-76.742
1831.9,214.48,109.01,-57.387,-78.742
1841.8,215.48,108.01,-59.387,-78.742
1851.6,217.48,111.01,-60.387,-79.742
1861.5,219.48,112.01,-58.387,-77.742
1871.4,219.48,111.01,-60.387,-79.742
1881.3,220.48,111.01,-66.387,-80.742
1891.2,217.48,113.01,-63.387,-79.742
1901.1,219.48,112.01,-66.387,-79.742
1911.0,215.48,109.01,-64.387,-77.742
1920.8,212.48,109.01,-67.387,-77.742
1930.7,210.48,109.01,-67.387,-77.742
1940.6,208.48,107.01,-67.387,-75.742
1950.5,204.48,106.01,-67.387,-74.742
1960.4,199.48,106.01,-69.387,-73.742
1970.3,197.48,104.01,-68.387,-75.742
1980.2,191.48,100.01,-69.387,-72.742
1990.0,187.48,100.01,-69.387,-71.742
1999.9,182.48,98.006,-70.387,-71.742
2009.8,178.48,95.006,-70.387,-69.742
2019.7,172.48,94.006,-70.387,-68.742
2029.6,169.48,93.006,-71.387,-67.742
2039.5,163.48,91.006,-73.387,-69.742
2049.4,160.48,89.006,-75.387,-68.742
2059.2,154.48,87.006,-76.387,-70.742
2069.1,148.48,85.006,-79.387,-71.742
2079.0,144.48,83.006,-79.387,-73.742
2088.9,137.48,81.006,-82.387,-73.742
2098.8,129.48,78.006,-84.387,-74.742
2108.7,125.48,77.006,-85.387,-75.742
2118.6,119.48,74.006,-85.387,-74.742
2128.4,113.48,71.006,-88.387,-77.742
2138.3,107.48,69.006,-89.387,-78.742
2148.2,97.481,66.006,-92.387,-77.742
2158.1,93.481,65.006,-95.387,-79.742
2168.0,95.481,69.006,-96.387,-79.742
2177.9,105.48,76.006,-100.39,-82.742
2187.8,115.48,84.006,-100.39,-84.742
2197.6,130.48,92.006,-101.39,-81.742
2207.5,144.48,96.006,-103.39,-80.742
2217.4,154.48,97.006,-104.39,-82.742
2227.3,164.48,99.006,-104.39,-82.742
2237.2,174.48,100.01,-102.39,-81.742
2247.1,180.48,99.006,-99.387,-79.742
2257.0,187.48,101.01,-95.387,-79.742
2266.8,193.48,102.01,-91.387,-77.742
2276.7,197.48,104.01,-86.387,-76.742
2286.6,205.48,106.01,-80.387,-74.742
2296.5,214.48,110.01,-75.387,-72.742
2306.4,218.48,112.01,-71.387,-71.742
2316.3,225.48,115.01,-65.387,-69.742
2326.2,230.48,117.01,-62.387,-68.742
2336.0,233.48,117.01,-60.387,-68.742
2345.9,232.48,116.01,-57.387,-67.742
2355.8,230.48,114.01,-56.387,-66.742
2365.7,232.48,116.01,-56.387,-68.742
2375.6,235.48,118.01,-57.387,-69.742
2385.5,235.48,120.01,-57.387,-70.742
2395.4,236.48,122.01,-57.387,-69.742
2405.2,239.48,123.01,-60.387,-70.742
2415.1,246.48,132.01,-58.387,-71.742
2425.0,258.48,144.01,-61.387,-72.742
2434.9,267.48,154.01,-63.387,-73.742
2444.8,273.48,162.01,-65.387,-71.742
2454.7,273.48,162.01,-63.387,-71.742
2464.6,282.48,175.01,-67.387,-73.742
2474.4,282.48,175.01,-70.387,-74.742
2484.3,285.48,183.01,-71.387,-75.742
2494.2,285.48,183.01,-73.387,-75.742
2504.1,281.48,187.01,-74.387,-76.742
2514.0,281.48,187.01,-73.387,-75.742
2523.9,274.48,188.01,-75.387,-76.742
2533.8,274.48,188.01,-75.387,-74.742
2543.6,263.48,184.01,-75.387,-74.742
2553.5,263.48,184.01,-77.387,-73.742
2563.4,251.48,179.01,-79.387,-73.742
2573.3,251.48,179.01,-81.387,-74.742
2583.2,235.48,170.01,-80.387,-74.742
2593.1,235.48,170.01,-81.387,-75.742
2603.0,218.48,161.01,-84.387,-76.742
2612.8,218.48,161.01,-86.387,-77.742
2622.7,209.48,155.01,-91.387,-78.742
2632.6,200.48,149.01,-91.387,-77.742
2642.5,188.48,144.01,-92.387,-79.742
2652.4,180.48,138.01,-96.387,-79.742
2662.3,173.48,133.01,-96.387,-79.742
2672.2,164.48,130.01,-100.39,-81.742
2682.0,156.48,125.01,-100.39,-81.742
2691.9,145.48,120.01,-106.39,-85.742
2701.8,138.48,114.01,-106.39,-85.742
2711.7,131.48,111.01,-110.39,-84.742
2721.6,128.48,111.01,-110.39,-84.742
2731.5,131.48,114.01,-113.39,-84.742
2741.4,137.48,117.01,-113.39,-84.742
2751.2,144.48,122.01,-116.39,-84.742
2761.1,157.48,125.01,-116.39,-84.742
2771.0,168.48,125.01,-119.39,-84.742
2780.9,176.48,123.01,-119.39,-84.742
2790.8,184.48,122.01,-118.39,-83.742
2800.7,189.48,121.01,-118.39,-83.742
2810.6,196.48,121.01,-110.39,-82.742
2820.4,199.48,119.01,-110.39,-82.742
2830.3,204.48,121.01,-100.39,-81.742
2840.2,212.48,123.01,-100.39,-81.742
2850.1,217.48,126.01,-92.387,-77.742
2860.0,226.48,130.01,-92.387,-77.742
2869.9,232.48,132.01,-90.387,-78.742
2879.8,237.48,136.01,-84.387,-77.742
2889.6,243.48,136.01,-83.387,-75.742
2899.5,246.48,136.01,-83.387,-77.742
2909.4,244.48,136.01,-82.387,-75.742
2919.3,245.48,136.01,-81.387,-78.742
2929.2,246.48,139.01,-81.387,-80.742
2939.1,246.48,139.01,-81.387,-78.742
2949.0,247.48,141.01,-79.387,-77.742
2958.8,250.48,142.01,-81.387,-77.742
2968.7,249.48,143.01,-81.387,-76.742
2978.6,250.48,142.01,-84.387,-78.742
2988.5,248.48,139.01,-84.387,-77.742
2998.4,248.48,141.01,-87.387,-79.742
3008.3,247.48,139.01,-90.387,-79.742
3018.2,244.48,139.01,-90.387,-79.742
3028.0,241.48,139.01,-90.387,-78.742
3037.9,238.48,136.01,-94.387,-79.742
3047.8,236.48,135.01,-95.387,-78.742
3057.7,233.48,134.01,-95.387,-78.742
3067.6,227.48,132.01,-96.387,-77.742
3077.5,223.48,129.01,-97.387,-77.742
3087.4,216.48,126.01,-95.387,-76.742
3097.2,209.48,124.01,-96.387,-76.742
3107.1,201.48,120.01,-97.387,-75.742
3117.0,196.48,117.01,-97.387,-75.742
3126.9,191.48,115.01,-99.387,-75.742
3136.8,184.48,110.01,-98.387,-74.742
3146.7,178.48,106.01,-99.387,-74.742
3156.6,170.48,101.01,-100.39,-73.742
3166.4,162.48,99.006,-102.39,-75.742
3176.3,155.48,94.006,-106.39,-74.742
3186.2,149.48,92.006,-103.39,-74.742
3196.1,139.48,89.006,-104.39,-73.742
3206.0,132.48,85.006,-106.39,-73.742
3215.9,126.48,82.006,-105.39,-72.742
3225.7,121.48,80.006,-108.39,-73.742
3235.6,113.48,77.006,-109.39,-75.742
3245.5,104.48,73.006,-107.39,-73.742
3255.4,96.481,70.006,-111.39,-72.742
3265.3,91.481,69.006,-111.39,-73.742
3275.2,92.481,70.006,-114.39,-74.742
3285.1,96.481,77.006,-116.39,-75.742
3295.0,100.48,81.006,-116.39,-76.742
3304.8,100.48,81.006,-117.39,-74.742
3314.7,124.48,89.006,-116.39,-75.742
3324.6,124.48,89.006,-117.39,-74.742
3334.5,139.48,91.006,-120.39,-76.742
3344.4,139.48,91.006,-120.39,-75.742
3354.3,152.48,91.006,-120.39,-74.742
3364.1,152.48,91.006,-114.39,-72.742
3374.0,157.48,90.006,-108.39,-71.742
3383.9,157.48,90.006,-102.39,-69.742
3393.8,163.48,92.006,-97.387,-67.742
3403.7,163.48,92.006,-89.387,-64.742
3413.6,174.48,96.006,-82.387,-63.742
3423.5,174.48,96.006,-78.387,-60.742
3433.3,177.48,98.006,-74.387,-59.742
3443.2,177.48,98.006,-69.387,-56.742
3453.1,175.48,95.006,-68.387,-56.742
3463.0,175.48,95.006,-63.387,-54.742
3472.9,172.48,94.006,-62.387,-53.742
3482.8,173.48,96.006,-62.387,-54.742
3492.7,171.48,95.006,-59.387,-53.742
3502.5,172.48,96.006,-58.387,-52.742
3512.4,174.48,96.006,-57.387,-51.742
3522.3,173.48,96.006,-57.387,-50.742
3532.2,173.48,96.006,-56.387,-50.742
3542.1,173.48,96.006,-56.387,-48.742
3552.0,172.48,94.006,-57.387,-45.742
3561.9,170.48,93.006,-55.387,-45.742
3571.7,168.48,91.006,-55.387,-45.742
3581.6,164.48,89.006,-57.387,-46.742
3591.5,161.48,89.006,-58.387,-46.742
3601.4,158.48,88.006,-56.387,-47.742
3611.3,157.48,88.006,-59.387,-47.742
3621.2,152.48,85.006,-57.387,-43.742
3631.1,149.48,84.006,-54.387,-43.742
3640.9,147.48,84.006,-54.387,-41.742
3650.8,142.48,81.006,-55.387,-43.742
3660.7,138.48,81.006,-52.387,-41.742
3670.6,132.48,80.006,-54.387,-41.742
3680.5,127.48,77.006,-55.387,-41.742
3690.4,123.48,75.006,-52.387,-41.742
3700.3,115.48,72.006,-53.387,-42.742
3710.1,110.48,69.006,-55.387,-42.742
3720.0,103.48,67.006,-56.387,-42.742
3729.9,98.481,65.006,-56.387,-42.742
3739.8,93.481,64.006,-55.387,-44.742
3749.7,91.481,66.006,-55.387,-44.742
3759.6,90.481,67.006,-58.387,-43.742
3769.5,86.481,69.006,-58.387,-43.742
3779.3,84.481,70.006,-61.387,-45.742
3789.2,77.481,70.006,-61.387,-45.742
3799.1,70.481,68.006,-65.387,-48.742
3809.0,60.481,66.006,-65.387,-48.742
3818.9,55.481,65.006,-71.387,-50.742
3828.8,52.481,65.006,-71.387,-50.742
3838.7,56.481,70.006,-70.387,-50.742
3848.5,57.481,73.006,-70.387,-50.742
3858.4,65.481,77.006,-73.387,-49.742
3868.3,74.481,80.006,-73.387,-49.742
3878.2,80.481,78.006,-75.387,-49.742
3888.1,84.481,76.006,-75.387,-49.742
3898.0,88.481,74.006,-76.387,-50.742
3907.9,89.481,72.006,-76.387,-50.742
3917.7,88.481,68.006,-67.387,-46.742
3927.6,88.481,65.006,-67.387,-46.742
3937.5,86.481,63.006,-59.387,-44.742
3947.4,85.481,60.006,-59.387,-44.742
3957.3,85.481,60.006,-49.387,-40.742
3967.2,87.481,61.006,-49.387,-40.742
3977.1,88.481,61.006,-45.387,-38.742
3986.9,86.481,59.006,-42.387,-38.742
3996.8,83.481,57.006,-36.387,-36.742
4006.7,80.481,55.006,-35.387,-34.742
4016.6,78.481,55.006,-34.387,-35.742
4026.5,77.481,53.006,-34.387,-36.742
4036.4,75.481,54.006,-32.387,-37.742
4046.3,78.481,56.006,-30.387,-36.742
4056.1,79.481,56.006,-31.387,-36.742
4066.0,79.481,56.006,-32.387,-37.742
4075.9,76.481,54.006,-33.387,-39.742
4085.8,76.481,53.006,-36.387,-39.742
4095.7,75.481,53.006,-38.387,-38.742
4105.6,75.481,52.006,-39.387,-40.742
4115.5,73.481,51.006,-39.387,-39.742
4125.3,72.481,51.006,-40.387,-40.742
4135.2,72.481,51.006,-41.387,-42.742
4145.1,70.481,50.006,-43.387,-42.742
4155.0,70.481,50.006,-45.387,-44.742
4164.9,67.481,51.006,-44.387,-44.742
4174.8,67.481,51.006,-46.387,-46.742
4184.7,68.481,55.006,-48.387,-47.742
4194.5,68.481,55.006,-44.387,-46.742
4204.4,62.481,58.006,-45.387,-46.742
4214.3,62.481,58.006,-46.387,-49.742
4224.2,60.481,59.006,-45.387,-48.742
4234.1,60.481,59.006,-48.387,-49.742
4244.0,51.481,57.006,-48.387,-47.742
4253.9,51.481,57.006,-49.387,-50.742
4263.7,43.481,54.006,-49.387,-49.742
4273.6,43.481,54.006,-51.387,-49.742
4283.5,31.481,50.006,-50.387,-49.742
4293.4,31.481,50.006,-52.387,-52.742
4303.3,25.481,47.006,-56.387,-53.742
4313.2,21.481,45.006,-57.387,-53.742
4323.1,14.481,43.006,-59.387,-53.742
4332.9,9.4807,40.006,-58.387,-54.742
4342.8,0.48069,37.006,-60.387,-53.742
4352.7,-6.5193,35.006,-62.387,-53.742
4362.6,-7.5193,36.006,-64.387,-55.742
4372.5,-2.5193,40.006,-66.387,-55.742
4382.4,6.4807,49.006,-67.387,-57.742
4392.3,18.481,59.006,-70.387,-58.742
4402.1,34.481,66.006,-70.387,-58.742
4412.0,47.481,70.006,-73.387,-59.742
4421.9,57.481,72.006,-75.387,-60.742
4431.8,65.481,72.006,-75.387,-62.742
4441.7,72.481,71.006,-73.387,-61.742
4451.6,74.481,70.006,-66.387,-59.742
4461.5,78.481,69.006,-65.387,-57.742
4471.3,77.481,67.006,-58.387,-58.742
4481.2,78.481,64.006,-53.387,-55.742
4491.1,79.481,66.006,-47.387,-53.742
4501.0,81.481,66.006,-45.387,-52.742
4510.9,85.481,69.006,-41.387,-53.742
4520.8,87.481,69.006,-38.387,-53.742
4530.7,92.481,71.006,-34.387,-52.742
4540.5,93.481,72.006,-35.387,-52.742
4550.4,92.481,71.006,-35.387,-52.742
4560.3,92.481,73.006,-34.387,-55.742
4570.2,94.481,76.006,-35.387,-55.742
4580.1,95.481,76.006,-34.387,-56.742
4590.0,99.481,78.006,-36.387,-54.742
4599.9,97.481,78.006,-38.387,-55.742
4609.7,97.481,79.006,-37.387,-54.742
4619.6,98.481,79.006,-38.387,-55.742
4629.5,96.481,79.006,-43.387,-56.742
4639.4,95.481,77.006,-40.387,-53.742
4649.3,93.481,76.006,-42.387,-55.742
4659.2,90.481,75.006,-43.387,-53.742
4669.1,88.481,72.006,-48.387,-54.742
4678.9,85.481,73.006,-47.387,-54.742
4688.8,82.481,70.006,-49.387,-56.742
4698.7,76.481,69.006,-49.387,-55.742
4708.6,72.481,67.006,-50.387,-56.742
4718.5,69.481,65.006,-50.387,-55.742
4728.4,65.481,65.006,-49.387,-55.742
4738.3,59.481,63.006,-50.387,-54.742
4748.1,55.481,61.006,-51.387,-55.742
4758.0,48.481,57.006,-53.387,-56.742
4767.9,42.481,55.006,-53.387,-56.742
4777.8,39.481,51.006,-55.387,-57.742
4787.7,32.481,51.006,-57.387,-57.742
4797.6,30.481,48.006,-59.387,-57.742
4807.5,25.481,46.006,-61.387,-59.742
4817.3,20.481,44.006,-61.387,-59.742
4827.2,16.481,44.006,-65.387,-58.742
4837.1,11.481,41.006,-65.387,-58.742
4847.0,7.4807,39.006,-68.387,-59.742
4856.9,0.48069,36.006,-68.387,-59.742
4866.8,-4.5193,34.006,-70.387,-60.742
4876.7,-9.5193,34.006,-70.387,-60.742
4886.5,-5.5193,37.006,-76.387,-63.742
4896.4,2.4807,44.006,-76.387,-63.742
4906.3,13.481,51.006,-84.387,-67.742
4916.2,28.481,59.006,-84.387,-67.742
4926.1,43.481,65.006,-85.387,-70.742
4936.0,57.481,68.006,-85.387,-70.742
4945.9,68.481,70.006,-93.387,-75.742
4955.7,78.481,72.006,-93.387,-75.742
4965.6,86.481,71.006,-89.387,-75.742
4975.5,90.481,72.006,-89.387,-75.742
4985.4,90.481,72.006,-85.387,-75.742
4995.3,100.48,73.006,-84.387,-77.742
5005.2,100.48,73.006,-79.387,-75.742
5015.1,109.48,76.006,-77.387,-77.742
5024.9,109.48,76.006,-71.387,-77.742
5034.8,122.48,83.006,-68.387,-75.742
5044.7,122.48,83.006,-64.387,-76.742
5054.6,129.48,85.006,-62.387,-73.742
5064.5,129.48,85.006,-58.387,-72.742
5074.4,129.48,82.006,-55.387,-69.742
5084.3,129.48,82.006,-52.387,-68.742
5094.1,130.48,85.006,-54.387,-68.742
5104.0,130.48,85.006,-54.387,-68.742
5113.9,134.48,87.006,-54.387,-67.742
5123.8,134.48,87.006,-56.387,-69.742
5133.7,133.48,87.006,-54.387,-67.742
5143.6,133.48,87.006,-54.387,-66.742
5153.5,136.48,87.006,-57.387,-66.742
5163.3,135.48,85.006,-57.387,-65.742
5173.2,132.48,85.006,-58.387,-66.742
5183.1,132.48,84.006,-58.387,-67.742
5193.0,130.48,83.006,-59.387,-68.742
5202.9,128.48,81.006,-63.387,-68.742
5212.8,123.48,80.006,-67.387,-71.742
5222.7,124.48,80.006,-67.387,-72.742
5232.5,121.48,79.006,-69.387,-72.742
5242.4,119.48,78.006,-69.387,-72.742
5252.3,116.48,79.006,-72.387,-72.742
5262.2,113.48,77.006,-74.387,-73.742
5272.1,111.48,76.006,-71.387,-72.742
5282.0,107.48,76.006,-74.387,-72.742
5291.9,105.48,75.006,-74.387,-70.742
5301.7,101.48,75.006,-77.387,-71.742
5311.6,96.481,74.006,-76.387,-72.742
5321.5,93.481,73.006,-79.387,-74.742
5331.4,87.481,71.006,-81.387,-72.742
5341.3,83.481,69.006,-81.387,-73.742
5351.2,77.481,68.006,-84.387,-71.742
5361.1,72.481,65.006,-84.387,-71.742
5370.9,64.481,63.006,-87.387,-71.742
5380.8,59.481,61.006,-86.387,-70.742
5390.7,52.481,57.006,-89.387,-72.742
5400.6,46.481,54.006,-92.387,-71.742
5410.5,42.481,54.006,-94.387,-70.742
5420.4,43.481,58.006,-95.387,-73.742
5430.3,48.481,63.006,-96.387,-75.742
5440.1,55.481,69.006,-98.387,-72.742
5450.0,67.481,73.006,-97.387,-73.742
5459.9,78.481,76.006,-100.39,-74.742
5469.8,88.481,77.006,-102.39,-74.742
5479.7,96.481,78.006,-101.39,-75.742
5489.6,101.48,78.006,-100.39,-74.742
5499.5,106.48,79.006,-96.387,-72.742
5509.3,112.48,79.006,-91.387,-72.742
5519.2,117.48,78.006,-87.387,-69.742
5529.1,119.48,80.006,-82.387,-68.742
5539.0,124.48,80.006,-79.387,-67.742
5548.9,130.48,83.006,-74.387,-64.742
5558.8,136.48,86.006,-69.387,-62.742
5568.7,141.48,89.006,-67.387,-62.742
5578.5,146.48,91.006,-64.387,-59.742
5588.4,146.48,91.006,-63.387,-59.742
5598.3,147.48,91.006,-60.387,-58.742
5608.2,153.48,99.006,-62.387,-58.742
5618.1,169.48,115.01,-59.387,-59.742
5628.0,181.48,126.01,-60.387,-58.742
5637.9,191.48,139.01,-60.387,-59.742
5647.7,204.48,151.01,-59.387,-58.742
5657.6,212.48,157.01,-62.387,-57.742
5667.5,219.48,164.01,-64.387,-59.742
5677.4,224.48,170.01,-65.387,-61.742
5687.3,230.48,175.01,-66.387,-61.742
5697.2,236.48,180.01,-72.387,-61.742
5707.1,238.48,184.01,-72.387,-61.742
5716.9,237.48,185.01,-72.387,-60.742
5726.8,238.48,185.01,-74.387,-63.742
5736.7,234.48,185.01,-76.387,-62.742
5746.6,232.48,187.01,-77.387,-63.742
5756.5,232.48,184.01,-77.387,-64.742
5766.4,225.48,182.01,-77.387,-64.742
5776.2,220.48,177.01,-80.387,-63.742
5786.1,215.48,174.01,-80.387,-63.742
5796.0,206.48,168.01,-79.387,-62.742
5805.9,198.48,162.01,-79.387,-62.742
5815.8,190.48,157.01,-82.387,-63.742
5825.7,181.48,150.01,-82.387,-63.742
5835.6,181.48,150.01,-87.387,-63.742
5845.5,162.48,135.01,-87.387,-63.742
5855.3,162.48,135.01,-92.387,-65.742
5865.2,145.48,123.01,-92.387,-65.742
5875.1,145.48,123.01,-93.387,-64.742
5885.0,125.48,110.01,-93.387,-64.742
5894.9,125.48,110.01,-94.387,-62.742
5904.8,107.48,99.006,-94.387,-62.742
5914.6,107.48,99.006,-96.387,-61.742
5924.5,92.481,89.006,-96.387,-61.742
5934.4,92.481,89.006,-100.39,-64.742
5944.3,91.481,91.006,-100.39,-64.742
5954.2,91.481,91.006,-103.39,-66.742
5964.1,102.48,94.006,-103.39,-66.742
5974.0,102.48,94.006,-105.39,-64.742
5983.9,115.48,96.006,-105.39,-64.742
5993.7,115.48,96.006,-105.39,-63.742
6003.6,118.48,93.006,-105.39,-64.742
6013.5,124.48,91.006,-104.39,-64.742
6023.4,128.48,89.006,-101.39,-63.742
6033.3,129.48,87.006,-95.387,-60.742
6043.2,132.48,86.006,-88.387,-58.742
6053.0,135.48,85.006,-83.387,-56.742
6062.9,137.48,85.006,-79.387,-56.742
6072.8,142.48,86.006,-74.387,-55.742
6082.7,144.48,88.006,-67.387,-52.742
6092.6,146.48,86.006,-65.387,-50.742
6102.5,145.48,87.006,-61.387,-49.742
6112.4,144.48,84.006,-59.387,-47.742
6122.2,143.48,83.006,-54.387,-46.742
6132.1,140.48,81.006,-54.387,-46.742
6142.0,142.48,81.006,-51.387,-47.742
6151.9,141.48,82.006,-54.387,-46.742
6161.8,141.48,81.006,-50.387,-46.742
6171.7,143.48,82.006,-51.387,-45.742
6181.6,142.48,82.006,-51.387,-45.742
6191.4,141.48,80.006,-51.387,-47.742
6201.3,143.48,80.006,-52.387,-47.742
6211.2,143.48,80.006,-51.387,-44.742
6221.1,140.48,78.006,-53.387,-45.742
6231.0,139.48,77.006,-51.387,-45.742
6240.9,136.48,76.006,-52.387,-43.742
6250.8,134.48,76.006,-52.387,-44.742
6260.6,132.48,74.006,-53.387,-43.742
6270.5,129.48,72.006,-53.387,-42.742
6280.4,127.48,72.006,-53.387,-42.742
6290.3,124.48,71.006,-53.387,-41.742
6300.2,120.48,68.006,-49.387,-42.742
6310.1,116.48,67.006,-51.387,-41.742
6320.0,112.48,65.006,-50.387,-40.742
6329.8,108.48,63.006,-50.387,-39.742
6339.7,105.48,63.006,-49.387,-40.742
6349.6,100.48,60.006,-50.387,-40.742
6359.5,94.481,58.006,-51.387,-38.742
6369.4,88.481,55.006,-50.387,-39.742
6379.3,82.481,53.006,-50.387,-38.742
6389.2,80.481,51.006,-53.387,-39.742
6399.0,75.481,49.006,-53.387,-38.742
6408.9,71.481,48.006,-52.387,-38.742
6418.8,63.481,46.006,-54.387,-40.742
6428.7,56.481,44.006,-55.387,-39.742
6438.6,50.481,41.006,-55.387,-39.742
6448.5,44.481,40.006,-54.387,-39.742
6458.4,43.481,39.006,-57.387,-40.742
6468.2,46.481,43.006,-57.387,-39.742
6478.1,52.481,48.006,-56.387,-40.742
6488.0,59.481,53.006,-57.387,-40.742
6497.9,68.481,57.006,-57.387,-41.742
6507.8,77.481,57.006,-57.387,-41.742
6517.7,81.481,56.006,-61.387,-43.742
6527.6,84.481,55.006,-60.387,-43.742
6537.4,87.481,53.006,-57.387,-43.742
6547.3,86.481,51.006,-49.387,-40.742
6557.2,86.481,48.006,-44.387,-40.742
6567.1,83.481,45.006,-41.387,-38.742
6577.0,83.481,45.006,-35.387,-37.742
6586.9,85.481,44.006,-32.387,-35.742
6596.8,85.481,43.006,-27.387,-33.742
6606.6,85.481,42.006,-21.387,-32.742
6616.5,83.481,40.006,-20.387,-32.742
6626.4,82.481,39.006,-17.387,-30.742
6636.3,76.481,35.006,-16.387,-33.742
6646.2,77.481,36.006,-15.387,-34.742
6656.1,77.481,37.006,-15.387,-35.742
6666.0,75.481,38.006,-15.387,-36.742
6675.8,79.481,39.006,-15.387,-37.742
6685.7,79.481,39.006,-17.387,-35.742
6695.6,77.481,38.006,-18.387,-37.742
6705.5,77.481,38.006,-21.387,-38.742
6715.4,78.481,37.006,-22.387,-38.742
6725.3,78.481,37.006,-21.387,-39.742
6735.2,76.481,36.006,-23.387,-39.742
6745.0,76.481,36.006,-27.387,-39.742
6754.9,73.481,35.006,-27.387,-38.742
6764.8,73.481,35.006,-29.387,-38.742
6774.7,71.481,33.006,-27.387,-38.742
6784.6,71.481,33.006,-26.387,-39.742
6794.5,68.481,32.006,-27.387,-38.742
6804.4,68.481,32.006,-28.387,-38.742
6814.2,62.481,30.006,-28.387,-37.742
6824.1,62.481,30.006,-26.387,-36.742
6834.0,55.481,28.006,-27.387,-37.742
6843.9,55.481,28.006,-28.387,-37.742
6853.8,53.481,28.006,-28.387,-37.742
6863.7,49.481,26.006,-30.387,-39.742
6873.6,43.481,24.006,-30.387,-39.742
6883.4,40.481,24.006,-32.387,-37.742
6893.3,35.481,22.006,-32.387,-37.742
6903.2,32.481,20.006,-33.387,-34.742
6913.1,29.481,19.006,-33.387,-34.742
6923.0,25.481,18.006,-33.387,-34.742
6932.9,16.481,14.006,-33.387,-34.742
6942.8,12.481,12.006,-33.387,-34.742
6952.6,8.4807,12.006,-33.387,-34.742
6962.5,3.4807,11.006,-35.387,-33.742
6972.4,4.4807,13.006,-35.387,-33.742
6982.3,12.481,21.006,-36.387,-35.742
6992.2,22.481,26.006,-36.387,-35.742
7002.1,32.481,33.006,-39.387,-35.742
7012.0,43.481,36.006,-39.387,-35.742
7021.8,51.481,39.006,-40.387,-36.742
7031.7,58.481,40.006,-40.387,-36.742
7041.6,66.481,41.006,-33.387,-33.742
7051.5,75.481,42.006,-33.387,-33.742
7061.4,78.481,43.006,-28.387,-30.742
7071.3,83.481,43.006,-24.387,-29.742
7081.2,88.481,45.006,-19.387,-27.742
7091.0,94.481,48.006,-12.387,-25.742
7100.9,96.481,50.006,-7.3866,-24.742
7110.8,101.48,52.006,-1.3866,-23.742
7120.7,103.48,53.006,1.6134,-23.742
7130.6,107.48,53.006,2.6134,-23.742
7140.5,108.48,52.006,5.6134,-22.742
7150.4,104.48,50.006,5.6134,-21.742
7160.2,106.48,51.006,7.6134,-24.742
7170.1,108.48,53.006,7.6134,-25.742
7180.0,107.48,53.006,5.6134,-25.742
7189.9,110.48,55.006,4.6134,-28.742
7199.8,111.48,55.006,4.6134,-27.742
7209.7,114.48,57.006,1.6134,-29.742
7219.6,114.48,57.006,-0.38657,-30.742
7229.4,113.48,55.006,-2.3866,-32.742
7239.3,112.48,55.006,-3.3866,-32.742
7249.2,113.48,55.006,-4.3866,-31.742
7259.1,113.48,54.006,-8.3866,-35.742
7269.0,114.48,53.006,-10.387,-35.742
7278.9,112.48,54.006,-9.3866,-37.742
7288.8,109.48,54.006,-14.387,-38.742
7298.6,109.48,53.006,-14.387,-39.742
7308.5,108.48,53.006,-14.387,-39.742
7318.4,108.48,52.006,-15.387,-39.742
7328.3,104.48,51.006,-15.387,-40.742
7338.2,101.48,50.006,-16.387,-41.742
7348.1,95.481,48.006,-18.387,-42.742
7358.0,94.481,48.006,-20.387,-43.742
7367.8,90.481,46.006,-20.387,-43.742
7377.7,83.481,44.006,-22.387,-45.742
7387.6,81.481,42.006,-26.387,-46.742
7397.5,76.481,41.006,-28.387,-46.742
7407.4,73.481,39.006,-29.387,-48.742
7417.3,68.481,39.006,-29.387,-48.742
7427.2,63.481,37.006,-32.387,-49.742
7437.0,57.481,34.006,-34.387,-50.742
7446.9,50.481,32.006,-36.387,-50.742
7456.8,45.481,30.006,-37.387,-52.742
7466.7,45.481,31.006,-37.387,-52.742
7476.6,48.481,35.006,-41.387,-50.742
7486.5,54.481,40.006,-43.387,-53.742
7496.4,63.481,47.006,-44.387,-52.742
7506.2,71.481,51.006,-45.387,-53.742
7516.1,79.481,52.006,-46.387,-52.742
7526.0,85.481,53.006,-48.387,-52.742
7535.9,85.481,53.006,-46.387,-52.742
7545.8,97.481,53.006,-43.387,-50.742
7555.7,97.481,53.006,-41.387,-48.742
7565.6,108.48,52.006,-36.387,-45.742
7575.4,108.48,52.006,-29.387,-44.742
7585.3,121.48,56.006,-24.387,-43.742
7595.2,121.48,56.006,-21.387,-42.742
7605.1,133.48,63.006,-18.387,-39.742
7615.0,133.48,63.006,-12.387,-38.742
7624.9,144.48,67.006,-10.387,-38.742
7634.8,144.48,67.006,-6.3866,-35.742
7644.6,148.48,66.006,-4.3866,-35.742
7654.5,148.48,66.006,-2.3866,-34.742
7664.4,148.48,66.006,-5.3866,-36.742
7674.3,148.48,66.006,-5.3866,-37.742
7684.2,150.48,69.006,-6.3866,-38.742
7694.1,150.48,69.006,-6.3866,-38.742
7704.0,153.48,71.006,-9.3866,-38.742
7713.8,151.48,69.006,-9.3866,-38.742
7723.7,150.48,69.006,-13.387,-40.742
7733.6,152.48,68.006,-17.387,-41.742
7743.5,152.48,69.006,-19.387,-41.742
7753.4,151.48,67.006,-20.387,-44.742
7763.3,151.48,67.006,-23.387,-44.742
7773.2,149.48,65.006,-26.387,-44.742
7783.0,146.48,65.006,-28.387,-46.742
7792.9,145.48,64.006,-31.387,-48.742
7802.8,140.48,63.006,-32.387,-49.742
7812.7,140.48,61.006,-36.387,-51.742
7822.6,137.48,61.006,-38.387,-51.742
7832.5,133.48,60.006,-39.387,-52.742
7842.4,130.48,59.006,-41.387,-51.742
7852.2,127.48,57.006,-41.387,-52.742
7862.1,123.48,56.006,-41.387,-52.742
7872.0,118.48,55.006,-44.387,-54.742
7881.9,112.48,51.006,-44.387,-54.742
7891.8,105.48,48.006,-50.387,-56.742
7901.7,100.48,46.006,-50.387,-56.742
7911.6,96.481,44.006,-55.387,-58.742
7921.4,88.481,42.006,-55.387,-58.742
7931.3,85.481,41.006,-56.387,-59.742
7941.2,80.481,39.006,-56.387,-59.742
7951.1,74.481,35.006,-60.387,-60.742
7961.0,69.481,32.006,-60.387,-60.742
7970.9,63.481,32.006,-66.387,-62.742
7980.8,61.481,32.006,-66.387,-62.742
7990.6,64.481,34.006,-71.387,-63.742
8000.5,69.481,39.006,-71.387,-63.742
8010.4,75.481,45.006,-75.387,-65.742
8020.3,83.481,47.006,-75.387,-65.742
8030.2,92.481,51.006,-77.387,-67.742
8040.1,100.48,52.006,-77.387,-67.742
8050.0,106.48,52.006,-74.387,-65.742
8059.8,112.48,53.006,-74.387,-65.742
8069.7,115.48,52.006,-64.387,-61.742
8079.6,123.48,55.006,-64.387,-61.742
8089.5,129.48,56.006,-58.387,-59.742
8099.4,135.48,59.006,-55.387,-57.742
8109.3,142.48,62.006,-50.387,-57.742
8119.2,149.48,65.006,-46.387,-57.742
8129.0,153.48,66.006,-41.387,-56.742
8138.9,157.48,67.006,-38.387,-56.742
8148.8,158.48,68.006,-34.387,-51.742
8158.7,159.48,66.006,-33.387,-53.742
8168.6,158.48,64.006,-34.387,-54.742
8178.5,160.48,66.006,-32.387,-53.742
8188.4,163.48,66.006,-34.387,-53.742
8198.2,163.48,66.006,-34.387,-54.742
8208.1,163.48,68.006,-34.387,-54.742
8218.0,163.48,67.006,-36.387,-55.742
8227.9,161.48,69.006,-38.387,-56.742
8237.8,162.48,66.006,-38.387,-56.742
8247.7,163.48,68.006,-41.387,-58.742
8257.6,161.48,67.006,-46.387,-59.742
8267.4,162.48,68.006,-47.387,-59.742
8277.3,160.48,68.006,-47.387,-59.742
8287.2,160.48,68.006,-48.387,-59.742
8297.1,158.48,67.006,-50.387,-60.742
8307.0,155.48,68.006,-51.387,-61.742
8316.9,155.48,67.006,-54.387,-62.742
8326.7,153.48,67.006,-54.387,-63.742
8336.6,153.48,67.006,-54.387,-63.742
8346.5,149.48,66.006,-57.387,-63.742
8356.4,146.48,65.006,-56.387,-61.742
8366.3,141.48,65.006,-58.387,-62.742
8376.2,138.48,64.006,-57.387,-60.742
8386.1,138.48,64.006,-58.387,-63.742
8396.0,130.48,62.006,-60.387,-60.742
8405.8,130.48,62.006,-62.387,-62.742
8415.7,123.48,59.006,-62.387,-62.742
8425.6,123.48,59.006,-63.387,-62.742
8435.5,116.48,58.006,-65.387,-63.742
8445.4,116.48,58.006,-68.387,-65.742
8455.3,108.48,54.006,-69.387,-65.742
8465.1,108.48,54.006,-71.387,-62.742
8475.0,97.481,52.006,-72.387,-62.742
8484.9,97.481,52.006,-75.387,-63.742
8494.8,85.481,48.006,-74.387,-64.742
8504.7,85.481,48.006,-78.387,-64.742
8514.6,89.481,54.006,-76.387,-64.742
8524.5,89.481,54.006,-81.387,-65.742
8534.4,99.481,62.006,-80.387,-65.742
8544.2,99.481,62.006,-82.387,-63.742
8554.1,107.48,65.006,-82.387,-63.742
8564.0,115.48,66.006,-85.387,-63.742
8573.9,123.48,67.006,-82.387,-62.742
8583.8,128.48,67.006,-81.387,-61.742
8593.7,133.48,68.006,-75.387,-59.742
8603.5,139.48,67.006,-70.387,-57.742
8613.4,144.48,70.006,-66.387,-55.742
8623.3,150.48,72.006,-60.387,-52.742
8633.2,157.48,75.006,-53.387,-48.742
8643.1,163.48,76.006,-49.387,-48.742
8653.0,166.48,78.006,-46.387,-48.742
8662.9,172.48,79.006,-43.387,-49.742
8672.7,174.48,79.006,-41.387,-48.742
8682.6,175.48,78.006,-39.387,-46.742
8692.5,173.48,75.006,-38.387,-48.742
8702.4,167.48,71.006,-39.387,-49.742
8712.3,171.48,71.006,-39.387,-50.742
8722.2,169.48,71.006,-41.387,-50.742
8732.1,169.48,70.006,-41.387,-51.742
8741.9,167.48,70.006,-41.387,-50.742
8751.8,166.48,68.006,-41.387,-50.742
8761.7,165.48,69.006,-45.387,-52.742
8771.6,162.48,66.006,-45.387,-52.742
8781.5,159.48,64.006,-49.387,-55.742
8791.4,157.48,62.006,-50.387,-53.742
8801.3,152.48,60.006,-52.387,-55.742
8811.1,151.48,58.006,-52.387,-55.742
8821.0,147.48,56.006,-54.387,-55.742
8830.9,144.48,54.006,-55.387,-56.742
8840.8,141.48,51.006,-56.387,-57.742
8850.7,136.48,50.006,-57.387,-57.742
8860.6,131.48,48.006,-58.387,-56.742
8870.5,129.48,47.006,-56.387,-54.742
8880.3,124.48,44.006,-55.387,-56.742
8890.2,121.48,42.006,-56.387,-55.742
8900.1,115.48,42.006,-57.387,-56.742
8910.0,111.48,38.006,-58.387,-55.742
8919.9,107.48,35.006,-59.387,-55.742
8929.8,103.48,36.006,-61.387,-56.742
8939.7,98.481,33.006,-60.387,-56.742
8949.5,94.481,31.006,-61.387,-55.742
8959.4,87.481,30.006,-62.387,-57.742
8969.3,81.481,27.006,-62.387,-57.742
8979.2,77.481,24.006,-64.387,-57.742
8989.1,70.481,22.006,-64.387,-57.742
8999.0,65.481,19.006,-64.387,-55.742
9008.9,61.481,18.006,-64.387,-55.742
9018.7,54.481,16.006,-63.387,-56.742
9028.6,49.481,14.006,-63.387,-56.742
9038.5,41.481,10.006,-65.387,-56.742
9048.4,34.481,9.0063,-65.387,-56.742
9058.3,32.481,7.0063,-65.387,-56.742
9068.2,32.481,10.006,-65.387,-56.742
9078.1,39.481,16.006,-66.387,-56.742
9087.9,45.481,21.006,-66.387,-56.742
9097.8,54.481,26.006,-64.387,-53.742
9107.7,63.481,27.006,-64.387,-53.742
9117.6,67.481,27.006,-62.387,-53.742
9127.5,73.481,26.006,-62.387,-53.742
9137.4,76.481,25.006,-56.387,-47.742
9147.3,80.481,26.006,-56.387,-47.742
9157.1,85.481,26.006,-45.387,-44.742
9167.0,88.481,27.006,-45.387,-44.742
9176.9,92.481,28.006,-39.387,-43.742
9186.8,96.481,29.006,-34.387,-40.742
9196.7,101.48,29.006,-27.387,-38.742
9206.6,103.48,29.006,-22.387,-36.742
9216.5,102.48,28.006,-18.387,-33.742
9226.3,101.48,25.006,-11.387,-32.742
9236.2,101.48,25.006,-6.3866,-29.742
9246.1,91.481,18.006,-3.3866,-27.742
9256.0,91.481,18.006,-3.3866,-29.742
9265.9,88.481,17.006,-0.38657,-28.742
9275.8,88.481,17.006,-0.38657,-29.742
9285.7,85.481,14.006,-0.38657,-29.742
9295.5,85.481,14.006,-2.3866,-29.742
9305.4,78.481,11.006,-3.3866,-30.742
9315.3,78.481,11.006,-5.3866,-29.742
9325.2,73.481,8.0063,-5.3866,-30.742
9335.1,73.481,8.0063,-6.3866,-30.742
9345.0,69.481,3.0063,-4.3866,-31.742
9354.9,69.481,3.0063,-5.3866,-29.742
9364.7,63.481,-1.9937,-5.3866,-30.742
9374.6,63.481,-1.9937,-5.3866,-30.742
9384.5,56.481,-4.9937,-4.3866,-27.742
9394.4,56.481,-4.9937,-4.3866,-27.742
9404.3,50.481,-7.9937,-1.3866,-26.742
9414.2,46.481,-6.9937,-3.3866,-25.742
9424.1,42.481,-10.994,-3.3866,-24.742
9433.9,37.481,-11.994,-1.3866,-23.742
9443.8,33.481,-13.994,-0.38657,-22.742
9453.7,28.481,-16.994,-1.3866,-21.742
9463.6,25.481,-16.994,-2.3866,-23.742
9473.5,23.481,-17.994,-3.3866,-22.742
9483.4,16.481,-19.994,-3.3866,-23.742
9493.3,12.481,-23.994,-5.3866,-24.742
9503.1,7.4807,-24.994,-6.3866,-24.742
9513.0,4.4807,-26.994,-10.387,-26.742
9522.9,-1.5193,-27.994,-10.387,-25.742
9532.8,-5.5193,-29.994,-10.387,-26.742
9542.7,-10.519,-32.994,-13.387,-25.742
9552.6,-16.519,-34.994,-13.387,-26.742
9562.5,-24.519,-37.994,-15.387,-25.742
9572.3,-29.519,-39.994,-17.387,-26.742
9582.2,-34.519,-42.994,-17.387,-27.742
9592.1,-41.519,-46.994,-17.387,-25.742
9602.0,-45.519,-47.994,-20.387,-25.742
9611.9,-54.519,-50.994,-18.387,-24.742
9621.8,-60.519,-53.994,-17.387,-24.742
9631.7,-62.519,-51.994,-21.387,-23.742
9641.5,-57.519,-47.994,-20.387,-23.742
9651.4,-46.519,-38.994,-21.387,-22.742
9661.3,-35.519,-30.994,-21.387,-21.742
9671.2,-24.519,-26.994,-24.387,-21.742
9681.1,-15.519,-23.994,-23.387,-20.742
9691.0,-8.5193,-22.994,-24.387,-22.742
9700.9,-2.5193,-24.994,-23.387,-22.742
9710.7,3.4807,-23.994,-18.387,-20.742
9720.6,9.4807,-23.994,-13.387,-16.742
9730.5,12.481,-23.994,-6.3866,-14.742
9740.4,17.481,-21.994,0.61343,-12.742
9750.3,25.481,-20.994,7.6134,-10.742
9760.2,27.481,-19.994,11.613,-9.7421
9770.1,34.481,-15.994,14.613,-8.7421
9779.9,41.481,-13.994,19.613,-8.7421
9789.8,44.481,-11.994,22.613,-9.7421
9799.7,46.481,-11.994,25.613,-9.7421
9809.6,46.481,-11.994,26.613,-10.742
9819.5,43.481,-13.994,26.613,-10.742
9829.4,48.481,-11.994,29.613,-12.742
9839.3,52.481,-10.994,25.613,-14.742
9849.1,54.481,-8.9937,26.613,-14.742
9859.0,60.481,-4.9937,26.613,-14.742
9868.9,59.481,-3.9937,27.613,-14.742
9878.8,58.481,-4.9937,24.613,-16.742
9888.7,58.481,-4.9937,24.613,-15.742
9898.6,58.481,-5.9937,25.613,-16.742
9908.5,57.481,-5.9937,21.613,-17.742
9918.3,57.481,-7.9937,22.613,-17.742
9928.2,55.481,-7.9937,22.613,-17.742
9938.1,53.481,-8.9937,21.613,-17.742
9948.0,53.481,-6.9937,20.613,-19.742
9957.9,53.481,-7.9937,20.613,-19.742
9967.8,49.481,-7.9937,20.613,-17.742
9977.7,48.481,-7.9937,20.613,-17.742
9987.5,41.481,-10.994,21.613,-17.742
9997.4,36.481,-13.994,21.613,-17.742
10007.0,30.481,-15.994,22.613,-16.742
10017.0,24.481,-17.994,22.613,-16.742
10027.0,21.481,-19.994,18.613,-16.742
10037.0,17.481,-22.994,18.613,-16.742
10047.0,14.481,-23.994,14.613,-19.742
10057.0,10.481,-24.994,14.613,-19.742
10067.0,10.481,-24.994,12.613,-20.742
10077.0,2.4807,-25.994,12.613,-20.742
10086.0,2.4807,-25.994,8.6134,-23.742
10096.0,-5.5193,-28.994,8.6134,-23.742
10106.0,-5.5193,-28.994,7.6134,-21.742
10116.0,-14.519,-30.994,7.6134,-21.742
10126.0,-14.519,-30.994,2.6134,-23.742
10136.0,-23.519,-34.994,2.6134,-23.742
10146.0,-23.519,-34.994,-0.38657,-24.742
10156.0,-35.519,-38.994,-0.38657,-24.742
10166.0,-35.519,-38.994,-2.3866,-24.742
10175.0,-45.519,-42.994,-3.3866,-27.742
10185.0,-45.519,-42.994,-11.387,-27.742
10195.0,-34.519,-30.994,-11.387,-27.742
10205.0,-34.519,-30.994,-12.387,-28.742
10215.0,-13.519,-16.994,-13.387,-29.742
10225.0,-13.519,-16.994,-16.387,-30.742
10235.0,-0.51931,-11.994,-17.387,-30.742
10245.0,7.4807,-10.994,-17.387,-30.742
10255.0,13.481,-8.9937,-18.387,-31.742
10264.0,19.481,-7.9937,-18.387,-29.742
10274.0,29.481,-6.9937,-16.387,-28.742
10284.0,34.481,-6.9937,-9.3866,-26.742
10294.0,39.481,-4.9937,-5.3866,-26.742
10304.0,47.481,-2.9937,0.61343,-23.742
10314.0,54.481,-0.99367,4.6134,-22.742
10324.0,60.481,2.0063,7.6134,-22.742
10334.0,68.481,4.0063,11.613,-20.742
10343.0,74.481,8.0063,16.613,-18.742
10353.0,78.481,8.0063,17.613,-17.742
10363.0,81.481,8.0063,19.613,-17.742
10373.0,81.481,7.0063,20.613,-18.742
10383.0,79.481,6.0063,20.613,-18.742
10393.0,82.481,6.0063,23.613,-19.742
10403.0,84.481,9.0063,19.613,-21.742
10413.0,82.481,9.0063,19.613,-22.742
10423.0,87.481,12.006,17.613,-23.742
10432.0,91.481,15.006,15.613,-25.742
10442.0,96.481,19.006,10.613,-29.742
10452.0,97.481,23.006,7.6134,-30.742
10462.0,99.481,23.006,4.6134,-33.742
10472.0,97.481,23.006,2.6134,-32.742
10482.0,97.481,24.006,2.6134,-34.742
10492.0,96.481,24.006,-0.38657,-36.742
10502.0,96.481,25.006,-1.3866,-37.742
10512.0,97.481,24.006,-2.3866,-39.742
10521.0,96.481,24.006,-5.3866,-40.742
10531.0,94.481,25.006,-8.3866,-42.742
10541.0,90.481,24.006,-8.3866,-42.742
10551.0,88.481,22.006,-8.3866,-43.742
10561.0,83.481,23.006,-10.387,-42.742
10571.0,80.481,21.006,-10.387,-42.742
10581.0,76.481,19.006,-12.387,-43.742
10591.0,71.481,17.006,-14.387,-45.742
10601.0,66.481,15.006,-16.387,-44.742
10610.0,58.481,12.006,-22.387,-48.742
10620.0,54.481,9.0063,-24.387,-51.742
10630.0,48.481,8.0063,-27.387,-51.742
10640.0,43.481,6.0063,-29.387,-53.742
10650.0,39.481,5.0063,-33.387,-56.742
10660.0,34.481,3.0063,-33.387,-54.742
10670.0,27.481,1.0063,-36.387,-57.742
10680.0,22.481,0.0063274,-39.387,-58.742
10689.0,17.481,-1.9937,-40.387,-58.742
10699.0,13.481,-2.9937,-44.387,-59.742
10709.0,9.4807,-3.9937,-45.387,-60.742
10719.0,2.4807,-4.9937,-49.387,-61.742
10729.0,-3.5193,-6.9937,-49.387,-62.742
10739.0,-6.5193,-5.9937,-51.387,-61.742
10749.0,-8.5193,-4.9937,-55.387,-63.742
10759.0,-2.5193,1.0063,-57.387,-64.742
10769.0,4.4807,6.0063,-61.387,-66.742
10778.0,14.481,13.006,-63.387,-65.742
10788.0,27.481,17.006,-61.387,-65.742
10798.0,36.481,16.006,-65.387,-64.742
10808.0,43.481,16.006,-64.387,-65.742
10818.0,50.481,16.006,-66.387,-64.742
10828.0,56.481,17.006,-61.387,-62.742
10838.0,60.481,15.006,-51.387,-59.742
10848.0,67.481,18.006,-48.387,-58.742
10858.0,71.481,17.006,-43.387,-57.742
10867.0,77.481,20.006,-41.387,-54.742
10877.0,81.481,22.006,-36.387,-54.742
10887.0,88.481,23.006,-31.387,-52.742
10897.0,93.481,26.006,-28.387,-53.742
10907.0,101.48,28.006,-25.387,-51.742
10917.0,105.48,29.006,-22.387,-51.742
10927.0,104.48,27.006,-21.387,-50.742
10937.0,104.48,27.006,-20.387,-53.742
10947.0,104.48,26.006,-22.387,-53.742
10956.0,104.48,26.006,-22.387,-54.742
10966.0,106.48,28.006,-25.387,-55.742
10976.0,106.48,28.006,-27.387,-58.742
10986.0,107.48,31.006,-31.387,-58.742
10996.0,107.48,31.006,-33.387,-59.742
11006.0,108.48,31.006,-36.387,-60.742
11016.0,108.48,31.006,-39.387,-61.742
11026.0,109.48,31.006,-39.387,-62.742
11035.0,109.48,31.006,-44.387,-63.742
11045.0,106.48,30.006,-43.387,-63.742
11055.0,106.48,30.006,-47.387,-64.742
11065.0,104.48,27.006,-47.387,-64.742
11075.0,104.48,27.006,-52.387,-66.742
11085.0,98.481,27.006,-52.387,-66.742
11095.0,98.481,27.006,-56.387,-67.742
11105.0,95.481,26.006,-56.387,-67.742
11115.0,92.481,25.006,-55.387,-65.742
11124.0,87.481,25.006,-55.387,-65.742
11134.0,86.481,24.006,-61.387,-66.742
11144.0,80.481,22.006,-61.387,-66.742
11154.0,76.481,21.006,-66.387,-68.742
11164.0,71.481,20.006,-66.387,-68.742
11174.0,68.481,18.006,-71.387,-71.742
11184.0,62.481,17.006,-71.387,-71.742
11194.0,57.481,15.006,-74.387,-70.742
11204.0,52.481,14.006,-74.387,-70.742
11213.0,46.481,12.006,-77.387,-70.742
11223.0,43.481,10.006,-77.387,-70.742
11233.0,36.481,8.0063,-79.387,-72.742
11243.0,33.481,6.0063,-79.387,-72.742
11253.0,26.481,4.0063,-84.387,-71.742
11263.0,20.481,2.0063,-84.387,-71.742
11273.0,16.481,1.0063,-83.387,-75.742
11283.0,8.4807,-1.9937,-89.387,-75.742
11292.0,2.4807,-4.9937,-87.387,-75.742
11302.0,-4.5193,-6.9937,-90.387,-75.742
11312.0,-10.519,-7.9937,-91.387,-75.742
11322.0,-13.519,-6.9937,-92.387,-75.742
11332.0,-10.519,-2.9937,-93.387,-75.742
11342.0,-6.5193,1.0063,-98.387,-75.742
11352.0,2.4807,8.0063,-97.387,-74.742
11362.0,14.481,12.006,-99.387,-76.742
11372.0,24.481,14.006,-101.39,-76.742
11381.0,34.481,14.006,-101.39,-77.742
11391.0,38.481,13.006,-102.39,-76.742
11401.0,46.481,15.006,-99.387,-74.742
11411.0,50.481,14.006,-95.387,-74.742
11421.0,56.481,14.006,-90.387,-70.742
11431.0,57.481,14.006,-84.387,-69.742
11441.0,62.481,14.006,-79.387,-68.742
11451.0,68.481,16.006,-76.387,-67.742
11461.0,72.481,20.006,-72.387,-66.742
11470.0,78.481,21.006,-68.387,-64.742
11480.0,82.481,21.006,-64.387,-63.742
11490.0,84.481,22.006,-62.387,-64.742
11500.0,86.481,21.006,-59.387,-64.742
11510.0,85.481,22.006,-61.387,-65.742
11520.0,85.481,22.006,-62.387,-65.742
11530.0,86.481,23.006,-64.387,-64.742
11540.0,86.481,24.006,-61.387,-65.742
11550.0,88.481,27.006,-63.387,-65.742
11559.0,88.481,26.006,-64.387,-65.742
11569.0,85.481,25.006,-65.387,-66.742
11579.0,85.481,25.006,-69.387,-66.742
11589.0,85.481,24.006,-68.387,-67.742
11599.0,83.481,21.006,-72.387,-68.742
11609.0,79.481,20.006,-75.387,-69.742
11619.0,75.481,16.006,-76.387,-68.742
11629.0,71.481,14.006,-78.387,-70.742
11638.0,67.481,10.006,-81.387,-71.742
11648.0,61.481,8.0063,-81.387,-70.742
11658.0,57.481,5.0063,-83.387,-73.742
11668.0,52.481,4.0063,-83.387,-71.742
11678.0,48.481,2.0063,-84.387,-68.742
11688.0,43.481,0.0063274,-81.387,-70.742
11698.0,40.481,-2.9937,-84.387,-68.742
11708.0,37.481,-2.9937,-84.387,-69.742
11718.0,31.481,-4.9937,-87.387,-68.742
11727.0,29.481,-2.9937,-88.387,-69.742
11737.0,26.481,-4.9937,-89.387,-71.742
11747.0,20.481,-4.9937,-90.387,-70.742
11757.0,18.481,-4.9937,-92.387,-70.742
11767.0,15.481,-6.9937,-92.387,-71.742
11777.0,9.4807,-7.9937,-94.387,-71.742
11787.0,9.4807,-7.9937,-94.387,-71.742
11797.0,-0.51931,-9.9937,-95.387,-71.742
11807.0,-0.51931,-9.9937,-96.387,-71.742
11816.0,-12.519,-13.994,-96.387,-70.742
11826.0,-12.519,-13.994,-97.387,-69.742
11836.0,-22.519,-18.994,-98.387,-70.742
11846.0,-22.519,-18.994,-99.387,-69.742
11856.0,-35.519,-23.994,-100.39,-68.742
11866.0,-35.519,-23.994,-98.387,-67.742
11876.0,-49.519,-27.994,-102.39,-68.742
11886.0,-49.519,-27.994,-101.39,-69.742
11896.0,-59.519,-28.994,-105.39,-69.742
11905.0,-59.519,-28.994,-108.39,-70.742
11915.0,-51.519,-17.994,-107.39,-71.742
11925.0,-51.519,-17.994,-111.39,-72.742
11935.0,-29.519,-8.9937,-109.39,-71.742
11945.0,-29.519,-8.9937,-109.39,-72.742
11955.0,-20.519,-6.9937,-110.39,-73.742
11965.0,-12.519,-6.9937,-109.39,-73.742
11975.0,-2.5193,-6.9937,-107.39,-72.742
11984.0,2.4807,-6.9937,-102.39,-69.742
11994.0,8.4807,-6.9937,-97.387,-69.742
12004.0,8.4807,-6.9937,-92.387,-66.742
12014.0,12.481,-6.9937,-87.387,-64.742
12024.0,13.481,-8.9937,-82.387,-61.742
12034.0,15.481,-6.9937,-77.387,-61.742
12044.0,19.481,-4.9937,-72.387,-58.742
12054.0,21.481,-3.9937,-68.387,-58.742
12064.0,25.481,-2.9937,-67.387,-57.742
12073.0,24.481,-3.9937,-65.387,-57.742
12083.0,23.481,-3.9937,-62.387,-56.742
12093.0,23.481,-4.9937,-62.387,-56.742
12103.0,23.481,-4.9937,-58.387,-57.742
12113.0,19.481,-6.9937,-58.387,-57.742
12123.0,19.481,-3.9937,-58.387,-55.742
12133.0,22.481,-3.9937,-58.387,-55.742
12143.0,20.481,-3.9937,-59.387,-56.742
12153.0,19.481,-4.9937,-59.387,-56.742
12162.0,19.481,-4.9937,-59.387,-55.742
12172.0,19.481,-5.9937,-59.387,-55.742
12182.0,19.481,-5.9937,-61.387,-55.742
12192.0,18.481,-5.9937,-61.387,-55.742
12202.0,18.481,-4.9937,-59.387,-54.742
12212.0,15.481,-4.9937,-59.387,-54.742
12222.0,16.481,-5.9937,-60.387,-54.742
12232.0,14.481,-5.9937,-60.387,-54.742
12242.0,10.481,-7.9937,-61.387,-54.742
12251.0,10.481,-5.9937,-61.387,-54.742
12261.0,6.4807,-7.9937,-58.387,-53.742
12271.0,2.4807,-9.9937,-58.387,-53.742
12281.0,-2.5193,-9.9937,-60.387,-52.742
12291.0,-6.5193,-10.994,-60.387,-52.742
12301.0,-10.519,-13.994,-58.387,-51.742
12311.0,-13.519,-13.994,-58.387,-51.742
12321.0,-18.519,-14.994,-60.387,-52.742
12330.0,-24.519,-16.994,-58.387,-52.742
12340.0,-29.519,-18.994,-62.387,-50.742
12350.0,-34.519,-20.994,-60.387,-52.742
12360.0,-40.519,-23.994,-59.387,-51.742
12370.0,-45.519,-24.994,-62.387,-51.742
12380.0,-50.519,-25.994,-62.387,-51.742
12390.0,-56.519,-27.994,-63.387,-51.742
12400.0,-63.519,-30.994,-65.387,-51.742
12410.0,-68.519,-31.994,-68.387,-53.742
12419.0,-74.519,-33.994,-66.387,-55.742
12429.0,-80.519,-36.994,-71.387,-56.742
12439.0,-89.519,-37.994,-75.387,-58.742
12449.0,-94.519,-40.994,-76.387,-59.742
12459.0,-101.52,-41.994,-78.387,-59.742
12469.0,-102.52,-40.994,-79.387,-61.742
12479.0,-99.519,-36.994,-80.387,-62.742
12489.0,-93.519,-29.994,-82.387,-61.742
12499.0,-83.519,-23.994,-81.387,-61.742
12508.0,-70.519,-20.994,-82.387,-61.742
12518.0,-60.519,-16.994,-83.387,-62.742
12528.0,-51.519,-17.994,-85.387,-62.742
12538.0,-44.519,-18.994,-86.387,-64.742
12548.0,-39.519,-20.994,-84.387,-63.742
12558.0,-38.519,-21.994,-81.387,-62.742
12568.0,-37.519,-24.994,-75.387,-58.742
12578.0,-38.519,-24.994,-69.387,-55.742
12588.0,-38.519,-26.994,-64.387,-53.742
12597.0,-36.519,-27.994,-60.387,-50.742
12607.0,-35.519,-27.994,-54.387,-50.742
12617.0,-38.519,-28.994,-49.387,-47.742
12627.0,-38.519,-28.994,-45.387,-47.742
12637.0,-38.519,-28.994,-43.387,-47.742
12647.0,-40.519,-30.994,-42.387,-45.742
12657.0,-40.519,-30.994,-38.387,-43.742
12667.0,-43.519,-29.994,-35.387,-43.742
12676.0,-43.519,-29.994,-36.387,-42.742
12686.0,-43.519,-28.994,-33.387,-43.742
12696.0,-43.519,-28.994,-33.387,-41.742
12706.0,-44.519,-28.994,-33.387,-41.742
12716.0,-44.519,-28.994,-34.387,-40.742
12726.0,-41.519,-27.994,-33.387,-41.742
12736.0,-41.519,-27.994,-33.387,-40.742
12746.0,-43.519,-28.994,-34.387,-40.742
12756.0,-43.519,-28.994,-36.387,-40.742
12765.0,-44.519,-29.994,-35.387,-41.742
12775.0,-44.519,-29.994,-37.387,-39.742
12785.0,-49.519,-28.994,-37.387,-40.742
12795.0,-49.519,-28.994,-37.387,-39.742
12805.0,-50.519,-28.994,-38.387,-38.742
12815.0,-51.519,-28.994,-37.387,-40.742
12825.0,-55.519,-29.994,-37.387,-38.742
12835.0,-58.519,-29.994,-38.387,-38.742
12845.0,-60.519,-29.994,-40.387,-39.742
12854.0,-63.519,-29.994,-37.387,-39.742
12864.0,-66.519,-30.994,-37.387,-40.742
12874.0,-69.519,-31.994,-43.387,-41.742
12884.0,-74.519,-30.994,-43.387,-41.742
12894.0,-77.519,-33.994,-44.387,-41.742
12904.0,-80.519,-34.994,-45.387,-42.742
12914.0,-87.519,-35.994,-45.387,-41.742
12924.0,-91.519,-37.994,-46.387,-41.742
12934.0,-95.519,-38.994,-46.387,-43.742
12943.0,-100.52,-39.994,-48.387,-42.742
12953.0,-103.52,-40.994,-53.387,-45.742
12963.0,-108.52,-42.994,-54.387,-45.742
12973.0,-112.52,-44.994,-56.387,-48.742
12983.0,-120.52,-45.994,-58.387,-49.742
12993.0,-126.52,-47.994,-61.387,-50.742
13003.0,-134.52,-49.994,-64.387,-52.742
13013.0,-137.52,-50.994,-65.387,-53.742
13022.0,-141.52,-48.994,-66.387,-52.742
13032.0,-131.52,-40.994,-70.387,-54.742
13042.0,-124.52,-32.994,-71.387,-55.742
13052.0,-111.52,-24.994,-72.387,-56.742
13062.0,-96.519,-17.994,-74.387,-55.742
13072.0,-84.519,-14.994,-77.387,-56.742
13082.0,-73.519,-13.994,-77.387,-59.742
13092.0,-65.519,-12.994,-75.387,-57.742
13102.0,-56.519,-11.994,-73.387,-56.742
13111.0,-49.519,-11.994,-70.387,-54.742
13121.0,-46.519,-11.994,-63.387,-52.742
13131.0,-45.519,-13.994,-59.387,-51.742
13141.0,-45.519,-15.994,-55.387,-49.742
13151.0,-45.519,-14.994,-50.387,-46.742
13161.0,-41.519,-12.994,-50.387,-46.742
13171.0,-40.519,-12.994,-40.387,-44.742
13181.0,-38.519,-12.994,-40.387,-44.742
13191.0,-36.519,-12.994,-35.387,-43.742
13200.0,-37.519,-13.994,-35.387,-43.742
13210.0,-41.519,-14.994,-33.387,-42.742
13220.0,-38.519,-12.994,-33.387,-42.742
13230.0,-39.519,-10.994,-33.387,-43.742
13240.0,-40.519,-10.994,-33.387,-43.742
13250.0,-38.519,-8.9937,-32.387,-42.742
13260.0,-37.519,-10.994,-32.387,-42.742
13270.0,-38.519,-10.994,-36.387,-44.742
13280.0,-37.519,-10.994,-36.387,-44.742
13289.0,-38.519,-10.994,-39.387,-43.742
13299.0,-37.519,-11.994,-39.387,-43.742
13309.0,-41.519,-12.994,-39.387,-43.742
13319.0,-42.519,-13.994,-39.387,-43.742
13329.0,-44.519,-14.994,-44.387,-45.742
13339.0,-48.519,-15.994,-44.387,-45.742
13349.0,-50.519,-18.994,-46.387,-46.742
13359.0,-53.519,-18.994,-46.387,-46.742
13368.0,-56.519,-18.994,-46.387,-45.742
13378.0,-59.519,-19.994,-47.387,-47.742
13388.0,-62.519,-20.994,-47.387,-45.742
13398.0,-66.519,-21.994,-48.387,-45.742
13408.0,-71.519,-22.994,-48.387,-46.742
13418.0,-75.519,-24.994,-51.387,-46.742
13428.0,-79.519,-24.994,-52.387,-46.742
13438.0,-84.519,-26.994,-53.387,-47.742
13448.0,-86.519,-27.994,-55.387,-48.742
13457.0,-92.519,-28.994,-57.387,-50.742
13467.0,-98.519,-29.994,-60.387,-49.742
13477.0,-104.52,-31.994,-61.387,-49.742
13487.0,-104.52,-31.994,-61.387,-50.742
13497.0,-111.52,-33.994,-61.387,-51.742
13507.0,-111.52,-33.994,-65.387,-50.742
13517.0,-123.52,-36.994,-67.387,-53.742
13527.0,-123.52,-36.994,-67.387,-51.742
13537.0,-136.52,-41.994,-72.387,-53.742
13546.0,-136.52,-41.994,-75.387,-54.742
13556.0,-143.52,-41.994,-76.387,-55.742
13566.0,-143.52,-41.994,-79.387,-56.742
13576.0,-131.52,-27.994,-82.387,-57.742
13586.0,-131.52,-27.994,-85.387,-58.742
13596.0,-103.52,-13.994,-87.387,-57.742
13606.0,-103.52,-13.994,-89.387,-58.742
13616.0,-81.519,-8.9937,-92.387,-59.742
13626.0,-81.519,-8.9937,-93.387,-60.742
13635.0,-65.519,-8.9937,-94.387,-62.742
13645.0,-65.519,-8.9937,-92.387,-60.742
13655.0,-59.519,-8.9937,-87.387,-58.742
13665.0,-54.519,-10.994,-81.387,-54.742
13675.0,-51.519,-10.994,-76.387,-52.742
13685.0,-49.519,-10.994,-74.387,-53.742
13695.0,-44.519,-9.9937,-66.387,-51.742
13705.0,-42.519,-8.9937,-64.387,-49.742
13714.0,-37.519,-5.9937,-60.387,-47.742
13724.0,-33.519,-3.9937,-57.387,-46.742
13734.0,-32.519,-2.9937,-53.387,-44.742
13744.0,-28.519,-0.99367,-51.387,-43.742
13754.0,-29.519,-0.99367,-52.387,-44.742
13764.0,-27.519,-1.9937,-50.387,-45.742
13774.0,-26.519,0.0063274,-52.387,-44.742
13784.0,-27.519,0.0063274,-55.387,-46.742
13794.0,-26.519,2.0063,-51.387,-44.742
13803.0,-24.519,4.0063,-52.387,-45.742
13813.0,-24.519,5.0063,-55.387,-44.742
13823.0,-24.519,4.0063,-56.387,-45.742
13833.0,-22.519,4.0063,-55.387,-44.742
13843.0,-23.519,3.0063,-56.387,-45.742
13853.0,-25.519,3.0063,-58.387,-45.742
13863.0,-27.519,3.0063,-60.387,-45.742
13873.0,-28.519,2.0063,-62.387,-44.742
13883.0,-29.519,1.0063,-64.387,-45.742
13892.0,-31.519,2.0063,-64.387,-47.742
13902.0,-33.519,1.0063,-66.387,-47.742
13912.0,-35.519,0.0063274,-68.387,-46.742
13922.0,-37.519,-0.99367,-67.387,-47.742
13932.0,-40.519,-0.99367,-66.387,-47.742
13942.0,-45.519,-1.9937,-68.387,-46.742
13952.0,-47.519,-1.9937,-68.387,-46.742
13962.0,-51.519,-1.9937,-69.387,-45.742
13972.0,-53.519,-3.9937,-73.387,-46.742
13981.0,-59.519,-4.9937,-73.387,-48.742
13991.0,-65.519,-6.9937,-74.387,-49.742
14001.0,-70.519,-10.994,-78.387,-50.742
14011.0,-75.519,-11.994,-79.387,-49.742
14021.0,-83.519,-13.994,-79.387,-51.742
14031.0,-86.519,-16.994,-84.387,-50.742
14041.0,-93.519,-18.994,-86.387,-52.742
14051.0,-97.519,-20.994,-86.387,-53.742
14060.0,-104.52,-23.994,-88.387,-52.742
14070.0,-112.52,-27.994,-92.387,-50.742
14080.0,-117.52,-27.994,-90.387,-51.742
14090.0,-125.52,-30.994,-93.387,-50.742
14100.0,-124.52,-28.994,-98.387,-52.742
14110.0,-118.52,-23.994,-99.387,-52.742
14120.0,-112.52,-17.994,-103.39,-54.742
14130.0,-102.52,-9.9937,-103.39,-53.742
14140.0,-86.519,-4.9937,-104.39,-53.742
14149.0,-74.519,-2.9937,-104.39,-52.742
14159.0,-62.519,-1.9937,-105.39,-53.742
14169.0,-56.519,-2.9937,-105.39,-53.742
14179.0,-47.519,0.0063274,-102.39,-52.742
14189.0,-43.519,-0.99367,-102.39,-52.742
14199.0,-40.519,-0.99367,-93.387,-48.742
14209.0,-37.519,-1.9937,-93.387,-48.742
14219.0,-35.519,-0.99367,-84.387,-46.742
14229.0,-31.519,2.0063,-84.387,-46.742
14238.0,-26.519,3.0063,-75.387,-43.742
14248.0,-25.519,5.0063,-75.387,-43.742
14258.0,-21.519,6.0063,-68.387,-39.742
14268.0,-20.519,6.0063,-68.387,-39.742
14278.0,-20.519,6.0063,-62.387,-37.742
14288.0,-23.519,6.0063,-62.387,-37.742
14298.0,-20.519,7.0063,-62.387,-40.742
14308.0,-21.519,7.0063,-62.387,-40.742
14318.0,-21.519,7.0063,-64.387,-40.742
14327.0,-22.519,10.006,-64.387,-40.742
14337.0,-22.519,10.006,-65.387,-40.742
14347.0,-20.519,10.006,-65.387,-40.742
14357.0,-20.519,10.006,-66.387,-39.742
14367.0,-21.519,8.0063,-66.387,-39.742
14377.0,-21.519,8.0063,-68.387,-38.742
14387.0,-23.519,7.0063,-69.387,-38.742
14397.0,-23.519,7.0063,-68.387,-38.742
14406.0,-29.519,3.0063,-70.387,-40.742
14416.0,-29.519,3.0063,-70.387,-40.742
14426.0,-35.519,-2.9937,-70.387,-39.742
14436.0,-35.519,-2.9937,-71.387,-39.742
14446.0,-45.519,-6.9937,-71.387,-39.742
14456.0,-45.519,-6.9937,-70.387,-39.742
14466.0,-57.519,-12.994,-72.387,-37.742
14476.0,-57.519,-12.994,-71.387,-36.742
14486.0,-62.519,-16.994,-71.387,-36.742
14495.0,-67.519,-19.994,-72.387,-37.742
14505.0,-73.519,-22.994,-73.387,-38.742
14515.0,-79.519,-25.994,-74.387,-38.742
14525.0,-82.519,-27.994,-75.387,-40.742
14535.0,-88.519,-29.994,-78.387,-42.742
14545.0,-90.519,-30.994,-80.387,-41.742
14555.0,-96.519,-31.994,-80.387,-40.742
14565.0,-98.519,-32.994,-82.387,-42.742
14575.0,-102.52,-34.994,-83.387,-42.742
14584.0,-106.52,-35.994,-84.387,-42.742
14594.0,-107.52,-36.994,-87.387,-42.742
14604.0,-110.52,-36.994,-89.387,-42.742
14614.0,-114.52,-38.994,-89.387,-44.742
14624.0,-115.52,-36.994,-91.387,-43.742
14634.0,-117.52,-34.994,-92.387,-45.742
14644.0,-108.52,-26.994,-93.387,-45.742
14654.0,-100.52,-19.994,-94.387,-45.742
14664.0,-89.519,-13.994,-96.387,-45.742
14673.0,-74.519,-8.9937,-98.387,-44.742
14683.0,-62.519,-7.9937,-96.387,-45.742
14693.0,-56.519,-6.9937,-99.387,-44.742
14703.0,-48.519,-6.9937,-95.387,-45.742
14713.0,-44.519,-6.9937,-93.387,-43.742
14723.0,-39.519,-7.9937,-87.387,-40.742
14733.0,-35.519,-8.9937,-81.387,-38.742
14743.0,-34.519,-7.9937,-76.387,-36.742
14752.0,-33.519,-9.9937,-71.387,-34.742
14762.0,-31.519,-7.9937,-63.387,-34.742
14772.0,-30.519,-8.9937,-61.387,-30.742
14782.0,-28.519,-7.9937,-56.387,-31.742
14792.0,-28.519,-8.9937,-51.387,-26.742
14802.0,-29.519,-10.994,-49.387,-26.742
14812.0,-33.519,-12.994,-43.387,-24.742
14822.0,-34.519,-12.994,-42.387,-24.742
14832.0,-31.519,-9.9937,-40.387,-23.742
14841.0,-32.519,-10.994,-39.387,-22.742
14851.0,-30.519,-10.994,-36.387,-21.742
14861.0,-29.519,-9.9937,-37.387,-21.742
14871.0,-32.519,-9.9937,-36.387,-19.742
14881.0,-32.519,-10.994,-39.387,-18.742
14891.0,-31.519,-12.994,-34.387,-17.742
14901.0,-33.519,-12.994,-35.387,-17.742
14911.0,-34.519,-13.994,-33.387,-15.742
14921.0,-35.519,-14.994,-29.387,-13.742
14930.0,-35.519,-15.994,-32.387,-14.742
14940.0,-38.519,-16.994,-31.387,-13.742
14950.0,-39.519,-16.994,-31.387,-13.742
14960.0,-42.519,-18.994,-31.387,-14.742
14970.0,-45.519,-18.994,-31.387,-12.742
14980.0,-47.519,-20.994,-28.387,-10.742
14990.0,-51.519,-20.994,-26.387,-11.742
15000.0,-50.519,-20.994,-26.387,-10.742
15010.0,-51.519,-20.994,-25.387,-9.7421
15019.0,-53.519,-22.994,-25.387,-7.7421
15029.0,-59.519,-23.994,-23.387,-8.7421
15039.0,-62.519,-23.994,-25.387,-8.7421
15049.0,-64.519,-25.994,-24.387,-8.7421
15059.0,-68.519,-28.994,-24.387,-8.7421
15069.0,-71.519,-27.994,-22.387,-7.7421
15079.0,-73.519,-27.994,-22.387,-5.7421
15089.0,-76.519,-28.994,-21.387,-5.7421
15098.0,-79.519,-29.994,-21.387,-4.7421
15108.0,-83.519,-31.994,-19.387,-3.7421
15118.0,-85.519,-31.994,-22.387,-4.7421
15128.0,-90.519,-32.994,-21.387,-1.7421
15138.0,-96.519,-33.994,-22.387,-2.7421
15148.0,-93.519,-31.994,-22.387,-2.7421
15158.0,-87.519,-25.994,-21.387,-0.74209
15168.0,-75.519,-16.994,-20.387,0.25791
15178.0,-64.519,-10.994,-20.387,2.2579
15187.0,-64.519,-10.994,-18.387,3.2579
15197.0,-44.519,-4.9937,-18.387,4.2579
15207.0,-44.519,-4.9937,-19.387,5.2579
15217.0,-32.519,-5.9937,-19.387,5.2579
15227.0,-32.519,-5.9937,-10.387,7.2579
15237.0,-28.519,-9.9937,-10.387,7.2579
15247.0,-28.519,-9.9937,-2.3866,11.258
15257.0,-29.519,-13.994,-2.3866,11.258
15267.0,-29.519,-13.994,11.613,17.258
15276.0,-31.519,-15.994,11.613,17.258
15286.0,-31.519,-15.994,19.613,20.258
15296.0,-27.519,-12.994,19.613,20.258
15306.0,-27.519,-12.994,27.613,23.258
15316.0,-29.519,-13.994,27.613,23.258
15326.0,-29.519,-13.994,30.613,24.258
15336.0,-31.519,-13.994,30.613,24.258
15346.0,-31.519,-13.994,34.613,23.258
15356.0,-29.519,-12.994,34.613,23.258
15365.0,-29.519,-12.994,35.613,23.258
15375.0,-27.519,-10.994,35.613,23.258
15385.0,-25.519,-10.994,33.613,24.258
15395.0,-27.519,-10.994,33.613,24.258
15405.0,-29.519,-9.9937,34.613,25.258
15415.0,-28.519,-10.994,34.613,25.258
15425.0,-29.519,-10.994,31.613,24.258
15435.0,-31.519,-12.994,31.613,24.258
15444.0,-35.519,-13.994,30.613,23.258
15454.0,-36.519,-14.994,31.613,23.258
15464.0,-38.519,-17.994,29.613,24.258
15474.0,-43.519,-18.994,27.613,21.258
15484.0,-46.519,-21.994,26.613,22.258
15494.0,-50.519,-24.994,27.613,24.258
15504.0,-54.519,-27.994,27.613,24.258
15514.0,-62.519,-28.994,28.613,25.258
15524.0,-64.519,-30.994,29.613,28.258
15533.0,-66.519,-31.994,30.613,27.258
15543.0,-70.519,-31.994,30.613,29.258
15553.0,-74.519,-32.994,29.613,29.258
15563.0,-75.519,-32.994,27.613,26.258
15573.0,-76.519,-30.994,25.613,27.258
15583.0,-78.519,-29.994,24.613,25.258
15593.0,-78.519,-28.994,25.613,26.258
15603.0,-80.519,-28.994,23.613,25.258
15613.0,-82.519,-28.994,21.613,24.258
15622.0,-85.519,-28.994,22.613,24.258
15632.0,-88.519,-29.994,22.613,23.258
15642.0,-93.519,-29.994,21.613,24.258
15652.0,-94.519,-26.994,20.613,24.258
15662.0,-87.519,-20.994,18.613,23.258
15672.0,-75.519,-11.994,18.613,23.258
15682.0,-65.519,-2.9937,17.613,24.258
15692.0,-53.519,2.0063,19.613,26.258
15702.0,-43.519,5.0063,17.613,26.258
15711.0,-35.519,4.0063,17.613,25.258
15721.0,-32.519,5.0063,16.613,25.258
15731.0,-26.519,3.0063,19.613,25.258
15741.0,-21.519,3.0063,22.613,27.258
15751.0,-17.519,2.0063,27.613,28.258
15761.0,-15.519,1.0063,31.613,29.258
15771.0,-14.519,1.0063,34.613,31.258
15781.0,-11.519,1.0063,42.613,32.258
15790.0,-7.5193,2.0063,45.613,32.258
15800.0,-7.5193,4.0063,50.613,34.258
15810.0,-3.5193,5.0063,52.613,35.258
15820.0,-1.5193,5.0063,55.613,36.258
15830.0,-1.5193,4.0063,58.613,36.258
15840.0,-2.5193,3.0063,58.613,37.258
15850.0,-4.5193,2.0063,61.613,38.258
15860.0,-3.5193,3.0063,61.613,37.258
15870.0,-4.5193,3.0063,62.613,37.258
15879.0,-1.5193,5.0063,61.613,36.258
15889.0,-0.51931,4.0063,60.613,35.258
15899.0,-2.5193,4.0063,59.613,34.258
15909.0,-1.5193,2.0063,60.613,33.258
15919.0,-2.5193,3.0063,55.613,33.258
15929.0,-4.5193,1.0063,54.613,31.258
15939.0,-6.5193,0.0063274,52.613,32.258
15949.0,-7.5193,-1.9937,51.613,31.258
15959.0,-9.5193,-2.9937,48.613,30.258
15968.0,-12.519,-3.9937,45.613,29.258
15978.0,-15.519,-2.9937,44.613,27.258
15988.0,-18.519,-5.9937,43.613,28.258
15998.0,-20.519,-3.9937,43.613,25.258
16008.0,-20.519,-4.9937,44.613,26.258
16018.0,-25.519,-5.9937,42.613,26.258
16028.0,-28.519,-6.9937,43.613,26.258
16038.0,-28.519,-6.9937,40.613,25.258
16048.0,-34.519,-9.9937,39.613,26.258
16057.0,-34.519,-9.9937,38.613,26.258
16067.0,-43.519,-12.994,36.613,24.258
16077.0,-43.519,-12.994,34.613,23.258
16087.0,-50.519,-14.994,33.613,22.258
16097.0,-50.519,-14.994,30.613,20.258
16107.0,-59.519,-16.994,26.613,20.258
16117.0,-59.519,-16.994,25.613,18.258
16127.0,-68.519,-20.994,22.613,18.258
16136.0,-68.519,-20.994,20.613,19.258
16146.0,-81.519,-23.994,21.613,19.258
16156.0,-81.519,-23.994,19.613,19.258
16166.0,-74.519,-14.994,16.613,18.258
16176.0,-74.519,-14.994,13.613,16.258
16186.0,-56.519,-2.9937,11.613,16.258
16196.0,-56.519,-2.9937,12.613,17.258
16206.0,-47.519,2.0063,12.613,17.258
16216.0,-38.519,1.0063,11.613,17.258
16225.0,-32.519,3.0063,11.613,17.258
16235.0,-25.519,1.0063,12.613,17.258
16245.0,-23.519,2.0063,16.613,19.258
16255.0,-19.519,1.0063,24.613,20.258
16265.0,-15.519,0.0063274,29.613,20.258
16275.0,-11.519,0.0063274,33.613,21.258
16285.0,-7.5193,1.0063,33.613,21.258
16295.0,-1.5193,3.0063,38.613,23.258
16305.0,3.4807,6.0063,38.613,23.258
16314.0,7.4807,7.0063,46.613,25.258
16324.0,13.481,9.0063,46.613,25.258
16334.0,14.481,10.006,50.613,25.258
16344.0,15.481,8.0063,50.613,25.258
16354.0,13.481,7.0063,50.613,23.258
16364.0,13.481,6.0063,50.613,23.258
16374.0,15.481,8.0063,48.613,20.258
16384.0,17.481,9.0063,48.613,20.258
16393.0,17.481,10.006,42.613,17.258
16403.0,18.481,10.006,42.613,17.258
16413.0,19.481,11.006,37.613,16.258
16423.0,16.481,10.006,37.613,16.258
16433.0,16.481,10.006,30.613,13.258
16443.0,14.481,9.0063,30.613,13.258
16453.0,15.481,8.0063,28.613,10.258
16463.0,12.481,7.0063,28.613,10.258
16473.0,11.481,7.0063,24.613,10.258
16482.0,9.4807,5.0063,21.613,7.2579
16492.0,8.4807,6.0063,18.613,7.2579
16502.0,6.4807,5.0063,19.613,4.2579
16512.0,3.4807,5.0063,18.613,5.2579
16522.0,2.4807,4.0063,13.613,6.2579
16532.0,0.48069,4.0063,13.613,2.2579
16542.0,-2.5193,3.0063,9.6134,4.2579
16552.0,-5.5193,2.0063,10.613,4.2579
16562.0,-10.519,1.0063,8.6134,3.2579
16571.0,-15.519,-1.9937,4.6134,1.2579
16581.0,-19.519,-1.9937,2.6134,0.25791
16591.0,-24.519,-3.9937,1.6134,-1.7421
16601.0,-28.519,-3.9937,-1.3866,-1.7421
16611.0,-34.519,-6.9937,-4.3866,-3.7421
16621.0,-37.519,-7.9937,-4.3866,-2.7421
16631.0,-41.519,-9.9937,-8.3866,-3.7421
16641.0,-47.519,-11.994,-9.3866,-3.7421
16651.0,-54.519,-14.994,-12.387,-4.7421
16660.0,-59.519,-14.994,-12.387,-4.7421
16670.0,-59.519,-12.994,-14.387,-3.7421
16680.0,-54.519,-9.9937,-18.387,-3.7421
16690.0,-49.519,-2.9937,-19.387,-7.7421
16700.0,-41.519,3.0063,-21.387,-5.7421
16710.0,-32.519,8.0063,-21.387,-5.7421
16720.0,-22.519,10.006,-23.387,-4.7421
16730.0,-14.519,11.006,-26.387,-5.7421
16739.0,-6.5193,11.006,-25.387,-4.7421
16749.0,0.48069,14.006,-21.387,-2.7421
16759.0,8.4807,15.006,-17.387,-2.7421
16769.0,15.481,19.006,-14.387,-0.74209
16779.0,23.481,22.006,-9.3866,3.2579
16789.0,30.481,25.006,-4.3866,4.2579
16799.0,39.481,29.006,-0.38657,6.2579
16809.0,48.481,33.006,4.6134,9.2579
16819.0,56.481,38.006,10.613,9.2579
16828.0,60.481,40.006,11.613,11.258
16838.0,62.481,40.006,11.613,10.258
16848.0,66.481,40.006,13.613,9.2579
16858.0,62.481,38.006,15.613,10.258
16868.0,65.481,40.006,13.613,10.258
16878.0,65.481,41.006,12.613,8.2579
16888.0,65.481,41.006,12.613,7.2579
16898.0,66.481,44.006,8.6134,7.2579
16908.0,66.481,44.006,7.6134,7.2579
16917.0,65.481,42.006,8.6134,5.2579
16927.0,65.481,42.006,3.6134,4.2579
16937.0,61.481,41.006,2.6134,3.2579
16947.0,61.481,41.006,-0.38657,1.2579
16957.0,55.481,35.006,-4.3866,-0.74209
16967.0,55.481,35.006,-5.3866,-1.7421
16977.0,45.481,32.006,-7.3866,-3.7421
16987.0,45.481,32.006,-9.3866,-6.7421
16997.0,41.481,30.006,-15.387,-6.7421
17006.0,41.481,30.006,-12.387,-6.7421
17016.0,34.481,29.006,-14.387,-8.7421
17026.0,34.481,29.006,-18.387,-9.7421
17036.0,26.481,26.006,-19.387,-10.742
17046.0,26.481,26.006,-21.387,-10.742
17056.0,21.481,22.006,-21.387,-10.742
17066.0,15.481,20.006,-22.387,-11.742
17076.0,7.4807,16.006,-22.387,-9.7421
17085.0,0.48069,9.0063,-25.387,-10.742
17095.0,-10.519,5.0063,-24.387,-10.742
17105.0,-17.519,1.0063,-28.387,-10.742
17115.0,-26.519,-3.9937,-26.387,-8.7421
17125.0,-33.519,-6.9937,-26.387,-10.742
17135.0,-40.519,-10.994,-29.387,-9.7421
17145.0,-45.519,-13.994,-32.387,-12.742
17155.0,-51.519,-16.994,-34.387,-11.742
17165.0,-59.519,-19.994,-34.387,-10.742
17174.0,-65.519,-21.994,-36.387,-10.742
17184.0,-67.519,-21.994,-39.387,-12.742
17194.0,-65.519,-18.994,-38.387,-11.742
17204.0,-58.519,-14.994,-38.387,-9.7421
17214.0,-53.519,-9.9937,-36.387,-7.7421
17224.0,-46.519,-6.9937,-35.387,-4.7421
17234.0,-38.519,-5.9937,-35.387,-2.7421
17244.0,-33.519,-5.9937,-33.387,-1.7421
17254.0,-28.519,-6.9937,-32.387,1.2579
17263.0,-22.519,-5.9937,-27.387,1.2579
17273.0,-18.519,-7.9937,-22.387,3.2579
17283.0,-14.519,-4.9937,-17.387,6.2579
17293.0,-10.519,-5.9937,-10.387,7.2579
17303.0,-6.5193,-2.9937,-5.3866,10.258
17313.0,-0.51931,-1.9937,-0.38657,12.258
17323.0,3.4807,0.0063274,4.6134,15.258
17333.0,6.4807,1.0063,4.6134,15.258
17343.0,8.4807,1.0063,12.613,18.258
17352.0,10.481,0.0063274,12.613,18.258
17362.0,9.4807,-0.99367,20.613,20.258
17372.0,8.4807,-2.9937,20.613,20.258
17382.0,7.4807,-0.99367,23.613,20.258
17392.0,8.4807,0.0063274,23.613,20.258
17402.0,10.481,2.0063,22.613,19.258
17412.0,12.481,3.0063,22.613,19.258
17422.0,11.481,1.0063,22.613,20.258
17431.0,9.4807,1.0063,22.613,20.258
17441.0,12.481,1.0063,21.613,19.258
17451.0,10.481,-0.99367,21.613,19.258
17461.0,7.4807,-0.99367,19.613,19.258
17471.0,7.4807,-1.9937,19.613,19.258
17481.0,4.4807,-2.9937,21.613,20.258
17491.0,3.4807,-2.9937,21.613,20.258
17501.0,1.4807,-3.9937,19.613,18.258
17511.0,-1.5193,-3.9937,19.613,18.258
17520.0,-3.5193,-4.9937,18.613,19.258
17530.0,-3.5193,-5.9937,18.613,19.258
17540.0,-7.5193,-5.9937,21.613,20.258
17550.0,-11.519,-7.9937,20.613,21.258
17560.0,-14.519,-9.9937,22.613,22.258
17570.0,-17.519,-10.994,23.613,19.258
17580.0,-23.519,-12.994,23.613,23.258
17590.0,-26.519,-15.994,23.613,21.258
17600.0,-31.519,-15.994,22.613,23.258
17609.0,-37.519,-18.994,22.613,21.258
17619.0,-40.519,-20.994,21.613,20.258
17629.0,-47.519,-22.994,21.613,20.258
17639.0,-49.519,-24.994,21.613,22.258
17649.0,-52.519,-26.994,22.613,22.258
17659.0,-59.519,-27.994,22.613,24.258
17669.0,-64.519,-29.994,22.613,24.258
17679.0,-70.519,-31.994,23.613,24.258
17689.0,-77.519,-32.994,24.613,25.258
17698.0,-77.519,-31.994,21.613,25.258
17708.0,-74.519,-27.994,23.613,27.258
17718.0,-65.519,-21.994,21.613,27.258
17728.0,-57.519,-14.994,23.613,27.258
17738.0,-57.519,-14.994,23.613,29.258
17748.0,-44.519,-12.994,23.613,29.258
17758.0,-44.519,-12.994,22.613,29.258
17768.0,-32.519,-13.994,23.613,28.258
17777.0,-32.519,-13.994,26.613,28.258
17787.0,-27.519,-13.994,28.613,31.258
17797.0,-27.519,-13.994,33.613,31.258
17807.0,-19.519,-13.994,39.613,34.258
17817.0,-19.519,-13.994,46.613,34.258
17827.0,-16.519,-12.994,50.613,38.258
17837.0,-16.519,-12.994,52.613,37.258
17847.0,-8.5193,-9.9937,58.613,39.258
17857.0,-8.5193,-9.9937,63.613,40.258
17866.0,-8.5193,-9.9937,65.613,41.258
17876.0,-8.5193,-9.9937,68.613,41.258
17886.0,-9.5193,-11.994,69.613,43.258
17896.0,-9.5193,-11.994,71.613,43.258
17906.0,-10.519,-11.994,73.613,42.258
17916.0,-12.519,-11.994,72.613,41.258
17926.0,-12.519,-11.994,72.613,41.258
17936.0,-12.519,-12.994,71.613,41.258
17946.0,-15.519,-14.994,69.613,41.258
17955.0,-15.519,-16.994,68.613,41.258
17965.0,-20.519,-18.994,68.613,41.258
17975.0,-19.519,-18.994,66.613,40.258
17985.0,-24.519,-22.994,64.613,41.258
17995.0,-27.519,-23.994,63.613,40.258
18005.0,-28.519,-24.994,63.613,39.258
18015.0,-30.519,-25.994,62.613,40.258
18025.0,-32.519,-26.994,62.613,40.258
18035.0,-32.519,-27.994,62.613,41.258
18044.0,-35.519,-28.994,63.613,40.258
18054.0,-36.519,-30.994,63.613,42.258
18064.0,-40.519,-29.994,64.613,43.258
18074.0,-43.519,-31.994,63.613,43.258
18084.0,-47.519,-32.994,62.613,44.258
18094.0,-50.519,-33.994,65.613,43.258
18104.0,-53.519,-36.994,64.613,43.258
18114.0,-56.519,-36.994,63.613,43.258
18123.0,-60.519,-38.994,63.613,44.258
18133.0,-64.519,-39.994,62.613,42.258
18143.0,-67.519,-42.994,59.613,41.258
18153.0,-73.519,-44.994,57.613,41.258
18163.0,-76.519,-45.994,56.613,40.258
18173.0,-80.519,-46.994,54.613,38.258
18183.0,-84.519,-47.994,54.613,39.258
18193.0,-90.519,-51.994,53.613,38.258
18203.0,-95.519,-51.994,52.613,38.258
18212.0,-100.52,-52.994,50.613,37.258
18222.0,-94.519,-48.994,47.613,36.258
18232.0,-86.519,-41.994,48.613,37.258
18242.0,-76.519,-33.994,47.613,37.258
18252.0,-66.519,-28.994,48.613,38.258
18262.0,-54.519,-24.994,47.613,40.258
18272.0,-47.519,-25.994,45.613,39.258
18282.0,-42.519,-25.994,47.613,38.258
18292.0,-35.519,-26.994,50.613,40.258
18301.0,-31.519,-25.994,54.613,42.258
18311.0,-24.519,-25.994,60.613,45.258
18321.0,-22.519,-25.994,67.613,47.258
18331.0,-18.519,-24.994,70.613,48.258
18341.0,-14.519,-23.994,75.613,49.258
18351.0,-11.519,-23.994,81.613,51.258
18361.0,-5.5193,-20.994,85.613,52.258
18371.0,0.48069,-20.994,90.613,54.258
18381.0,4.4807,-19.994,91.613,53.258
18390.0,3.4807,-21.994,93.613,52.258
18400.0,2.4807,-23.994,94.613,51.258
18410.0,5.4807,-22.994,96.613,51.258
18420.0,6.4807,-20.994,96.613,51.258
18430.0,9.4807,-18.994,96.613,50.258
18440.0,13.481,-15.994,96.613,50.258
18450.0,15.481,-15.994,96.613,48.258
18460.0,17.481,-14.994,96.613,48.258
18469.0,17.481,-14.994,91.613,44.258
18479.0,19.481,-14.994,91.613,44.258
18489.0,19.481,-13.994,87.613,42.258
18499.0,18.481,-14.994,87.613,42.258
18509.0,16.481,-14.994,87.613,39.258
18519.0,17.481,-14.994,87.613,39.258
18529.0,15.481,-16.994,83.613,38.258
18539.0,13.481,-15.994,83.613,38.258
18549.0,13.481,-15.994,83.613,38.258
18558.0,12.481,-16.994,83.613,38.258
18568.0,8.4807,-16.994,83.613,38.258
18578.0,7.4807,-16.994,83.613,38.258
18588.0,7.4807,-16.994,80.613,36.258
18598.0,4.4807,-17.994,80.613,36.258
18608.0,4.4807,-17.994,80.613,36.258
18618.0,-3.5193,-21.994,79.613,34.258
18628.0,-3.5193,-21.994,75.613,31.258
18638.0,-11.519,-23.994,74.613,31.258
18647.0,-11.519,-23.994,72.613,31.258
18657.0,-19.519,-27.994,69.613,29.258
18667.0,-19.519,-27.994,68.613,27.258
18677.0,-27.519,-28.994,63.613,25.258
18687.0,-27.519,-28.994,59.613,24.258
18697.0,-36.519,-32.994,57.613,22.258
18707.0,-36.519,-32.994,55.613,22.258
18717.0,-47.519,-34.994,55.613,21.258
18727.0,-47.519,-34.994,52.613,19.258
18736.0,-49.519,-32.994,50.613,18.258
18746.0,-49.519,-32.994,48.613,17.258
18756.0,-42.519,-24.994,45.613,16.258
18766.0,-31.519,-18.994,44.613,15.258
18776.0,-22.519,-13.994,43.613,16.258
18786.0,-13.519,-11.994,40.613,15.258
18796.0,-5.5193,-9.9937,39.613,15.258
18806.0,0.48069,-10.994,41.613,15.258
18815.0,5.4807,-10.994,42.613,15.258
18825.0,10.481,-11.994,47.613,16.258
18835.0,19.481,-9.9937,52.613,18.258
18845.0,21.481,-8.9937,56.613,19.258
18855.0,28.481,-7.9937,61.613,20.258
18865.0,37.481,-5.9937,67.613,22.258
18875.0,44.481,-4.9937,72.613,24.258
18885.0,50.481,-1.9937,76.613,25.258
18895.0,59.481,2.0063,78.613,26.258
18904.0,61.481,3.0063,81.613,25.258
18914.0,65.481,4.0063,82.613,27.258
18924.0,68.481,4.0063,83.613,26.258
18934.0,67.481,3.0063,86.613,27.258
18944.0,70.481,4.0063,85.613,26.258
18954.0,72.481,5.0063,84.613,23.258
18964.0,73.481,9.0063,84.613,24.258
18974.0,77.481,9.0063,82.613,23.258
18984.0,78.481,9.0063,80.613,22.258
18993.0,77.481,8.0063,77.613,18.258
19003.0,74.481,8.0063,75.613,19.258
19013.0,76.481,7.0063,73.613,17.258
19023.0,75.481,6.0063,75.613,16.258
19033.0,74.481,7.0063,71.613,16.258
19043.0,74.481,6.0063,68.613,16.258
19053.0,72.481,6.0063,66.613,14.258
19063.0,70.481,7.0063,65.613,15.258
19073.0,69.481,5.0063,64.613,12.258
19082.0,67.481,5.0063,63.613,13.258
19092.0,65.481,5.0063,62.613,12.258
19102.0,60.481,3.0063,61.613,11.258
19112.0,56.481,1.0063,60.613,12.258
19122.0,55.481,0.0063274,60.613,13.258
19132.0,52.481,1.0063,58.613,12.258
19142.0,46.481,-2.9937,57.613,11.258
19152.0,43.481,-2.9937,56.613,9.2579
19161.0,40.481,-4.9937,55.613,8.2579
19171.0,35.481,-5.9937,52.613,7.2579
19181.0,30.481,-7.9937,50.613,6.2579
19191.0,24.481,-9.9937,47.613,5.2579
19201.0,20.481,-11.994,45.613,4.2579
19211.0,15.481,-12.994,44.613,5.2579
19221.0,8.4807,-13.994,44.613,4.2579
19231.0,6.4807,-15.994,40.613,2.2579
19241.0,1.4807,-17.994,38.613,1.2579
19250.0,-3.5193,-19.994,38.613,1.2579
19260.0,-8.5193,-21.994,35.613,-0.74209
19270.0,-12.519,-22.994,33.613,1.2579
19280.0,-14.519,-20.994,33.613,1.2579
19290.0,-4.5193,-13.994,31.613,0.25791
19300.0,2.4807,-5.9937,27.613,0.25791
19310.0,11.481,0.0063274,27.613,0.25791
19320.0,22.481,2.0063,27.613,0.25791
19330.0,31.481,2.0063,26.613,0.25791
19339.0,39.481,3.0063,28.613,0.25791
19349.0,43.481,2.0063,28.613,1.2579
19359.0,51.481,3.0063,35.613,2.2579
19369.0,58.481,3.0063,39.613,5.2579
19379.0,65.481,6.0063,43.613,5.2579
19389.0,73.481,7.0063,51.613,9.2579
19399.0,79.481,9.0063,55.613,10.258
19409.0,88.481,12.006,60.613,10.258
19419.0,99.481,15.006,66.613,11.258
19428.0,106.48,18.006,66.613,11.258
19438.0,106.48,18.006,70.613,11.258
19448.0,117.48,23.006,70.613,11.258
19458.0,117.48,23.006,75.613,12.258
19468.0,121.48,22.006,75.613,12.258
19478.0,121.48,22.006,74.613,10.258
19488.0,125.48,24.006,74.613,10.258
19498.0,125.48,24.006,71.613,7.2579
19507.0,127.48,26.006,71.613,7.2579
19517.0,127.48,26.006,69.613,5.2579
19527.0,127.48,26.006,69.613,5.2579
19537.0,127.48,26.006,63.613,3.2579
19547.0,127.48,25.006,63.613,3.2579
19557.0,127.48,25.006,61.613,1.2579
19567.0,124.48,24.006,61.613,1.2579
19577.0,124.48,24.006,58.613,0.25791
19587.0,121.48,21.006,58.613,0.25791
19596.0,121.48,21.006,51.613,-2.7421
19606.0,116.48,19.006,51.613,-2.7421
19616.0,115.48,19.006,49.613,-5.7421
19626.0,111.48,18.006,49.613,-5.7421
19636.0,110.48,16.006,48.613,-4.7421
19646.0,107.48,17.006,45.613,-5.7421
19656.0,102.48,15.006,44.613,-6.7421
19666.0,99.481,15.006,42.613,-6.7421
19676.0,95.481,14.006,39.613,-8.7421
19685.0,90.481,12.006,39.613,-11.742
19695.0,86.481,10.006,36.613,-11.742
19705.0,80.481,7.0063,30.613,-12.742
19715.0,76.481,7.0063,29.613,-14.742
19725.0,69.481,4.0063,27.613,-15.742
19735.0,66.481,3.0063,23.613,-15.742
19745.0,62.481,2.0063,22.613,-17.742
19755.0,58.481,1.0063,20.613,-17.742
19765.0,53.481,-1.9937,17.613,-17.742
19774.0,50.481,-2.9937,16.613,-18.742
19784.0,43.481,-4.9937,14.613,-18.742
19794.0,39.481,-7.9937,10.613,-19.742
19804.0,32.481,-7.9937,13.613,-18.742
19814.0,27.481,-10.994,7.6134,-19.742
19824.0,22.481,-13.994,8.6134,-20.742
19834.0,15.481,-14.994,5.6134,-20.742
19844.0,10.481,-16.994,0.61343,-22.742
19853.0,4.4807,-18.994,0.61343,-21.742
19863.0,0.48069,-21.994,-2.3866,-23.742
19873.0,-6.5193,-24.994,-3.3866,-23.742
19883.0,-13.519,-25.994,-7.3866,-23.742
19893.0,-18.519,-27.994,-6.3866,-24.742
19903.0,-23.519,-28.994,-8.3866,-24.742
19913.0,-23.519,-27.994,-8.3866,-24.742
19923.0,-16.519,-19.994,-12.387,-23.742
19933.0,-6.5193,-9.9937,-14.387,-24.742
19942.0,7.4807,-2.9937,-14.387,-24.742
19952.0,21.481,3.0063,-14.387,-23.742
19962.0,32.481,5.0063,-16.387,-24.742
19972.0,40.481,4.0063,-17.387,-23.742
19982.0,49.481,6.0063,-15.387,-22.742
19992.0,58.481,7.0063,-11.387,-20.742
20002.0,64.481,8.0063,-6.3866,-17.742
20012.0,73.481,10.006,0.61343,-15.742
20022.0,79.481,11.006,9.6134,-12.742
20031.0,87.481,15.006,16.613,-9.7421
20041.0,97.481,17.006,21.613,-9.7421
20051.0,104.48,21.006,26.613,-7.7421
20061.0,112.48,24.006,28.613,-6.7421
20071.0,117.48,27.006,35.613,-5.7421
20081.0,127.48,27.006,37.613,-5.7421
20091.0,127.48,27.006,37.613,-6.7421
20101.0,128.48,26.006,36.613,-8.7421
20111.0,129.48,26.006,38.613,-6.7421
20120.0,133.48,28.006,36.613,-8.7421
20130.0,132.48,31.006,35.613,-9.7421
20140.0,135.48,31.006,33.613,-10.742
20150.0,135.48,33.006,31.613,-11.742
20160.0,138.48,32.006,30.613,-14.742
20170.0,138.48,33.006,27.613,-13.742
20180.0,136.48,32.006,25.613,-15.742
20190.0,137.48,32.006,24.613,-15.742
20199.0,135.48,30.006,24.613,-17.742
20209.0,134.48,30.006,20.613,-17.742
20219.0,134.48,29.006,18.613,-17.742
20229.0,129.48,27.006,17.613,-17.742
20239.0,127.48,28.006,17.613,-16.742
20249.0,125.48,27.006,16.613,-18.742
20259.0,121.48,24.006,15.613,-18.742
20269.0,117.48,22.006,13.613,-17.742
20279.0,112.48,20.006,13.613,-19.742
20288.0,110.48,20.006,12.613,-17.742
20298.0,103.48,16.006,11.613,-17.742
20308.0,103.48,16.006,8.6134,-19.742
20318.0,92.481,12.006,8.6134,-19.742
20328.0,92.481,12.006,6.6134,-20.742
20338.0,79.481,6.0063,4.6134,-20.742
20348.0,79.481,6.0063,3.6134,-20.742
20358.0,68.481,1.0063,0.61343,-21.742
20368.0,68.481,1.0063,0.61343,-20.742
20377.0,54.481,-5.9937,-0.38657,-20.742
20387.0,54.481,-5.9937,0.61343,-19.742
20397.0,41.481,-9.9937,-1.3866,-19.742
20407.0,41.481,-9.9937,-2.3866,-18.742
20417.0,29.481,-15.994,-4.3866,-18.742
20427.0,29.481,-15.994,-6.3866,-19.742
20437.0,16.481,-21.994,-7.3866,-18.742
20447.0,16.481,-21.994,-10.387,-17.742
20457.0,6.4807,-26.994,-10.387,-18.742
20466.0,6.4807,-26.994,-9.3866,-18.742
20476.0,-2.5193,-29.994,-10.387,-16.742
20486.0,-6.5193,-32.994,-12.387,-17.742
20496.0,-12.519,-34.994,-10.387,-13.742
20506.0,-18.519,-37.994,-10.387,-12.742
20516.0,-25.519,-40.994,-10.387,-12.742
20526.0,-29.519,-43.994,-11.387,-12.742
20536.0,-38.519,-44.994,-11.387,-12.742
20545.0,-43.519,-48.994,-11.387,-10.742
20555.0,-47.519,-49.994,-11.387,-10.742
20565.0,-55.519,-51.994,-13.387,-8.7421
20575.0,-62.519,-54.994,-13.387,-8.7421
20585.0,-68.519,-57.994,-12.387,-8.7421
20595.0,-79.519,-59.994,-12.387,-8.7421
20605.0,-80.519,-58.994,-15.387,-7.7421
20615.0,-75.519,-53.994,-15.387,-7.7421
20625.0,-64.519,-46.994,-15.387,-6.7421
20634.0,-53.519,-38.994,-15.387,-6.7421
20644.0,-40.519,-32.994,-14.387,-5.7421
20654.0,-29.519,-30.994,-14.387,-5.7421
20664.0,-21.519,-30.994,-11.387,-4.7421
20674.0,-13.519,-31.994,-11.387,-4.7421
20684.0,-7.5193,-32.994,-1.3866,-0.74209
20694.0,0.48069,-31.994,-1.3866,-0.74209
20704.0,1.4807,-32.994,11.613,4.2579
20714.0,5.4807,-32.994,11.613,4.2579
20723.0,11.481,-31.994,17.613,7.2579
20733.0,16.481,-29.994,24.613,8.2579
20743.0,21.481,-28.994,28.613,9.2579
20753.0,28.481,-24.994,34.613,12.258
20763.0,33.481,-23.994,40.613,13.258
20773.0,37.481,-21.994,44.613,14.258
20783.0,38.481,-22.994,48.613,14.258
20793.0,37.481,-23.994,49.613,15.258
20803.0,37.481,-23.994,51.613,14.258
20812.0,41.481,-20.994,53.613,15.258
20822.0,40.481,-20.994,51.613,14.258
20832.0,40.481,-18.994,51.613,14.258
20842.0,42.481,-20.994,53.613,14.258
20852.0,40.481,-21.994,52.613,15.258
20862.0,41.481,-20.994,51.613,13.258
20872.0,40.481,-21.994,52.613,13.258
20882.0,38.481,-23.994,48.613,13.258
20891.0,37.481,-23.994,48.613,11.258
20901.0,34.481,-24.994,48.613,13.258
20911.0,35.481,-24.994,47.613,13.258
20921.0,32.481,-25.994,47.613,11.258
20931.0,29.481,-26.994,46.613,12.258
20941.0,27.481,-27.994,47.613,12.258
20951.0,25.481,-27.994,47.613,11.258
20961.0,20.481,-28.994,46.613,12.258
20971.0,20.481,-29.994,47.613,13.258
20980.0,16.481,-30.994,48.613,13.258
20990.0,12.481,-31.994,49.613,14.258
21000.0,6.4807,-32.994,51.613,14.258
21010.0,2.4807,-35.994,50.613,14.258
21020.0,-2.5193,-36.994,48.613,13.258
21030.0,-8.5193,-38.994,49.613,15.258
21040.0,-13.519,-40.994,49.613,15.258
21050.0,-17.519,-43.994,50.613,15.258
21060.0,-22.519,-44.994,49.613,17.258
21069.0,-26.519,-46.994,50.613,18.258
21079.0,-30.519,-48.994,50.613,20.258
21089.0,-35.519,-49.994,50.613,19.258
21099.0,-41.519,-51.994,49.613,20.258
21109.0,-43.519,-54.994,50.613,21.258
21119.0,-50.519,-55.994,49.613,21.258
21129.0,-55.519,-55.994,47.613,22.258
21139.0,-60.519,-59.994,44.613,22.258
21149.0,-67.519,-61.994,44.613,21.258
21158.0,-67.519,-61.994,43.613,24.258
21168.0,-76.519,-64.994,44.613,23.258
21178.0,-76.519,-64.994,40.613,23.258
21188.0,-87.519,-68.994,41.613,24.258
21198.0,-87.519,-68.994,41.613,24.258
21208.0,-98.519,-72.994,42.613,25.258
21218.0,-98.519,-72.994,41.613,26.258
21228.0,-111.52,-75.994,40.613,26.258
21237.0,-111.52,-75.994,39.613,25.258
21247.0,-120.52,-75.994,39.613,27.258
21257.0,-120.52,-75.994,37.613,24.258
21267.0,-106.52,-62.994,37.613,24.258
21277.0,-106.52,-62.994,37.613,25.258
21287.0,-80.519,-47.994,36.613,27.258
21297.0,-80.519,-47.994,38.613,27.258
21307.0,-61.519,-44.994,35.613,26.258
21317.0,-61.519,-44.994,34.613,25.258
21326.0,-53.519,-44.994,36.613,25.258
21336.0,-53.519,-44.994,40.613,28.258
21346.0,-48.519,-45.994,48.613,30.258
21356.0,-44.519,-46.994,52.613,34.258
21366.0,-42.519,-46.994,56.613,31.258
21376.0,-38.519,-48.994,64.613,36.258
21386.0,-35.519,-48.994,68.613,37.258
21396.0,-33.519,-49.994,73.613,37.258
21406.0,-29.519,-48.994,77.613,41.258
21415.0,-27.519,-46.994,83.613,41.258
21425.0,-24.519,-45.994,85.613,42.258
21435.0,-22.519,-47.994,89.613,42.258
21445.0,-24.519,-47.994,89.613,41.258
21455.0,-25.519,-48.994,88.613,41.258
21465.0,-23.519,-47.994,89.613,41.258
21475.0,-22.519,-44.994,89.613,40.258
21485.0,-20.519,-43.994,87.613,40.258
21494.0,-16.519,-40.994,86.613,40.258
21504.0,-15.519,-39.994,86.613,40.258
21514.0,-14.519,-39.994,83.613,40.258
21524.0,-15.519,-40.994,83.613,40.258
21534.0,-14.519,-39.994,84.613,41.258
21544.0,-13.519,-39.994,84.613,41.258
21554.0,-14.519,-38.994,80.613,39.258
21564.0,-14.519,-38.994,80.613,39.258
21574.0,-14.519,-39.994,79.613,38.258
21583.0,-14.519,-38.994,79.613,38.258
21593.0,-14.519,-38.994,80.613,39.258
21603.0,-18.519,-36.994,80.613,39.258
21613.0,-21.519,-36.994,80.613,42.258
21623.0,-23.519,-35.994,80.613,42.258
21633.0,-24.519,-36.994,78.613,42.258
21643.0,-28.519,-38.994,78.613,42.258
21653.0,-34.519,-41.994,76.613,39.258
21663.0,-39.519,-43.994,76.613,39.258
21672.0,-42.519,-46.994,74.613,37.258
21682.0,-48.519,-48.994,74.613,37.258
21692.0,-52.519,-48.994,64.613,35.258
21702.0,-54.519,-49.994,64.613,35.258
21712.0,-58.519,-49.994,63.613,36.258
21722.0,-60.519,-49.994,63.613,36.258
21732.0,-65.519,-51.994,63.613,37.258
21742.0,-67.519,-51.994,62.613,36.258
21752.0,-70.519,-50.994,61.613,36.258
21761.0,-74.519,-51.994,61.613,37.258
21771.0,-78.519,-52.994,59.613,38.258
21781.0,-83.519,-53.994,57.613,37.258
21791.0,-87.519,-57.994,54.613,36.258
21801.0,-92.519,-57.994,53.613,36.258
21811.0,-99.519,-58.994,51.613,36.258
21821.0,-105.52,-60.994,50.613,34.258
21831.0,-109.52,-62.994,48.613,34.258
21840.0,-117.52,-65.994,46.613,33.258
21850.0,-123.52,-66.994,43.613,31.258
21860.0,-129.52,-68.994,41.613,32.258
21870.0,-128.52,-64.994,39.613,32.258
21880.0,-119.52,-56.994,37.613,31.258
21890.0,-111.52,-49.994,37.613,30.258
21900.0,-98.519,-41.994,35.613,31.258
21910.0,-85.519,-35.994,35.613,30.258
21920.0,-74.519,-32.994,31.613,31.258
21929.0,-66.519,-32.994,33.613,29.258
21939.0,-58.519,-32.994,32.613,30.258
21949.0,-49.519,-32.994,37.613,29.258
21959.0,-44.519,-33.994,42.613,33.258
21969.0,-39.519,-33.994,47.613,33.258
21979.0,-39.519,-34.994,54.613,37.258
21989.0,-35.519,-32.994,58.613,37.258
21999.0,-31.519,-31.994,63.613,38.258
22009.0,-31.519,-31.994,66.613,39.258
22018.0,-26.519,-29.994,70.613,40.258
22028.0,-26.519,-29.994,74.613,42.258
22038.0,-22.519,-30.994,75.613,41.258
22048.0,-22.519,-30.994,75.613,40.258
22058.0,-23.519,-32.994,76.613,39.258
22068.0,-23.519,-32.994,76.613,39.258
22078.0,-25.519,-33.994,76.613,40.258
22088.0,-25.519,-33.994,78.613,40.258
22098.0,-24.519,-32.994,76.613,40.258
22107.0,-24.519,-32.994,73.613,39.258
22117.0,-24.519,-33.994,73.613,39.258
22127.0,-24.519,-33.994,72.613,37.258
22137.0,-21.519,-32.994,69.613,39.258
22147.0,-21.519,-32.994,68.613,38.258
22157.0,-21.519,-31.994,67.613,36.258
22167.0,-21.519,-31.994,64.613,36.258
22177.0,-21.519,-30.994,62.613,33.258
22186.0,-24.519,-31.994,64.613,36.258
22196.0,-25.519,-30.994,61.613,34.258
22206.0,-24.519,-30.994,59.613,35.258
22216.0,-27.519,-31.994,61.613,36.258
22226.0,-28.519,-31.994,61.613,37.258
22236.0,-32.519,-31.994,60.613,36.258
22246.0,-35.519,-32.994,58.613,37.258
22256.0,-38.519,-33.994,57.613,36.258
22266.0,-43.519,-34.994,56.613,35.258
22275.0,-46.519,-34.994,54.613,34.258
22285.0,-50.519,-36.994,52.613,34.258
22295.0,-55.519,-37.994,51.613,33.258
22305.0,-58.519,-37.994,48.613,32.258
22315.0,-62.519,-40.994,48.613,32.258
22325.0,-66.519,-41.994,45.613,33.258
22335.0,-73.519,-43.994,45.613,33.258
22345.0,-76.519,-45.994,45.613,33.258
22355.0,-82.519,-47.994,43.613,33.258
22364.0,-88.519,-47.994,42.613,34.258
22374.0,-92.519,-50.994,39.613,34.258
22384.0,-98.519,-52.994,38.613,33.258
22394.0,-104.52,-54.994,36.613,34.258
22404.0,-110.52,-56.994,35.613,32.258
22414.0,-118.52,-58.994,36.613,33.258
22424.0,-123.52,-62.994,33.613,33.258
22434.0,-128.52,-62.994,30.613,33.258
22444.0,-134.52,-64.994,28.613,32.258
22453.0,-140.52,-65.994,27.613,31.258
22463.0,-137.52,-61.994,23.613,32.258
22473.0,-129.52,-51.994,22.613,31.258
22483.0,-121.52,-45.994,19.613,31.258
22493.0,-107.52,-38.994,20.613,31.258
22503.0,-92.519,-32.994,18.613,30.258
22513.0,-81.519,-31.994,17.613,30.258
22523.0,-72.519,-30.994,18.613,29.258
22532.0,-66.519,-31.994,22.613,31.258
22542.0,-60.519,-32.994,30.613,33.258
22552.0,-56.519,-33.994,34.613,35.258
22562.0,-51.519,-33.994,39.613,37.258
22572.0,-46.519,-35.994,44.613,39.258
22582.0,-46.519,-35.994,48.613,39.258
22592.0,-40.519,-32.994,48.613,39.258
22602.0,-36.519,-31.994,53.613,42.258
22612.0,-29.519,-31.994,53.613,42.258
22621.0,-24.519,-27.994,60.613,45.258
22631.0,-22.519,-26.994,60.613,45.258
22641.0,-21.519,-27.994,63.613,43.258
22651.0,-21.519,-29.994,63.613,43.258
22661.0,-20.519,-27.994,65.613,43.258
22671.0,-18.519,-25.994,65.613,43.258
22681.0,-18.519,-25.994,62.613,43.258
22691.0,-18.519,-25.994,62.613,43.258
22701.0,-16.519,-24.994,60.613,40.258
22710.0,-16.519,-23.994,60.613,40.258
22720.0,-15.519,-24.994,58.613,41.258
22730.0,-15.519,-23.994,58.613,41.258
22740.0,-16.519,-23.994,54.613,41.258
22750.0,-16.519,-24.994,54.613,41.258
22760.0,-16.519,-24.994,50.613,39.258
22770.0,-20.519,-24.994,50.613,39.258
22780.0,-22.519,-25.994,49.613,38.258
22790.0,-23.519,-26.994,49.613,38.258
22799.0,-25.519,-27.994,46.613,38.258
22809.0,-27.519,-28.994,48.613,38.258
22819.0,-29.519,-28.994,45.613,37.258
22829.0,-33.519,-29.994,47.613,38.258
22839.0,-37.519,-29.994,44.613,38.258
22849.0,-40.519,-29.994,44.613,37.258
22859.0,-43.519,-30.994,42.613,38.258
22869.0,-46.519,-30.994,39.613,36.258
22878.0,-46.519,-30.994,38.613,36.258
22888.0,-55.519,-34.994,35.613,36.258
22898.0,-55.519,-34.994,34.613,36.258
22908.0,-63.519,-35.994,34.613,34.258
22918.0,-63.519,-35.994,32.613,34.258
22928.0,-74.519,-39.994,29.613,35.258
22938.0,-74.519,-39.994,27.613,35.258
22948.0,-84.519,-42.994,26.613,35.258
22958.0,-84.519,-42.994,24.613,34.258
22967.0,-94.519,-46.994,23.613,31.258
22977.0,-94.519,-46.994,18.613,33.258
22987.0,-107.52,-51.994,18.613,31.258
22997.0,-107.52,-51.994,15.613,30.258
23007.0,-122.52,-55.994,14.613,30.258
23017.0,-122.52,-55.994,12.613,27.258
23027.0,-134.52,-56.994,10.613,27.258
23037.0,-134.52,-56.994,7.6134,26.258
23047.0,-133.52,-53.994,2.6134,24.258
23056.0,-127.52,-49.994,0.61343,24.258
23066.0,-122.52,-42.994,-0.38657,25.258
23076.0,-111.52,-34.994,-0.38657,25.258
23086.0,-96.519,-29.994,-4.3866,24.258
23096.0,-85.519,-28.994,-2.3866,24.258
23106.0,-77.519,-28.994,-5.3866,25.258
23116.0,-69.519,-29.994,-2.3866,25.258
23126.0,-64.519,-29.994,4.6134,28.258
23136.0,-58.519,-30.994,7.6134,29.258
23145.0,-55.519,-31.994,13.613,31.258
23155.0,-57.519,-33.994,16.613,33.258
23165.0,-53.519,-33.994,23.613,36.258
23175.0,-49.519,-31.994,25.613,37.258
23185.0,-45.519,-29.994,30.613,41.258
23195.0,-41.519,-27.994,36.613,41.258
23205.0,-38.519,-25.994,35.613,43.258
23215.0,-36.519,-23.994,38.613,43.258
23224.0,-35.519,-23.994,40.613,42.258
23234.0,-36.519,-25.994,40.613,42.258
23244.0,-39.519,-25.994,39.613,42.258
23254.0,-37.519,-24.994,41.613,42.258
23264.0,-43.519,-26.994,42.613,45.258
23274.0,-44.519,-26.994,41.613,45.258
23284.0,-43.519,-25.994,41.613,45.258
23294.0,-46.519,-26.994,40.613,45.258
23304.0,-45.519,-27.994,39.613,46.258
23313.0,-45.519,-28.994,38.613,46.258
23323.0,-47.519,-28.994,38.613,47.258
23333.0,-49.519,-28.994,37.613,47.258
23343.0,-52.519,-29.994,35.613,46.258
23353.0,-54.519,-31.994,35.613,47.258
23363.0,-56.519,-30.994,33.613,46.258
23373.0,-58.519,-31.994,35.613,45.258
23383.0,-62.519,-33.994,34.613,47.258
23393.0,-65.519,-34.994,32.613,46.258
23402.0,-70.519,-35.994,35.613,49.258
23412.0,-75.519,-37.994,32.613,46.258
23422.0,-81.519,-38.994,31.613,48.258
23432.0,-85.519,-40.994,31.613,46.258
23442.0,-89.519,-42.994,28.613,47.258
23452.0,-95.519,-45.994,28.613,44.258
23462.0,-99.519,-47.994,25.613,45.258
23472.0,-105.52,-48.994,23.613,44.258
23482.0,-112.52,-51.994,20.613,44.258
23491.0,-116.52,-51.994,20.613,45.258
23501.0,-121.52,-54.994,20.613,46.258
23511.0,-125.52,-55.994,20.613,46.258
23521.0,-133.52,-58.994,17.613,44.258
23531.0,-136.52,-60.994,16.613,44.258
23541.0,-143.52,-61.994,14.613,43.258
23551.0,-150.52,-63.994,10.613,44.258
23561.0,-155.52,-66.994,8.6134,41.258
23570.0,-163.52,-69.994,7.6134,42.258
23580.0,-169.52,-71.994,7.6134,42.258
23590.0,-177.52,-73.994,3.6134,41.258
23600.0,-183.52,-74.994,3.6134,41.258
23610.0,-184.52,-73.994,-3.3866,39.258
23620.0,-178.52,-66.994,-3.3866,39.258
23630.0,-174.52,-60.994,-3.3866,40.258
23640.0,-165.52,-54.994,-3.3866,40.258
23650.0,-152.52,-49.994,-7.3866,39.258
23659.0,-140.52,-47.994,-7.3866,39.258
23669.0,-130.52,-46.994,-10.387,37.258
23679.0,-122.52,-46.994,-10.387,37.258
23689.0,-117.52,-47.994,-4.3866,39.258
23699.0,-112.52,-48.994,-4.3866,39.258
23709.0,-111.52,-51.994,6.6134,44.258
23719.0,-110.52,-52.994,6.6134,44.258
23729.0,-110.52,-52.994,15.613,47.258
23739.0,-106.52,-52.994,15.613,47.258
23748.0,-106.52,-52.994,20.613,49.258
23758.0,-101.52,-51.994,20.613,49.258
23768.0,-101.52,-51.994,26.613,50.258
23778.0,-99.519,-50.994,26.613,50.258
23788.0,-99.519,-50.994,30.613,51.258
23798.0,-104.52,-53.994,30.613,51.258
23808.0,-104.52,-53.994,30.613,52.258
23818.0,-107.52,-56.994,30.613,51.258
23828.0,-107.52,-56.994,29.613,53.258
23837.0,-112.52,-60.994,31.613,51.258
23847.0,-112.52,-60.994,31.613,53.258
23857.0,-118.52,-63.994,29.613,51.258
23867.0,-118.52,-63.994,25.613,52.258
23877.0,-122.52,-66.994,26.613,52.258
23887.0,-125.52,-70.994,26.613,54.258
23897.0,-127.52,-72.994,26.613,54.258
23907.0,-129.52,-74.994,25.613,53.258
23916.0,-130.52,-75.994,25.613,52.258
23926.0,-134.52,-76.994,22.613,52.258
23936.0,-135.52,-77.994,22.613,53.258
23946.0,-139.52,-79.994,23.613,54.258
23956.0,-141.52,-80.994,25.613,54.258
23966.0,-145.52,-81.994,23.613,55.258
23976.0,-149.52,-82.994,25.613,55.258
23986.0,-152.52,-83.994,25.613,57.258
23996.0,-154.52,-84.994,25.613,57.258
24005.0,-160.52,-84.994,24.613,55.258
24015.0,-164.52,-85.994,24.613,55.258
24025.0,-169.52,-87.994,22.613,56.258
24035.0,-174.52,-89.994,22.613,56.258
24045.0,-178.52,-90.994,23.613,56.258
24055.0,-182.52,-91.994,22.613,58.258
24065.0,-186.52,-92.994,21.613,55.258
24075.0,-192.52,-94.994,18.613,58.258
24085.0,-196.52,-96.994,18.613,56.258
24094.0,-203.52,-98.994,13.613,57.258
24104.0,-207.52,-98.994,13.613,55.258
24114.0,-213.52,-100.99,12.613,54.258
24124.0,-220.52,-101.99,10.613,56.258
24134.0,-227.52,-104.99,9.6134,55.258
24144.0,-233.52,-106.99,8.6134,55.258
24154.0,-238.52,-106.99,5.6134,56.258
24164.0,-243.52,-108.99,2.6134,55.258
24174.0,-245.52,-106.99,2.6134,54.258
24183.0,-241.52,-101.99,-1.3866,54.258
24193.0,-236.52,-94.994,1.6134,55.258
24203.0,-223.52,-87.994,1.6134,56.258
24213.0,-213.52,-82.994,-0.38657,56.258
24223.0,-201.52,-79.994,-1.3866,55.258
24233.0,-191.52,-78.994,-1.3866,55.258
24243.0,-183.52,-79.994,0.61343,57.258
24253.0,-179.52,-81.994,5.6134,61.258
24262.0,-176.52,-82.994,11.613,60.258
24272.0,-174.52,-82.994,13.613,62.258
24282.0,-175.52,-86.994,20.613,63.258
24292.0,-176.52,-89.994,22.613,65.258
24302.0,-176.52,-89.994,28.613,67.258
24312.0,-176.52,-90.994,31.613,69.258
24322.0,-179.52,-90.994,40.613,71.258
24332.0,-180.52,-89.994,41.613,72.258
24342.0,-177.52,-89.994,44.613,73.258
24351.0,-181.52,-89.994,47.613,73.258
24361.0,-184.52,-92.994,46.613,73.258
24371.0,-182.52,-89.994,46.613,72.258
24381.0,-183.52,-88.994,48.613,74.258
24391.0,-182.52,-87.994,51.613,75.258
24401.0,-182.52,-85.994,52.613,75.258
24411.0,-180.52,-85.994,50.613,75.258
24421.0,-181.52,-86.994,51.613,76.258
24431.0,-182.52,-87.994,50.613,79.258
24440.0,-183.52,-88.994,51.613,78.258
24450.0,-184.52,-90.994,50.613,78.258
24460.0,-186.52,-91.994,51.613,77.258
24470.0,-189.52,-92.994,50.613,77.258
24480.0,-191.52,-92.994,47.613,77.258
24490.0,-194.52,-93.994,47.613,74.258
24500.0,-196.52,-94.994,44.613,72.258
24510.0,-199.52,-95.994,43.613,72.258
24520.0,-202.52,-96.994,44.613,72.258
24529.0,-207.52,-97.994,45.613,72.258
24539.0,-210.52,-99.994,43.613,71.258
24549.0,-213.52,-99.994,43.613,71.258
24559.0,-216.52,-99.994,44.613,70.258
24569.0,-219.52,-100.99,44.613,72.258
24579.0,-219.52,-100.99,43.613,71.258
24589.0,-230.52,-103.99,41.613,71.258
24599.0,-230.52,-103.99,42.613,71.258
24608.0,-238.52,-107.99,38.613,71.258
24618.0,-238.52,-107.99,40.613,71.258
24628.0,-250.52,-110.99,40.613,71.258
24638.0,-250.52,-110.99,36.613,70.258
24648.0,-262.52,-115.99,36.613,70.258
24658.0,-262.52,-115.99,33.613,68.258
24668.0,-272.52,-118.99,33.613,68.258
24678.0,-272.52,-118.99,30.613,66.258
24688.0,-284.52,-121.99,30.613,66.258
24697.0,-284.52,-121.99,26.613,65.258
24707.0,-297.52,-125.99,26.613,65.258
24717.0,-297.52,-125.99,23.613,64.258
24727.0,-288.52,-114.99,23.613,64.258
24737.0,-288.52,-114.99,21.613,64.258
24747.0,-279.52,-106.99,21.613,64.258
24757.0,-266.52,-99.994,18.613,63.258
24767.0,-251.52,-94.994,18.613,63.258
24777.0,-240.52,-93.994,17.613,62.258
24786.0,-231.52,-92.994,17.613,62.258
24796.0,-225.52,-93.994,26.613,67.258
24806.0,-221.52,-95.994,26.613,67.258
24816.0,-216.52,-96.994,37.613,72.258
24826.0,-217.52,-98.994,37.613,72.258
24836.0,-218.52,-101.99,45.613,74.258
24846.0,-218.52,-102.99,45.613,74.258
24856.0,-219.52,-102.99,53.613,77.258
24866.0,-219.52,-102.99,53.613,77.258
24875.0,-220.52,-103.99,57.613,78.258
24885.0,-222.52,-103.99,59.613,77.258
24895.0,-223.52,-105.99,60.613,78.258
24905.0,-228.52,-106.99,63.613,77.258
24915.0,-228.52,-106.99,63.613,78.258
24925.0,-230.52,-105.99,65.613,79.258
24935.0,-229.52,-105.99,67.613,82.258
24945.0,-231.52,-104.99,70.613,83.258
24954.0,-229.52,-106.99,69.613,83.258
24964.0,-229.52,-104.99,68.613,84.258
24974.0,-231.52,-106.99,69.613,85.258
24984.0,-231.52,-108.99,67.613,86.258
24994.0,-232.52,-109.99,68.613,87.258
25004.0,-231.52,-108.99,67.613,87.258
25014.0,-234.52,-109.99,67.613,88.258
25024.0,-235.52,-112.99,66.613,87.258
25034.0,-238.52,-113.99,66.613,87.258
25043.0,-241.52,-113.99,65.613,86.258
25053.0,-242.52,-114.99,65.613,87.258
25063.0,-244.52,-113.99,65.613,86.258
25073.0,-245.52,-112.99,64.613,87.258
25083.0,-248.52,-112.99,65.613,87.258
25093.0,-249.52,-112.99,65.613,88.258
25103.0,-249.52,-112.99,64.613,87.258
25113.0,-252.52,-112.99,66.613,89.258
25123.0,-256.52,-112.99,65.613,87.258
25132.0,-257.52,-113.99,66.613,87.258
25142.0,-262.52,-112.99,64.613,87.258
25152.0,-266.52,-113.99,64.613,88.258
25162.0,-268.52,-114.99,64.613,86.258
25172.0,-272.52,-115.99,63.613,87.258
25182.0,-276.52,-116.99,61.613,88.258
25192.0,-278.52,-116.99,59.613,87.258
25202.0,-280.52,-117.99,57.613,85.258
25212.0,-286.52,-120.99,55.613,84.258
25221.0,-293.52,-123.99,53.613,86.258
25231.0,-298.52,-124.99,51.613,83.258
25241.0,-304.52,-124.99,49.613,81.258
25251.0,-303.52,-122.99,46.613,81.258
25261.0,-294.52,-115.99,45.613,79.258
25271.0,-287.52,-108.99,44.613,79.258
25281.0,-273.52,-101.99,44.613,80.258
25291.0,-257.52,-96.994,42.613,78.258
25300.0,-246.52,-96.994,43.613,79.258
25310.0,-235.52,-94.994,42.613,79.258
25320.0,-227.52,-94.994,46.613,78.258
25330.0,-222.52,-95.994,49.613,83.258
25340.0,-218.52,-97.994,57.613,85.258
25350.0,-217.52,-98.994,63.613,88.258
25360.0,-218.52,-101.99,69.613,90.258
25370.0,-217.52,-102.99,72.613,92.258
25380.0,-216.52,-103.99,79.613,94.258
25389.0,-215.52,-102.99,83.613,96.258
25399.0,-215.52,-103.99,89.613,98.258
25409.0,-213.52,-102.99,90.613,98.258
25419.0,-211.52,-102.99,91.613,99.258
25429.0,-211.52,-102.99,94.613,100.26
25439.0,-209.52,-102.99,94.613,100.26
25449.0,-209.52,-102.99,96.613,100.26
25459.0,-204.52,-97.994,95.613,99.258
25469.0,-204.52,-97.994,97.613,100.26
25478.0,-198.52,-90.994,97.613,100.26
25488.0,-198.52,-90.994,95.613,99.258
25498.0,-196.52,-91.994,92.613,98.258
25508.0,-196.52,-91.994,94.613,99.258
25518.0,-195.52,-90.994,94.613,99.258
25528.0,-195.52,-90.994,92.613,98.258
25538.0,-193.52,-88.994,90.613,99.258
25548.0,-193.52,-88.994,89.613,98.258
25558.0,-197.52,-91.994,88.613,97.258
25567.0,-197.52,-91.994,88.613,96.258
25577.0,-201.52,-91.994,89.613,97.258
25587.0,-201.52,-91.994,87.613,96.258
25597.0,-204.52,-91.994,88.613,98.258
25607.0,-204.52,-91.994,90.613,97.258
25617.0,-205.52,-91.994,87.613,98.258
25627.0,-209.52,-91.994,90.613,99.258
25637.0,-210.52,-91.994,86.613,97.258
25646.0,-212.52,-92.994,89.613,99.258
25656.0,-216.52,-93.994,85.613,99.258
25666.0,-219.52,-93.994,86.613,98.258
25676.0,-221.52,-94.994,86.613,98.258
25686.0,-225.52,-96.994,82.613,96.258
25696.0,-230.52,-97.994,82.613,96.258
25706.0,-234.52,-97.994,78.613,95.258
25716.0,-238.52,-99.994,78.613,95.258
25726.0,-243.52,-101.99,77.613,94.258
25735.0,-247.52,-101.99,77.613,94.258
25745.0,-250.52,-103.99,74.613,94.258
25755.0,-255.52,-104.99,74.613,94.258
25765.0,-260.52,-104.99,72.613,92.258
25775.0,-262.52,-104.99,72.613,92.258
25785.0,-258.52,-101.99,67.613,90.258
25795.0,-248.52,-92.994,67.613,90.258
25805.0,-238.52,-84.994,64.613,90.258
25815.0,-223.52,-75.994,64.613,90.258
25824.0,-208.52,-73.994,61.613,88.258
25834.0,-200.52,-70.994,61.613,88.258
25844.0,-191.52,-70.994,64.613,88.258
25854.0,-184.52,-70.994,64.613,88.258
25864.0,-179.52,-70.994,74.613,91.258
25874.0,-175.52,-70.994,74.613,91.258
25884.0,-172.52,-70.994,78.613,93.258
25894.0,-169.52,-71.994,84.613,94.258
25904.0,-164.52,-70.994,88.613,97.258
25913.0,-162.52,-69.994,91.613,97.258
25923.0,-158.52,-67.994,97.613,98.258
25933.0,-154.52,-65.994,101.61,101.26
25943.0,-152.52,-65.994,103.61,101.26
25953.0,-150.52,-64.994,106.61,102.26
25963.0,-150.52,-64.994,107.61,101.26
25973.0,-149.52,-65.994,107.61,101.26
25983.0,-146.52,-63.994,108.61,101.26
25992.0,-144.52,-62.994,108.61,102.26
26002.0,-145.52,-60.994,108.61,102.26
26012.0,-142.52,-59.994,106.61,100.26
26022.0,-141.52,-58.994,104.61,100.26
26032.0,-144.52,-60.994,103.61,101.26
26042.0,-143.52,-60.994,100.61,100.26
26052.0,-141.52,-61.994,99.613,99.258
26062.0,-143.52,-61.994,97.613,99.258
26072.0,-142.52,-61.994,97.613,99.258
26081.0,-145.52,-63.994,95.613,97.258
26091.0,-148.52,-63.994,92.613,97.258
26101.0,-148.52,-64.994,94.613,96.258
26111.0,-152.52,-64.994,94.613,97.258
26121.0,-152.52,-65.994,94.613,95.258
26131.0,-153.52,-64.994,93.613,98.258
26141.0,-156.52,-66.994,92.613,96.258
26151.0,-158.52,-66.994,91.613,96.258
26161.0,-162.52,-67.994,90.613,97.258
26170.0,-164.52,-67.994,89.613,97.258
26180.0,-168.52,-68.994,87.613,95.258
26190.0,-173.52,-69.994,87.613,95.258
26200.0,-174.52,-71.994,85.613,94.258
26210.0,-180.52,-72.994,83.613,94.258
26220.0,-182.52,-74.994,83.613,93.258
26230.0,-187.52,-75.994,79.613,93.258
26240.0,-191.52,-76.994,78.613,93.258
26250.0,-195.52,-76.994,77.613,93.258
26259.0,-200.52,-79.994,76.613,92.258
26269.0,-206.52,-81.994,75.613,92.258
26279.0,-210.52,-83.994,74.613,91.258
26289.0,-214.52,-84.994,71.613,92.258
26299.0,-214.52,-84.994,70.613,90.258
26309.0,-209.52,-76.994,67.613,88.258
26319.0,-209.52,-76.994,68.613,91.258
26329.0,-189.52,-62.994,66.613,90.258
26338.0,-189.52,-62.994,66.613,89.258
26348.0,-164.52,-54.994,64.613,90.258
26358.0,-164.52,-54.994,63.613,90.258
26368.0,-151.52,-54.994,66.613,90.258
26378.0,-151.52,-54.994,68.613,91.258
26388.0,-142.52,-56.994,74.613,92.258
26398.0,-142.52,-56.994,79.613,96.258
26408.0,-135.52,-56.994,84.613,96.258
26418.0,-135.52,-56.994,90.613,100.26
26427.0,-130.52,-54.994,95.613,99.258
26437.0,-130.52,-54.994,100.61,100.26
26447.0,-118.52,-49.994,103.61,102.26
26457.0,-118.52,-49.994,106.61,104.26
26467.0,-113.52,-47.994,108.61,106.26
26477.0,-112.52,-47.994,111.61,105.26
26487.0,-110.52,-48.994,112.61,105.26
26497.0,-112.52,-47.994,112.61,105.26
26507.0,-111.52,-48.994,110.61,105.26
26516.0,-108.52,-46.994,108.61,104.26
26526.0,-108.52,-44.994,108.61,104.26
26536.0,-106.52,-43.994,107.61,105.26
26546.0,-104.52,-42.994,106.61,106.26
26556.0,-104.52,-42.994,104.61,103.26
26566.0,-104.52,-42.994,101.61,103.26
26576.0,-104.52,-43.994,101.61,99.258
26586.0,-105.52,-43.994,97.613,99.258
26595.0,-105.52,-43.994,97.613,97.258
26605.0,-110.52,-45.994,95.613,96.258
26615.0,-110.52,-45.994,94.613,97.258
26625.0,-112.52,-46.994,92.613,97.258
26635.0,-114.52,-47.994,93.613,96.258
26645.0,-117.52,-48.994,93.613,97.258
26655.0,-118.52,-48.994,91.613,96.258
26665.0,-122.52,-51.994,90.613,97.258
26675.0,-126.52,-52.994,90.613,96.258
26684.0,-129.52,-52.994,88.613,96.258
26694.0,-133.52,-55.994,89.613,95.258
26704.0,-136.52,-55.994,87.613,93.258
26714.0,-141.52,-57.994,85.613,94.258
26724.0,-146.52,-59.994,85.613,95.258
26734.0,-149.52,-60.994,83.613,95.258
26744.0,-153.52,-61.994,84.613,97.258
26754.0,-158.52,-63.994,81.613,95.258
26764.0,-162.52,-65.994,81.613,97.258
26773.0,-166.52,-66.994,80.613,97.258
26783.0,-171.52,-67.994,80.613,97.258
26793.0,-177.52,-70.994,78.613,96.258
26803.0,-181.52,-72.994,78.613,96.258
26813.0,-189.52,-74.994,75.613,95.258
26823.0,-193.52,-75.994,75.613,95.258
26833.0,-193.52,-73.994,71.613,97.258
26843.0,-186.52,-67.994,71.613,97.258
26853.0,-181.52,-62.994,69.613,99.258
26862.0,-174.52,-55.994,69.613,99.258
26872.0,-161.52,-50.994,66.613,97.258
26882.0,-151.52,-50.994,66.613,97.258
26892.0,-146.52,-50.994,67.613,97.258
26902.0,-138.52,-50.994,67.613,97.258
26912.0,-134.52,-50.994,78.613,100.26
26922.0,-131.52,-52.994,78.613,100.26
26932.0,-126.52,-51.994,87.613,106.26
26941.0,-123.52,-51.994,87.613,106.26
26951.0,-122.52,-49.994,98.613,109.26
26961.0,-117.52,-48.994,98.613,109.26
26971.0,-111.52,-45.994,108.61,112.26
26981.0,-106.52,-42.994,108.61,112.26
26991.0,-104.52,-42.994,111.61,113.26
27001.0,-104.52,-42.994,111.61,113.26
27011.0,-104.52,-44.994,113.61,112.26
27021.0,-107.52,-46.994,115.61,112.26
27030.0,-108.52,-47.994,114.61,112.26
27040.0,-108.52,-46.994,114.61,111.26
27050.0,-110.52,-49.994,114.61,112.26
27060.0,-111.52,-51.994,113.61,111.26
27070.0,-113.52,-54.994,112.61,111.26
27080.0,-120.52,-57.994,110.61,110.26
27090.0,-120.52,-60.994,110.61,111.26
27100.0,-124.52,-63.994,108.61,111.26
27110.0,-129.52,-66.994,109.61,111.26
27119.0,-132.52,-69.994,107.61,111.26
27129.0,-135.52,-71.994,106.61,111.26
27139.0,-137.52,-73.994,105.61,110.26
27149.0,-139.52,-75.994,104.61,110.26
27159.0,-141.52,-76.994,106.61,109.26
27169.0,-141.52,-76.994,103.61,110.26
27179.0,-144.52,-77.994,102.61,111.26
27189.0,-144.52,-77.994,102.61,113.26
27199.0,-149.52,-77.994,105.61,113.26
27208.0,-149.52,-77.994,103.61,111.26
27218.0,-157.52,-83.994,102.61,113.26
27228.0,-157.52,-83.994,101.61,112.26
27238.0,-165.52,-84.994,102.61,113.26
27248.0,-165.52,-84.994,102.61,112.26
27258.0,-172.52,-87.994,103.61,114.26
27268.0,-172.52,-87.994,101.61,114.26
27278.0,-183.52,-91.994,103.61,116.26
27287.0,-183.52,-91.994,101.61,115.26
27297.0,-193.52,-98.994,103.61,118.26
27307.0,-193.52,-98.994,104.61,118.26
27317.0,-202.52,-101.99,104.61,121.26
27327.0,-202.52,-101.99,105.61,121.26
27337.0,-209.52,-103.99,105.61,122.26
27347.0,-215.52,-106.99,105.61,122.26
27357.0,-220.52,-109.99,102.61,122.26
27367.0,-225.52,-109.99,101.61,121.26
27376.0,-227.52,-107.99,102.61,123.26
27386.0,-221.52,-103.99,103.61,124.26
27396.0,-213.52,-95.994,102.61,126.26
27406.0,-202.52,-91.994,103.61,126.26
27416.0,-194.52,-86.994,103.61,127.26
27426.0,-190.52,-88.994,103.61,126.26
27436.0,-184.52,-87.994,104.61,127.26
27446.0,-179.52,-89.994,109.61,129.26
27456.0,-175.52,-91.994,114.61,131.26
27465.0,-175.52,-93.994,123.61,134.26
27475.0,-173.52,-95.994,127.61,135.26
27485.0,-172.52,-95.994,131.61,136.26
27495.0,-166.52,-94.994,138.61,138.26
27505.0,-163.52,-93.994,144.61,140.26
27515.0,-160.52,-90.994,147.61,139.26
27525.0,-156.52,-90.994,152.61,142.26
27535.0,-155.52,-90.994,154.61,141.26
27545.0,-155.52,-90.994,156.61,142.26
27554.0,-156.52,-92.994,161.61,142.26
27564.0,-157.52,-94.994,158.61,142.26
27574.0,-155.52,-92.994,158.61,141.26
27584.0,-156.52,-92.994,160.61,142.26
27594.0,-154.52,-91.994,160.61,143.26
27604.0,-153.52,-90.994,157.61,142.26
27614.0,-155.52,-90.994,158.61,142.26
27624.0,-156.52,-92.994,156.61,143.26
27633.0,-158.52,-93.994,156.61,143.26
27643.0,-158.52,-93.994,156.61,143.26
27653.0,-157.52,-94.994,154.61,143.26
27663.0,-161.52,-96.994,153.61,143.26
27673.0,-163.52,-98.994,153.61,142.26
27683.0,-165.52,-99.994,154.61,141.26
27693.0,-166.52,-100.99,152.61,141.26
27703.0,-170.52,-101.99,153.61,141.26
27713.0,-172.52,-103.99,152.61,142.26
27722.0,-173.52,-103.99,151.61,142.26
27732.0,-179.52,-105.99,151.61,142.26
27742.0,-184.52,-106.99,152.61,142.26
27752.0,-186.52,-108.99,151.61,140.26
27762.0,-193.52,-109.99,150.61,139.26
27772.0,-196.52,-113.99,150.61,140.26
27782.0,-201.52,-114.99,147.61,140.26
27792.0,-205.52,-116.99,146.61,140.26
27802.0,-209.52,-118.99,147.61,140.26
27811.0,-215.52,-120.99,146.61,140.26
27821.0,-219.52,-120.99,146.61,140.26
27831.0,-224.52,-123.99,146.61,140.26
27841.0,-229.52,-124.99,144.61,141.26
27851.0,-233.52,-127.99,144.61,141.26
27861.0,-239.52,-129.99,144.61,144.26
27871.0,-242.52,-130.99,144.61,144.26
27881.0,-247.52,-131.99,144.61,145.26
27891.0,-253.52,-132.99,144.61,145.26
27900.0,-257.52,-132.99,140.61,144.26
27910.0,-259.52,-131.99,140.61,144.26
27920.0,-250.52,-124.99,139.61,145.26
27930.0,-243.52,-117.99,139.61,145.26
27940.0,-232.52,-109.99,138.61,146.26
27950.0,-222.52,-106.99,138.61,146.26
27960.0,-216.52,-106.99,141.61,147.26
27970.0,-209.52,-107.99,141.61,147.26
27979.0,-203.52,-108.99,146.61,151.26
27989.0,-198.52,-109.99,146.61,151.26
27999.0,-198.52,-109.99,152.61,154.26
28009.0,-195.52,-112.99,159.61,158.26
28019.0,-195.52,-112.99,165.61,160.26
28029.0,-191.52,-113.99,171.61,161.26
28039.0,-191.52,-113.99,177.61,164.26
28049.0,-188.52,-112.99,178.61,165.26
28059.0,-188.52,-112.99,182.61,167.26
28068.0,-182.52,-110.99,186.61,168.26
28078.0,-182.52,-110.99,187.61,168.26
28088.0,-183.52,-112.99,191.61,167.26
28098.0,-183.52,-112.99,191.61,168.26
28108.0,-178.52,-109.99,190.61,167.26
28118.0,-178.52,-109.99,188.61,165.26
28128.0,-179.52,-108.99,189.61,167.26
28138.0,-179.52,-108.99,191.61,167.26
28148.0,-181.52,-107.99,188.61,168.26
28157.0,-181.52,-107.99,187.61,168.26
28167.0,-180.52,-107.99,185.61,168.26
28177.0,-180.52,-108.99,186.61,168.26
28187.0,-181.52,-110.99,183.61,167.26
28197.0,-183.52,-111.99,184.61,167.26
28207.0,-184.52,-113.99,181.61,166.26
28217.0,-186.52,-114.99,177.61,164.26
28227.0,-188.52,-114.99,179.61,164.26
28237.0,-188.52,-114.99,177.61,163.26
28246.0,-191.52,-116.99,175.61,163.26
28256.0,-191.52,-116.99,177.61,162.26
28266.0,-193.52,-115.99,174.61,163.26
28276.0,-194.52,-114.99,175.61,161.26
28286.0,-194.52,-113.99,174.61,162.26
28296.0,-195.52,-112.99,173.61,161.26
28306.0,-196.52,-113.99,171.61,162.26
28316.0,-200.52,-112.99,170.61,161.26
28325.0,-202.52,-112.99,169.61,160.26
28335.0,-204.52,-113.99,168.61,160.26
28345.0,-207.52,-114.99,166.61,160.26
28355.0,-210.52,-114.99,165.61,158.26
28365.0,-215.52,-115.99,165.61,160.26
28375.0,-217.52,-116.99,163.61,159.26
28385.0,-220.52,-117.99,163.61,159.26
28395.0,-225.52,-119.99,159.61,159.26
28405.0,-228.52,-120.99,159.61,159.26
28414.0,-235.52,-122.99,157.61,160.26
28424.0,-239.52,-123.99,155.61,160.26
28434.0,-244.52,-125.99,154.61,159.26
28444.0,-250.52,-126.99,151.61,158.26
28454.0,-251.52,-125.99,152.61,158.26
28464.0,-245.52,-119.99,148.61,154.26
28474.0,-236.52,-111.99,149.61,158.26
28484.0,-226.52,-104.99,148.61,158.26
28494.0,-217.52,-100.99,146.61,156.26
28503.0,-207.52,-98.994,145.61,155.26
28513.0,-200.52,-98.994,146.61,154.26
28523.0,-193.52,-98.994,147.61,156.26
28533.0,-186.52,-98.994,152.61,158.26
28543.0,-181.52,-99.994,158.61,160.26
28553.0,-178.52,-99.994,162.61,160.26
28563.0,-175.52,-98.994,169.61,163.26
28573.0,-171.52,-98.994,170.61,163.26
28583.0,-164.52,-94.994,175.61,164.26
28592.0,-157.52,-92.994,181.61,165.26
28602.0,-154.52,-89.994,184.61,165.26
28612.0,-148.52,-88.994,185.61,166.26
28622.0,-144.52,-86.994,187.61,164.26
28632.0,-142.52,-85.994,187.61,163.26
28642.0,-144.52,-87.994,187.61,163.26
28652.0,-141.52,-86.994,184.61,161.26
28662.0,-139.52,-83.994,185.61,162.26
28671.0,-136.52,-83.994,182.61,160.26
28681.0,-132.52,-79.994,180.61,159.26
28691.0,-129.52,-79.994,177.61,158.26
28701.0,-130.52,-79.994,175.61,156.26
28711.0,-130.52,-80.994,173.61,156.26
28721.0,-129.52,-78.994,169.61,155.26
28731.0,-129.52,-79.994,169.61,155.26
28741.0,-129.52,-78.994,168.61,153.26
28751.0,-131.52,-79.994,165.61,153.26
28760.0,-134.52,-79.994,164.61,151.26
28770.0,-136.52,-82.994,163.61,151.26
28780.0,-137.52,-81.994,161.61,150.26
28790.0,-138.52,-83.994,163.61,151.26
28800.0,-141.52,-83.994,163.61,150.26
28810.0,-143.52,-84.994,162.61,151.26
28820.0,-145.52,-85.994,161.61,151.26
28830.0,-149.52,-86.994,156.61,150.26
28840.0,-153.52,-87.994,156.61,150.26
28849.0,-153.52,-87.994,155.61,147.26
28859.0,-157.52,-89.994,155.61,147.26
28869.0,-157.52,-89.994,151.61,145.26
28879.0,-165.52,-91.994,151.61,145.26
28889.0,-165.52,-91.994,148.61,146.26
28899.0,-171.52,-94.994,148.61,146.26
28909.0,-171.52,-94.994,146.61,147.26
28919.0,-179.52,-97.994,146.61,147.26
28929.0,-179.52,-97.994,142.61,144.26
28938.0,-188.52,-99.994,142.61,144.26
28948.0,-188.52,-99.994,140.61,145.26
28958.0,-194.52,-102.99,140.61,145.26
28968.0,-194.52,-102.99,135.61,142.26
28978.0,-207.52,-105.99,135.61,142.26
28988.0,-207.52,-105.99,131.61,141.26
28998.0,-209.52,-101.99,131.61,141.26
29008.0,-209.52,-101.99,128.61,140.26
29017.0,-196.52,-93.994,128.61,140.26
29027.0,-189.52,-85.994,129.61,143.26
29037.0,-179.52,-80.994,129.61,143.26
29047.0,-166.52,-75.994,126.61,144.26
29057.0,-157.52,-76.994,126.61,142.26
29067.0,-150.52,-75.994,127.61,143.26
29077.0,-144.52,-76.994,132.61,144.26
29087.0,-140.52,-76.994,139.61,148.26
29097.0,-132.52,-76.994,142.61,148.26
29106.0,-129.52,-76.994,150.61,152.26
29116.0,-123.52,-75.994,153.61,153.26
29126.0,-115.52,-73.994,158.61,155.26
29136.0,-109.52,-69.994,161.61,156.26
29146.0,-102.52,-66.994,167.61,158.26
29156.0,-95.519,-65.994,169.61,159.26
29166.0,-91.519,-63.994,170.61,159.26
29176.0,-87.519,-62.994,173.61,159.26
29186.0,-84.519,-62.994,174.61,159.26
29195.0,-86.519,-63.994,173.61,158.26
29205.0,-84.519,-63.994,170.61,154.26
29215.0,-81.519,-62.994,169.61,156.26
29225.0,-82.519,-62.994,167.61,154.26
29235.0,-79.519,-60.994,165.61,152.26
29245.0,-76.519,-60.994,163.61,152.26
29255.0,-77.519,-61.994,162.61,150.26
29265.0,-75.519,-60.994,158.61,150.26
29275.0,-76.519,-60.994,157.61,150.26
29284.0,-77.519,-60.994,158.61,149.26
29294.0,-75.519,-60.994,155.61,148.26
29304.0,-75.519,-60.994,152.61,146.26
29314.0,-75.519,-60.994,150.61,145.26
29324.0,-76.519,-58.994,149.61,144.26
29334.0,-75.519,-60.994,147.61,144.26
29344.0,-77.519,-58.994,144.61,141.26
29354.0,-75.519,-58.994,146.61,142.26
29363.0,-77.519,-58.994,144.61,142.26
29373.0,-81.519,-59.994,143.61,141.26
29383.0,-85.519,-60.994,142.61,140.26
29393.0,-85.519,-60.994,138.61,139.26
29403.0,-90.519,-60.994,137.61,139.26
29413.0,-93.519,-63.994,134.61,136.26
29423.0,-96.519,-63.994,132.61,136.26
29433.0,-100.52,-65.994,130.61,136.26
29443.0,-104.52,-66.994,131.61,135.26
29452.0,-110.52,-68.994,127.61,136.26
29462.0,-113.52,-70.994,126.61,134.26
29472.0,-119.52,-71.994,123.61,134.26
29482.0,-125.52,-73.994,124.61,134.26
29492.0,-128.52,-74.994,122.61,133.26
29502.0,-133.52,-77.994,120.61,134.26
29512.0,-139.52,-78.994,118.61,132.26
29522.0,-144.52,-81.994,116.61,132.26
29532.0,-151.52,-83.994,114.61,132.26
29541.0,-158.52,-86.994,110.61,133.26
29551.0,-161.52,-87.994,112.61,133.26
29561.0,-162.52,-85.994,109.61,133.26
29571.0,-155.52,-76.994,108.61,130.26
29581.0,-144.52,-70.994,105.61,132.26
29591.0,-135.52,-63.994,107.61,132.26
29601.0,-122.52,-60.994,104.61,132.26
29611.0,-113.52,-58.994,106.61,132.26
29621.0,-106.52,-58.994,104.61,133.26
29630.0,-99.519,-58.994,109.61,136.26
29640.0,-91.519,-58.994,113.61,138.26
29650.0,-86.519,-59.994,120.61,139.26
29660.0,-84.519,-57.994,122.61,139.26
29670.0,-81.519,-60.994,128.61,142.26
29680.0,-75.519,-58.994,134.61,143.26
29690.0,-70.519,-56.994,138.61,144.26
29700.0,-70.519,-56.994,141.61,147.26
29709.0,-59.519,-53.994,146.61,149.26
29719.0,-59.519,-53.994,149.61,150.26
29729.0,-51.519,-53.994,152.61,151.26
29739.0,-51.519,-53.994,153.61,151.26
29749.0,-54.519,-54.994,153.61,150.26
29759.0,-54.519,-54.994,150.61,149.26
29769.0,-50.519,-52.994,149.61,148.26
29779.0,-50.519,-52.994,149.61,149.26
29789.0,-46.519,-50.994,146.61,149.26
29798.0,-46.519,-50.994,146.61,147.26
29808.0,-45.519,-49.994,142.61,146.26
29818.0,-45.519,-49.994,140.61,146.26
29828.0,-41.519,-48.994,138.61,146.26
29838.0,-41.519,-48.994,136.61,143.26
29848.0,-41.519,-46.994,134.61,143.26
29858.0,-41.519,-46.994,134.61,142.26
29868.0,-41.519,-47.994,130.61,140.26
29878.0,-42.519,-45.994,130.61,141.26
29887.0,-42.519,-46.994,127.61,141.26
29897.0,-43.519,-45.994,127.61,141.26
29907.0,-43.519,-45.994,127.61,140.26
29917.0,-46.519,-45.994,127.61,141.26
29927.0,-47.519,-45.994,127.61,141.26
29937.0,-51.519,-45.994,124.61,139.26
29947.0,-53.519,-46.994,124.61,139.26
29957.0,-58.519,-47.994,119.61,138.26
29967.0,-62.519,-48.994,119.61,138.26
29976.0,-65.519,-49.994,116.61,136.26
29986.0,-68.519,-51.994,116.61,136.26
29996.0,-73.519,-52.994,114.61,136.26
