t,lead_I,lead_II,v3,v4
0.3,13957,-78119,24899,43755
2.3,12714,-79178,24460,43033
4.3,12230,-79545,24564,42907
6.3,12224,-80171,25117,43261
8.3,11993,-81135,25421,43341
10.3,11527,-81438,25262,42952
12.3,11269,-81051,25143,42635
14.3,11255,-80806,25277,42601
16.3,11209,-80622,25360,42536
18.3,11106,-79935,25382,42446
20.3,11109,-79194,25618,42615
22.3,11217,-79235,26026,42994
24.3,11293,-79911,26414,43370
26.3,11250,-80482,26717,43673
28.3,11120,-80673,26814,43790
30.3,11038,-80736,26670,43668
32.3,11069,-80904,26453,43439
34.3,11074,-80992,26164,43104
36.3,10920,-80580,25728,42623
38.3,10748,-79820,25469,42333
40.3,10786,-79495,25702,42543
42.3,10969,-79850,26173,43006
44.3,11032,-80295,26526,43360
46.3,10919,-80581,26738,43580
48.3,10821,-80982,26810,43671
50.3,10856,-81295,26656,43538
52.3,10951,-81069,26324,43197
54.3,11005,-80581,25934,42768
56.3,10983,-80310,25625,42424
58.3,10909,-80105,25585,42370
60.3,10883,-79854,25831,42620
62.3,10988,-79958,26184,42992
64.3,11130,-80479,26539,43359
66.3,11116,-80914,26799,43612
68.3,10947,-81109,26819,43629
70.3,10856,-81286,26693,43521
72.3,10931,-81263,26605,43454
74.3,10944,-80711,26384,43244
76.3,10767,-79901,25910,42770
78.3,10668,-79373,25592,42438
80.3,10852,-79245,25747,42566
82.3,11096,-79380,26104,42909
84.3,11178,-79709,26381,43195
86.3,11191,-80129,26606,43448
88.3,11217,-80524,26728,43607
90.3,11150,-80917,26635,43547
92.3,10967,-81234,26455,43380
94.3,10810,-81134,26314,43230
96.3,10789,-80493,26132,43032
98.3,10893,-79778,25949,42831
100.3,11000,-79509,25974,42836
102.3,11058,-79648,26220,43068
104.3,11171,-79907,26516,43356
106.3,11299,-80288,26796,43627
108.3,11132,-80793,27029,43851
110.3,10668,-81095,27048,43872
112.3,10384,-81013,26744,43572
114.3,10471,-80771,26299,43120
116.3,10632,-80450,26029,42823
118.3,10807,-79926,26019,42783
120.3,11192,-79474,26136,42889
122.3,11551,-79542,26337,43096
124.3,11512,-80001,26653,43422
126.3,11308,-80385,26931,43709
128.3,11324,-80546,26970,43760
130.3,11354,-80528,26857,43654
132.3,11142,-80315,26757,43553
134.3,10998,-80010,26598,43394
136.3,11164,-79799,26366,43149
138.3,11312,-79705,26308,43061
140.3,11216,-79665,26509,43237
142.3,11121,-79670,26739,43462
144.3,11130,-79789,26930,43655
146.3,11042,-80134,27214,43946
148.3,10900,-80618,27453,44206
150.3,10916,-80852,27375,44143
152.3,10984,-80653,27059,43812
154.3,10938,-80301,26764,43493
156.3,10940,-80046,26562,43287
158.3,11111,-79859,26484,43215
160.3,11252,-79713,26609,43340
162.3,11241,-79606,26839,43572
164.3,11203,-79570,27015,43759
166.3,11237,-79825,27154,43911
168.3,11381,-80327,27233,43995
170.3,11610,-80480,27111,43870
172.3,11692,-80086,26887,43643
174.3,11458,-79786,26808,43567
176.3,11187,-79870,26799,43566
178.3,11222,-79840,26692,43455
180.3,11414,-79593,26679,43423
182.3,11459,-79620,26950,43682
184.3,11386,-79952,27272,44010
186.3,11349,-80164,27385,44128
188.3,11332,-80207,27344,44085
190.3,11301,-80239,27234,43979
192.3,11295,-80168,27040,43792
194.3,11307,-79938,26844,43596
196.3,11339,-79725,26774,43525
198.3,11486,-79644,26812,43561
200.3,11728,-79671,26894,43632
202.3,11850,-79730,27015,43740
204.3,11766,-79742,27152,43882
206.3,11632,-79806,27275,44020
208.3,11510,-80076,27369,44118
210.3,11361,-80295,27342,44089
212.3,11388,-80070,27102,43853
214.3,11759,-79650,26806,43560
216.3,12050,-79556,26726,43478
218.3,11809,-79657,26848,43604
220.3,11427,-79582,26939,43698
222.3,11525,-79495,26944,43695
224.3,11873,-79569,26988,43727
226.3,11923,-79561,27073,43814
228.3,11815,-79516,27121,43871
230.3,11885,-79774,27155,43909
232.3,11875,-80088,27192,43949
234.3,11548,-79993,27147,43908
236.3,11334,-79726,27019,43764
238.3,11527,-79644,26948,43655
240.3,11704,-79541,27019,43698
242.3,11596,-79413,27168,43840
244.3,11583,-79645,27290,43963
246.3,11807,-80063,27346,44023
248.3,11858,-80148,27364,44058
250.3,11673,-80017,27370,44078
252.3,11619,-79960,27313,44017
254.3,11650,-79798,27163,43861
256.3,11494,-79531,27023,43734
258.3,11363,-79471,27011,43737
260.3,11488,-79521,27105,43830
262.3,11559,-79487,27242,43962
264.3,11403,-79607,27370,44100
266.3,11384,-79868,27378,44121
268.3,11628,-79860,27242,43981
270.3,11754,-79763,27138,43872
272.3,11599,-80062,27156,43903
274.3,11400,-80404,27119,43884
276.3,11297,-80193,26940,43706
278.3,11282,-79784,26801,43563
280.3,11363,-79852,26805,43578
282.3,11409,-80270,26851,43641
284.3,11255,-80512,26903,43702
286.3,11043,-80490,27019,43827
288.3,10998,-80461,27154,43982
290.3,11035,-80520,27182,44032
292.3,11009,-80494,27058,43916
294.3,11040,-80230,26840,43698
296.3,11215,-79875,26657,43515
298.3,11377,-79733,26616,43477
300.3,11443,-79825,26674,43545
302.3,11509,-79893,26720,43610
304.3,11558,-79902,26750,43659
306.3,11464,-80084,26826,43738
308.3,11283,-80441,26908,43812
310.3,11203,-80640,26904,43807
312.3,11244,-80466,26787,43698
314.3,11261,-80092,26605,43518
316.3,11184,-79872,26475,43387
318.3,11075,-79978,26520,43436
320.3,11033,-80186,26678,43600
322.3,11089,-80213,26766,43689
324.3,11161,-80215,26786,43715
326.3,11124,-80456,26862,43808
328.3,10982,-80704,26924,43884
330.3,10883,-80693,26852,43806
332.3,10953,-80691,26770,43695
334.3,11168,-80838,26780,43673
336.3,11341,-80731,26739,43616
338.3,11303,-80313,26616,43500
340.3,11131,-80090,26618,43519
342.3,11051,-80153,26764,43684
344.3,11084,-80115,26837,43765
346.3,11082,-79991,26809,43728
348.3,11058,-80070,26815,43718
350.3,11139,-80210,26812,43710
352.3,11275,-80148,26693,43597
354.3,11295,-80057,26576,43487
356.3,11166,-80174,26594,43514
358.3,11030,-80341,26641,43566
360.3,11009,-80326,26617,43535
362.3,11052,-80219,26645,43558
364.3,11041,-80253,26817,43739
366.3,11015,-80472,26994,43925
368.3,11081,-80697,27037,43965
370.3,11197,-80708,26973,43900
372.3,11254,-80491,26861,43791
374.3,11245,-80274,26728,43650
376.3,11186,-80167,26630,43541
378.3,11070,-80021,26596,43515
380.3,10974,-79851,26600,43527
382.3,10973,-79948,26642,43562
384.3,11043,-80284,26721,43645
386.3,11185,-80440,26755,43704
388.3,11379,-80351,26710,43673
390.3,11422,-80374,26691,43644
392.3,11215,-80521,26742,43688
394.3,11053,-80446,26728,43684
396.3,11152,-80172,26592,43553
398.3,11234,-80093,26502,43456
400.3,11071,-80286,26584,43538
402.3,10937,-80467,26724,43686
404.3,11070,-80541,26771,43742
406.3,11262,-80643,26735,43716
408.3,11290,-80719,26686,43669
410.3,11211,-80604,26637,43607
412.3,11078,-80437,26595,43561
414.3,10922,-80464,26574,43561
416.3,10882,-80567,26543,43549
418.3,10983,-80500,26471,43474
420.3,11073,-80350,26379,43387
422.3,11157,-80344,26338,43366
424.3,11300,-80477,26425,43455
426.3,11331,-80606,26615,43622
428.3,11175,-80647,26723,43720
430.3,11086,-80620,26640,43643
432.3,11142,-80643,26514,43513
434.3,11098,-80759,26495,43479
436.3,10937,-80810,26502,43479
438.3,10897,-80723,26461,43448
440.3,10993,-80663,26454,43465
442.3,11095,-80677,26494,43525
444.3,11203,-80607,26487,43523
446.3,11264,-80521,26476,43504
448.3,11187,-80684,26540,43565
450.3,11140,-81036,26570,43599
452.3,11249,-81232,26488,43515
454.3,11224,-81180,26445,43469
456.3,10915,-81064,26523,43552
458.3,10720,-80954,26541,43579
460.3,10872,-80800,26417,43459
462.3,11010,-80677,26355,43398
464.3,10931,-80683,26460,43506
466.3,10938,-80764,26545,43593
468.3,11114,-80830,26482,43528
470.3,11133,-80872,26408,43453
472.3,10975,-80875,26423,43470
474.3,11019,-80818,26426,43474
476.3,11322,-80779,26360,43411
478.3,11497,-80810,26334,43404
480.3,11348,-80811,26413,43506
482.3,11108,-80749,26499,43590
484.3,11004,-80780,26499,43569
486.3,10968,-80954,26456,43517
488.3,10879,-81068,26453,43514
490.3,10818,-80961,26472,43515
492.3,10878,-80725,26444,43458
494.3,10961,-80509,26389,43401
496.3,11009,-80344,26409,43432
498.3,11153,-80254,26529,43546
500.3,11385,-80296,26667,43675
502.3,11454,-80392,26749,43775
504.3,11318,-80348,26775,43818
506.3,11234,-80195,26784,43815
508.3,11302,-80197,26807,43813
510.3,11352,-80375,26841,43829
512.3,11288,-80451,26866,43838
514.3,11188,-80343,26900,43860
516.3,11126,-80207,26940,43916
518.3,11101,-80020,26926,43944
520.3,11057,-79698,26854,43912
522.3,10994,-79464,26835,43920
524.3,11061,-79496,26921,44023
526.3,11373,-79478,26997,44099
528.3,11736,-79140,26984,44070
530.3,11836,-78839,26990,44064
532.3,11689,-78982,27097,44177
534.3,11559,-79306,27195,44285
536.3,11553,-79352,27152,44253
538.3,11571,-79197,27024,44140
540.3,11553,-79157,26944,44078
542.3,11538,-79226,26958,44105
544.3,11517,-79331,27050,44199
546.3,11429,-79584,27176,44308
548.3,11310,-79928,27226,44324
550.3,11285,-80129,27104,44174
552.3,11335,-80228,26850,43915
554.3,11298,-80366,26581,43650
556.3,11167,-80433,26375,43454
558.3,11123,-80429,26283,43394
560.3,11187,-80578,26300,43459
562.3,11194,-80760,26305,43494
564.3,11120,-80718,26220,43404
566.3,11073,-80749,26164,43325
568.3,11038,-81156,26246,43382
570.3,10966,-81508,26345,43451
572.3,10960,-81408,26305,43384
574.3,11033,-81158,26187,43264
576.3,10984,-81022,26136,43231
578.3,10771,-80903,26146,43263
580.3,10657,-80895,26125,43266
582.3,10767,-81100,26057,43222
584.3,10875,-81213,26018,43190
586.3,10822,-81105,26089,43242
588.3,10771,-81083,26243,43371
590.3,10873,-81149,26324,43437
592.3,11007,-80998,26227,43326
594.3,10994,-80779,26080,43172
596.3,10879,-80820,26057,43172
598.3,10855,-80928,26095,43253
600.3,10981,-80892,26067,43251
602.3,11098,-81001,26060,43242
604.3,11083,-81324,26139,43320
606.3,11060,-81394,26126,43304
608.3,11147,-81077,25949,43094
610.3,11180,-80806,25864,42966
612.3,10997,-80808,26003,43102
614.3,10802,-80973,26141,43263
616.3,10858,-81224,26101,43232
618.3,11026,-81368,25986,43129
620.3,11011,-81206,25940,43120
622.3,10857,-81059,25989,43195
624.3,10805,-81262,26088,43271
626.3,10852,-81387,26131,43268
628.3,10821,-81090,26085,43188
630.3,10736,-80929,26089,43161
632.3,10772,-81281,26204,43238
634.3,10884,-81598,26245,43232
636.3,10801,-81515,26120,43010
638.3,10451,-81413,26027,42750
640.3,10118,-81519,26133,42669
642.3,10043,-81648,26352,42758
644.3,10145,-81722,26574,42931
646.3,10275,-81754,26789,43169
648.3,10429,-81718,26956,43429
650.3,10659,-81669,27013,43650
652.3,11091,-81486,26958,43839
654.3,11915,-80877,26797,44013
656.3,13052,-80019,26589,44221
658.3,14111,-79358,26563,44681
660.3,14962,-78726,26872,45596
662.3,15885,-77693,27280,46774
664.3,16921,-76455,27473,47842
666.3,17663,-75288,27539,48782
668.3,17939,-73963,27704,49794
670.3,18130,-72624,27847,50702
672.3,18527,-72135,27759,51108
674.3,18851,-72767,27565,50969
676.3,18738,-73789,27419,50455
678.3,18287,-74778,27166,49495
680.3,17671,-76070,26704,48049
682.3,16643,-77730,26215,46486
684.3,15066,-79247,25790,45205
686.3,13507,-80270,25318,44245
688.3,12578,-80840,24850,43520
690.3,12114,-81090,24597,43035
692.3,11674,-81202,24624,42777
694.3,11320,-81335,24891,42742
696.3,11276,-81386,25371,42976
698.3,11365,-81174,25873,43325
700.3,11322,-80802,26128,43493
702.3,11185,-80525,26167,43463
704.3,11108,-80462,26245,43479
706.3,11133,-80603,26391,43571
708.3,11185,-80884,26433,43558
710.3,11113,-81179,26385,43463
712.3,10900,-81359,26412,43457
714.3,10807,-81332,26462,43482
716.3,10971,-81109,26368,43369
718.3,11104,-80911,26208,43212
720.3,10984,-80924,26190,43221
722.3,10836,-80946,26287,43338
724.3,10863,-80782,26320,43365
726.3,10900,-80771,26282,43304
728.3,10832,-81194,26275,43262
730.3,10781,-81606,26294,43243
732.3,10765,-81585,26306,43237
734.3,10684,-81507,26354,43299
736.3,10590,-81737,26444,43408
738.3,10591,-81873,26503,43473
740.3,10649,-81536,26479,43466
742.3,10710,-81072,26406,43424
744.3,10777,-80892,26354,43378
746.3,10833,-80927,26381,43372
748.3,10901,-81064,26471,43433
750.3,11044,-81291,26526,43480
752.3,11165,-81371,26455,43396
754.3,11112,-81142,26302,43230
756.3,10963,-80976,26256,43203
758.3,10860,-81190,26405,43389
760.3,10768,-81418,26555,43552
762.3,10679,-81251,26495,43493
764.3,10719,-80969,26367,43374
766.3,10837,-80983,26413,43426
768.3,10880,-81144,26557,43555
770.3,10914,-81174,26597,43578
772.3,11017,-81173,26586,43565
774.3,11038,-81261,26627,43609
776.3,10925,-81257,26610,43589
778.3,10839,-81042,26467,43447
780.3,10828,-80827,26359,43349
782.3,10872,-80819,26397,43398
784.3,11038,-80933,26496,43501
786.3,11212,-80975,26566,43564
788.3,11123,-80908,26594,43565
790.3,10848,-80867,26570,43501
792.3,10715,-80970,26551,43454
794.3,10763,-81126,26620,43516
796.3,10875,-81109,26703,43603
798.3,11086,-80897,26655,43570
800.3,11316,-80716,26539,43480
802.3,11309,-80635,26527,43481
804.3,11118,-80558,26596,43537
806.3,11052,-80644,26621,43542
808.3,11092,-81025,26633,43535
810.3,10952,-81267,26712,43579
812.3,10675,-81011,26791,43623
814.3,10580,-80695,26789,43618
816.3,10711,-80747,26755,43605
818.3,10827,-80867,26787,43650
820.3,10862,-80854,26917,43791
822.3,10984,-80958,27086,43985
824.3,11208,-81061,27168,44085
826.3,11309,-80847,27106,44006
828.3,11194,-80643,27001,43861
830.3,11092,-80771,26959,43784
832.3,11189,-80812,26946,43761
834.3,11311,-80578,26948,43769
836.3,11269,-80574,27035,43861
838.3,11197,-80853,27158,43992
840.3,11243,-80839,27150,44009
842.3,11270,-80492,27005,43888
844.3,11205,-80268,26900,43778
846.3,11212,-80224,26929,43781
848.3,11312,-80240,27018,43851
850.3,11343,-80434,27080,43897
852.3,11320,-80702,27100,43896
854.3,11282,-80729,27114,43911
856.3,11101,-80647,27156,43989
858.3,10931,-80726,27194,44059
860.3,11176,-80753,27183,44052
862.3,11648,-80573,27176,44044
864.3,11715,-80526,27240,44108
866.3,11439,-80686,27299,44153
868.3,11421,-80661,27252,44080
870.3,11612,-80475,27144,43959
872.3,11544,-80477,27074,43892
874.3,11370,-80475,27069,43886
876.3,11460,-80179,27149,43962
878.3,11555,-79976,27294,44122
880.3,11350,-80177,27369,44223
882.3,11186,-80367,27312,44174
884.3,11349,-80292,27262,44108
886.3,11519,-80267,27289,44116
888.3,11482,-80342,27267,44084
890.3,11504,-80258,27182,43994
892.3,11669,-80116,27188,43995
894.3,11698,-80125,27268,44071
896.3,11576,-80194,27278,44072
898.3,11569,-80291,27250,44041
900.3,11637,-80449,27277,44079
902.3,11526,-80422,27280,44096
904.3,11320,-80159,27217,44039
906.3,11296,-80095,27209,44022
908.3,11419,-80328,27269,44064
910.3,11479,-80404,27278,44055
912.3,11517,-80263,27236,44009
914.3,11648,-80295,27236,44018
916.3,11699,-80420,27265,44055
918.3,11523,-80261,27282,44075
920.3,11416,-80025,27314,44112
922.3,11649,-80179,27361,44164
924.3,11904,-80537,27389,44183
926.3,11789,-80567,27406,44178
928.3,11517,-80296,27431,44184
930.3,11447,-80180,27465,44213
932.3,11453,-80289,27506,44255
934.3,11356,-80272,27511,44258
936.3,11364,-80083,27419,44172
938.3,11581,-80095,27306,44079
940.3,11685,-80381,27313,44110
942.3,11511,-80486,27379,44193
944.3,11354,-80221,27344,44164
946.3,11413,-80038,27275,44089
948.3,11499,-80222,27328,44135
950.3,11461,-80423,27412,44222
952.3,11402,-80434,27368,44190
954.3,11389,-80570,27274,44117
956.3,11388,-80890,27231,44107
958.3,11420,-80965,27146,44056
960.3,11462,-80721,27021,43946
962.3,11395,-80570,27016,43943
964.3,11271,-80635,27064,43997
966.3,11277,-80670,26954,43890
968.3,11376,-80623,26778,43708
970.3,11391,-80629,26765,43700
972.3,11372,-80660,26835,43792
974.3,11410,-80584,26801,43776
976.3,11349,-80406,26730,43717
978.3,11089,-80294,26752,43761
980.3,10877,-80401,26813,43845
982.3,10923,-80615,26827,43865
984.3,11059,-80689,26792,43831
986.3,11045,-80689,26760,43808
988.3,10918,-80892,26808,43852
990.3,10859,-81200,26940,43957
992.3,10933,-81258,27019,44017
994.3,11050,-81098,26971,43974
996.3,11094,-81005,26902,43909
998.3,11094,-80942,26853,43854
1000.3,11182,-80762,26747,43762
1002.3,11290,-80632,26639,43689
1004.3,11187,-80678,26649,43715
1006.3,10949,-80711,26697,43747
1008.3,10929,-80704,26677,43706
1010.3,11086,-80867,26700,43724
1012.3,11038,-81052,26843,43869
1014.3,10857,-80954,26927,43962
1016.3,10957,-80818,26850,43907
1018.3,11218,-80999,26770,43847
1020.3,11215,-81217,26780,43857
1022.3,11067,-81142,26776,43842
1024.3,11124,-81020,26736,43781
1026.3,11241,-81029,26761,43781
1028.3,11201,-80962,26840,43851
1030.3,11172,-80876,26870,43889
1032.3,11202,-81019,26853,43869
1034.3,11088,-81158,26855,43853
1036.3,10968,-80953,26863,43861
1038.3,11110,-80656,26849,43869
1040.3,11263,-80627,26835,43865
1042.3,11163,-80746,26810,43835
1044.3,11107,-80840,26762,43792
1046.3,11272,-81006,26773,43813
1048.3,11327,-81177,26859,43893
1050.3,11188,-81096,26862,43883
1052.3,11142,-80867,26723,43743
1054.3,11138,-80843,26627,43650
1056.3,10996,-81016,26682,43708
1058.3,10932,-81106,26776,43814
1060.3,11021,-81148,26854,43914
1062.28,10909,-81345,26971,44044
1064.25,10620,-81473,27056,44127
1066.23,10629,-81151,26997,44061
1068.2,10938,-80619,26872,43930
1070.2,11162,-80491,26802,43854
1072.2,11292,-80757,26751,43800
1074.2,11424,-80890,26674,43727
1076.2,11300,-80817,26645,43708
1078.2,10906,-80852,26692,43768
1080.2,10710,-80928,26721,43810
1082.2,10863,-80888,26697,43793
1084.2,11049,-81016,26695,43788
1086.2,11148,-81367,26722,43810
1088.2,11243,-81429,26700,43787
1090.2,11245,-81137,26656,43744
1092.2,11147,-81064,26687,43773
1094.2,11137,-81233,26746,43830
1096.2,11161,-81158,26722,43813
1098.2,11036,-81008,26662,43772
1100.2,10920,-81228,26662,43787
1102.2,11007,-81442,26657,43775
1104.2,11123,-81137,26582,43689
1106.2,11151,-80752,26542,43657
1108.2,11222,-80885,26617,43738
1110.2,11254,-81196,26684,43790
1112.2,11038,-81072,26613,43712
1114.2,10784,-80660,26471,43598
1116.2,10824,-80526,26421,43573
1118.2,11015,-80753,26486,43631
1120.2,11056,-80956,26539,43674
1122.2,11000,-80956,26512,43654
1124.2,11010,-80992,26467,43613
1126.2,11038,-81183,26458,43587
1128.2,11027,-81258,26454,43558
1130.2,11035,-81108,26440,43531
1132.2,11069,-81121,26460,43559
1134.2,11069,-81438,26516,43650
1136.2,11079,-81494,26533,43702
1138.2,11212,-80993,26436,43610
1140.2,11449,-80613,26278,43447
1142.2,11590,-80941,26241,43425
1144.2,11459,-81522,26414,43604
1146.2,11130,-81691,26606,43768
1148.2,10890,-81471,26569,43698
1150.2,10896,-81167,26368,43495
1152.2,10978,-80984,26294,43427
1154.2,10888,-81097,26425,43554
1156.2,10673,-81341,26534,43674
1158.2,10594,-81255,26482,43657
1160.2,10715,-80936,26411,43603
1162.2,10847,-80917,26458,43630
1164.2,10923,-81094,26517,43661
1166.2,11053,-81005,26457,43594
1168.2,11154,-80892,26357,43499
1170.2,11027,-81184,26341,43488
1172.2,10913,-81508,26357,43506
1174.2,11252,-81359,26300,43453
1176.2,11757,-81035,26253,43414
1178.2,11647,-81035,26374,43548
1180.2,10969,-81184,26578,43758
1182.2,10592,-81088,26604,43780
1184.2,10760,-80926,26443,43610
1186.2,10868,-81125,26359,43515
1188.2,10729,-81495,26422,43562
1190.2,10760,-81452,26420,43549
1192.2,10944,-81040,26290,43426
1194.2,10854,-80889,26202,43360
1196.2,10620,-81124,26202,43380
1198.2,10739,-81270,26204,43391
1200.2,11105,-81192,26248,43432
1202.2,11219,-81164,26398,43565
1204.2,11089,-81184,26510,43656
1206.2,11101,-81065,26443,43585
1208.2,11267,-80898,26327,43477
1210.2,11314,-80800,26371,43517
1212.2,11243,-80657,26550,43677
1214.2,11249,-80471,26680,43800
1216.2,11315,-80395,26702,43832
1218.2,11297,-80361,26708,43846
1220.2,11223,-80229,26737,43871
1222.2,11207,-80115,26708,43829
1224.2,11237,-80174,26615,43722
1226.2,11242,-80405,26611,43708
1228.2,11221,-80794,26767,43861
1230.2,11185,-81168,26919,44015
1232.2,11125,-81170,26926,44027
1234.2,11085,-80819,26886,44004
1236.2,11119,-80521,26906,44061
1238.2,11192,-80327,26926,44119
1240.2,11263,-79984,26903,44115
1242.2,11388,-79629,26906,44118
1244.2,11533,-79543,26950,44151
1246.2,11514,-79580,27005,44173
1248.2,11357,-79553,27089,44220
1250.2,11339,-79595,27183,44313
1252.2,11486,-79717,27201,44370
1254.2,11515,-79750,27168,44370
1256.2,11385,-79795,27189,44404
1258.2,11334,-80002,27231,44462
1260.2,11376,-80147,27191,44428
1262.2,11331,-80088,27102,44311
1264.2,11251,-80126,27049,44220
1266.2,11296,-80395,26982,44135
1268.2,11386,-80552,26811,43964
1270.2,11358,-80453,26586,43753
1272.2,11254,-80439,26433,43632
1274.2,11194,-80746,26395,43620
1276.2,11152,-81219,26418,43651
1278.2,11061,-81582,26430,43675
1280.2,10972,-81648,26383,43643
1282.2,10969,-81445,26291,43530
1284.2,11059,-81275,26237,43425
1286.2,11149,-81330,26267,43424
1288.2,11083,-81426,26329,43484
1290.2,10828,-81398,26347,43503
1292.2,10634,-81365,26292,43454
1294.2,10769,-81385,26169,43363
1296.2,11142,-81343,26042,43266
1298.2,11475,-81296,25984,43225
1300.2,11627,-81406,25992,43246
1302.2,11501,-81593,26024,43285
1304.2,11046,-81671,26110,43345
1306.2,10541,-81677,26249,43445
1308.2,10385,-81708,26322,43502
1310.2,10539,-81683,26273,43453
1312.2,10639,-81541,26216,43392
1314.2,10554,-81445,26225,43411
1316.2,10438,-81536,26239,43458
1318.2,10425,-81657,26224,43460
1320.2,10540,-81634,26210,43436
1322.2,10744,-81618,26207,43417
1324.2,10938,-81747,26194,43383
1326.2,11033,-81728,26130,43283
1328.2,11031,-81347,25985,43117
1330.2,10982,-81051,25856,42998
1332.2,10919,-81282,25889,43045
1334.2,10828,-81722,26029,43200
1336.2,10711,-81905,26104,43312
1338.2,10662,-81923,26112,43358
1340.2,10772,-81955,26135,43386
1342.2,10935,-81914,26124,43360
1344.2,10958,-81845,26052,43267
1346.2,10893,-81857,26037,43210
1348.2,10917,-81753,26108,43242
1350.2,10919,-81496,26166,43270
1352.2,10637,-81528,26222,43236
1354.2,10190,-82022,26362,43188
1356.2,9965,-82515,26505,43133
1358.2,10017,-82618,26538,43044
1360.2,10083,-82391,26558,43015
1362.2,10103,-82064,26701,43177
1364.2,10247,-81888,26888,43474
1366.2,10587,-81901,26957,43725
1368.2,11138,-81685,26883,43868
1370.2,12001,-80943,26700,43972
1372.2,13160,-80102,26475,44145
1374.2,14367,-79575,26408,44571
1376.2,15396,-78998,26614,45376
1378.2,16207,-77979,26862,46373
1380.2,16863,-76837,26931,47299
1382.2,17433,-75867,27022,48268
1384.2,17894,-74767,27334,49443
1386.2,18161,-73520,27596,50482
1388.2,18293,-72984,27576,50956
1390.2,18471,-73761,27515,50946
1392.2,18658,-75149,27513,50587
1394.2,18525,-76083,27206,49599
1396.2,17779,-76648,26520,47957
1398.2,16414,-77656,25917,46293
1400.2,14778,-79084,25562,45074
1402.2,13439,-80162,25156,44157
1404.2,12703,-80769,24722,43448
1406.2,12320,-81418,24629,43116
1408.2,11925,-81992,24856,43049
1410.2,11532,-81902,25087,42967
1412.2,11311,-81347,25324,42961
1414.2,11226,-81082,25702,43203
1416.2,11144,-81149,26030,43465
1418.2,11034,-81136,26142,43525
1420.2,10956,-81194,26238,43571
1422.2,11026,-81526,26442,43716
1424.2,11261,-81614,26507,43702
1426.2,11404,-81209,26343,43461
1428.2,11186,-81047,26263,43339
1430.2,10777,-81503,26402,43464
1432.2,10603,-81816,26478,43538
1434.2,10735,-81561,26373,43437
1436.2,10882,-81370,26303,43373
1438.2,10921,-81604,26334,43405
1440.2,10973,-81760,26315,43385
1442.2,11046,-81557,26241,43307
1444.2,11027,-81362,26218,43259
1446.2,10896,-81473,26245,43244
1448.2,10701,-81769,26305,43279
1450.2,10507,-81940,26395,43366
1452.2,10432,-81776,26425,43395
1454.2,10493,-81469,26383,43352
1456.2,10591,-81425,26397,43383
1458.2,10753,-81560,26454,43465
1460.2,10976,-81446,26417,43432
1462.2,10994,-81258,26378,43367
1464.2,10739,-81506,26512,43462
1466.2,10639,-81891,26657,43579
1468.2,10889,-81747,26578,43485
1470.2,11071,-81367,26421,43331
1472.2,10929,-81432,26436,43370
1474.2,10742,-81613,26529,43505
1476.2,10695,-81325,26510,43529
1478.2,10646,-81084,26463,43515
1480.2,10576,-81488,26517,43584
1482.2,10636,-81849,26546,43608
1484.2,10812,-81427,26433,43467
1486.2,10977,-80872,26325,43322
1488.2,11076,-81009,26372,43343
1490.2,11054,-81480,26503,43468
1492.2,10873,-81688,26607,43584
1494.2,10722,-81681,26643,43645
1496.2,10848,-81502,26558,43592
1498.2,11123,-81100,26405,43453
1500.2,11192,-80929,26397,43428
1502.2,11034,-81254,26549,43549
1504.2,10913,-81427,26579,43556
1506.2,10872,-81079,26427,43387
1508.2,10795,-80910,26407,43344
1510.2,10796,-81278,26624,43540
1512.2,10968,-81508,26784,43699
1514.2,11085,-81299,26741,43673
1516.2,11000,-81153,26690,43638
1518.2,10922,-81165,26733,43687
1520.2,11010,-80990,26756,43706
1522.2,11136,-80853,26741,43682
1524.2,11156,-81125,26775,43698
1526.2,11078,-81432,26803,43703
1528.2,11020,-81356,26731,43611
1530.2,11094,-81193,26646,43516
1532.2,11172,-81195,26662,43523
1534.2,11017,-81124,26730,43583
1536.2,10793,-80980,26785,43641
1538.2,10885,-81020,26847,43718
1540.2,11166,-81044,26889,43769
1542.2,11209,-80795,26885,43758
1544.2,11078,-80633,26943,43793
1546.2,11092,-80805,27096,43922
1548.2,11158,-80881,27147,43958
1550.2,11054,-80710,27019,43829
1552.2,10925,-80746,26942,43762
1554.2,10959,-80950,27014,43858
1556.2,11036,-80746,27022,43898
1558.2,11051,-80288,26906,43805
1560.2,11088,-80348,26910,43810
1562.2,11155,-80935,27104,43991
1564.2,11170,-81283,27231,44100
1566.2,11202,-81127,27170,44018
1568.2,11325,-80939,27117,43953
1570.2,11405,-80970,27205,44044
1572.2,11367,-80924,27284,44138
1574.2,11364,-80649,27215,44086
1576.2,11416,-80466,27102,43992
1578.2,11357,-80550,27097,43996
1580.2,11259,-80586,27166,44052
1582.2,11316,-80410,27197,44059
1584.2,11415,-80362,27198,44043
1586.2,11403,-80586,27225,44061
1588.2,11435,-80697,27221,44049
1590.2,11583,-80541,27113,43939
1592.2,11654,-80497,26997,43830
1594.2,11643,-80674,27030,43876
1596.2,11677,-80673,27174,44035
1598.2,11610,-80378,27253,44118
1600.2,11384,-80175,27218,44070
1602.2,11334,-80256,27182,44014
1604.2,11552,-80425,27212,44031
1606.2,11668,-80523,27259,44069
1608.2,11598,-80507,27259,44062
1610.2,11640,-80347,27216,44015
1612.2,11785,-80218,27193,43992
1614.2,11753,-80458,27259,44052
1616.2,11591,-80989,27373,44161
1618.2,11567,-81197,27381,44183
1620.2,11697,-80766,27215,44035
1622.2,11760,-80233,27020,43825
1624.2,11649,-80235,26983,43749
1626.2,11519,-80541,27130,43877
1628.2,11559,-80517,27362,44116
1630.2,11656,-80193,27557,44305
1632.2,11572,-80049,27587,44319
1634.2,11405,-80136,27444,44186
1636.2,11443,-80257,27331,44102
1638.2,11659,-80461,27399,44177
1640.2,11851,-80657,27496,44255
1642.2,11981,-80510,27445,44182
1644.2,11993,-80214,27380,44099
1646.2,11779,-80383,27488,44193
1648.2,11542,-80890,27621,44329
1650.2,11567,-80923,27550,44270
1652.2,11665,-80380,27363,44081
1654.2,11536,-80026,27297,43998
1656.2,11397,-80199,27368,44064
1658.2,11525,-80465,27449,44166
1660.2,11689,-80565,27513,44257
1662.2,11644,-80674,27574,44329
1664.2,11569,-80818,27579,44330
1666.2,11560,-80838,27491,44237
1668.2,11427,-80740,27360,44104
1670.2,11202,-80630,27252,44005
1672.2,11160,-80540,27213,43981
1674.2,11319,-80487,27230,44010
1676.2,11497,-80456,27228,44022
1678.2,11634,-80452,27194,44010
1680.2,11697,-80608,27209,44034
1682.2,11596,-80925,27254,44068
1684.2,11393,-81101,27200,44016
1686.2,11272,-81020,27058,43899
1688.2,11295,-80928,26959,43817
1690.2,11408,-80906,26914,43779
1692.2,11518,-80848,26906,43798
1694.2,11485,-80897,27007,43934
1696.2,11300,-81140,27154,44082
1698.2,11113,-81273,27139,44044
1700.2,10964,-81173,26999,43902
1702.2,10849,-81109,26948,43861
1704.2,11005,-81108,26946,43841
1706.2,11446,-80995,26852,43718
1708.2,11556,-80955,26819,43684
1710.2,11021,-81188,26970,43854
1712.2,10584,-81410,27033,43928
1714.2,10866,-81340,26826,43727
1716.2,11324,-81077,26634,43558
1718.2,11330,-80804,26706,43655
1720.2,11140,-80699,26873,43829
1722.2,11095,-80898,26939,43892
1724.2,11044,-81112,26942,43885
1726.2,10968,-80943,26914,43833
1728.2,11070,-80654,26832,43722
1730.2,11248,-80704,26769,43651
1732.2,11290,-80892,26796,43689
1734.2,11258,-80919,26860,43761
1736.2,11221,-81025,26919,43824
1738.2,11126,-81253,26973,43896
1740.2,11042,-81166,26974,43914
1742.2,11069,-80769,26897,43832
1744.2,11153,-80550,26824,43739
1746.2,11241,-80584,26805,43705
1748.2,11315,-80679,26809,43704
1750.2,11277,-80947,26864,43755
1752.2,11166,-81318,26988,43881
1754.2,11198,-81323,27054,43962
1756.2,11307,-80952,26980,43899
1758.2,11191,-80785,26900,43815
1760.2,10960,-80935,26937,43847
1762.2,10996,-80919,26994,43910
1764.2,11228,-80660,26968,43887
1766.2,11287,-80634,26951,43865
1768.2,11173,-80961,27016,43932
1770.2,11140,-81189,27042,43967
1772.2,11203,-81059,26933,43858
1774.2,11202,-80845,26802,43723
1776.2,11087,-80856,26792,43716
1778.2,10965,-81018,26860,43794
1780.2,11029,-81068,26894,43837
1782.2,11288,-80897,26879,43836
1784.2,11420,-80642,26862,43830
1786.2,11303,-80563,26847,43808
1788.2,11371,-80764,26805,43747
1790.2,11783,-81024,26734,43666
1792.2,11843,-81056,26688,43623
1794.2,11171,-80897,26735,43676
1796.2,10574,-80816,26861,43814
1798.2,10727,-80893,26956,43930
1800.2,11081,-80964,26950,43937
1802.2,11043,-80971,26886,43869
1804.2,10955,-80992,26821,43803
1806.2,11126,-80960,26761,43756
1808.2,11227,-80753,26711,43707
1810.2,11154,-80540,26696,43672
1812.2,11239,-80577,26704,43664
1814.2,11438,-80761,26682,43645
1816.2,11393,-80865,26618,43590
1818.2,11144,-80926,26557,43534
1820.2,10977,-80994,26533,43520
1822.2,10931,-81027,26577,43583
1824.2,10975,-81203,26735,43750
1826.2,11144,-81570,26918,43918
1828.2,11286,-81590,26898,43879
1830.2,11214,-81010,26661,43639
1832.2,11073,-80585,26516,43508
1834.2,11074,-80873,26625,43629
1836.2,11112,-81256,26767,43774
1838.2,11061,-81101,26750,43757
1840.2,11045,-80795,26676,43686
1842.2,11133,-80871,26653,43666
1844.2,11208,-81150,26626,43629
1846.2,11246,-81246,26566,43552
1848.2,11309,-81133,26530,43505
1850.2,11300,-80996,26532,43509
1852.2,11136,-80962,26548,43537
1854.2,11010,-81000,26576,43583
1856.2,11107,-80985,26590,43621
1858.2,11239,-80936,26552,43597
1860.2,11161,-80995,26497,43533
1862.2,11028,-81129,26483,43504
1864.2,11117,-81154,26481,43492
1866.2,11279,-81061,26442,43440
1868.2,11180,-81017,26429,43412
1870.2,10917,-81038,26507,43486
1872.2,10851,-80965,26568,43553
1874.2,10965,-80781,26509,43501
1876.2,10988,-80714,26449,43456
1878.2,10972,-80940,26515,43545
1880.2,11114,-81324,26593,43633
1882.2,11272,-81584,26564,43587
1884.2,11244,-81602,26508,43510
1886.2,11181,-81448,26487,43478
1888.2,11251,-81217,26442,43424
1890.2,11326,-80998,26401,43372
1892.2,11328,-80893,26448,43425
1894.2,11359,-80925,26528,43527
1896.2,11375,-81011,26546,43564
1898.2,11238,-81078,26546,43568
1900.2,11055,-81115,26562,43584
1902.2,10996,-81098,26530,43552
1904.2,10971,-80982,26440,43452
1906.2,10876,-80862,26396,43390
1908.2,10824,-80972,26457,43442
1910.2,10871,-81361,26578,43565
1912.2,10909,-81659,26652,43641
1914.2,10928,-81511,26587,43576
1916.2,11002,-81171,26431,43425
1918.2,11071,-81157,26346,43354
1920.2,11070,-81348,26374,43388
1922.2,11084,-81162,26354,43359
1924.2,11162,-80678,26235,43230
1926.2,11238,-80606,26195,43190
1928.2,11307,-81073,26318,43311
1930.2,11386,-81486,26441,43418
1932.2,11362,-81575,26465,43437
1934.2,11185,-81551,26503,43490
1936.2,11034,-81452,26577,43582
1938.2,11043,-81200,26542,43561
1940.2,11127,-81016,26396,43442
1942.2,11224,-81088,26329,43392
1944.2,11320,-81209,26388,43436
1946.2,11276,-81186,26451,43476
1948.2,11049,-81165,26495,43518
1950.2,10890,-81268,26577,43601
1952.2,10933,-81312,26638,43649
1954.2,10997,-81161,26589,43593
1956.2,11031,-81009,26483,43492
1958.2,11178,-81028,26421,43423
1960.2,11314,-81081,26409,43397
1962.2,11215,-81076,26413,43410
1964.2,11043,-81184,26434,43450
1966.2,11036,-81396,26455,43467
1968.2,11078,-81391,26439,43426
1970.2,11051,-81145,26401,43374
1972.2,11066,-81079,26390,43361
1974.2,11084,-81371,26406,43370
1976.2,10944,-81640,26420,43377
1978.2,10798,-81501,26438,43407
1980.2,10881,-81065,26456,43450
1982.2,11063,-80780,26418,43431
1984.2,11152,-80920,26354,43376
1986.2,11239,-81267,26390,43421
1988.2,11349,-81353,26494,43524
1990.2,11312,-81038,26465,43470
1992.2,11187,-80714,26302,43274
1994.2,11209,-80781,26254,43213
1996.2,11292,-81119,26390,43367
1998.2,11220,-81307,26509,43506
2000.2,11131,-81222,26505,43502
2002.2,11205,-81094,26480,43472
2004.2,11217,-81054,26496,43493
2006.2,10997,-81026,26481,43478
2008.2,10854,-81034,26414,43387
2010.2,11022,-81207,26401,43363
2012.2,11227,-81433,26510,43500
2014.2,11186,-81376,26599,43619
2016.2,11033,-80987,26499,43513
2018.2,10987,-80688,26312,43320
2020.2,11036,-80796,26273,43303
2022.2,11087,-81033,26369,43418
2024.2,11137,-80997,26420,43464
2026.2,11227,-80784,26393,43426
2028.2,11337,-80715,26354,43382
2030.2,11347,-80838,26337,43350
2032.2,11193,-81099,26401,43394
2034.2,11024,-81475,26547,43540
2036.2,11027,-81672,26611,43619
2038.2,11170,-81380,26476,43499
2040.2,11331,-80870,26270,43309
2042.2,11433,-80665,26160,43214
2044.2,11364,-80815,26178,43227
2046.2,11092,-81117,26320,43342
2048.2,10842,-81517,26542,43537
2050.2,10828,-81812,26653,43638
2052.2,10977,-81637,26520,43510
2054.2,11148,-81110,26313,43324
2056.2,11280,-80763,26284,43324
2058.2,11263,-80764,26387,43444
2060.2,11105,-80930,26421,43483
2062.2,11073,-81231,26414,43471
2064.2,11243,-81555,26485,43521
2066.2,11316,-81496,26545,43548
2068.2,11181,-80996,26491,43480
2070.2,11103,-80607,26456,43454
2072.2,11150,-80632,26530,43527
2074.2,11137,-80706,26554,43533
2076.2,11117,-80540,26447,43426
2078.2,11282,-80376,26373,43379
2080.2,11514,-80450,26441,43465
2082.2,11577,-80539,26565,43574
2084.2,11483,-80390,26667,43644
2086.2,11377,-80228,26746,43705
2088.2,11360,-80383,26790,43750
2090.2,11463,-80612,26778,43745
2092.2,11553,-80453,26738,43703
2094.2,11465,-80090,26721,43681
2096.2,11357,-80047,26752,43718
2098.2,11482,-80271,26840,43817
2100.2,11680,-80381,26965,43945
2102.2,11693,-80388,27023,44017
2104.2,11669,-80415,26913,43943
2106.2,11755,-80317,26735,43795
2108.2,11734,-80083,26717,43768
2110.2,11590,-79907,26860,43878
2112.2,11652,-79762,26941,43938
2114.2,11879,-79618,26935,43924
2116.2,11889,-79706,27004,43992
2118.2,11732,-79998,27105,44109
2120.2,11728,-80101,27069,44110
2122.2,11789,-80042,26970,44035
2124.2,11680,-80253,26942,43989
2126.2,11467,-80617,26880,43890
2128.2,11270,-80605,26688,43683
2130.2,11120,-80343,26512,43513
2132.2,11152,-80431,26467,43474
2134.2,11369,-80872,26484,43503
2136.2,11471,-81190,26515,43568
2138.2,11322,-81304,26567,43662
2140.2,11185,-81372,26590,43697
2142.2,11255,-81270,26548,43637
2144.2,11420,-80959,26497,43569
2146.2,11520,-80752,26456,43509
2148.2,11480,-80763,26385,43396
2150.2,11273,-80813,26334,43299
2152.2,11001,-80908,26376,43322
2154.2,10912,-81090,26403,43363
2156.2,11159,-81137,26267,43265
2158.2,11531,-80955,26066,43115
2160.2,11591,-80821,26026,43103
2162.2,11221,-80934,26171,43231
2164.2,10813,-81171,26327,43345
2166.2,10744,-81310,26359,43340
2168.2,10948,-81235,26280,43233
2170.2,11154,-81085,26191,43132
2172.2,11215,-81147,26185,43140
2174.2,11099,-81417,26256,43243
2176.2,10908,-81571,26322,43340
2178.2,10867,-81491,26322,43364
2180.2,11034,-81344,26264,43325
2182.2,11175,-81184,26186,43254
2184.2,11123,-80981,26130,43195
2186.2,11024,-80937,26142,43184
2188.2,11027,-81245,26221,43227
2190.2,11046,-81661,26300,43288
2192.2,11008,-81709,26319,43319
2194.2,11033,-81267,26292,43297
2196.2,11180,-80720,26250,43245
2198.2,11285,-80541,26203,43216
2200.2,11244,-80816,26189,43253
2202.2,11169,-81193,26237,43323
2204.2,11158,-81312,26270,43313
2206.2,11160,-81218,26208,43193
2208.2,11117,-81208,26142,43096
2210.2,11071,-81344,26180,43113
2212.2,11059,-81453,26255,43141
2214.2,10986,-81523,26289,43078
2216.2,10719,-81664,26362,42988
2218.2,10349,-81766,26528,42955
2220.2,10161,-81637,26709,42966
2222.2,10196,-81385,26870,43038
2224.2,10213,-81307,27069,43242
2226.2,10229,-81479,27257,43523
2228.2,10516,-81646,27281,43705
2230.2,11044,-81500,27131,43754
2232.2,11628,-81048,26961,43833
2234.2,12431,-80567,26859,44048
2236.2,13600,-80065,26819,44399
2238.2,14849,-79220,26915,44990
2240.2,15950,-78061,27216,45934
2242.2,16970,-77006,27582,47059
2244.2,17780,-75986,27834,48113
2246.2,18192,-74557,27977,49083
2248.2,18448,-73068,28032,49921
2250.2,18745,-72596,27915,50317
2252.2,18816,-73479,27666,50154
2254.2,18592,-74926,27458,49664
2256.2,18320,-76214,27271,48890
2258.2,17653,-77386,26910,47628
2260.2,16032,-78635,26324,46019
2262.2,14022,-79719,25644,44564
2264.2,12757,-80373,25068,43590
2266.2,12265,-80849,24801,43085
2268.2,11843,-81487,24844,42870
2270.2,11464,-82030,24934,42715
2272.2,11430,-81987,24941,42540
2274.2,11489,-81483,25045,42495
2276.2,11381,-81066,25345,42664
2278.2,11314,-80915,25688,42915
2280.2,11335,-80837,25970,43137
2282.2,11237,-80777,26207,43322
2284.2,11148,-80819,26332,43401
2286.2,11245,-80926,26309,43328
2288.2,11305,-81008,26283,43239
2290.2,11265,-81047,26330,43230
2292.2,11411,-81027,26311,43183
2294.2,11600,-80933,26184,43055
2296.2,11398,-80854,26146,43039
2298.2,10992,-80874,26286,43221
2300.2,10843,-80933,26443,43409
2302.2,10799,-80989,26513,43463
2304.2,10624,-81081,26545,43450
2306.2,10649,-81126,26535,43402
2308.2,11015,-80989,26460,43295
2310.2,11239,-80812,26429,43226
2312.2,11104,-80833,26490,43262
2314.2,10981,-81015,26502,43278
2316.2,11037,-81239,26414,43205
2318.2,11075,-81493,26367,43171
2320.2,11067,-81554,26413,43235
2322.2,11086,-81163,26449,43295
2324.2,10999,-80653,26458,43311
2326.2,10767,-80617,26501,43333
2328.2,10626,-80952,26548,43354
2330.2,10708,-81085,26540,43340
2332.2,10843,-80952,26518,43324
2334.2,10856,-80937,26533,43343
2336.2,10812,-81068,26551,43374
2338.2,10911,-81019,26528,43380
2340.2,11192,-80758,26491,43371
2342.2,11420,-80614,26502,43390
2344.2,11383,-80759,26566,43440
2346.2,11169,-80987,26614,43453
2348.2,10990,-81024,26577,43373
2350.2,10912,-80856,26489,43269
2352.2,10920,-80699,26464,43258
2354.2,11000,-80679,26533,43339
2356.2,11077,-80688,26590,43398
2358.2,11075,-80639,26558,43381
2360.2,11070,-80627,26500,43350
2362.2,11192,-80662,26477,43331
2364.2,11405,-80606,26447,43269
2366.2,11544,-80503,26400,43181
2368.2,11518,-80556,26409,43171
2370.2,11381,-80686,26489,43252
2372.2,11243,-80663,26568,43330
2374.2,11155,-80570,26594,43347
2376.2,11091,-80645,26580,43333
2378.2,11026,-80855,26589,43358
2380.2,10969,-81044,26673,43462
2382.2,10943,-81163,26764,43560
2384.2,11008,-81108,26724,43511
2386.2,11221,-80794,26602,43366
2388.2,11475,-80472,26614,43354
2390.2,11552,-80397,26765,43498
2392.2,11443,-80371,26789,43520
2394.2,11323,-80206,26635,43350
2396.2,11216,-80198,26611,43316
2398.2,11079,-80491,26838,43563
2400.2,11081,-80683,26986,43733
2402.2,11278,-80615,26862,43595
2404.2,11354,-80634,26751,43463
2406.2,11190,-80781,26871,43593
2408.2,11115,-80778,26997,43733
2410.2,11233,-80724,26931,43652
2412.2,11267,-80748,26830,43528
2414.2,11237,-80562,26835,43537
2416.2,11387,-80170,26847,43579
2418.2,11567,-80049,26796,43567
2420.2,11534,-80236,26761,43562
2422.2,11479,-80386,26814,43622
2424.2,11572,-80553,26938,43730
2426.2,11646,-80758,27021,43791
2428.2,11668,-80587,26940,43690
2430.2,11744,-80136,26794,43521
2432.2,11712,-80102,26854,43562
2434.2,11471,-80398,27106,43801
2436.2,11353,-80270,27197,43888
2438.2,11520,-79909,27025,43729
2440.2,11630,-80119,26914,43645
2442.2,11519,-80620,27035,43781
2444.2,11478,-80514,27133,43876
2446.2,11623,-80002,27034,43773
2448.2,11756,-79922,26928,43667
2450.2,11838,-80208,26984,43715
2452.2,11949,-80237,27077,43806
2454.2,11948,-79972,27072,43817
2456.2,11748,-79762,27035,43794
2458.2,11640,-79719,27043,43803
2460.2,11804,-79843,27060,43828
2462.2,11887,-80093,27076,43847
2464.2,11629,-80253,27112,43854
2466.2,11405,-80219,27112,43805
2468.2,11592,-80155,27026,43700
2470.2,11927,-80109,26952,43631
2472.2,12038,-79968,26961,43637
2474.2,11990,-79824,26967,43642
2476.2,11953,-79843,26920,43621
2478.2,11932,-79955,26931,43672
2480.2,11995,-80054,27050,43818
2482.2,12158,-80122,27147,43926
2484.2,12196,-80044,27127,43912
2486.2,12021,-79822,27080,43863
2488.2,11868,-79790,27094,43864
2490.2,11833,-80082,27107,43864
2492.2,11825,-80304,27045,43804
2494.2,11921,-80195,26964,43745
2496.2,12128,-80025,26964,43757
2498.2,12126,-79994,27051,43822
2500.2,11874,-79889,27144,43889
2502.2,11877,-79607,27167,43916
2504.2,12329,-79424,27100,43866
2506.2,12691,-79551,27009,43769
2508.2,12492,-79831,27018,43747
2510.2,11968,-79979,27160,43861
2512.18,11649,-79956,27310,44003
2514.15,11699,-79960,27348,44047
2516.13,11853,-80036,27314,44014
2518.1,11844,-79953,27276,43968
2520.1,11733,-79666,27194,43882
2522.1,11736,-79496,27076,43765
2524.1,11852,-79637,27071,43741
2526.1,11912,-79907,27219,43857
2528.1,11915,-80057,27330,43949
2530.1,11991,-79994,27294,43901
2532.1,12060,-79830,27286,43881
2534.1,11936,-79875,27448,44049
2536.1,11730,-80188,27598,44220
2538.1,11686,-80273,27511,44139
2540.1,11730,-79875,27290,43915
2542.1,11682,-79596,27179,43817
2544.1,11625,-79919,27194,43837
2546.1,11646,-80340,27192,43811
2548.1,11636,-80290,27159,43752
2550.1,11635,-80030,27155,43738
2552.1,11772,-79975,27143,43718
2554.1,11856,-80041,27081,43662
2556.1,11717,-80137,27043,43658
2558.1,11631,-80400,27096,43741
2560.1,11702,-80682,27185,43835
2562.1,11558,-80624,27210,43866
2564.1,11229,-80326,27112,43794
2566.1,11266,-80199,26957,43646
2568.1,11596,-80299,26901,43563
2570.1,11546,-80400,26972,43610
2572.1,11146,-80434,26992,43627
2574.1,11055,-80407,26884,43516
2576.1,11300,-80308,26825,43455
2578.1,11391,-80241,26892,43548
2580.1,11369,-80242,26908,43606
2582.1,11571,-80178,26816,43532
2584.1,11820,-80154,26793,43504
2586.1,11775,-80381,26872,43588
2588.1,11594,-80531,26872,43613
2590.1,11559,-80178,26765,43526
2592.1,11570,-79755,26727,43485
2594.1,11458,-79915,26825,43561
2596.1,11316,-80369,26935,43656
2598.1,11222,-80494,26963,43679
2600.1,11110,-80396,26920,43631
2602.1,11067,-80376,26836,43538
2604.1,11255,-80239,26752,43454
2606.1,11512,-79948,26756,43468
2608.1,11508,-79960,26898,43612
2610.1,11260,-80318,27058,43773
2612.1,11062,-80476,27083,43807
2614.1,11061,-80351,27015,43746
2616.1,11172,-80376,26989,43719
2618.1,11266,-80490,26986,43713
2620.1,11298,-80279,26918,43641
2622.1,11351,-79954,26835,43548
2624.1,11494,-80010,26826,43528
2626.1,11623,-80292,26853,43551
2628.1,11613,-80335,26844,43541
2630.1,11527,-80179,26806,43508
2632.1,11459,-80172,26813,43523
2634.1,11368,-80367,26912,43614
2636.1,11241,-80486,27013,43701
2638.1,11190,-80292,26963,43662
2640.1,11271,-79936,26809,43532
2642.1,11364,-79865,26779,43505
2644.1,11333,-80196,26910,43633
2646.1,11242,-80469,26996,43735
2648.1,11297,-80312,26926,43678
2650.1,11502,-79989,26807,43549
2652.1,11644,-79932,26744,43475
2654.1,11664,-80110,26739,43476
2656.1,11660,-80237,26767,43507
2658.1,11572,-80271,26789,43529
2660.1,11406,-80318,26752,43504
2662.1,11430,-80334,26660,43439
2664.1,11595,-80257,26617,43417
2666.1,11441,-80170,26684,43489
2668.1,11026,-80178,26781,43580
2670.1,10940,-80377,26829,43627
2672.1,11185,-80720,26857,43655
2674.1,11238,-80762,26850,43630
2676.1,11145,-80189,26728,43490
2678.1,11301,-79556,26579,43357
2680.1,11521,-79576,26587,43396
2682.1,11452,-79990,26690,43503
2684.1,11282,-80173,26708,43505
2686.1,11243,-80188,26671,43478
2688.1,11235,-80320,26692,43524
2690.1,11322,-80428,26706,43541
2692.1,11656,-80402,26635,43458
2694.1,11897,-80385,26558,43379
2696.1,11681,-80345,26543,43358
2698.1,11344,-80185,26555,43352
2700.1,11299,-80085,26583,43381
2702.1,11339,-80172,26628,43451
2704.1,11243,-80248,26614,43445
2706.1,11225,-80200,26516,43325
2708.1,11342,-80202,26460,43256
2710.1,11348,-80359,26536,43344
2712.1,11266,-80514,26629,43448
2714.1,11271,-80494,26608,43429
2716.1,11253,-80335,26527,43353
2718.1,11147,-80225,26492,43318
2720.1,11154,-80311,26494,43318
2722.1,11221,-80539,26512,43349
2724.1,11124,-80651,26561,43411
2726.1,11108,-80520,26569,43407
2728.1,11456,-80401,26467,43291
2730.1,11712,-80568,26381,43217
2732.1,11413,-80800,26452,43299
2734.1,11011,-80688,26568,43401
2736.1,11064,-80305,26556,43378
2738.1,11311,-80084,26473,43303
2740.1,11331,-80225,26468,43287
2742.1,11208,-80522,26534,43325
2744.1,11091,-80630,26574,43374
2746.1,10975,-80476,26561,43409
2748.1,10981,-80389,26535,43409
2750.1,11170,-80533,26500,43357
2752.1,11310,-80508,26418,43258
2754.1,11271,-80147,26310,43140
2756.1,11229,-80023,26273,43084
2758.1,11276,-80397,26337,43135
2760.1,11334,-80669,26409,43223
2762.1,11437,-80564,26406,43249
2764.1,11651,-80578,26348,43209
2766.1,11798,-80788,26292,43167
2768.1,11644,-80642,26293,43172
2770.1,11297,-80160,26363,43224
2772.1,11081,-79986,26437,43272
2774.1,11085,-80236,26452,43285
2776.1,11098,-80467,26445,43300
2778.1,10947,-80571,26464,43336
2780.1,10714,-80682,26467,43345
2782.1,10641,-80601,26428,43299
2784.1,10883,-80237,26396,43256
2786.1,11250,-80064,26404,43269
2788.1,11384,-80319,26427,43306
2790.1,11280,-80451,26442,43314
2792.1,11261,-80106,26441,43278
2794.1,11373,-79873,26409,43222
2796.1,11396,-80248,26385,43202
2798.1,11374,-80716,26427,43251
2800.1,11492,-80655,26484,43310
2802.1,11604,-80372,26452,43286
2804.1,11497,-80399,26374,43216
2806.1,11282,-80518,26377,43224
2808.1,11149,-80314,26448,43306
2810.1,11118,-80030,26469,43339
2812.1,11189,-80072,26405,43267
2814.1,11355,-80286,26319,43161
2816.1,11466,-80411,26290,43122
2818.1,11388,-80543,26361,43189
2820.1,11233,-80664,26444,43263
2822.1,11228,-80516,26395,43209
2824.1,11386,-80219,26277,43105
2826.1,11475,-80152,26298,43139
2828.1,11376,-80221,26401,43239
2830.1,11274,-80127,26371,43194
2832.1,11333,-80043,26280,43095
2834.1,11472,-80167,26322,43146
2836.1,11613,-80204,26364,43209
2838.1,11717,-79995,26229,43087
2840.1,11580,-79919,26128,42982
2842.1,11151,-80183,26289,43135
2844.1,10880,-80486,26522,43366
2846.1,11070,-80601,26554,43403
2848.1,11296,-80596,26440,43298
2850.1,11145,-80551,26377,43243
2852.1,10932,-80523,26416,43279
2854.1,11050,-80532,26468,43310
2856.1,11290,-80433,26429,43247
2858.1,11354,-80197,26321,43126
2860.1,11346,-80098,26284,43096
2862.1,11345,-80198,26348,43188
2864.1,11187,-80208,26374,43248
2866.1,10937,-80126,26318,43211
2868.1,10934,-80277,26302,43197
2870.1,11159,-80578,26358,43252
2872.1,11222,-80588,26384,43273
2874.1,11078,-80244,26363,43228
2876.1,11074,-79889,26348,43186
2878.1,11286,-79773,26332,43161
2880.1,11453,-79930,26312,43154
2882.1,11493,-80229,26339,43197
2884.1,11499,-80402,26381,43249
2886.1,11416,-80347,26357,43235
2888.1,11223,-80284,26331,43215
2890.1,11100,-80377,26415,43297
2892.1,11126,-80458,26531,43399
2894.1,11214,-80359,26517,43363
2896.1,11381,-80198,26401,43225
2898.1,11615,-80152,26360,43170
2900.1,11677,-80172,26431,43233
2902.1,11497,-80074,26465,43272
2904.1,11375,-79893,26425,43253
2906.1,11471,-79911,26483,43332
2908.1,11589,-80156,26696,43534
2910.1,11648,-80187,26807,43613
2912.1,11763,-79788,26664,43451
2914.1,11776,-79460,26545,43338
2916.1,11441,-79608,26696,43494
2918.1,11083,-79804,26867,43659
2920.1,11266,-79596,26770,43568
2922.1,11829,-79304,26619,43438
2924.1,12080,-79286,26701,43538
2926.1,11920,-79267,26854,43692
2928.1,11837,-79076,26835,43673
2930.1,11922,-79048,26761,43611
2932.1,11870,-79247,26786,43654
2934.1,11730,-79318,26829,43702
2936.1,11753,-79253,26865,43721
2938.1,11804,-79354,26988,43817
2940.1,11680,-79573,27139,43946
2942.1,11543,-79661,27187,43984
2944.1,11537,-79619,27161,43972
2946.1,11541,-79516,27098,43944
2948.1,11554,-79349,26928,43810
2950.1,11746,-79254,26701,43594
2952.1,12011,-79408,26586,43472
2954.1,12021,-79737,26622,43497
2956.1,11743,-80002,26709,43569
2958.1,11503,-80038,26742,43593
2960.1,11514,-79886,26657,43518
2962.1,11607,-79783,26513,43389
2964.1,11534,-79878,26438,43330
2966.1,11370,-79985,26422,43338
2968.1,11378,-79949,26349,43290
2970.1,11544,-80003,26257,43189
2972.1,11573,-80280,26246,43140
2974.1,11393,-80458,26259,43122
2976.1,11262,-80360,26237,43084
2978.1,11291,-80291,26271,43097
2980.1,11301,-80377,26372,43182
2982.1,11276,-80328,26384,43207
2984.1,11410,-80143,26269,43125
2986.1,11589,-80187,26195,43083
2988.1,11455,-80428,26256,43172
2990.1,11136,-80477,26330,43269
2992.1,11154,-80375,26299,43230
2994.1,11472,-80467,26225,43121
2996.1,11509,-80665,26224,43085
2998.1,11180,-80656,26276,43113
3000.1,10971,-80531,26277,43099
3002.1,11001,-80549,26231,43059
3004.1,10994,-80676,26220,43083
3006.1,10989,-80721,26240,43146
3008.1,11199,-80556,26211,43139
3010.1,11446,-80206,26136,43062
3012.1,11463,-80022,26123,43023
3014.1,11349,-80322,26201,43055
3016.1,11290,-80725,26250,43060
3018.1,11253,-80670,26184,42981
3020.1,11185,-80424,26105,42911
3022.1,11133,-80513,26117,42938
3024.1,11116,-80641,26148,43000
3026.1,11133,-80385,26142,43031
3028.1,11195,-80196,26213,43118
3030.1,11219,-80499,26404,43303
3032.1,11130,-80797,26521,43413
3034.1,11072,-80606,26407,43278
3036.1,11176,-80247,26203,43028
3038.1,11259,-80089,26140,42920
3040.1,11130,-80089,26230,42947
3042.1,10919,-80328,26313,42889
3044.1,10739,-80916,26368,42737
3046.1,10504,-81429,26503,42697
3048.1,10292,-81359,26679,42788
3050.1,10315,-80868,26785,42873
3052.1,10458,-80454,26901,43023
3054.1,10554,-80284,27119,43347
3056.1,10858,-80241,27248,43649
3058.1,11575,-80211,27122,43752
3060.1,12403,-80143,26929,43863
3062.1,13115,-79995,26873,44186
3064.1,13967,-79573,26881,44644
3066.1,15101,-78611,26886,45222
3068.1,16232,-77276,26985,46060
3070.1,17126,-76075,27211,47112
3072.1,17815,-74998,27477,48195
3074.1,18314,-73653,27679,49228
3076.1,18603,-72408,27705,50044
3078.1,18760,-72157,27538,50369
3080.1,18826,-72908,27356,50189
3082.1,18694,-73960,27290,49704
3084.1,18266,-75189,27200,48873
3086.1,17439,-76811,26882,47513
3088.1,16062,-78392,26295,45809
3090.1,14284,-79340,25576,44289
3092.1,12754,-79805,24999,43331
3094.1,12028,-80226,24784,42901
3096.1,11944,-80631,24815,42688
3098.1,11977,-80889,24826,42466
3100.1,11907,-81008,24853,42317
3102.1,11814,-80968,25128,42433
3104.1,11711,-80782,25621,42788
3106.1,11541,-80609,26085,43176
3108.1,11367,-80519,26398,43451
3110.1,11297,-80401,26556,43552
3112.1,11311,-80271,26539,43460
3114.1,11314,-80304,26433,43285
3116.1,11290,-80497,26439,43237
3118.1,11267,-80580,26572,43325
3120.1,11222,-80341,26589,43314
3122.1,11151,-79935,26418,43140
3124.1,11119,-79772,26306,43047
3126.1,11149,-79981,26364,43139
3128.1,11187,-80176,26404,43200
3130.1,11203,-80060,26349,43139
3132.1,11229,-79888,26337,43108
3134.1,11285,-79978,26364,43116
3136.1,11294,-80260,26358,43076
3138.1,11159,-80615,26439,43118
3140.1,10961,-80972,26641,43315
3142.1,10931,-80985,26699,43403
3144.1,11092,-80449,26500,43229
3146.1,11188,-79863,26329,43071
3148.1,11168,-79777,26381,43144
3150.1,11267,-79978,26488,43266
3152.1,11456,-80068,26480,43240
3154.1,11388,-80171,26436,43161
3156.1,11046,-80400,26478,43181
3158.1,10840,-80445,26585,43276
3160.1,10951,-80198,26658,43341
3162.1,11139,-79989,26656,43358
3164.1,11220,-79959,26620,43365
3166.1,11249,-79948,26592,43369
3168.1,11260,-79983,26576,43353
3170.1,11225,-80157,26567,43336
3172.1,11219,-80272,26560,43328
3174.1,11289,-80247,26557,43309
3176.1,11322,-80422,26614,43325
3178.1,11274,-80823,26765,43435
3180.1,11268,-80791,26868,43529
3182.1,11323,-80067,26751,43434
3184.1,11292,-79425,26534,43249
3186.1,11176,-79480,26477,43228
3188.1,11163,-79775,26576,43357
3190.1,11300,-79812,26646,43433
3192.1,11419,-79871,26671,43433
3194.1,11433,-80109,26723,43446
3196.1,11454,-80090,26723,43413
3198.1,11510,-79789,26629,43299
3200.1,11399,-79808,26602,43260
3202.1,11080,-80183,26709,43359
3204.1,10948,-80222,26764,43416
3206.1,11236,-79788,26683,43358
3208.1,11544,-79571,26683,43382
3210.1,11500,-79922,26880,43573
3212.1,11349,-80339,27042,43704
3214.1,11356,-80259,26957,43589
3216.1,11369,-79740,26732,43347
3218.1,11356,-79289,26572,43182
3220.1,11498,-79307,26580,43192
3222.1,11602,-79683,26760,43375
3224.1,11391,-79909,26961,43584
3226.1,11170,-79727,26989,43627
3228.1,11297,-79471,26915,43559
3230.1,11488,-79525,26951,43581
3232.1,11445,-79716,27030,43644
3234.1,11417,-79662,26975,43581
3236.1,11557,-79444,26904,43486
3238.1,11587,-79436,26980,43534
3240.1,11484,-79623,27078,43639
3242.1,11567,-79630,27053,43649
3244.1,11747,-79413,27011,43627
3246.1,11622,-79316,27048,43669
3248.1,11329,-79415,27076,43719
3250.1,11373,-79491,27055,43723
3252.1,11663,-79652,27118,43779
3254.1,11657,-80101,27311,43944
3256.1,11346,-80404,27412,44028
3258.1,11225,-80027,27258,43862
3260.1,11389,-79354,27078,43669
3262.1,11529,-79085,27153,43747
3264.1,11638,-79136,27317,43929
3266.1,11897,-79114,27282,43904
3268.1,12102,-79120,27170,43788
3270.1,11992,-79258,27199,43821
3272.1,11831,-79252,27249,43878
3274.1,11942,-79109,27194,43816
3276.1,12058,-79227,27194,43798
3278.1,11859,-79593,27317,43907
3280.1,11655,-79705,27381,43964
3282.1,11819,-79366,27315,43903
3284.1,12107,-78964,27243,43856
3286.1,12169,-78933,27217,43855
3288.1,12126,-79191,27181,43826
3290.1,12119,-79279,27143,43789
3292.1,12019,-79182,27208,43846
3294.1,11897,-79481,27428,44038
3296.1,12028,-80143,27638,44214
3298.1,12283,-80147,27566,44140
3300.1,12294,-79192,27240,43836
3302.1,12127,-78424,27015,43620
3304.1,12071,-78522,27051,43655
3306.1,12063,-78749,27156,43774
3308.1,11955,-78676,27213,43857
3310.1,11902,-78849,27285,43938
3312.1,12028,-79235,27312,43948
3314.1,12150,-79056,27196,43811
3316.1,12136,-78437,27077,43691
3318.1,12116,-78325,27110,43734
3320.1,12180,-78801,27181,43808
3322.1,12227,-79069,27169,43796
3324.1,12175,-78873,27179,43815
3326.1,12112,-78689,27267,43914
3328.1,12148,-78756,27288,43935
3330.1,12224,-78838,27197,43830
3332.1,12191,-78784,27146,43761
3334.1,12064,-78829,27231,43829
3336.1,12008,-79283,27439,44022
3338.1,12070,-79954,27719,44289
3340.1,12133,-80137,27876,44427
3342.1,12097,-79546,27698,44239
3344.1,11984,-78875,27377,43935
3346.1,11938,-78803,27295,43886
3348.1,12097,-78983,27404,44008
3350.1,12311,-78834,27412,44001
3352.1,12259,-78604,27363,43934
3354.1,11964,-78769,27407,43975
3356.1,11770,-79113,27407,43978
3358.1,11763,-79204,27308,43877
3360.1,11759,-79128,27332,43890
3362.1,11766,-79178,27493,44039
3364.1,11870,-79287,27519,44060
3366.1,11925,-79227,27357,43906
3368.1,11832,-79073,27235,43795
3370.1,11794,-79107,27268,43831
3372.1,11941,-79375,27374,43937
3374.1,12116,-79624,27447,44002
3376.1,12173,-79622,27383,43929
3378.1,12104,-79335,27157,43719
3380.1,11866,-78998,26946,43543
3382.1,11494,-79053,26963,43578
3384.1,11263,-79594,27154,43763
3386.1,11329,-80025,27262,43879
3388.1,11446,-79879,27207,43852
3390.1,11436,-79567,27148,43804
3392.1,11500,-79601,27145,43795
3394.1,11707,-79727,27082,43734
3396.1,11757,-79556,26948,43602
3398.1,11580,-79276,26865,43504
3400.1,11464,-79219,26838,43475
3402.1,11456,-79375,26798,43466
3404.1,11353,-79586,26793,43490
3406.1,11238,-79755,26880,43579
3408.1,11349,-79852,26979,43674
3410.1,11613,-79879,26999,43699
3412.1,11783,-79774,26936,43635
3414.1,11794,-79524,26839,43525
3416.1,11723,-79377,26797,43478
3418.1,11608,-79543,26880,43568
3420.1,11446,-79737,26998,43694
3422.1,11299,-79582,26981,43686
3424.1,11315,-79246,26852,43569
3426.1,11511,-79150,26806,43528
3428.1,11638,-79313,26898,43615
3430.1,11525,-79479,26953,43662
3432.1,11373,-79583,26886,43576
3434.1,11397,-79634,26844,43504
3436.1,11500,-79519,26932,43573
3438.1,11524,-79317,27034,43683
3440.1,11484,-79365,27037,43700
3442.1,11392,-79653,26988,43654
3444.1,11224,-79738,26963,43636
3446.1,11107,-79525,26980,43661
3448.1,11215,-79410,27007,43683
3450.1,11458,-79493,26986,43641
3452.1,11566,-79469,26914,43560
3454.1,11488,-79253,26877,43535
3456.1,11454,-79051,26895,43561
3458.1,11575,-78998,26898,43560
3460.1,11625,-79170,26913,43578
3462.1,11421,-79532,26986,43665
3464.1,11219,-79769,27002,43691
3466.1,11392,-79678,26902,43596
3468.1,11806,-79540,26874,43575
3470.1,11942,-79608,27002,43704
3472.1,11618,-79627,27051,43743
3474.1,11157,-79350,26892,43584
3476.1,10906,-79065,26755,43458
3478.1,10998,-79108,26793,43488
3480.1,11406,-79297,26844,43515
3482.1,11847,-79309,26831,43495
3484.1,11930,-79212,26887,43567
3486.1,11675,-79174,26970,43662
3488.1,11473,-79139,26903,43599
3490.1,11468,-79184,26803,43513
3492.1,11504,-79508,26884,43612
3494.1,11570,-79808,26979,43704
3496.1,11733,-79597,26856,43562
3498.1,11819,-79134,26694,43400
3500.1,11679,-78981,26698,43427
3502.1,11502,-79042,26709,43461
3504.1,11496,-79069,26624,43388
3506.1,11549,-79261,26618,43398
3508.1,11483,-79531,26710,43517
3510.1,11348,-79421,26723,43545
3512.1,11284,-79156,26686,43488
3514.1,11278,-79344,26741,43501
3516.1,11227,-79741,26803,43547
3518.1,11134,-79749,26763,43525
3520.1,11143,-79557,26722,43501
3522.1,11356,-79556,26739,43516
3524.1,11627,-79536,26697,43484
3526.1,11691,-79370,26598,43418
3528.1,11521,-79438,26595,43427
3530.1,11384,-79759,26685,43486
3532.1,11471,-79825,26699,43463
3534.1,11648,-79572,26622,43377
3536.1,11672,-79476,26601,43364
3538.1,11524,-79607,26642,43410
3540.1,11416,-79583,26602,43377
3542.1,11470,-79369,26491,43282
3544.1,11536,-79257,26484,43284
3546.1,11472,-79297,26595,43387
3548.1,11408,-79401,26650,43438
3550.1,11465,-79567,26606,43407
3552.1,11485,-79646,26585,43395
3554.1,11367,-79470,26604,43399
3556.1,11336,-79264,26554,43323
3558.1,11521,-79284,26436,43194
3560.1,11650,-79426,26402,43163
3562.1,11488,-79647,26527,43301
3564.1,11243,-80018,26702,43493
3566.1,11227,-80185,26758,43565
3568.1,11395,-79787,26646,43456
3570.1,11473,-79251,26468,43268
3572.1,11366,-79188,26376,43160
3574.1,11234,-79491,26455,43229
3576.1,11217,-79801,26637,43409
3578.1,11296,-80037,26740,43512
3580.1,11405,-80056,26679,43447
3582.1,11518,-79708,26552,43327
3584.1,11578,-79302,26455,43256
3586.1,11514,-79255,26393,43217
3588.1,11370,-79467,26396,43225
3590.1,11289,-79570,26477,43310
3592.1,11339,-79455,26517,43359
3594.1,11458,-79288,26440,43267
3596.1,11537,-79257,26365,43154
3598.1,11494,-79412,26391,43160
3600.1,11332,-79637,26419,43205
3602.1,11193,-79782,26360,43173
3604.1,11220,-79791,26302,43132
3606.1,11340,-79661,26359,43198
3608.1,11367,-79474,26490,43329
3610.1,11297,-79436,26576,43405
3612.1,11271,-79650,26594,43418
3614.1,11303,-79877,26592,43424
3616.1,11331,-79818,26558,43397
3618.1,11385,-79574,26455,43290
3620.1,11460,-79489,26360,43197
3622.1,11441,-79597,26374,43224
3624.1,11333,-79610,26431,43293
3626.1,11279,-79418,26408,43279
3628.1,11290,-79235,26350,43230
3630.1,11281,-79303,26382,43257
3632.1,11287,-79672,26496,43351
3634.1,11356,-80073,26579,43415
3636.1,11411,-80051,26539,43373
3638.1,11421,-79587,26387,43235
3640.1,11424,-79283,26245,43112
3642.1,11376,-79451,26232,43109
3644.1,11252,-79669,26322,43200
3646.1,11216,-79623,26383,43268
3648.1,11354,-79514,26345,43235
3650.1,11483,-79434,26265,43143
3652.1,11491,-79322,26260,43115
3654.1,11548,-79389,26369,43210
3656.1,11680,-79716,26482,43317
3658.1,11610,-79889,26491,43317
3660.1,11321,-79665,26449,43273
3662.1,11159,-79425,26452,43291
3664.1,11212,-79567,26471,43327
3666.1,11244,-79944,26426,43291
3668.1,11267,-80110,26335,43204
3670.1,11424,-79877,26298,43166
3672.1,11555,-79537,26369,43232
3674.1,11510,-79476,26472,43332
3676.1,11446,-79653,26483,43337
3678.1,11410,-79748,26413,43247
3680.1,11296,-79656,26392,43207
3682.1,11239,-79520,26449,43273
3684.1,11340,-79456,26479,43334
3686.1,11344,-79467,26445,43325
3688.1,11181,-79493,26423,43312
3690.1,11184,-79513,26462,43350
3692.1,11419,-79526,26510,43384
3694.1,11581,-79424,26491,43337
3696.1,11576,-79161,26439,43253
3698.1,11474,-79023,26487,43282
3700.1,11254,-79230,26652,43445
3702.1,11101,-79477,26760,43568
3704.1,11282,-79417,26736,43563
3706.1,11545,-79209,26719,43556
3708.1,11511,-79081,26777,43609
3710.1,11442,-78926,26792,43607
3712.1,11659,-78698,26723,43516
3714.1,11822,-78636,26686,43462
3716.1,11696,-78852,26734,43511
3718.1,11704,-79079,26780,43579
3720.1,12012,-79016,26750,43578
3722.1,12155,-78746,26679,43532
3724.1,11974,-78615,26677,43546
3726.1,11794,-78714,26790,43669
3728.1,11659,-78781,26918,43806
3730.1,11437,-78690,26942,43837
3732.1,11365,-78622,26919,43803
3734.1,11616,-78682,26984,43832
3736.1,11870,-78742,27118,43932
3738.1,11908,-78728,27200,43997
3740.1,11917,-78738,27198,43991
3742.1,11971,-78810,27141,43941
3744.1,11955,-78809,27027,43845
3746.1,11933,-78720,26896,43734
3748.1,11986,-78789,26849,43699
3750.1,11961,-79063,26857,43716
3752.1,11790,-79199,26781,43633
3754.1,11669,-79156,26641,43462
3756.1,11727,-79331,26578,43381
3758.1,11907,-79615,26577,43399
3760.1,12081,-79433,26535,43387
3762.1,12066,-78929,26512,43380
3764.1,11786,-78809,26572,43459
3766.1,11491,-79094,26597,43505
3768.1,11460,-79265,26506,43410
3770.1,11587,-79264,26411,43287
3772.1,11589,-79339,26391,43244
3774.1,11437,-79460,26383,43213
3776.1,11298,-79519,26352,43150
3778.1,11243,-79582,26346,43123
3780.1,11213,-79709,26388,43175
3782.1,11160,-79851,26447,43259
3784.1,11108,-79894,26471,43310
3786.1,11104,-79782,26419,43290
3788.1,11155,-79652,26323,43212
3790.1,11226,-79688,26251,43131
3792.1,11262,-79840,26233,43090
3794.1,11234,-79908,26252,43091
3796.1,11186,-79845,26281,43105
3798.1,11206,-79778,26292,43112
3800.1,11297,-79834,26281,43116
3802.1,11369,-79976,26254,43117
3804.1,11398,-80008,26196,43089
3806.1,11413,-79868,26137,43055
3808.1,11336,-79772,26158,43085
3810.1,11122,-79837,26216,43124
3812.1,11001,-79835,26148,43017
3814.1,11186,-79617,25993,42829
3816.1,11407,-79460,26006,42826
3818.1,11306,-79602,26201,43016
3820.1,11092,-79794,26287,43104
3822.1,11159,-79727,26190,43026
3824.1,11338,-79544,26139,43010
3826.1,11265,-79448,26171,43078
3828.1,11113,-79318,26108,43025
3830.1,11224,-79196,26004,42896
3832.1,11432,-79422,26068,42915
3834.1,11422,-79878,26240,43048
3836.1,11300,-80026,26324,43105
3838.1,11253,-79905,26341,43072
3840.1,11173,-80038,26377,42995
3842.1,10998,-80356,26372,42818
3844.1,10929,-80416,26322,42583
3846.1,11031,-80362,26379,42507
3848.1,11118,-80501,26605,42687
3850.1,11101,-80475,26845,42974
3852.08,11052,-79904,26937,43196
3854.05,11044,-79202,26902,43361
3856.03,11246,-78906,26876,43599
3858.0,11901,-78846,26904,43954
3860.1,12976,-78621,26899,44351
3862.08,14161,-78188,26869,44830
3864.05,15299,-77532,26942,45562
3866.03,16420,-76458,27072,46507
3868.0,17408,-75074,27110,47436
3870.0,18060,-73775,27181,48388
3872.0,18407,-72622,27452,49514
3874.0,18635,-71491,27638,50488
3876.0,18830,-70759,27455,50847
3878.0,18977,-70986,27255,50749
3880.0,19002,-72057,27407,50546
3882.0,18735,-73421,27545,49965
3884.0,18001,-74840,27216,48623
3886.0,16783,-76268,26627,46889
3888.0,15277,-77482,26130,45429
3890.0,13854,-78357,25673,44399
3892.0,12892,-79022,25189,43627
3894.0,12467,-79489,24841,43044
3896.0,12266,-79637,24741,42653
3898.0,11963,-79589,24898,42506
3900.0,11614,-79528,25316,42678
3902.0,11489,-79348,25812,43016
3904.0,11592,-79022,26099,43217
3906.0,11642,-78889,26195,43262
3908.0,11533,-79064,26316,43333
3910.0,11478,-79157,26433,43385
3912.0,11567,-79073,26415,43297
3914.0,11555,-79288,26397,43220
3916.0,11318,-79882,26526,43305
3918.0,11160,-80173,26627,43374
3920.0,11323,-79826,26512,43243
3922.0,11531,-79421,26319,43055
3924.0,11421,-79414,26259,43005
3926.0,11158,-79508,26317,43071
3928.0,11126,-79440,26404,43168
3930.0,11287,-79438,26501,43268
3932.0,11350,-79565,26563,43300
3934.0,11278,-79557,26537,43223
3936.0,11188,-79436,26498,43151
3938.0,11092,-79447,26529,43175
3940.0,11046,-79525,26582,43222
3942.0,11153,-79501,26590,43227
3944.0,11307,-79464,26574,43233
3946.0,11319,-79456,26563,43261
3948.0,11244,-79356,26539,43255
3950.0,11236,-79259,26500,43200
3952.0,11294,-79349,26490,43160
3954.0,11354,-79499,26547,43194
3956.0,11359,-79552,26618,43250
3958.0,11216,-79600,26601,43226
3960.0,10975,-79609,26518,43156
3962.0,10861,-79384,26486,43159
3964.0,10960,-79083,26499,43213
3966.0,11135,-79031,26482,43218
3968.0,11303,-79114,26484,43217
3970.0,11449,-79087,26529,43252
3972.0,11501,-79096,26519,43228
3974.0,11456,-79252,26487,43170
3976.0,11448,-79277,26567,43221
3978.0,11533,-79073,26627,43280
3980.0,11593,-78967,26478,43156
3982.0,11484,-79103,26330,43034
3984.0,11229,-79274,26479,43201
3986.0,11081,-79334,26742,43481
3988.0,11232,-79266,26764,43511
3990.0,11465,-79138,26619,43351
3992.0,11430,-79191,26621,43322
3994.0,11191,-79411,26748,43420
3996.0,11086,-79330,26725,43380
3998.0,11148,-78969,26570,43228
4000.0,11178,-79099,26588,43261
4002.0,11207,-79762,26801,43486
4004.0,11409,-79960,26892,43572
4006.0,11674,-79475,26779,43452
4008.0,11684,-79196,26724,43393
4010.0,11413,-79339,26811,43465
4012.0,11198,-79255,26866,43485
4014.0,11268,-78929,26860,43446
4016.0,11438,-78889,26913,43485
4018.0,11437,-79049,26993,43558
4020.0,11327,-78987,26970,43527
4022.0,11338,-78783,26862,43418
4024.0,11436,-78758,26810,43381
4026.0,11415,-79018,26908,43500
4028.0,11328,-79433,27105,43705
4030.0,11425,-79638,27219,43811
4032.0,11709,-79360,27143,43719
4034.0,11919,-78943,27013,43565
4036.0,11931,-78896,27007,43530
4038.0,11834,-79026,27073,43584
4040.0,11681,-78825,27068,43592
4042.0,11481,-78402,27015,43561
4044.0,11363,-78252,27011,43568
4046.0,11446,-78473,27053,43613
4048.0,11609,-78813,27107,43670
4050.0,11642,-79120,27192,43752
4052.0,11555,-79294,27267,43813
4054.0,11539,-79169,27253,43784
4056.0,11657,-78798,27201,43725
4058.0,11754,-78518,27220,43748
4060.0,11681,-78477,27264,43799
4062.0,11543,-78435,27233,43776
4064.0,11569,-78278,27204,43761
4066.0,11758,-78284,27293,43865
4068.0,11836,-78560,27421,43994
4070.0,11697,-78746,27454,44007
4072.0,11587,-78658,27423,43948
4074.0,11723,-78630,27418,43918
4076.0,11964,-78844,27420,43915
4078.0,12022,-78958,27391,43896
4080.0,11854,-78795,27386,43894
4082.0,11720,-78705,27469,43965
4084.0,11863,-78811,27577,44067
4086.0,12171,-78687,27553,44060
4088.0,12297,-78265,27400,43929
4090.0,12157,-78176,27348,43885
4092.0,12018,-78639,27498,44029
4094.0,12002,-78944,27605,44121
4096.0,11963,-78603,27494,43986
4098.0,11941,-78094,27369,43843
4100.0,12165,-77978,27419,43899
4102.0,12479,-78145,27514,44013
4104.0,12464,-78312,27556,44066
4106.0,12180,-78467,27651,44162
4108.0,12084,-78588,27768,44276
4110.0,12229,-78505,27709,44217
4112.0,12276,-78219,27523,44024
4114.0,12168,-78005,27463,43949
4116.0,12121,-78080,27557,44024
4118.0,12166,-78344,27628,44083
4120.0,12225,-78557,27648,44105
4122.0,12321,-78645,27720,44195
4124.0,12387,-78663,27786,44273
4126.0,12257,-78571,27692,44172
4128.0,12010,-78342,27519,43993
4130.0,11908,-78163,27518,44004
4132.0,12006,-78217,27694,44186
4134.0,12145,-78395,27795,44262
4136.0,12258,-78482,27724,44158
4138.0,12396,-78425,27625,44048
4140.0,12536,-78307,27570,44001
4142.0,12552,-78189,27522,43974
4144.0,12387,-78103,27527,44005
4146.0,12170,-78090,27607,44107
4148.0,12096,-78184,27638,44144
4150.0,12163,-78330,27554,44052
4152.0,12149,-78450,27475,43961
4154.0,11952,-78621,27507,43987
4156.0,11779,-78948,27618,44100
4158.0,11804,-79235,27712,44203
4160.0,11855,-79183,27686,44187
4162.0,11720,-78927,27516,44031
4164.0,11546,-78856,27349,43886
4166.0,11593,-78896,27315,43877
4168.0,11795,-78675,27327,43904
4170.0,11891,-78399,27301,43886
4172.0,11804,-78652,27334,43929
4174.0,11673,-79248,27417,44020
4176.0,11656,-79354,27351,43958
4178.0,11757,-78908,27144,43764
4180.0,11809,-78726,27042,43690
4182.0,11729,-79032,27062,43735
4184.0,11682,-79174,26997,43681
4186.0,11790,-78885,26861,43551
4188.0,11942,-78611,26822,43520
4190.0,12023,-78625,26861,43561
4192.0,12035,-78798,26886,43583
4194.0,11962,-79033,26928,43631
4196.0,11806,-79245,26983,43695
4198.0,11636,-79293,26975,43680
4200.0,11497,-79211,26942,43634
4202.0,11429,-79158,26961,43658
4204.0,11465,-79217,26982,43696
4206.0,11517,-79418,26946,43666
4208.0,11534,-79615,26873,43584
4210.0,11637,-79471,26761,43470
4212.0,11767,-79048,26667,43379
4214.0,11663,-78874,26728,43434
4216.0,11407,-79028,26905,43599
4218.0,11337,-79079,26979,43673
4220.0,11402,-79051,26938,43642
4222.0,11360,-79239,26951,43656
4224.0,11343,-79358,27000,43706
4226.0,11496,-79183,26987,43711
4228.0,11614,-79186,26982,43724
4230.0,11639,-79427,26988,43724
4232.0,11759,-79199,26868,43582
4234.0,11871,-78597,26709,43414
4236.0,11736,-78584,26759,43464
4238.0,11538,-79139,26940,43631
4240.0,11522,-79373,26990,43655
4242.0,11522,-79268,26939,43594
4244.0,11395,-79345,26943,43615
4246.0,11281,-79381,26956,43651
4248.0,11193,-79119,26937,43647
4250.0,11071,-79036,26996,43716
4252.0,11149,-79241,27084,43805
4254.0,11527,-79158,27010,43723
4256.0,11784,-78864,26850,43559
4258.0,11672,-78996,26852,43567
4260.0,11562,-79321,26977,43694
4262.0,11695,-79215,26998,43705
4264.0,11753,-79032,26933,43634
4266.0,11557,-79310,26945,43654
4268.0,11423,-79545,26970,43688
4270.0,11538,-79204,26870,43584
4272.0,11626,-78784,26770,43477
4274.0,11469,-78799,26861,43571
4276.0,11247,-78963,27019,43747
4278.0,11233,-78982,26995,43745
4280.0,11438,-79002,26830,43585
4282.0,11632,-79103,26751,43494
4284.0,11659,-79156,26795,43526
4286.0,11662,-79102,26814,43544
4288.0,11798,-78978,26776,43508
4290.0,11872,-78893,26790,43524
4292.0,11674,-78964,26886,43630
4294.0,11459,-79112,26951,43706
4296.0,11530,-79169,26904,43657
4298.0,11659,-79164,26809,43553
4300.0,11551,-79165,26770,43510
4302.0,11426,-79083,26769,43514
4304.0,11542,-78933,26729,43492
4306.0,11674,-78912,26694,43486
4308.0,11591,-79077,26756,43561
4310.0,11497,-79269,26827,43617
4312.0,11603,-79315,26749,43525
4314.0,11773,-79173,26585,43370
4316.0,11851,-79014,26527,43320
4318.0,11896,-79062,26574,43357
4320.0,11913,-79276,26612,43388
4322.0,11739,-79375,26651,43428
4324.0,11378,-79205,26715,43485
4326.0,11115,-78925,26731,43495
4328.0,11113,-78849,26718,43499
4330.0,11207,-79094,26759,43571
4332.0,11256,-79348,26770,43597
4334.0,11358,-79298,26668,43485
4336.0,11539,-79168,26627,43424
4338.0,11627,-79242,26738,43529
4340.0,11593,-79264,26775,43574
4342.0,11587,-79031,26637,43440
4344.0,11604,-78874,26553,43349
4346.0,11518,-78972,26615,43406
4348.0,11395,-79106,26659,43456
4350.0,11390,-79279,26660,43463
4352.0,11484,-79549,26682,43481
4354.0,11573,-79527,26621,43414
4356.0,11624,-79072,26467,43260
4358.0,11634,-78775,26427,43217
4360.0,11596,-78982,26532,43313
4362.0,11505,-79311,26610,43393
4364.0,11372,-79465,26642,43440
4366.0,11281,-79481,26640,43451
4368.0,11312,-79314,26526,43331
4370.0,11385,-79080,26420,43217
4372.0,11430,-79159,26505,43310
4374.0,11580,-79448,26587,43411
4376.0,11851,-79399,26456,43281
4378.0,11932,-79048,26353,43156
4380.0,11675,-78959,26464,43248
4382.0,11381,-79152,26537,43332
4384.0,11315,-79149,26440,43248
4386.0,11403,-78916,26384,43178
4388.0,11522,-78850,26443,43220
4390.0,11602,-79010,26497,43289
4392.0,11528,-79054,26541,43368
4394.0,11357,-78813,26578,43416
4396.0,11380,-78533,26508,43334
4398.0,11637,-78551,26392,43208
4400.0,11794,-78859,26409,43217
4402.0,11718,-79107,26506,43300
4404.0,11641,-79119,26514,43301
4406.0,11627,-79140,26485,43280
4408.0,11507,-79343,26521,43338
4410.0,11358,-79536,26542,43377
4412.0,11382,-79597,26504,43354
4414.0,11423,-79640,26505,43373
4416.0,11295,-79591,26499,43381
4418.0,11276,-79296,26375,43243
4420.0,11578,-79038,26295,43128
4422.0,11847,-79158,26429,43246
4424.0,11784,-79418,26562,43386
4426.0,11615,-79461,26505,43334
4428.0,11553,-79400,26465,43296
4430.0,11484,-79370,26560,43409
4432.0,11371,-79240,26580,43448
4434.0,11333,-79081,26493,43359
4436.0,11375,-79127,26491,43351
4438.0,11427,-79254,26526,43384
4440.0,11415,-79248,26440,43283
4442.0,11265,-79218,26354,43174
4444.0,11119,-79262,26407,43230
4446.0,11212,-79269,26494,43340
4448.0,11420,-79222,26510,43359
4450.0,11500,-79146,26463,43299
4452.0,11600,-79021,26372,43218
4454.0,11830,-79040,26335,43203
4456.0,11851,-79306,26431,43294
4458.0,11578,-79387,26481,43325
4460.0,11492,-79016,26326,43161
4462.0,11726,-78728,26177,43008
4464.0,11806,-78964,26264,43079
4466.0,11583,-79306,26431,43237
4468.0,11449,-79310,26469,43292
4470.0,11546,-79193,26449,43302
4472.0,11635,-79242,26454,43326
4474.0,11612,-79332,26411,43282
4476.0,11536,-79310,26350,43209
4478.0,11414,-79245,26408,43256
4480.0,11312,-79178,26525,43376
4482.0,11365,-79081,26551,43402
4484.0,11556,-79064,26547,43379
4486.0,11754,-79216,26616,43430
4488.0,11866,-79281,26633,43461
4490.0,11850,-78977,26524,43380
4492.0,11755,-78559,26496,43358
4494.0,11762,-78446,26664,43516
4496.0,11928,-78502,26830,43679
4498.0,11997,-78412,26880,43720
4500.0,11780,-78341,26943,43761
4502.0,11513,-78467,27033,43841
4504.0,11508,-78515,26992,43813
4506.0,11696,-78401,26855,43688
4508.0,11851,-78450,26810,43652
4510.0,11976,-78618,26867,43723
4512.0,12117,-78553,26917,43789
4514.0,12120,-78423,26972,43856
4516.0,11921,-78555,27031,43935
4518.0,11768,-78627,26973,43900
4520.0,11849,-78278,26823,43745
4522.0,12003,-77846,26797,43682
4524.0,12052,-77693,26936,43791
4526.0,12074,-77657,27052,43903
4528.0,12139,-77648,27082,43939
4530.0,12136,-77825,27126,43991
4532.0,12087,-78065,27165,44041
4534.0,12194,-78147,27083,43970
4536.0,12346,-78250,26931,43825
4538.0,12145,-78520,26845,43747
4540.0,11687,-78691,26815,43720
4542.0,11572,-78685,26755,43647
4544.0,11878,-78836,26683,43560
4546.0,12013,-79131,26637,43517
4548.0,11775,-79128,26554,43450
4550.0,11578,-78842,26410,43319
4552.0,11606,-78730,26311,43231
4554.0,11649,-78841,26311,43240
4556.0,11642,-78929,26331,43256
4558.0,11668,-79083,26337,43253
4560.0,11734,-79390,26373,43281
4562.0,11846,-79517,26376,43271
4564.0,11953,-79313,26257,43132
4566.0,11865,-79108,26126,42991
4568.0,11599,-79035,26146,43017
4570.0,11421,-78913,26245,43132
4572.0,11372,-78855,26259,43169
4574.0,11287,-79100,26219,43154
4576.0,11260,-79426,26240,43181
4578.0,11442,-79524,26301,43226
4580.0,11614,-79520,26321,43218
4582.0,11548,-79592,26318,43184
4584.0,11401,-79629,26344,43190
4586.0,11347,-79535,26371,43224
4588.0,11282,-79362,26323,43205
4590.0,11178,-79177,26210,43109
4592.0,11204,-79130,26135,43043
4594.0,11361,-79320,26178,43101
4596.0,11460,-79490,26282,43211
4598.0,11473,-79377,26309,43218
4600.0,11488,-79225,26233,43114
4602.0,11471,-79329,26170,43035
4604.0,11421,-79479,26184,43037
4606.0,11464,-79488,26227,43073
4608.0,11530,-79682,26316,43185
4610.0,11393,-80178,26484,43400
4612.0,11171,-80368,26549,43497
4614.0,11204,-79805,26332,43282
4616.0,11413,-79012,26049,42993
4618.0,11449,-78775,26015,42943
4620.0,11358,-79079,26127,43013
4622.0,11421,-79316,26135,42973
4624.0,11546,-79275,26109,42917
4626.0,11469,-79318,26181,42944
4628.0,11265,-79642,26243,42881
4630.0,11109,-79990,26250,42700
4632.0,10890,-80147,26377,42662
4634.0,10562,-80167,26651,42849
4636.0,10425,-80049,26874,43044
4638.0,10628,-79763,26960,43155
4640.0,10896,-79529,26995,43282
4642.0,11108,-79512,27015,43472
4644.0,11612,-79451,27004,43715
4646.0,12623,-79093,26967,44022
4648.0,13841,-78576,26880,44360
4650.0,14923,-77921,26763,44749
4652.0,15899,-76830,26729,45355
4654.0,16945,-75409,26795,46222
4656.0,18024,-74263,26868,47168
4658.0,18861,-73454,26996,48141
4660.0,19204,-72402,27258,49223
4662.0,19087,-71219,27454,50170
4664.0,18828,-70866,27364,50558
4666.0,18732,-71580,27183,50398
4668.0,18821,-72555,27159,49965
4670.0,18785,-73420,27110,49170
4672.0,18178,-74582,26762,47796
4674.0,16816,-76047,26214,46144
4676.0,15086,-77315,25724,44805
4678.0,13688,-78251,25372,43990
4680.0,12964,-79013,25139,43504
4682.0,12623,-79577,25036,43149
4684.0,12262,-79889,25082,42900
4686.0,11916,-79886,25256,42790
4688.0,11825,-79433,25498,42806
4690.0,11884,-78800,25757,42934
4692.0,11788,-78581,26058,43183
4694.0,11544,-78751,26378,43466
4696.0,11426,-78792,26558,43579
4698.0,11516,-78734,26510,43450
4700.0,11641,-78911,26370,43241
4702.0,11673,-79095,26293,43113
4704.0,11643,-79019,26288,43079
4706.0,11630,-79026,26325,43103
4708.0,11616,-79304,26379,43145
4710.0,11502,-79441,26384,43143
4712.0,11291,-79322,26336,43110
4714.0,11127,-79372,26357,43158
4716.0,11080,-79657,26494,43299
4718.0,11084,-79781,26616,43395
4720.0,11148,-79715,26624,43368
4722.0,11367,-79752,26599,43316
4724.0,11659,-79788,26620,43318
4726.0,11780,-79470,26603,43287
4728.0,11654,-78907,26468,43148
4730.0,11461,-78621,26337,43029
4732.0,11356,-78857,26376,43090
4734.0,11346,-79276,26525,43251
4736.0,11407,-79391,26566,43282
4738.0,11535,-79160,26458,43152
4740.0,11698,-78966,26393,43066
4742.0,11837,-79025,26457,43112
4744.0,11851,-79130,26495,43139
4746.0,11632,-79129,26437,43088
4748.0,11308,-79164,26466,43137
4750.0,11244,-79260,26641,43336
4752.0,11519,-79183,26712,43440
4754.0,11730,-78959,26562,43331
4756.0,11615,-78994,26454,43248
4758.0,11411,-79411,26585,43362
4760.0,11365,-79741,26750,43477
4762.0,11411,-79581,26718,43395
4764.0,11456,-79155,26587,43239
4766.0,11525,-78908,26547,43203
4768.0,11600,-78892,26567,43243
4770.0,11622,-78926,26534,43232
4772.0,11573,-79000,26485,43200
4774.0,11477,-79113,26504,43235
4776.0,11426,-79076,26544,43279
4778.0,11503,-78849,26531,43246
4780.0,11604,-78698,26515,43196
4782.0,11565,-78756,26565,43221
4784.0,11443,-78837,26633,43276
4786.0,11422,-78857,26656,43289
4788.0,11501,-78932,26677,43321
4790.0,11543,-78986,26729,43404
4792.0,11541,-78825,26737,43430
4794.0,11580,-78615,26707,43375
4796.0,11633,-78714,26772,43405
4798.0,11657,-79034,26908,43532
4800.0,11734,-79147,26902,43524
4802.0,11866,-78972,26740,43336
4804.0,11851,-78813,26668,43237
4806.0,11615,-78823,26775,43344
4808.0,11385,-78891,26863,43444
4810.0,11363,-78913,26818,43404
4812.0,11474,-78851,26762,43360
4814.0,11550,-78767,26800,43428
4816.0,11535,-78792,26895,43539
4818.0,11515,-78870,26986,43607
4820.0,11622,-78745,27048,43626
4822.0,11836,-78447,27039,43579
4824.0,11960,-78346,26947,43462
4826.0,11916,-78533,26865,43373
4828.0,11882,-78677,26871,43409
4830.0,11994,-78627,26935,43518
4832.0,12121,-78617,27025,43626
4834.0,12115,-78775,27172,43761
4836.0,12045,-78924,27317,43897
4838.0,12002,-78942,27327,43900
4840.0,11933,-78907,27219,43774
4842.0,11844,-78833,27154,43689
4844.0,11861,-78635,27163,43693
4846.0,11953,-78359,27132,43665
4848.0,11972,-78143,27029,43567
4850.0,11978,-78039,26959,43514
4852.0,12107,-78082,27005,43580
4854.0,12256,-78270,27112,43701
4856.0,12308,-78373,27159,43761
4858.0,12333,-78195,27130,43742
4860.0,12284,-78014,27151,43741
4862.0,12036,-78162,27272,43811
4864.0,11809,-78371,27350,43854
4866.0,11906,-78252,27299,43801
4868.0,12122,-78070,27261,43771
4870.0,12109,-78241,27342,43866
4872.0,12027,-78525,27393,43949
4874.0,12161,-78548,27301,43879
4876.0,12321,-78511,27227,43790
4878.0,12249,-78561,27301,43833
4880.0,12168,-78328,27371,43893
4882.0,12342,-77820,27330,43845
4884.0,12551,-77677,27309,43800
4886.0,12485,-77981,27365,43829
4888.0,12288,-78082,27364,43820
4890.0,12272,-77881,27305,43772
4892.0,12419,-77884,27326,43817
4894.0,12514,-78045,27406,43920
4896.0,12525,-77948,27429,43950
4898.0,12559,-77771,27414,43939
4900.0,12609,-77889,27420,43951
4902.0,12573,-78084,27412,43934
4904.0,12497,-78059,27386,43880
4906.0,12575,-78048,27395,43868
4908.0,12814,-78317,27422,43894
4910.0,12929,-78613,27433,43906
4912.0,12739,-78551,27485,43956
4914.0,12442,-78194,27603,44070
4916.0,12279,-77934,27658,44119
4918.0,12213,-77950,27568,44023
4920.0,12161,-78056,27458,43917
4922.0,12223,-78076,27465,43924
4924.0,12455,-78047,27533,43975
4926.0,12685,-77985,27549,43976
4928.0,12738,-77822,27523,43958
4930.0,12659,-77675,27523,43969
4932.0,12601,-77796,27558,44003
4934.0,12596,-78137,27569,44024
4936.0,12567,-78309,27487,43975
4938.0,12490,-78156,27359,43864
4940.0,12429,-78023,27344,43835
4942.0,12394,-78166,27475,43945
4944.0,12355,-78326,27554,44014
4946.0,12313,-78288,27479,43936
4948.0,12199,-78358,27409,43883
4950.0,11933,-78724,27436,43955
4952.0,11733,-78937,27419,43988
4954.0,11922,-78588,27290,43880
4956.0,12313,-77986,27158,43741
4958.0,12419,-77674,27069,43643
4960.0,12226,-77800,26986,43560
4962.0,12071,-78230,26973,43541
4964.0,11970,-78770,27079,43631
4966.0,11802,-79100,27162,43711
4968.0,11735,-78970,27106,43673
4970.0,11886,-78587,27019,43602
4972.0,12021,-78404,26972,43563
4974.0,11990,-78496,26847,43462
4976.0,11928,-78561,26659,43304
4978.0,11916,-78527,26643,43289
4980.0,11923,-78614,26814,43443
4982.0,11975,-78777,26895,43531
4984.0,12023,-78732,26799,43459
4986.0,11922,-78556,26732,43394
4988.0,11732,-78580,26778,43420
4990.0,11667,-78722,26816,43450
4992.0,11744,-78675,26819,43466
4994.0,11816,-78577,26856,43528
4996.0,11858,-78746,26910,43608
4998.0,11910,-78986,26909,43615
5000.0,11906,-78920,26843,43523
5002.0,11806,-78671,26766,43405
5004.0,11753,-78570,26742,43362
5006.0,11862,-78637,26783,43412
5008.0,11972,-78779,26823,43469
5010.0,11866,-78950,26795,43462
5012.0,11649,-78919,26733,43424
5014.0,11631,-78547,26732,43430
5016.0,11866,-78229,26811,43484
5018.0,12133,-78352,26849,43491
5020.0,12261,-78622,26767,43397
5022.0,12217,-78637,26691,43330
5024.0,12021,-78574,26766,43415
5026.0,11793,-78644,26882,43525
5028.0,11692,-78603,26872,43508
5030.0,11715,-78412,26842,43497
5032.0,11734,-78534,26946,43635
5034.0,11743,-79032,27053,43757
5036.0,11852,-79224,26993,43683
5038.0,12037,-78786,26845,43519
5040.0,12089,-78353,26740,43411
5042.0,11922,-78498,26691,43361
5044.0,11741,-78871,26706,43369
5046.0,11743,-78916,26782,43444
5048.0,11845,-78738,26816,43489
5050.0,11903,-78708,26733,43427
5052.0,11916,-78743,26608,43324
5054.0,11890,-78590,26555,43287
5056.0,11792,-78432,26634,43370
5058.0,11688,-78612,26827,43554
5060.0,11659,-78957,26975,43687
5062.0,11695,-78989,26903,43608
5064.0,11798,-78757,26715,43427
5066.0,11958,-78749,26704,43426
5068.0,12043,-78952,26884,43607
5070.0,11957,-78858,26969,43691
5072.0,11795,-78499,26860,43594
5074.0,11735,-78419,26723,43481
5076.0,11887,-78610,26618,43393
5078.0,12143,-78620,26528,43301
5080.0,12208,-78542,26585,43343
5082.0,12014,-78731,26786,43532
5084.0,11860,-78963,26833,43581
5086.0,11834,-78890,26677,43435
5088.0,11676,-78706,26641,43411
5090.0,11466,-78607,26750,43535
5092.0,11602,-78452,26702,43509
5094.0,11971,-78340,26560,43386
5096.0,12067,-78529,26607,43439
5098.0,11892,-78793,26727,43543
5100.0,11879,-78804,26684,43461
5102.0,12075,-78763,26610,43348
5104.0,12133,-78842,26624,43352
5106.0,11988,-78781,26545,43293
5108.0,11998,-78602,26341,43110
5110.0,12311,-78688,26261,43046
5112.0,12501,-78920,26394,43200
5114.0,12192,-78900,26560,43377
5116.0,11704,-78826,26603,43415
5118.0,11542,-79003,26535,43338
5120.0,11638,-79080,26470,43265
5122.0,11694,-78767,26508,43283
5124.0,11759,-78479,26593,43346
5126.0,11907,-78527,26595,43347
5128.0,11939,-78610,26514,43277
5130.0,11810,-78496,26429,43202
5132.0,11772,-78347,26362,43143
5134.0,11878,-78347,26331,43123
5136.0,11917,-78583,26395,43200
5138.0,11868,-79044,26527,43348
5140.0,11913,-79423,26606,43429
5142.0,12026,-79328,26559,43356
5144.0,12013,-78843,26407,43170
5146.0,11894,-78471,26243,43000
5148.0,11835,-78487,26212,42988
5150.0,11839,-78664,26352,43150
5152.0,11818,-78661,26481,43296
5154.0,11784,-78496,26424,43257
5156.0,11776,-78491,26292,43137
5158.0,11812,-78774,26307,43145
5160.0,11931,-79070,26451,43266
5162.0,12057,-79101,26532,43329
5164.0,12022,-78960,26497,43292
5166.0,11862,-78906,26455,43254
5168.0,11780,-78961,26452,43248
5170.0,11784,-78970,26415,43215
5172.0,11782,-78904,26320,43139
5174.0,11846,-78830,26254,43088
5176.0,11981,-78719,26265,43095
5178.0,12021,-78588,26264,43086
5180.0,11980,-78635,26209,43025
5182.0,12009,-78912,26239,43041
5184.0,12012,-79100,26416,43204
5186.0,11868,-78947,26529,43331
5188.0,11749,-78634,26427,43266
5190.0,11766,-78476,26298,43156
5192.0,11766,-78543,26337,43180
5194.0,11753,-78722,26444,43266
5196.0,11890,-78892,26486,43304
5198.0,12041,-78931,26494,43313
5200.0,11943,-78775,26457,43274
5202.0,11746,-78525,26332,43147
5204.0,11786,-78387,26245,43050
5206.0,11987,-78429,26347,43129
5208.0,12041,-78516,26564,43326
5210.0,11996,-78513,26707,43466
5212.0,12148,-78393,26692,43464
5214.0,12426,-78157,26582,43360
5216.0,12428,-77926,26542,43306
5218.0,12100,-77988,26677,43414
5220.0,11840,-78338,26849,43562
5222.0,11850,-78492,26853,43540
5224.0,11928,-78223,26767,43428
5226.0,11968,-77966,26822,43478
5228.0,12040,-78011,26984,43670
5230.0,12049,-78053,27028,43762
5232.0,11923,-77871,26950,43720
5234.0,11909,-77670,26910,43704
5236.0,12110,-77571,26921,43728
5238.0,12243,-77484,26908,43710
5240.0,12258,-77413,26924,43713
5242.0,12437,-77396,27023,43807
5244.0,12649,-77360,27104,43884
5246.0,12524,-77297,27092,43857
5248.0,12266,-77270,27044,43811
5250.0,12270,-77315,27035,43824
5251.98,12335,-77558,27096,43900
5253.95,12191,-78025,27220,44016
5255.93,12104,-78306,27277,44058
5257.9,12236,-78069,27127,43901
5259.9,12281,-77768,26889,43662
5261.9,12159,-78004,26796,43577
5263.9,12173,-78500,26812,43601
5265.9,12335,-78623,26728,43518
5267.9,12333,-78464,26549,43338
5269.9,12146,-78510,26444,43238
5271.9,12036,-78728,26415,43228
5273.9,12063,-78769,26348,43196
5275.9,12075,-78666,26253,43135
5277.9,12050,-78704,26208,43093
5279.9,12074,-78898,26196,43044
5281.9,12087,-79063,26181,42986
5283.9,11964,-79170,26219,43004
5285.9,11787,-79249,26318,43090
5287.9,11739,-79171,26341,43105
5289.9,11810,-78903,26234,43021
5291.9,11843,-78752,26152,42996
5293.9,11800,-78938,26208,43089
5295.9,11779,-79215,26290,43151
5297.9,11818,-79323,26262,43084
5299.9,11828,-79350,26149,42950
5301.9,11716,-79344,26034,42822
5303.9,11551,-79166,25982,42752
5305.9,11496,-78933,26034,42800
5307.9,11587,-78938,26136,42919
5309.9,11703,-79099,26172,42977
5311.9,11728,-79132,26137,42963
5313.9,11638,-79146,26126,42970
5315.9,11556,-79340,26142,42988
5317.9,11720,-79443,26112,42936
5319.9,12099,-79218,26071,42860
5321.9,12207,-79052,26139,42899
5323.9,11827,-79260,26295,43034
5325.9,11518,-79406,26334,43055
5327.9,11742,-79103,26154,42871
5329.9,12075,-78718,25945,42697
5331.9,12028,-78654,25918,42735
5333.9,11887,-78768,26001,42862
5335.9,11997,-78890,26038,42901
5337.9,12034,-79061,26070,42906
5339.9,11720,-79176,26162,42955
5341.9,11483,-79106,26207,42947
5343.9,11677,-79045,26127,42838
5345.9,11866,-79221,26077,42761
5347.9,11568,-79552,26218,42792
5349.9,11058,-79835,26467,42836
5351.9,10819,-79970,26634,42806
5353.9,10813,-79925,26703,42750
5355.9,10845,-79684,26819,42791
5357.9,10983,-79320,27021,42976
5359.9,11262,-79035,27172,43206
5361.9,11550,-78937,27188,43371
5363.9,11893,-78805,27127,43489
5365.9,12500,-78422,27031,43637
5367.9,13420,-78052,26929,43867
5369.9,14504,-77968,26962,44287
5371.9,15555,-77745,27235,45017
5373.9,16476,-76853,27599,45983
5375.9,17329,-75543,27862,46982
5377.9,18102,-74258,28042,47960
5379.9,18592,-72842,28167,48946
5381.9,18845,-71363,28152,49773
5383.9,19216,-70753,28020,50198
5385.9,19646,-71517,27893,50166
5387.9,19634,-72856,27703,49677
5389.9,19064,-74021,27306,48638
5391.9,18124,-75321,26785,47144
5393.9,16689,-76975,26275,45598
5395.9,14843,-78308,25725,44338
5397.9,13383,-78764,25144,43412
5399.9,12826,-78710,24742,42761
5401.9,12734,-78823,24608,42354
5403.9,12595,-79320,24615,42146
5405.9,12422,-79856,24704,42094
5407.9,12244,-79932,24920,42182
5409.9,11999,-79499,25229,42362
5411.9,11862,-79037,25548,42592
5413.9,11988,-78871,25852,42851
5415.9,12174,-78870,26110,43065
5417.9,12190,-78913,26280,43149
5419.9,12097,-79005,26363,43126
5421.9,12073,-79001,26358,43050
5423.9,12131,-78876,26269,42934
5425.9,12087,-78944,26203,42841
5427.9,11856,-79264,26247,42856
5429.9,11720,-79398,26290,42919
5431.9,11913,-79162,26240,42922
5433.9,12101,-78906,26210,42920
5435.9,11882,-78848,26264,42972
5437.9,11522,-78869,26284,42984
5439.9,11475,-78902,26264,42929
5441.9,11637,-78934,26326,42921
5443.9,11718,-78858,26388,42940
5445.9,11735,-78748,26311,42877
5447.9,11730,-78841,26268,42858
5449.9,11649,-79087,26444,43044
5451.9,11592,-79175,26601,43228
5453.9,11662,-79014,26478,43132
5455.9,11737,-78780,26263,42905
5457.9,11748,-78643,26249,42854
5459.9,11810,-78727,26379,42958
5461.9,11903,-79048,26463,43030
5463.9,11893,-79302,26480,43042
5465.9,11825,-79098,26454,43020
5467.9,11776,-78600,26350,42927
5469.9,11658,-78522,26228,42828
5471.9,11497,-79100,26247,42897
5473.9,11558,-79579,26434,43128
5475.9,11896,-79242,26584,43263
5477.9,12218,-78477,26488,43120
5479.9,12322,-78180,26242,42857
5481.9,12259,-78505,26168,42778
5483.9,12077,-78881,26359,42941
5485.9,11846,-78975,26561,43121
5487.9,11753,-78964,26606,43182
5489.9,11843,-78964,26593,43198
5491.9,11937,-78794,26552,43183
5493.9,11954,-78418,26388,43053
5495.9,11956,-78138,26201,42885
5497.9,11928,-78186,26202,42866
5499.9,11855,-78467,26348,42975
5501.9,11794,-78757,26448,43058
5503.9,11714,-78912,26510,43114
5505.9,11622,-78898,26613,43198
5507.9,11720,-78761,26647,43217
5509.9,12026,-78532,26527,43106
5511.9,12231,-78259,26410,43007
5513.9,12229,-78136,26449,43045
5515.9,12199,-78330,26570,43148
5517.9,12142,-78663,26654,43211
5519.9,12007,-78762,26680,43217
5521.9,11997,-78547,26637,43143
5523.9,12149,-78330,26548,43025
5525.9,12163,-78383,26534,43008
5527.9,12036,-78552,26626,43122
5529.9,12081,-78550,26698,43213
5531.9,12238,-78415,26700,43229
5533.9,12215,-78330,26722,43273
5535.9,12123,-78269,26787,43359
5537.9,12186,-78245,26834,43396
5539.9,12245,-78409,26851,43376
5541.9,12146,-78606,26839,43335
5543.9,12094,-78535,26796,43292
5545.9,12234,-78379,26798,43305
5547.9,12369,-78444,26870,43386
5549.9,12305,-78461,26897,43417
5551.9,12115,-78161,26853,43370
5553.9,12005,-77941,26877,43386
5555.9,12113,-78133,26965,43475
5557.9,12376,-78367,26968,43492
5559.9,12525,-78296,26920,43457
5561.9,12383,-78138,26958,43487
5563.9,12155,-78106,27019,43521
5565.9,12180,-78081,27003,43480
5567.9,12410,-78012,27002,43479
5569.9,12518,-77997,27060,43558
5571.9,12455,-77988,27059,43575
5573.9,12442,-77861,26982,43502
5575.9,12497,-77691,26935,43457
5577.9,12493,-77699,26937,43461
5579.9,12509,-78002,26976,43498
5581.9,12640,-78430,27089,43612
5583.9,12726,-78587,27200,43728
5585.9,12653,-78261,27170,43687
5587.9,12578,-77764,27038,43534
5589.9,12608,-77607,26938,43441
5591.9,12654,-77835,26887,43426
5593.9,12687,-77983,26875,43434
5595.9,12777,-77724,26949,43502
5597.9,12866,-77300,27083,43631
5599.9,12814,-77177,27179,43722
5601.9,12627,-77429,27204,43723
5603.9,12483,-77713,27185,43678
5605.9,12549,-77804,27151,43638
5607.9,12802,-77844,27154,43657
5609.9,13027,-77959,27225,43744
5611.9,13086,-77980,27259,43786
5613.9,13102,-77831,27177,43704
5615.9,13199,-77761,27091,43622
5617.9,13195,-77889,27100,43641
5619.9,12917,-77973,27110,43642
5621.9,12643,-77929,27073,43573
5623.9,12740,-77939,27096,43577
5625.9,13023,-77923,27165,43662
5627.9,13057,-77672,27177,43693
5629.9,12897,-77410,27210,43723
5631.9,12885,-77447,27320,43833
5633.9,12948,-77620,27324,43854
5635.9,12821,-77705,27186,43723
5637.9,12657,-77784,27154,43669
5639.9,12760,-77828,27257,43753
5641.9,13062,-77673,27279,43772
5643.9,13310,-77461,27252,43731
5645.9,13379,-77420,27342,43782
5647.9,13229,-77470,27428,43839
5649.9,12988,-77475,27360,43777
5651.9,12944,-77449,27283,43721
5653.9,13113,-77433,27333,43774
5655.9,13170,-77550,27426,43849
5657.9,12993,-77892,27488,43894
5659.9,12769,-78180,27540,43937
5661.9,12615,-78077,27550,43938
5663.9,12546,-77763,27455,43842
5665.9,12586,-77610,27285,43685
5667.9,12611,-77611,27151,43555
5669.9,12494,-77593,27146,43527
5671.9,12428,-77594,27251,43603
5673.9,12594,-77710,27322,43671
5675.9,12707,-77902,27287,43653
5677.9,12496,-78063,27233,43618
5679.9,12257,-78094,27218,43615
5681.9,12319,-77999,27168,43559
5683.9,12445,-77953,27081,43451
5685.9,12323,-78120,27077,43442
5687.9,12108,-78391,27162,43552
5689.9,12048,-78470,27180,43593
5691.9,12100,-78295,27086,43505
5693.9,12175,-78162,27021,43449
5695.9,12261,-78238,27032,43473
5697.9,12294,-78306,26986,43427
5699.9,12268,-78236,26865,43307
5701.9,12257,-78224,26829,43287
5703.9,12164,-78334,26908,43379
5705.9,11941,-78368,26941,43400
5707.9,11906,-78288,26871,43322
5709.9,12203,-78197,26823,43290
5711.9,12399,-78076,26850,43329
5713.9,12257,-77959,26873,43338
5715.9,12164,-78002,26860,43310
5717.9,12300,-78141,26847,43301
5719.9,12346,-78192,26829,43291
5721.9,12282,-78252,26786,43260
5723.9,12362,-78451,26775,43268
5725.9,12405,-78579,26845,43341
5727.9,12149,-78446,26929,43395
5729.9,11900,-78233,26927,43370
5731.9,11962,-78146,26847,43306
5733.9,12106,-78142,26778,43261
5735.9,12156,-78161,26782,43266
5737.9,12253,-78201,26863,43342
5739.9,12298,-78160,26974,43454
5741.9,12078,-78035,27031,43502
5743.9,11839,-78092,27005,43464
5745.9,11888,-78406,26960,43428
5747.9,12014,-78551,26938,43432
5749.9,11999,-78235,26896,43403
5751.9,12045,-77825,26830,43324
5753.9,12178,-77798,26826,43303
5755.9,12101,-78078,26895,43369
5757.9,11938,-78250,26908,43385
5759.9,12134,-78144,26812,43285
5761.9,12554,-77993,26743,43216
5763.9,12688,-78084,26807,43291
5765.9,12549,-78318,26906,43397
5767.9,12442,-78349,26928,43417
5769.9,12333,-78175,26924,43420
5771.9,12158,-78121,26963,43475
5773.9,12094,-78207,26985,43502
5775.9,12139,-78199,26944,43454
5777.9,12141,-78207,26910,43426
5779.9,12191,-78441,26927,43466
5781.9,12313,-78564,26920,43473
5783.9,12263,-78152,26831,43368
5785.9,12084,-77565,26726,43236
5787.9,12126,-77505,26714,43211
5789.9,12287,-77967,26810,43307
5791.9,12165,-78354,26904,43406
5793.9,11907,-78404,26900,43412
5795.9,11983,-78319,26817,43337
5797.9,12312,-78259,26734,43254
5799.9,12449,-78206,26698,43218
5801.9,12349,-78106,26694,43228
5803.9,12270,-77902,26675,43227
5805.9,12242,-77703,26653,43214
5807.9,12178,-77833,26727,43286
5809.9,12169,-78319,26898,43442
5811.9,12260,-78691,26977,43502
5813.9,12264,-78626,26864,43381
5815.9,12130,-78327,26717,43243
5817.9,12088,-78105,26684,43219
5819.9,12173,-78095,26709,43248
5821.9,12110,-78297,26713,43264
5823.9,11891,-78452,26709,43281
5825.9,11897,-78251,26702,43283
5827.9,12180,-77924,26668,43235
5829.9,12278,-77993,26619,43167
5831.9,12027,-78381,26602,43142
5833.9,11847,-78546,26646,43185
5835.9,11957,-78420,26727,43261
5837.9,12065,-78380,26777,43309
5839.9,12068,-78458,26768,43307
5841.9,12190,-78366,26739,43294
5843.9,12360,-78129,26704,43282
5845.9,12341,-78031,26631,43230
5847.9,12291,-78102,26533,43126
5849.9,12419,-78169,26475,43044
5851.9,12508,-78183,26495,43054
5853.9,12404,-78195,26554,43114
5855.9,12322,-78241,26589,43140
5857.9,12290,-78346,26593,43128
5859.9,12108,-78430,26592,43134
5861.9,11925,-78379,26590,43149
5863.9,12014,-78309,26588,43151
5865.9,12201,-78379,26604,43171
5867.9,12208,-78427,26619,43201
5869.9,12124,-78336,26608,43188
5871.9,12070,-78346,26620,43169
5873.9,11971,-78469,26668,43191
5875.9,11908,-78382,26638,43165
5877.9,12061,-78169,26513,43053
5879.9,12274,-78147,26456,43001
5881.9,12261,-78137,26520,43073
5883.9,12085,-78007,26582,43153
5885.9,11983,-78168,26607,43188
5887.9,11991,-78550,26632,43208
5889.9,12054,-78456,26612,43181
5891.9,12184,-78011,26557,43111
5893.9,12312,-78032,26584,43112
5895.9,12317,-78342,26684,43197
5897.9,12252,-78140,26754,43270
5899.9,12251,-77625,26809,43327
5901.9,12300,-77498,26885,43401
5903.9,12303,-77627,26918,43453
5905.9,12259,-77633,26918,43483
5907.9,12244,-77720,26970,43536
5909.9,12358,-77999,27012,43552
5911.9,12596,-78093,26945,43467
5913.9,12687,-77857,26876,43385
5915.9,12368,-77525,26925,43416
5917.9,11870,-77222,27031,43524
5919.9,11695,-77059,27125,43657
5921.9,11916,-77205,27241,43810
5923.9,12215,-77406,27343,43925
5925.9,12463,-77216,27353,43944
5927.9,12710,-76815,27335,43934
5929.9,12820,-76665,27401,43979
5931.9,12667,-76643,27489,44032
5933.9,12454,-76481,27488,44026
5935.9,12425,-76486,27456,44011
5937.9,12519,-76860,27472,44033
5939.9,12570,-77125,27432,44004
5941.9,12573,-76978,27268,43879
5943.9,12560,-76824,27165,43806
5945.9,12521,-76946,27264,43886
5947.9,12526,-77089,27380,43965
5949.9,12658,-77137,27317,43890
5951.9,12788,-77350,27158,43735
5953.9,12721,-77753,27015,43589
5955.9,12531,-78014,26856,43425
5957.9,12418,-78024,26716,43300
5959.9,12343,-78048,26715,43329
5961.9,12185,-78225,26782,43420
5963.9,12061,-78328,26715,43364
5965.9,12095,-78215,26524,43179
5967.9,12137,-78124,26417,43061
5969.9,12068,-78246,26445,43047
5971.9,12049,-78385,26448,43007
5973.9,12178,-78386,26370,42924
5975.9,12297,-78437,26343,42916
5977.9,12271,-78619,26415,42984
5979.9,12128,-78748,26471,43026
5981.9,11920,-78832,26483,43064
5983.9,11735,-78983,26528,43153
5985.9,11716,-78969,26537,43168
5987.9,11860,-78642,26400,43008
5989.9,11970,-78442,26257,42851
5991.9,11946,-78632,26282,42861
5993.9,11943,-78722,26338,42884
5995.9,12066,-78440,26260,42786
5997.9,12131,-78285,26186,42735
5999.9,11979,-78430,26241,42833
6001.9,11830,-78345,26283,42902
6003.9,11940,-78064,26268,42893
6005.9,12132,-78272,26348,42974
6007.9,12157,-78802,26444,43067
6009.9,12158,-78774,26315,42921
6011.9,12276,-78301,26106,42685
6013.9,12274,-78257,26158,42727
6015.9,12039,-78562,26371,42945
6017.9,11862,-78499,26405,42977
6019.9,11871,-78235,26292,42867
6021.9,11868,-78391,26286,42896
6023.9,11857,-78797,26401,43044
6025.9,12001,-78966,26500,43137
6027.9,12115,-78997,26529,43142
6029.9,11942,-79113,26468,43068
6031.9,11719,-79114,26352,42927
6033.9,11782,-78861,26303,42833
6035.9,11932,-78600,26340,42818
6037.9,11827,-78559,26356,42742
6039.9,11591,-78692,26372,42587
6041.9,11505,-78891,26511,42527
6043.9,11536,-79085,26732,42606
6045.9,11570,-79133,26901,42710
6047.9,11628,-78892,27016,42831
6049.9,11698,-78440,27108,43024
6051.9,11810,-78091,27133,43232
6053.9,12174,-78049,27109,43427
6055.9,12840,-78150,27132,43708
6057.9,13599,-78078,27164,44077
6059.9,14472,-77673,27127,44458
6061.9,15630,-76881,27136,44990
6063.9,16825,-75698,27331,45866
6065.9,17676,-74362,27613,46957
6067.9,18287,-73223,27848,48037
6069.9,18830,-72287,28059,49116
6071.9,19124,-71373,28203,50112
6073.9,19194,-70794,28164,50661
6075.9,19414,-71108,28015,50616
6077.9,19732,-72195,27862,50136
6079.9,19619,-73429,27568,49181
6081.9,18810,-74615,26988,47608
6083.9,17389,-75880,26219,45711
6085.9,15586,-77045,25434,44073
6087.9,13996,-77901,24850,43061
6089.9,13239,-78522,24712,42678
6091.9,13097,-78846,24907,42607
6093.9,12868,-78795,25006,42455
6095.9,12464,-78781,24998,42257
6097.9,12249,-79036,25269,42356
6099.9,12234,-79019,25775,42704
6101.9,12268,-78481,26077,42907
6103.9,12411,-78097,26138,42925
6105.9,12572,-78193,26255,43003
6107.9,12478,-78225,26423,43104
6109.9,12229,-78023,26454,43056
6111.9,12158,-78047,26423,42965
6113.9,12210,-78308,26479,42986
6115.9,12128,-78413,26554,43038
6117.9,11941,-78414,26566,43038
6119.9,11820,-78511,26595,43082
6121.9,11803,-78538,26667,43188
6123.9,11915,-78413,26670,43207
6125.9,12129,-78317,26568,43094
6127.9,12244,-78242,26481,42980
6129.9,12146,-78202,26499,42959
6131.9,12026,-78472,26578,42990
6133.9,12034,-78877,26619,42990
6135.9,12040,-78769,26570,42923
6137.9,11964,-78244,26486,42836
6139.9,11951,-78097,26445,42812
6141.9,12044,-78356,26454,42863
6143.9,12062,-78351,26472,42924
6145.9,11933,-78107,26507,42976
6147.9,11804,-78179,26581,43039
6149.9,11792,-78466,26641,43074
6151.9,11881,-78508,26638,43040
6153.9,12018,-78437,26617,42991
6155.9,12137,-78573,26631,42998
6157.9,12165,-78713,26655,43033
6159.9,12110,-78562,26652,43057
6161.9,12079,-78264,26654,43093
6163.9,12144,-78061,26693,43157
6165.9,12224,-78000,26748,43222
6167.9,12205,-78087,26781,43257
6169.9,12155,-78233,26748,43219
6171.9,12179,-78201,26643,43088
6173.9,12173,-77976,26551,42972
6175.9,12086,-77811,26549,42971
6177.9,12182,-77785,26557,42991
6179.9,12502,-77852,26515,42956
6181.9,12541,-78105,26560,43017
6183.9,12092,-78430,26767,43244
6185.9,11729,-78417,26927,43391
6187.9,11829,-78096,26855,43286
6189.9,11977,-78000,26693,43104
6191.9,11850,-78218,26658,43058
6193.9,11781,-78273,26758,43146
6195.9,12003,-78058,26874,43265
6197.9,12217,-77950,26931,43338
6199.9,12197,-77997,26912,43322
6201.9,12133,-77872,26852,43268
6203.9,12196,-77611,26834,43281
6205.9,12266,-77632,26901,43361
6207.9,12228,-77953,26971,43390
6209.9,12179,-78085,26927,43303
6211.9,12234,-77798,26796,43165
6213.9,12330,-77455,26712,43077
6215.9,12332,-77469,26731,43077
6217.9,12219,-77772,26801,43148
6219.9,12081,-77953,26886,43256
6221.9,12034,-77828,26949,43334
6223.9,12167,-77719,26947,43341
6225.9,12428,-77912,26928,43335
6227.9,12587,-78082,26992,43388
6229.9,12508,-77881,27130,43482
6231.9,12350,-77683,27266,43581
6233.9,12313,-77870,27347,43653
6235.9,12337,-78023,27304,43612
6237.9,12279,-77759,27153,43464
6239.9,12227,-77504,27076,43397
6241.9,12325,-77600,27160,43491
6243.9,12461,-77704,27264,43605
6245.9,12477,-77600,27306,43668
6247.9,12499,-77537,27336,43716
6249.9,12665,-77625,27328,43691
6251.9,12761,-77788,27271,43592
6253.9,12628,-77958,27276,43573
6255.9,12577,-77861,27329,43630
6257.9,12792,-77390,27301,43618
6259.9,12851,-77158,27283,43616
6261.9,12496,-77600,27405,43751
6263.9,12221,-78005,27492,43845
6265.9,12407,-77684,27400,43760
6267.9,12639,-77234,27354,43717
6269.9,12545,-77391,27505,43851
6271.9,12472,-77732,27621,43941
6273.9,12724,-77678,27544,43862
6275.9,12958,-77542,27464,43797
6277.9,12882,-77611,27495,43828
6279.9,12790,-77494,27472,43805
6281.9,12916,-77083,27334,43695
6283.9,13006,-76923,27246,43638
6285.9,12908,-77189,27275,43666
6287.9,12873,-77418,27325,43698
6289.9,12977,-77368,27392,43759
6291.9,12983,-77216,27512,43872
6293.9,12867,-77100,27586,43923
6295.9,12820,-77087,27551,43865
6297.9,12833,-77213,27511,43828
6299.9,12831,-77311,27521,43871
6301.9,12884,-77281,27526,43912
6303.9,12942,-77317,27537,43925
6305.9,12898,-77427,27562,43923
6307.9,12942,-77275,27495,43836
6309.9,13214,-76898,27339,43685
6311.9,13373,-76798,27314,43662
6313.9,13164,-77083,27499,43833
6315.9,12927,-77305,27690,44012
6317.9,12970,-77275,27723,44044
6319.9,13073,-77273,27666,43986
6321.9,13041,-77408,27620,43945
6323.9,13035,-77454,27606,43941
6325.9,13100,-77350,27640,43969
6327.9,13041,-77273,27709,44018
6329.9,12902,-77245,27718,44012
6331.9,12905,-77173,27627,43908
6333.9,12980,-77157,27552,43813
6335.9,12939,-77282,27587,43841
6337.9,12886,-77367,27675,43943
6339.9,12966,-77261,27743,44018
6341.9,13034,-77100,27784,44053
6343.9,12981,-77069,27779,44061
6345.9,12935,-77174,27709,44017
6347.9,12912,-77256,27623,43931
6349.9,12793,-77148,27565,43852
6351.9,12692,-77024,27538,43821
6353.9,12785,-77272,27575,43868
6355.9,12920,-77728,27659,43953
6357.9,12888,-77796,27667,43960
6359.9,12792,-77574,27582,43880
6361.9,12780,-77618,27531,43834
6363.9,12783,-77710,27510,43824
6365.9,12733,-77428,27403,43739
6367.9,12669,-77351,27308,43660
6369.9,12613,-77913,27394,43747
6371.9,12595,-78232,27525,43877
6373.9,12606,-77727,27481,43834
6375.9,12502,-77284,27361,43708
6377.9,12252,-77523,27348,43698
6379.9,12104,-77796,27372,43744
6381.9,12190,-77704,27314,43700
6383.9,12302,-77681,27234,43618
6385.9,12291,-77829,27208,43598
6387.9,12266,-77842,27205,43612
6389.9,12273,-77826,27205,43616
6391.9,12232,-77941,27218,43623
6393.9,12170,-77956,27220,43635
6395.9,12199,-77900,27212,43639
6397.9,12303,-78108,27227,43638
6399.9,12378,-78351,27233,43623
6401.9,12394,-78155,27185,43586
6403.9,12409,-77823,27133,43570
6405.9,12459,-77910,27138,43600
6407.9,12482,-78210,27184,43649
6409.9,12421,-78288,27227,43690
6411.9,12371,-78224,27233,43693
6413.9,12407,-78133,27172,43626
6415.9,12383,-77868,27083,43529
6417.9,12215,-77508,27039,43483
6419.9,12132,-77372,27044,43496
6421.9,12266,-77531,27083,43539
6423.9,12373,-77785,27158,43606
6425.9,12298,-77973,27209,43662
6427.9,12230,-78125,27195,43672
6429.9,12232,-78342,27205,43693
6431.9,12155,-78431,27263,43728
6433.9,12074,-78051,27236,43673
6435.9,12196,-77445,27127,43557
6437.9,12402,-77274,27107,43549
6439.9,12426,-77522,27165,43617
6441.9,12306,-77609,27132,43581
6443.9,12221,-77544,27046,43489
6445.9,12151,-77753,27082,43528
6447.9,12071,-78067,27203,43660
6449.9,12163,-78048,27241,43695
6451.9,12474,-77868,27184,43628
6453.9,12685,-77905,27146,43591
6455.9,12600,-78019,27137,43584
6457.9,12463,-77949,27081,43515
6459.9,12464,-77817,26999,43426
6461.9,12445,-77754,26991,43426
6463.9,12347,-77656,27052,43498
6465.9,12355,-77532,27086,43535
6467.9,12446,-77527,27061,43519
6469.9,12360,-77651,27053,43519
6471.9,12072,-77881,27131,43583
6473.9,11856,-78189,27257,43695
6475.9,11900,-78298,27304,43752
6477.9,12114,-78008,27203,43661
6479.9,12282,-77659,27072,43518
6481.9,12326,-77658,27070,43511
6483.9,12362,-77873,27163,43626
6485.9,12441,-77989,27177,43654
6487.9,12456,-77944,27055,43522
6489.9,12379,-77811,26917,43388
6491.9,12307,-77668,26884,43378
6493.9,12255,-77567,26922,43421
6495.9,12198,-77404,26912,43395
6497.9,12214,-77120,26821,43296
6499.9,12350,-76968,26730,43209
6501.9,12464,-77153,26707,43186
6503.9,12413,-77421,26723,43207
6505.9,12279,-77360,26693,43199
6507.9,12298,-76943,26589,43117
6509.9,12498,-76598,26514,43052
6511.9,12564,-76708,26568,43110
6513.9,12312,-77085,26640,43174
6515.9,12052,-77216,26564,43072
6517.9,12086,-77038,26445,42927
6519.9,12215,-76917,26478,42958
6521.9,12206,-76937,26565,43058
6523.9,12236,-76882,26507,43009
6525.9,12402,-76838,26408,42916
6527.9,12407,-77072,26472,42994
6529.9,12146,-77427,26619,43166
6531.9,11965,-77457,26653,43213
6533.9,12060,-77126,26579,43134
6535.9,12208,-76889,26521,43058
6537.9,12253,-76996,26500,43018
6539.9,12308,-77168,26477,42982
6541.9,12344,-77144,26464,42973
6543.9,12154,-77037,26498,43024
6545.9,11846,-76960,26565,43106
6547.9,11802,-76831,26599,43144
6549.9,12044,-76684,26541,43093
6551.9,12235,-76681,26429,42985
6553.9,12278,-76838,26375,42919
6555.9,12348,-77058,26415,42936
6557.9,12440,-77237,26459,42969
6559.9,12423,-77232,26435,42952
6561.9,12373,-77027,26360,42883
6563.9,12432,-76823,26263,42783
6565.9,12518,-76749,26211,42724
6567.9,12448,-76724,26317,42814
6569.9,12205,-76688,26523,42997
6571.9,11979,-76681,26586,43055
6573.9,11965,-76757,26471,42954
6575.9,12096,-76953,26423,42904
6577.9,12117,-77166,26515,42969
6579.9,11978,-77129,26533,42977
6581.9,11930,-76820,26407,42865
6583.9,12090,-76649,26337,42803
6585.9,12228,-76900,26433,42892
6587.9,12177,-77226,26525,42986
6589.9,12133,-77126,26443,42914
6591.9,12273,-76712,26270,42735
6593.9,12392,-76541,26215,42671
6595.9,12281,-76741,26305,42767
6597.9,12141,-76899,26350,42816
6599.9,12167,-76890,26269,42711
6601.9,12125,-77046,26232,42652
6603.9,11858,-77347,26349,42783
6605.9,11745,-77308,26464,42936
6607.9,12067,-76892,26444,42951
6609.9,12423,-76648,26403,42927
6611.9,12415,-76792,26424,42948
6613.9,12336,-76968,26409,42918
6615.9,12516,-76946,26349,42840
6617.9,12609,-76871,26375,42854
6619.9,12296,-76854,26474,42943
6621.9,12000,-76840,26521,42980
6623.9,12112,-76742,26530,42985
6625.9,12258,-76506,26560,43014
6627.9,12106,-76218,26575,43033
6629.9,12048,-76100,26614,43083
6631.9,12361,-76192,26746,43219
6633.9,12632,-76281,26834,43293
6635.9,12556,-76280,26766,43199
6637.9,12399,-76296,26737,43151
6639.9,12381,-76276,26874,43273
6641.9,12406,-76110,26950,43333
6643.9,12436,-75990,26854,43229
6645.9,12479,-76104,26808,43197
6647.9,12415,-76161,26877,43299
6649.9,12293,-75823,26846,43306
6651.9,12386,-75345,26702,43190
6653.9,12632,-75177,26675,43178
6655.9,12627,-75211,26824,43320
6657.9,12383,-75076,27000,43472
6659.9,12365,-74861,27119,43569
6661.9,12623,-74905,27193,43644
6663.9,12682,-75178,27235,43708
6665.9,12415,-75420,27254,43753
6667.9,12243,-75541,27225,43748
6669.9,12390,-75518,27107,43652
6671.9,12591,-75353,26983,43532
6673.9,12622,-75296,26987,43506
6675.9,12606,-75571,27041,43515
6677.9,12693,-75954,26960,43409
6679.9,12779,-76148,26795,43249
6681.9,12679,-76242,26721,43185
6683.9,12440,-76381,26674,43144
6685.9,12309,-76484,26499,42984
6687.9,12378,-76503,26308,42822
6689.9,12442,-76530,26287,42824
6691.9,12321,-76595,26351,42889
6693.9,12170,-76662,26304,42822
6695.9,12177,-76779,26182,42677
6697.9,12200,-77062,26185,42664
6699.9,12070,-77461,26328,42789
6701.9,11975,-77641,26384,42831
6703.9,12055,-77378,26248,42697
6705.9,12062,-76991,26112,42577
6707.9,11896,-76883,26120,42606
6709.9,11865,-76930,26134,42644
6711.9,12051,-76915,26071,42613
6713.9,12117,-76997,26093,42656
6715.9,12006,-77202,26219,42774
6717.9,12042,-77251,26227,42754
6719.9,12248,-77213,26119,42618
6721.9,12301,-77370,26129,42613
6723.9,12154,-77467,26222,42706
6725.9,12082,-77108,26140,42638
6727.9,12175,-76615,25930,42447
6729.9,12217,-76571,25880,42417
6731.9,12087,-76923,26010,42562
6733.9,11965,-77246,26096,42642
6735.9,12026,-77365,26073,42593
6737.9,12148,-77271,26031,42525
6739.8,12102,-76970,25963,42443
6741.8,11920,-76733,25869,42340
6743.8,11824,-76859,25896,42365
6745.8,11881,-77072,26079,42562
6747.8,11987,-76883,26170,42681
6749.8,12081,-76535,26049,42589
6751.8,12137,-76659,25986,42549
6753.8,12060,-77114,26153,42720
6755.8,11857,-77271,26290,42824
6757.8,11776,-77176,26201,42673
6759.8,11958,-77231,26084,42497
6761.8,12144,-77238,26071,42441
6763.8,12046,-76948,26030,42318
6765.8,11803,-76821,25972,42101
6767.8,11659,-77240,26074,42007
6769.8,11521,-77784,26295,42071
6771.8,11278,-77954,26506,42191
6773.8,11172,-77792,26743,42416
6775.8,11400,-77485,26969,42725
6777.8,11766,-77049,26978,42894
6779.8,12105,-76540,26789,42909
6781.8,12625,-76140,26662,43055
6783.8,13518,-75974,26660,43438
6785.8,14619,-75877,26660,43914
6787.8,15678,-75440,26692,44492
6789.8,16683,-74471,26837,45312
6791.8,17739,-73203,26971,46287
6793.8,18710,-71861,27006,47240
6795.8,19261,-70421,27097,48227
6797.8,19340,-69061,27299,49275
6799.8,19364,-68332,27383,50060
6801.8,19626,-68533,27283,50307
6803.8,19870,-69342,27236,50135
6805.8,19746,-70331,27248,49622
6807.8,19239,-71444,27017,48543
6809.8,18368,-72691,26465,46899
6811.8,17046,-73835,25822,45168
6813.8,15512,-74740,25240,43810
6815.8,14336,-75602,24789,42945
6817.8,13738,-76512,24601,42505
6819.8,13389,-77187,24681,42327
6821.8,13004,-77377,24866,42230
6823.8,12722,-77224,25082,42179
6825.8,12690,-77009,25359,42251
6827.8,12650,-76774,25666,42442
6829.8,12312,-76425,25940,42660
6831.8,11923,-76098,26142,42810
6833.8,11942,-76080,26216,42823
6835.8,12257,-76345,26167,42704
6837.8,12326,-76581,26108,42567
6839.8,12064,-76685,26115,42510
6841.8,11898,-76762,26145,42514
6843.8,11958,-76785,26154,42514
6845.8,11937,-76723,26172,42526
6847.8,11768,-76750,26229,42592
6849.8,11757,-76900,26283,42671
6851.8,11982,-76920,26278,42678
6853.8,12194,-76738,26230,42618
6855.8,12289,-76627,26203,42564
6857.8,12377,-76703,26221,42533
6859.8,12443,-76757,26247,42504
6861.8,12352,-76650,26252,42484
6863.8,12147,-76492,26240,42481
6865.8,12002,-76415,26238,42491
6867.8,11992,-76468,26273,42535
6869.8,12048,-76650,26326,42609
6871.8,12040,-76833,26336,42632
6873.8,11914,-76835,26284,42563
6875.8,11821,-76712,26246,42500
6877.8,11934,-76713,26291,42530
6879.8,12111,-76845,26367,42592
6881.8,12082,-76801,26370,42580
6883.8,11948,-76448,26294,42512
6885.8,12013,-76104,26230,42478
6887.8,12214,-76171,26220,42501
6889.8,12271,-76621,26238,42549
6891.8,12231,-76987,26282,42625
6893.8,12281,-76887,26345,42708
6895.8,12271,-76500,26369,42716
6897.8,12001,-76323,26361,42669
6899.8,11723,-76500,26405,42683
6901.8,11822,-76639,26437,42712
6903.8,12185,-76386,26290,42577
6905.8,12374,-75988,26063,42365
6907.8,12293,-76021,26057,42373
6909.8,12238,-76542,26278,42609
6911.8,12331,-76912,26415,42756
6913.8,12347,-76717,26364,42699
6915.8,12162,-76372,26316,42623
6917.8,11968,-76373,26350,42620
6919.8,11909,-76516,26363,42596
6921.8,11912,-76408,26330,42540
6923.8,11924,-76171,26335,42542
6925.8,11977,-76131,26403,42627
6927.8,12056,-76247,26502,42750
6929.8,12157,-76248,26573,42840
6931.8,12300,-76126,26552,42824
6933.8,12380,-76193,26489,42739
6935.8,12289,-76571,26531,42743
6937.8,12134,-76817,26656,42843
6939.8,12050,-76492,26675,42858
6941.8,11975,-75984,26598,42774
6943.8,11905,-75989,26636,42805
6945.8,12013,-76321,26776,42954
6947.8,12278,-76248,26789,42989
6949.8,12416,-75806,26675,42887
6951.8,12338,-75622,26645,42849
6953.8,12264,-75764,26719,42895
6955.8,12332,-75877,26762,42903
6957.8,12471,-75989,26765,42887
6959.8,12612,-76213,26783,42906
6961.8,12706,-76312,26805,42933
6963.8,12665,-76218,26862,42991
6965.8,12505,-76163,26952,43089
6967.8,12362,-76087,26913,43071
6969.8,12289,-75822,26720,42905
6971.8,12269,-75690,26653,42853
6973.8,12339,-75910,26810,43002
6975.8,12448,-75988,26891,43054
6977.8,12463,-75618,26761,42896
6979.8,12454,-75331,26698,42817
6981.8,12573,-75463,26842,42950
6983.8,12684,-75563,26976,43077
6985.8,12592,-75363,26991,43098
6987.8,12457,-75257,27013,43138
6989.8,12502,-75442,27054,43189
6991.8,12606,-75626,27023,43152
6993.8,12611,-75704,27005,43114
6995.8,12622,-75839,27120,43205
6997.8,12703,-75963,27265,43334
6999.8,12699,-75924,27311,43376
7001.8,12566,-75844,27300,43370
7003.8,12516,-75792,27263,43336
7005.8,12654,-75597,27146,43222
7007.8,12800,-75350,27032,43120
7009.8,12794,-75390,27072,43168
7011.8,12750,-75575,27165,43260
7013.8,12862,-75470,27135,43228
7015.8,13102,-75237,27076,43172
7017.8,13265,-75330,27140,43231
7019.8,13240,-75593,27241,43309
7021.8,13080,-75682,27278,43333
7023.8,12849,-75776,27327,43394
7025.8,12622,-75998,27383,43464
7027.8,12589,-75955,27337,43415
7029.8,12789,-75520,27253,43331
7031.8,12911,-75149,27257,43352
7033.8,12770,-75125,27271,43373
7035.8,12685,-75271,27194,43275
7037.8,12897,-75369,27126,43175
7039.8,13116,-75314,27142,43177
7041.8,13100,-75143,27162,43204
7043.8,13067,-75122,27184,43234
7045.8,13175,-75366,27291,43346
7047.8,13232,-75517,27404,43475
7049.8,13151,-75333,27380,43470
7051.8,13104,-75138,27291,43380
7053.8,13150,-75170,27293,43366
7055.8,13167,-75207,27352,43424
7057.8,13104,-75170,27343,43417
7059.8,13040,-75267,27277,43329
7061.8,13066,-75436,27244,43271
7063.8,13146,-75460,27281,43316
7065.8,13082,-75451,27345,43402
7067.8,12804,-75511,27360,43415
7069.8,12655,-75441,27315,43356
7071.8,12908,-75265,27301,43343
7073.8,13172,-75280,27352,43405
7075.8,12981,-75386,27352,43407
7077.8,12636,-75288,27262,43313
7079.8,12622,-75234,27239,43287
7081.8,12750,-75548,27344,43383
7083.8,12738,-75856,27371,43405
7085.8,12775,-75748,27207,43266
7087.8,12859,-75558,27066,43173
7089.8,12655,-75669,27136,43280
7091.8,12355,-75830,27276,43434
7093.8,12447,-75764,27273,43445
7095.8,12723,-75655,27153,43346
7097.8,12687,-75684,27060,43257
7099.8,12489,-75706,26998,43189
7101.8,12503,-75548,26879,43077
7103.8,12668,-75256,26682,42900
7105.8,12819,-75052,26505,42731
7107.8,12914,-75125,26462,42687
7109.8,12841,-75406,26547,42780
7111.8,12596,-75696,26640,42892
7113.8,12393,-75962,26688,42954
7115.8,12268,-76194,26741,43004
7117.8,12090,-76223,26787,43040
7119.8,11995,-76070,26749,43007
7121.8,12148,-76016,26675,42949
7123.8,12297,-76086,26662,42948
7125.8,12215,-76058,26666,42950
7127.8,12167,-75990,26600,42876
7129.8,12361,-76058,26533,42801
7131.8,12530,-76148,26562,42830
7133.8,12506,-76150,26661,42932
7135.8,12508,-76140,26744,43010
7137.8,12606,-76012,26741,43003
7139.8,12623,-75696,26634,42905
7141.8,12563,-75614,26538,42825
7143.8,12502,-76012,26601,42891
7145.8,12349,-76311,26745,43027
7147.8,12203,-76018,26746,43034
7149.8,12329,-75585,26609,42913
7151.8,12548,-75600,26544,42850
7153.8,12450,-75880,26596,42885
7155.8,12191,-75979,26616,42891
7157.8,12212,-75862,26561,42832
7159.8,12441,-75727,26547,42807
7161.8,12517,-75678,26604,42857
7163.8,12406,-75700,26644,42912
7165.8,12246,-75735,26660,42953
7167.8,12072,-75794,26730,43030
7169.8,11974,-75949,26819,43110
7171.8,12114,-76094,26771,43055
7173.8,12405,-76000,26576,42856
7175.8,12548,-75753,26455,42727
7177.8,12424,-75693,26566,42827
7179.8,12210,-75822,26765,43019
7181.8,12102,-75820,26818,43072
7183.8,12121,-75645,26726,42987
7185.8,12201,-75584,26652,42926
7187.8,12333,-75723,26639,42929
7189.8,12501,-75861,26617,42920
7191.8,12588,-75901,26608,42914
7193.8,12516,-75918,26656,42952
7195.8,12403,-75947,26674,42957
7197.8,12361,-75952,26591,42869
7199.8,12328,-75906,26513,42794
7201.8,12302,-75801,26531,42814
7203.8,12423,-75780,26565,42853
7205.8,12613,-76043,26569,42873
7207.8,12569,-76401,26602,42925
7209.8,12285,-76386,26621,42953
7211.8,12108,-76023,26525,42851
7213.8,12185,-75840,26403,42714
7215.8,12315,-75962,26425,42725
7217.8,12343,-75994,26543,42854
7219.8,12284,-75785,26575,42912
7221.8,12120,-75602,26511,42865
7223.8,11911,-75614,26488,42848
7225.8,11947,-75694,26512,42883
7227.8,12321,-75665,26455,42841
7229.8,12601,-75552,26341,42732
7231.8,12445,-75557,26354,42740
7233.8,12184,-75712,26478,42859
7235.8,12226,-75785,26464,42836
7237.8,12398,-75739,26305,42663
7239.8,12403,-75848,26293,42653
7241.8,12303,-76133,26479,42860
7243.8,12215,-76246,26564,42960
7245.8,12129,-76093,26463,42862
7247.8,12127,-75992,26409,42824
7249.8,12270,-76066,26444,42878
7251.8,12408,-76032,26355,42782
7253.8,12421,-75758,26146,42544
7255.8,12371,-75569,26047,42424
7257.8,12306,-75711,26108,42473
7259.8,12222,-75916,26197,42549
7261.8,12170,-75837,26279,42631
7263.8,12170,-75601,26353,42735
7265.8,12166,-75542,26338,42750
7267.8,12154,-75695,26232,42644
7269.8,12184,-75860,26163,42558
7271.8,12250,-75906,26167,42555
7273.8,12307,-75844,26166,42559
7275.8,12351,-75778,26167,42552
7277.8,12401,-75774,26208,42577
7279.8,12459,-75754,26206,42574
7281.8,12524,-75684,26114,42492
7283.8,12594,-75739,26060,42443
7285.8,12624,-76025,26146,42529
7287.8,12542,-76327,26282,42677
7289.8,12374,-76356,26353,42760
7291.8,12254,-76096,26354,42750
7293.8,12208,-75784,26329,42707
7295.8,12152,-75645,26311,42690
7297.8,12149,-75695,26302,42686
7299.8,12302,-75837,26267,42640
7301.8,12395,-76031,26213,42581
7303.8,12186,-76171,26197,42585
7305.8,11935,-76004,26194,42611
7307.8,12015,-75615,26145,42579
7309.8,12285,-75573,26129,42563
7311.8,12429,-76005,26231,42642
7313.8,12459,-76180,26302,42679
7315.8,12435,-75753,26194,42558
7317.8,12280,-75446,26050,42428
7319.8,12130,-75689,26036,42416
7321.8,12248,-75847,26064,42430
7323.8,12480,-75589,26061,42432
7325.8,12448,-75518,26120,42524
7327.8,12194,-75822,26203,42643
7329.8,12048,-75948,26162,42621
7331.8,12075,-75895,26090,42543
7333.8,12177,-76134,26150,42572
7335.8,12433,-76349,26234,42617
7337.8,12768,-75933,26226,42584
7339.8,12784,-75253,26272,42620
7341.8,12451,-75015,26432,42779
7343.8,12274,-75157,26515,42879
7345.8,12401,-75343,26493,42884
7347.8,12452,-75523,26531,42940
7349.8,12393,-75455,26579,42988
7351.8,12525,-74913,26469,42870
7353.8,12665,-74413,26346,42720
7355.8,12467,-74546,26439,42771
7357.8,12192,-74947,26612,42916
7359.8,12215,-75034,26621,42938
7361.8,12324,-74991,26531,42886
7363.8,12234,-75120,26506,42904
7365.8,12162,-75144,26521,42962
7367.8,12379,-74834,26551,43016
7369.8,12725,-74438,26664,43121
7371.8,12921,-74212,26825,43260
7373.8,12966,-74222,26941,43362
7375.8,12988,-74493,27039,43445
7377.8,12968,-74866,27144,43530
7379.8,12868,-75027,27166,43554
7381.8,12860,-74887,27063,43482
7383.8,13071,-74572,26904,43356
7385.8,13237,-74207,26758,43226
7387.8,13048,-74037,26699,43168
7389.8,12673,-74247,26755,43207
7391.8,12470,-74519,26792,43215
7393.8,12436,-74528,26693,43096
7395.8,12375,-74613,26556,42957
7397.8,12332,-75052,26458,42867
7399.8,12406,-75335,26276,42697
7401.8,12418,-75189,25985,42431
7403.8,12194,-75232,25811,42290
7405.8,11980,-75668,25864,42360
7407.8,12154,-75814,25964,42456
7409.8,12569,-75602,25989,42466
7411.8,12688,-75812,26026,42488
7413.8,12447,-76428,26098,42539
7415.8,12329,-76578,26081,42495
7417.8,12415,-76153,25982,42379
7419.8,12286,-75800,25944,42346
7421.8,12024,-75675,25954,42378
7423.8,12138,-75576,25911,42367
7425.8,12437,-75672,25904,42388
7427.8,12314,-76050,26011,42505
7429.8,11957,-76307,26049,42539
7431.8,11938,-76240,25901,42380
7433.8,12107,-76154,25768,42228
7435.8,12072,-76222,25790,42234
7437.8,12009,-76282,25828,42277
7439.8,12113,-76262,25793,42262
7441.8,12173,-76193,25757,42238
7443.8,12150,-76007,25728,42222
7445.8,12228,-75779,25680,42206
7447.8,12229,-75756,25686,42234
7449.8,11935,-75887,25765,42291
7451.8,11706,-75886,25825,42308
7453.8,11917,-75796,25838,42284
7455.8,12285,-75838,25827,42244
7457.8,12417,-75942,25775,42180
7459.8,12391,-76018,25748,42163
7461.8,12350,-76199,25834,42270
7463.8,12204,-76409,25915,42373
7465.8,12003,-76380,25842,42323
7467.8,11981,-76187,25750,42244
7469.8,12173,-76072,25792,42275
7471.8,12391,-75977,25815,42265
7473.8,12485,-75815,25694,42107
7475.8,12399,-75748,25625,42006
7477.8,12215,-75878,25734,42077
7479.8,12105,-76133,25834,42106
7481.8,12034,-76446,25842,41978
7483.8,11790,-76706,25935,41885
7485.8,11451,-76739,26138,41922
7487.8,11304,-76577,26256,41948
7489.8,11344,-76430,26280,41960
7491.8,11409,-76362,26398,42139
7493.8,11631,-76262,26612,42495
7495.8,12199,-76078,26732,42836
7497.8,12985,-75882,26696,43083
7499.8,13820,-75714,26618,43357
7501.8,14734,-75404,26603,43790
7503.8,15758,-74619,26656,44412
7505.8,16867,-73266,26691,45154
7507.8,18015,-71749,26653,45946
7509.8,18949,-70511,26670,46857
7511.8,19374,-69463,26903,47990
7513.8,19456,-68349,27200,49139
7515.8,19604,-67458,27227,49831
7517.8,19793,-67337,26966,49864
7519.8,19707,-68013,26706,49452
7521.8,19380,-69109,26546,48746
7523.8,19018,-70430,26294,47616
7525.8,18402,-71909,25844,46073
7527.8,17125,-73311,25314,44516
7529.8,15392,-74400,24835,43343
