t,lead_I,lead_II,v3,v4
0.1,4694,46515,13961,8442
2.1,4097,46548,13432,7871
4.1,3164,46562,13558,7986
6.1,2945,46806,14013,8466
8.1,3650,47054,14127,8634
10.1,4076,47002,13946,8474
12.1,3949,46734,13870,8351
14.1,4196,46555,13880,8300
16.1,4742,46699,13792,8197
18.1,4622,47161,13644,8068
20.1,3940,47590,13509,7942
22.1,3459,47581,13497,7906
24.1,3181,47235,13823,8204
26.1,2985,47046,14366,8758
28.1,3151,47127,14604,9042
30.1,3528,47130,14380,8851
32.1,3851,46994,14062,8535
34.1,4374,46972,13897,8360
36.1,4819,46854,13927,8385
38.1,4401,46288,14246,8702
40.1,3553,45875,14645,9100
42.1,3377,46456,14628,9066
44.1,3727,47455,14228,8628
46.1,3949,47667,13995,8379
48.1,4130,47268,14017,8449
50.1,4241,47248,13900,8401
52.1,4007,47591,13633,8151
54.1,3919,47656,13582,8075
56.1,4396,47415,13765,8253
58.1,4776,47222,13833,8345
60.1,4592,47245,13649,8182
62.1,4319,47423,13473,8003
64.1,4169,47372,13571,8061
66.1,3909,46827,13825,8252
68.1,3799,46377,13899,8301
70.1,4197,46692,13739,8160
72.1,4791,47316,13575,7975
74.1,5092,47449,13501,7823
76.1,4986,47190,13495,7777
78.1,4586,46956,13648,7970
80.1,4112,46642,13919,8292
82.1,3740,46178,14027,8416
84.1,3383,45928,13960,8356
86.1,3045,45968,14046,8445
88.1,3020,45791,14238,8625
90.1,3303,45212,14105,8469
92.1,3544,44859,13698,7999
94.1,3801,45193,13541,7715
96.1,4260,45622,13714,7776
98.1,4382,45368,13805,7873
100.1,3702,44751,13705,7850
102.1,2998,44735,13660,7842
104.1,3132,45452,13740,7938
106.1,3600,45937,13863,8128
108.1,3682,45484,14001,8351
110.1,3711,44688,14039,8419
112.1,3917,44598,13877,8250
114.1,3746,45161,13661,8042
116.1,3318,45521,13503,7904
118.1,3459,45527,13333,7746
120.1,3869,45629,13291,7695
122.1,3583,45698,13607,7985
124.1,2990,45312,14057,8406
126.1,3096,44654,14262,8591
128.1,3659,44249,14218,8511
130.1,3997,44462,13976,8192
132.1,4227,45377,13495,7632
134.1,4369,46335,13127,7256
136.1,3970,46270,13288,7477
138.1,3276,45311,13700,7928
140.1,3049,44798,13850,8051
142.13,3226,45204,13800,7979
144.15,3227,45611,13865,8080
146.18,3047,45505,14055,8313
148.2,2996,45403,14217,8478
150.2,3170,45579,14248,8505
152.2,3544,45587,14166,8442
154.2,3846,45168,14147,8425
156.2,3681,44763,14216,8448
158.2,3297,44898,14135,8303
160.2,3276,45396,13943,8056
162.2,3384,45600,13984,8051
164.2,3091,45324,14193,8234
166.2,2814,44983,14202,8251
168.2,3128,44820,14074,8139
170.2,3596,44790,14130,8192
172.2,3759,45006,14422,8476
174.2,4072,45465,14838,8939
176.2,4782,45807,15287,9547
178.2,5250,45879,15685,10189
180.2,5156,45866,16141,10856
182.2,5081,45877,16789,11617
184.2,5427,46111,17403,12346
186.2,5969,46870,17831,13009
188.2,6647,47882,18422,13914
190.2,7676,48495,19281,15054
192.2,8751,48691,19819,15805
194.2,9148,48958,19644,15751
196.2,8783,49390,18963,14990
198.2,8295,49604,17841,13543
200.2,7938,49260,16150,11448
202.2,7234,48462,14238,9255
204.2,6019,47758,12666,7559
206.2,5056,47449,11460,6344
208.2,5010,47149,10327,5315
210.2,5379,46603,9235,4381
212.2,5212,46180,8411,3619
214.2,4500,45990,8061,3202
216.2,3958,45629,8191,3264
218.2,3737,45145,8516,3602
220.2,3388,44995,8784,3896
222.2,2902,45129,9230,4292
224.2,2777,45275,10179,5115
226.2,3195,45602,11318,6097
228.2,3819,46080,12044,6680
230.2,4193,46019,12370,6899
232.2,4050,45229,12708,7153
234.2,3674,44654,13064,7424
236.2,3733,44872,13250,7537
238.2,4230,44979,13460,7710
240.2,4309,44149,13881,8101
242.2,3676,43222,14223,8371
244.2,3079,43331,14223,8309
246.2,2975,44006,14085,8194
248.2,3064,44201,14043,8204
250.2,3244,44067,14059,8190
252.2,3667,44213,14116,8175
254.2,4048,44369,14271,8331
256.2,4013,44138,14431,8540
258.2,3626,43845,14453,8560
260.2,3020,43697,14401,8472
262.2,2338,43374,14445,8512
264.2,2109,43006,14565,8634
266.2,2653,43119,14572,8611
268.2,3379,43461,14517,8540
270.2,3692,43464,14716,8767
272.2,3933,43600,15080,9147
274.2,4378,44437,15028,9061
276.2,4354,45082,14532,8513
278.2,3504,44596,14341,8284
280.2,2719,43879,14690,8622
282.2,2691,44018,14978,8938
284.2,2863,44262,14988,8992
286.2,2780,43720,15068,9066
288.2,2952,43280,15202,9133
290.2,3587,43805,15172,9050
292.2,4002,44302,15160,9072
294.2,3889,43750,15266,9270
296.2,3767,43000,15192,9268
298.2,3900,43136,14926,9024
300.2,3968,43595,14835,8933
302.2,3863,43567,15024,9114
304.2,3829,43653,15329,9387
306.2,3905,44473,15582,9599
308.2,3967,45179,15574,9570
310.2,4160,44920,15312,9289
312.2,4625,44252,15189,9124
314.2,4976,43868,15367,9284
316.2,4678,43577,15536,9503
318.2,3916,43309,15592,9631
320.2,3476,43435,15765,9847
322.2,3659,43710,16030,10146
324.2,3898,43548,16141,10267
326.2,3672,43335,16074,10125
328.2,3312,43879,15975,9905
330.2,3491,44763,15959,9842
332.23,4262,44885,16078,9978
334.25,5012,44301,16238,10117
336.28,5216,44005,16341,10173
338.3,4900,44220,16489,10332
340.3,4388,44338,16688,10585
342.3,3906,44084,16720,10648
344.3,3629,43654,16642,10618
346.3,3800,43328,16796,10876
348.3,4400,43471,17112,11279
350.3,4985,44113,17224,11394
352.3,5268,44643,17196,11319
354.3,5424,44718,17282,11370
356.3,5573,44736,17353,11442
358.3,5628,44873,17314,11431
360.3,5627,44822,17406,11542
362.3,5479,44663,17614,11723
364.3,4974,44644,17621,11685
366.3,4510,44427,17549,11614
368.3,4750,43866,17745,11858
370.3,5444,43802,17967,12132
372.3,5915,44788,17841,12031
374.3,6239,45846,17656,11842
376.3,6649,45808,17794,11951
378.3,6710,45090,17991,12140
380.3,6160,44787,17932,12110
382.3,5512,44803,17794,11985
384.3,5232,44402,17773,11901
386.3,5215,43860,17765,11783
388.3,5304,43926,17681,11626
390.3,5669,44370,17559,11506
392.3,6457,44596,17470,11477
394.3,7286,44784,17534,11616
396.3,7480,45165,17741,11859
398.3,6910,45246,17842,11922
400.3,6111,44788,17753,11753
402.3,5544,44365,17714,11660
404.3,5279,44289,17824,11750
406.3,5285,44192,17897,11801
408.3,5473,44034,17811,11698
410.3,5729,44283,17534,11429
412.3,6035,44923,17073,10970
414.3,6270,45367,16684,10573
416.3,6266,45343,16617,10545
418.3,6222,45038,16604,10621
420.3,6223,44590,16307,10380
422.3,5698,44082,15996,10064
424.3,4583,43793,16047,10095
426.3,4115,43991,16262,10295
428.3,5019,44553,16305,10327
430.3,6138,44892,16193,10245
432.3,6224,44455,16015,10135
434.3,5666,43503,15738,9903
436.3,5418,43031,15425,9589
438.3,5558,43506,15237,9392
440.3,5562,44201,15280,9411
442.3,5136,44251,15504,9600
444.3,4570,43810,15649,9766
446.3,4448,43535,15526,9732
448.3,4765,43488,15324,9580
450.3,4807,43329,15251,9466
452.3,4429,43157,15168,9321
454.3,4478,43264,15027,9141
456.3,5275,43497,15035,9107
458.3,5972,43653,15114,9149
460.3,5964,43826,14975,9027
462.3,5670,43914,14773,8892
464.3,5580,43763,14845,9014
466.3,5642,43747,15030,9190
468.3,5704,44037,14988,9081
470.3,5792,44100,14764,8760
472.3,5943,43921,14588,8516
474.3,6084,44137,14578,8507
476.3,6018,44395,14731,8717
478.3,5694,43798,14902,8966
480.3,5501,42916,14919,9054
482.3,5736,43017,14806,8975
484.3,5974,43928,14674,8829
486.3,5763,44548,14556,8681
488.3,5431,44499,14532,8633
490.3,5325,44143,14673,8753
492.3,5226,43956,14858,8930
494.3,5185,44070,14995,9075
496.3,5552,43957,15172,9228
498.3,5889,43272,15315,9307
500.3,5637,42822,15163,9146
502.3,5454,43301,14750,8830
504.3,6005,43930,14401,8599
506.3,6470,43833,14272,8509
508.3,5987,43353,14342,8538
510.3,5113,42883,14606,8723
512.3,4676,42340,14897,8941
514.3,4819,42226,14914,8923
516.3,5393,43062,14706,8720
518.3,5894,43983,14630,8668
520.3,5734,43966,14706,8784
522.33,5316,43485,14659,8768
524.35,5333,43325,14545,8619
526.38,5242,43391,14618,8616
528.4,4423,43647,14771,8745
530.4,3628,44156,14807,8814
532.4,3346,44060,14858,8887
534.4,2801,42784,14972,9007
536.4,1898,41532,14908,8963
538.4,1596,41440,14701,8773
540.4,1905,41846,14687,8758
542.4,2012,41959,14865,8929
544.4,1955,42079,14946,8989
546.4,2161,42278,14880,8908
548.4,2425,42220,14822,8882
550.4,2602,42302,14860,8968
552.4,2928,42826,15028,9134
554.4,3159,42978,15199,9268
556.4,2832,42335,15120,9159
558.4,2366,41810,14843,8866
560.4,2626,42002,14720,8777
562.4,3482,42360,14801,8962
564.4,3836,42446,14814,9058
566.4,3244,42455,14711,8931
568.4,2580,42488,14637,8786
570.4,2602,42431,14546,8677
572.4,2892,42346,14392,8549
574.4,2984,42431,14347,8532
576.4,3243,42669,14458,8662
578.4,3742,42705,14466,8670
580.4,3860,42389,14281,8458
582.4,3709,42232,14195,8362
584.4,4063,42564,14341,8560
586.4,4535,42710,14399,8696
588.4,4053,42166,14201,8534
590.4,3056,41635,14081,8417
592.4,2797,41683,14168,8512
594.4,3045,41810,14005,8338
596.4,2889,41727,13451,7738
598.4,2710,41811,13132,7392
600.4,3135,41987,13357,7625
602.4,3536,41874,13631,7881
604.4,3384,41655,13710,7910
606.4,3303,41595,13927,8115
608.4,3625,41589,14225,8439
610.4,3841,41690,14134,8341
612.4,3823,41929,13765,7901
614.4,3817,41931,13635,7699
616.4,3688,41745,13759,7822
618.4,3488,41966,13786,7909
620.4,3632,42364,13663,7805
622.4,3832,42045,13590,7655
624.4,3477,41262,13622,7625
626.4,3053,41206,13636,7696
628.4,3325,41895,13562,7720
630.4,3700,42066,13534,7696
632.4,3296,41310,13664,7763
634.4,2664,40712,13787,7877
636.4,2757,41022,13749,7899
638.4,3289,41528,13708,7902
640.4,3502,41449,13775,7956
642.4,3479,41259,13755,7914
644.4,3588,41506,13611,7760
646.4,3619,41570,13625,7750
648.4,3293,40985,13802,7904
650.4,2839,40574,13734,7872
652.4,2595,40813,13377,7577
654.4,2733,40880,13258,7455
656.4,3298,40599,13543,7674
658.4,3893,40885,13679,7783
660.4,3835,41396,13454,7596
662.4,3273,40968,13406,7575
664.4,3135,40525,13637,7798
666.4,3471,41660,13535,7700
668.4,3345,43007,13117,7304
670.4,2706,42341,13120,7308
672.4,2530,40663,13541,7716
674.4,2920,40072,13735,7912
676.4,3022,40229,13706,7883
678.4,2823,40277,13827,7965
680.4,3070,40795,13895,7975
682.4,3597,41613,13643,7705
684.4,3575,41462,13359,7453
686.4,3097,40636,13334,7472
688.4,2893,40470,13518,7681
690.4,3009,40812,13831,7991
692.4,3086,40977,14129,8249
694.4,3184,41369,14158,8207
696.4,3352,42056,14012,8014
698.4,3355,42161,14158,8197
700.4,3404,41713,14751,8898
702.4,3975,41646,15434,9710
704.4,4755,41987,15870,10284
706.4,5022,42123,16053,10597
708.4,4897,42096,16139,10784
710.4,5100,42263,16349,11101
712.4,5893,42786,16881,11831
714.4,7023,43756,17632,12864
716.4,8136,44767,18190,13655
718.4,8896,45070,18286,13827
720.4,9206,44887,17970,13434
722.43,9290,45066,17212,12503
724.45,9217,45301,15825,10888
726.48,8787,44659,13970,8832
728.5,8028,43464,12213,7004
730.5,7270,42663,10824,5700
732.5,6698,42294,9548,4589
734.5,6271,42138,8235,3440
736.5,5839,42420,7173,2495
738.5,5202,42821,6643,1991
740.5,4487,42591,6579,1865
742.5,4294,42031,6805,2014
744.5,4828,41937,7301,2463
746.5,5323,41963,8078,3171
748.5,5047,41590,8892,3855
750.5,4311,41623,9407,4229
752.5,3833,42538,9742,4449
754.5,3740,42982,10373,4974
756.5,3744,42010,11285,5790
758.5,3702,40881,11902,6331
760.5,3572,40845,12083,6422
762.5,3273,41163,12288,6514
764.5,2937,40775,12640,6798
766.5,2928,40118,12788,6955
768.5,3293,40059,12708,6899
770.5,3519,40404,12734,6910
772.5,3242,40460,12924,7063
774.5,2849,40245,13112,7195
776.5,2810,40209,13285,7277
778.5,2902,40238,13423,7357
780.5,2812,39961,13357,7359
782.5,2765,39656,13140,7283
784.5,2884,39783,13133,7353
786.5,2937,40149,13474,7697
788.5,3136,40442,13843,8082
790.5,3770,40745,13931,8187
792.5,4113,40956,13775,7978
794.5,3493,40815,13532,7663
796.5,2819,40564,13304,7441
798.5,3138,40527,13200,7382
800.5,3843,40540,13226,7406
802.5,3972,40494,13230,7389
804.5,3769,40548,13182,7361
806.5,3748,40556,13225,7431
808.5,3825,40382,13386,7578
810.5,3860,40375,13583,7755
812.5,3692,40557,13771,7937
814.5,3000,40300,13808,7950
816.5,2183,39644,13622,7728
818.5,2303,39616,13568,7668
820.5,3377,40538,13883,7984
822.5,4147,41412,14092,8155
824.5,3972,41466,13865,7868
826.5,3494,40999,13682,7660
828.5,3307,40503,13836,7823
830.5,3351,40210,13911,7899
832.5,3472,40367,13827,7801
834.5,3517,40790,13991,7960
836.5,3276,40697,14242,8218
838.5,2927,39976,14113,8085
840.5,2927,39656,13847,7798
842.5,3356,40390,13909,7850
844.5,4017,41555,14167,8134
846.5,4705,42190,14348,8385
848.5,4898,41948,14468,8626
850.5,4282,41242,14530,8826
852.5,3660,40872,14551,8927
854.5,3870,41117,14690,9035
856.5,4310,41434,14849,9099
858.5,4144,41440,14750,8922
860.5,3890,41359,14532,8677
862.5,4208,41312,14560,8715
864.5,4546,41191,14797,8980
866.5,4380,41092,15002,9216
868.5,4261,41117,15150,9367
870.5,4607,41208,15257,9421
872.5,4943,41400,15266,9357
874.5,4969,41646,15265,9328
876.5,4993,41667,15383,9454
878.5,4975,41437,15549,9608
880.5,4465,41246,15652,9684
882.5,3582,41167,15705,9727
884.5,2939,41029,15736,9745
886.5,2742,40796,15764,9734
888.5,2904,40650,15863,9810
890.5,3553,40851,16064,10037
892.5,4600,41464,16293,10306
894.5,5398,42131,16440,10466
896.5,5472,42407,16422,10443
898.5,5039,42242,16248,10257
900.5,4514,41893,16064,10054
902.5,4106,41612,16028,10004
904.5,3978,41580,16139,10124
906.5,4217,41824,16258,10288
908.5,4628,42112,16285,10391
910.5,4973,42214,16227,10394
912.53,5282,42249,16123,10277
914.55,5585,42506,16008,10074
916.58,5598,42887,15933,9921
918.6,5053,42853,15920,9907
920.6,4233,42216,15920,9956
922.6,3790,41502,15869,9951
924.6,3951,41134,15692,9819
926.6,4267,41048,15355,9537
928.6,4420,41328,15062,9275
930.6,4714,41991,15103,9295
932.6,5180,42220,15295,9448
934.6,5164,41510,15172,9311
936.6,4694,41062,14818,8955
938.6,4891,42080,14708,8834
940.6,5946,43500,14815,8934
942.6,6445,43489,14744,8866
944.6,5749,42294,14483,8587
946.6,5077,41644,14296,8328
948.6,5249,41989,14221,8145
950.6,5413,42153,14096,7956
952.6,4969,41666,13863,7751
954.6,4815,41609,13734,7678
956.6,5517,42372,13914,7873
958.6,5840,42435,14047,8012
960.6,4652,40935,13574,7583
962.6,3172,39566,12853,6898
964.6,3403,40063,12780,6809
966.6,4944,41616,13226,7235
968.6,5642,42547,13288,7302
970.6,5061,42676,12894,6904
972.6,4707,42535,12668,6673
974.6,5045,42067,12676,6718
976.6,5123,41407,12601,6698
978.6,4912,41340,12516,6636
980.6,5148,41904,12599,6734
982.6,5403,42028,12704,6876
984.6,4971,41405,12667,6863
986.6,4541,41005,12540,6728
988.6,4752,41127,12435,6609
990.6,4899,41097,12412,6567
992.6,4667,41115,12453,6572
994.6,4724,41792,12472,6574
996.6,4848,42168,12405,6540
998.6,4248,41105,12277,6439
1000.6,3598,39814,12212,6329
1002.6,4023,40124,12331,6375
1004.6,4944,41489,12508,6545
1006.6,5278,42192,12467,6553
1008.6,5334,42059,12265,6368
1010.6,5672,42000,12200,6278
1012.6,5832,42201,12227,6299
1014.6,5569,42236,12141,6232
1016.6,5557,42092,12104,6211
1018.6,5916,42011,12246,6376
1020.6,5844,41897,12238,6409
1022.6,5361,41696,11978,6171
1024.6,5440,41795,11894,6080
1026.6,5933,42172,12058,6251
1028.6,5650,42051,12006,6228
1030.6,4853,41466,11725,5954
1032.6,4963,41571,11730,5936
1034.6,5657,42297,12020,6220
1036.6,5390,42150,12022,6263
1038.6,4608,41279,11655,5942
1040.6,4948,41426,11437,5733
1042.6,5848,42389,11542,5840
1044.6,5658,42408,11648,5987
1046.6,4948,41711,11669,6052
1048.6,5090,41685,11789,6143
1050.6,5335,41830,11926,6187
1052.6,4731,41290,11925,6109
1054.6,4504,41169,11929,6089
1056.6,5479,42159,11983,6139
1058.6,6177,42882,11873,6021
1060.6,5899,42740,11735,5876
1062.6,5889,42753,11918,6042
1064.6,6010,42697,12138,6207
1066.6,4910,41666,11920,5925
1068.6,3838,40991,11691,5709
1070.6,4847,42006,12058,6192
1072.6,6116,42764,12446,6719
1074.6,4961,41547,12020,6366
1076.6,3465,40705,11390,5735
1078.6,5051,42628,11731,6028
1080.6,8082,45161,12688,6915
1082.6,8468,44860,12841,7027
1084.6,6319,42289,12017,6212
1086.6,5291,41004,11491,5700
1088.6,6640,42337,11803,6017
1090.6,7757,43726,12027,6273
1092.6,6865,43084,11630,5929
1094.6,5765,42151,11367,5692
1096.6,6010,42714,11636,5972
1098.6,5937,42909,11713,6075
1100.6,4619,41461,11296,5683
1102.63,4576,41186,11089,5485
1104.65,6983,43633,11397,5810
1106.68,8720,45368,11649,6070
1108.7,7323,43718,11380,5761
1110.7,4710,41134,10716,5042
1112.7,3955,40863,10187,4521
1114.7,5408,42405,10334,4723
1116.7,6905,43183,10937,5337
1118.7,6586,42237,11124,5477
1120.7,5217,41066,10763,5081
1122.7,5020,41315,10646,4971
1124.7,6189,42418,10983,5317
1126.7,6798,42692,11117,5449
1128.7,6151,42112,10792,5137
1130.7,5388,41890,10452,4811
1132.7,4965,41959,10365,4716
1134.7,4282,41328,10349,4691
1136.7,3523,40320,10237,4579
1138.7,3685,40205,10168,4490
1140.7,4910,41194,10394,4681
1142.7,6164,42407,10857,5133
1144.7,6529,43127,11167,5434
1146.7,6110,43121,11131,5356
1148.7,5582,42534,10933,5112
1150.7,5262,41831,10705,4881
1152.7,5071,41368,10470,4663
1154.7,5125,41277,10437,4636
1156.7,5452,41593,10692,4891
1158.7,5377,41733,10788,4989
1160.7,4510,40948,10382,4579
1162.7,3891,40007,9914,4087
1164.7,4440,40379,9906,4035
1166.7,5248,41494,10108,4198
1168.7,5242,41681,10100,4185
1170.7,4961,41207,10065,4171
1172.7,4950,41241,10229,4351
1174.7,4600,41322,10289,4431
1176.7,3956,40783,10080,4272
1178.7,4130,40548,9992,4248
1180.7,5140,41362,10210,4486
1182.7,5743,42357,10382,4607
1184.7,5305,42330,10249,4402
1186.7,4116,41000,9889,4047
1188.7,2977,39394,9557,3804
1190.7,3160,39332,9652,3974
1192.7,4712,40889,10163,4488
1194.7,5558,41625,10275,4586
1196.7,5024,40879,9711,4026
1198.7,5382,41358,9506,3807
1200.7,6748,43237,10020,4291
1202.7,5814,42601,10045,4322
1204.7,2975,39458,9348,3674
1206.7,3076,39186,9419,3795
1208.7,6268,42586,10476,4879
1210.7,7440,44227,10923,5330
1212.7,6001,42702,10436,4809
1214.7,5832,41911,10238,4542
1216.7,6399,42216,10384,4634
1218.7,4671,41017,10012,4253
1220.7,3035,40027,9643,3871
1222.7,5174,42262,10391,4546
1224.7,8203,45240,11706,5787
1226.7,7527,44950,12170,6306
1228.7,4759,42527,11739,6087
1230.7,3869,41266,11470,6073
1232.7,4373,41117,11669,6446
1234.7,4209,40759,11864,6710
1236.7,4877,41513,12173,7065
1238.7,8167,44667,13130,8151
1240.7,11502,47701,14336,9597
1242.7,11765,47751,14890,10398
1244.7,10399,46272,14832,10470
1246.7,10092,45895,14657,10259
1248.7,10256,45977,14078,9500
1250.7,9684,45246,12704,7870
1252.7,9255,44628,10962,5895
1254.7,9313,44556,9325,4137
1256.7,8883,44124,7801,2625
1258.7,8307,43799,6545,1495
1260.7,8511,44370,5678,820
1262.7,8733,44611,4769,82
1264.7,8230,43850,3656,-969
1266.7,7815,43657,3021,-1647
1268.7,7771,44430,3253,-1477
1270.7,7215,44521,3723,-1035
1272.7,6153,43693,3894,-911
1274.7,5447,43128,4140,-790
1276.7,5127,42652,4902,-160
1278.7,4824,41752,5861,751
1280.7,4845,41485,6488,1386
1282.7,5333,42399,6822,1690
1284.7,5496,42960,7184,1963
1286.7,4866,42226,7619,2261
1288.7,4384,41537,8081,2558
1290.7,4980,42013,8606,2974
1292.7,5803,42682,8988,3377
1294.7,5418,42311,8969,3447
1296.7,4292,41422,8849,3378
1298.7,4176,41413,9103,3626
1300.8,5180,42376,9524,4020
1302.8,5602,42820,9559,4017
1304.8,4846,41914,9242,3650
1306.8,4320,40988,9073,3419
1308.8,4853,41447,9247,3523
1310.8,5353,42371,9502,3743
1312.8,4995,42285,9596,3862
1314.8,4653,41810,9569,3880
1316.8,5050,41974,9513,3837
1318.8,5414,41968,9317,3619
1320.8,5128,41203,8966,3227
1322.8,4904,40997,8836,3052
1324.8,5280,41897,9152,3353
1326.8,5551,42301,9480,3702
1328.8,5059,41484,9395,3650
1330.8,4290,40881,9217,3515
1332.8,4026,41366,9371,3726
1334.8,4326,42131,9613,4018
1336.8,4756,42477,9589,4016
1338.8,4985,42456,9502,3928
1340.8,4987,42192,9616,4020
1342.8,5026,42066,9722,4097
1344.8,5366,42567,9543,3952
1346.8,5780,43293,9240,3735
1348.8,5744,43287,9154,3638
1350.8,5245,42457,9320,3660
1352.8,4801,41622,9483,3745
1354.8,4636,41404,9444,3814
1356.8,4510,41692,9246,3728
1358.8,4287,41920,9086,3537
1360.8,4050,41706,9153,3554
1362.8,3848,41341,9399,3850
1364.8,3869,41436,9551,4050
1366.8,4371,42075,9525,3998
1368.8,4977,42689,9553,4005
1370.8,4903,42792,9710,4157
1372.8,4360,42617,9824,4204
1374.8,4454,42755,9961,4270
1376.8,5281,43163,10281,4615
1378.8,5706,43181,10495,4889
1380.8,5343,42721,10316,4703
1382.8,5022,42509,10113,4489
1384.8,5279,42946,10328,4766
1386.8,5856,43661,10734,5237
1388.8,6278,44075,10868,5375
1390.8,6108,43825,10730,5219
1392.8,5527,43235,10662,5144
1394.8,5537,43323,10836,5327
1396.8,6362,44269,11060,5591
1398.8,6838,44719,11089,5669
1400.8,6532,43989,11040,5613
1402.8,6328,43266,11158,5677
1404.8,6290,43328,11330,5815
1406.8,5815,43482,11362,5862
1408.8,5646,43587,11443,5995
1410.8,6546,44238,11754,6361
1412.8,7206,44841,12038,6635
1414.8,6519,44449,11999,6521
1416.8,5793,43854,11695,6204
1418.8,6255,44228,11417,6030
1420.8,7022,45052,11463,6153
1422.8,7227,45343,11863,6484
1424.8,7439,45282,12254,6761
1426.8,8003,45363,12345,6840
1428.8,8319,45495,12281,6822
1430.8,8132,45505,12261,6786
1432.8,7845,45411,12258,6733
1434.8,7602,45213,12248,6732
1436.8,7283,45105,12248,6766
1438.8,7137,45398,12254,6740
1440.8,7365,45777,12305,6734
1442.8,7463,45470,12337,6784
1444.8,7104,44722,12190,6701
1446.8,6969,44795,12009,6522
1448.8,7465,45772,12042,6513
1450.8,7863,46275,12136,6610
1452.8,7938,46109,12121,6649
1454.8,8450,46496,12175,6748
1456.8,9132,47231,12256,6848
1458.8,8824,46938,12056,6665
1460.8,7843,46043,11699,6334
1462.8,7449,45933,11503,6185
1464.8,7588,46202,11396,6144
1466.8,7534,45880,11297,6097
1468.8,7356,45550,11307,6128
1470.8,7226,45854,11239,6072
1472.8,7030,46233,10946,5791
1474.8,7055,46380,10803,5638
1476.8,7451,46612,10922,5753
1478.8,7649,46730,10752,5629
1480.8,7465,46482,10176,5104
1482.8,7380,46281,9853,4765
1484.8,7292,46175,10030,4883
1486.8,6816,45674,10187,5012
1488.8,6491,45168,10043,4867
1490.8,6842,45460,9858,4682
1492.83,7140,46019,9759,4596
1494.85,6759,45807,9612,4463
1496.88,6334,45120,9442,4251
1498.9,6300,44691,9368,4081
1500.9,6139,44442,9317,3969
1502.9,5879,44486,9217,3909
1504.9,6224,45254,9188,3987
1506.9,6985,46162,9279,4191
1508.9,7453,46477,9382,4399
1510.9,7726,46692,9440,4550
1512.9,7925,46890,9387,4529
1514.9,7542,46136,9141,4220
1516.9,6717,44959,8921,3914
1518.9,6147,44885,9005,3986
1520.9,5675,45305,9116,4146
1522.9,5113,44851,8881,3950
1524.9,5138,44422,8633,3704
1526.9,5666,45062,8784,3824
1528.9,5779,45671,9012,4001
1530.9,5871,45484,8903,3887
1532.9,6688,45343,8629,3694
1534.9,7188,45557,8471,3620
1536.9,6528,45770,8490,3628
1538.9,5877,46126,8687,3751
1540.9,5931,46358,8866,3881
1542.9,5896,45829,8759,3766
1544.9,5806,45205,8568,3577
1546.9,6313,45421,8635,3658
1548.9,6802,45790,8795,3826
1550.9,6700,45654,8835,3834
1552.9,6829,45908,8988,3935
1554.9,7446,46840,9265,4202
1556.9,7392,46962,9200,4156
1558.9,6267,45582,8725,3682
1560.9,5225,44246,8382,3351
1562.9,5228,44460,8443,3493
1564.9,5946,45612,8568,3732
1566.9,6394,46187,8447,3644
1568.9,6156,45919,8238,3352
1570.9,5857,45643,8283,3290
1572.9,6061,45652,8594,3556
1574.9,6229,45528,8807,3762
1576.9,5810,45319,8697,3618
1578.9,5400,45463,8485,3384
1580.9,5543,45711,8460,3424
1582.9,5682,45516,8566,3621
1584.9,5524,45268,8564,3625
1586.9,5787,45709,8454,3490
1588.9,6557,46466,8491,3580
1590.9,6776,46594,8717,3896
1592.9,6189,46194,8828,4033
1594.9,5859,46074,8720,3884
1596.9,6258,46378,8689,3783
1598.9,6799,46791,8814,3840
1600.9,7208,47297,8845,3838
1602.9,7480,47669,8796,3797
1604.9,7089,47256,8827,3844
1606.9,5996,46113,8715,3772
1608.9,5242,45256,8311,3458
1610.9,5273,45288,8030,3256
1612.9,5413,45752,8158,3396
1614.9,5539,45975,8401,3625
1616.9,6079,45860,8482,3715
1618.9,6558,45812,8400,3651
1620.9,6352,46150,8152,3410
1622.9,5904,46564,7863,3116
1624.9,5524,46384,7789,3030
1626.9,4728,45550,7857,3104
1628.9,3800,44843,7775,3072
1630.9,3754,44906,7545,2934
1632.9,4425,45474,7350,2842
1634.9,4837,45829,7247,2809
1636.9,5032,45725,7278,2847
1638.9,5524,45483,7414,2958
1640.9,5888,45286,7413,2946
1642.9,5551,44998,7175,2711
1644.9,4894,44658,6936,2477
1646.9,4396,44416,6796,2382
1648.9,3877,44109,6597,2256
1650.9,3380,43716,6371,2033
1652.9,3464,43668,6340,1915
1654.9,4021,43979,6469,2004
1656.9,4178,44114,6551,2166
1658.9,3804,44121,6604,2279
1660.9,3627,44407,6749,2351
1662.9,3712,44488,6845,2378
1664.9,3383,43792,6707,2312
1666.9,2613,42931,6518,2212
1668.9,2050,42508,6551,2188
1670.9,1975,42154,6624,2155
1672.9,2240,41946,6383,1915
1674.9,2585,42472,6001,1582
1676.9,2573,43043,5968,1547
1678.9,2100,42599,6280,1871
1680.9,1754,41970,6422,2101
1682.9,1927,42350,6113,1875
1684.9,2268,42957,5664,1427
1686.9,2466,42792,5525,1252
1688.9,2520,42491,5756,1473
1691.0,2350,42562,6063,1792
1693.0,2096,42407,6189,1921
1695.0,2088,41976,6066,1785
1697.0,1995,41783,5744,1458
1699.0,1341,41686,5474,1214
1701.0,804,41662,5572,1355
1703.0,1188,42152,5928,1722
1705.0,1785,42596,6065,1809
1707.0,1664,42103,5895,1569
1709.0,1248,41358,5771,1431
1711.0,1001,41207,5752,1473
1713.0,537,41039,5614,1398
1715.0,160,40779,5487,1273
1717.0,795,41483,5623,1386
1719.0,1822,42612,5789,1558
1721.0,1704,42449,5668,1462
1723.0,687,41378,5434,1238
1725.0,227,41028,5310,1114
1727.0,473,41297,5176,977
1729.0,708,41383,5058,838
1731.0,1014,41620,5278,1009
1733.0,1584,42081,5754,1442
1735.0,1853,41942,5969,1663
1737.0,1557,41347,5838,1558
1739.0,1222,41313,5819,1531
1741.0,1152,41826,6089,1757
1743.0,1172,42231,6325,1943
1745.0,1210,42525,6345,1885
1747.0,1258,42718,6314,1756
1749.0,1269,42502,6331,1745
1751.0,1358,42293,6363,1849
1753.0,1524,42727,6539,2105
1755.0,1651,43353,6986,2649
1757.0,2045,43570,7525,3411
1759.0,2823,43675,7914,4087
1761.0,3086,43618,8184,4522
1763.0,2478,42903,8472,4855
1765.0,2356,42364,8813,5314
1767.0,3459,43280,9245,6015
1769.0,4486,44977,9760,6869
1771.0,4745,46074,10222,7641
1773.0,5333,46749,10563,8192
1775.0,6403,47362,10692,8378
1777.0,6552,47119,10200,7746
1779.0,5529,45843,8747,5957
1781.0,4524,44626,6722,3517
1783.0,4052,44102,4894,1401
1785.0,3806,44046,3552,-12
1787.0,3596,44144,2405,-1091
1789.0,3117,43925,1157,-2212
1791.0,2214,43167,-45,-3263
1793.0,1593,42600,-724,-3835
1795.0,1791,42807,-691,-3801
1797.0,2088,43200,-360,-3534
1799.0,1756,43206,-163,-3388
1801.0,1212,43093,-20,-3265
1803.0,976,43011,358,-2910
1805.0,869,42811,1045,-2291
1807.0,819,42737,1872,-1588
1809.0,1029,42897,2536,-1047
1811.0,1188,42801,2878,-759
1813.0,866,42417,3149,-491
1815.0,458,42304,3648,-23
1817.0,467,42227,4218,484
1819.0,588,41576,4557,803
1821.0,498,41025,4743,1032
1823.0,390,41417,4950,1291
1825.0,263,41911,5055,1425
1827.0,151,41717,4987,1360
1829.0,584,41754,5046,1361
1831.0,1301,42366,5365,1557
1833.0,1126,42307,5544,1645
1835.0,326,41588,5381,1492
1837.0,461,41742,5313,1473
1839.0,1297,42564,5563,1738
1841.0,1154,42337,5683,1859
1843.0,82,41063,5456,1661
1845.0,-577,40180,5290,1547
1847.0,-656,40162,5377,1677
1849.0,-455,40714,5520,1825
1851.0,445,41702,5745,2020
1853.0,1680,42618,6039,2295
1855.0,1834,42843,5973,2229
1857.0,870,42643,5513,1755
1859.0,199,42396,5294,1536
1861.0,47,41625,5450,1759
1863.0,-455,40321,5432,1823
1865.0,-882,39906,5289,1699
1867.0,-92,41226,5582,1980
1869.0,1341,42879,6069,2471
1871.0,1865,43091,6020,2414
1873.0,1254,42075,5556,1917
1875.0,253,41117,5326,1679
1877.0,-725,40596,5401,1779
1879.0,-1256,40295,5490,1899
1881.0,-979,40398,5607,2050
1883.03,-538,40892,5829,2288
1885.05,-661,41187,5978,2412
1887.08,-832,41116,5942,2351
1889.1,-465,41191,5896,2336
1891.1,-8,41678,6017,2511
1893.1,209,42291,6184,2702
1895.1,277,42470,6111,2635
1897.1,-284,41708,5771,2299
1899.1,-1479,40508,5499,2016
1901.1,-1706,40422,5600,2088
1903.1,-168,41825,6004,2484
1905.1,1228,42864,6357,2871
1907.1,646,42125,6331,2883
1909.1,-884,40742,5970,2532
1911.1,-1372,40333,5737,2297
1913.1,-771,40629,5944,2525
1915.1,-327,40714,6329,2948
1917.1,-383,40902,6533,3186
1919.1,-367,41733,6603,3279
1921.1,-148,42560,6704,3383
1923.1,-17,42669,6831,3495
1925.1,125,42453,6959,3622
1927.1,431,42399,7064,3753
1929.1,588,42399,7076,3763
1931.1,422,42476,7045,3689
1933.1,70,42517,7088,3715
1935.1,-554,41904,7157,3819
1937.1,-1180,40988,7208,3902
1939.1,-818,41190,7385,4087
1941.1,516,42384,7735,4454
1943.1,1311,42846,8022,4774
1945.1,1034,42385,8047,4822
1947.1,753,42337,7869,4660
1949.1,650,42650,7618,4421
1951.1,-90,42212,7351,4140
1953.1,-923,41285,7191,3942
1955.1,-610,40899,7312,4036
1957.1,338,41107,7631,4364
1959.1,727,41643,7860,4625
1961.1,858,42662,7931,4732
1963.1,1273,43664,7927,4768
1965.1,1181,43549,7727,4609
1967.1,196,42499,7362,4262
1969.1,-401,42011,7305,4186
1971.1,208,42585,7717,4567
1973.1,992,43160,8054,4874
1975.1,1006,43064,7966,4756
1977.1,806,42807,7753,4530
1979.1,1037,42830,7646,4439
1981.1,1366,42967,7491,4305
1983.1,1382,43050,7181,4002
1985.1,1184,42975,6818,3645
1987.1,859,42578,6591,3418
1989.1,426,42077,6640,3451
1991.1,197,42029,6822,3626
1993.1,431,42549,6875,3694
1995.1,913,43125,6842,3662
1997.1,1205,43226,6816,3604
1999.1,1007,42736,6557,3317
2001.1,396,41974,6026,2794
2003.1,10,41552,5717,2521
2005.1,420,41889,5890,2730
2007.1,1162,42601,6159,3021
2009.1,1264,42798,6142,3015
2011.1,732,42307,5842,2713
2013.1,457,41944,5423,2276
2015.1,821,42237,5119,1970
2017.1,1430,42778,5113,2017
2019.1,1918,43079,5291,2274
2021.1,2042,43013,5377,2388
2023.1,1493,42521,5225,2222
2025.1,516,41872,4854,1845
2027.1,73,41688,4454,1446
2029.1,551,42035,4323,1308
2031.1,1198,42437,4519,1518
2033.1,1547,42924,4779,1816
2035.1,1999,43720,4889,1949
2037.1,2414,44233,4801,1865
2039.1,2021,43778,4522,1591
2041.1,1083,42730,4212,1294
2043.1,586,41909,4113,1220
2045.1,535,41595,4223,1348
2047.1,515,41688,4341,1442
2049.1,778,42009,4345,1391
2051.1,1200,42227,4234,1258
2053.1,973,42056,4131,1177
2055.1,187,41513,4162,1233
2057.1,-231,40938,4204,1295
2059.1,62,40898,4150,1264
2061.1,898,41605,4250,1375
2063.1,1814,42357,4543,1665
2065.1,1776,42399,4532,1667
2067.1,574,41951,4125,1314
2069.1,-327,41441,3920,1173
2071.1,-118,40814,4062,1340
2073.13,205,40546,4075,1333
2075.15,228,41471,3949,1183
2077.18,787,42930,4106,1328
2079.2,1761,43443,4446,1652
2081.2,2079,43154,4524,1709
2083.2,1655,43058,4353,1525
2085.2,1148,42803,4290,1432
2087.2,757,41860,4412,1500
2089.2,469,41199,4453,1509
2091.2,390,41560,4219,1303
2093.2,454,42063,3845,988
2095.2,603,41943,3631,810
2097.2,756,41563,3716,893
2099.2,448,41205,3905,1075
2101.2,-418,40744,3886,1075
2103.2,-841,40416,3729,946
2105.2,-16,40674,3875,1103
2107.2,1354,41628,4357,1588
2109.2,2111,42802,4616,1859
2111.2,1934,43100,4420,1688
2113.2,1130,41948,4143,1444
2115.2,328,40688,3976,1302
2117.2,296,40986,3854,1183
2119.2,969,42134,3937,1276
2121.2,1361,42337,4197,1584
2123.2,1070,41770,4182,1615
2125.2,626,41649,3835,1264
2127.2,312,41799,3659,1055
2129.2,144,41616,3850,1209
2131.2,431,41470,4200,1507
2133.2,928,41475,4530,1789
2135.2,769,41275,4571,1840
2137.2,199,41408,4199,1529
2139.2,308,42185,3889,1279
2141.2,766,42366,3976,1395
2143.2,498,41627,3996,1414
2145.2,101,41687,3681,1094
2147.2,599,42685,3543,996
2149.2,1018,42378,3754,1290
2151.2,167,40551,3797,1388
2153.2,-930,39591,3555,1146
2155.2,-975,40057,3419,1002
2157.2,-516,40343,3426,1008
2159.2,-264,40340,3357,923
2161.2,232,41149,3293,844
2163.2,962,42179,3351,924
2165.2,995,42045,3356,979
2167.2,352,41173,3164,842
2169.2,149,40856,2887,613
2171.2,631,40998,2674,424
2173.2,895,40835,2566,314
2175.2,497,40485,2591,318
2177.2,-234,40066,2728,428
2179.2,-1061,39102,2778,467
2181.2,-1576,38308,2630,357
2183.2,-960,39328,2626,415
2185.2,542,41353,3050,862
2187.2,1173,41628,3426,1210
2189.2,211,40219,3241,991
2191.2,-757,39824,2950,689
2193.2,-577,40687,3107,840
2195.2,-322,40627,3234,941
2197.2,-943,39549,2836,514
2199.2,-1592,39147,2426,111
2201.2,-1575,39314,2435,153
2203.2,-1458,38991,2484,216
2205.2,-1351,38871,2486,216
2207.2,-565,39930,2847,599
2209.2,553,41153,3325,1097
2211.2,757,41245,3272,1020
2213.2,-86,40652,2850,568
2215.2,-968,40225,2641,375
2217.2,-1371,39849,2596,360
2219.2,-1520,39369,2428,207
2221.2,-1653,38982,2318,112
2223.2,-1804,38576,2430,257
2225.2,-1820,38207,2534,408
2227.2,-1561,38485,2543,474
2229.2,-1308,39301,2663,629
2231.2,-1437,39679,2847,788
2233.2,-1738,39492,2826,729
2235.2,-1767,39464,2654,572
2237.2,-1505,39578,2541,508
2239.2,-1297,39272,2447,423
2241.2,-1492,38690,2354,299
2243.2,-1992,38419,2414,343
2245.2,-2124,38606,2528,454
2247.2,-1660,38945,2489,405
2249.2,-1403,39040,2497,435
2251.2,-1798,38795,2658,686
2253.2,-2189,38574,2547,667
2255.2,-2215,38624,2106,239
2257.2,-2373,38553,1982,85
2259.2,-2808,37964,2310,406
2261.2,-2984,37353,2478,571
2263.2,-2535,37661,2378,437
2265.2,-1762,38831,2470,478
2267.2,-1513,39572,2687,654
2269.2,-2227,39123,2619,593
2271.2,-2957,38417,2413,460
2273.23,-2612,38499,2531,631
2275.25,-1822,38852,2992,1038
2277.28,-1819,38665,3413,1384
2279.3,-2378,38498,3542,1551
2281.3,-2641,39046,3537,1673
2283.3,-2603,39567,3690,1952
2285.3,-2412,39322,3993,2399
2287.3,-1795,39159,4323,2920
2289.3,-942,39894,4751,3524
2291.3,-463,40634,5198,4102
2293.3,-287,40528,5473,4519
2295.3,98,40474,5885,5147
2297.3,649,41424,6786,6325
2299.3,1147,42745,7669,7465
2301.3,1860,43582,7898,7860
2303.3,2746,43942,7622,7632
2305.3,2921,43658,6942,6844
2307.3,1929,42326,5484,5104
2309.3,492,40582,3428,2725
2311.3,-597,39608,1503,649
2313.3,-1151,39510,-117,-921
2315.3,-1147,39548,-1663,-2356
2317.3,-901,39428,-3005,-3619
2319.3,-1093,39331,-3924,-4494
2321.3,-1698,39345,-4404,-4986
2323.3,-2008,39570,-4399,-5058
2325.3,-1982,40149,-3981,-4734
2327.3,-2096,40727,-3400,-4217
2329.3,-2324,40488,-2664,-3522
2331.3,-2649,39281,-1739,-2650
2333.3,-3397,38099,-1043,-2043
2335.3,-4205,37874,-841,-1958
2337.3,-4290,38319,-646,-1869
2339.3,-3932,38568,-60,-1358
2341.3,-3958,38354,568,-790
2343.3,-4238,37992,948,-472
2345.3,-4174,37738,1344,-139
2347.3,-3777,37678,1829,297
2349.3,-3289,37884,2069,527
2351.3,-2851,38226,2096,584
2353.3,-2848,38247,2284,813
2355.3,-3463,37708,2544,1092
2357.3,-4068,37137,2511,1053
2359.3,-4021,37219,2361,868
2361.3,-3505,37827,2515,956
2363.3,-3063,38237,2803,1186
2365.3,-3024,38028,2742,1120
2367.3,-3421,37366,2344,755
2369.3,-3902,36812,2057,466
2371.3,-4158,36828,2108,462
2373.3,-4541,37125,2278,597
2375.3,-5181,37077,2319,672
2377.3,-5165,36861,2364,773
2379.3,-4205,37068,2628,1055
2381.3,-3733,37386,2871,1294
2383.3,-4498,37149,2786,1212
2385.3,-5116,36706,2639,1051
2387.3,-4700,36767,2720,1102
2389.3,-4380,37105,2747,1132
2391.3,-4718,37245,2619,1042
2393.3,-4455,37581,2735,1197
2395.3,-3150,38519,3034,1521
2397.3,-2420,39209,3027,1500
2399.3,-3329,38521,2887,1289
2401.3,-4630,36981,3091,1407
2403.3,-4766,36201,3356,1645
2405.3,-4161,36435,3211,1533
2407.3,-4231,36531,2883,1255
2409.3,-5011,36265,2765,1183
2411.3,-5282,36509,2855,1289
2413.3,-4663,37189,3095,1500
2415.3,-4018,37467,3480,1861
2417.3,-3999,37478,3792,2185
2419.3,-4436,37789,3759,2172
2421.3,-4871,38089,3496,1930
2423.3,-4987,37949,3420,1911
2425.3,-4879,37590,3643,2202
2427.3,-4798,37219,3818,2381
2429.3,-4535,36909,3786,2294
2431.3,-3997,36909,3809,2277
2433.3,-3909,37127,3942,2386
2435.3,-4432,37242,3964,2358
2437.3,-4426,37494,3992,2337
2439.3,-3644,38043,4212,2560
2441.3,-3381,38239,4328,2707
2443.3,-3900,37824,4185,2582
2445.3,-4138,37557,4216,2625
2447.3,-4060,37760,4559,2991
2449.3,-4295,37844,4754,3198
2451.3,-4487,37485,4623,3070
2453.3,-4459,36821,4441,2922
2455.3,-4942,36043,4334,2883
2457.3,-5500,35799,4378,2974
2459.3,-4699,36714,4742,3335
2461.3,-3227,37927,5169,3712
2463.3,-3286,37954,5178,3654
2465.3,-4511,37180,5031,3474
2467.3,-4341,37319,5357,3822
2469.3,-2638,38442,5874,4373
2471.3,-2024,38915,5868,4367
2473.33,-3352,38190,5563,4049
2475.35,-4544,37472,5609,4096
2477.38,-4225,37645,5833,4332
2479.4,-3349,38258,5823,4337
2481.4,-3032,38516,5825,4356
2483.4,-3197,38273,6036,4570
2485.4,-3384,38038,6111,4639
2487.4,-3500,38188,5953,4501
2489.4,-3788,38258,5836,4432
2491.4,-4298,37746,5727,4348
2493.4,-4511,37280,5559,4151
2495.4,-4072,37619,5656,4188
2497.4,-3453,38275,6059,4537
2499.4,-3048,38587,6268,4736
2501.4,-2724,38761,6135,4637
2503.4,-2715,38820,5994,4538
2505.4,-3222,38553,5887,4441
2507.4,-3507,38539,5595,4128
2509.4,-3357,38924,5161,3672
2511.4,-3740,38620,4761,3267
2513.4,-4374,37813,4529,3050
2515.4,-3781,38146,4623,3152
2517.4,-2637,39083,4888,3389
2519.4,-2913,38644,4876,3340
2521.4,-3998,37649,4597,3087
2523.4,-4178,37870,4455,3066
2525.4,-4220,38004,4402,3168
2527.4,-5226,36843,4200,3082
2529.4,-5827,36492,4093,3035
2531.4,-4950,37885,4195,3156
2533.4,-3955,38530,4095,3034
2535.4,-3894,37627,3772,2654
2537.4,-4030,37366,3705,2540
2539.4,-3852,38092,3829,2656
2541.4,-3787,38085,3656,2479
2543.4,-3994,37510,3275,2064
2545.4,-4179,37681,3147,1906
2547.4,-4245,38025,3270,2040
2549.4,-4550,37259,3253,2043
2551.4,-5376,35897,2983,1756
2553.4,-5877,35672,2869,1600
2555.4,-4765,37277,3276,1979
2557.4,-2927,39194,3759,2458
2559.4,-2913,39174,3552,2257
2561.4,-4850,37282,2865,1586
2563.4,-6178,35862,2577,1311
2565.4,-5940,35949,2699,1433
2567.4,-5455,36385,2619,1361
2569.4,-4998,36726,2535,1315
2571.4,-3843,37683,3008,1821
2573.4,-2826,38721,3553,2376
2575.4,-3221,38595,3350,2215
2577.4,-4242,37840,2784,1738
2579.4,-4553,37787,2728,1723
2581.4,-4551,38039,2965,1907
2583.4,-4924,37525,2779,1677
2585.4,-5112,36664,2372,1310
2587.4,-4868,36311,2354,1335
2589.4,-4844,36418,2634,1581
2591.4,-4809,37018,2888,1786
2593.4,-4229,38054,3118,2037
2595.4,-4269,38054,3104,2092
2597.4,-5840,36149,2553,1586
2599.4,-7145,34371,1977,1025
2601.4,-6502,34759,2108,1164
2603.4,-5174,36317,2666,1715
2605.4,-4812,37295,2916,1937
2607.4,-5036,37628,2861,1859
2609.4,-4911,37930,2929,1937
2611.4,-4239,38489,3213,2245
2613.4,-3535,38874,3457,2490
2615.4,-3944,37905,3297,2306
2617.4,-5497,36049,2669,1658
2619.4,-6006,36027,2186,1178
2621.4,-4443,38122,2410,1432
2623.4,-3089,39059,2921,1985
2625.4,-3709,37843,2969,2055
2627.4,-5376,36599,2460,1538
2629.4,-7244,35529,1727,788
2631.4,-8499,34368,1307,369
2633.4,-6856,35823,1909,995
2635.4,-3005,39758,3199,2315
2637.4,-2309,40343,3546,2682
2639.4,-5845,36320,2617,1750
2641.4,-7043,34790,2276,1379
2643.4,-3367,38423,3241,2297
2645.4,-1397,40455,3715,2728
2647.4,-4488,37630,2879,1875
2649.4,-6952,35536,2334,1338
2651.4,-5557,36974,2820,1839
2653.4,-4721,37581,3043,2072
2655.4,-6411,35954,2570,1602
2657.4,-6602,36233,2530,1556
2659.4,-4359,38826,3090,2088
2661.4,-3705,39324,3177,2143
2663.4,-5421,37190,2697,1670
2665.4,-6250,36130,2568,1590
2667.4,-5515,36843,2919,1971
2669.4,-4823,37387,3235,2263
2671.5,-3809,38093,3544,2541
2673.5,-2308,39563,3883,2891
2675.5,-2439,39808,3694,2742
2677.5,-4317,38162,2944,2030
2679.5,-5136,37147,2522,1647
2681.5,-4488,37694,2767,1937
2683.5,-4571,37791,3016,2208
2685.5,-5278,36893,2889,2075
2687.5,-4795,36752,2759,1943
2689.5,-3550,37824,2907,2093
2691.5,-3293,38487,3078,2243
2693.5,-4311,37690,2864,2011
2695.5,-5724,36265,2296,1474
2697.5,-6587,35567,1969,1186
2699.5,-6376,35726,2202,1399
2701.5,-5630,35885,2435,1587
2703.5,-5309,35853,2215,1356
2705.5,-5273,36286,2080,1206
2707.5,-4780,37226,2483,1570
2709.5,-4186,37694,2776,1883
2711.5,-4616,36929,2314,1516
2713.5,-5916,35567,1683,930
2715.5,-6328,35262,1811,1005
2717.5,-5099,36578,2493,1643
2719.5,-4075,37801,2745,1923
2721.5,-4971,37247,2336,1539
2723.5,-6457,35902,1996,1168
2725.5,-6401,35727,2126,1256
2727.5,-5439,36383,2280,1404
2729.5,-5584,36035,2115,1256
2731.5,-6672,34732,1917,1083
2733.5,-6823,34461,1971,1162
2735.5,-5595,35849,2142,1350
2737.5,-4392,37243,2257,1483
2739.5,-4153,37502,2345,1611
2741.5,-4511,37290,2442,1751
2743.5,-4954,37158,2524,1846
2745.5,-5116,36881,2653,1954
2747.5,-4531,36782,2849,2122
2749.5,-3590,37307,2900,2134
2751.5,-3471,37887,2638,1818
2753.5,-4043,37982,2324,1483
2755.5,-4023,37903,2342,1545
2757.5,-3555,37757,2660,1902
2759.5,-3732,37462,2987,2196
2761.5,-4090,37555,3179,2338
2763.5,-3740,38092,3177,2356
2765.5,-3460,38088,2984,2220
2767.5,-3935,37409,2814,2066
2769.5,-4236,37145,2818,2053
2771.5,-3903,37528,2853,2079
2773.5,-3748,37836,2872,2079
2775.5,-3866,38042,3017,2183
2777.5,-3683,38331,3166,2305
2779.5,-3605,38124,3072,2208
2781.5,-4159,37255,2880,2011
2783.5,-4617,36653,2889,2017
2785.5,-4291,36925,3075,2218
2787.5,-3707,37669,3239,2404
2789.5,-3448,38265,3246,2416
2791.5,-3325,38350,3066,2218
2793.5,-3140,38019,2884,2011
2795.5,-3115,37785,2944,2066
2797.5,-3410,37712,3159,2315
2799.5,-3833,37377,3235,2438
2801.5,-4077,37109,3104,2313
2803.5,-4150,37503,2924,2105
2805.5,-4336,37910,2893,2059
2807.5,-4482,37727,3176,2359
2809.5,-4056,37908,3730,2935
2811.5,-3346,38750,4217,3448
2813.5,-3279,38782,4423,3715
2815.5,-3603,37958,4641,4028
2817.5,-3223,38113,5193,4690
2819.5,-2435,39042,5761,5370
2821.5,-2235,38933,5895,5592
2823.5,-1949,38608,6033,5790
2825.5,-593,39936,6796,6682
2827.5,719,41576,7648,7780
2829.5,876,41624,7890,8245
2831.5,980,41431,8101,8544
2833.5,1631,42143,8537,9015
2835.5,1417,41966,7812,8318
2837.5,337,40409,5368,5775
2839.5,289,39860,2883,3072
2841.5,935,40729,1447,1523
2843.5,177,40722,149,328
2845.5,-1309,39628,-1516,-1152
2847.5,-1356,39396,-2748,-2279
2849.5,-797,39961,-3196,-2737
2851.5,-1647,39628,-3332,-2940
2853.5,-3082,38456,-3356,-3025
2855.5,-3357,37897,-3078,-2815
2857.5,-2853,38410,-2390,-2233
2859.5,-2530,39290,-1399,-1350
2861.5,-2305,39764,-445,-470
2863.53,-2103,39661,251,129
2865.55,-2120,39490,839,550
2867.58,-2266,39524,1355,886
2869.6,-2598,39288,1619,1033
2871.6,-3095,38670,1826,1186
2873.6,-3139,38244,2280,1594
2875.6,-2792,37956,2679,1922
2877.6,-3145,37329,2702,1880
2879.6,-4123,36828,2749,1909
2881.6,-4375,37024,3133,2302
2883.6,-3894,37334,3367,2525
2885.6,-3802,37251,3091,2213
2887.6,-3790,37358,2853,1923
2889.6,-2904,38028,3148,2169
2891.6,-2076,38643,3478,2505
2893.6,-2852,38521,3230,2314
2895.6,-4366,37674,2804,1916
2897.6,-4354,36973,2966,2067
2899.6,-2772,37387,3666,2791
2901.6,-1928,38348,4240,3425
2903.6,-2844,38256,4279,3491
2905.6,-3901,37323,3923,3111
2907.6,-3955,37152,3668,2808
2909.6,-4117,37330,3789,2867
2911.6,-4831,36544,3969,2993
2913.6,-4341,36235,4029,3030
2915.6,-2344,38007,4320,3318
2917.6,-1571,39492,4623,3640
2919.6,-3138,38353,4177,3260
2921.6,-4338,36933,3398,2565
2923.6,-3488,37708,3433,2647
2925.6,-2506,38833,4053,3263
2927.6,-2712,38521,4335,3524
2929.6,-2815,38280,4417,3603
2931.6,-2409,38850,4524,3730
2933.6,-2764,38621,4218,3424
2935.6,-3661,37467,3801,2973
2937.6,-3772,36969,3990,3155
2939.6,-3479,37159,4330,3526
2941.6,-3516,37264,4308,3501
2943.6,-2903,37849,4508,3652
2945.6,-1480,39013,4914,4038
2947.6,-1158,39367,4683,3818
2949.6,-2290,38733,4202,3330
2951.6,-3035,38341,4379,3491
2953.6,-3123,38070,4677,3786
2955.6,-3507,37284,4537,3640
2957.6,-3276,37179,4726,3820
2959.6,-1664,38589,5423,4529
2961.6,-587,39779,5621,4738
2963.6,-1347,39345,5177,4280
2965.6,-2390,38340,4926,4000
2967.6,-2481,37904,5050,4099
2969.6,-2225,37887,5234,4274
2971.6,-2003,38118,5468,4512
2973.6,-1721,38537,5685,4723
2975.6,-1705,38750,5703,4729
2977.6,-1910,38744,5665,4710
2979.6,-1883,38789,5750,4833
2981.6,-1841,38660,5864,4959
2983.6,-2041,38291,5987,5073
2985.6,-1999,38256,6216,5293
2987.6,-1659,38659,6417,5486
2989.6,-1716,38900,6373,5455
2991.6,-2117,38783,6235,5353
2993.6,-1970,38662,6386,5523
2995.6,-1086,38855,6834,5972
2997.6,-330,39438,7137,6288
2999.6,-465,39934,7106,6256
3001.6,-1267,39668,7062,6160
3003.6,-1766,39072,7195,6241
3005.6,-1399,39251,7323,6374
3007.6,-761,39930,7357,6426
3009.6,-665,39932,7362,6413
3011.6,-883,39440,7352,6368
3013.6,-764,39401,7356,6370
3015.6,-567,39522,7341,6392
3017.6,-1007,39126,7175,6240
3019.6,-1777,38725,6997,6022
3021.6,-1796,38985,7112,6111
3023.6,-859,39557,7382,6430
3025.6,54,39912,7471,6586
3027.6,176,39974,7448,6589
3029.6,-282,39754,7470,6629
3031.6,-767,39443,7451,6656
3033.6,-1005,39463,7393,6643
3035.6,-970,39746,7354,6641
3037.6,-767,39776,7237,6556
3039.6,-536,39561,7056,6393
3041.6,-381,39616,6909,6259
3043.6,-375,40121,6656,6017
3045.6,-427,40798,6300,5646
3047.6,-349,41096,6182,5484
3049.6,-376,40370,6287,5567
3051.6,-923,38885,6242,5546
3053.6,-1529,38139,6106,5452
3055.6,-1317,38873,6116,5483
3057.6,-636,39846,6051,5395
3059.6,-595,39832,5718,5020
3061.6,-1097,39309,5415,4718
3063.63,-1160,39167,5376,4729
3065.65,-743,39442,5431,4823
3067.68,-535,39822,5340,4751
3069.7,-581,40104,5077,4512
3071.7,-498,40167,4874,4312
3073.7,-404,40040,4939,4329
3075.7,-720,39582,5039,4378
3077.7,-1357,38598,4857,4184
3079.7,-1617,37820,4622,3945
3081.7,-1081,38242,4643,3938
3083.7,-416,39171,4710,3974
3085.7,-539,39191,4597,3866
3087.7,-1031,38803,4470,3788
3089.7,-729,39403,4476,3838
3091.7,154,40425,4565,3931
3093.7,299,40352,4625,4004
3095.7,-333,39545,4562,4002
3097.7,-511,39432,4556,4035
3099.7,-170,39850,4791,4227
3101.7,-531,39578,4802,4173
3103.7,-1665,38722,4251,3588
3105.7,-2355,38300,3837,3159
3107.7,-2353,38233,3999,3332
3109.7,-2144,38117,4143,3507
3111.7,-1089,38771,4233,3598
3113.7,943,40372,4776,4120
3115.7,1677,41007,5094,4454
3117.7,9,39904,4567,3963
3119.7,-1232,39223,4299,3732
3121.7,-241,39929,4781,4290
3123.7,316,39896,4749,4322
3125.7,-1259,38267,4231,3791
3127.7,-2427,37000,4650,4259
3129.7,-1811,36896,5317,5160
3131.7,-1417,37009,4486,4516
3133.7,-1744,37708,3117,3008
3135.7,-1367,39510,3202,2748
3137.7,-1150,40603,4164,3458
3139.7,-2488,39799,4444,3643
3141.7,-3543,38949,4306,3471
3143.7,-2572,39262,4597,3763
3145.7,-1334,39402,4989,4174
3147.7,-1372,39107,4973,4116
3149.7,-1513,39650,4842,3906
3151.7,-1218,40230,4892,3963
3153.7,-1628,39203,4817,3983
3155.7,-2564,37953,4355,3576
3157.7,-2629,38478,3834,3034
3159.7,-1857,39441,3745,2923
3161.7,-1265,38938,4160,3334
3163.7,-980,37993,4722,3890
3165.7,-698,38139,4976,4140
3167.7,-626,38912,4779,3908
3169.7,-986,39437,4498,3535
3171.7,-1549,39597,4479,3468
3173.7,-1863,39495,4515,3579
3175.7,-1578,39525,4415,3568
3177.7,-852,39934,4505,3680
3179.7,-333,40065,4882,4073
3181.7,-409,39694,4993,4212
3183.7,-817,39761,4592,3807
3185.7,-1063,40284,4247,3455
3187.7,-792,40125,4458,3677
3189.7,-102,39518,4987,4167
3191.7,335,39727,5250,4361
3193.7,107,40460,5055,4156
3195.7,-289,40505,4762,3877
3197.7,-421,39862,4670,3751
3199.7,-633,39233,4604,3659
3201.7,-1070,38929,4454,3519
3203.7,-1204,39161,4455,3505
3205.7,-824,39896,4590,3610
3207.7,-361,40343,4570,3616
3209.7,-209,39797,4454,3536
3211.7,-547,38740,4413,3481
3213.7,-1220,38328,4348,3414
3215.7,-1405,38990,4339,3466
3217.7,-490,40043,4574,3761
3219.7,736,40648,4727,3937
3221.7,1045,40620,4489,3734
3223.7,442,40066,4167,3462
3225.7,-320,39113,3913,3237
3227.7,-949,38369,3514,2868
3229.7,-1208,38590,3223,2653
3231.7,-688,39457,3399,2924
3233.7,177,39845,3691,3255
3235.7,381,39419,3759,3300
3237.7,-96,38866,3796,3301
3239.7,-480,38680,3793,3271
3241.7,-574,38748,3604,3059
3243.7,-589,38859,3523,2964
3245.7,-559,38878,3679,3102
3247.7,-720,38690,3727,3112
3249.7,-1185,38376,3685,3045
3251.7,-1317,38142,3827,3206
3253.73,-762,38095,3974,3360
3255.75,-137,38422,3964,3322
3257.78,216,39282,4004,3364
3259.8,467,40076,3998,3374
3261.8,266,39816,3674,2994
3263.8,-399,38881,3321,2557
3265.8,-468,38820,3328,2544
3267.8,163,39655,3540,2749
3269.8,88,39665,3679,2832
3271.8,-879,38569,3691,2817
3273.8,-1351,37961,3616,2773
3275.8,-997,38257,3588,2768
3277.8,-551,38475,3683,2875
3279.8,-40,38602,3705,2944
3281.8,572,39121,3576,2844
3283.8,644,39467,3513,2747
3285.8,113,39248,3564,2775
3287.8,-347,39035,3610,2848
3289.8,-534,38964,3713,2962
3291.8,-544,38679,3866,3089
3293.8,-366,38391,3838,3079
3295.8,-293,38356,3613,2938
3297.8,-396,38426,3473,2852
3299.8,-94,38668,3578,2911
3301.8,526,39016,3820,3062
3303.8,561,38957,3973,3156
3305.8,78,38532,3898,3043
3307.8,-82,38251,3677,2788
3309.8,3,38100,3497,2610
3311.8,-37,38158,3508,2655
3313.8,112,38829,3755,2927
3315.8,323,39394,3959,3153
3317.8,-99,38770,3780,3000
3319.8,-753,37820,3507,2713
3321.8,-697,37980,3614,2775
3323.8,-263,38546,3775,2931
3325.8,-109,38309,3580,2749
3327.8,192,38013,3492,2625
3329.8,821,38558,3792,2901
3331.8,884,38966,3879,3057
3333.8,118,38316,3535,2800
3335.8,-553,37646,3293,2569
3337.8,-568,38238,3343,2592
3339.8,-141,39540,3581,2817
3341.8,475,40094,4161,3375
3343.8,984,39614,4907,4090
3345.8,1090,39088,5264,4486
3347.8,1013,39216,5269,4649
3349.8,1120,39656,5410,5000
3351.8,1352,39813,5732,5489
3353.8,1584,39611,5973,5832
3355.8,1799,39382,6071,6011
3357.8,1979,39613,6249,6299
3359.8,2575,40782,6903,7154
3361.8,4057,42694,8052,8606
3363.8,5575,44175,8984,9810
3365.8,6011,44425,9154,10057
3367.8,6000,44158,8753,9536
3369.8,6328,44183,7758,8305
3371.8,5923,43893,5817,6075
3373.8,4417,42878,3514,3555
3375.8,3737,42258,1958,1981
3377.8,4240,42354,926,1062
3379.8,3512,41571,-666,-450
3381.8,1395,39748,-2559,-2320
3383.8,802,39151,-3396,-3146
3385.8,1988,40184,-3024,-2802
3387.8,2139,40515,-2617,-2466
3389.8,1202,39877,-2499,-2431
3391.8,1771,40550,-1834,-1875
3393.8,3518,42377,-570,-749
3395.8,3808,42829,311,24
3397.8,2856,41912,670,325
3399.8,2974,41741,1304,908
3401.8,4014,42245,2211,1733
3403.8,3936,41820,2670,2059
3405.8,2690,40688,2743,1984
3407.8,1977,40099,2966,2155
3409.8,2028,39972,3203,2441
3411.8,1661,39728,3158,2388
3413.8,1162,39814,3176,2298
3415.8,2082,40735,3645,2699
3417.8,3916,41688,4286,3348
3419.8,4201,41488,4540,3595
3421.8,2535,40335,4280,3313
3423.8,1196,39467,3892,2959
3425.8,1348,39429,3721,2838
3427.8,2012,39888,3715,2818
3429.8,2427,40357,3763,2813
3431.8,2406,40186,3864,2916
3433.8,1723,39297,3843,2994
3435.8,1166,38996,3639,2912
3437.8,1692,39739,3601,2926
3439.8,2113,39645,3785,3103
3441.8,1149,38199,3808,3136
3443.8,483,38113,3826,3180
3445.8,1726,40281,4219,3555
3447.8,3080,41576,4480,3750
3449.8,2747,40411,4116,3320
3451.8,2019,39211,3772,2944
3453.83,2231,39651,3948,3125
3455.85,2605,40433,4177,3354
3457.88,2610,40431,4330,3454
3459.9,2870,40188,4724,3765
3461.9,3310,40257,4944,3938
3463.9,3107,40313,4503,3504
3465.9,2319,40006,3941,2965
3467.9,1954,39888,3840,2874
3469.9,2611,40806,4021,3078
3471.9,3805,42215,4339,3462
3473.9,4653,42605,4844,4038
3475.9,4791,41919,5206,4417
3477.9,4334,41416,5142,4340
3479.9,3629,41394,4904,4108
3481.9,3408,41367,4797,3972
3483.9,3924,41417,4796,3874
3485.9,4058,41452,4750,3742
3487.9,3175,40998,4604,3556
3489.9,2689,40514,4538,3459
3491.9,3433,40664,4733,3674
3493.9,3872,40818,4927,3964
3495.9,3236,40490,4807,3900
3497.9,2959,40425,4654,3699
3499.9,3509,40731,4838,3839
3501.9,3770,40625,5164,4169
3503.9,3716,40432,5291,4290
3505.9,3944,40920,5205,4214
3507.9,3935,41485,5114,4197
3509.9,3643,41563,5290,4449
3511.9,4146,41865,5791,4957
3513.9,5118,42451,6267,5388
3515.9,5071,42269,6474,5530
3517.9,4428,41622,6558,5578
3519.9,4845,42093,6577,5635
3521.9,6011,43501,6451,5595
3523.9,6324,43953,6369,5572
3525.9,5771,43179,6491,5701
3527.9,5420,42751,6641,5799
3529.9,5292,42977,6730,5788
3531.9,4984,42788,6866,5860
3533.9,4901,42298,6994,6004
3535.9,5090,42223,6973,6020
3537.9,4816,42036,6819,5900
3539.9,4437,41577,6661,5802
3541.9,5049,42028,6702,5865
3543.9,6062,43203,7035,6122
3545.9,6138,43433,7351,6377
3547.9,5796,42913,7314,6406
3549.9,6165,43222,7138,6336
3551.9,6734,44044,7169,6388
3553.9,6563,43972,7282,6453
3555.9,5854,43164,7261,6363
3557.9,5196,42638,7241,6252
3559.9,4853,42486,7301,6260
3561.9,4915,42270,7220,6256
3563.9,5255,42095,6970,6160
3565.9,5614,42376,6880,6146
3567.9,5786,42860,7046,6290
3569.9,5645,42868,7129,6357
3571.9,5485,42713,7000,6227
3573.9,5840,43324,6961,6140
3575.9,6489,44215,7040,6158
3577.9,6674,44144,6836,5933
3579.9,6365,43524,6414,5461
3581.9,6019,43480,6341,5268
3583.9,5673,43566,6547,5400
3585.9,5341,42998,6375,5279
3587.9,5270,42451,5864,4857
3589.9,5297,42630,5658,4679
3591.9,5114,42992,5791,4778
3593.9,4968,42954,5788,4739
3595.9,5098,42681,5591,4555
3597.9,5180,42457,5432,4443
3599.9,5046,42456,5353,4375
3601.9,5073,42718,5308,4284
3603.9,5395,42930,5241,4180
3605.9,5652,42901,5102,4039
3607.9,5723,43027,5001,3956
3609.9,5825,43441,4992,3995
3611.9,5798,43466,4870,3928
3613.9,5381,42833,4620,3670
3615.9,5103,42460,4503,3504
3617.9,5530,43002,4506,3509
3619.9,5890,43634,4456,3495
3621.9,5207,43369,4444,3480
3623.9,4284,42682,4504,3512
3625.9,4500,42576,4498,3478
3627.9,5390,42884,4527,3469
3629.9,5620,42924,4612,3549
3631.9,5389,42947,4408,3417
3633.9,5623,43346,4030,3088
3635.9,5961,43517,4082,3058
3637.9,5683,43121,4458,3300
3639.9,5253,42990,4501,3317
3641.9,5226,43398,4240,3148
3643.93,5355,43581,4138,3151
3645.95,5784,43715,4272,3352
3647.98,6775,44486,4525,3646
3650.0,7128,44815,4681,3804
3652.0,5804,43565,4417,3478
3654.0,4369,42334,3984,2953
3656.0,4671,42874,4010,2929
3658.0,5743,43880,4325,3249
3660.0,5959,43714,4329,3283
3662.0,5818,43312,4175,3164
3664.0,6157,43672,4169,3172
3666.0,6384,43925,4053,3016
3668.0,6292,43763,3918,2812
3670.0,6693,44211,4267,3130
3672.0,7238,44975,4744,3649
3674.0,6638,44565,4539,3547
3676.0,5441,43357,3951,3066
3678.0,5342,43052,3847,2974
3680.0,5954,43447,4095,3120
3682.0,5805,43265,4041,2947
3684.0,5581,43141,3839,2682
3686.0,6491,44119,3975,2807
3688.0,7175,44886,4202,3072
3690.0,6251,44061,4108,3027
3692.0,5386,43063,3979,2868
3694.0,6107,43559,4118,2917
3696.0,6901,44629,4208,2971
3698.0,6528,44906,4143,2919
3700.0,6354,44804,4319,3094
3702.0,7099,44904,4598,3382
3704.0,7239,44701,4383,3184
3706.0,6152,43962,3855,2614
3708.0,5374,43407,3701,2422
3710.0,5932,43594,3922,2714
3712.0,6967,44214,4149,3018
3714.0,7204,44514,4341,3166
3716.0,6321,44077,4412,3152
3718.0,5102,43349,4212,2904
3720.0,4744,43192,4053,2670
3722.0,5524,43812,4230,2790
3724.0,6439,44576,4470,3112
3726.0,6662,44915,4517,3288
3728.0,6520,44905,4463,3241
3730.0,6500,44894,4337,3073
3732.0,6456,44885,4210,2980
3734.0,6333,44660,4340,3120
3736.0,6509,44442,4645,3344
3738.0,6920,44626,4733,3403
3740.0,6891,44841,4586,3314
3742.0,6278,44527,4480,3201
3744.0,5837,44180,4469,3141
3746.0,5969,44422,4425,3187
3748.0,6087,44640,4267,3175
3750.0,5872,44310,4070,2946
3752.0,5955,44189,4077,2809
3754.0,6443,44595,4264,2959
3756.0,6345,44543,4221,2952
3758.0,5509,43758,3907,2629
3760.0,5323,43341,3814,2547
3762.0,6438,43897,4063,2859
3764.0,7643,44829,4273,3071
3766.0,7869,45429,4277,3026
3768.0,7520,45428,4137,2924
3770.0,7236,44940,3881,2757
3772.0,6996,44433,3667,2540
3774.0,6914,44307,3639,2454
3776.0,7476,44556,3642,2472
3778.0,8505,45044,3537,2439
3780.0,9165,45671,3451,2367
3782.0,9267,46238,3515,2373
3784.0,9351,46457,3704,2518
3786.0,9428,46113,3834,2647
3788.0,9094,45432,3689,2505
3790.0,8688,45163,3443,2268
3792.0,8773,45578,3470,2360
3794.0,8995,45836,3627,2605
3796.0,8933,45407,3614,2589
3798.0,9067,45034,3678,2550
3800.0,9540,45170,3906,2669
3802.0,9449,45082,3730,2410
3804.0,8679,44542,3094,1711
3806.0,8549,44435,2814,1417
3808.0,9415,44907,3167,1783
3810.0,9768,45020,3525,2118
3812.0,9027,44741,3532,2127
3814.0,8739,45089,3492,2177
3816.0,9601,45963,3685,2424
3818.0,10061,46037,3921,2603
3820.0,9283,45134,3773,2440
3822.0,8548,44530,3267,2014
3824.0,8568,44716,3055,1814
3826.0,8577,45002,3417,2105
3828.0,8486,45109,3758,2447
3830.0,8817,45197,3718,2437
3832.0,8942,45062,3691,2349
3834.0,8251,44761,3809,2443
3836.0,7643,44753,3722,2482
3838.0,7678,44782,3427,2295
3840.0,7504,44343,3238,2062
3842.0,6949,43926,3265,2016
3844.03,6951,44064,3495,2236
3846.05,7401,44269,3769,2487
3848.08,7341,44261,3739,2399
3850.1,6994,44524,3481,2118
3852.1,7156,44960,3445,2111
3854.1,7461,44931,3542,2266
3856.1,7348,44646,3450,2230
3858.1,7423,44749,3499,2275
3860.1,8108,44981,3875,2597
3862.1,8453,44732,3878,2589
3864.1,7771,44283,3244,2003
3866.1,6953,44270,2869,1641
3868.1,6916,44560,3241,1990
3870.1,7244,44714,3690,2457
3872.1,7285,44894,3754,2541
3874.1,7085,45170,3755,2475
3876.1,6736,44899,3852,2469
3878.1,6266,44053,3843,2417
3880.1,6170,43769,3854,2416
3882.1,6675,44360,4185,2731
3884.1,7209,44811,4704,3307
3886.1,7575,44987,5137,3920
3888.1,8209,45641,5518,4538
3890.1,8783,46223,5851,5097
3892.1,8630,45815,5946,5381
3894.1,8400,45389,5964,5544
3896.1,9034,46200,6368,6127
3898.1,10007,47547,7187,7226
3900.1,10664,48406,8033,8340
3902.1,11501,49102,8655,9070
3904.1,12464,49824,8841,9234
3906.1,12376,49811,8280,8561
3908.1,11180,48810,6975,6962
3910.1,10153,47537,5250,4800
3912.1,9595,46597,3399,2615
3914.1,8800,46042,1762,896
3916.1,7908,45656,525,-239
3918.1,7539,45259,-714,-1312
3920.1,7446,44945,-2169,-2631
3922.1,7113,44768,-3127,-3547
3924.1,6700,44337,-3160,-3606
3926.1,6532,43682,-2920,-3420
3928.1,6581,43784,-2750,-3351
3930.1,6736,44881,-2110,-2827
3932.1,6933,45610,-916,-1698
3934.1,7087,45325,142,-679
3936.1,7153,45251,673,-231
3938.1,7119,45956,890,-125
3940.1,7021,46192,1239,107
3942.1,7010,45379,1929,697
3944.1,7113,44587,2534,1263
3946.1,7083,44362,2602,1333
3948.1,6768,44044,2565,1236
3950.1,6357,43478,2908,1477
3952.1,6117,43286,3270,1795
3954.1,6141,43549,3427,1948
3956.1,6315,43763,3728,2231
3958.1,6423,43869,3978,2505
3960.1,6454,44205,3656,2258
3962.1,6599,44649,3102,1732
3964.1,6793,44677,2935,1540
3966.1,6730,44240,3086,1690
3968.1,6427,43871,3306,1926
3970.1,6179,43797,3562,2163
3972.1,6099,43706,3752,2274
3974.1,6210,43490,3817,2232
3976.1,6558,43416,3798,2164
3978.1,6879,43543,3653,2064
3980.1,6869,43701,3572,2019
3982.1,6781,43849,3798,2215
3984.1,6904,43938,3920,2334
3986.1,6938,43889,3562,2039
3988.1,6810,43999,3342,1890
3990.1,7006,44532,3708,2336
3992.1,7275,44833,3956,2680
3994.1,6716,44098,3639,2386
3996.1,5726,42953,3413,2064
3998.1,5643,42797,3697,2251
4000.1,6401,43722,4061,2661
4002.1,6918,44627,4136,2919
4004.1,7165,44958,3985,2898
4006.1,7558,44904,3835,2643
4008.1,7611,44606,3930,2502
4010.1,7000,44232,4158,2650
4012.1,6427,44053,4061,2650
4014.1,6493,44163,3672,2295
4016.1,7010,44608,3544,2082
4018.1,7289,45084,3719,2213
4020.1,6668,44658,3798,2287
4022.1,5672,43415,3895,2281
4024.1,5897,43242,4289,2562
4026.1,7479,44823,4620,2982
4028.1,8524,46011,4546,3097
4030.1,8076,45352,4401,2982
4032.1,7178,44267,4423,2974
4034.1,6660,44120,4385,3101
4036.1,6327,44285,4291,3193
4038.1,6055,44070,4296,3097
4040.1,5997,43874,4170,2777
4042.1,6292,44133,3952,2612
4044.13,6923,44665,4258,3072
4046.15,7374,45009,5003,3814
4048.18,7294,45018,5295,4036
4050.2,7325,45045,5128,3813
4052.2,7729,45080,5275,3803
4054.2,7471,44454,5573,3917
4056.2,6537,43472,5411,3753
4058.2,6725,43681,5237,3689
4060.2,8358,45216,5586,4079
4062.2,9296,46148,5911,4408
4064.2,8516,45584,5829,4365
4066.2,7505,44858,5796,4361
4068.2,7471,44989,5893,4459
4070.2,7973,45430,5834,4392
4072.2,8224,45557,5910,4434
4074.2,7841,45411,6266,4788
4076.2,6954,45116,6326,4949
4078.2,6451,44881,6016,4720
4080.2,6948,45056,5959,4578
4082.2,7606,45483,6178,4661
4084.2,7429,45594,6285,4768
4086.2,6814,45340,6424,4984
4088.2,6441,45121,6666,5242
4090.2,6164,45026,6565,5189
4092.2,6071,44951,6125,4935
4094.2,6711,44987,5902,4844
4096.2,7634,45064,5984,4786
4098.2,7690,44864,5985,4558
4100.2,6870,44444,5807,4365
4102.2,6183,44228,5725,4378
4104.2,6072,44232,5900,4495
4106.2,6119,44073,6020,4495
4108.2,5945,43861,5660,4188
4110.2,5791,44229,5117,3823
4112.2,6162,45213,5095,3897
4114.2,6839,45969,5454,4200
4116.2,6893,45970,5540,4141
4118.2,6108,45572,5465,3933
4120.2,5287,45007,5532,3959
4122.2,4782,44068,5329,3775
4124.2,4203,43064,4729,3199
4126.2,3471,42588,4366,2889
4128.2,2799,42331,4354,2923
4130.2,2324,41847,4237,2756
4132.2,2548,41905,4081,2593
4134.2,3658,43096,4066,2774
4136.2,4543,44230,3918,2793
4138.2,4467,44216,3790,2496
4140.2,4444,43830,4130,2509
4142.2,4930,43813,4368,2664
4144.2,4629,43467,3684,2184
4146.2,3404,42555,2680,1456
4148.2,2990,42045,2460,1426
4150.2,3719,42220,2864,1817
4152.2,4288,42523,3087,1777
4154.2,4751,43021,3007,1392
4156.2,5945,43789,2939,1283
4158.2,6999,44073,2942,1501
4160.2,6739,43695,2845,1592
4162.2,5883,43436,2532,1281
4164.2,5576,43353,2133,789
4166.2,5740,42978,2016,604
4168.2,6020,42753,2308,898
4170.2,6381,43134,2570,1266
4172.2,6595,43534,2384,1237
4174.2,6489,43554,1996,900
4176.2,6277,43438,1899,710
4178.2,6101,43114,2011,788
4180.2,5956,42741,1878,824
4182.2,5920,43106,1517,692
4184.2,5876,43861,1427,658
4186.2,5635,43556,1754,843
4188.2,5597,42454,2083,980
4190.2,6354,42424,2116,898
4192.2,7533,43657,2014,755
4194.2,8025,44374,1972,688
4196.2,7484,43833,1913,616
4198.2,6726,43158,1733,489
4200.2,6431,43269,1562,446
4202.2,6310,43743,1609,618
4204.2,5980,43866,1813,844
4206.2,5714,43640,1843,789
4208.2,5741,43399,1559,429
4210.2,5832,43134,1256,148
4212.2,6060,42835,1260,212
4214.2,6788,42962,1525,480
4216.2,7661,43819,1792,724
4218.2,7787,44769,1868,815
4220.2,6975,44778,1759,698
4222.2,6047,43811,1711,534
4224.2,5970,43076,1953,621
4226.2,6830,43503,2298,920
4228.2,7669,44579,2348,1040
4230.2,7826,45323,2079,859
4232.2,7879,45561,1863,723
4234.2,8295,45427,1898,848
4236.2,8386,44826,1909,909
4238.2,7784,44095,1636,585
4240.2,7172,43830,1379,265
4242.2,6859,43974,1548,493
4244.23,6654,44335,1882,965
4246.25,6943,45117,1954,1066
4248.28,7809,45857,1989,970
4250.3,8271,45589,2207,1067
4252.3,7975,44664,2269,1136
4254.3,7754,44311,2123,1038
4256.3,7852,44605,2171,1076
4258.3,7836,44928,2292,1192
4260.3,7846,45304,2124,1093
4262.3,7965,45677,1942,965
4264.3,7785,45662,2039,1002
4266.3,7707,45735,2162,1044
4268.3,8461,46489,2244,1167
4270.3,9251,47091,2494,1466
4272.3,9048,46755,2722,1531
4274.3,8712,46401,2676,1261
4276.3,9214,46738,2544,1221
4278.3,9596,46803,2528,1517
4280.3,9059,46140,2633,1669
4282.3,8677,45903,2862,1636
4284.3,9172,46523,3000,1629
4286.3,9482,46842,2738,1463
4288.3,8939,46360,2287,1115
4290.3,8556,46023,2081,995
4292.3,9189,46449,2099,1184
4294.3,10213,47201,2157,1357
4296.3,10606,47669,2266,1385
4298.3,10206,47569,2367,1322
4300.3,9656,47068,2370,1205
4302.3,9547,46746,2336,1119
4304.3,9683,46767,2178,1040
4306.3,9505,46530,1794,846
4308.3,9132,45873,1483,684
4310.3,9105,45539,1478,762
4312.3,9384,45853,1494,857
4314.3,9672,46260,1390,706
4316.3,10102,46450,1429,491
4318.3,10626,46659,1592,460
4320.3,10720,46916,1650,596
4322.3,10302,47039,1711,805
4324.3,9877,47077,1891,949
4326.3,9740,47142,1995,902
4328.3,9824,47073,1948,757
4330.3,9916,46697,1833,634
4332.3,9897,46387,1631,505
4334.3,10275,46937,1553,558
4336.3,11522,48299,1946,1026
4338.3,12446,48880,2404,1411
4340.3,11293,47363,2073,947
4342.3,8816,44913,1146,-55
4344.3,7629,43983,746,-478
4346.3,8477,45207,1167,-41
4348.3,9831,47022,1581,479
4350.3,10623,47899,1534,568
4352.3,10863,47541,1385,482
4354.3,10518,46555,1331,500
4356.3,9875,46006,1249,568
4358.3,9862,46513,1319,655
4360.3,10502,47221,1662,735
4362.3,10386,46735,1771,553
4364.3,8901,45208,1317,49
4366.3,7611,44292,845,-274
4368.3,8125,44934,866,-37
4370.3,9709,46299,1094,381
4372.3,10627,47122,1156,470
4374.3,10793,47243,1181,338
4376.3,11081,47179,1322,322
4378.3,11112,46933,1447,402
4380.3,10240,46394,1461,408
4382.3,9415,46158,1441,368
4384.3,9545,46492,1434,410
4386.3,9762,46502,1384,526
4388.3,9446,45850,1238,538
4390.3,9542,45650,1032,312
4392.3,10303,46351,889,58
4394.3,10573,46887,899,144
4396.3,10155,46825,1023,558
4398.3,10077,46959,1219,933
4400.3,10525,47493,1487,1085
4402.3,10831,47762,1675,1042
4404.3,10624,47299,1510,739
4406.3,9721,45949,1042,216
4408.3,8595,44340,751,-127
4410.3,8923,44303,943,39
4412.3,11114,46377,1337,483
4414.3,12587,48002,1469,680
4416.3,11466,47229,1282,494
4418.3,9631,46003,1100,313
4420.3,9196,46532,1198,528
4422.3,9326,47593,1606,1132
4424.3,9060,47475,2210,1883
4426.3,9419,47023,2784,2538
4428.3,10746,47276,3095,2935
4430.3,11670,47508,3181,3137
4432.3,11758,47224,3329,3406
4434.33,12033,47246,3685,3885
4436.35,12786,48120,4216,4599
4438.38,13348,49436,4883,5607
4440.4,13545,50659,5558,6767
4442.4,13640,51448,6073,7666
4444.4,13477,51605,6346,7897
4446.4,12822,51241,5975,7006
4448.4,12084,50573,4322,4717
4450.4,11975,49757,1723,1775
4452.4,12504,49097,-491,-500
4454.4,12817,48723,-1856,-1928
4456.4,12355,48172,-3190,-3360
4458.4,11606,47165,-4811,-4928
4460.4,11080,46327,-5998,-5967
4462.4,10384,46158,-6344,-6279
4464.4,9370,46264,-6177,-6113
4466.4,9119,46499,-5757,-5557
4468.4,10284,47307,-5061,-4751
4470.4,11611,48261,-4151,-4009
4472.4,11838,48364,-3291,-3482
4474.4,11701,48071,-2737,-3103
4476.4,12085,48383,-2368,-2649
4478.4,11978,48412,-1833,-1943
4480.4,10579,46986,-1257,-1335
4482.4,9373,45496,-1037,-1261
4484.4,9751,45800,-927,-1292
4486.4,10651,46989,-482,-856
4488.4,10599,47195,-73,-418
4490.4,10096,46559,-154,-496
4492.4,10351,46102,-291,-620
4494.4,11300,45859,-87,-487
4496.4,12058,45673,102,-500
4498.4,12189,45838,105,-520
4500.4,11693,46167,206,-75
4502.4,10498,46074,301,355
4504.4,8930,45680,143,203
4506.4,8190,45579,64,-8
4508.4,9098,45904,313,137
4510.4,10767,46436,495,163
4512.4,11840,46998,396,-31
4514.4,12241,47247,334,26
4516.4,12357,46909,369,198
4518.4,11861,46298,269,78
4520.4,10754,45851,157,-58
4522.4,10010,45518,250,3
4524.4,10087,45294,369,-76
4526.4,10315,45539,432,-165
4528.4,10296,46149,679,276
4530.4,10508,46462,998,873
4532.4,11346,46432,928,831
4534.4,12527,46720,548,468
4536.4,13299,47361,371,531
4538.4,13008,47549,449,715
4540.4,11895,46970,517,454
4542.4,10909,46160,619,137
4544.4,10309,45456,741,173
4546.4,9603,44764,571,162
4548.4,9140,44404,267,-1
4550.4,9865,44947,441,272
4552.4,11320,46165,931,894
4554.4,12044,47172,927,1010
4556.4,11911,47562,510,668
4558.4,11950,47640,534,760
4560.4,12185,47574,970,1226
4562.4,11687,46976,1010,1119
4564.4,10508,45684,653,454
4566.4,9872,44677,645,245
4568.4,10448,45221,1082,756
4570.4,11510,46871,1380,1226
4572.4,11971,47759,1350,1273
4574.4,11720,47265,1301,1294
4576.4,11599,46640,1350,1472
4578.4,12045,46614,1339,1481
4580.4,12202,46366,1220,1210
4582.4,11171,45408,1091,948
4584.4,9916,44788,1011,882
4586.4,10229,45580,1089,1041
4588.4,11735,47234,1445,1482
4590.4,12403,48408,1912,2079
4592.4,12082,48817,2205,2552
4594.4,12379,48971,2420,2864
4596.4,13161,48743,2706,3003
4598.4,12920,47841,2717,2738
4600.4,12033,46926,2289,2265
4602.4,11939,46604,2022,2209
4604.4,12113,46332,2226,2420
4606.4,11204,45606,2324,2176
4608.4,9898,45080,2132,1796
4610.4,10094,45827,2373,2238
4612.4,12178,48042,3270,3306
4614.4,14488,50307,3988,3996
4616.4,15181,50663,3904,4015
4618.4,14280,49228,3325,3721
4620.4,13288,48087,2826,3475
4622.4,12740,47969,2609,3546
4624.4,11908,47851,2617,3807
4626.4,11016,47645,2817,3747
4628.4,11134,47802,3120,3345
4630.4,12037,47678,3263,3112
4632.4,12833,47411,3210,3221
4634.43,13695,48483,3345,3485
4636.45,14713,50321,3719,3789
4638.48,14894,50437,3763,3920
4640.5,13938,48730,3266,3720
4642.5,12904,47405,2748,3470
4644.5,12411,47218,2548,3433
4646.5,12273,47553,2523,3442
4648.5,12662,48437,2634,3407
4650.5,13587,49599,2930,3508
4652.5,14010,49808,3194,3711
4654.5,13248,48916,3222,3805
4656.5,12211,48187,3056,3707
4658.5,11837,47943,2755,3321
4660.5,11827,47457,2335,2586
4662.5,12009,47075,1895,1879
4664.5,12916,47726,1585,1761
4666.5,14112,48867,1533,2208
4668.5,14305,49398,1642,2525
4670.5,13485,49400,1512,2191
4672.5,12666,49013,1061,1545
4674.5,12066,47817,884,1349
4676.5,11572,46630,1263,1701
4678.5,11640,47022,1526,1962
4680.5,12334,48627,1262,1886
4682.5,13075,49784,1086,1917
4684.5,13682,50004,1301,2100
4686.5,14197,49580,1249,1901
4688.5,14303,48649,758,1403
4690.5,13852,47882,579,1293
4692.5,12996,47890,832,1498
4694.5,11857,48056,790,1309
4696.5,10960,47760,423,825
4698.5,11047,47430,416,768
4700.5,11958,47425,776,1150
4702.5,13006,47747,944,1446
4704.5,13974,48664,865,1559
4706.5,14506,49823,795,1628
4708.5,13967,50076,700,1606
4710.5,12799,49312,544,1578
4712.5,12076,48487,435,1673
4714.5,11677,47746,279,1602
4716.5,11118,46896,53,1177
4718.5,11232,46836,97,824
4720.5,12678,48024,421,817
4722.5,14226,49013,439,794
4724.5,14502,48659,50,613
4726.5,13809,47916,-68,682
4728.5,12943,47824,276,1055
4730.5,11986,47801,454,1249
4732.5,11007,47216,242,1126
4734.5,10512,46661,160,1067
4736.5,10790,46766,402,1269
4738.5,11526,47317,506,1486
4740.5,12079,47922,200,1437
4742.5,12123,48404,-198,1185
4744.5,12118,48548,-307,1050
4746.5,12551,48255,-143,1121
4748.5,12843,47785,37,1114
4750.5,12183,47483,116,925
4752.5,11029,47367,132,828
4754.5,10374,47151,52,900
4756.5,10294,46781,-144,919
4758.5,10474,46717,-262,903
4760.5,11061,47221,-111,971
4762.5,12127,47845,156,941
4764.5,13306,48277,235,827
4766.5,14117,48741,48,1048
4768.5,13953,48936,-193,1556
4770.5,12560,48112,-215,1753
4772.5,10924,46725,-53,1475
4774.5,10345,46086,-131,1037
4776.5,10689,46215,-569,602
4778.5,11040,46212,-759,389
4780.5,11384,46420,-325,697
4782.5,12162,47769,152,1222
4784.5,13033,49499,168,1387
4786.5,13272,49927,51,1251
4788.5,12722,48933,44,1137
4790.5,11846,47815,-69,1085
4792.5,11274,47401,-106,1269
4794.5,11216,47652,295,1800
4796.5,11144,48134,686,2058
4798.5,10623,48143,466,1561
4800.5,10273,47526,3,967
4802.5,10947,47324,-94,989
4804.5,12208,48165,-4,1277
4806.5,12874,48907,-102,1308
4808.5,12767,48552,-202,1256
4810.5,12555,47893,12,1378
4812.5,12175,47703,362,1491
4814.5,11079,47403,414,1395
4816.5,9923,46835,199,1253
4818.5,10155,46974,257,1367
4820.5,11737,47959,686,1675
4822.5,13002,48627,798,1689
4824.5,13129,48475,350,1275
4826.5,13038,48261,128,1083
4828.5,13258,48452,487,1507
4830.5,12770,48485,603,1878
4832.5,11146,48011,123,1670
4834.53,10023,47813,-9,1546
4836.55,10677,48482,608,2008
4838.58,11919,49105,887,2201
4840.6,12429,48873,187,1481
4842.6,13027,48781,-474,815
4844.6,14337,49584,-299,1034
4846.6,14720,49765,-88,1275
4848.6,13011,48075,-622,691
4850.6,10807,46031,-1290,17
4852.6,9933,45476,-1363,52
4854.6,10000,45912,-1169,330
4856.6,9990,46134,-1233,294
4858.6,10142,46263,-1437,196
4860.6,11064,46767,-1437,314
4862.6,12388,47365,-1141,541
4864.6,13149,47784,-759,768
4866.6,12989,48237,-636,907
4868.6,12438,48642,-762,901
4870.6,11975,48360,-736,916
4872.6,11394,47292,-574,990
4874.6,10579,46416,-701,895
4876.6,10137,46479,-949,759
4878.6,10483,46908,-818,942
4880.6,11132,46943,-573,1201
4882.6,11533,46813,-694,1098
4884.6,11709,46906,-886,881
4886.6,11815,47025,-793,916
4888.6,11949,47135,-639,1063
4890.6,12205,47479,-482,1251
4892.6,12189,47765,-236,1493
4894.6,11287,47480,-321,1371
4896.6,9971,46782,-839,810
4898.6,9526,46268,-1026,551
4900.6,10200,46336,-731,764
4902.6,11054,46956,-766,715
4904.6,11560,47563,-1114,438
4906.6,11939,47593,-912,741
4908.6,12218,47288,-372,1379
4910.6,12061,47173,-448,1376
4912.6,11357,47071,-947,875
4914.6,10532,46703,-1001,750
4916.6,10255,46521,-684,1004
4918.6,10671,46858,-564,1085
4920.6,11187,47159,-612,979
4922.6,11409,46974,-668,859
4924.6,11601,46700,-932,592
4926.6,11831,46613,-1235,360
4928.6,11742,46404,-1059,638
4930.6,11399,46241,-666,1119
4932.6,11249,46647,-783,1030
4934.6,11228,46936,-1108,674
4936.6,10981,46049,-832,940
4938.6,10676,44983,-296,1530
4940.6,10803,45459,-338,1536
4942.6,11557,46783,-647,1212
4944.6,12764,47354,-459,1331
4946.6,13761,47596,-77,1621
4948.6,13493,48070,-277,1377
4950.6,11770,47521,-933,787
4952.6,9957,45774,-1247,550
4954.6,9284,45013,-981,763
4956.6,9455,46176,-739,894
4958.6,9957,47745,-873,740
4960.6,10986,48669,-827,825
4962.6,12174,49088,-247,1449
4964.6,12543,48885,217,2076
4966.6,12230,48194,217,2383
4968.6,12135,47920,478,2924
4970.6,12233,48255,1297,3916
4972.6,12078,48450,1940,4737
4974.6,11948,48499,2174,5227
4976.6,12194,49099,2591,5970
4978.6,12701,50116,3265,7047
4980.6,13455,50865,3762,7952
4982.6,14405,51469,4050,8470
4984.6,15031,52291,4083,8422
4986.6,14841,52563,3316,7237
4988.6,13802,51322,1564,4830
4990.6,12217,49261,-574,2095
4992.6,10826,47960,-2546,-113
4994.6,10416,47706,-4260,-1769
4996.6,10731,47590,-5696,-3125
4998.6,10789,47133,-6741,-4119
5000.6,10492,46638,-7343,-4616
5002.6,10585,46574,-7582,-4775
5004.6,11131,47251,-7588,-4822
5006.6,11585,48503,-7310,-4583
5008.6,11972,49644,-6533,-3736
5010.6,12379,50036,-5400,-2569
5012.6,12067,49473,-4472,-1770
5014.6,10709,48321,-3952,-1433
5016.6,9535,47576,-3488,-1074
5018.6,9777,47849,-2859,-495
5020.6,10978,48263,-2198,113
5022.6,11832,47809,-1688,554
5024.6,11817,47191,-1538,605
5026.6,11418,47440,-1777,261
5028.6,11208,47851,-1919,59
5030.6,11048,47371,-1513,429
5032.7,10540,46562,-896,993
5034.7,10081,46316,-716,1153
5036.7,10337,46371,-995,917
5038.7,10865,46499,-1196,735
5040.7,10832,47080,-1002,889
5042.7,10569,47689,-651,1218
5044.7,10752,47394,-530,1350
5046.7,11124,46657,-632,1229
5048.7,11287,46573,-675,1169
5050.7,11274,46762,-598,1303
5052.7,10788,46351,-539,1448
5054.7,9682,45793,-476,1544
5056.7,8975,45648,-315,1706
5058.7,9541,45412,-191,1855
5060.7,10650,45103,-301,1761
5062.7,11246,45642,-523,1494
5064.7,11304,46718,-548,1419
5066.7,11103,46957,-420,1588
5068.7,10796,46544,-490,1622
5070.7,10817,46838,-694,1485
5072.7,11199,47628,-584,1613
5074.7,11167,47633,-219,1976
5076.7,10517,47070,-55,2080
5078.7,10104,47087,-37,1983
5080.7,10379,47580,72,2033
5082.7,10968,47715,28,2024
5084.7,11646,47547,-151,1886
5086.7,12166,47552,51,2102
5088.7,11835,47659,411,2492
5090.7,10634,47590,197,2319
5092.7,9690,47286,-206,1936
5094.7,9614,46803,31,2198
5096.7,9762,46414,493,2701
5098.7,9860,46542,445,2671
5100.7,10585,47195,228,2433
5102.7,11809,47780,221,2370
5104.7,12210,47629,113,2187
5106.7,11477,46739,6,2049
5108.7,10909,46021,340,2453
5110.7,11069,46298,705,2919
5112.7,10979,46998,522,2758
5114.7,10251,46957,252,2450
5116.7,9786,46384,504,2676
5118.7,9970,46397,960,3118
5120.7,10272,47018,1166,3294
5122.7,10596,47405,1248,3363
5124.7,11183,47404,1347,3484
5126.7,11606,47330,1366,3531
5128.7,11405,47176,1415,3593
5130.7,10950,46975,1641,3833
5132.7,10630,46924,1832,4037
5134.7,10223,46964,1812,4012
5136.7,9788,47116,1856,4039
5138.7,9864,47605,2157,4342
5140.7,10342,48058,2413,4628
5142.7,10604,47861,2382,4633
5144.7,10790,47461,2291,4564
5146.7,11289,47690,2365,4651
5148.7,11435,48076,2518,4836
5150.7,10619,47647,2647,5025
5152.7,9754,46858,2742,5183
5154.7,9786,46843,2838,5314
5156.7,10225,47453,3080,5577
5158.7,10516,47812,3453,5979
5160.7,10941,47966,3592,6147
5162.7,11474,48366,3416,6002
5164.7,11733,48660,3359,5997
5166.7,11880,48485,3481,6172
5168.7,11970,48312,3365,6050
5170.7,11470,48354,3065,5705
5172.7,10438,48006,2963,5598
5174.7,9759,47301,2989,5661
5176.7,9884,47240,2995,5683
5178.7,10515,47970,3107,5785
5180.7,11180,48403,3217,5886
5182.7,11511,48191,3174,5833
5184.7,11466,48198,3209,5866
5186.7,11267,48573,3193,5872
5188.7,10878,48326,2691,5369
5190.7,10155,47295,2222,4858
5192.7,9418,46601,2618,5244
5194.7,9138,46747,3280,5953
5196.7,9382,47092,3194,5896
5198.7,9958,47297,2741,5445
5200.7,10622,47577,2614,5353
5202.7,11104,47786,2486,5278
5204.7,11211,47748,2105,4905
5206.7,10777,47753,1888,4674
5208.7,9879,47763,1822,4616
5210.7,9181,47370,1476,4292
5212.7,9070,46871,1059,3886
5214.7,8820,46839,1067,3896
5216.7,8042,46954,1323,4144
5218.7,7901,46866,1353,4158
5220.7,9168,47163,1230,4018
5222.7,10583,48001,1297,4069
5224.7,10759,48335,1419,4177
5226.7,10052,47696,1254,3996
5228.7,9408,47050,1016,3717
5230.7,8948,47129,1100,3752
5232.8,8422,47425,1257,3897
5234.8,7918,47292,1122,3785
5236.8,7687,46918,979,3661
5238.8,7818,46843,1049,3741
5240.8,8197,47062,954,3671
5242.8,8599,47021,608,3359
5244.8,8902,46597,444,3219
5246.8,9186,46455,488,3272
5248.8,9436,46878,424,3204
5250.8,9297,47115,340,3107
5252.8,8555,46702,449,3192
5254.8,7678,46257,603,3315
5256.8,7293,46254,650,3334
5258.8,7409,46401,676,3343
5260.8,7759,46649,750,3410
5262.8,8351,47276,833,3490
5264.8,9070,47833,802,3463
5266.8,9449,47583,578,3240
5268.8,9238,46843,338,2996
5270.8,8594,46460,326,2990
5272.8,7793,46489,496,3164
5274.8,7187,46576,706,3348
5276.8,6944,46757,881,3493
5278.8,6784,46935,819,3433
5280.8,6726,46782,491,3122
5282.8,7431,46641,324,2968
5284.8,8842,47044,484,3164
5286.8,9752,47475,590,3331
5288.8,9535,47201,570,3357
5290.8,8711,46576,679,3488
5292.8,7727,46193,677,3496
5294.8,7001,46030,325,3136
5296.8,7259,46109,132,2925
5298.8,8133,46432,395,3196
5300.8,8308,46524,517,3357
5302.8,8051,46427,210,3074
5304.8,8724,46866,95,2940
5306.8,9656,47519,456,3281
5308.8,9021,47182,609,3474
5310.8,7263,45943,75,3022
5312.8,6304,45114,-513,2475
5314.8,6508,45274,-358,2614
5316.8,7001,45939,239,3195
5318.8,7506,46505,459,3396
5320.8,8184,46749,316,3203
5322.8,8837,46924,269,3131
5324.8,9037,47232,155,3065
5326.8,8632,47266,-194,2773
5328.8,8061,46801,-241,2733
5330.8,7830,46470,258,3224
5332.8,7644,46656,748,3716
5334.8,7079,46875,877,3848
5336.8,6676,46846,805,3785
5338.8,7021,46854,676,3649
5340.8,7762,47095,668,3600
5342.8,8588,47663,910,3799
5344.8,9525,48481,1019,3909
5346.8,9951,48830,682,3596
5348.8,9261,48152,355,3287
5350.8,8080,47110,478,3428
5352.8,7295,46642,790,3748
5354.8,7049,46776,939,3888
5356.8,7348,47171,932,3869
5358.8,8005,47626,894,3821
5360.8,8311,47873,977,3882
5362.8,8296,47993,1226,4106
5364.8,8849,48440,1361,4221
5366.8,9534,48850,1135,3984
5368.8,8908,48297,742,3601
5370.8,7555,47216,537,3428
5372.8,7443,47011,613,3531
5374.8,8256,47506,736,3664
5376.8,8080,47208,595,3526
5378.8,7164,46150,262,3190
5380.8,7123,45816,149,3076
5382.8,7522,46325,295,3236
5384.8,7063,46467,321,3272
5386.8,6571,46256,175,3134
5388.8,7378,46726,129,3125
5390.8,8696,47655,163,3213
5392.8,9246,47953,83,3152
5394.8,9252,47648,-78,2981
5396.8,9288,47541,-194,2873
5398.8,9286,47678,-183,2906
5400.8,9020,47441,-64,3030
5402.8,8085,46518,-96,2989
5404.8,6333,45281,-401,2657
5406.8,4943,44550,-591,2423
5408.8,5326,44948,-342,2651
5410.8,7163,46274,83,3110
5412.8,9083,47597,310,3388
5414.8,10211,47995,228,3332
5416.8,10137,47393,-108,2989
5418.8,8794,46485,-429,2626
5420.8,6748,45531,-515,2477
5422.8,4912,44275,-603,2354
5424.8,4295,43452,-827,2137
5426.8,5378,44210,-721,2256
5428.8,6934,45654,-135,2848
5430.8,7184,45933,226,3243
5432.8,6601,45467,-101,2975
5434.8,6980,45696,-655,2455
5436.8,8172,46137,-828,2272
5438.8,8654,46039,-652,2438
5440.8,8055,46271,-615,2485
5442.9,6728,46773,-879,2206
5444.9,4955,45908,-920,2135
5446.9,3886,44138,-374,2681
5448.9,4643,43946,144,3209
5450.9,6362,45374,5,3039
5452.9,7572,46131,-347,2671
5454.9,8284,45737,-299,2786
5456.9,8700,45470,-146,3028
5458.9,8166,45437,-416,2791
5460.9,6913,45109,-924,2267
5462.9,6145,44956,-1076,2078
5464.9,5895,45208,-706,2411
5466.9,5501,45138,-374,2754
5468.9,5522,44794,-556,2616
5470.9,6605,45096,-772,2405
5472.9,7884,45950,-418,2736
5474.9,8528,46425,-16,3147
5476.9,8911,46391,-284,2884
5478.9,9151,46282,-747,2371
5480.9,8701,46121,-653,2414
5482.9,7685,45830,-255,2800
5484.9,6751,45542,-172,2888
5486.9,6155,45283,-459,2625
5488.9,6097,45083,-817,2314
5490.9,6714,45047,-1010,2161
5492.9,7392,44987,-1001,2195
5494.9,7461,44710,-928,2291
5496.9,7186,44544,-826,2372
5498.9,7032,44823,-619,2497
5500.9,6929,45277,-403,2636
5502.9,6761,45553,-230,2783
5504.9,6678,45698,110,3129
5506.9,6906,45814,608,3690
5508.9,7592,45876,981,4226
5510.9,8440,46028,1270,4737
5512.9,8919,46545,1688,5344
5514.9,9213,47405,2138,5930
5516.9,9844,48221,2575,6543
5518.9,10408,48678,3204,7486
5520.9,10367,48976,3923,8613
5522.9,10327,49535,4408,9450
5524.9,10639,50211,4640,9892
5526.9,10336,50346,4534,9832
5528.9,9311,49879,3616,8753
5530.9,9167,49564,1764,6567
5532.9,10227,49694,-428,4045
5534.9,10569,49597,-2365,1936
5536.9,9352,48841,-3905,369
5538.9,8062,47899,-5147,-807
5540.9,7625,47243,-6206,-1748
5542.9,7234,46775,-7029,-2493
5544.9,6525,46453,-7373,-2881
5546.9,6239,46513,-7197,-2822
5548.9,6566,46823,-6783,-2492
5550.9,6991,46995,-6227,-1984
5552.9,7510,47274,-5326,-1179
5554.9,8257,48084,-4158,-173
5556.9,8610,48733,-3178,662
5558.9,8103,48157,-2599,1152
5560.9,7314,46758,-2245,1422
5562.9,6879,45772,-1994,1569
5564.9,6676,45415,-1863,1613
5566.9,6548,45341,-1687,1734
5568.9,6661,45675,-1262,2103
5570.9,7014,46186,-812,2507
5572.9,7533,46142,-763,2550
5574.9,8232,45822,-1094,2230
5576.9,8672,46149,-1361,1954
5578.9,8237,46769,-1263,2029
5580.9,7262,46559,-876,2406
5582.9,6619,45522,-555,2748
5584.9,6272,44497,-604,2732
5586.9,5733,43971,-802,2537
5588.9,5452,44164,-669,2648
5590.9,6116,45014,-363,2944
5592.9,7117,45671,-377,2931
5594.9,7302,45371,-460,2841
5596.9,6793,44752,-142,3165
5598.9,6623,44962,212,3533
5600.9,6943,45725,167,3470
5602.9,6936,45727,42,3320
5604.9,6393,44800,35,3338
5606.9,6094,44252,-87,3251
5608.9,6552,44854,-166,3177
5610.9,7371,45798,38,3390
5612.9,7952,46019,130,3496
5614.9,8155,45562,-155,3197
5616.9,8086,45148,-392,2954
5618.9,7737,45068,-292,3078
5620.9,7174,45146,-42,3316
5622.9,6810,45352,192,3492
5624.9,6872,45588,305,3589
5626.9,6863,45375,207,3538
5628.9,6498,44829,73,3435
5630.9,6609,45082,93,3444
5632.9,7657,46374,184,3525
5634.9,8403,47197,269,3626
5636.9,7858,46669,335,3720
5638.9,7036,45725,280,3675
5640.9,6988,45141,193,3570
5642.9,7150,44888,337,3716
5644.9,7137,45398,646,4076
5646.9,7652,46732,848,4322
5648.9,8494,47426,927,4396
5650.9,8352,46636,977,4437
5652.9,7342,45757,998,4478
5654.93,7160,46026,1039,4527
5656.95,8189,46608,1095,4557
5658.98,8842,46428,1052,4491
5661.0,8195,45874,1005,4447
5663.0,7163,45717,1116,4552
5665.0,6715,45895,1246,4642
5667.0,6815,46049,1312,4673
5669.0,7277,46230,1544,4922
5671.0,7950,46560,1915,5341
5673.0,8238,46777,2049,5502
5675.0,7925,46630,1918,5387
5677.0,7825,46400,1852,5359
5679.0,8325,46502,1913,5449
5681.0,8510,46748,1926,5449
5683.0,7966,46713,1934,5436
5685.0,7807,46642,2089,5597
5687.0,8629,46967,2302,5826
5689.0,9279,47229,2394,5928
5691.0,8963,46905,2419,5975
5693.0,8660,46703,2553,6161
5695.0,9124,47270,2756,6420
5697.0,9470,47755,2871,6542
5699.0,9036,47461,2925,6554
5701.0,8613,47115,3011,6614
5703.0,8686,47129,3049,6674
5705.0,8595,47071,3002,6635
5707.0,8353,47353,3041,6646
5709.0,8960,48491,3273,6882
5711.0,10242,49238,3596,7259
5713.0,10663,48366,3850,7548
5715.0,9745,46919,3886,7577
5717.0,8780,46432,3674,7370
5719.0,8890,46885,3485,7220
5721.0,9691,47532,3567,7355
5723.0,10018,47797,3716,7554
5725.0,9480,47431,3670,7533
5727.0,8989,47103,3632,7471
5729.0,9290,47593,3800,7600
5731.0,9702,48189,3850,7661
5733.0,9610,48039,3536,7408
5735.0,9794,48060,3195,7096
5737.0,10549,48904,3063,6916
5739.0,10624,49184,2814,6606
5741.0,9719,48265,2350,6131
5743.0,9227,47786,2204,5997
5745.0,9323,48278,2581,6378
5747.0,8635,47932,2832,6664
5749.0,7210,46246,2468,6360
5751.0,6584,45106,1928,5826
5753.0,7195,45502,1837,5692
5755.0,8394,46642,2204,6051
5757.0,9917,48060,2668,6537
5759.0,11260,49488,2907,6762
5761.0,11236,49791,2702,6529
5763.0,9814,48660,2167,6005
5765.0,8704,47647,1771,5640
5767.0,8910,47786,1731,5629
5769.0,9465,48319,1826,5762
5771.0,9504,48582,1914,5875
5773.0,9590,48793,1971,5919
5775.0,10038,48833,1787,5723
5777.0,9988,48338,1377,5330
5779.0,9017,47628,1141,5118
5781.0,7957,47189,1157,5143
5783.0,7595,47074,1156,5145
5785.0,7859,47280,1216,5201
5787.0,8220,47631,1427,5401
5789.0,8229,47592,1416,5363
5791.0,8117,47259,1150,5040
5793.0,8689,47556,1183,5008
5795.0,9921,48595,1531,5335
5797.0,10642,49258,1622,5445
5799.0,10314,48977,1446,5280
5801.0,9703,48471,1446,5268
5803.0,9427,48391,1592,5393
5805.0,9340,48546,1589,5381
5807.0,9320,48629,1478,5286
5809.0,9414,48701,1445,5276
5811.0,9528,48865,1489,5326
5813.0,9602,49037,1475,5315
5815.0,9631,48998,1351,5221
5817.0,9442,48558,1311,5217
5819.0,9075,47923,1498,5415
5821.0,9008,47690,1643,5556
5823.0,9332,48010,1535,5440
5825.0,9323,48208,1434,5324
5827.0,8597,47821,1459,5330
5829.0,8030,47361,1337,5207
5831.0,8589,47536,1161,5053
5833.0,9787,48349,1318,5226
5835.0,10356,49181,1624,5510
5837.0,10043,49331,1660,5520
5839.0,9600,48659,1576,5465
5841.0,9406,47875,1611,5572
5843.0,9328,47744,1598,5594
5845.0,9483,48195,1509,5489
5847.0,9964,48748,1600,5572
5849.0,10257,49197,1844,5817
5851.0,9878,49368,1970,5924
5853.1,9167,49080,1889,5820
5855.1,8799,48640,1674,5614
5857.1,8906,48467,1531,5490
5859.1,9145,48395,1680,5633
5861.1,9362,48276,1924,5866
5863.1,9684,48433,1859,5809
5865.1,10015,48720,1651,5602
5867.1,10064,48634,1687,5614
5869.1,9882,48786,1705,5630
5871.1,9711,49933,1428,5388
5873.1,9442,50750,1419,5393
5875.1,8964,49620,2067,6020
5877.1,8672,47799,2627,6604
5879.1,8884,47506,2488,6536
5881.1,9223,48296,2255,6311
5883.1,9175,48458,2476,6464
5885.1,8809,48075,2659,6603
5887.1,8531,48116,2478,6427
5889.1,8507,48437,2439,6373
5891.1,8691,48526,2665,6564
5893.1,9056,48561,2646,6525
5895.1,9424,48735,2427,6295
5897.1,9443,48883,2505,6372
5899.1,9171,49049,2774,6664
5901.1,9134,49389,2920,6820
5903.1,9401,49637,3088,6962
5905.1,9440,49499,3300,7144
5907.1,9249,49230,3308,7127
5909.1,9432,49223,3309,7079
5911.1,9950,49404,3556,7283
5913.1,10042,49435,3685,7419
5915.1,9563,49214,3444,7216
5917.1,9237,48995,3215,7034
5919.1,9547,49110,3204,7086
5921.1,10171,49482,3183,7125
5923.1,10407,49601,3119,7081
5925.1,9881,49260,3131,7089
5927.1,9069,48873,3162,7117
5929.1,8878,48771,3175,7118
5931.1,9349,48809,3177,7104
5933.1,9592,48840,3110,7027
5935.1,9404,48902,3054,6947
5937.1,9567,48976,3104,6951
5939.1,10118,49052,3101,6907
5941.1,10075,49138,3004,6796
5943.1,9366,49049,3013,6828
5945.1,9148,48793,3055,6930
5947.1,9827,48823,2951,6878
5949.1,10389,49157,2891,6813
5951.1,10044,49081,2959,6857
5953.1,9290,48532,2944,6870
5955.1,8956,48445,3015,7008
5957.1,9075,49024,3432,7447
5959.1,9192,49296,3696,7663
5961.1,9298,48890,3327,7242
5963.1,9692,48550,2843,6772
5965.1,10077,48621,2857,6832
5967.1,9863,48592,3143,7100
5969.1,9362,48263,3331,7203
5971.1,9359,48086,3464,7282
5973.1,9555,48184,3501,7336
5975.1,9055,48109,3256,7121
5977.1,8184,47724,2940,6806
5979.1,7941,47387,3006,6864
5981.1,8203,47232,3456,7312
5983.1,8335,47208,3849,7699
5985.1,8517,47528,3926,7765
5987.1,8877,48069,3844,7664
5989.1,8911,48147,3813,7600
5991.1,8758,47764,3848,7603
5993.1,9032,47725,3882,7614
5995.1,9284,48071,3886,7586
5997.1,8857,48127,3872,7531
5999.1,8340,47925,3863,7506
6001.1,8287,47846,3860,7495
6003.1,8290,47774,3888,7461
6005.1,8404,47828,4037,7526
6007.1,9064,48307,4254,7743
6009.1,9543,48588,4304,7874
6011.1,9104,48115,4201,7813
6013.1,8651,47742,4226,7821
6015.1,8983,48124,4349,7929
6017.1,9303,48387,4311,7879
6019.1,9007,47987,4247,7773
6021.1,8738,47730,4384,7871
6023.1,8946,48041,4489,7975
6025.1,9322,48323,4420,7920
6027.1,9570,48262,4459,8002
6029.1,9548,48130,4624,8264
6031.1,9307,48127,4635,8357
6033.1,9262,48301,4585,8320
6035.1,9468,48484,4669,8404
6037.1,9328,48291,4695,8440
6039.1,8754,47799,4590,8300
6041.1,8436,47632,4613,8256
6043.1,8587,47905,4747,8379
6045.13,8804,48081,4788,8458
6047.15,8977,48055,4852,8537
6049.18,9072,48202,5059,8714
6051.2,8731,48389,5209,8797
6053.2,8072,48144,5233,8740
6055.2,7846,47736,5394,8863
6057.2,8297,47924,5875,9402
6059.2,8932,48686,6563,10238
6061.2,9465,49262,7182,11058
6063.2,10043,49475,7575,11637
6065.2,10755,49842,7871,12040
6067.2,11461,50391,8186,12452
6069.2,11920,50615,8443,12924
6071.2,12124,50695,8807,13591
6073.2,12535,51377,9627,14653
6075.2,13388,52506,10587,15759
6077.2,14080,53067,10849,16076
6079.2,14099,52809,10142,15230
6081.2,13748,52429,8795,13529
6083.2,13133,52104,7013,11395
6085.2,11996,51412,5013,9266
6087.2,11141,50695,3283,7610
6089.2,11643,50665,1997,6486
6091.2,12482,50808,815,5486
6093.2,11913,50212,-370,4434
6095.2,10574,49410,-1126,3676
6097.2,10044,49266,-1166,3518
6099.2,9944,49316,-760,3817
6101.2,9447,49167,-218,4353
6103.2,9137,49437,509,5115
6105.2,9137,49919,1422,5984
6107.2,8681,49666,2234,6647
6109.2,8437,49292,2868,7110
6111.2,9562,49948,3586,7693
6113.2,10963,50751,4372,8353
6115.2,11022,50424,4901,8728
6117.2,10361,49689,5162,8837
6119.2,10114,49479,5428,9017
6121.2,9892,49228,5743,9330
6123.2,9317,48613,6003,9617
6125.2,9010,48329,6236,9833
6127.2,9167,48439,6427,9956
6129.2,9263,48316,6463,9919
6131.2,9230,48046,6421,9841
6133.2,9371,48035,6472,9887
6135.2,9556,48007,6547,9942
6137.2,9546,47797,6508,9855
6139.2,9469,47936,6505,9821
6141.2,9406,48478,6710,10055
6143.2,9245,48637,6967,10383
6145.2,9142,48201,7088,10552
6147.2,9245,47777,7143,10586
6149.2,9157,47505,7174,10528
6151.2,8764,47187,7132,10382
6153.2,8921,47283,7203,10368
6155.2,9929,48044,7494,10587
6157.2,10547,48637,7549,10616
6159.2,9965,48609,7028,10204
6161.2,9143,48583,6517,9914
6163.2,8939,48577,6715,10290
6165.2,8894,47896,7395,11013
6167.2,8691,47064,7962,11545
6169.2,8753,47166,8277,11810
6171.2,9058,47615,8367,11838
6173.2,9198,47391,8196,11604
6175.2,9389,47357,8009,11393
6177.2,9882,48509,8081,11485
6179.2,10044,49601,8228,11646
6181.2,9336,49158,8222,11594
6183.2,8416,47949,8214,11506
6185.2,8219,47338,8285,11545
6187.2,8675,47206,8335,11622
6189.2,9212,47088,8508,11821
6191.2,9723,47290,8869,12186
6193.2,10188,47805,9024,12328
6195.2,10182,47880,8851,12123
6197.2,9629,47334,8843,12092
6199.2,9238,46943,9160,12423
6201.2,9468,47211,9373,12636
6203.2,9817,47689,9368,12577
6205.2,9686,47707,9394,12581
6207.2,9278,47331,9456,12707
6209.2,9224,47232,9485,12800
6211.2,9633,47585,9606,12907
6213.2,10015,47805,9795,13057
6215.2,10141,47713,9894,13182
6217.2,10318,47763,9942,13321
6219.2,10473,47765,9974,13431
6221.2,10023,47130,9917,13368
6223.2,9170,46519,9893,13287
6225.2,8947,47064,10082,13466
6227.2,9602,48205,10396,13806
6229.2,10352,48566,10704,14086
6231.2,10765,48240,11011,14325
6233.2,11040,48134,11223,14533
6235.2,11259,48214,11250,14622
6237.2,11273,48034,11261,14664
6239.2,10981,47780,11405,14785
6241.2,10486,47793,11560,14915
6243.2,10186,47977,11625,14962
6245.23,10313,48049,11686,14982
6247.25,10544,47952,11816,15047
6249.28,10707,47919,12017,15193
6251.3,11033,48057,12260,15433
6253.3,11274,48113,12389,15641
6255.3,11000,48162,12239,15611
6257.3,10794,48739,12001,15436
6259.3,11294,49515,12087,15488
6261.3,11745,49322,12510,15842
6263.3,11392,48210,12832,16113
6265.3,10954,47516,12830,16056
6267.3,11105,47584,12725,15900
6269.3,11388,47666,12727,15918
6271.3,11606,47755,12820,16079
6273.3,12126,48206,12913,16199
6275.3,12545,48423,12915,16172
6277.3,12185,47940,12818,16055
6279.3,11484,47470,12769,16009
6281.3,11171,47502,12810,16024
6283.3,11105,47580,12754,15898
6285.3,11029,47549,12572,15641
6287.3,11063,47651,12475,15503
6289.3,11072,47628,12468,15498
6291.3,10940,47356,12367,15419
6293.3,11071,47395,12231,15291
6295.3,11503,47776,12236,15290
6297.3,11567,47785,12316,15364
6299.3,11114,47384,12304,15333
6301.3,10621,47082,12186,15183
6303.3,10061,46787,12034,15023
6305.3,9284,46379,11902,14899
6307.3,8938,46222,11727,14697
6309.3,9402,46144,11361,14271
6311.3,9854,45634,10901,13786
6313.3,9714,45263,10756,13662
6315.3,9699,45922,11081,14007
6317.3,10480,47147,11541,14462
6319.3,11444,47849,11792,14714
6321.3,11459,47687,11750,14703
6323.3,10277,46889,11481,14452
6325.3,8952,45981,11247,14193
6327.3,8687,45723,11311,14228
6329.3,9360,46223,11461,14391
6331.3,10039,46804,11332,14276
6333.3,10549,47112,11100,14007
6335.3,11023,47185,11055,13898
6337.3,10896,46888,10983,13770
6339.3,10181,46538,10759,13515
6341.3,10073,46798,10803,13596
6343.3,10667,47194,11239,14130
6345.3,10582,46781,11541,14493
6347.3,9813,46209,11443,14368
6349.3,9841,46562,11266,14146
6351.3,10686,47068,11235,14095
6353.3,11126,46637,11267,14096
6355.3,11144,46004,11313,14102
6357.3,11297,46016,11328,14109
6359.3,11070,45932,11172,13943
6361.3,10030,45142,10832,13532
6363.3,8866,44310,10526,13145
6365.3,8168,43965,10510,13134
6367.3,7928,44024,10847,13555
6369.3,8420,44686,11338,14113
6371.3,9866,45997,11724,14514
6373.3,11498,47143,11916,14716
6375.3,12157,47379,11912,14725
6377.3,11584,46806,11678,14460
6379.3,10494,45803,11337,14030
6381.3,9655,44776,11183,13776
6383.3,9265,44378,11314,13846
6385.3,9186,44804,11503,14031
6387.3,9268,45261,11528,14079
6389.3,9319,45135,11442,13971
6391.3,9403,45005,11419,13863
6393.3,10055,45516,11465,13831
6395.3,11248,46123,11431,13785
6397.3,11784,45979,11341,13721
6399.3,10945,45229,11413,13815
6401.3,9667,44549,11637,14062
6403.3,9015,44225,11713,14157
6405.3,8978,44328,11558,13987
6407.3,9285,44813,11465,13851
6409.3,9802,45201,11627,13979
6411.3,10234,45183,11870,14209
6413.3,10628,45254,11950,14302
6415.3,11278,45668,11852,14231
6417.3,11603,45665,11693,14088
6419.3,10779,44847,11578,13960
6421.3,9342,44018,11587,13932
6423.3,8471,43793,11718,14017
6425.3,8371,43885,11840,14096
6427.3,8711,44124,11849,14072
6429.3,9455,44662,11819,14006
6431.3,10436,45254,11880,14009
6433.3,11237,45540,12028,14105
6435.33,11636,45501,12147,14256
6437.35,11526,45192,12157,14391
6439.38,10990,44799,12120,14464
6441.4,10505,44663,12174,14517
6443.4,10196,44538,12276,14540
6445.4,9619,43984,12226,14410
6447.4,9045,43726,12112,14227
6449.4,9426,44701,12290,14331
6451.4,10558,46041,12671,14662
6453.4,11263,46254,12745,14739
6455.4,11307,45523,12504,14530
6457.4,11202,44816,12437,14466
6459.4,10953,44325,12598,14593
6461.4,10619,44164,12674,14643
6463.4,10640,44578,12711,14671
6465.4,10778,44930,12839,14762
6467.4,10563,44559,12843,14699
6469.4,10468,44077,12669,14504
6471.4,10702,44004,12583,14461
6473.4,10360,43785,12611,14514
6475.4,9526,43439,12652,14535
6477.4,9649,43809,12828,14721
6479.4,10747,44650,13042,14996
6481.4,11357,45023,12956,14936
6483.4,11414,45089,12731,14659
6485.4,11824,45263,12748,14593
6487.4,12051,45031,12779,14566
6489.4,11311,44340,12520,14303
6491.4,10514,44094,12278,14119
6493.4,10620,44438,12286,14199
6495.4,11082,44640,12309,14250
6497.4,11203,44486,12308,14254
6499.4,11068,44149,12435,14394
6501.4,10947,43731,12505,14440
6503.4,11163,43679,12364,14215
6505.4,11811,44156,12276,14047
6507.4,12299,44451,12412,14160
6509.4,12296,44411,12611,14368
6511.4,12227,44719,12731,14493
6513.4,11895,44932,12744,14495
6515.4,10632,43952,12698,14402
6517.4,9262,42553,12720,14344
6519.4,9283,42357,12772,14323
6521.4,10338,43008,12670,14196
6523.4,11030,43174,12506,14077
6525.4,11187,42965,12517,14171
6527.4,11264,43045,12600,14290
6529.4,11004,43017,12564,14208
6531.4,10175,42380,12521,14119
6533.4,9292,41648,12585,14187
6535.4,8917,41487,12647,14235
6537.4,9135,41765,12667,14183
6539.4,9714,42009,12693,14155
6541.4,10358,42124,12649,14111
6543.4,10957,42275,12501,13947
6545.4,11439,42397,12417,13804
6547.4,11409,42277,12488,13834
6549.4,10691,42047,12581,13915
6551.4,9887,42032,12625,13923
6553.4,9534,42122,12701,13938
6555.4,9424,41993,12823,14028
6557.4,9430,41799,12894,14108
6559.4,9762,41835,12876,14122
6561.4,10232,41946,12830,14123
6563.4,10664,42082,12868,14195
6565.4,11376,42537,13064,14371
6567.4,11950,42904,13263,14517
6569.4,11228,42270,13183,14451
6571.4,9552,41030,12952,14323
6573.4,8587,40591,13001,14451
6575.4,8620,41088,13272,14688
6577.4,8860,41535,13314,14635
6579.4,9572,41833,13183,14438
6581.4,11040,42422,13253,14486
6583.4,12115,42847,13396,14620
6585.4,12118,42578,13329,14548
6587.4,11855,42018,13220,14427
6589.4,11490,41484,13153,14342
6591.4,10291,40681,12918,14109
6593.4,8836,39816,12726,13944
6595.4,8548,39715,12973,14187
6597.4,9309,40459,13373,14531
6599.4,9914,41113,13500,14604
6601.4,10153,41089,13565,14677
6603.4,10609,40944,13757,14921
6605.4,11267,41467,13829,15055
6607.4,11654,42416,13851,15175
6609.4,11664,42796,14170,15635
6611.4,11496,42232,14660,16253
6613.4,11299,41324,15054,16722
6615.4,11273,40826,15433,17161
6617.4,11713,41148,15810,17651
6619.4,12784,42308,16160,18191
6621.4,14381,43805,16760,19031
6623.4,16165,45061,17518,19995
6625.4,17685,46059,17728,20292
6627.4,18524,46760,17248,19766
6629.4,18329,46444,16644,18990
6631.4,16956,44822,15924,17950
6633.5,14865,42986,14644,16293
6635.5,13030,42067,13087,14507
6637.5,12121,41967,11913,13299
6639.5,12107,42194,11089,12473
6641.5,12639,42664,10182,11561
6643.5,13195,43099,9172,10680
6645.5,13097,42898,8351,10119
6647.5,12171,42059,7881,9821
6649.5,11027,41263,7715,9629
6651.5,10119,40891,7762,9594
6653.5,9334,40723,8031,9875
6655.5,8825,40625,8598,10493
6657.5,9026,40755,9412,11253
6659.5,9661,41017,10260,11925
6661.5,10155,41135,10958,12438
6663.5,10747,41235,11519,12888
6665.5,11613,41398,12016,13337
6667.5,11781,41031,12336,13640
6669.5,10754,39972,12409,13698
6671.5,9822,39358,12568,13814
6673.5,9914,39840,13070,14239
6675.5,10108,40314,13540,14617
6677.5,9842,39989,13642,14624
6679.5,10099,39773,13692,14608
6681.5,11176,40299,13917,14836
6683.5,11888,40706,14009,14985
6685.5,11611,40317,13876,14904
6687.5,10918,39637,13818,14868
6689.5,10339,39336,13884,14948
6691.5,9970,39435,13908,14988
6693.5,9635,39390,13884,14946
6695.5,8983,38741,13806,14795
6697.5,8315,38011,13667,14582
6699.5,8680,38229,13633,14537
6701.5,10208,39268,13763,14673
6703.5,11633,39962,13869,14714
6705.5,12091,39917,13872,14615
6707.5,11910,39657,13830,14556
6709.5,11445,39291,13768,14561
6711.5,10656,38617,13766,14593
6713.5,9775,38054,13891,14677
6715.5,9241,38093,14043,14788
6717.5,9141,38400,14183,14942
6719.5,9428,38598,14396,15193
6721.5,10137,39009,14580,15375
6723.5,10900,39614,14568,15302
6725.5,11158,39710,14489,15155
6727.5,11220,39477,14587,15241
6729.5,11682,39821,14826,15520
6731.5,11737,40236,14897,15623
6733.5,10284,39550,14584,15305
6735.5,8494,38484,14162,14858
6737.5,8483,38422,14188,14855
6739.5,9983,38863,14687,15315
6741.5,11189,38944,15075,15664
6743.5,11785,39236,15084,15667
6745.5,12385,39894,14994,15604
6747.5,12542,39845,14943,15550
6749.5,11591,38923,14842,15379
6751.5,10041,38088,14786,15247
6753.5,8811,37679,14912,15355
6755.5,8311,37592,15109,15564
6757.5,8620,38069,15198,15653
6759.5,9565,38946,15128,15596
6761.5,10735,39553,15005,15511
6763.5,11856,39801,15023,15561
6765.5,12721,40013,15192,15741
6767.5,12879,39977,15279,15826
6769.5,12068,39311,15226,15750
6771.5,10774,38335,15228,15723
6773.5,9843,37798,15337,15832
6775.5,9689,37928,15458,15984
6777.5,9986,38239,15609,16148
6779.5,10190,38402,15791,16301
6781.5,10503,38868,15970,16432
6783.5,11693,39980,16283,16717
6785.5,13379,40874,16696,17139
6787.5,13881,40510,16797,17261
6789.5,12847,39510,16539,17006
6791.5,11997,39346,16498,16965
6793.5,12028,39838,16865,17345
6795.5,11602,39574,17109,17599
6797.5,10517,38701,16969,17473
6799.5,10423,38717,16794,17340
6801.5,11585,39570,16809,17378
6803.5,12438,39794,16883,17396
6805.5,12550,39303,16935,17357
6807.5,12794,39237,17008,17385
6809.5,13125,39596,17107,17472
6811.5,12882,39529,17204,17562
6813.5,12337,39166,17288,17683
6815.5,12117,39172,17356,17825
6817.5,12166,39427,17404,17899
6819.5,12257,39473,17405,17873
6821.5,12456,39406,17354,17821
6823.5,12732,39490,17285,17767
6825.53,12895,39570,17205,17643
6827.55,12983,39427,17119,17477
6829.58,13156,39268,17038,17366
6831.6,13282,39337,16876,17222
6833.6,13183,39461,16619,16973
6835.6,13276,39586,16542,16893
6837.6,14029,40082,16833,17174
6839.6,14641,40668,17154,17449
6841.6,13809,40287,17121,17341
6843.6,12063,39086,16895,17040
6845.6,11273,38626,16808,16879
6847.6,11634,39157,16800,16815
6849.6,11732,39215,16628,16669
6851.6,11491,38581,16327,16452
6853.6,12030,38608,16145,16298
6855.6,12982,39318,16118,16235
6857.6,12945,39326,16006,16126
6859.6,11977,38520,15711,15874
6861.6,11133,37943,15450,15619
6863.6,10599,37754,15364,15507
6865.6,10134,37510,15349,15481
6867.6,10000,37357,15336,15448
6869.6,10336,37470,15327,15393
6871.6,10899,37634,15269,15304
6873.6,11587,37849,15179,15224
6875.6,12152,38107,15108,15184
6877.6,12116,37979,14940,15047
6879.6,11673,37460,14677,14792
6881.6,11384,37168,14593,14681
6883.6,10996,37182,14701,14753
6885.6,10221,37080,14697,14726
6887.6,9815,36978,14626,14618
6889.6,10229,37143,14743,14682
6891.6,10774,37374,14880,14798
6893.6,11228,37676,14780,14721
6895.6,11968,38196,14613,14579
6897.6,12313,38297,14558,14526
6899.6,11479,37499,14513,14479
6901.6,10448,36702,14479,14439
6903.6,10289,36713,14566,14492
6905.6,10334,36954,14692,14566
6907.6,10006,37016,14745,14591
6909.6,10054,37410,14749,14592
6911.6,10796,38013,14732,14540
6913.6,11534,38039,14688,14415
6915.6,11927,37593,14625,14287
6917.6,12072,37298,14532,14205
6919.6,11913,37113,14478,14212
6921.6,11581,36926,14556,14323
6923.6,11268,36993,14654,14395
6925.6,10824,37153,14647,14350
6927.6,10434,37049,14644,14359
6929.6,10627,36998,14660,14434
6931.6,11108,37292,14531,14352
6933.6,11149,37446,14368,14203
6935.6,10965,37129,14398,14248
6937.6,11067,36778,14428,14301
6939.6,11141,36702,14234,14103
6941.6,10819,36600,14052,13897
6943.6,10293,36142,14065,13892
6945.6,9681,35453,14086,13880
6947.6,9228,35143,14103,13840
6949.6,9671,35813,14348,14051
6951.6,11010,37072,14694,14405
6953.6,11990,37687,14751,14473
6955.6,11870,37216,14489,14216
6957.6,11300,36555,14247,13984
6959.6,10954,36436,14221,13954
6961.6,10752,36541,14288,13993
6963.6,10467,36396,14263,13950
6965.6,10035,36068,14167,13844
6967.6,9554,35797,14132,13791
6969.6,9426,35716,14163,13814
6971.6,9942,35923,14193,13862
6973.6,10885,36408,14258,13934
6975.6,11928,37039,14392,14055
6977.6,12723,37607,14510,14158
6979.6,12610,37678,14499,14097
6981.6,11390,36881,14310,13810
6983.6,10027,35701,14071,13508
6985.6,9434,35208,14043,13507
6987.6,9475,35648,14243,13736
6989.6,9945,36251,14369,13822
6991.6,10991,36541,14328,13750
6993.6,12142,36754,14339,13784
6995.6,12626,37059,14405,13853
6997.6,12564,37297,14362,13769
6999.6,12304,37287,14329,13741
7001.6,11485,36890,14437,13912
7003.6,10195,36274,14477,13986
7005.6,9572,36051,14346,13855
7007.6,10035,36450,14302,13828
7009.6,10631,36782,14449,13977
7011.6,10828,36540,14531,14018
7013.6,11118,36264,14424,13892
7015.63,11574,36494,14333,13832
7017.65,11650,36803,14400,13914
7019.68,11321,36672,14464,13960
7021.7,10911,36352,14372,13877
7023.7,10411,36236,14257,13785
7025.7,10087,36328,14241,13757
7027.7,10601,36673,14202,13691
7029.7,11628,37267,14110,13609
7031.7,11913,37510,14138,13682
7033.7,11344,36921,14209,13804
7035.7,11145,36153,14044,13684
7037.7,11679,36065,13734,13407
7039.7,11977,36325,13563,13266
7041.7,11574,36160,13474,13203
7043.7,11010,35730,13319,13043
7045.7,10619,35559,13229,12919
7047.7,10301,35550,13335,12994
7049.7,10257,35585,13560,13189
7051.7,10801,36018,13791,13370
7053.7,11672,36757,13906,13448
7055.7,12235,36997,13838,13378
7057.7,12184,36495,13715,13242
7059.7,11643,35901,13648,13127
7061.7,10780,35530,13567,13013
7063.7,9846,35142,13443,12903
7065.7,9429,34885,13334,12812
7067.7,9839,35073,13244,12717
7069.7,10392,35334,13250,12715
7071.7,10375,35275,13419,12885
7073.7,10232,35254,13511,12969
7075.7,10523,35435,13342,12778
7077.7,10702,35209,13197,12613
7079.7,10324,34431,13296,12702
7081.7,10041,33880,13422,12825
7083.7,10216,33907,13469,12876
7085.7,10177,33972,13547,12977
7087.7,9674,33791,13567,13019
7089.7,9459,33797,13459,12903
7091.7,10042,34408,13463,12877
7093.7,11118,35438,13634,13024
7095.7,12031,36103,13663,13040
7097.7,12102,35700,13429,12809
7099.7,11226,34643,13154,12559
7101.7,10365,34159,13055,12482
7103.7,10404,34575,13190,12592
7105.7,10813,35021,13423,12774
7107.7,10622,35043,13535,12858
7109.7,10092,35017,13481,12798
7111.7,10132,34967,13329,12636
7113.7,10691,34545,13064,12361
7115.7,10888,33957,12802,12114
7117.7,10377,33693,12826,12183
7119.7,9743,33801,13127,12529
7121.7,9624,34110,13394,12820
7123.7,9909,34477,13514,12955
7125.7,10026,34647,13567,13026
7127.7,9892,34626,13579,13021
7129.7,10117,34875,13579,12948
7131.7,10986,35488,13554,12856
7133.7,11818,35879,13389,12670
7135.7,11962,35793,13151,12421
7137.7,11735,35611,13084,12316
7139.7,11550,35377,13139,12329
7141.7,11006,34724,13086,12264
7143.7,9832,33865,13037,12236
7145.7,8832,33490,13236,12461
7147.7,8905,33765,13577,12789
7149.7,9904,34385,13841,12998
7151.7,11065,35162,14088,13203
7153.7,11935,35894,14435,13582
7155.7,12554,36321,14808,14066
7157.7,13063,36526,15117,14523
7159.7,13271,36614,15378,14906
7161.7,12824,36269,15529,15124
7163.7,12031,35528,15525,15186
7165.7,11894,35330,15677,15474
7167.7,12901,36282,16293,16302
7169.7,14510,37665,16992,17238
7171.7,16128,38526,17228,17645
7173.7,17602,38852,17158,17596
7175.7,18523,38991,16952,17259
7177.7,18296,38837,16029,16118
7179.7,17143,38229,14197,14044
7181.7,15936,37485,12429,12075
7183.7,15087,37057,11395,10955
7185.7,14456,36934,10505,10105
7187.7,13973,36677,9153,8871
7189.7,13637,36163,7671,7560
7191.7,13350,35929,6730,6790
7193.7,13059,36220,6567,6704
7195.7,12786,36393,6832,6942
7197.7,12636,36141,7043,7111
7199.7,12659,36138,7281,7306
7201.7,12369,36449,7936,7854
7203.7,11245,36160,8821,8585
7205.7,10025,35338,9496,9140
7207.7,10011,35065,10083,9651
7209.7,11106,35402,10736,10224
7211.7,12345,35705,11148,10532
7213.7,13384,36076,11333,10632
7215.73,13783,36382,11711,10973
7217.75,12800,35780,12174,11410
7219.78,11134,34615,12355,11537
7221.8,10241,34087,12453,11584
7223.8,9893,33977,12655,11776
7225.8,9368,33703,12693,11805
7227.8,9556,34119,12634,11698
7229.8,10887,35318,12828,11840
7231.8,11728,35485,13022,12010
7233.8,11298,34310,12844,11819
7235.8,10936,33790,12668,11640
7237.8,11168,34369,12847,11843
7239.8,11034,34431,12987,12011
7241.8,10630,33847,12814,11847
7243.8,10901,33947,12707,11750
7245.8,11434,34535,12890,11946
7247.8,11280,34410,13033,12064
7249.8,10825,33808,12928,11896
7251.8,10798,33691,12826,11742
7253.8,10878,33911,12931,11814
7255.8,10698,33888,13071,11908
7257.8,10714,33817,13036,11829
7259.8,11194,34094,12904,11705
7261.8,11698,34592,12858,11713
7263.8,11917,35019,12960,11851
7265.8,11993,35239,13165,12062
7267.8,12023,35221,13355,12254
7269.8,11956,35102,13377,12276
7271.8,11757,35009,13261,12146
7273.8,11422,34828,13183,12067
7275.8,11162,34580,13168,12069
7277.8,11343,34604,13164,12068
7279.8,11968,34936,13256,12150
7281.8,12605,35229,13403,12298
7283.8,12884,35426,13345,12222
7285.8,12663,35631,13076,11884
7287.8,12071,35581,12948,11670
7289.8,11605,35135,13145,11806
7291.8,11541,34712,13497,12121
7293.8,11483,34591,13764,12375
7295.8,11182,34534,13797,12414
7297.8,11090,34385,13622,12239
7299.8,11500,34349,13483,12094
7301.8,12086,34580,13541,12166
7303.8,12547,34897,13617,12266
7305.8,12777,34960,13532,12182
7307.8,12630,34770,13482,12113
7309.8,12198,34691,13715,12334
7311.8,11743,34697,14030,12660
7313.8,11252,34366,14060,12704
7315.8,10836,33976,13927,12569
7317.8,11022,34289,14058,12705
7319.8,11821,35050,14404,13105
7321.8,12509,35343,14521,13305
7323.8,12865,35295,14398,13234
7325.8,13239,35571,14391,13244
7327.8,13370,35774,14476,13346
7329.8,12789,35272,14423,13292
7331.8,12068,34688,14383,13199
7333.8,12005,34812,14521,13281
7335.8,12283,35195,14644,13392
7337.8,12371,35289,14719,13468
7339.8,12652,35557,14976,13724
7341.8,13388,36237,15271,14055
7343.8,13923,36554,15248,14103
7345.8,13908,36171,15049,13946
7347.8,13847,35836,15026,13909
7349.8,13800,35855,15088,13931
7351.8,13264,35660,15010,13814
7353.8,12624,35345,14922,13708
7355.8,12773,35656,15035,13832
7357.8,13322,36252,15255,14068
7359.8,13249,36122,15342,14149
7361.8,12933,35605,15262,14036
7363.8,13333,35730,15202,13928
7365.8,14000,36142,15233,13930
7367.8,14062,35996,15192,13907
7369.8,13885,35779,15035,13796
7371.8,13920,36046,14967,13770
7373.8,13621,36079,15038,13887
7375.8,12937,35670,15050,13929
7377.8,12805,35947,14928,13771
7379.8,13385,36997,14806,13556
7381.8,13851,37365,14793,13478
7383.8,14023,36727,14878,13567
7385.8,14294,36267,14901,13630
7387.8,14431,36228,14683,13446
7389.8,13983,35810,14363,13119
7391.8,13221,35168,14232,12940
7393.8,12708,35119,14199,12862
7395.8,12595,35480,13991,12647
7397.8,12694,35492,13729,12380
7399.8,12834,35231,13647,12268
7401.8,13138,35363,13633,12236
7403.8,13831,35985,13579,12183
7405.83,14508,36406,13552,12143
7407.85,14324,36028,13417,11986
7409.88,13359,35164,13006,11579
7411.9,12625,34652,12578,11150
7413.9,12421,34715,12414,10942
7415.9,12197,34879,12331,10828
7417.9,11966,34942,12158,10702
7419.9,12158,35107,12102,10721
7421.9,12549,35341,12246,10896
7423.9,12833,35420,12320,10978
7425.9,13239,35301,12196,10863
7427.9,13581,35047,12079,10718
7429.9,13209,34807,12126,10698
7431.9,12377,34802,12231,10752
7433.9,11962,34866,12200,10692
7435.9,11960,34570,11972,10438
7437.9,11824,34110,11707,10165
7439.9,11677,34128,11636,10107
7441.9,11900,34583,11763,10240
7443.9,12283,34844,11836,10320
7445.9,12436,34754,11708,10210
7447.9,12407,34681,11550,10053
7449.9,12433,34773,11561,10042
7451.9,12454,34809,11630,10105
7453.9,12184,34572,11537,10027
7455.9,11684,34173,11344,9848
7457.9,11501,34074,11293,9822
7459.9,11920,34566,11433,9998
7461.9,12513,35217,11581,10167
7463.9,12876,35360,11582,10178
7465.9,13087,35059,11473,10084
7467.9,13079,34883,11414,10016
7469.9,12600,34895,11405,9979
7471.9,12016,34730,11249,9823
7473.9,11939,34469,10967,9550
7475.9,12083,34493,10918,9468
7477.9,11876,34744,11207,9703
7479.9,11790,34979,11451,9933
7481.9,12432,35245,11425,9925
7483.9,13113,35477,11334,9847
7485.9,13018,35415,11332,9837
7487.9,12717,35270,11349,9829
7489.9,12882,35437,11333,9796
7491.9,12946,35612,11286,9767
7493.9,12464,35362,11244,9758
7495.9,12138,35072,11297,9822
7497.9,12347,35169,11373,9913
7499.9,12405,35221,11257,9844
7501.9,12049,34867,11012,9632
7503.9,11971,34664,10914,9519
7505.9,12436,35084,10959,9543
7507.9,12843,35543,10919,9514
7509.9,12771,35269,10738,9341
7511.9,12297,34457,10529,9101
7513.9,11606,33907,10438,8966
7515.9,11158,33973,10554,9054
7517.9,11506,34355,10741,9225
7519.9,12262,34628,10786,9241
7521.9,12395,34663,10771,9177
7523.9,11972,34732,10878,9226
7525.9,12068,35131,10994,9309
7527.9,12733,35603,10958,9294
7529.9,13008,35633,10865,9261
7531.9,12830,35331,10819,9248
7533.9,12798,35199,10788,9189
7535.9,12644,35249,10781,9123
7537.9,12020,35263,10821,9115
7539.9,11710,35414,10872,9145
7541.9,12245,35743,10939,9218
7543.9,12847,35831,10996,9296
7545.9,13046,35655,10946,9249
7547.9,13378,35746,10869,9172
7549.9,13705,36130,10948,9292
7551.9,13090,36171,11052,9473
7553.9,11833,35688,10970,9454
7555.9,11432,35314,10909,9432
7557.9,12144,35474,11083,9637
7559.9,12689,35760,11169,9742
7561.9,12642,35803,10916,9495
7563.9,12916,35976,10744,9314
7565.9,13597,36494,10975,9503
7567.9,13611,36703,11175,9643
7569.9,12910,36280,10992,9440
7571.9,12624,35956,10792,9271
7573.9,12914,36125,10796,9312
7575.9,12932,36158,10604,9142
7577.9,12622,35756,10139,8696
7579.9,12604,35464,9935,8509
7581.9,12922,35568,10102,8686
7583.9,13312,35812,10159,8753
7585.9,13677,36017,10004,8599
7587.9,13695,36064,9954,8522
7589.9,13139,35773,10003,8531
7591.9,12526,35282,9958,8474
7593.9,12367,34991,9906,8455
7595.9,12423,35033,9936,8524
7597.9,12413,35204,9924,8513
7599.9,12444,35269,9875,8432
7601.9,12460,35157,9899,8439
7603.9,12352,35008,9906,8473
7605.93,12444,35011,9793,8403
7607.95,12879,35127,9695,8304
7609.98,13160,35194,9716,8282
7612.0,13028,35252,9760,8298
7614.0,12829,35379,9795,8307
7616.0,12627,35356,9882,8300
7618.0,12166,34989,9917,8240
7620.0,11759,34615,9740,8120
7622.0,11910,34665,9496,8039
7624.0,12314,34940,9478,8088
7626.0,12347,34937,9601,8189
7628.0,12037,34650,9529,8152
7630.0,11789,34453,9301,7983
7632.0,11823,34562,9266,7910
7634.0,12195,34978,9404,7969
7636.0,12714,35470,9410,7961
7638.0,13011,35647,9384,7941
7640.0,13073,35566,9609,8131
7642.0,13147,35718,9869,8357
7644.0,13097,35973,9814,8306
7646.0,12680,35676,9595,8121
7648.0,12187,35012,9488,8062
7650.0,12017,34855,9455,8067
7652.0,12104,35226,9465,8071
7654.0,12188,35342,9531,8108
7656.0,12123,34976,9469,8020
7658.0,11937,34626,9277,7791
7660.0,12002,34698,9291,7772
7662.0,12581,35133,9516,8019
7664.0,13072,35504,9581,8131
7666.0,12791,35432,9453,8015
7668.0,12243,35126,9375,7920
7670.0,12259,35098,9335,7864
7672.0,12511,35290,9282,7785
7674.0,12350,35247,9321,7800
7676.0,12103,35036,9372,7868
7678.0,12250,35112,9315,7833
7680.0,12474,35399,9320,7811
7682.0,12448,35403,9442,7888
7684.0,12415,35130,9442,7886
7686.0,12547,35067,9348,7805
7688.0,12699,35295,9405,7834
7690.0,12813,35401,9489,7861
7692.0,12810,35287,9452,7795
7694.0,12541,35307,9602,7999
7696.0,12307,35593,10077,8625
7698.0,12706,35922,10434,9189
7700.0,13596,36177,10499,9429
7702.0,14113,36383,10718,9749
7704.0,14000,36520,11273,10359
7706.0,13976,36698,11789,10943
7708.0,14546,37151,12192,11475
7710.0,15333,37859,12851,12338
7712.0,15934,38595,13722,13417
7714.0,16602,39256,14232,14034
7716.0,17579,39711,14085,13882
7718.0,18367,39713,13462,13187
7720.0,18280,39351,12503,12057
7722.0,17369,38979,11161,10436
7724.0,16349,38582,9485,8548
7726.0,15773,38024,7790,6849
7728.0,15541,37676,6481,5624
7730.0,15178,37794,5572,4748
7732.0,14520,37844,4616,3834
7734.0,13924,37448,3494,2823
7736.0,13618,37078,2779,2200
7738.0,13306,37030,2773,2210
7740.0,12829,36920,3022,2448
7742.0,12535,36664,3259,2662
7744.0,12536,36620,3750,3100
7746.0,12461,36731,4460,3731
7748.0,12276,36707,5021,4184
7750.0,12379,36600,5450,4483
7752.0,12764,36431,5945,4886
7754.0,13052,36095,6439,5350
7756.0,13146,35882,6924,5809
7758.0,13125,36023,7470,6301
7760.0,12947,36081,7833,6615
7762.0,12755,35779,7851,6601
7764.0,12811,35556,7895,6597
7766.0,12974,35645,8223,6852
7768.0,12931,35740,8555,7121
7770.0,12754,35765,8676,7219
7772.0,12614,35821,8686,7225
7774.0,12466,35708,8631,7151
7776.0,12403,35421,8537,7027
7778.0,12654,35352,8526,7005
7780.0,13072,35522,8558,7037
7782.0,13248,35576,8552,7008
7784.0,13053,35520,8650,7086
7786.0,12645,35519,8842,7319
7788.0,12256,35427,8832,7386
7790.0,12164,35259,8675,7247
7792.0,12407,35310,8746,7264
7794.0,12641,35475,8957,7447
7796.0,12674,35445,8917,7453
7798.0,12668,35415,8722,7306
7800.0,12672,35643,8738,7310
7802.0,12659,35884,8937,7479
7804.0,12776,35931,9068,7613
7806.03,12864,35875,9053,7619
7808.05,12474,35618,8903,7473
7810.08,11820,35124,8683,7234
7812.1,11602,34857,8592,7126
7814.1,11833,35052,8719,7258
7816.1,12099,35300,8855,7410
7818.1,12420,35434,8823,7386
7820.1,12723,35676,8775,7337
7822.1,12607,35860,8894,7449
7824.1,12356,35805,9066,7600
7826.1,12714,35985,9133,7657
7828.1,13431,36556,9189,7747
7830.1,13665,36821,9295,7895
7832.1,13518,36634,9244,7858
7834.1,13616,36729,8974,7606
7836.1,13757,37083,8807,7467
7838.1,13379,36881,8954,7604
7840.1,12731,36193,9191,7819
7842.1,12421,35803,9272,7935
7844.1,12427,35774,9263,7974
7846.1,12472,35769,9307,8001
7848.1,12746,35916,9363,8024
7850.1,13364,36260,9347,8027
7852.1,13745,36427,9370,8065
7854.1,13446,36365,9581,8236
7856.1,13002,36367,9810,8446
7858.1,13044,36443,9780,8475
7860.1,13287,36503,9638,8425
7862.1,13259,36658,9705,8560
7864.1,13247,36845,9851,8729
7866.1,13563,36842,9818,8666
7868.1,13780,36765,9795,8612
7870.1,13641,36864,9985,8836
7872.1,13688,37033,10168,9068
7874.1,14066,37060,10200,9066
7876.1,14056,37020,10293,9072
7878.1,13595,37125,10545,9272
7880.1,13633,37435,10788,9498
7882.1,14303,37745,10886,9598
7884.1,14550,37739,10841,9602
7886.1,14032,37443,10772,9599
7888.1,13622,37279,10828,9643
7890.1,13823,37412,10918,9668
7892.1,14234,37510,10838,9576
7894.1,14499,37448,10716,9493
7896.1,14602,37548,10832,9613
7898.1,14458,37786,11077,9815
7900.1,14001,37631,11146,9840
7902.1,13533,37115,11068,9756
7904.1,13592,37079,11100,9843
7906.1,14319,37794,11260,10100
7908.1,15061,38381,11322,10221
7910.1,15103,38216,11200,10090
7912.1,14701,37805,11079,9962
7914.1,14532,37712,11091,10002
7916.1,14449,37743,11109,10029
7918.1,14029,37625,11031,9928
7920.1,13771,37526,10969,9875
7922.1,14244,37637,10981,9929
7924.1,14827,37922,10962,9939
7926.1,14785,38233,10892,9884
7928.1,14584,38351,10815,9817
7930.1,14827,38191,10655,9632
7932.1,15016,37970,10374,9295
7934.1,14571,37869,10095,8980
7936.1,13984,37804,9912,8781
7938.1,13959,37737,9810,8651
7940.1,14226,37746,9782,8606
7942.1,14051,37723,9799,8635
7944.1,13444,37521,9770,8602
7946.1,13121,37293,9646,8462
7948.1,13359,37240,9468,8319
7950.1,13621,37285,9310,8223
7952.1,13632,37376,9239,8155
7954.1,13842,37640,9223,8089
7956.1,14276,37929,9128,7957
7958.1,14189,37843,8926,7742
7960.1,13500,37419,8726,7532
7962.1,13049,37090,8550,7363
7964.1,13037,36934,8364,7195
7966.1,12887,36728,8248,7076
7968.1,12609,36574,8247,7059
7970.1,12649,36712,8285,7100
7972.1,12863,36992,8352,7180
7974.1,12998,37107,8411,7263
7976.1,13209,37053,8323,7202
7978.1,13400,37034,8183,7045
7980.1,13262,37117,8231,7039
7982.1,13025,37106,8299,7116
7984.1,13003,36848,8110,7001
7986.1,13000,36635,7909,6820
7988.1,13026,36883,7959,6842
7990.1,13363,37339,8001,6919
7992.1,13640,37396,7877,6840
7994.1,13399,37196,7850,6746
7996.13,13165,37337,7958,6769
7998.15,13419,37657,7964,6811
8000.18,13625,37597,7910,6805
8002.2,13507,37412,7955,6778
8004.2,13571,37574,8016,6749
8006.2,13668,37615,7986,6723
8008.2,13111,37059,7920,6687
8010.2,12288,36602,7906,6671
8012.2,12109,36904,7989,6789
8014.2,12383,37313,8090,6994
8016.2,12415,37129,8052,7038
8018.2,12271,36778,7900,6870
8020.2,12299,36752,7785,6671
8022.2,12497,36818,7693,6510
8024.2,12832,36875,7604,6415
8026.2,13216,37135,7663,6483
8028.2,13336,37378,7818,6604
8030.2,13208,37326,7801,6553
8032.2,13267,37342,7673,6446
8034.2,13495,37659,7704,6517
8036.2,13352,37708,7771,6600
8038.2,12816,37192,7615,6494
8040.2,12543,36851,7459,6451
8042.2,12782,37241,7613,6692
8044.2,12971,37693,7828,6910
8046.2,12711,37437,7750,6797
8048.2,12439,36942,7549,6563
8050.2,12686,37074,7505,6474
8052.2,13185,37560,7485,6420
8054.2,13329,37535,7369,6312
8056.2,13141,37135,7331,6304
8058.2,13108,37207,7389,6386
8060.2,13283,37798,7428,6439
8062.2,13256,38148,7641,6626
8064.2,12993,37974,8061,6985
8066.2,12972,37763,8153,7058
8068.2,13340,37900,7766,6708
8070.2,13601,38169,7564,6508
8072.2,13374,38204,7808,6712
8074.2,12903,38019,7979,6881
8076.2,12607,37840,7888,6819
8078.2,12629,37693,7811,6740
8080.2,12870,37580,7743,6685
8082.2,13106,37705,7652,6665
8084.2,13152,38031,7766,6829
8086.2,13101,38187,7992,7009
8088.2,13152,38141,8002,6927
8090.2,13232,38165,7902,6758
8092.2,13184,38152,7889,6716
8094.2,13113,37946,7794,6654
8096.2,13134,37907,7643,6594
8098.2,13107,38200,7747,6746
8100.2,12985,38344,7968,6915
8102.2,13040,38190,7919,6812
8104.2,13345,38203,7706,6634
8106.2,13493,38381,7617,6603
8108.2,13273,38220,7578,6556
8110.2,13147,37864,7487,6432
8112.2,13462,37926,7491,6435
8114.2,13749,38331,7616,6559
8116.2,13555,38486,7644,6570
8118.2,13269,38335,7462,6412
8120.2,13264,38234,7243,6252
8122.2,13162,38177,7179,6208
8124.2,12833,37968,7196,6201
8126.2,12933,37805,7116,6098
8128.2,13593,37953,7021,5985
8130.2,13961,38169,7056,6009
8132.2,13685,38083,7039,6009
8134.2,13430,37869,6833,5815
8136.2,13541,37930,6785,5730
8138.2,13568,38158,7091,6026
8140.2,13246,38116,7335,6346
8142.2,12906,37825,7256,6335
8144.2,12887,37771,7198,6257
8146.2,13120,38072,7367,6391
8148.2,13253,38215,7466,6510
8150.2,13088,37895,7332,6396
8152.2,12831,37526,7172,6204
8154.2,12694,37480,7123,6103
8156.2,12567,37479,7129,6064
8158.2,12433,37260,7145,6043
8160.2,12493,37070,7150,6028
8162.2,12679,37079,7109,5987
8164.2,12808,37156,7072,5944
8166.2,13067,37361,7127,5988
8168.2,13471,37738,7234,6101
8170.2,13411,37839,7277,6148
8172.2,12670,37425,7257,6111
8174.2,12064,37086,7266,6112
8176.2,12228,37261,7270,6156
8178.2,12635,37482,7160,6118
8180.2,12604,37365,7029,6041
8182.2,12436,37327,7080,6112
8184.2,12687,37619,7241,6268
8186.2,13064,37757,7238,6244
8188.2,13045,37534,7079,6033
8190.2,12900,37498,7055,5923
8192.2,13037,37846,7235,6028
8194.2,13048,37910,7321,6099
8196.23,12513,37358,7109,5915
8198.25,11977,36876,6831,5651
8200.28,12116,37069,6810,5638
8202.3,12664,37607,6975,5847
8204.3,13025,37994,7060,5980
8206.3,13172,38305,7105,6030
8208.3,13321,38644,7295,6224
8210.3,13378,38672,7508,6489
8212.3,13203,38165,7518,6555
8214.3,12938,37454,7377,6442
8216.3,12814,37073,7216,6326
8218.3,13035,37325,7086,6257
8220.3,13681,38080,7110,6287
8222.3,14279,38712,7320,6456
8224.3,14008,38625,7474,6604
8226.3,12926,38011,7435,6602
8228.3,12140,37571,7386,6555
8230.3,12173,37550,7447,6559
8232.3,12361,37659,7584,6642
8234.3,12315,37775,7853,6905
8236.3,12528,38058,8260,7348
8238.3,13198,38542,8657,7834
8240.3,13903,39026,9023,8375
8242.3,14473,39304,9425,9018
8244.3,14915,39319,9761,9557
8246.3,14934,39225,10020,9946
8248.3,14652,39406,10482,10574
8250.3,14980,40269,11283,11652
8252.3,16220,41672,12170,12820
8254.3,17350,42780,12820,13628
8256.3,17573,43004,13032,13881
8258.3,17374,42772,12679,13454
8260.3,17313,42636,11694,12209
8262.3,17096,42293,10052,10173
8264.3,16463,41415,7934,7749
8266.3,15736,40527,5923,5649
8268.3,15080,40077,4477,4245
8270.3,14377,39684,3295,3141
8272.3,13874,39107,1973,1914
8274.3,13873,38829,913,913
8276.3,14031,39079,708,657
8278.3,13845,39351,1110,944
8280.3,13421,39286,1473,1247
8282.3,13136,39189,1735,1533
8284.3,13089,39415,2309,2126
8286.3,13198,39796,3288,3062
8288.3,13293,39864,4249,3954
8290.3,13079,39379,4801,4448
8292.3,12576,38600,5033,4600
8294.3,12339,38101,5264,4713
8296.3,12657,38187,5599,4940
8298.3,13017,38486,5964,5258
8300.3,12937,38425,6336,5623
8302.3,12696,38051,6690,5961
8304.3,12689,37835,6962,6196
8306.3,12804,37857,7161,6376
8308.3,12887,37857,7317,6537
8310.3,12969,37809,7374,6586
8312.3,12867,37811,7340,6514
8314.3,12478,37812,7356,6501
8316.3,12257,37848,7466,6619
8318.3,12489,37970,7521,6685
8320.3,12669,37929,7420,6566
8322.3,12468,37614,7316,6439
8324.3,12423,37471,7413,6540
8326.3,12899,37772,7620,6764
8328.3,13362,38100,7677,6819
8330.3,13368,38135,7640,6749
8332.3,13313,38166,7759,6840
8334.3,13539,38331,7924,7014
8336.3,13604,38277,7848,6951
8338.3,13205,37982,7674,6748
8340.3,12908,37959,7714,6751
8342.3,13112,38263,7857,6918
8344.3,13301,38324,7863,6996
8346.3,13145,38047,7813,7005
8348.3,13060,37921,7829,7054
8350.3,13103,37965,7832,7084
8352.3,12905,37878,7821,7093
8354.3,12823,37954,7917,7200
8356.3,13350,38460,8088,7385
8358.3,13792,38729,8169,7492
8360.3,13377,38271,8137,7480
