t,lead_I,lead_II,v3,v4
0.6,-29469,-17390,44009,35438
2.6,-30104,-17263,44769,36147
4.6,-29819,-17194,45308,36661
6.6,-29823,-17433,45529,36870
8.6,-30145,-17774,45549,36914
10.6,-29615,-17893,45427,36864
12.6,-28806,-18034,44842,36348
14.6,-29070,-18415,43989,35501
16.6,-29778,-18545,43666,35140
18.6,-29728,-18088,43977,35417
20.6,-29427,-17585,44400,35801
22.6,-29627,-17482,44833,36172
24.6,-29841,-17455,45315,36612
26.6,-29718,-17296,45609,36919
28.6,-29610,-17331,45689,37037
30.6,-29462,-17619,45590,36975
32.6,-29126,-17804,45094,36531
34.6,-29078,-17750,44450,35922
36.6,-29422,-17543,44312,35747
38.6,-29625,-17207,44596,35944
40.6,-29726,-16905,44802,36081
42.6,-30045,-16872,45082,36325
44.6,-30201,-17030,45632,36867
46.6,-29968,-17164,46003,37257
48.6,-29781,-17230,45950,37227
50.6,-29617,-17205,45766,37051
52.6,-29210,-17155,45467,36766
54.6,-29098,-17312,44858,36192
56.6,-29536,-17461,44280,35632
58.6,-29657,-16970,44300,35627
60.6,-29227,-16081,44915,36197
62.6,-29202,-15865,45612,36864
64.6,-29713,-16401,46004,37245
66.6,-29843,-16702,46116,37368
68.6,-29524,-16643,46075,37363
70.6,-29419,-16930,45783,37132
72.6,-29430,-17335,45223,36642
74.6,-29117,-17080,44751,36221
76.6,-28788,-16490,44641,36131
78.6,-28936,-16383,44822,36311
80.6,-29350,-16544,45246,36723
82.6,-29491,-16356,45820,37282
84.6,-29246,-16073,46125,37577
86.6,-29002,-16278,45991,37440
88.6,-29073,-16866,45825,37269
90.6,-29253,-17337,45770,37219
92.6,-29161,-17503,45448,36935
94.6,-28884,-17525,44848,36384
96.6,-28874,-17599,44430,35968
98.6,-29335,-17763,44378,35849
100.6,-29987,-17853,44570,35959
102.63,-30322,-17710,44908,36262
104.65,-30128,-17518,45189,36549
106.68,-29816,-17686,45197,36558
108.7,-29874,-18250,44995,36345
110.7,-30079,-18698,44722,36083
112.7,-29890,-18646,44412,35806
114.7,-29421,-18376,44157,35575
116.7,-29261,-18336,43985,35423
118.7,-29591,-18434,43817,35275
120.7,-30054,-18314,43838,35271
122.7,-30271,-18038,44279,35633
124.7,-30188,-17967,44783,36081
126.7,-30045,-18186,44847,36156
128.7,-30002,-18448,44636,35966
130.7,-29920,-18553,44515,35840
132.7,-29702,-18504,44379,35719
134.7,-29551,-18411,44092,35490
136.7,-29591,-18341,43848,35296
138.7,-29734,-18256,43762,35199
140.7,-30002,-18165,43807,35181
142.7,-30378,-18225,44097,35413
144.7,-30494,-18453,44579,35889
146.7,-30185,-18611,44816,36154
148.7,-29899,-18591,44580,35935
150.7,-29959,-18536,44200,35558
152.7,-30088,-18557,44006,35377
154.7,-30126,-18745,43913,35315
156.7,-30263,-19166,43767,35196
158.7,-30336,-19419,43705,35125
160.7,-29963,-18898,43960,35328
162.7,-29425,-17868,44547,35837
164.7,-29314,-17290,45240,36471
166.7,-29428,-17374,45815,37082
168.7,-29110,-17414,46244,37703
170.7,-28430,-17046,46659,38420
172.7,-27940,-16512,47126,39236
174.7,-27568,-15799,47486,40134
176.7,-26895,-14598,47479,41086
178.7,-26227,-13043,47009,41911
180.7,-26202,-11604,46258,42457
182.7,-26542,-10289,45620,42990
184.7,-26363,-8714,45412,43959
186.7,-25535,-7075,45414,45122
188.7,-24755,-6274,44834,45469
190.7,-24530,-6787,43245,44469
192.7,-24872,-8059,41310,42778
194.7,-25636,-9396,39937,41171
196.7,-26637,-10805,39099,39508
198.7,-27741,-12558,38294,37485
200.7,-28993,-14491,37613,35499
202.7,-30393,-16160,37468,33973
204.7,-31619,-17338,37797,32753
206.7,-32258,-18082,38289,31816
208.7,-32211,-18471,38819,31510
210.7,-31807,-18530,39281,31746
212.7,-31485,-18380,39644,32077
214.7,-31317,-18204,40188,32534
216.7,-31029,-18035,41042,33300
218.7,-30587,-17851,41815,34010
220.7,-30352,-17812,42238,34331
222.73,-30490,-18076,42579,34552
224.75,-30699,-18439,43036,34932
226.78,-30638,-18573,43433,35266
228.8,-30272,-18495,43646,35393
230.8,-29822,-18456,43710,35381
232.8,-29614,-18531,43623,35254
234.8,-29823,-18618,43455,35060
236.8,-30236,-18684,43374,34952
238.8,-30441,-18733,43409,34965
240.8,-30313,-18688,43515,35046
242.8,-30110,-18544,43704,35202
244.8,-30082,-18498,43893,35377
246.8,-30168,-18655,43966,35470
248.8,-30146,-18823,44006,35523
250.8,-29998,-18854,44051,35556
252.8,-29932,-18897,43920,35411
254.8,-30044,-19040,43621,35101
256.8,-30178,-19058,43487,34921
258.8,-30167,-18790,43656,35015
260.8,-30055,-18467,43907,35213
262.8,-30049,-18473,44031,35322
264.8,-30292,-18858,44010,35298
266.8,-30597,-19190,43969,35253
268.8,-30538,-19065,44082,35371
270.8,-30028,-18729,44297,35603
272.8,-29530,-18669,44281,35614
274.8,-29443,-18751,43948,35307
276.8,-29673,-18580,43695,35055
278.8,-29934,-18318,43821,35147
280.8,-30052,-18277,44116,35404
282.8,-30018,-18352,44253,35533
284.8,-30034,-18502,44223,35519
286.8,-30235,-18876,44234,35540
288.8,-30382,-19251,44355,35654
290.8,-30311,-19349,44373,35668
292.8,-30278,-19328,44128,35427
294.8,-30298,-19192,43863,35165
296.8,-29974,-18651,43917,35218
298.8,-29433,-18008,44200,35498
300.8,-29323,-17932,44392,35673
302.8,-29634,-18311,44434,35682
304.8,-29790,-18515,44413,35652
306.8,-29779,-18443,44352,35604
308.8,-29920,-18369,44365,35606
310.8,-30000,-18371,44554,35753
312.8,-29778,-18462,44688,35871
314.8,-29602,-18648,44541,35748
316.8,-29732,-18759,44324,35543
318.8,-29956,-18757,44277,35483
320.8,-30164,-18863,44330,35533
322.8,-30303,-18981,44487,35705
324.8,-30015,-18680,44822,36049
326.8,-29384,-18093,45043,36273
328.8,-29225,-17909,44914,36145
330.8,-29689,-18227,44768,35990
332.83,-29894,-18417,44828,36036
334.85,-29602,-18284,44786,35993
336.88,-29571,-18298,44595,35807
338.9,-29926,-18584,44613,35828
340.9,-30000,-18683,44817,36033
342.9,-29705,-18377,44982,36186
344.9,-29458,-17998,45239,36419
346.9,-29290,-17884,45540,36721
348.9,-29184,-18016,45473,36686
350.9,-29359,-18162,45182,36406
352.9,-29604,-18207,45231,36426
354.9,-29488,-18239,45499,36660
356.9,-29220,-18273,45489,36636
358.9,-29176,-18154,45376,36508
360.9,-29151,-17903,45557,36662
362.9,-29007,-17808,45822,36905
364.9,-29101,-17950,45866,36940
366.9,-29415,-18101,45894,36969
368.9,-29408,-18146,46130,37198
370.9,-29057,-18115,46341,37390
372.9,-28885,-17907,46289,37318
374.9,-28938,-17522,46179,37198
376.9,-28836,-17286,46322,37323
378.9,-28623,-17405,46621,37582
380.9,-28622,-17637,46769,37693
382.9,-28757,-17689,46778,37695
384.9,-28775,-17584,46912,37834
386.9,-28717,-17434,47194,38100
388.9,-28630,-17243,47406,38284
390.9,-28385,-17061,47468,38337
392.9,-28159,-17011,47452,38321
394.9,-28307,-17033,47396,38244
396.9,-28600,-16924,47373,38190
398.9,-28485,-16669,47486,38294
400.9,-28100,-16425,47676,38484
402.9,-27995,-16225,47818,38609
404.9,-28151,-16115,47991,38763
406.9,-28257,-16343,48252,39022
408.9,-28388,-16866,48367,39133
410.9,-28561,-17094,48181,38943
412.9,-28435,-16717,47942,38731
414.9,-28050,-16186,47907,38741
416.9,-27858,-15879,48048,38890
418.9,-27811,-15579,48273,39092
420.9,-27542,-15172,48477,39312
422.9,-27292,-14999,48476,39371
424.9,-27507,-15183,48307,39249
426.9,-27911,-15377,48262,39224
428.9,-27980,-15357,48366,39365
430.9,-27824,-15292,48341,39397
432.9,-27829,-15370,48137,39236
434.9,-28013,-15556,47941,39075
436.9,-28245,-15740,47803,38982
438.9,-28512,-15855,47701,38919
440.9,-28660,-15841,47680,38924
442.9,-28492,-15703,47675,38954
444.9,-28234,-15620,47540,38857
446.9,-28306,-15722,47306,38633
448.9,-28623,-15857,47135,38451
450.9,-28766,-15895,47060,38378
452.93,-28699,-16002,46952,38286
454.95,-28712,-16247,46691,38047
456.98,-28894,-16413,46358,37739
459.0,-29142,-16511,46195,37588
461.0,-29366,-16781,46245,37624
463.0,-29418,-17080,46228,37592
465.0,-29253,-17061,46007,37374
467.0,-29142,-16872,45817,37177
469.0,-29336,-16928,45805,37131
471.0,-29638,-17252,45804,37104
473.0,-29659,-17532,45712,37022
475.0,-29357,-17526,45595,36927
477.0,-29109,-17239,45430,36765
479.0,-29202,-16949,45231,36558
481.0,-29437,-16972,45213,36530
483.0,-29498,-17302,45384,36696
485.0,-29509,-17684,45414,36736
487.0,-29719,-17943,45209,36552
489.0,-29947,-18020,45058,36410
491.0,-29951,-17948,45065,36409
493.0,-29896,-17936,45058,36398
495.0,-29949,-18141,45001,36352
497.0,-29966,-18343,44974,36340
499.0,-29874,-18216,44947,36315
501.0,-29785,-17828,44933,36290
503.0,-29712,-17534,45023,36366
505.0,-29620,-17502,45120,36457
507.0,-29569,-17623,45050,36391
509.0,-29561,-17725,44916,36259
511.0,-29540,-17711,44959,36285
513.0,-29529,-17636,45150,36453
515.0,-29507,-17653,45242,36540
517.0,-29381,-17755,45104,36423
519.0,-29305,-17776,44856,36203
521.0,-29573,-17763,44720,36073
523.0,-29988,-17890,44801,36144
525.0,-29976,-17982,44988,36337
527.0,-29568,-17795,45058,36425
529.0,-29453,-17571,44912,36274
531.0,-29764,-17604,44761,36087
533.0,-29867,-17712,44880,36186
535.0,-29607,-17758,45125,36444
537.0,-29524,-17934,45075,36409
539.0,-29723,-18162,44759,36097
541.0,-29816,-18162,44678,36027
543.0,-29791,-18048,44959,36320
545.0,-29762,-17980,45197,36548
547.0,-29495,-17735,45184,36521
549.0,-29097,-17350,45084,36431
551.0,-29131,-17304,44989,36352
553.0,-29516,-17612,44903,36256
555.0,-29607,-17789,44908,36246
557.0,-29430,-17753,44958,36302
559.0,-29499,-17788,44893,36249
561.0,-29716,-17865,44812,36164
563.03,-29716,-17822,44912,36258
565.05,-29693,-17806,45062,36408
567.08,-29879,-18001,45052,36387
569.1,-29988,-18295,44972,36292
571.1,-29840,-18392,44914,36243
573.1,-29725,-18099,44793,36137
575.1,-29767,-17653,44699,36033
577.1,-29722,-17576,44815,36140
579.1,-29537,-17879,44960,36311
581.1,-29433,-17963,44877,36252
583.1,-29471,-17668,44764,36125
585.1,-29554,-17530,44889,36224
587.1,-29657,-17743,45057,36384
589.1,-29746,-17926,44998,36314
591.1,-29774,-17969,44818,36109
593.1,-29819,-18037,44743,36019
595.1,-29857,-17964,44842,36117
597.1,-29653,-17621,45042,36322
599.1,-29294,-17435,45113,36407
601.1,-29315,-17745,44849,36163
603.1,-29838,-18198,44478,35784
605.1,-30252,-18332,44467,35739
607.1,-30130,-18201,44827,36081
609.1,-29736,-18026,45093,36357
611.1,-29418,-17790,45033,36306
613.1,-29231,-17491,44881,36144
615.1,-29215,-17363,44870,36122
617.1,-29387,-17543,44948,36195
619.1,-29526,-17764,44981,36225
621.1,-29466,-17758,44948,36199
623.1,-29441,-17743,44876,36139
625.1,-29720,-18039,44778,36035
627.1,-30114,-18423,44706,35941
629.1,-30221,-18439,44712,35938
631.1,-30003,-18150,44743,35979
633.1,-29771,-17942,44723,35963
635.1,-29695,-17864,44715,35941
637.1,-29624,-17729,44799,36019
639.1,-29427,-17578,44881,36119
641.1,-29260,-17572,44810,36064
643.1,-29341,-17663,44623,35864
645.1,-29603,-17685,44529,35746
647.1,-29822,-17677,44655,35865
649.1,-29933,-17851,44868,36084
651.1,-29978,-18194,44910,36130
653.1,-29925,-18343,44717,35945
655.1,-29824,-18112,44503,35746
657.1,-29858,-17846,44484,35731
659.1,-30014,-17915,44651,35884
661.1,-30064,-18166,44818,36040
663.1,-29957,-18182,44839,36053
665.1,-29842,-17822,44787,35981
667.1,-29755,-17310,44887,36052
669.1,-29650,-16963,45165,36307
671.1,-29579,-16888,45337,36467
673.1,-29569,-16909,45264,36385
675.1,-29564,-16845,45206,36314
677.1,-29570,-16769,45359,36458
679.1,-29607,-16847,45524,36623
681.1,-29583,-17025,45507,36610
683.13,-29450,-17060,45413,36510
685.15,-29366,-16856,45341,36422
687.18,-29500,-16647,45259,36314
689.2,-29795,-16724,45253,36282
691.2,-30042,-17030,45400,36423
693.2,-30090,-17244,45488,36530
695.2,-29942,-17216,45356,36415
697.2,-29739,-17064,45254,36311
699.2,-29644,-16892,45410,36467
701.2,-29660,-16694,45593,36667
703.2,-29691,-16522,45490,36600
705.2,-29736,-16505,45178,36336
707.2,-29805,-16648,44982,36178
709.2,-29773,-16792,45096,36297
711.2,-29588,-16838,45412,36605
713.2,-29408,-16804,45626,36841
715.2,-29307,-16663,45587,36844
717.2,-29209,-16409,45447,36728
719.2,-29163,-16251,45396,36687
721.2,-29196,-16349,45459,36767
723.2,-29117,-16535,45555,36884
725.2,-28954,-16694,45503,36847
727.2,-29070,-16970,45193,36547
729.2,-29404,-17252,44933,36281
731.2,-29402,-17197,45089,36420
733.2,-29026,-16968,45370,36703
735.2,-28878,-17027,45223,36575
737.2,-29254,-17330,44757,36108
739.2,-29883,-17656,44477,35803
741.2,-30395,-18107,44456,35775
743.2,-30457,-18512,44494,35820
745.2,-29975,-18377,44533,35846
747.2,-29446,-17905,44503,35792
749.2,-29421,-17771,44347,35632
751.2,-29704,-17900,44266,35551
753.2,-29802,-17833,44369,35642
755.2,-29730,-17738,44401,35674
757.2,-29709,-17863,44246,35551
759.2,-29688,-17924,44158,35503
761.2,-29678,-17857,44229,35583
763.2,-29851,-18032,44263,35594
765.2,-30062,-18371,44223,35532
767.2,-29997,-18393,44216,35527
769.2,-29767,-18075,44210,35527
771.2,-29702,-17797,44189,35492
773.2,-29773,-17727,44261,35545
775.2,-29757,-17808,44401,35692
777.2,-29614,-17940,44449,35768
779.2,-29453,-18017,44347,35698
781.2,-29450,-18043,44155,35537
783.2,-29719,-18113,44016,35408
785.2,-30022,-18190,44116,35470
787.2,-29981,-18181,44339,35647
789.2,-29705,-18136,44303,35609
791.2,-29592,-18077,44050,35366
793.23,-29661,-17964,44045,35346
795.25,-29716,-17972,44341,35626
797.28,-29750,-18234,44586,35868
799.3,-29643,-18308,44816,36071
801.3,-29166,-17679,45337,36576
803.3,-28550,-16676,46134,37440
805.3,-28228,-16036,47009,38470
807.3,-28100,-15768,47750,39491
809.3,-27861,-15258,47981,40330
811.3,-27542,-14172,47608,41021
813.3,-27106,-12589,47147,41887
815.3,-26326,-10696,46906,42978
817.3,-25422,-8774,46559,43953
819.3,-24928,-7087,45971,44781
821.3,-24892,-5805,45384,45620
823.3,-24990,-5254,44651,46085
825.3,-25115,-5662,43451,45687
827.3,-25248,-6547,42088,44670
829.3,-25321,-7318,40991,43386
831.3,-25611,-8288,39990,41609
833.3,-26499,-9984,38976,39381
835.3,-27719,-12019,38380,37436
837.3,-28723,-13740,38275,35941
839.3,-29617,-15133,38131,34218
841.3,-30693,-16232,37932,32354
843.3,-31515,-16771,38288,31459
845.3,-31610,-16861,39217,31847
847.3,-31356,-16882,40140,32656
849.3,-31137,-16827,40933,33366
851.3,-30697,-16713,41747,34058
853.3,-30094,-16928,42304,34521
855.3,-29938,-17466,42456,34567
857.3,-30231,-17791,42630,34600
859.3,-30305,-17765,43014,34865
861.3,-30014,-17757,43275,35056
863.3,-29789,-17901,43357,35075
865.3,-29772,-18038,43504,35137
867.3,-29800,-18084,43640,35180
869.3,-29850,-18083,43617,35081
871.3,-29925,-18131,43628,35055
873.3,-29886,-18214,43777,35187
875.3,-29681,-18086,43818,35203
877.3,-29502,-17729,43707,35066
879.3,-29524,-17630,43726,35082
881.3,-29625,-17977,43914,35276
883.3,-29608,-18232,43988,35338
885.3,-29591,-18152,43870,35187
887.3,-29824,-18248,43754,35028
889.3,-30171,-18645,43746,34972
891.3,-30269,-18699,43833,35024
893.3,-30109,-18266,43998,35178
895.3,-29980,-18061,44096,35285
897.3,-29920,-18301,43986,35198
899.3,-29758,-18362,43867,35104
901.3,-29601,-18079,43979,35227
903.3,-29681,-18000,44134,35373
905.3,-29798,-18152,44078,35310
907.3,-29598,-18006,43990,35215
909.3,-29321,-17711,44107,35303
911.3,-29467,-17885,44286,35450
913.33,-29864,-18349,44324,35485
915.35,-29996,-18466,44224,35394
917.38,-29930,-18338,44050,35215
919.4,-29994,-18401,43922,35093
921.4,-30005,-18441,44021,35220
923.4,-29706,-18122,44304,35503
925.4,-29380,-17809,44484,35646
927.4,-29377,-17934,44435,35576
929.4,-29589,-18199,44295,35438
931.4,-29742,-18124,44232,35357
933.4,-29709,-17832,44337,35431
935.4,-29519,-17748,44539,35628
937.4,-29405,-17906,44563,35663
939.4,-29573,-17999,44326,35428
941.4,-29744,-17880,44201,35303
943.4,-29490,-17658,44462,35557
945.4,-29032,-17499,44801,35871
947.4,-28977,-17526,44835,35875
949.4,-29362,-17762,44647,35678
951.4,-29724,-18071,44508,35538
953.4,-29850,-18248,44507,35525
955.4,-29769,-18199,44645,35646
957.4,-29469,-17995,44868,35858
959.4,-29172,-17839,44967,35957
961.4,-29255,-17873,44817,35824
963.4,-29600,-17956,44645,35669
965.4,-29680,-17860,44734,35747
967.4,-29385,-17641,44968,35957
969.4,-29134,-17542,45005,35988
971.4,-29203,-17614,44842,35829
973.4,-29423,-17720,44874,35845
975.4,-29463,-17761,45262,36211
977.4,-29205,-17708,45620,36568
979.4,-28883,-17591,45584,36545
981.4,-28821,-17509,45361,36320
983.4,-29016,-17504,45342,36281
985.4,-29196,-17525,45547,36453
987.4,-29234,-17578,45757,36616
989.4,-29180,-17660,45859,36681
991.4,-29028,-17583,45880,36689
993.4,-28840,-17266,45928,36724
995.4,-28835,-17002,46112,36871
997.4,-28980,-17012,46349,37078
999.4,-28941,-17080,46434,37175
1001.4,-28754,-17052,46372,37126
1003.4,-28827,-17082,46358,37079
1005.4,-29028,-17097,46500,37163
1007.4,-28792,-16840,46767,37387
1009.4,-28273,-16560,47065,37663
1011.4,-28167,-16684,47254,37839
1013.4,-28468,-16956,47280,37860
1015.4,-28624,-16919,47302,37869
1017.4,-28573,-16741,47480,38017
1019.4,-28530,-16689,47743,38252
1021.4,-28396,-16572,47898,38399
1023.43,-28188,-16329,47889,38386
1025.45,-28224,-16259,47862,38337
1027.48,-28452,-16355,48012,38445
1029.5,-28457,-16327,48304,38694
1031.5,-28220,-16209,48461,38824
1033.5,-28086,-16174,48358,38709
1035.5,-28136,-16084,48255,38593
1037.5,-28204,-15851,48424,38740
1039.5,-28220,-15712,48745,39043
1041.5,-28169,-15768,48916,39212
1043.5,-28090,-15830,48857,39162
1045.5,-28157,-15807,48732,39050
1047.5,-28371,-15736,48736,39061
1049.5,-28389,-15564,48904,39232
1051.5,-28116,-15351,49029,39376
1053.5,-27988,-15316,48908,39296
1055.5,-28181,-15358,48738,39164
1057.5,-28226,-15110,48874,39324
1059.5,-27896,-14689,49175,39667
1061.5,-27655,-14598,49137,39707
1063.5,-27811,-14845,48722,39368
1065.5,-28089,-14993,48399,39103
1067.5,-28248,-14937,48410,39169
1069.5,-28303,-14861,48540,39359
1071.5,-28218,-14789,48532,39409
1073.5,-28086,-14760,48308,39240
1075.5,-28214,-14931,47954,38933
1077.5,-28583,-15194,47681,38697
1079.5,-28775,-15259,47608,38672
1081.5,-28670,-15163,47603,38732
1083.5,-28542,-15176,47488,38662
1085.5,-28516,-15337,47267,38450
1087.5,-28510,-15461,47040,38236
1089.5,-28567,-15477,46876,38098
1091.5,-28760,-15551,46778,38006
1093.5,-28974,-15867,46661,37881
1095.5,-29065,-16271,46457,37694
1097.5,-29085,-16402,46239,37507
1099.5,-29156,-16250,46127,37392
1101.5,-29192,-16129,46132,37369
1103.5,-29040,-16109,46134,37369
1105.5,-28882,-16094,45981,37239
1107.5,-29091,-16256,45672,36928
1109.5,-29586,-16701,45459,36683
1111.5,-29826,-17071,45551,36755
1113.5,-29599,-17054,45749,36966
1115.5,-29280,-16853,45708,36943
1117.5,-29232,-16784,45452,36688
1119.5,-29425,-16879,45294,36520
1121.5,-29631,-17047,45354,36577
1123.5,-29700,-17224,45461,36681
1125.5,-29676,-17347,45418,36626
1127.5,-29707,-17368,45234,36432
1129.5,-29795,-17248,45144,36343
1131.5,-29772,-17035,45300,36497
1133.5,-29631,-16917,45496,36674
1135.5,-29554,-16983,45456,36615
1137.5,-29598,-17079,45286,36447
1139.5,-29666,-17148,45267,36436
1141.5,-29688,-17276,45403,36573
1143.53,-29600,-17321,45517,36694
1145.55,-29418,-17121,45509,36702
1147.58,-29383,-16938,45351,36548
1149.6,-29602,-16972,45167,36349
1151.6,-29709,-16919,45233,36396
1153.6,-29461,-16668,45520,36673
1155.6,-29251,-16650,45600,36762
1157.6,-29418,-16966,45339,36539
1159.6,-29642,-17141,45142,36383
1161.6,-29615,-17032,45278,36517
1163.6,-29573,-17004,45532,36728
1165.6,-29673,-17165,45645,36812
1167.6,-29682,-17284,45569,36746
1169.6,-29588,-17294,45349,36539
1171.6,-29690,-17288,45148,36327
1173.6,-29928,-17270,45211,36366
1175.6,-29912,-17257,45504,36650
1177.6,-29636,-17285,45663,36811
1179.6,-29471,-17234,45492,36646
1181.6,-29567,-17056,45273,36426
1183.6,-29705,-16955,45343,36477
1185.6,-29647,-16978,45582,36697
1187.6,-29446,-16900,45600,36723
1189.6,-29403,-16798,45362,36508
1191.6,-29577,-16943,45267,36404
1193.6,-29604,-17113,45501,36604
1195.6,-29372,-17011,45726,36822
1197.6,-29326,-16988,45617,36734
1199.6,-29617,-17270,45331,36458
1201.6,-29794,-17321,45195,36314
1203.6,-29676,-16934,45273,36400
1205.6,-29538,-16705,45451,36592
1207.6,-29410,-16855,45597,36740
1209.6,-29243,-16988,45585,36725
1211.6,-29354,-17038,45397,36543
1213.6,-29803,-17145,45200,36347
1215.6,-30057,-17083,45152,36286
1217.6,-29868,-16824,45240,36370
1219.6,-29645,-16832,45354,36497
1221.6,-29692,-17231,45380,36539
1223.6,-29840,-17560,45322,36482
1225.6,-29857,-17529,45341,36491
1227.6,-29719,-17315,45499,36633
1229.6,-29564,-17164,45576,36696
1231.6,-29559,-17140,45425,36539
1233.6,-29720,-17202,45257,36370
1235.6,-29888,-17265,45308,36414
1237.6,-29888,-17204,45489,36583
1239.6,-29700,-16988,45547,36643
1241.6,-29536,-16848,45396,36509
1243.6,-29668,-17033,45193,36315
1245.6,-30035,-17386,45165,36273
1247.6,-30198,-17518,45323,36416
1249.6,-29911,-17373,45430,36534
1251.6,-29500,-17180,45344,36472
1253.63,-29393,-17009,45215,36353
1255.65,-29536,-16830,45221,36358
1257.68,-29608,-16752,45329,36457
1259.7,-29554,-16842,45404,36516
1261.7,-29542,-16958,45395,36492
1263.7,-29618,-17013,45350,36443
1265.7,-29716,-17083,45342,36433
1267.7,-29789,-17161,45383,36467
1269.7,-29768,-17114,45391,36476
1271.7,-29664,-16983,45308,36403
1273.7,-29671,-16963,45198,36295
1275.7,-29862,-17078,45185,36270
1277.7,-29989,-17189,45301,36370
1279.7,-29924,-17253,45420,36478
1281.7,-29907,-17302,45388,36440
1283.7,-30037,-17277,45235,36288
1285.7,-30039,-17134,45182,36242
1287.7,-29782,-16950,45348,36411
1289.7,-29493,-16775,45597,36650
1291.7,-29338,-16589,45741,36780
1293.7,-29328,-16472,45720,36754
1295.7,-29534,-16534,45590,36616
1297.7,-29893,-16649,45530,36522
1299.7,-30033,-16558,45726,36674
1301.7,-29781,-16256,46040,36979
1303.7,-29511,-16022,46077,37040
1305.7,-29569,-16001,45800,36784
1307.7,-29742,-16003,45683,36660
1309.7,-29687,-15835,45970,36924
1311.7,-29504,-15686,46287,37219
1313.7,-29501,-15863,46238,37163
1315.7,-29700,-16197,45953,36885
1317.7,-29904,-16253,45791,36726
1319.7,-30001,-16114,45883,36811
1321.7,-29959,-16205,46096,37018
1323.7,-29775,-16392,46217,37138
1325.7,-29633,-16237,46139,37064
1327.7,-29811,-15999,45980,36913
1329.7,-30212,-16190,45934,36879
1331.7,-30349,-16482,46017,36972
1333.7,-30058,-16344,46034,37007
1335.7,-29796,-16114,45841,36844
1337.7,-29841,-16177,45631,36656
1339.7,-29766,-16089,45783,36812
1341.7,-29295,-15656,46230,37265
1343.7,-28949,-15495,46427,37484
1345.7,-29074,-15725,46282,37360
1347.7,-29138,-15680,46288,37382
1349.7,-28830,-15339,46432,37550
1351.7,-28756,-15394,46234,37363
1353.7,-29211,-15928,45913,37019
1355.7,-29550,-16416,45997,37071
1357.7,-29427,-16642,46104,37171
1359.7,-29305,-16646,45748,36818
1361.7,-29366,-16417,45482,36543
1363.7,-29311,-16171,45740,36804
1365.7,-29259,-16277,45880,36969
1367.7,-29530,-16710,45498,36601
1369.7,-29834,-17069,45174,36256
1371.7,-29793,-17097,45213,36260
1373.73,-29709,-16960,45218,36241
1375.75,-29927,-17018,45117,36124
1377.78,-30159,-17359,45208,36206
1379.8,-30096,-17631,45351,36354
1381.8,-29946,-17511,45235,36249
1383.8,-29919,-17154,45055,36072
1385.8,-29873,-16957,45111,36123
1387.8,-29738,-17076,45226,36242
1389.8,-29756,-17385,45115,36148
1391.8,-30096,-17722,44878,35927
1393.8,-30476,-17937,44798,35846
1395.8,-30405,-17834,44947,35970
1397.8,-29915,-17432,45116,36105
1399.8,-29651,-17129,45081,36053
1401.8,-29866,-17155,44944,35914
1403.8,-30011,-17172,44978,35942
1405.8,-29849,-16979,45114,36081
1407.8,-29876,-16986,45071,36076
1409.8,-30121,-17361,44950,36010
1411.8,-29993,-17566,45002,36088
1413.8,-29636,-17322,45058,36126
1415.8,-29733,-17047,44923,35969
1417.8,-30070,-17036,44906,35946
1419.8,-29986,-17176,45188,36222
1421.8,-29699,-17406,45345,36366
1423.8,-29700,-17632,45191,36189
1425.8,-29745,-17538,45247,36195
1427.8,-29497,-17065,45818,36714
1429.8,-29149,-16566,46494,37424
1431.8,-28877,-16201,46985,38062
1433.8,-28594,-15762,47546,38810
1435.8,-28261,-15119,48264,39795
1437.8,-27845,-14300,48743,40857
1439.8,-27310,-13273,48711,41848
1441.8,-26833,-12058,48283,42697
1443.8,-26535,-10775,47641,43346
1445.8,-26157,-9295,47021,44004
1447.8,-25497,-7352,46769,45089
1449.8,-24787,-5360,46773,46434
1451.8,-24348,-4417,46235,47054
1453.8,-24261,-4907,44739,46343
1455.8,-24451,-5903,43001,44908
1457.8,-24823,-6658,41837,43518
1459.8,-25418,-7676,41054,41987
1461.8,-26418,-9508,40163,39959
1463.8,-27750,-11629,39354,37872
1465.8,-28996,-13327,38999,36198
1467.8,-30009,-14671,38969,34680
1469.8,-31038,-15876,39090,33214
1471.8,-31867,-16563,39555,32460
1473.8,-31805,-16371,40440,32821
1475.8,-30992,-15852,41421,33733
1477.8,-30472,-15886,42225,34498
1479.8,-30479,-16297,42882,35027
1481.8,-30180,-16188,43450,35468
1483.83,-29484,-15701,43836,35746
1485.85,-29304,-15840,43970,35774
1487.88,-29793,-16561,43989,35711
1489.9,-30110,-16945,44140,35789
1491.9,-29951,-17000,44458,36004
1493.9,-29755,-17312,44692,36120
1495.9,-29731,-17644,44655,35996
1497.9,-29814,-17563,44490,35780
1499.9,-29976,-17354,44459,35711
1501.9,-29994,-17228,44621,35840
1503.9,-29681,-16993,44818,36010
1505.9,-29412,-16864,44867,36041
1507.9,-29627,-17219,44751,35917
1509.9,-30106,-17708,44641,35800
1511.9,-30322,-17805,44687,35819
1513.9,-30128,-17640,44840,35923
1515.9,-29749,-17496,44947,35991
1517.9,-29478,-17306,44961,35985
1519.9,-29495,-17142,44954,35966
1521.9,-29771,-17368,44996,35999
1523.9,-30122,-17958,45036,36050
1525.9,-30317,-18319,44973,36013
1527.9,-30176,-18035,44848,35917
1529.9,-29804,-17413,44837,35930
1531.9,-29589,-17078,44981,36089
1533.9,-29630,-17187,45140,36239
1535.9,-29577,-17330,45202,36272
1537.9,-29386,-17282,45133,36174
1539.9,-29501,-17325,44982,36017
1541.9,-29878,-17539,44994,36037
1543.9,-29887,-17526,45327,36365
1545.9,-29522,-17276,45600,36629
1547.9,-29461,-17328,45385,36428
1549.9,-29702,-17625,45017,36081
1551.9,-29576,-17471,45089,36144
1553.9,-29173,-16954,45424,36444
1555.9,-29234,-16970,45464,36452
1557.9,-29687,-17574,45253,36223
1559.9,-29762,-17766,45195,36154
1561.9,-29406,-17189,45334,36286
1563.9,-29270,-16707,45493,36435
1565.9,-29503,-16991,45610,36540
1567.9,-29641,-17558,45607,36532
1569.9,-29532,-17667,45447,36380
1571.9,-29484,-17379,45365,36300
1573.9,-29577,-17157,45538,36461
1575.9,-29545,-17053,45722,36628
1577.9,-29380,-16958,45641,36533
1579.9,-29394,-17024,45448,36327
1581.9,-29589,-17248,45468,36327
1583.9,-29581,-17276,45730,36566
1585.9,-29225,-16995,46005,36831
1587.9,-28854,-16737,46089,36941
1589.9,-28844,-16787,45980,36870
1591.9,-29184,-17105,45858,36745
1593.9,-29466,-17386,45902,36733
1595.9,-29346,-17279,46077,36863
1597.9,-29016,-16868,46186,36974
1599.9,-28954,-16713,46116,36926
1601.9,-29228,-17012,45970,36788
1603.93,-29463,-17236,45949,36766
1605.95,-29396,-17028,46146,36961
1607.98,-29078,-16734,46436,37236
1610.0,-28707,-16647,46585,37365
1612.0,-28547,-16563,46510,37285
1614.0,-28733,-16429,46400,37176
1616.0,-29003,-16534,46518,37276
1618.0,-28963,-16815,46864,37586
1620.0,-28681,-16851,47098,37803
1622.0,-28589,-16628,46988,37704
1624.0,-28802,-16514,46830,37533
1626.0,-28980,-16571,47046,37689
1628.0,-28867,-16588,47467,38065
1630.0,-28609,-16568,47571,38186
1632.0,-28522,-16641,47331,37973
1634.0,-28715,-16738,47210,37829
1636.0,-28892,-16633,47451,38021
1638.0,-28676,-16277,47873,38405
1640.0,-28289,-16026,48180,38681
1642.0,-28323,-16245,48212,38684
1644.0,-28662,-16590,48124,38578
1646.0,-28568,-16365,48264,38702
1648.0,-28045,-15735,48615,39027
1650.0,-27850,-15545,48769,39156
1652.0,-28061,-15846,48692,39056
1654.0,-28040,-15876,48802,39126
1656.0,-27746,-15480,49143,39424
1658.0,-27680,-15249,49341,39592
1660.0,-27814,-15367,49343,39567
1662.0,-27810,-15474,49373,39573
1664.0,-27797,-15430,49396,39598
1666.0,-27956,-15351,49360,39588
1668.0,-28007,-15210,49491,39727
1670.0,-27797,-14967,49791,40014
1672.0,-27651,-14768,49889,40109
1674.0,-27750,-14713,49723,39951
1676.0,-27858,-14720,49673,39902
1678.0,-27812,-14705,49882,40105
1680.0,-27696,-14642,50077,40312
1682.0,-27538,-14483,50093,40360
1684.0,-27337,-14232,50033,40336
1686.0,-27283,-14057,49973,40316
1688.0,-27540,-14142,49885,40286
1690.0,-27889,-14409,49785,40256
1692.0,-27941,-14559,49702,40236
1694.0,-27718,-14433,49573,40169
1696.0,-27634,-14182,49363,40030
1698.0,-27854,-14038,49213,39942
1700.0,-28069,-14083,49237,40006
1702.0,-28029,-14232,49262,40067
1704.0,-27915,-14361,49068,39924
1706.0,-28043,-14517,48766,39666
1708.0,-28428,-14860,48600,39522
1710.0,-28720,-15186,48533,39473
1712.0,-28556,-15016,48370,39343
1714.03,-28154,-14514,48074,39074
1716.05,-28212,-14537,47732,38735
1718.08,-28823,-15212,47484,38485
1720.1,-29090,-15532,47519,38527
1722.1,-28512,-15053,47763,38779
1724.1,-27942,-14730,47765,38788
1726.1,-28231,-15225,47337,38368
1728.1,-28855,-15766,46930,37965
1730.1,-28947,-15633,46949,37979
1732.1,-28701,-15406,47150,38174
1734.1,-28724,-15716,47115,38140
1736.1,-28938,-16071,46832,37864
1738.1,-29042,-15944,46543,37571
1740.1,-29146,-15757,46420,37421
1742.1,-29284,-15943,46497,37464
1744.1,-29192,-16148,46636,37598
1746.1,-28962,-16071,46625,37615
1748.1,-29053,-16049,46454,37461
1750.1,-29436,-16288,46320,37310
1752.1,-29609,-16478,46337,37306
1754.1,-29459,-16475,46420,37390
1756.1,-29291,-16475,46428,37409
1758.1,-29181,-16474,46345,37332
1760.1,-29076,-16369,46319,37308
1762.1,-29138,-16347,46456,37442
1764.1,-29306,-16450,46592,37567
1766.1,-29162,-16323,46521,37498
1768.1,-28785,-16031,46363,37358
1770.1,-28808,-16151,46343,37349
1772.1,-29232,-16592,46405,37397
1774.1,-29372,-16622,46391,37361
1776.1,-29147,-16266,46326,37288
1778.1,-29146,-16219,46284,37243
1780.1,-29442,-16490,46260,37210
1782.1,-29569,-16607,46290,37227
1784.1,-29458,-16602,46369,37300
1786.1,-29363,-16616,46361,37299
1788.1,-29295,-16449,46247,37201
1790.1,-29262,-16247,46189,37158
1792.1,-29405,-16416,46247,37221
1794.1,-29485,-16630,46378,37342
1796.1,-29066,-16287,46595,37544
1798.1,-28406,-15693,46799,37748
1800.1,-28267,-15557,46759,37733
1802.1,-28781,-15863,46526,37528
1804.1,-29293,-16160,46419,37424
1806.1,-29314,-16283,46518,37511
1808.1,-29024,-16265,46598,37590
1810.1,-28864,-16140,46505,37514
1812.1,-28985,-16030,46326,37357
1814.1,-29185,-16087,46280,37322
1816.1,-29297,-16376,46448,37485
1818.1,-29360,-16747,46552,37589
1820.1,-29335,-16816,46357,37411
1822.1,-29153,-16492,46151,37218
1824.1,-29083,-16301,46263,37313
1826.1,-29321,-16496,46448,37478
1828.1,-29411,-16554,46423,37458
1830.1,-29010,-16283,46404,37450
1832.1,-28680,-16254,46540,37584
1834.13,-28918,-16514,46584,37626
1836.15,-29250,-16439,46487,37535
1838.18,-29186,-16106,46477,37522
1840.2,-29025,-16143,46481,37509
1842.2,-29090,-16424,46337,37348
1844.2,-29224,-16493,46300,37300
1846.2,-29315,-16551,46501,37498
1848.2,-29353,-16724,46524,37534
1850.2,-29130,-16499,46279,37303
1852.2,-28640,-15869,46297,37322
1854.2,-28370,-15640,46595,37622
1856.2,-28640,-16041,46540,37579
1858.2,-29140,-16457,46176,37214
1860.2,-29439,-16627,46159,37177
1862.2,-29451,-16753,46407,37422
1864.2,-29309,-16723,46380,37406
1866.2,-29163,-16442,46254,37272
1868.2,-29102,-16279,46420,37427
1870.2,-29057,-16376,46583,37617
1872.2,-28955,-16396,46406,37484
1874.2,-28939,-16345,46150,37245
1876.2,-29144,-16577,46086,37180
1878.2,-29395,-16899,46109,37200
1880.2,-29470,-16785,46140,37206
1882.2,-29361,-16329,46253,37277
1884.2,-29104,-16046,46410,37411
1886.2,-28792,-16062,46462,37462
1888.2,-28755,-16220,46389,37383
1890.2,-29122,-16501,46333,37319
1892.2,-29401,-16775,46385,37374
1894.2,-29193,-16739,46425,37420
1896.2,-28922,-16530,46317,37318
1898.2,-29131,-16680,46171,37179
1900.2,-29547,-17157,46163,37168
1902.2,-29562,-17255,46247,37231
1904.2,-29180,-16756,46269,37241
1906.2,-28877,-16284,46231,37217
1908.2,-28891,-16260,46250,37250
1910.2,-29062,-16389,46366,37356
1912.2,-29173,-16434,46485,37456
1914.2,-29184,-16572,46475,37441
1916.2,-29169,-16810,46324,37296
1918.2,-29160,-16861,46169,37147
1920.2,-29147,-16664,46145,37124
1922.2,-29198,-16453,46225,37202
1924.2,-29382,-16419,46269,37249
1926.2,-29548,-16605,46223,37208
1928.2,-29421,-16811,46196,37181
1930.2,-29000,-16644,46293,37265
1932.2,-28679,-16164,46448,37406
1934.2,-28780,-16016,46504,37458
1936.2,-29089,-16350,46415,37379
1938.2,-29168,-16483,46302,37273
1940.2,-29012,-16173,46329,37287
1942.2,-28965,-15996,46557,37485
1944.23,-29056,-16118,46837,37744
1946.25,-29040,-16064,46921,37833
1948.28,-28997,-15826,46781,37700
1950.3,-29212,-15828,46669,37574
1952.3,-29578,-16010,46747,37628
1954.3,-29704,-16048,46874,37744
1956.3,-29503,-16007,46887,37763
1958.3,-29234,-16017,46842,37725
1960.3,-29113,-15942,46835,37720
1962.3,-29163,-15803,46869,37749
1964.3,-29308,-15865,46909,37779
1966.3,-29430,-16094,46889,37756
1968.3,-29397,-16106,46763,37647
1970.3,-29179,-15795,46663,37568
1972.3,-28982,-15565,46770,37672
1974.3,-29053,-15691,46991,37876
1976.3,-29268,-15849,47091,37969
1978.3,-29252,-15690,47053,37931
1980.3,-29020,-15496,46984,37867
1982.3,-28991,-15638,46876,37790
1984.3,-29216,-15849,46779,37740
1986.3,-29244,-15775,46872,37860
1988.3,-28932,-15668,47092,38086
1990.3,-28699,-15795,47121,38129
1992.3,-28745,-15847,46947,37971
1994.3,-28716,-15567,46941,37967
1996.3,-28366,-15247,47229,38257
1998.3,-28000,-15197,47444,38483
2000.3,-28008,-15344,47268,38306
2002.3,-28375,-15585,46865,37893
2004.3,-28787,-15941,46650,37678
2006.3,-28952,-16254,46779,37805
2008.3,-28789,-16265,46974,37984
2010.3,-28536,-16098,46887,37902
2012.3,-28594,-16215,46548,37607
2014.3,-29027,-16714,46276,37375
2016.3,-29420,-17123,46227,37333
2018.3,-29444,-17137,46278,37369
2020.3,-29267,-17041,46251,37324
2022.3,-29204,-17113,46097,37151
2024.3,-29329,-17203,45927,36962
2026.3,-29531,-17186,45901,36926
2028.3,-29622,-17176,46006,37031
2030.3,-29444,-17117,46043,37083
2032.3,-29119,-16827,45955,37011
2034.3,-28970,-16512,45903,36956
2036.3,-29066,-16557,45943,36978
2038.3,-29218,-16906,45921,36955
2040.3,-29360,-17223,45766,36817
2042.3,-29488,-17393,45620,36678
2044.3,-29437,-17389,45635,36682
2046.3,-29235,-17172,45792,36822
2048.3,-29203,-16976,45958,36976
2050.3,-29328,-17058,46049,37064
2052.3,-29251,-17210,46064,37089
2054.3,-29088,-17210,45998,37039
2056.3,-29243,-17266,45880,36932
2058.3,-29483,-17436,45874,36925
2060.3,-29374,-17438,46015,37054
2062.3,-29254,-17346,45991,37022
2064.33,-29525,-17404,45658,36701
2066.35,-29731,-17336,45466,36528
2068.38,-29496,-17022,45747,36806
2070.4,-29278,-17043,46109,37150
2072.4,-29274,-17477,46196,37221
2074.4,-29068,-17500,46310,37306
2076.4,-28767,-16935,46717,37687
2078.4,-28750,-16466,47289,38327
2080.4,-28481,-16099,48053,39286
2082.4,-27451,-15322,49023,40511
2084.4,-26467,-14380,49634,41491
2086.4,-26265,-13623,49517,42079
2088.4,-26191,-12582,49197,42862
2090.4,-25630,-11022,49052,43967
2092.4,-25029,-9482,48650,44770
2094.4,-24682,-8058,47898,45269
2096.4,-24272,-6371,47395,46123
2098.4,-23842,-4899,47117,47091
2100.4,-23686,-4587,46290,47148
2102.4,-23624,-5340,44796,46119
2104.4,-23558,-6409,43306,44682
2106.4,-24003,-7712,42115,43052
2108.4,-25197,-9492,41066,41065
2110.4,-26549,-11386,40288,39085
2112.4,-27559,-12884,40010,37570
2114.4,-28475,-14108,39975,36205
2116.4,-29667,-15334,39830,34539
2118.4,-30910,-16313,39790,33088
2120.4,-31578,-16637,40314,32768
2122.4,-31367,-16400,41342,33539
2124.4,-30680,-16128,42337,34481
2126.4,-30182,-16182,42977,35038
2128.4,-30005,-16411,43412,35389
2130.4,-29795,-16526,43868,35772
2132.4,-29462,-16610,44334,36132
2134.4,-29234,-16841,44676,36378
2136.4,-29089,-16996,44826,36491
2138.4,-28917,-16906,44857,36480
2140.4,-28937,-16935,44960,36466
2142.4,-29203,-17252,45212,36576
2144.4,-29301,-17416,45382,36656
2146.4,-29174,-17328,45237,36469
2148.4,-29354,-17502,44981,36172
2150.4,-29852,-17909,45019,36170
2152.4,-29907,-17836,45358,36494
2154.4,-29239,-17207,45622,36765
2156.4,-28543,-16764,45583,36742
2158.4,-28462,-16856,45385,36559
2160.4,-28882,-17166,45288,36461
2162.4,-29332,-17480,45367,36513
2164.4,-29520,-17785,45481,36594
2166.4,-29446,-17910,45496,36594
2168.4,-29340,-17792,45465,36553
2170.4,-29440,-17730,45481,36552
2172.4,-29657,-17849,45523,36587
2174.43,-29606,-17833,45567,36651
2176.45,-29164,-17552,45623,36738
2178.48,-28821,-17388,45597,36727
2180.5,-29100,-17627,45413,36543
2182.5,-29747,-18036,45258,36380
2184.5,-29996,-18219,45354,36459
2186.5,-29597,-18022,45581,36678
2188.5,-29082,-17599,45658,36773
2190.5,-29012,-17354,45560,36693
2192.5,-29398,-17582,45499,36616
2194.5,-29807,-18024,45614,36708
2196.5,-29782,-18157,45808,36913
2198.5,-29310,-17913,45855,36988
2200.5,-28893,-17638,45690,36824
2202.5,-28928,-17499,45549,36651
2204.5,-29188,-17418,45672,36733
2206.5,-29217,-17366,45946,36976
2208.5,-29018,-17376,46056,37080
2210.5,-28973,-17443,45914,36957
2212.5,-29220,-17550,45753,36816
2214.5,-29422,-17640,45803,36868
2216.5,-29292,-17681,45985,37055
2218.5,-29070,-17790,46028,37114
2220.5,-29092,-17935,45887,36974
2222.5,-29163,-17756,45832,36904
2224.5,-28967,-17236,46000,37066
2226.5,-28799,-17049,46142,37217
2228.5,-29017,-17504,46048,37133
2230.5,-29197,-17840,45922,37010
2232.5,-28835,-17445,46029,37117
2234.5,-28377,-16926,46288,37361
2236.5,-28484,-17045,46432,37484
2238.5,-28869,-17471,46383,37419
2240.5,-28897,-17538,46263,37294
2242.5,-28687,-17337,46214,37244
2244.5,-28649,-17217,46280,37308
2246.5,-28637,-17104,46421,37436
2248.5,-28408,-16941,46574,37562
2250.5,-28281,-17003,46667,37627
2252.5,-28578,-17339,46643,37598
2254.5,-28946,-17570,46590,37564
2256.5,-28892,-17468,46687,37684
2258.5,-28548,-17234,46887,37899
2260.5,-28309,-17118,46962,37971
2262.5,-28181,-17082,46913,37905
2264.5,-28080,-16964,46938,37907
2266.5,-28227,-16853,47025,37987
2268.5,-28594,-16969,47076,38047
2270.5,-28636,-17194,47166,38150
2272.5,-28241,-17172,47299,38289
2274.5,-28044,-16926,47332,38324
2276.5,-28267,-16808,47377,38362
2278.5,-28330,-16853,47638,38602
2280.5,-27992,-16818,47896,38826
2282.5,-27749,-16742,47875,38763
2284.5,-27879,-16840,47830,38680
2286.5,-28079,-16980,48078,38903
2288.5,-28088,-16846,48409,39220
2290.5,-27942,-16490,48527,39326
2292.6,-27738,-16257,48528,39316
2294.6,-27617,-16300,48574,39351
2296.6,-27734,-16493,48651,39395
2298.6,-27991,-16647,48769,39442
2300.6,-28091,-16635,48941,39549
2302.6,-27968,-16465,49045,39643
2304.6,-27775,-16228,49059,39673
2306.6,-27447,-15837,49207,39813
2308.6,-26873,-15201,49566,40163
2310.6,-26466,-14725,49839,40459
2312.6,-26753,-14926,49773,40415
2314.6,-27378,-15478,49566,40198
2316.6,-27464,-15552,49602,40220
2318.6,-26922,-15077,49934,40556
2320.6,-26464,-14682,50255,40873
2322.6,-26455,-14634,50321,40924
2324.6,-26676,-14737,50174,40782
2326.6,-26971,-14918,49999,40625
2328.6,-27315,-15123,49956,40581
2330.6,-27513,-15132,50111,40733
2332.6,-27441,-14938,50305,40965
2334.6,-27261,-14765,50252,40976
2336.6,-27092,-14595,49981,40758
2338.6,-26880,-14298,49862,40690
2340.6,-26733,-14048,50003,40895
2342.6,-26817,-14042,50073,41026
2344.6,-27000,-14177,49866,40871
2346.6,-27164,-14363,49551,40625
2348.6,-27469,-14647,49358,40503
2350.6,-27787,-14854,49362,40528
2352.6,-27677,-14789,49398,40559
2354.6,-27372,-14748,49207,40392
2356.6,-27548,-15038,48851,40078
2358.6,-27973,-15298,48642,39889
2360.6,-27962,-15167,48526,39793
2362.6,-27768,-15040,48268,39567
2364.6,-27900,-15315,48053,39364
2366.6,-28031,-15653,48036,39339
2368.6,-27978,-15757,47878,39186
2370.6,-28207,-15877,47509,38833
2372.6,-28578,-16088,47394,38721
2374.6,-28517,-16211,47536,38869
2376.6,-28363,-16402,47442,38791
2378.6,-28580,-16691,47149,38491
2380.6,-28584,-16543,47071,38380
2382.6,-28082,-15946,47118,38416
2384.6,-27938,-15789,47033,38344
2386.6,-28452,-16296,46964,38273
2388.6,-28730,-16600,46974,38271
2390.6,-28472,-16405,46809,38112
2392.6,-28435,-16403,46531,37820
2394.6,-28834,-16801,46504,37738
2396.6,-28999,-16994,46683,37885
2398.6,-28643,-16780,46725,37949
2400.6,-28221,-16566,46636,37871
2402.6,-28090,-16480,46637,37843
2404.63,-28163,-16321,46708,37904
2406.65,-28294,-16227,46709,37941
2408.68,-28474,-16506,46629,37902
2410.7,-28667,-16958,46512,37800
2412.7,-28751,-17088,46419,37709
2414.7,-28704,-16893,46431,37724
2416.7,-28668,-16776,46478,37792
2418.7,-28708,-16858,46421,37766
2420.7,-28700,-16920,46326,37676
2422.7,-28624,-16917,46334,37649
2424.7,-28663,-17000,46405,37671
2426.7,-28809,-17156,46473,37704
2428.7,-28793,-17206,46548,37760
2430.7,-28611,-17096,46548,37765
2432.7,-28552,-16923,46425,37667
2434.7,-28637,-16772,46363,37625
2436.7,-28664,-16724,46460,37727
2438.7,-28698,-16867,46523,37800
2440.7,-28846,-17133,46439,37739
2442.7,-28904,-17283,46324,37649
2444.7,-28770,-17206,46253,37597
2446.7,-28657,-16998,46273,37615
2448.7,-28625,-16792,46463,37765
2450.7,-28563,-16739,46666,37914
2452.7,-28520,-16911,46622,37844
2454.7,-28519,-17047,46449,37671
2456.7,-28494,-16939,46441,37659
2458.7,-28631,-16962,46525,37732
2460.7,-28997,-17434,46473,37692
2462.7,-29141,-17837,46342,37595
2464.7,-28879,-17633,46274,37552
2466.7,-28697,-17179,46274,37552
2468.7,-28759,-16998,46353,37623
2470.7,-28684,-17032,46478,37753
2472.7,-28484,-17064,46480,37760
2474.7,-28455,-17023,46347,37622
2476.7,-28434,-16831,46347,37606
2478.7,-28262,-16610,46578,37813
2480.7,-28246,-16650,46765,37972
2482.7,-28454,-16866,46681,37883
2484.7,-28515,-16941,46448,37686
2486.7,-28391,-16949,46324,37612
2488.7,-28401,-17076,46383,37696
2490.7,-28505,-17058,46512,37828
2492.7,-28406,-16671,46611,37930
2494.7,-28199,-16342,46643,37958
2496.7,-28239,-16516,46552,37848
2498.7,-28507,-16899,46375,37651
2500.7,-28653,-17020,46329,37581
2502.7,-28569,-17008,46480,37695
2504.7,-28460,-17129,46553,37744
2506.7,-28429,-17183,46387,37592
2508.7,-28450,-17052,46226,37464
2510.7,-28577,-17086,46293,37564
2512.7,-28757,-17391,46455,37764
2514.7,-28724,-17515,46470,37810
2516.7,-28454,-17246,46294,37637
2518.7,-28287,-16946,46125,37458
2520.7,-28386,-16902,46210,37538
2522.8,-28533,-17010,46493,37796
2524.8,-28550,-17106,46600,37852
2526.8,-28509,-17136,46398,37621
2528.8,-28514,-17109,46226,37456
2530.8,-28596,-17104,46311,37535
2532.8,-28761,-17213,46420,37619
2534.8,-28944,-17400,46305,37506
2536.8,-29023,-17530,46077,37310
2538.8,-28943,-17512,45977,37229
2540.8,-28749,-17336,46110,37362
2542.8,-28493,-17048,46381,37637
2544.8,-28251,-16808,46538,37803
2546.8,-28197,-16851,46429,37698
2548.8,-28406,-17144,46238,37508
2550.8,-28642,-17319,46239,37506
2552.8,-28636,-17212,46393,37657
2554.8,-28491,-17134,46453,37724
2556.8,-28482,-17292,46337,37622
2558.8,-28594,-17431,46187,37487
2560.8,-28591,-17293,46156,37478
2562.8,-28417,-17003,46263,37609
2564.8,-28272,-16846,46373,37713
2566.8,-28314,-16941,46322,37614
2568.8,-28473,-17155,46112,37347
2570.8,-28664,-17313,45927,37132
2572.8,-28936,-17468,45926,37126
2574.8,-29151,-17685,46094,37295
2576.8,-28916,-17714,46292,37490
2578.8,-28254,-17343,46366,37571
2580.8,-27794,-16846,46269,37508
2582.8,-27901,-16620,46134,37417
2584.8,-28279,-16735,46123,37424
2586.8,-28619,-17065,46205,37505
2588.8,-28825,-17390,46209,37519
2590.8,-28754,-17408,46112,37417
2592.8,-28449,-17091,46092,37343
2594.8,-28259,-16844,46243,37443
2596.8,-28292,-16991,46370,37587
2598.8,-28372,-17404,46239,37500
2600.8,-28517,-17721,45972,37233
2602.8,-28728,-17692,45934,37176
2604.8,-28699,-17367,46177,37431
2606.8,-28390,-17064,46349,37640
2608.8,-28231,-17024,46275,37604
2610.8,-28383,-17140,46187,37548
2612.8,-28542,-17152,46274,37630
2614.8,-28557,-16949,46441,37737
2616.8,-28513,-16624,46581,37806
2618.8,-28421,-16400,46664,37864
2620.8,-28366,-16474,46639,37840
2622.8,-28546,-16783,46560,37751
2624.8,-28834,-17029,46598,37789
2626.8,-28829,-17005,46757,37976
2628.8,-28475,-16749,46859,38098
2630.8,-28165,-16454,46836,38058
2632.8,-28243,-16361,46743,37933
2634.83,-28627,-16563,46643,37811
2636.85,-28860,-16769,46645,37804
2638.88,-28621,-16614,46791,37950
2640.9,-28208,-16280,46871,38035
2642.9,-28110,-16209,46750,37912
2644.9,-28240,-16287,46672,37822
2646.9,-28262,-16129,46843,37987
2648.9,-28250,-15905,47055,38208
2650.9,-28327,-15972,47057,38228
2652.9,-28343,-16176,46885,38076
2654.9,-28347,-16251,46712,37933
2656.9,-28442,-16232,46739,37997
2658.9,-28284,-16170,47033,38327
2660.9,-27794,-16123,47274,38605
2662.9,-27611,-16219,47128,38498
2664.9,-27855,-16217,46889,38286
2666.9,-27795,-15769,47053,38458
2668.9,-27364,-15339,47425,38832
2670.9,-27300,-15648,47447,38865
2672.9,-27644,-16409,47124,38561
2674.9,-27858,-16865,46867,38307
2676.9,-28016,-16994,46766,38168
2678.9,-28301,-17084,46649,37985
2680.9,-28312,-17030,46517,37819
2682.9,-27996,-16877,46483,37803
2684.9,-27973,-17011,46508,37845
2686.9,-28327,-17384,46474,37792
2688.9,-28468,-17516,46357,37656
2690.9,-28289,-17366,46196,37494
2692.9,-28183,-17337,46033,37328
2694.9,-28260,-17528,45939,37229
2696.9,-28426,-17683,45967,37270
2698.9,-28680,-17726,46052,37377
2700.9,-28913,-17821,46050,37385
2702.9,-28962,-17974,45909,37241
2704.9,-28858,-17988,45733,37046
2706.9,-28680,-17836,45667,36946
2708.9,-28554,-17796,45740,36995
2710.9,-28675,-17985,45848,37102
2712.9,-28851,-18054,45883,37133
2714.9,-28626,-17760,45838,37081
2716.9,-28210,-17445,45787,37036
2718.9,-28207,-17440,45817,37070
2720.9,-28434,-17537,45951,37182
2722.9,-28351,-17553,46060,37277
2724.9,-28181,-17655,45968,37223
2726.9,-28263,-17762,45755,37079
2728.9,-28243,-17578,45716,37079
2730.9,-27977,-17303,45900,37257
2732.9,-27983,-17350,46010,37335
2734.9,-28357,-17567,45886,37169
2736.9,-28610,-17626,45726,36982
2738.9,-28684,-17655,45717,36975
2740.9,-28822,-17838,45789,37046
2742.9,-28830,-18057,45844,37060
2744.9,-28548,-18204,45935,37112
2746.9,-28336,-18187,46179,37376
2748.9,-28285,-17707,46642,37932
2750.9,-27872,-16708,47321,38788
2752.9,-26961,-15698,48113,39831
2754.93,-26136,-15129,48821,40824
2756.95,-25734,-14798,49255,41666
2758.98,-25475,-14177,49346,42521
2761.0,-25131,-13031,49138,43473
2763.0,-24766,-11556,48705,44321
2765.0,-24381,-10022,48132,44963
2767.0,-23914,-8453,47572,45619
2769.0,-23454,-6929,47101,46345
2771.0,-23143,-6033,46475,46670
2773.0,-23057,-6300,45334,46135
2775.0,-23235,-7364,43781,44916
2777.0,-23684,-8490,42369,43485
2779.0,-24410,-9641,41386,41926
2781.0,-25403,-11153,40629,40099
2783.0,-26506,-12873,39953,38188
2785.0,-27582,-14494,39484,36445
2787.0,-28779,-16069,39239,34746
2789.0,-30127,-17496,39140,33109
2791.0,-31065,-18271,39404,32222
2793.0,-31043,-18230,40255,32584
2795.0,-30336,-17823,41341,33589
2797.0,-29655,-17474,42068,34291
2799.0,-29348,-17323,42414,34601
2801.0,-29309,-17433,42832,35010
2803.0,-29219,-17637,43506,35641
2805.0,-28801,-17555,44190,36224
2807.0,-28230,-17249,44631,36571
2809.0,-28039,-17272,44801,36672
2811.0,-28327,-17757,44863,36637
2813.0,-28587,-18170,45016,36662
2815.0,-28507,-18193,45237,36796
2817.0,-28343,-18126,45293,36822
2819.0,-28378,-18234,45120,36627
2821.0,-28525,-18318,44977,36440
2823.0,-28592,-18195,45058,36483
2825.0,-28639,-18119,45230,36641
2827.0,-28724,-18293,45315,36736
2829.0,-28527,-18324,45368,36828
2831.0,-27857,-17856,45495,36981
2833.0,-27364,-17388,45597,37041
2835.0,-27703,-17549,45553,36916
2837.0,-28334,-18017,45462,36790
2839.0,-28382,-18201,45449,36798
2841.0,-28097,-18247,45450,36809
2843.0,-28177,-18411,45398,36737
2845.0,-28470,-18440,45399,36724
2847.0,-28509,-18296,45475,36819
2849.0,-28384,-18318,45460,36850
2851.0,-28322,-18379,45324,36743
2853.0,-28284,-18127,45262,36658
2855.0,-28279,-17838,45400,36738
2857.0,-28320,-17893,45664,36962
2859.0,-28200,-18010,45871,37166
2861.0,-27928,-17903,45822,37133
2863.0,-27903,-17836,45555,36882
2865.03,-28167,-17953,45458,36792
2867.05,-28210,-18014,45710,37039
2869.08,-27946,-18040,45904,37234
2871.1,-27946,-18229,45771,37126
2873.1,-28280,-18332,45674,37063
2875.1,-28317,-18038,45814,37226
2877.1,-27998,-17685,45843,37259
2879.1,-27941,-17742,45688,37078
2881.1,-28139,-17987,45688,37023
2883.1,-28045,-17997,45815,37101
2885.1,-27792,-17927,45826,37091
2887.1,-27871,-18101,45855,37130
2889.1,-28086,-18323,45999,37296
2891.1,-28046,-18235,45995,37300
2893.1,-27923,-17911,45834,37109
2895.1,-27885,-17655,45818,37044
2897.1,-27754,-17572,45922,37124
2899.1,-27618,-17627,45972,37181
2901.1,-27778,-17764,46096,37325
2903.1,-28025,-17835,46325,37573
2905.1,-27878,-17709,46365,37636
2907.1,-27416,-17465,46191,37484
2909.1,-27182,-17309,46128,37422
2911.1,-27398,-17368,46225,37503
2913.1,-27748,-17632,46272,37544
2915.1,-27889,-17920,46253,37530
2917.1,-27870,-17966,46262,37519
2919.1,-27878,-17724,46295,37510
2921.1,-27827,-17482,46416,37634
2923.1,-27549,-17465,46661,37949
2925.1,-27247,-17562,46792,38144
2927.1,-27307,-17638,46645,38005
2929.1,-27706,-17795,46500,37832
2931.1,-27975,-18019,46623,37912
2933.1,-27780,-18012,46845,38075
2935.1,-27332,-17729,46926,38113
2937.1,-27099,-17537,46913,38104
2939.1,-27202,-17544,46964,38162
2941.1,-27340,-17429,47122,38290
2943.1,-27310,-17151,47310,38446
2945.1,-27219,-17047,47417,38550
2947.1,-27169,-17170,47432,38554
2949.1,-27152,-17261,47454,38544
2951.1,-27174,-17252,47537,38610
2953.1,-27188,-17193,47663,38735
2955.1,-27062,-17030,47817,38879
2957.1,-26841,-16866,47925,38981
2959.1,-26766,-16936,47904,38964
2961.1,-26879,-17089,47904,38943
2963.1,-26933,-16960,48155,39139
2965.1,-26784,-16671,48510,39458
2967.1,-26587,-16638,48619,39564
2969.1,-26489,-16776,48516,39457
2971.1,-26378,-16620,48539,39474
2973.1,-26120,-16152,48781,39727
2975.1,-25924,-15882,49049,40007
2977.1,-26105,-16106,49184,40138
2979.1,-26519,-16465,49164,40111
2981.1,-26673,-16419,49095,40035
2983.1,-26455,-16001,49170,40085
2985.13,-26226,-15736,49408,40306
2987.15,-26164,-15814,49573,40480
2989.18,-26109,-15870,49529,40421
2991.2,-26052,-15692,49449,40279
2993.2,-26166,-15518,49541,40319
2995.2,-26361,-15518,49757,40544
2997.2,-26361,-15532,49882,40712
2999.2,-26157,-15391,49829,40687
3001.2,-25974,-15164,49784,40645
3003.2,-25913,-15043,49931,40788
3005.2,-25913,-15056,50118,41002
3007.2,-25888,-14961,50115,41068
3009.2,-25789,-14649,50025,41047
3011.2,-25717,-14492,50007,41078
3013.2,-25829,-14740,49951,41075
3015.2,-25959,-14869,49837,41015
3017.2,-25735,-14384,49889,41089
3019.2,-25332,-13849,50043,41259
3021.2,-25432,-14107,49914,41179
3023.2,-26133,-14894,49497,40806
3025.2,-26677,-15283,49228,40537
3027.2,-26547,-15064,49273,40582
3029.2,-26103,-14771,49317,40668
3031.2,-25921,-14776,49074,40471
3033.2,-26141,-15004,48663,40071
3035.2,-26539,-15236,48431,39822
3037.2,-26823,-15340,48486,39854
3039.2,-26860,-15388,48515,39879
3041.2,-26788,-15525,48233,39627
3043.2,-26849,-15744,47817,39240
3045.2,-27132,-15992,47597,38998
3047.2,-27501,-16339,47581,38938
3049.2,-27691,-16731,47582,38931
3051.2,-27571,-16931,47507,38873
3053.2,-27375,-16919,47347,38710
3055.2,-27404,-16901,47177,38522
3057.2,-27534,-16883,47142,38475
3059.2,-27436,-16743,47196,38519
3061.2,-27206,-16577,47110,38410
3063.2,-27236,-16556,46872,38152
3065.2,-27559,-16695,46728,37988
3067.2,-27802,-16925,46749,37982
3069.2,-27730,-17126,46788,38013
3071.2,-27518,-17178,46761,38023
3073.2,-27490,-17174,46650,37957
3075.2,-27694,-17268,46472,37777
3077.2,-27835,-17310,46428,37685
3079.2,-27716,-17161,46669,37882
3081.2,-27531,-17088,46929,38130
3083.2,-27470,-17181,46880,38096
3085.2,-27385,-17010,46684,37922
3087.2,-27219,-16562,46676,37926
3089.2,-27268,-16549,46785,38042
3091.2,-27571,-17092,46754,38030
3093.2,-27656,-17369,46596,37889
3095.23,-27363,-17079,46471,37765
3097.25,-27159,-16852,46444,37729
3099.28,-27258,-16948,46534,37821
3101.3,-27290,-17018,46716,38013
3103.3,-27170,-17065,46812,38121
3105.3,-27322,-17315,46669,37991
3107.3,-27755,-17469,46460,37784
3109.3,-27874,-17171,46510,37805
3111.3,-27499,-16783,46782,38030
3113.3,-27221,-16875,46874,38083
3115.3,-27454,-17351,46626,37832
3117.3,-27844,-17641,46403,37636
3119.3,-27932,-17530,46519,37777
3121.3,-27790,-17373,46763,38022
3123.3,-27710,-17500,46776,38039
3125.3,-27729,-17722,46569,37859
3127.3,-27751,-17651,46399,37711
3129.3,-27774,-17347,46417,37724
3131.3,-27744,-17194,46588,37894
3133.3,-27524,-17244,46758,38079
3135.3,-27212,-17243,46758,38082
3137.3,-27187,-17203,46591,37897
3139.3,-27553,-17334,46446,37735
3141.3,-27890,-17506,46476,37756
3143.3,-27819,-17450,46664,37936
3145.3,-27498,-17294,46842,38120
3147.3,-27328,-17316,46816,38114
3149.3,-27464,-17452,46587,37895
3151.3,-27722,-17494,46407,37708
3153.3,-27761,-17407,46451,37738
3155.3,-27401,-17209,46589,37865
3157.3,-26894,-16906,46669,37929
3159.3,-26704,-16641,46742,37987
3161.3,-26976,-16620,46844,38088
3163.3,-27411,-16898,46874,38129
3165.3,-27651,-17291,46780,38054
3167.3,-27604,-17482,46633,37931
3169.3,-27450,-17356,46517,37827
3171.3,-27397,-17179,46534,37825
3173.3,-27447,-17214,46689,37955
3175.3,-27480,-17360,46744,38018
3177.3,-27495,-17433,46520,37822
3179.3,-27571,-17488,46265,37570
3181.3,-27698,-17617,46305,37585
3183.3,-27795,-17747,46520,37782
3185.3,-27770,-17774,46601,37871
3187.3,-27600,-17688,46525,37810
3189.3,-27446,-17549,46436,37729
3191.3,-27516,-17462,46406,37695
3193.3,-27725,-17487,46471,37751
3195.3,-27777,-17572,46580,37858
3197.3,-27645,-17630,46554,37848
3199.3,-27607,-17658,46368,37686
3201.3,-27764,-17671,46252,37581
3203.3,-27832,-17576,46370,37685
3205.3,-27568,-17296,46599,37890
3207.3,-27240,-17078,46683,37970
3209.3,-27358,-17340,46504,37813
3211.3,-27859,-17957,46281,37613
3213.3,-28062,-18214,46350,37690
3215.33,-27741,-17891,46603,37944
3217.35,-27502,-17642,46577,37913
3219.38,-27673,-17795,46270,37587
3221.4,-27781,-17819,46163,37450
3223.4,-27561,-17428,46369,37629
3225.4,-27391,-17091,46560,37809
3227.4,-27424,-17118,46634,37891
3229.4,-27406,-17306,46654,37927
3231.4,-27381,-17516,46501,37783
3233.4,-27543,-17718,46242,37528
3235.4,-27657,-17733,46262,37559
3237.4,-27524,-17590,46547,37854
3239.4,-27438,-17602,46616,37913
3241.4,-27547,-17760,46397,37671
3243.4,-27577,-17748,46325,37586
3245.4,-27496,-17615,46491,37755
3247.4,-27543,-17650,46541,37822
3249.4,-27602,-17743,46379,37692
3251.4,-27464,-17613,46288,37622
3253.4,-27388,-17390,46393,37700
3255.4,-27631,-17411,46498,37748
3257.4,-27913,-17718,46441,37673
3259.4,-27894,-18046,46295,37565
3261.4,-27711,-18101,46203,37506
3263.4,-27695,-17874,46181,37462
3265.4,-27879,-17695,46199,37433
3267.4,-27937,-17724,46299,37514
3269.4,-27644,-17673,46450,37685
3271.4,-27296,-17468,46490,37751
3273.4,-27333,-17521,46407,37675
3275.4,-27634,-17883,46393,37651
3277.4,-27810,-18076,46447,37700
3279.4,-27929,-18037,46377,37635
3281.4,-28127,-18044,46245,37501
3283.4,-28007,-17798,46339,37564
3285.4,-27369,-17002,46671,37854
3287.4,-26862,-16398,46968,38127
3289.4,-27006,-16635,47065,38209
3291.4,-27381,-17007,46977,38103
3293.4,-27530,-16859,46782,37908
3295.4,-27690,-16862,46624,37782
3297.4,-27968,-17392,46683,37860
3299.4,-27877,-17472,46963,38114
3301.4,-27323,-16709,47197,38315
3303.4,-27037,-16250,47118,38229
3305.4,-27460,-16720,46842,37935
3307.4,-28046,-17242,46761,37809
3309.4,-28076,-17167,46958,37994
3311.4,-27556,-16867,47102,38183
3313.4,-27037,-16655,47012,38132
3315.4,-26968,-16474,46893,38012
3317.4,-27321,-16443,46928,38046
3319.4,-27676,-16616,47052,38174
3321.4,-27688,-16714,47119,38233
3323.4,-27479,-16670,47029,38152
3325.4,-27401,-16734,46824,37995
3327.4,-27481,-16875,46758,37968
3329.4,-27405,-16815,46984,38194
3331.4,-27088,-16601,47264,38486
3333.5,-26869,-16536,47325,38586
3335.5,-26926,-16636,47256,38536
3337.5,-26997,-16650,47234,38513
3339.5,-26961,-16571,47221,38507
3341.5,-27078,-16702,47135,38423
3343.5,-27403,-17113,46981,38252
3345.5,-27655,-17483,46746,38011
3347.5,-27760,-17625,46509,37773
3349.5,-27779,-17656,46504,37747
3351.5,-27566,-17587,46754,37985
3353.5,-27224,-17399,46902,38154
3355.5,-27236,-17412,46699,37977
3357.5,-27593,-17796,46354,37644
3359.5,-27717,-18084,46185,37482
3361.5,-27466,-17888,46249,37536
3363.5,-27203,-17559,46409,37662
3365.5,-27076,-17558,46436,37679
3367.5,-27148,-17794,46178,37446
3369.5,-27572,-17991,45853,37122
3371.5,-28089,-18129,45799,37037
3373.5,-28198,-18265,45939,37168
3375.5,-27916,-18298,46025,37281
3377.5,-27549,-18127,46155,37433
3379.5,-27207,-17897,46356,37642
3381.5,-27124,-17886,46304,37595
3383.5,-27534,-18154,46019,37315
3385.5,-28003,-18477,45926,37224
3387.5,-28001,-18637,45967,37265
3389.5,-27805,-18567,45816,37105
3391.5,-27821,-18294,45750,37021
3393.5,-27769,-17963,46081,37347
3395.5,-27470,-17834,46347,37632
3397.5,-27379,-18030,46152,37460
3399.5,-27673,-18338,45890,37211
3401.5,-27914,-18502,45901,37225
3403.5,-27963,-18603,45907,37220
3405.5,-28079,-18741,45757,37050
3407.5,-28099,-18609,45755,37039
3409.5,-27771,-18151,45970,37256
3411.5,-27607,-18128,46019,37292
3413.5,-28058,-18881,45843,37083
3415.5,-28422,-19364,46005,37208
3417.5,-27929,-18737,46761,37949
3419.5,-27078,-17711,47497,38743
3421.5,-26613,-17061,47785,39200
3423.5,-26293,-16467,48203,39844
3425.5,-25705,-15709,49170,41108
3427.5,-25033,-15061,49943,42484
3429.5,-24436,-14218,49758,43375
3431.5,-23880,-12729,48943,43889
3433.5,-23609,-11084,48136,44350
3435.5,-23711,-9777,47486,44919
3437.5,-23680,-8431,47000,45722
3439.5,-23192,-7040,46594,46534
3441.5,-22597,-6462,45809,46651
3443.5,-22300,-6959,44409,45774
3445.53,-22432,-7927,42924,44433
3447.55,-23085,-9195,41891,43043
3449.58,-24123,-10954,41118,41371
3451.6,-25116,-12811,40262,39319
3453.6,-25997,-14291,39513,37318
3455.6,-27204,-15574,39190,35622
3457.6,-28746,-16825,39237,34092
3459.6,-29892,-17735,39519,32926
3461.6,-30148,-18188,40106,32670
3463.6,-29850,-18407,40926,33251
3465.6,-29520,-18405,41657,33944
3467.6,-29249,-18178,42248,34452
3469.6,-28904,-18059,42981,35082
3471.6,-28481,-18224,43811,35814
3473.6,-28077,-18357,44321,36216
3475.6,-27814,-18264,44478,36289
3477.6,-27826,-18249,44665,36434
3479.6,-28138,-18617,44945,36661
3481.6,-28487,-19142,45053,36683
3483.6,-28460,-19250,45031,36575
3485.6,-27991,-18737,45160,36638
3487.6,-27544,-18134,45416,36842
3489.6,-27502,-18047,45575,36964
3491.6,-27639,-18312,45605,36974
3493.6,-27608,-18378,45568,36924
3495.6,-27572,-18301,45439,36793
3497.6,-27821,-18582,45297,36662
3499.6,-28167,-19164,45319,36686
3501.6,-28226,-19404,45466,36800
3503.6,-27953,-19053,45537,36830
3505.6,-27616,-18578,45530,36807
3507.6,-27516,-18442,45596,36865
3509.6,-27755,-18590,45721,36969
3511.6,-28044,-18708,45771,37003
3513.6,-27987,-18657,45706,36951
3515.6,-27712,-18600,45593,36857
3517.6,-27716,-18743,45535,36806
3519.6,-28013,-19019,45618,36893
3521.6,-28160,-19179,45765,37041
3523.6,-28065,-19182,45789,37048
3525.6,-27991,-19150,45673,36906
3527.6,-27948,-19045,45585,36805
3529.6,-27808,-18802,45598,36812
3531.6,-27708,-18596,45666,36873
3533.6,-27786,-18604,45774,36982
3535.6,-27871,-18722,45872,37099
3537.6,-27760,-18731,45880,37125
3539.6,-27525,-18566,45880,37123
3541.6,-27385,-18379,46005,37226
3543.6,-27434,-18379,46136,37331
3545.6,-27585,-18589,46041,37222
3547.6,-27783,-18831,45756,36933
3549.6,-28074,-19003,45582,36750
3551.6,-28307,-19171,45757,36911
3553.6,-28192,-19337,46146,37301
3555.6,-27832,-19352,46286,37469
3557.6,-27613,-19102,45988,37202
3559.6,-27558,-18717,45707,36923
3561.6,-27492,-18530,45880,37062
3563.6,-27511,-18655,46232,37363
3565.63,-27601,-18750,46302,37396
3567.65,-27475,-18580,46166,37252
3569.68,-27279,-18470,46121,37218
3571.7,-27450,-18665,46205,37315
3573.7,-27768,-18815,46328,37450
3575.7,-27738,-18698,46391,37529
3577.7,-27561,-18642,46308,37466
3579.7,-27553,-18696,46233,37393
3581.7,-27434,-18432,46393,37526
3583.7,-27134,-17995,46625,37730
3585.7,-27152,-18090,46629,37733
3587.7,-27559,-18726,46490,37606
3589.7,-27898,-19201,46405,37520
3591.7,-28060,-19222,46339,37445
3593.7,-28085,-18972,46359,37467
3595.7,-27662,-18515,46657,37773
3597.7,-26895,-18034,47025,38147
3599.7,-26583,-17960,47054,38182
3601.7,-26979,-18282,46844,37977
3603.7,-27377,-18491,46837,37955
3605.7,-27336,-18456,47068,38155
3607.7,-27166,-18488,47212,38284
3609.7,-27113,-18577,47169,38257
3611.7,-27088,-18459,47165,38262
3613.7,-27086,-18236,47353,38421
3615.7,-27135,-18168,47598,38628
3617.7,-27141,-18187,47651,38683
3619.7,-27156,-18213,47481,38532
3621.7,-27299,-18336,47358,38386
3623.7,-27321,-18332,47573,38537
3625.7,-26915,-17879,48076,38991
3627.7,-26379,-17360,48483,39387
3629.7,-26242,-17385,48507,39403
3631.7,-26472,-17727,48331,39193
3633.7,-26690,-17808,48365,39179
3635.7,-26798,-17756,48645,39424
3637.7,-26869,-17916,48800,39561
3639.7,-26803,-18017,48691,39441
3641.7,-26567,-17723,48637,39373
3643.7,-26440,-17348,48851,39561
3645.7,-26596,-17316,49143,39816
3647.7,-26682,-17414,49340,39978
3649.7,-26299,-17144,49501,40124
3651.7,-25775,-16581,49608,40236
3653.7,-25767,-16344,49572,40208
3655.7,-26140,-16600,49557,40192
3657.7,-26158,-16788,49778,40413
3659.7,-25789,-16634,50033,40680
3661.7,-25717,-16566,49967,40632
3663.7,-26063,-16736,49707,40384
3665.7,-26294,-16719,49688,40363
3667.7,-26268,-16476,49941,40607
3669.7,-26286,-16453,50077,40750
3671.7,-26380,-16616,49938,40647
3673.7,-26377,-16486,49778,40532
3675.73,-26288,-16054,49810,40595
3677.75,-26152,-15753,49972,40783
3679.78,-25958,-15758,50107,40964
3681.8,-25892,-15913,50086,41007
3683.8,-26139,-16046,49852,40829
3685.8,-26528,-16064,49561,40574
3687.8,-26735,-15995,49484,40525
3689.8,-26649,-15964,49606,40689
3691.8,-26380,-15947,49595,40729
3693.8,-26190,-15828,49296,40469
3695.8,-26360,-15800,48952,40148
3697.8,-26783,-16122,48824,40050
3699.8,-26951,-16485,48864,40138
3701.8,-26677,-16434,48832,40146
3703.8,-26414,-16229,48582,39900
3705.8,-26526,-16314,48231,39535
3707.8,-26777,-16435,48050,39350
3709.8,-26896,-16305,48082,39394
3711.8,-26981,-16324,48054,39391
3713.8,-27070,-16672,47849,39214
3715.8,-27014,-16827,47706,39088
3717.8,-26938,-16704,47737,39125
3719.8,-27143,-16975,47694,39089
3721.8,-27528,-17752,47406,38808
3723.8,-27750,-18264,47023,38424
3725.8,-27783,-18097,46767,38159
3727.8,-27795,-17703,46746,38121
3729.8,-27758,-17549,46910,38266
3731.8,-27602,-17583,47025,38363
3733.8,-27471,-17662,46906,38237
3735.8,-27516,-17866,46701,38036
3737.8,-27679,-18157,46631,37969
3739.8,-27836,-18233,46622,37954
3741.8,-27973,-18087,46529,37856
3743.8,-28086,-18140,46424,37761
3745.8,-28090,-18444,46385,37741
3747.8,-27951,-18485,46360,37722
3749.8,-27787,-18095,46389,37743
3751.8,-27698,-17775,46549,37893
3753.8,-27678,-17871,46645,37987
3755.8,-27766,-18154,46426,37768
3757.8,-27965,-18252,46087,37432
3759.8,-28034,-18024,46088,37436
3761.8,-27790,-17744,46468,37806
3763.8,-27526,-17909,46740,38067
3765.8,-27565,-18422,46591,37929
3767.8,-27691,-18506,46303,37668
3769.8,-27634,-18030,46292,37665
3771.8,-27586,-17820,46515,37867
3773.8,-27682,-18124,46626,37964
3775.8,-27678,-18247,46536,37879
3777.8,-27560,-18014,46447,37793
3779.8,-27632,-17945,46470,37800
3781.8,-27871,-18076,46505,37827
3783.8,-27999,-18134,46460,37796
3785.8,-28041,-18261,46339,37689
3787.8,-28073,-18432,46208,37556
3789.8,-27955,-18243,46185,37521
3791.8,-27783,-17904,46304,37636
3793.8,-27849,-18007,46440,37787
3795.83,-27982,-18310,46498,37867
3797.85,-27878,-18276,46501,37878
3799.88,-27800,-18212,46424,37788
3801.9,-27992,-18421,46254,37608
3803.9,-28066,-18412,46172,37525
3805.9,-27821,-18052,46287,37631
3807.9,-27671,-17948,46394,37720
3809.9,-27755,-18138,46368,37677
3811.9,-27751,-18099,46386,37679
3813.9,-27693,-17980,46510,37789
3815.9,-27835,-18201,46530,37809
3817.9,-28036,-18482,46360,37660
3819.9,-28119,-18502,46172,37490
3821.9,-28192,-18475,46152,37462
3823.9,-28201,-18497,46343,37627
3825.9,-28035,-18475,46570,37837
3827.9,-27939,-18538,46552,37823
3829.9,-28057,-18630,46305,37588
3831.9,-28144,-18488,46148,37432
3833.9,-28170,-18358,46183,37462
3835.9,-28237,-18475,46251,37537
3837.9,-27979,-18299,46347,37651
3839.9,-27285,-17649,46507,37819
3841.9,-26944,-17355,46545,37852
3843.9,-27364,-17677,46415,37721
3845.9,-27828,-17911,46346,37660
3847.9,-27889,-18012,46331,37645
3849.9,-27935,-18412,46177,37474
3851.9,-28020,-18636,46074,37351
3853.9,-27854,-18284,46305,37572
3855.9,-27724,-18135,46589,37861
3857.9,-27908,-18517,46529,37817
3859.9,-27984,-18572,46291,37601
3861.9,-27814,-18190,46187,37506
3863.9,-27918,-18279,46142,37443
3865.9,-28334,-18805,46058,37325
3867.9,-28532,-18969,46068,37312
3869.9,-28440,-18814,46126,37376
3871.9,-28353,-18743,46028,37301
3873.9,-28267,-18544,45936,37221
3875.9,-28101,-18190,46160,37425
3877.9,-27980,-18178,46459,37696
3879.9,-27985,-18547,46387,37625
3881.9,-28066,-18854,46108,37375
3883.9,-28123,-18950,46021,37301
3885.9,-28079,-18862,46017,37271
3887.9,-28074,-18606,45931,37142
3889.9,-28246,-18456,46010,37197
3891.9,-28334,-18560,46244,37446
3893.9,-28137,-18589,46199,37433
3895.9,-28015,-18445,45928,37178
3897.9,-28164,-18473,45947,37195
3899.9,-28190,-18620,46206,37459
3901.9,-27987,-18543,46257,37523
3903.9,-27930,-18416,46181,37436
3905.9,-28017,-18533,46255,37481
3907.9,-28060,-18745,46231,37456
3909.9,-28340,-18986,45890,37142
3911.9,-28812,-19310,45664,36922
3913.9,-28657,-19244,45928,37164
3915.93,-27762,-18472,46309,37544
3917.95,-27242,-17780,46338,37599
3919.98,-27614,-17941,46168,37434
3922.0,-28036,-18445,46138,37387
3924.0,-27923,-18514,46183,37434
3926.0,-27734,-18351,46097,37364
3928.0,-27886,-18432,45936,37197
3930.0,-28174,-18588,45883,37116
3932.0,-28302,-18504,45988,37200
3934.0,-28239,-18359,46126,37329
3936.0,-28190,-18501,46097,37299
3938.0,-28380,-18863,45901,37113
3940.0,-28592,-19025,45833,37059
3942.0,-28416,-18844,46012,37240
3944.0,-28107,-18732,46103,37333
3946.0,-28238,-18962,45899,37138
3948.0,-28523,-19063,45729,36967
3950.0,-28306,-18612,45889,37108
3952.0,-27880,-18173,46157,37358
3954.0,-27924,-18452,46196,37389
3956.0,-28257,-19097,46011,37207
3958.0,-28382,-19358,45827,37036
3960.0,-28372,-19217,45820,37030
3962.0,-28362,-18984,45999,37181
3964.0,-28182,-18645,46202,37356
3966.0,-27883,-18229,46271,37434
3968.0,-27754,-18019,46259,37440
3970.0,-27913,-18155,46299,37463
3972.0,-28332,-18523,46379,37513
3974.0,-28707,-18767,46447,37578
3976.0,-28462,-18395,46556,37699
3978.0,-27751,-17585,46680,37818
3980.0,-27623,-17349,46645,37768
3982.0,-28257,-17936,46491,37611
3984.0,-28473,-18203,46557,37674
3986.0,-27810,-17594,46888,37990
3988.0,-27293,-17116,47032,38123
3990.0,-27530,-17415,46765,37853
3992.0,-27913,-17753,46495,37579
3994.0,-28007,-17612,46566,37642
3996.0,-28056,-17503,46744,37822
3998.0,-28130,-17736,46739,37827
4000.0,-28030,-17865,46661,37758
4002.0,-27853,-17603,46684,37780
4004.0,-27850,-17265,46738,37829
4006.0,-28007,-17225,46694,37797
4008.0,-28142,-17474,46554,37693
4010.0,-28158,-17752,46434,37609
4012.0,-28082,-17882,46499,37683
4014.0,-27986,-17865,46749,37934
4016.0,-27875,-17712,46944,38146
4018.0,-27676,-17467,46934,38159
4020.0,-27455,-17366,46832,38082
4022.0,-27489,-17622,46720,38003
4024.0,-27885,-18048,46576,37874
4026.0,-28254,-18235,46514,37795
4028.0,-28143,-18136,46602,37862
4030.0,-27779,-18131,46577,37840
4032.0,-27764,-18400,46320,37588
4034.1,-28044,-18584,46197,37453
4036.1,-28052,-18420,46395,37639
4038.1,-27823,-18270,46507,37752
4040.1,-27878,-18483,46269,37526
4042.1,-28186,-18775,45997,37272
4044.1,-28305,-18834,45936,37213
4046.1,-28242,-18873,45925,37177
4048.1,-28300,-19087,45842,37070
4050.1,-28510,-19290,45712,36941
4052.1,-28689,-19331,45507,36749
4054.1,-28669,-19248,45353,36600
4056.1,-28449,-19101,45511,36753
4058.1,-28280,-19021,45865,37093
4060.1,-28264,-19086,45981,37203
4062.1,-28143,-19166,45780,37025
4064.1,-27954,-19237,45586,36857
4066.1,-28122,-19429,45587,36851
4068.1,-28495,-19534,45696,36934
4070.1,-28433,-19243,45750,36966
4072.1,-28072,-18913,45633,36828
4074.1,-28143,-19097,45429,36604
4076.1,-28577,-19473,45408,36583
4078.1,-28605,-19319,45664,36856
4080.1,-28083,-18759,45919,37129
4082.1,-27669,-18505,45856,37095
4084.1,-27843,-18734,45519,36785
4086.1,-28408,-19105,45270,36523
4088.1,-28817,-19453,45374,36582
4090.1,-28755,-19714,45672,36865
4092.1,-28442,-19671,45806,37022
4094.1,-28324,-19402,45697,36926
4096.1,-28469,-19370,45614,36827
4098.1,-28545,-19623,45792,36986
4100.1,-28353,-19600,46203,37389
4102.1,-27991,-19028,46710,37922
4104.1,-27553,-18281,47308,38633
4106.1,-27066,-17680,48102,39629
4108.1,-26623,-17116,49021,40816
4110.1,-26258,-16397,49680,41940
4112.1,-25841,-15436,49749,42880
4114.1,-25357,-14223,49276,43642
4116.1,-25054,-12950,48518,44191
4118.1,-25006,-11783,47756,44670
4120.1,-24804,-10378,47301,45518
4122.1,-24069,-8448,47144,46769
4124.1,-23119,-6768,46644,47552
4126.1,-22610,-6436,45305,47088
4128.1,-22690,-7311,43611,45777
4130.1,-23068,-8508,42297,44370
4132.1,-23697,-9933,41280,42757
4134.1,-24695,-11884,40216,40637
4136.1,-25864,-13935,39371,38530
4138.1,-26941,-15536,39060,36940
4140.1,-27995,-16790,39030,35483
4142.1,-29059,-17804,39078,33898
4144.1,-29829,-18356,39434,32836
4146.13,-30114,-18488,40164,32822
4148.15,-30077,-18471,41047,33512
4150.18,-29828,-18329,42029,34412
4152.2,-29329,-18146,43027,35288
4154.2,-28804,-18264,43639,35817
4156.2,-28615,-18660,43725,35833
4158.2,-28708,-18842,43750,35747
4160.2,-28719,-18708,44091,35984
4162.2,-28580,-18739,44537,36360
4164.2,-28502,-19145,44743,36478
4166.2,-28581,-19559,44677,36299
4168.2,-28722,-19671,44560,36084
4170.2,-28698,-19508,44666,36112
4172.2,-28348,-19195,45037,36414
4174.2,-28043,-19068,45323,36660
4176.2,-28336,-19509,45209,36541
4178.2,-28927,-20154,44910,36241
4180.2,-29044,-20201,44826,36145
4182.2,-28795,-19794,44953,36266
4184.2,-28772,-19752,45060,36368
4186.2,-28824,-20017,45096,36387
4188.2,-28702,-20026,45083,36348
4190.2,-28856,-20023,44996,36237
4192.2,-29280,-20268,44960,36181
4194.2,-29098,-20069,45144,36352
4196.2,-28252,-19205,45397,36600
4198.2,-27878,-18807,45415,36617
4200.2,-28437,-19496,45216,36422
4202.2,-29091,-20280,45119,36331
4204.2,-29117,-20264,45277,36488
4206.2,-28642,-19867,45481,36688
4208.2,-28147,-19689,45452,36663
4210.2,-28027,-19646,45232,36441
4212.2,-28375,-19643,45134,36318
4214.2,-28815,-19800,45273,36434
4216.2,-28859,-19849,45418,36583
4218.2,-28491,-19452,45410,36592
4220.2,-28155,-19064,45394,36586
4222.2,-28181,-19328,45505,36699
4224.2,-28436,-19891,45626,36814
4226.2,-28569,-19977,45623,36781
4228.2,-28498,-19680,45532,36661
4230.2,-28483,-19614,45442,36572
4232.2,-28673,-19797,45395,36538
4234.2,-28835,-19814,45443,36575
4236.2,-28745,-19653,45584,36701
4238.2,-28613,-19692,45655,36783
4240.2,-28721,-20033,45535,36686
4242.2,-28860,-20275,45415,36567
4244.2,-28682,-20069,45524,36661
4246.2,-28374,-19642,45713,36842
4248.2,-28298,-19450,45729,36855
4250.2,-28313,-19489,45671,36782
4252.2,-28200,-19482,45719,36805
4254.2,-28216,-19453,45795,36868
4256.2,-28470,-19565,45868,36939
4258.2,-28519,-19688,46051,37121
4260.2,-28225,-19651,46203,37276
4262.2,-28111,-19559,46075,37172
4264.2,-28414,-19575,45851,36972
4266.23,-28721,-19711,45863,36974
4268.25,-28747,-19869,45997,37068
4270.28,-28627,-19884,45980,37026
4272.3,-28473,-19664,45906,36949
4274.3,-28273,-19361,46013,37047
4276.3,-28073,-19165,46283,37297
4278.3,-27936,-19083,46490,37498
4280.3,-27946,-19119,46451,37480
4282.3,-28172,-19316,46272,37317
4284.3,-28424,-19515,46306,37330
4286.3,-28380,-19522,46658,37640
4288.3,-28072,-19415,46947,37908
4290.3,-27832,-19279,46877,37845
4292.3,-27802,-19048,46675,37645
4294.3,-27909,-18887,46687,37638
4296.3,-28043,-19078,46952,37878
4298.3,-28012,-19382,47299,38206
4300.3,-27708,-19273,47530,38415
4302.3,-27369,-18791,47556,38417
4304.3,-27295,-18442,47524,38363
4306.3,-27462,-18439,47609,38417
4308.3,-27678,-18612,47756,38511
4310.3,-27797,-18795,47865,38571
4312.3,-27734,-18935,47978,38673
4314.3,-27605,-19006,48081,38786
4316.3,-27643,-18966,48118,38807
4318.3,-27741,-18785,48225,38865
4320.3,-27579,-18570,48518,39116
4322.3,-27247,-18482,48790,39371
4324.3,-27122,-18431,48844,39413
4326.3,-27207,-18205,48833,39377
4328.3,-27265,-17934,48972,39486
4330.3,-27278,-17915,49219,39705
4332.3,-27288,-18047,49395,39855
4334.3,-27234,-18040,49395,39837
4336.3,-27208,-17954,49313,39748
4338.3,-27325,-17973,49386,39820
4340.3,-27410,-18042,49655,40089
4342.3,-27365,-18147,49813,40251
4344.3,-27418,-18335,49689,40134
4346.3,-27520,-18270,49591,40038
4348.3,-27254,-17615,49824,40262
4350.3,-26724,-16843,50190,40618
4352.3,-26532,-16674,50327,40758
4354.3,-26703,-16918,50204,40667
4356.3,-26748,-16909,50043,40555
4358.3,-26692,-16630,49986,40531
4360.3,-26866,-16483,50012,40577
4362.3,-27055,-16488,50038,40651
4364.3,-26907,-16493,50029,40713
4366.3,-26703,-16570,49979,40717
4368.3,-26857,-16755,49833,40608
4370.3,-27200,-16903,49603,40425
4372.3,-27311,-16959,49455,40336
4374.3,-27129,-16945,49419,40355
4376.3,-26973,-16806,49248,40235
4378.3,-27110,-16586,48932,39974
4380.3,-27372,-16515,48836,39932
4382.3,-27419,-16719,48930,40084
4384.3,-27358,-17056,48732,39946
4386.33,-27518,-17333,48281,39539
4388.35,-27782,-17513,48036,39325
4390.38,-27911,-17656,47905,39220
4392.4,-28075,-17752,47603,38931
4394.4,-28284,-17749,47441,38768
4396.4,-28149,-17708,47572,38904
4398.4,-27788,-17764,47487,38832
4400.4,-27782,-17930,47103,38457
4402.4,-28063,-18144,46978,38336
4404.4,-28137,-18394,47088,38449
4406.4,-28123,-18664,46925,38277
4408.4,-28302,-18822,46621,37955
4410.4,-28333,-18725,46585,37917
4412.4,-28054,-18457,46638,37978
4414.4,-28081,-18409,46494,37821
4416.4,-28713,-18860,46309,37602
4418.4,-29228,-19430,46223,37502
4420.4,-29025,-19482,46151,37446
4422.4,-28513,-19078,46138,37445
4424.4,-28286,-18828,46289,37588
4426.4,-28264,-18876,46458,37751
4428.4,-28163,-18878,46426,37736
4430.4,-28094,-18772,46212,37550
4432.4,-28259,-18764,45995,37344
4434.4,-28550,-18850,45916,37251
4436.4,-28704,-18937,46020,37330
4438.4,-28587,-19013,46231,37519
4440.4,-28332,-19010,46331,37611
4442.4,-28279,-18909,46185,37467
4444.4,-28571,-18890,45979,37262
4446.4,-28880,-19025,46001,37278
4448.4,-28863,-19162,46204,37475
4450.4,-28643,-19248,46268,37546
4452.4,-28510,-19324,46098,37389
4454.4,-28498,-19266,45953,37245
4456.4,-28477,-18994,46055,37329
4458.4,-28372,-18718,46313,37572
4460.4,-28233,-18652,46448,37719
4462.4,-28240,-18738,46300,37599
4464.4,-28463,-18811,46005,37324
4466.4,-28687,-18844,45866,37195
4468.4,-28732,-18944,45972,37312
4470.4,-28755,-19200,46086,37428
4472.4,-28866,-19466,46031,37354
4474.4,-28835,-19439,45984,37282
4476.4,-28579,-19109,46139,37430
4478.4,-28451,-18919,46297,37597
4480.4,-28664,-19170,46173,37473
4482.4,-28909,-19537,45892,37182
4484.4,-28871,-19507,45805,37093
4486.4,-28675,-19118,45969,37253
4488.4,-28554,-18817,46145,37410
4490.4,-28495,-18773,46203,37454
4492.4,-28405,-18813,46201,37469
4494.4,-28363,-18909,46156,37454
4496.43,-28492,-19162,46032,37338
4498.45,-28729,-19382,45921,37212
4500.48,-28862,-19278,45983,37258
4502.5,-28797,-19010,46148,37416
4504.5,-28662,-18967,46148,37417
4506.5,-28593,-19108,45956,37232
4508.5,-28584,-19129,45868,37150
4510.5,-28604,-19075,46008,37288
4512.5,-28656,-19157,46132,37407
4514.5,-28669,-19222,46073,37345
4516.5,-28607,-19058,45990,37259
4518.5,-28602,-18879,46029,37296
4520.5,-28706,-18902,46112,37380
4522.5,-28692,-18920,46145,37418
4524.5,-28505,-18865,46100,37386
4526.5,-28526,-19093,45959,37259
4528.5,-28895,-19568,45828,37131
4530.5,-29092,-19671,45908,37202
4532.5,-28799,-19305,46131,37418
4534.5,-28502,-19139,46153,37439
4536.5,-28670,-19410,45877,37166
4538.5,-29019,-19595,45633,36932
4540.5,-29069,-19410,45694,37009
4542.5,-28798,-19120,45927,37244
4544.5,-28506,-18948,46024,37329
4546.5,-28471,-18941,45902,37201
4548.5,-28736,-19113,45747,37053
4550.5,-29053,-19312,45729,37027
4552.5,-29148,-19348,45800,37075
4554.5,-28964,-19253,45858,37123
4556.5,-28622,-19101,45878,37155
4558.5,-28377,-18893,45825,37117
4560.5,-28446,-18790,45740,37031
4562.5,-28716,-19019,45786,37073
4564.5,-28981,-19554,45898,37191
4566.5,-29319,-20102,45741,37045
4568.5,-29624,-20227,45393,36698
4570.5,-29360,-19672,45414,36701
4572.5,-28545,-18849,45876,37142
4574.5,-28053,-18519,46169,37429
4576.5,-28308,-18805,45988,37255
4578.5,-28778,-19210,45690,36962
4580.5,-29062,-19464,45597,36865
4582.5,-29263,-19605,45671,36934
4584.5,-29320,-19580,45785,37048
4586.5,-29083,-19438,45815,37084
4588.5,-28853,-19446,45672,36949
4590.5,-28975,-19654,45502,36786
4592.5,-29206,-19766,45559,36839
4594.5,-29104,-19576,45812,37087
4596.5,-28694,-19196,45965,37238
4598.5,-28362,-18871,45861,37131
4600.5,-28366,-18786,45671,36932
4602.5,-28652,-18988,45646,36898
4604.5,-28957,-19360,45762,37013
4606.5,-29023,-19655,45783,37035
4608.5,-28876,-19693,45650,36899
4610.5,-28826,-19579,45552,36795
4612.5,-29060,-19578,45570,36808
4614.5,-29345,-19702,45602,36835
4616.53,-29382,-19757,45586,36822
4618.55,-29304,-19808,45514,36767
4620.58,-29442,-20052,45392,36663
4622.6,-29650,-20226,45372,36645
4624.6,-29403,-19822,45593,36852
4626.6,-28691,-19002,45850,37105
4628.6,-28196,-18552,45854,37129
4630.6,-28350,-18815,45689,36977
4632.6,-28817,-19301,45597,36862
4634.6,-29122,-19486,45593,36826
4636.6,-29200,-19414,45602,36843
4638.6,-29168,-19395,45613,36895
4640.6,-29075,-19505,45566,36877
4642.6,-28955,-19545,45472,36779
4644.6,-28811,-19346,45527,36818
4646.6,-28663,-19079,45759,37030
4648.6,-28696,-19128,45846,37097
4650.6,-29008,-19513,45607,36859
4652.6,-29280,-19733,45320,36597
4654.6,-29187,-19509,45321,36612
4656.6,-28920,-19216,45591,36862
4658.6,-28775,-19207,45839,37087
4660.6,-28731,-19324,45812,37066
4662.6,-28833,-19446,45551,36828
4664.6,-29234,-19729,45367,36657
4666.6,-29596,-20014,45448,36738
4668.6,-29395,-19872,45610,36898
4670.6,-28888,-19415,45604,36892
4672.6,-28774,-19161,45492,36774
4674.6,-29077,-19139,45520,36776
4676.6,-29266,-18993,45764,36985
4678.6,-29182,-18777,46036,37241
4680.6,-29085,-18800,46095,37309
4682.6,-29062,-18908,45973,37182
4684.6,-28988,-18716,45949,37140
4686.6,-28855,-18361,46122,37316
4688.6,-28785,-18317,46264,37478
4690.6,-28849,-18635,46241,37444
4692.6,-29063,-18970,46160,37325
4694.6,-29400,-19182,46069,37219
4696.6,-29648,-19311,45985,37141
4698.6,-29521,-19193,46042,37184
4700.6,-29066,-18727,46177,37302
4702.6,-28671,-18228,46124,37267
4704.6,-28523,-18012,45978,37154
4706.6,-28526,-18017,46097,37268
4708.6,-28713,-18159,46342,37480
4710.6,-29100,-18443,46286,37417
4712.6,-29313,-18625,46010,37174
4714.6,-29170,-18514,45856,37064
4716.6,-29121,-18433,45855,37075
4718.6,-29279,-18606,46005,37212
4720.6,-28994,-18634,46382,37593
4722.6,-28177,-18278,46665,37925
4724.6,-27711,-17951,46510,37835
4726.6,-27899,-17945,46291,37658
4728.6,-28090,-18070,46454,37836
4730.6,-28080,-18225,46643,38022
4732.6,-28273,-18454,46419,37779
4734.7,-28605,-18629,46055,37393
4736.7,-28745,-18720,45905,37239
4738.7,-28782,-18886,45888,37224
4740.7,-28769,-19027,45901,37233
4742.7,-28573,-18960,45930,37266
4744.7,-28548,-18983,45790,37140
4746.7,-29075,-19390,45455,36812
4748.7,-29550,-19738,45283,36628
4750.7,-29289,-19555,45415,36739
4752.7,-28839,-19279,45493,36798
4754.7,-28998,-19482,45290,36586
4756.7,-29401,-19816,45064,36360
4758.7,-29402,-19754,45076,36376
4760.7,-29249,-19624,45216,36518
4762.7,-29307,-19855,45241,36544
4764.7,-29292,-20095,45131,36431
4766.7,-29067,-20021,45058,36360
4768.7,-29024,-19985,45122,36426
4770.7,-29228,-20144,45236,36527
4772.7,-29298,-20137,45284,36555
4774.7,-29166,-19945,45260,36532
4776.7,-29047,-19880,45196,36489
4778.7,-29014,-19876,45110,36404
4780.7,-29150,-19824,45054,36323
4782.7,-29446,-19933,45094,36353
4784.7,-29476,-20063,45160,36443
4786.7,-29100,-19828,45076,36398
4788.7,-28972,-19564,44855,36200
4790.7,-29360,-19813,44776,36121
4792.7,-29506,-20156,44992,36314
4794.7,-29081,-20014,45218,36517
4796.7,-28867,-19788,45136,36437
4798.7,-29228,-19915,44930,36247
4800.7,-29467,-19984,44998,36315
4802.7,-29185,-19745,45310,36611
4804.7,-28868,-19689,45545,36828
4806.7,-28900,-19974,45676,36952
4808.7,-29015,-20019,45987,37291
4810.7,-28755,-19393,46683,38096
4812.7,-27936,-18266,47732,39345
4814.7,-26853,-17090,48792,40695
4816.7,-26135,-16297,49292,41688
4818.7,-26027,-15847,49033,42283
4820.7,-26028,-15094,48500,42910
4822.7,-25627,-13646,48115,43745
4824.7,-24927,-11890,47714,44530
4826.7,-24216,-10173,47187,45271
4828.7,-23559,-8515,46724,46158
4830.7,-23130,-7456,46089,46694
4832.7,-23159,-7704,44794,46144
4834.7,-23418,-8795,43136,44787
4836.7,-23574,-9792,41834,43379
4838.7,-23916,-10896,40839,41817
4840.7,-24851,-12674,39770,39740
4842.7,-26141,-14650,38925,37680
4844.7,-27441,-16237,38665,36169
4846.73,-28788,-17650,38630,34744
4848.75,-29996,-18817,38543,33128
4850.78,-30643,-19161,38795,32116
4852.8,-30898,-18964,39607,32296
4854.8,-31106,-19015,40638,33163
4856.8,-30895,-19128,41605,34049
4858.8,-30047,-18849,42393,34716
4860.8,-29396,-18719,42797,35021
4862.8,-29503,-19205,42935,35060
4864.8,-29657,-19684,43306,35304
4866.8,-29287,-19657,43939,35822
4868.8,-28913,-19525,44272,36074
4870.8,-28961,-19599,44149,35874
4872.8,-29151,-19720,44021,35659
4874.8,-29319,-19892,44138,35687
4876.8,-29507,-20155,44334,35802
4878.8,-29473,-20250,44477,35890
4880.8,-29208,-20124,44504,35902
4882.8,-29231,-20048,44390,35772
4884.8,-29544,-20011,44339,35674
4886.8,-29472,-19902,44522,35816
4888.8,-29031,-19999,44688,35987
4890.8,-28956,-20361,44640,35952
4892.8,-29214,-20463,44618,35901
4894.8,-29192,-20190,44684,35919
4896.8,-29092,-20128,44558,35769
4898.8,-29365,-20369,44405,35608
4900.8,-29530,-20365,44629,35833
4902.8,-29178,-20126,44922,36150
4904.8,-28936,-20180,44819,36079
4906.8,-29192,-20458,44680,35951
4908.8,-29396,-20513,44883,36151
4910.8,-29300,-20412,44991,36260
4912.8,-29256,-20386,44746,36009
4914.8,-29257,-20325,44636,35886
4916.8,-29164,-20275,44813,36063
4918.8,-29254,-20454,44849,36108
4920.8,-29456,-20544,44773,36025
4922.8,-29241,-20144,44936,36176
4924.8,-28814,-19721,45107,36362
4926.8,-28880,-19830,44938,36222
4928.8,-29234,-20046,44757,36050
4930.8,-29205,-19912,44912,36185
4932.8,-28977,-19866,45106,36352
4934.8,-29024,-20175,45063,36285
4936.8,-29156,-20314,44972,36174
4938.8,-29132,-20090,44955,36150
4940.8,-29141,-19963,44923,36126
4942.8,-29227,-20045,44924,36127
4944.8,-29251,-20071,44971,36163
4946.8,-29299,-20098,44919,36112
4948.8,-29321,-20190,44878,36083
4950.8,-29058,-20082,45090,36279
4952.8,-28737,-19807,45354,36502
4954.8,-28788,-19771,45336,36464
4956.8,-28971,-19932,45175,36313
4958.8,-28934,-19920,45129,36269
4960.8,-28973,-19815,45163,36288
4962.8,-29187,-19890,45274,36395
4964.8,-29044,-19947,45494,36624
4966.83,-28548,-19731,45567,36704
4968.85,-28402,-19486,45359,36511
4970.88,-28688,-19526,45239,36411
4972.9,-28828,-19739,45421,36586
4974.9,-28717,-19824,45592,36711
4976.9,-28611,-19665,45571,36645
4978.9,-28485,-19398,45578,36644
4980.9,-28406,-19338,45721,36793
4982.9,-28651,-19647,45844,36910
4984.9,-29011,-20012,45856,36919
4986.9,-28979,-20020,45792,36877
4988.9,-28674,-19788,45748,36859
4990.9,-28601,-19712,45840,36951
4992.9,-28762,-19790,46031,37115
4994.9,-28817,-19764,46143,37194
4996.9,-28664,-19627,46156,37184
4998.9,-28363,-19440,46218,37238
5000.9,-28000,-19113,46372,37387
5002.9,-27799,-18776,46572,37562
5004.9,-27862,-18739,46785,37735
5006.9,-27953,-18913,46917,37844
5008.9,-27942,-19005,46887,37816
5010.9,-28032,-19131,46816,37743
5012.9,-28284,-19433,46869,37770
5014.9,-28439,-19583,47030,37898
5016.9,-28397,-19437,47226,38069
5018.9,-28288,-19353,47404,38227
5020.9,-28126,-19330,47477,38282
5022.9,-27923,-19016,47486,38267
5024.9,-27889,-18677,47647,38392
5026.9,-28019,-18745,47967,38672
5028.9,-27979,-18815,48143,38827
5030.9,-27808,-18542,48041,38725
5032.9,-27929,-18487,47927,38603
5034.9,-28164,-18793,48082,38731
5036.9,-27856,-18656,48484,39102
5038.9,-27205,-18046,48846,39440
5040.9,-27107,-17914,48903,39483
5042.9,-27538,-18215,48794,39372
5044.9,-27596,-18016,48922,39509
5046.9,-27139,-17451,49270,39871
5048.9,-26886,-17359,49367,39976
5050.9,-27058,-17593,49127,39729
5052.9,-27217,-17565,49019,39601
5054.9,-27227,-17454,49235,39805
5056.9,-27263,-17488,49465,40035
5058.9,-27258,-17351,49515,40093
5060.9,-27190,-17121,49469,40065
5062.9,-27365,-17314,49364,39993
5064.9,-27784,-17703,49257,39925
5066.9,-27901,-17574,49305,40011
5068.9,-27511,-17040,49463,40210
5070.9,-27138,-16764,49481,40270
5072.9,-27185,-16841,49331,40158
5074.9,-27410,-16938,49215,40083
5076.9,-27464,-16921,49200,40121
5078.9,-27346,-16789,49180,40157
5080.9,-27277,-16634,49047,40089
5082.9,-27434,-16722,48775,39895
5085.0,-27738,-17030,48480,39659
5087.0,-27882,-17145,48354,39549
5089.0,-27744,-16988,48373,39576
5091.0,-27561,-16905,48294,39534
5093.0,-27565,-17011,48010,39291
5095.0,-27830,-17234,47645,38933
5097.0,-28328,-17644,47339,38620
5099.0,-28731,-18040,47171,38467
5101.0,-28587,-17974,47136,38455
5103.0,-28064,-17608,47068,38394
5105.0,-27897,-17616,46834,38160
5107.0,-28350,-18112,46592,37919
5109.0,-28853,-18542,46544,37865
5111.0,-28798,-18518,46572,37886
5113.0,-28285,-18208,46441,37753
5115.0,-28001,-18095,46178,37478
5117.0,-28376,-18461,46030,37302
5119.0,-28961,-18980,46110,37363
5121.0,-29107,-19160,46210,37464
5123.0,-28946,-19067,46054,37311
5125.0,-28937,-19001,45733,36992
5127.0,-29026,-18931,45595,36869
5129.0,-29087,-18956,45654,36940
5131.0,-29266,-19349,45632,36903
5133.0,-29302,-19661,45563,36816
5135.0,-28825,-19209,45667,36927
5137.0,-28469,-18620,45766,37031
5139.0,-28979,-19002,45622,36857
5141.0,-29559,-19784,45516,36730
5143.0,-29067,-19571,45705,36955
5145.0,-28122,-18618,45830,37137
5147.0,-28035,-18276,45621,36941
5149.0,-28633,-18701,45477,36765
5151.0,-28938,-19031,45682,36943
5153.0,-28878,-19021,45828,37088
5155.0,-28894,-19031,45602,36863
5157.0,-28961,-19165,45330,36578
5159.0,-28991,-19303,45326,36559
5161.0,-29137,-19343,45436,36667
5163.0,-29217,-19184,45510,36740
5165.0,-28928,-18978,45601,36833
5167.0,-28668,-19103,45635,36888
5169.0,-28965,-19520,45519,36797
5171.0,-29409,-19746,45445,36718
5173.0,-29353,-19662,45538,36786
5175.0,-29084,-19591,45558,36804
5177.0,-29120,-19565,45412,36670
5179.0,-29157,-19310,45422,36669
5181.0,-28849,-18927,45695,36920
5183.0,-28654,-18861,45860,37092
5185.0,-28921,-19205,45692,36956
5187.0,-29162,-19521,45414,36704
5189.0,-29031,-19467,45274,36567
5191.0,-28922,-19290,45329,36604
5193.0,-29008,-19325,45556,36804
5195.0,-28847,-19299,45781,37018
5197.03,-28432,-18874,45744,36996
5199.05,-28418,-18562,45515,36782
5201.08,-28902,-18972,45468,36726
5203.1,-29220,-19623,45668,36917
5205.1,-29179,-19769,45734,36997
5207.1,-29237,-19648,45481,36764
5209.1,-29380,-19668,45247,36531
5211.1,-29205,-19534,45342,36610
5213.1,-28943,-19220,45564,36815
5215.1,-29033,-19278,45580,36820
5217.1,-29125,-19554,45454,36698
5219.1,-28820,-19338,45426,36693
5221.1,-28627,-18893,45451,36733
5223.1,-28994,-19003,45380,36650
5225.1,-29338,-19409,45350,36598
5227.1,-29066,-19364,45497,36744
5229.1,-28597,-19034,45587,36846
5231.1,-28581,-18966,45439,36688
5233.1,-28902,-19097,45335,36544
5235.1,-29046,-19172,45500,36679
5237.1,-28895,-19231,45614,36812
5239.1,-28766,-19243,45394,36635
5241.1,-28906,-19130,45142,36400
5243.1,-29208,-19137,45219,36449
5245.1,-29391,-19443,45457,36651
5247.1,-29329,-19736,45520,36701
5249.1,-29171,-19740,45386,36576
5251.1,-29133,-19626,45242,36453
5253.1,-29195,-19537,45254,36487
5255.1,-29120,-19322,45451,36696
5257.1,-28868,-18997,45622,36858
5259.1,-28727,-18867,45530,36738
5261.1,-28846,-19011,45300,36478
5263.1,-29018,-19168,45238,36400
5265.1,-29062,-19224,45342,36502
5267.1,-28991,-19296,45395,36562
5269.1,-28811,-19354,45349,36530
5271.1,-28673,-19293,45277,36472
5273.1,-28947,-19319,45211,36412
5275.1,-29541,-19628,45227,36417
5277.1,-29709,-19842,45359,36527
5279.1,-29174,-19544,45452,36601
5281.1,-28635,-19105,45382,36539
5283.1,-28618,-19081,45266,36454
5285.1,-28837,-19286,45243,36453
5287.1,-29058,-19396,45258,36465
5289.1,-29411,-19618,45195,36399
5291.1,-29645,-19906,45064,36285
5293.1,-29365,-19711,45018,36249
5295.1,-28943,-19181,45168,36386
5297.1,-28974,-19113,45375,36574
5299.1,-29217,-19459,45370,36560
5301.1,-29192,-19522,45157,36340
5303.1,-29144,-19434,44985,36174
5305.1,-29409,-19717,44958,36169
5307.1,-29625,-19988,45024,36246
5309.1,-29398,-19698,45194,36404
5311.1,-28998,-19273,45378,36589
5313.1,-28882,-19289,45347,36575
5315.2,-29062,-19523,45178,36395
5317.2,-29244,-19610,45210,36381
5319.2,-29285,-19655,45364,36510
5321.2,-29314,-19788,45237,36408
5323.2,-29408,-19841,44908,36121
5325.2,-29382,-19636,44841,36076
5327.2,-29187,-19306,45044,36285
5329.2,-29144,-19248,45144,36384
5331.2,-29314,-19550,45086,36323
5333.2,-29252,-19669,45098,36319
5335.2,-28902,-19307,45207,36397
5337.2,-28852,-19101,45282,36448
5339.2,-29175,-19455,45297,36472
5341.2,-29164,-19637,45300,36498
5343.2,-28663,-19157,45284,36488
5345.2,-28445,-18791,45178,36387
5347.2,-28874,-19132,44991,36224
5349.2,-29360,-19557,44893,36140
5351.2,-29404,-19494,44981,36214
5353.2,-29217,-19284,45069,36290
5355.2,-29098,-19245,45025,36249
5357.2,-28979,-19173,45052,36275
5359.2,-28806,-19065,45260,36478
5361.2,-28754,-19217,45368,36602
5363.2,-28868,-19534,45179,36434
5365.2,-29003,-19625,44867,36131
5367.2,-29163,-19493,44655,35924
5369.2,-29409,-19424,44660,35930
5371.2,-29514,-19443,44930,36176
5373.2,-29296,-19435,45239,36460
5375.2,-29086,-19470,45204,36438
5377.2,-29271,-19631,44871,36132
5379.2,-29651,-19840,44697,35957
5381.2,-29749,-19967,44849,36098
5383.2,-29449,-19895,45033,36304
5385.2,-29022,-19609,45030,36332
5387.2,-28810,-19361,44910,36218
5389.2,-29023,-19456,44805,36092
5391.2,-29522,-19799,44787,36039
5393.2,-29771,-19937,44899,36116
5395.2,-29422,-19639,45054,36256
5397.2,-28925,-19241,45070,36278
5399.2,-28948,-19202,44971,36182
5401.2,-29297,-19451,44967,36174
5403.2,-29343,-19623,45009,36232
5405.2,-29228,-19717,44854,36122
5407.2,-29355,-19857,44653,35956
5409.2,-29379,-19800,44734,36039
5411.2,-29130,-19524,44928,36214
5413.2,-29323,-19567,44933,36196
5415.2,-29990,-19958,44979,36206
5417.2,-29965,-19876,45299,36486
5419.2,-29033,-19077,45571,36739
5421.2,-28467,-18384,45551,36727
5423.2,-28737,-18281,45485,36669
5425.2,-28934,-18344,45513,36696
5427.23,-28685,-18272,45470,36668
5429.25,-28563,-18269,45361,36589
5431.28,-28752,-18380,45344,36570
5433.3,-28935,-18414,45391,36564
5435.3,-29098,-18430,45438,36558
5437.3,-29319,-18596,45554,36664
5439.3,-29372,-18805,45659,36792
5441.3,-29226,-18893,45527,36698
5443.3,-29185,-18899,45272,36492
5445.3,-29232,-18820,45297,36547
5447.3,-29091,-18578,45571,36801
5449.3,-28928,-18335,45635,36813
5451.3,-29044,-18326,45467,36610
5453.3,-29212,-18431,45496,36637
5455.3,-29203,-18413,45684,36852
5457.3,-29258,-18386,45630,36851
5459.3,-29371,-18542,45476,36753
5461.3,-29125,-18711,45592,36903
5463.3,-28646,-18622,45743,37073
5465.3,-28479,-18345,45611,36969
5467.3,-28525,-18155,45520,36907
5469.3,-28339,-18152,45750,37142
5471.3,-28098,-18203,45933,37314
5473.3,-28204,-18222,45767,37141
5475.3,-28539,-18358,45533,36903
5477.3,-28819,-18731,45496,36850
5479.3,-28985,-19153,45500,36833
5481.3,-29012,-19403,45336,36661
5483.3,-29002,-19578,45029,36355
5485.3,-29224,-19801,44729,36052
5487.3,-29571,-19906,44604,35914
5489.3,-29561,-19734,44704,36000
5491.3,-29184,-19440,44842,36129
5493.3,-28963,-19249,44806,36086
5495.3,-29056,-19226,44704,35965
5497.3,-29081,-19351,44801,36029
5499.3,-28883,-19547,45024,36246
5501.3,-28768,-19678,45001,36273
5503.3,-28943,-19717,44648,35978
5505.3,-29267,-19832,44303,35649
5507.3,-29558,-20143,44197,35553
5509.3,-29764,-20435,44213,35605
5511.3,-29778,-20337,44242,35638
5513.3,-29518,-19881,44345,35671
5515.3,-29206,-19552,44513,35771
5517.3,-29134,-19607,44662,35923
5519.3,-29198,-19765,44782,36071
5521.3,-29091,-19760,44804,36106
5523.3,-28879,-19713,44604,35941
5525.3,-28867,-19800,44318,35708
5527.3,-29088,-19975,44231,35639
5529.3,-29364,-20126,44333,35723
5531.3,-29600,-20198,44430,35808
5533.3,-29707,-20194,44499,35874
5535.3,-29612,-20173,44546,35914
5537.3,-29487,-20192,44476,35862
5539.3,-29524,-20243,44377,35800
5541.3,-29537,-20298,44435,35866
5543.3,-29272,-20300,44575,35984
5545.3,-28908,-20116,44705,36104
5547.33,-28741,-19655,45031,36430
5549.35,-28652,-18996,45686,37121
5551.38,-28341,-18321,46505,38103
5553.4,-27812,-17776,47341,39234
5555.4,-27269,-17359,48024,40294
5557.4,-26741,-16798,48221,41071
5559.4,-26120,-15739,47916,41721
5561.4,-25488,-14240,47496,42502
5563.4,-25035,-12771,47043,43225
5565.4,-24694,-11508,46374,43688
5567.4,-24299,-10229,45684,44193
5569.4,-24079,-9146,45140,44767
5571.4,-24303,-8942,44302,44725
5573.4,-24594,-9626,42883,43744
5575.4,-24501,-10408,41356,42351
5577.4,-24507,-11097,40163,40880
5579.4,-25337,-12395,39224,39149
5581.4,-26667,-14441,38475,37261
5583.4,-27746,-16409,37995,35551
5585.4,-28749,-17845,37677,33918
5587.4,-30144,-19051,37481,32252
5589.4,-31415,-20022,37658,31069
5591.4,-31812,-20380,38318,30907
5593.4,-31611,-20313,39216,31555
5595.4,-31381,-20303,40105,32400
5597.4,-30945,-20204,40901,33122
5599.4,-30157,-19727,41548,33699
5601.4,-29607,-19312,42020,34141
5603.4,-29618,-19451,42391,34458
5605.4,-29657,-19792,42730,34704
5607.4,-29393,-19795,43002,34888
5609.4,-29227,-19636,43166,34959
5611.4,-29408,-19743,43332,35005
5613.4,-29594,-20057,43668,35228
5615.4,-29498,-20267,44058,35560
5617.4,-29267,-20304,44124,35610
5619.4,-29137,-20269,43806,35274
5621.4,-29190,-20245,43553,34983
5623.4,-29431,-20356,43660,35047
5625.4,-29761,-20703,43880,35252
5627.4,-29870,-21033,43924,35334
5629.4,-29536,-20865,43863,35337
5631.4,-29040,-20202,43892,35384
5633.4,-28870,-19716,44067,35513
5635.4,-29006,-19845,44262,35655
5637.4,-29087,-20227,44234,35602
5639.4,-29167,-20406,43930,35286
5641.4,-29506,-20470,43713,35063
5643.4,-29847,-20574,43883,35238
5645.4,-29776,-20577,44187,35551
5647.4,-29484,-20501,44260,35643
5649.4,-29399,-20626,44165,35589
5651.4,-29506,-20897,44097,35538
5653.4,-29564,-20907,44044,35435
5655.4,-29487,-20547,44037,35370
5657.4,-29280,-20142,44165,35510
5659.4,-29042,-19964,44274,35665
5661.4,-28976,-19982,44204,35609
5663.4,-29116,-20050,44132,35520
5665.5,-29303,-20131,44200,35578
5667.5,-29436,-20259,44260,35639
5669.5,-29455,-20402,44259,35641
5671.5,-29306,-20465,44292,35671
5673.5,-29137,-20394,44269,35633
5675.5,-29141,-20249,44156,35504
5677.5,-29234,-20198,44204,35548
5679.5,-29236,-20319,44431,35768
5681.5,-29134,-20342,44514,35830
5683.5,-28976,-20023,44457,35760
5685.5,-28857,-19736,44562,35882
5687.5,-28950,-19985,44738,36088
5689.5,-29176,-20465,44672,36038
5691.5,-29196,-20519,44447,35809
5693.5,-29027,-20223,44333,35674
5695.5,-29047,-20099,44346,35650
5697.5,-29238,-20167,44392,35668
5699.5,-29202,-20142,44464,35732
5701.5,-29000,-20077,44545,35794
5703.5,-29074,-20139,44629,35830
5705.5,-29335,-20191,44781,35959
5707.5,-29232,-20089,44989,36215
5709.5,-28740,-19986,45109,36412
5711.5,-28401,-20026,45014,36367
5713.5,-28456,-20082,44745,36117
5715.5,-28673,-20038,44525,35894
5717.5,-28884,-19973,44560,35897
5719.5,-29091,-19955,44771,36076
5721.5,-29246,-19993,44912,36223
5723.5,-29277,-20101,44968,36309
5725.5,-29132,-20114,45123,36475
5727.5,-28762,-19806,45364,36699
5729.5,-28299,-19427,45469,36777
5731.5,-28073,-19472,45334,36626
5733.5,-28254,-19852,45092,36391
5735.5,-28648,-20070,44978,36287
5737.5,-28966,-20069,45119,36417
5739.5,-29088,-20093,45405,36675
5741.5,-29014,-20038,45643,36887
5743.5,-28727,-19692,45807,37031
5745.5,-28304,-19215,45965,37169
5747.5,-28022,-18939,46107,37293
5749.5,-28036,-18976,46238,37398
5751.5,-28091,-19193,46364,37496
5753.5,-27936,-19344,46339,37470
5755.5,-27800,-19294,46110,37263
5757.5,-28017,-19207,45973,37117
5759.5,-28476,-19350,46150,37246
5761.5,-28797,-19658,46435,37501
5763.5,-28748,-19719,46607,37680
5765.5,-28348,-19292,46764,37836
5767.5,-27865,-18664,47009,38063
5769.5,-27618,-18321,47268,38311
5771.5,-27605,-18387,47442,38480
5773.5,-27581,-18550,47456,38470
5775.5,-27506,-18494,47306,38294
5777.53,-27537,-18248,47216,38198
5779.55,-27660,-18098,47406,38378
5781.58,-27709,-18197,47764,38694
5783.6,-27648,-18367,48037,38915
5785.6,-27571,-18369,48166,39021
5787.6,-27514,-18184,48215,39083
5789.6,-27400,-17922,48237,39136
5791.6,-27206,-17707,48268,39191
5793.6,-27072,-17681,48271,39197
5795.6,-27143,-17795,48207,39107
5797.6,-27374,-17769,48156,39025
5799.6,-27619,-17543,48197,39073
5801.6,-27743,-17387,48326,39255
5803.6,-27608,-17362,48562,39552
5805.6,-27258,-17276,48824,39856
5807.6,-27021,-17164,48841,39906
5809.6,-27054,-17150,48614,39705
5811.6,-27084,-17058,48529,39632
5813.6,-26991,-16818,48628,39741
5815.6,-27084,-16773,48485,39641
5817.6,-27416,-17018,48090,39312
5819.6,-27601,-17126,47948,39213
5821.6,-27545,-16927,48157,39433
5823.6,-27547,-16796,48279,39567
5825.6,-27631,-16920,48105,39429
5827.6,-27589,-17037,47846,39220
5829.6,-27532,-17021,47669,39085
5831.6,-27673,-17059,47532,38982
5833.6,-27844,-17249,47367,38837
5835.6,-27835,-17497,47133,38604
5837.6,-27835,-17726,46824,38296
5839.6,-28079,-17881,46545,38025
5841.6,-28423,-17912,46449,37924
5843.6,-28570,-17910,46543,37997
5845.6,-28453,-18025,46632,38082
5847.6,-28276,-18263,46517,37986
5849.6,-28310,-18530,46193,37675
5851.6,-28586,-18753,45829,37308
5853.6,-28808,-18860,45588,37068
5855.6,-28776,-18824,45499,36971
5857.6,-28699,-18765,45465,36900
5859.6,-28804,-18784,45388,36786
5861.6,-28956,-18822,45299,36687
5863.6,-28950,-18810,45305,36687
5865.6,-28824,-18782,45415,36778
5867.6,-28717,-18838,45477,36847
5869.6,-28733,-19061,45343,36758
5871.6,-28905,-19365,45066,36521
5873.6,-29111,-19508,44868,36339
5875.6,-29226,-19492,44868,36342
5877.6,-29311,-19596,44922,36375
5879.6,-29380,-19741,44856,36263
5881.6,-29273,-19523,44767,36144
5883.6,-29032,-19061,44881,36273
5885.6,-28932,-18926,45140,36555
5887.6,-28989,-19160,45214,36636
5889.6,-28936,-19310,45020,36449
5891.6,-28760,-19299,44842,36281
5893.6,-28817,-19417,44810,36237
5895.6,-29290,-19724,44741,36146
5897.63,-29742,-19978,44649,36053
5899.65,-29545,-19880,44735,36154
5901.68,-28897,-19391,44863,36281
5903.7,-28698,-18973,44835,36240
5905.7,-29064,-19091,44916,36316
5907.7,-29119,-19476,45212,36623
5909.7,-28707,-19573,45249,36673
5911.7,-28659,-19465,44936,36358
5913.7,-29082,-19509,44794,36204
5915.7,-29246,-19578,44853,36258
5917.7,-29131,-19466,44719,36122
5919.7,-29204,-19373,44605,36000
5921.7,-29278,-19428,44833,36226
5923.7,-29139,-19453,44990,36399
5925.7,-29196,-19452,44833,36247
5927.7,-29446,-19578,44850,36244
5929.7,-29300,-19690,45142,36513
5931.7,-28898,-19659,45160,36528
5933.7,-28894,-19669,44852,36218
5935.7,-29107,-19704,44708,36058
5937.7,-28991,-19454,44806,36138
5939.7,-28790,-19066,44891,36206
5941.7,-28899,-19024,44962,36255
5943.7,-29032,-19270,45054,36336
5945.7,-29010,-19426,44996,36293
5947.7,-29214,-19541,44750,36079
5949.7,-29620,-19690,44574,35931
5951.7,-29566,-19551,44660,36031
5953.7,-28956,-19172,44874,36254
5955.7,-28544,-19151,44966,36353
5957.7,-28706,-19519,44924,36312
5959.7,-28992,-19639,44950,36325
5961.7,-29081,-19432,45062,36416
5963.7,-29136,-19384,45020,36367
5965.7,-29204,-19450,44786,36145
5967.7,-29145,-19276,44656,36027
5969.7,-29076,-19124,44763,36131
5971.7,-29148,-19369,44875,36240
5973.7,-29163,-19647,44849,36218
5975.7,-28972,-19529,44798,36169
5977.7,-28847,-19318,44764,36137
5979.7,-29047,-19419,44675,36052
5981.7,-29404,-19654,44611,35979
5983.7,-29570,-19720,44710,36050
5985.7,-29403,-19635,44874,36202
5987.7,-29104,-19552,44884,36232
5989.7,-29066,-19634,44708,36077
5991.7,-29358,-19926,44551,35920
5993.7,-29488,-20078,44623,35992
5995.7,-29149,-19774,44840,36217
5997.7,-28852,-19432,44864,36236
5999.7,-29092,-19563,44639,35990
6001.7,-29408,-19771,44585,35919
6003.7,-29199,-19483,44893,36223
6005.7,-28802,-19083,45118,36452
6007.7,-28796,-19172,44942,36279
6009.7,-29013,-19488,44691,36028
6011.7,-29076,-19531,44681,36023
6013.7,-29082,-19432,44746,36101
6015.8,-29175,-19513,44689,36060
6017.8,-29271,-19773,44570,35945
6019.8,-29420,-20084,44460,35824
6021.8,-29647,-20239,44438,35778
6023.8,-29592,-19936,44622,35933
6025.8,-29056,-19259,44891,36183
6027.8,-28546,-18811,44932,36237
6029.8,-28641,-18996,44708,36048
6031.8,-29233,-19570,44474,35839
6033.8,-29756,-20050,44396,35760
6035.8,-29799,-20156,44471,35829
6037.8,-29378,-19846,44620,35992
6039.8,-28882,-19352,44705,36093
6041.8,-28710,-19061,44676,36059
6043.8,-28891,-19124,44662,36027
6045.8,-29180,-19364,44729,36084
6047.8,-29368,-19587,44752,36114
6049.8,-29339,-19700,44679,36057
6051.8,-29137,-19656,44608,35997
6053.8,-29043,-19570,44591,35972
6055.8,-29188,-19602,44607,35962
6057.8,-29262,-19600,44653,35987
6059.8,-29081,-19391,44667,36006
6061.8,-29009,-19295,44569,35932
6063.8,-29331,-19630,44456,35835
6065.8,-29684,-20022,44517,35896
6067.8,-29613,-20007,44716,36092
6069.8,-29262,-19833,44809,36193
6071.8,-29109,-19906,44693,36086
6073.8,-29311,-20069,44528,35909
6075.8,-29565,-19991,44499,35853
6077.8,-29520,-19710,44600,35941
6079.8,-29225,-19466,44664,36015
6081.8,-29065,-19409,44571,35927
6083.8,-29203,-19530,44428,35768
6085.8,-29372,-19648,44475,35791
6087.8,-29326,-19619,44719,36025
6089.8,-29224,-19616,44834,36144
6091.8,-29338,-19851,44617,35930
6093.8,-29575,-20071,44339,35652
6095.8,-29583,-19869,44353,35668
6097.8,-29335,-19444,44564,35877
6099.8,-29222,-19365,44642,35938
6101.8,-29378,-19612,44557,35840
6103.8,-29458,-19708,44517,35818
6105.8,-29332,-19645,44568,35908
6107.8,-29233,-19676,44633,36001
6109.8,-29153,-19613,44711,36086
6111.8,-28992,-19398,44738,36112
6113.8,-29041,-19514,44582,35959
6115.8,-29380,-19929,44400,35779
6117.8,-29485,-19943,44514,35889
6119.8,-29179,-19585,44829,36203
6121.8,-28949,-19497,44929,36306
6123.8,-28950,-19543,44734,36119
6125.8,-28965,-19327,44549,35939
6127.83,-29126,-19327,44561,35953
6129.85,-29426,-19836,44703,36099
6131.88,-29289,-20043,44845,36259
6133.9,-28724,-19568,44887,36317
6135.9,-28685,-19281,44817,36232
6137.9,-29382,-19593,44775,36144
6139.9,-29800,-19677,44890,36219
6141.9,-29483,-19164,45094,36409
6143.9,-29198,-18862,45208,36516
6145.9,-29393,-19188,45201,36489
6147.9,-29581,-19463,45225,36493
6149.9,-29445,-19215,45341,36609
6151.9,-29249,-18853,45387,36665
6153.9,-29143,-18765,45269,36550
6155.9,-29033,-18807,45169,36450
6157.9,-28966,-18787,45246,36524
6159.9,-29035,-18729,45370,36625
6161.9,-29180,-18698,45342,36578
6163.9,-29337,-18736,45181,36439
6165.9,-29473,-18822,45045,36354
6167.9,-29472,-18810,45086,36427
6169.9,-29242,-18606,45342,36694
6171.9,-28929,-18368,45611,36979
6173.9,-28834,-18364,45595,36980
6175.9,-29042,-18624,45316,36711
6177.9,-29221,-18796,45142,36542
6179.9,-29076,-18592,45264,36670
6181.9,-28855,-18331,45477,36896
6183.9,-28909,-18509,45571,37015
6185.9,-29030,-18903,45569,37040
6187.9,-28859,-18867,45550,37034
6189.9,-28539,-18407,45556,37054
6191.9,-28351,-18076,45643,37161
6193.9,-28260,-18035,45728,37251
6195.9,-28261,-18097,45594,37097
6197.9,-28569,-18392,45222,36717
6199.9,-29150,-19100,44909,36419
6201.9,-29521,-19771,44915,36439
6203.9,-29283,-19763,45152,36677
6205.9,-28707,-19249,45253,36780
6207.9,-28517,-19061,44987,36521
6209.9,-28963,-19471,44623,36161
6211.9,-29449,-19902,44605,36131
6213.9,-29418,-19944,44826,36329
6215.9,-29129,-19828,44786,36272
6217.9,-29088,-19788,44450,35934
6219.9,-29278,-19767,44255,35727
6221.9,-29424,-19783,44359,35791
6223.9,-29459,-19896,44532,35931
6225.9,-29422,-19985,44597,36014
6227.9,-29349,-20019,44508,35977
6229.9,-29344,-20148,44320,35821
6231.9,-29422,-20281,44232,35724
6233.9,-29434,-20182,44317,35776
6235.9,-29350,-19984,44349,35776
6237.9,-29328,-19976,44227,35639
6239.9,-29402,-20044,44175,35583
6241.9,-29429,-19971,44316,35723
6243.9,-29413,-19985,44495,35899
6245.9,-29533,-20335,44549,35951
6247.93,-29776,-20685,44411,35826
6249.95,-29874,-20593,44153,35594
6251.98,-29695,-20226,44036,35493
6254.0,-29462,-20006,44184,35633
6256.0,-29438,-19966,44305,35745
6258.0,-29549,-19959,44180,35645
6260.0,-29519,-20011,44069,35574
6262.0,-29318,-20119,44197,35698
6264.0,-29185,-20122,44380,35821
6266.0,-29148,-19930,44529,35912
6268.0,-28977,-19656,44861,36229
6270.0,-28704,-19454,45360,36756
6272.0,-28593,-19286,45776,37268
6274.0,-28512,-18922,46232,37920
6276.0,-28050,-18308,47029,38978
6278.0,-27242,-17645,47873,40181
6280.0,-26535,-16870,48105,41094
6282.0,-26180,-15649,47650,41748
6284.0,-26026,-14101,47003,42401
6286.0,-25717,-12674,46457,43082
6288.0,-25053,-11303,45944,43768
6290.0,-24351,-9761,45373,44457
6292.0,-24107,-8606,44647,44870
6294.0,-24219,-8619,43598,44610
6296.0,-24224,-9610,42263,43687
6298.0,-24186,-10767,40944,42403
6300.0,-24596,-11816,39818,40813
6302.0,-25615,-13114,38821,38856
6304.0,-26965,-14845,38010,36846
6306.0,-28299,-16676,37595,35187
6308.0,-29457,-18157,37535,33744
6310.0,-30488,-19174,37566,32240
6312.0,-31331,-19856,37695,31071
6314.0,-31685,-20227,38186,30898
6316.0,-31517,-20259,39037,31597
6318.0,-31231,-20119,39945,32451
6320.0,-30978,-20038,40731,33122
6322.0,-30547,-20043,41399,33698
6324.0,-30057,-20004,41929,34166
6326.0,-29807,-19839,42360,34505
6328.0,-29665,-19647,42799,34837
6330.0,-29497,-19688,43142,35097
6332.0,-29567,-20056,43205,35078
6334.0,-29832,-20386,43174,34945
6336.0,-29790,-20308,43393,35069
6338.0,-29483,-20095,43746,35361
6340.0,-29470,-20237,43825,35415
6342.0,-29701,-20571,43628,35209
6344.0,-29679,-20620,43523,35077
6346.0,-29537,-20506,43634,35146
6348.0,-29659,-20590,43764,35269
6350.0,-29736,-20651,43815,35357
6352.0,-29391,-20380,43844,35405
6354.0,-29075,-20108,43845,35369
6356.0,-29286,-20207,43801,35274
6358.0,-29677,-20421,43809,35258
6360.0,-29733,-20445,43917,35349
6362.0,-29544,-20423,44013,35430
6364.0,-29455,-20529,44003,35427
6366.1,-29589,-20724,43925,35364
6368.1,-29820,-20928,43858,35303
6370.1,-29860,-20978,43856,35315
6372.1,-29590,-20714,43901,35393
6374.1,-29313,-20345,43917,35426
6376.1,-29260,-20187,43923,35413
6378.1,-29246,-20163,44030,35495
6380.1,-29208,-20149,44206,35661
6382.1,-29374,-20340,44282,35738
6384.1,-29625,-20664,44235,35703
6386.1,-29582,-20629,44175,35662
6388.1,-29351,-20218,44131,35630
6390.1,-29297,-20000,44125,35627
6392.1,-29312,-20113,44231,35733
6394.1,-29172,-20166,44335,35828
6396.1,-29135,-20112,44208,35676
6398.1,-29405,-20174,43974,35417
6400.1,-29573,-20206,44033,35461
6402.1,-29292,-20037,44378,35789
6404.1,-28933,-19924,44534,35935
6406.1,-28962,-20025,44316,35733
6408.1,-29251,-20139,44064,35515
6410.1,-29467,-20257,44073,35539
6412.1,-29536,-20529,44290,35736
6414.1,-29457,-20723,44514,35923
6416.1,-29249,-20556,44536,35918
6418.1,-29133,-20217,44349,35719
6420.1,-29183,-19919,44288,35650
6422.1,-29113,-19614,44495,35842
6424.1,-28915,-19452,44566,35895
6426.1,-28981,-19665,44375,35692
6428.1,-29226,-19991,44443,35759
6430.1,-29164,-20070,44811,36146
6432.1,-28961,-20074,44821,36180
6434.1,-29116,-20221,44505,35855
6436.1,-29340,-20291,44553,35867
6438.1,-29133,-20172,44840,36136
6440.1,-28882,-20117,44737,36053
6442.1,-29081,-20149,44512,35852
6444.1,-29335,-20018,44737,36072
6446.1,-29206,-19820,45101,36422
6448.1,-29003,-19890,45131,36450
6450.1,-29010,-20140,45038,36365
6452.1,-28959,-20141,45078,36411
6454.1,-28722,-19787,45145,36479
6456.1,-28655,-19482,45216,36542
6458.1,-28943,-19598,45325,36628
6460.1,-29183,-19907,45336,36608
6462.1,-28943,-19826,45281,36538
6464.1,-28442,-19335,45425,36684
6466.1,-28236,-19086,45764,37014
6468.1,-28348,-19340,46010,37232
6470.1,-28373,-19564,46042,37240
6472.1,-28305,-19434,45965,37147
6474.1,-28423,-19292,45924,37081
6476.1,-28593,-19339,46037,37154
6478.13,-28523,-19358,46259,37341
6480.15,-28347,-19292,46403,37463
6482.18,-28258,-19258,46475,37517
6484.2,-28163,-19150,46651,37685
6486.2,-28037,-18882,46880,37924
6488.2,-27969,-18662,46973,38025
6490.2,-27888,-18660,46979,38022
6492.2,-27835,-18825,47035,38057
6494.2,-28049,-19027,47085,38074
6496.2,-28320,-19047,47132,38081
6498.2,-28135,-18748,47342,38261
6500.2,-27646,-18394,47663,38574
6502.2,-27439,-18283,47823,38729
6504.2,-27505,-18251,47807,38700
6506.2,-27517,-18088,47842,38727
6508.2,-27576,-17956,47988,38870
6510.2,-27727,-17947,48119,38996
6512.2,-27675,-17961,48157,39040
6514.2,-27565,-18101,48100,39001
6516.2,-27824,-18372,48022,38931
6518.2,-28119,-18320,48070,38977
6520.2,-27892,-17814,48251,39171
6522.2,-27513,-17428,48369,39311
6524.2,-27522,-17432,48343,39290
6526.2,-27629,-17440,48321,39265
6528.2,-27533,-17323,48388,39355
6530.2,-27518,-17311,48463,39489
6532.2,-27623,-17278,48465,39553
6534.2,-27544,-17051,48371,39503
6536.2,-27435,-16929,48223,39397
6538.2,-27618,-17085,48138,39373
6540.2,-27849,-17207,48151,39458
6542.2,-27825,-17168,48129,39487
6544.2,-27752,-17180,47966,39348
6546.2,-27863,-17225,47733,39142
6548.2,-28041,-17168,47558,39015
6550.2,-28149,-17165,47486,38990
6552.2,-28181,-17326,47426,38957
6554.2,-28118,-17433,47243,38797
6556.2,-27970,-17367,46989,38572
6558.2,-27894,-17321,46855,38456
6560.2,-28074,-17448,46821,38418
6562.2,-28435,-17666,46698,38282
6564.2,-28572,-17797,46507,38090
6566.2,-28282,-17785,46393,37987
6568.2,-28049,-17833,46287,37882
6570.2,-28352,-18127,46087,37670
6572.2,-28817,-18480,45921,37501
6574.2,-28923,-18681,45850,37439
6576.2,-28965,-18914,45685,37280
6578.2,-29306,-19256,45398,36982
6580.2,-29506,-19316,45261,36823
6582.2,-29184,-18994,45371,36916
6584.2,-28815,-18803,45460,36995
6586.2,-28849,-18944,45312,36846
6588.2,-29053,-19060,45088,36630
6590.2,-29165,-19086,45070,36610
6592.2,-29232,-19239,45232,36757
6594.2,-29206,-19328,45272,36796
6596.2,-29071,-19154,45058,36608
6598.23,-29113,-19134,44812,36382
6600.25,-29395,-19506,44772,36339
6602.28,-29512,-19735,44893,36458
6604.3,-29327,-19513,44973,36555
6606.3,-29212,-19335,44910,36510
6608.3,-29309,-19478,44777,36388
6610.3,-29334,-19535,44753,36369
6612.3,-29163,-19311,44915,36531
6614.3,-28997,-19166,45094,36708
6616.3,-29008,-19310,45069,36689
6618.3,-29199,-19548,44871,36491
6620.3,-29435,-19678,44713,36320
6622.3,-29526,-19671,44705,36303
6624.3,-29448,-19580,44794,36395
6626.3,-29317,-19498,44886,36479
6628.3,-29186,-19474,44893,36471
6630.3,-29146,-19509,44808,36381
6632.3,-29336,-19607,44741,36318
6634.3,-29574,-19701,44779,36346
6636.3,-29516,-19702,44836,36389
6638.3,-29301,-19689,44805,36363
6640.3,-29323,-19727,44747,36322
6642.3,-29519,-19669,44778,36358
6644.3,-29608,-19519,44882,36458
6646.3,-29564,-19512,44970,36550
6648.3,-29363,-19551,44997,36593
6650.3,-28981,-19351,44980,36600
6652.3,-28778,-19145,44969,36603
6654.3,-29036,-19315,44984,36610
6656.3,-29348,-19590,44978,36585
6658.3,-29270,-19544,44915,36513
6660.3,-29085,-19404,44830,36426
6662.3,-29221,-19544,44785,36372
6664.3,-29480,-19790,44843,36413
6666.3,-29432,-19786,44984,36550
6668.3,-29152,-19524,45030,36610
6670.3,-29058,-19244,44857,36451
6672.3,-29254,-19176,44687,36289
6674.3,-29417,-19383,44802,36411
6676.3,-29312,-19609,45054,36661
6678.3,-29113,-19559,45069,36664
6680.3,-29138,-19423,44814,36396
6682.3,-29458,-19628,44569,36140
6684.3,-29808,-20045,44527,36081
6686.3,-29843,-20142,44688,36227
6688.3,-29530,-19866,44908,36452
6690.3,-29228,-19632,44950,36517
6692.3,-29224,-19589,44764,36362
6694.3,-29355,-19586,44637,36257
6696.3,-29277,-19530,44795,36416
6698.3,-28942,-19354,45055,36662
6700.3,-28661,-19108,45098,36705
6702.3,-28733,-19107,44900,36528
6704.3,-29049,-19384,44716,36352
6706.3,-29213,-19454,44735,36349
6708.3,-29141,-19251,44871,36465
6710.3,-29168,-19359,44883,36480
6712.3,-29466,-19830,44651,36251
6714.3,-29812,-20031,44338,35925
6716.3,-29965,-19871,44257,35843
6718.33,-29810,-19795,44527,36120
6720.35,-29357,-19772,44850,36435
6722.38,-28952,-19605,44865,36436
6724.4,-29069,-19636,44662,36237
6726.4,-29577,-20015,44595,36176
6728.4,-29795,-20186,44683,36260
6730.4,-29469,-19925,44701,36291
6732.4,-29107,-19755,44660,36279
6734.4,-29163,-19866,44687,36310
6736.4,-29445,-19822,44706,36312
6738.4,-29527,-19560,44669,36275
6740.4,-29352,-19473,44694,36313
6742.4,-29169,-19550,44742,36350
6744.4,-29145,-19501,44644,36228
6746.4,-29283,-19496,44507,36085
6748.4,-29506,-19808,44553,36137
6750.4,-29629,-20129,44668,36259
6752.4,-29515,-20095,44626,36227
6754.4,-29346,-19937,44517,36119
6756.4,-29402,-19951,44527,36108
6758.4,-29595,-19976,44604,36163
6760.4,-29622,-19861,44630,36183
6762.4,-29450,-19744,44611,36165
6764.4,-29301,-19669,44584,36132
6766.4,-29304,-19562,44564,36104
6768.4,-29468,-19548,44579,36108
6770.4,-29723,-19755,44604,36118
6772.4,-29811,-19987,44604,36116
6774.4,-29487,-19958,44629,36160
6776.4,-29004,-19704,44678,36225
6778.4,-29001,-19600,44638,36176
6780.4,-29561,-19880,44543,36060
6782.4,-29883,-20152,44580,36087
6784.4,-29412,-19846,44711,36222
6786.4,-28760,-19209,44707,36234
6788.4,-28770,-19058,44608,36156
6790.4,-29234,-19465,44649,36200
6792.4,-29436,-19736,44761,36296
6794.4,-29373,-19677,44669,36199
6796.4,-29483,-19733,44406,35958
6798.4,-29715,-19963,44283,35856
6800.4,-29717,-19976,44419,35985
6802.4,-29570,-19816,44589,36142
6804.4,-29646,-19931,44533,36091
6806.4,-29947,-20273,44302,35869
6808.4,-30040,-20276,44230,35786
6810.4,-29674,-19791,44482,36010
6812.4,-29176,-19340,44758,36274
6814.4,-29037,-19325,44708,36236
6816.4,-29288,-19637,44446,35991
6818.4,-29596,-20038,44331,35879
6820.4,-29776,-20342,44436,35972
6822.4,-29853,-20336,44536,36063
6824.4,-29789,-19999,44494,36026
6826.4,-29542,-19607,44418,35958
6828.4,-29284,-19385,44447,35984
6830.4,-29261,-19419,44535,36073
6832.4,-29462,-19742,44564,36117
6834.4,-29615,-20104,44555,36119
6836.5,-29530,-20084,44577,36131
6838.5,-29315,-19748,44586,36129
6840.5,-29191,-19558,44594,36133
6842.5,-29238,-19558,44721,36249
6844.5,-29399,-19442,44892,36399
6846.5,-29576,-19280,44881,36376
6848.5,-29644,-19294,44781,36263
6850.5,-29565,-19260,44885,36329
6852.5,-29481,-18960,45128,36537
6854.5,-29486,-18742,45233,36651
6856.5,-29454,-18875,45199,36655
6858.5,-29343,-18989,45150,36613
6860.5,-29401,-18840,45061,36486
6862.5,-29697,-18827,44997,36372
6864.5,-29861,-19130,45126,36470
6866.5,-29712,-19309,45317,36659
6868.5,-29603,-19219,45270,36628
6870.5,-29730,-19199,45043,36418
6872.5,-29779,-19202,44968,36341
6874.5,-29612,-18967,45136,36497
6876.5,-29494,-18771,45347,36701
6878.5,-29453,-18854,45418,36780
6880.5,-29281,-18802,45324,36712
6882.5,-29145,-18458,45161,36589
6884.5,-29315,-18353,45062,36524
6886.5,-29531,-18643,45080,36559
6888.5,-29390,-18823,45176,36676
6890.5,-29033,-18708,45282,36818
6892.5,-28873,-18560,45320,36886
6894.5,-28972,-18476,45279,36866
6896.5,-29083,-18495,45280,36891
6898.5,-29116,-18806,45340,36965
6900.5,-29214,-19308,45249,36863
6902.5,-29324,-19535,45001,36597
6904.5,-29099,-19288,44962,36547
6906.5,-28555,-18900,45238,36802
6908.5,-28332,-18831,45387,36928
6910.5,-28788,-19199,45134,36683
6912.5,-29429,-19660,44772,36340
6914.5,-29702,-19820,44604,36167
6916.5,-29674,-19777,44597,36141
6918.5,-29588,-19916,44606,36136
6920.5,-29491,-20235,44468,35982
6922.5,-29482,-20378,44154,35648
6924.5,-29665,-20289,43994,35481
6926.5,-29880,-20257,44218,35717
6928.5,-29950,-20345,44421,35942
6930.5,-29918,-20303,44261,35809
6932.5,-29770,-20080,44155,35716
6934.5,-29459,-19975,44367,35931
6936.5,-29300,-20174,44387,35957
6938.5,-29568,-20435,44028,35599
6940.5,-29864,-20444,43901,35451
6942.5,-29745,-20287,44177,35705
6944.5,-29535,-20262,44289,35814
6946.5,-29634,-20362,44126,35640
6948.53,-29765,-20366,44114,35602
6950.55,-29715,-20336,44234,35720
6952.58,-29799,-20511,44180,35699
6954.6,-30046,-20799,44071,35617
6956.6,-30114,-20934,44060,35620
6958.6,-30108,-20920,43972,35541
6960.6,-30215,-20772,43864,35418
6962.6,-29993,-20294,44062,35579
6964.6,-29308,-19682,44384,35898
6966.6,-29033,-19627,44331,35881
6968.6,-29598,-20212,44052,35605
6970.6,-30073,-20606,44109,35622
6972.6,-29771,-20404,44492,35985
6974.6,-29319,-20120,44799,36297
6976.6,-29216,-19945,45087,36599
6978.6,-28923,-19354,45735,37333
6980.6,-28190,-18406,46737,38534
6982.6,-27681,-17907,47668,39734
6984.6,-27598,-17842,48123,40608
6986.6,-27242,-17151,48009,41298
6988.6,-26459,-15521,47588,42076
6990.6,-25953,-13900,47131,42906
6992.6,-25847,-12770,46611,43585
6994.6,-25448,-11420,45996,44226
6996.6,-24626,-9505,45478,45091
6998.6,-24032,-7972,44939,45836
7000.6,-23945,-7758,43864,45671
7002.6,-24112,-8709,42228,44491
7004.6,-24544,-10268,40672,42947
7006.6,-25377,-12110,39515,41320
7008.6,-26255,-13778,38547,39404
7010.6,-26818,-14870,37810,37432
7012.6,-27387,-15748,37548,35860
7014.6,-28427,-17013,37545,34443
7016.6,-29758,-18419,37472,32790
7018.6,-30858,-19297,37554,31431
7020.6,-31468,-19573,38163,31188
7022.6,-31556,-19543,39208,31974
7024.6,-31171,-19349,40362,33057
7026.6,-30592,-19251,41340,33913
7028.6,-30241,-19594,41885,34342
7030.6,-30237,-20162,42016,34406
7032.6,-30271,-20358,42173,34479
7034.6,-30016,-20058,42634,34824
7036.6,-29548,-19707,43121,35201
7038.6,-29284,-19724,43280,35268
7040.6,-29475,-20124,43191,35092
7042.6,-29869,-20553,43169,34983
7044.6,-30039,-20721,43350,35082
7046.6,-29934,-20769,43579,35251
7048.6,-29817,-20879,43623,35272
7050.6,-29807,-20834,43501,35136
7052.6,-29833,-20595,43481,35082
7054.6,-29871,-20655,43663,35241
7056.6,-29882,-21081,43823,35424
7058.6,-29751,-21190,43788,35422
7060.6,-29578,-20831,43663,35288
7062.6,-29665,-20691,43599,35188
7064.6,-29955,-20904,43610,35172
7066.6,-29999,-20824,43664,35207
7068.63,-29675,-20373,43733,35262
7070.65,-29393,-20151,43785,35323
7072.68,-29427,-20294,43837,35389
7074.7,-29608,-20446,43915,35468
7076.7,-29700,-20533,43991,35543
7078.7,-29634,-20637,44021,35579
7080.7,-29487,-20652,43976,35532
7082.7,-29521,-20657,43829,35377
7084.7,-29900,-20926,43680,35218
7086.7,-30274,-21291,43738,35250
7088.7,-30183,-21272,43958,35444
7090.7,-29810,-20908,44039,35533
7092.7,-29635,-20645,43934,35462
7094.7,-29630,-20530,43916,35463
7096.7,-29528,-20345,44056,35604
7098.7,-29456,-20248,44150,35688
7100.7,-29589,-20496,44112,35631
7102.7,-29723,-20828,44020,35528
7104.7,-29713,-20844,43943,35457
7106.7,-29763,-20673,43957,35463
7108.7,-29903,-20672,44096,35573
7110.7,-29798,-20739,44233,35706
7112.7,-29374,-20559,44255,35758
7114.7,-29139,-20331,44219,35738
7116.7,-29446,-20522,44207,35716
7118.7,-29852,-20943,44235,35740
7120.7,-29749,-20947,44291,35792
7122.7,-29373,-20547,44278,35757
7124.7,-29345,-20309,44159,35614
7126.7,-29482,-20199,44161,35619
7128.7,-29210,-19845,44442,35914
7130.7,-28857,-19680,44697,36174
7132.7,-29132,-20268,44619,36098
7134.7,-29686,-20968,44426,35910
7136.7,-29714,-20917,44439,35922
7138.7,-29434,-20565,44575,36050
7140.7,-29469,-20671,44655,36118
7142.7,-29575,-20858,44709,36156
7144.7,-29340,-20562,44746,36177
7146.7,-29158,-20198,44718,36134
7148.7,-29383,-20266,44725,36131
7150.7,-29583,-20462,44868,36272
7152.7,-29392,-20411,45003,36413
7154.7,-29095,-20229,44980,36398
7156.7,-28974,-20064,44927,36344
7158.7,-29002,-19925,45022,36427
7160.7,-29156,-19950,45196,36584
7162.7,-29340,-20214,45269,36639
7164.7,-29292,-20441,45226,36580
7166.7,-29048,-20355,45211,36559
7168.7,-28909,-20015,45366,36714
7170.7,-28767,-19583,45699,37035
7172.7,-28309,-19152,46030,37343
7174.7,-27879,-18962,46141,37440
7176.7,-28086,-19260,46050,37350
7178.7,-28720,-19826,46021,37313
7180.7,-29056,-20136,46177,37432
7182.7,-28934,-19995,46316,37521
7184.7,-28714,-19635,46293,37461
7186.7,-28613,-19349,46302,37449
7188.73,-28633,-19319,46533,37663
7190.75,-28682,-19502,46836,37945
7192.78,-28547,-19547,47016,38102
7194.8,-28216,-19266,47121,38194
7196.8,-28053,-19022,47231,38299
7198.8,-28227,-19125,47316,38367
7200.8,-28387,-19303,47444,38457
7202.8,-28307,-19281,47691,38661
7204.8,-28233,-19225,47883,38816
7206.8,-28294,-19209,47872,38771
7208.8,-28283,-19060,47863,38735
7210.8,-28199,-18861,48045,38911
7212.8,-28227,-18807,48262,39134
7214.8,-28213,-18743,48358,39230
7216.8,-27936,-18532,48384,39253
7218.8,-27682,-18363,48370,39241
7220.8,-27771,-18264,48368,39235
7222.8,-27919,-18010,48532,39389
7224.8,-27816,-17706,48783,39637
7226.8,-27732,-17702,48804,39670
7228.8,-27934,-17937,48621,39500
7230.8,-28144,-18049,48626,39516
7232.8,-28058,-17959,48897,39807
7234.8,-27828,-17838,49050,40003
7236.8,-27754,-17747,48834,39854
7238.8,-27904,-17661,48468,39556
7240.8,-28129,-17618,48333,39468
7242.8,-28243,-17654,48476,39648
7244.8,-28176,-17708,48553,39785
7246.8,-27975,-17632,48353,39668
7248.8,-27735,-17339,48110,39499
7250.8,-27670,-17066,48037,39480
7252.8,-28035,-17245,47950,39444
7254.8,-28658,-17842,47686,39233
7256.8,-28917,-18198,47424,39009
7258.8,-28573,-17936,47313,38917
7260.8,-28130,-17499,47242,38862
7262.8,-28018,-17352,47135,38777
7264.8,-28083,-17413,47024,38685
7266.8,-28177,-17606,46850,38516
7268.8,-28422,-18049,46560,38229
7270.8,-28726,-18534,46280,37967
7272.8,-28849,-18728,46127,37838
7274.8,-28868,-18776,46053,37767
7276.8,-28919,-18890,45984,37691
7278.8,-28874,-18874,45872,37590
7280.8,-28755,-18684,45665,37407
7282.8,-28857,-18694,45442,37182
7284.8,-29194,-19028,45362,37078
7286.8,-29426,-19368,45392,37092
7288.8,-29395,-19505,45340,37035
7290.8,-29320,-19539,45166,36853
7292.8,-29491,-19632,45001,36682
7294.8,-29835,-19780,44953,36635
7296.8,-29852,-19790,45036,36722
7298.8,-29365,-19627,45112,36811
7300.8,-29018,-19618,44991,36716
7302.8,-29276,-19857,44771,36503
