t,carotid_880nm,carotid_660nm,brachial_880nm,brachial_660nm
3.7,45.283,37.06,27.501,-44.935
13.6,43.283,37.06,29.501,-45.935
23.5,40.283,36.06,27.501,-45.935
33.4,37.283,36.06,29.501,-45.935
43.3,35.283,34.06,28.501,-45.935
53.1,33.283,33.06,29.501,-45.935
63.0,31.283,32.06,28.501,-45.935
72.9,27.283,32.06,26.501,-45.935
82.8,23.283,30.06,27.501,-45.935
92.7,21.283,29.06,26.501,-46.935
102.6,18.283,30.06,24.501,-46.935
112.5,15.283,27.06,24.501,-47.935
122.3,12.283,28.06,22.501,-45.935
132.2,8.2835,27.06,22.501,-45.935
142.1,4.2835,26.06,23.501,-45.935
152.0,1.2835,25.06,22.501,-45.935
161.9,-2.7165,24.06,21.501,-45.935
171.8,-6.7165,23.06,19.501,-46.935
181.7,-8.7165,21.06,19.501,-45.935
191.5,-10.717,20.06,21.501,-46.935
201.4,-15.717,19.06,18.501,-45.935
211.3,-18.717,19.06,17.501,-44.935
221.2,-18.717,19.06,16.501,-45.935
231.1,-23.717,18.06,16.501,-46.935
241.0,-23.717,18.06,16.501,-45.935
250.9,-32.717,15.06,16.501,-45.935
260.7,-32.717,15.06,15.501,-45.935
270.6,-39.717,14.06,16.501,-45.935
280.5,-39.717,14.06,16.501,-45.935
290.4,-47.717,11.06,13.501,-45.935
300.3,-47.717,11.06,14.501,-46.935
310.2,-53.717,11.06,13.501,-45.935
320.1,-53.717,11.06,13.501,-45.935
329.9,-54.717,11.06,12.501,-44.935
339.8,-54.717,11.06,10.501,-44.935
349.7,-48.717,12.06,11.501,-43.935
359.6,-48.717,12.06,9.5011,-41.935
369.5,-40.717,13.06,9.5011,-39.935
379.4,-36.717,14.06,10.501,-37.935
389.3,-29.717,16.06,12.501,-35.935
399.1,-21.717,17.06,14.501,-34.935
409.0,-17.717,20.06,17.501,-34.935
418.9,-11.717,21.06,19.501,-34.935
428.8,-5.7165,23.06,21.501,-35.935
438.7,1.2835,25.06,24.501,-35.935
448.6,5.2835,26.06,26.501,-35.935
458.5,10.283,27.06,25.501,-36.935
468.3,16.283,30.06,28.501,-36.935
478.2,22.283,31.06,28.501,-36.935
488.1,25.283,32.06,30.501,-36.935
498.0,31.283,34.06,29.501,-36.935
507.9,36.283,35.06,28.501,-36.935
517.8,40.283,37.06,29.501,-37.935
527.7,43.283,36.06,32.501,-37.935
537.5,44.283,37.06,31.501,-38.935
547.4,47.283,38.06,31.501,-39.935
557.3,48.283,39.06,32.501,-40.935
567.2,50.283,39.06,32.501,-41.935
577.1,50.283,39.06,31.501,-41.935
587.0,51.283,39.06,32.501,-42.935
596.9,52.283,41.06,29.501,-40.935
606.7,53.283,40.06,29.501,-42.935
616.6,55.283,42.06,28.501,-41.935
626.5,54.283,42.06,27.501,-40.935
636.4,56.283,43.06,28.501,-39.935
646.3,55.283,42.06,27.501,-40.935
656.2,57.283,41.06,26.501,-40.935
666.1,53.283,41.06,26.501,-39.935
675.9,52.283,42.06,26.501,-39.935
685.8,52.283,41.06,25.501,-38.935
695.7,51.283,41.06,26.501,-41.935
705.6,49.283,40.06,27.501,-40.935
715.5,48.283,39.06,25.501,-40.935
725.4,46.283,39.06,25.501,-41.935
735.3,45.283,39.06,23.501,-41.935
745.1,42.283,37.06,24.501,-39.935
755.0,40.283,37.06,23.501,-40.935
764.9,38.283,37.06,24.501,-41.935
774.8,36.283,37.06,22.501,-39.935
784.7,33.283,35.06,21.501,-40.935
794.6,31.283,35.06,21.501,-40.935
804.5,27.283,34.06,18.501,-40.935
814.3,23.283,32.06,19.501,-41.935
824.2,21.283,31.06,17.501,-41.935
834.1,19.283,32.06,17.501,-41.935
844.0,17.283,30.06,17.501,-40.935
853.9,11.283,29.06,17.501,-40.935
863.8,9.2835,28.06,15.501,-40.935
873.7,4.2835,27.06,15.501,-40.935
883.5,3.2835,26.06,14.501,-40.935
893.4,-1.7165,25.06,14.501,-40.935
903.3,-4.7165,23.06,14.501,-40.935
913.2,-7.7165,23.06,14.501,-40.935
923.1,-10.717,22.06,12.501,-39.935
933.0,-14.717,22.06,12.501,-39.935
942.9,-18.717,20.06,9.5011,-39.935
952.7,-20.717,19.06,9.5011,-39.935
962.6,-25.717,17.06,9.5011,-39.935
972.5,-25.717,17.06,9.5011,-39.935
982.4,-31.717,16.06,9.5011,-39.935
992.3,-31.717,16.06,9.5011,-39.935
1002.2,-37.717,14.06,8.5011,-39.935
1012.1,-37.717,14.06,8.5011,-39.935
1021.9,-41.717,13.06,6.5011,-39.935
1031.8,-41.717,13.06,6.5011,-39.935
1041.7,-38.717,15.06,5.5011,-40.935
1051.6,-38.717,15.06,3.5011,-37.935
1061.5,-28.717,18.06,2.5011,-36.935
1071.4,-28.717,18.06,4.5011,-33.935
1081.2,-15.717,22.06,3.5011,-32.935
1091.1,-15.717,22.06,4.5011,-31.935
1101.0,-0.71652,25.06,6.5011,-30.935
1110.9,-0.71652,25.06,11.501,-29.935
1120.8,4.2835,27.06,11.501,-29.935
1130.7,10.283,28.06,14.501,-29.935
1140.6,16.283,31.06,17.501,-30.935
1150.5,22.283,33.06,18.501,-30.935
1160.3,28.283,35.06,20.501,-31.935
1170.2,34.283,35.06,22.501,-32.935
1180.1,39.283,37.06,23.501,-32.935
1190.0,45.283,40.06,24.501,-32.935
1199.9,51.283,42.06,25.501,-33.935
1209.8,55.283,42.06,28.501,-32.935
1219.6,61.283,45.06,26.501,-34.935
1229.5,66.283,45.06,26.501,-34.935
1239.4,68.283,46.06,28.501,-34.935
1249.3,69.283,46.06,28.501,-36.935
1259.2,69.283,45.06,29.501,-37.935
1269.1,74.283,48.06,28.501,-36.935
1279.0,74.283,48.06,29.501,-37.935
1288.8,73.283,49.06,29.501,-37.935
1298.7,73.283,47.06,30.501,-36.935
1308.6,74.283,47.06,30.501,-36.935
1318.5,73.283,48.06,28.501,-37.935
1328.4,75.283,48.06,29.501,-38.935
1338.3,75.283,48.06,26.501,-37.935
1348.2,75.283,48.06,26.501,-36.935
1358.0,73.283,47.06,26.501,-36.935
1367.9,72.283,48.06,26.501,-36.935
1377.8,73.283,46.06,26.501,-37.935
1387.7,71.283,46.06,24.501,-36.935
1397.6,69.283,47.06,23.501,-36.935
1407.5,69.283,46.06,24.501,-37.935
1417.4,64.283,44.06,23.501,-37.935
1427.2,63.283,43.06,24.501,-38.935
1437.1,60.283,43.06,23.501,-37.935
1447.0,57.283,41.06,22.501,-38.935
1456.9,53.283,41.06,22.501,-38.935
1466.8,51.283,39.06,21.501,-37.935
1476.7,48.283,38.06,20.501,-37.935
1486.6,45.283,38.06,19.501,-36.935
1496.4,43.283,38.06,18.501,-38.935
1506.3,38.283,37.06,20.501,-37.935
1516.2,36.283,35.06,20.501,-38.935
1526.1,33.283,34.06,19.501,-37.935
1536.0,30.283,33.06,19.501,-38.935
1545.9,26.283,32.06,17.501,-39.935
1555.8,21.283,31.06,14.501,-38.935
1565.6,19.283,29.06,15.501,-37.935
1575.5,14.283,28.06,14.501,-37.935
1585.4,10.283,28.06,16.501,-37.935
1595.3,6.2835,26.06,14.501,-38.935
1605.2,4.2835,25.06,14.501,-37.935
1615.1,-0.71652,24.06,13.501,-36.935
1625.0,-5.7165,23.06,11.501,-37.935
1634.8,-7.7165,22.06,13.501,-38.935
1644.7,-12.717,21.06,11.501,-37.935
1654.6,-15.717,20.06,10.501,-38.935
1664.5,-19.717,17.06,10.501,-37.935
1674.4,-22.717,17.06,9.5011,-37.935
1684.3,-27.717,16.06,10.501,-37.935
1694.2,-29.717,14.06,7.5011,-36.935
1704.0,-33.717,15.06,9.5011,-38.935
1713.9,-37.717,13.06,7.5011,-36.935
1723.8,-37.717,13.06,5.5011,-36.935
1733.7,-46.717,10.06,7.5011,-35.935
1743.6,-46.717,10.06,4.5011,-37.935
1753.5,-53.717,9.0601,3.5011,-36.935
1763.4,-53.717,9.0601,5.5011,-36.935
1773.2,-57.717,8.0601,3.5011,-35.935
1783.1,-57.717,8.0601,3.5011,-37.935
1793.0,-55.717,9.0601,2.5011,-36.935
1802.9,-55.717,9.0601,1.5011,-34.935
1812.8,-45.717,12.06,-0.49895,-32.935
1822.7,-45.717,12.06,-0.49895,-32.935
1832.6,-31.717,16.06,3.5011,-27.935
1842.4,-31.717,16.06,4.5011,-27.935
1852.3,-15.717,20.06,6.5011,-26.935
1862.2,-15.717,20.06,6.5011,-26.935
1872.1,-1.7165,23.06,13.501,-27.935
1882.0,-1.7165,23.06,13.501,-27.935
1891.9,5.2835,25.06,16.501,-26.935
1901.8,11.283,26.06,16.501,-26.935
1911.6,20.283,29.06,19.501,-27.935
1921.5,27.283,30.06,19.501,-27.935
1931.4,34.283,32.06,24.501,-29.935
1941.3,40.283,34.06,24.501,-29.935
1951.2,47.283,37.06,26.501,-29.935
1961.1,56.283,39.06,26.501,-29.935
1971.0,61.283,40.06,26.501,-29.935
1980.8,69.283,43.06,26.501,-29.935
1990.7,71.283,44.06,27.501,-30.935
2000.6,74.283,44.06,27.501,-30.935
2010.5,77.283,44.06,30.501,-32.935
2020.4,78.283,45.06,30.501,-32.935
2030.3,80.283,48.06,29.501,-34.935
2040.2,82.283,46.06,29.501,-34.935
2050.0,83.283,46.06,30.501,-34.935
2059.9,86.283,48.06,30.501,-34.935
2069.8,87.283,48.06,28.501,-35.935
2079.7,87.283,48.06,27.501,-35.935
2089.6,90.283,48.06,28.501,-34.935
2099.5,89.283,49.06,27.501,-34.935
2109.4,89.283,48.06,27.501,-34.935
2119.2,89.283,47.06,25.501,-34.935
2129.1,86.283,47.06,26.501,-34.935
2139.0,87.283,47.06,25.501,-34.935
2148.9,87.283,48.06,26.501,-34.935
2158.8,85.283,46.06,25.501,-34.935
2168.7,83.283,46.06,25.501,-34.935
2178.6,83.283,45.06,24.501,-33.935
2188.4,80.283,43.06,25.501,-34.935
2198.3,77.283,43.06,24.501,-34.935
2208.2,75.283,44.06,22.501,-34.935
2218.1,74.283,41.06,25.501,-35.935
2228.0,71.283,42.06,21.501,-35.935
2237.9,69.283,40.06,22.501,-36.935
2247.8,67.283,40.06,21.501,-34.935
2257.6,63.283,40.06,19.501,-34.935
2267.5,60.283,39.06,21.501,-34.935
2277.4,56.283,37.06,20.501,-35.935
2287.3,53.283,36.06,20.501,-34.935
2297.2,50.283,35.06,19.501,-35.935
2307.1,47.283,34.06,16.501,-34.935
2317.0,42.283,33.06,18.501,-35.935
2326.8,40.283,32.06,17.501,-34.935
2336.7,38.283,31.06,17.501,-35.935
2346.6,33.283,30.06,17.501,-36.935
2356.5,28.283,28.06,16.501,-35.935
2366.4,25.283,26.06,16.501,-35.935
2376.3,22.283,26.06,12.501,-35.935
2386.2,17.283,24.06,15.501,-35.935
2396.0,14.283,23.06,12.501,-35.935
2405.9,10.283,23.06,14.501,-36.935
2415.8,6.2835,23.06,12.501,-35.935
2425.7,3.2835,20.06,12.501,-36.935
2435.6,-0.71652,20.06,11.501,-35.935
2445.5,-5.7165,19.06,13.501,-35.935
2455.4,-8.7165,18.06,13.501,-36.935
2465.2,-13.717,16.06,11.501,-36.935
2475.1,-17.717,14.06,9.5011,-34.935
2485.0,-22.717,13.06,8.5011,-34.935
2494.9,-22.717,13.06,9.5011,-35.935
2504.8,-28.717,11.06,9.5011,-35.935
2514.7,-28.717,11.06,7.5011,-34.935
2524.6,-36.717,9.0601,7.5011,-34.935
2534.4,-36.717,9.0601,7.5011,-35.935
2544.3,-43.717,8.0601,4.5011,-34.935
2554.2,-43.717,8.0601,5.5011,-35.935
2564.1,-49.717,7.0601,4.5011,-35.935
2574.0,-49.717,7.0601,5.5011,-35.935
2583.9,-51.717,6.0601,3.5011,-35.935
2593.8,-51.717,6.0601,4.5011,-33.935
2603.6,-50.717,7.0601,-0.49895,-33.935
2613.5,-50.717,7.0601,1.5011,-31.935
2623.4,-37.717,9.0601,0.50105,-29.935
2633.3,-37.717,9.0601,0.50105,-28.935
2643.2,-30.717,11.06,3.5011,-26.935
2653.1,-21.717,12.06,4.5011,-25.935
2663.0,-16.717,15.06,7.5011,-25.935
2672.8,-8.7165,16.06,9.5011,-24.935
2682.7,-1.7165,18.06,11.501,-25.935
2692.6,3.2835,20.06,13.501,-25.935
2702.5,10.283,21.06,16.501,-25.935
2712.4,17.283,24.06,18.501,-26.935
2722.3,24.283,25.06,19.501,-26.935
2732.2,31.283,28.06,21.501,-27.935
2742.0,38.283,29.06,23.501,-27.935
2751.9,43.283,32.06,25.501,-29.935
2761.8,49.283,33.06,24.501,-28.935
2771.7,54.283,35.06,24.501,-29.935
2781.6,59.283,35.06,26.501,-30.935
2791.5,63.283,36.06,26.501,-30.935
2801.4,67.283,38.06,28.501,-31.935
2811.2,68.283,39.06,30.501,-31.935
2821.1,70.283,37.06,29.501,-32.935
2831.0,70.283,40.06,28.501,-31.935
2840.9,73.283,40.06,28.501,-33.935
2850.8,76.283,39.06,27.501,-32.935
2860.7,75.283,41.06,27.501,-32.935
2870.6,77.283,40.06,27.501,-32.935
2880.4,77.283,40.06,24.501,-32.935
2890.3,79.283,41.06,24.501,-32.935
2900.2,78.283,40.06,23.501,-32.935
2910.1,78.283,41.06,23.501,-32.935
2920.0,77.283,39.06,24.501,-33.935
2929.9,78.283,39.06,24.501,-33.935
2939.8,77.283,40.06,25.501,-33.935
2949.6,74.283,38.06,25.501,-33.935
2959.5,73.283,39.06,23.501,-33.935
2969.4,70.283,37.06,23.501,-33.935
2979.3,70.283,37.06,24.501,-32.935
2989.2,69.283,36.06,24.501,-32.935
2999.1,66.283,35.06,23.501,-34.935
3009.0,65.283,35.06,23.501,-34.935
3018.8,61.283,34.06,21.501,-34.935
3028.7,59.283,33.06,21.501,-34.935
3038.6,56.283,33.06,19.501,-35.935
3048.5,52.283,32.06,19.501,-35.935
3058.4,50.283,32.06,20.501,-35.935
3068.3,47.283,31.06,20.501,-35.935
3078.2,45.283,29.06,18.501,-33.935
3088.0,44.283,29.06,18.501,-33.935
3097.9,40.283,28.06,18.501,-34.935
3107.8,36.283,27.06,18.501,-34.935
3117.7,32.283,25.06,17.501,-33.935
3127.6,28.283,25.06,17.501,-36.935
3137.5,26.283,23.06,17.501,-35.935
3147.4,21.283,23.06,16.501,-35.935
3157.2,18.283,21.06,16.501,-34.935
3167.1,14.283,22.06,14.501,-34.935
3177.0,13.283,20.06,15.501,-34.935
3186.9,9.2835,19.06,15.501,-33.935
3196.8,6.2835,19.06,12.501,-34.935
3206.7,1.2835,17.06,12.501,-34.935
3216.6,-3.7165,16.06,10.501,-34.935
3226.4,-6.7165,15.06,12.501,-35.935
3236.3,-10.717,14.06,12.501,-35.935
3246.2,-10.717,14.06,10.501,-35.935
3256.1,-17.717,13.06,10.501,-34.935
3266.0,-17.717,13.06,10.501,-35.935
3275.9,-23.717,11.06,9.5011,-34.935
3285.8,-23.717,11.06,8.5011,-34.935
3295.6,-30.717,9.0601,7.5011,-35.935
3305.5,-30.717,9.0601,8.5011,-33.935
3315.4,-39.717,5.0601,7.5011,-33.935
3325.3,-39.717,5.0601,6.5011,-35.935
3335.2,-46.717,3.0601,6.5011,-34.935
3345.1,-46.717,3.0601,6.5011,-33.935
3355.0,-53.717,2.0601,3.5011,-32.935
3364.8,-53.717,2.0601,3.5011,-33.935
3374.7,-57.717,1.0601,3.5011,-34.935
3384.6,-57.717,1.0601,3.5011,-33.935
3394.5,-59.717,-0.93989,4.5011,-33.935
3404.4,-59.717,-0.93989,2.5011,-32.935
3414.3,-57.717,0.060111,1.5011,-32.935
3424.2,-55.717,0.060111,0.50105,-30.935
3434.0,-49.717,1.0601,0.50105,-29.935
3443.9,-41.717,4.0601,2.5011,-28.935
3453.8,-36.717,6.0601,2.5011,-26.935
3463.7,-29.717,8.0601,4.5011,-24.935
3473.6,-22.717,8.0601,6.5011,-25.935
3483.5,-17.717,11.06,8.5011,-24.935
3493.4,-11.717,12.06,11.501,-25.935
3503.2,-4.7165,14.06,14.501,-24.935
3513.1,0.28348,16.06,16.501,-25.935
3523.0,6.2835,18.06,17.501,-25.935
3532.9,14.283,21.06,18.501,-27.935
3542.8,18.283,21.06,19.501,-25.935
3552.7,23.283,23.06,22.501,-27.935
3562.6,29.283,24.06,22.501,-27.935
3572.4,34.283,26.06,22.501,-27.935
3582.3,39.283,27.06,21.501,-27.935
3592.2,43.283,28.06,23.501,-28.935
3602.1,45.283,29.06,23.501,-28.935
3612.0,48.283,29.06,23.501,-29.935
3621.9,48.283,31.06,25.501,-29.935
3631.7,52.283,31.06,24.501,-32.935
3641.6,51.283,32.06,24.501,-30.935
3651.5,53.283,31.06,23.501,-31.935
3661.4,55.283,31.06,23.501,-30.935
3671.3,54.283,32.06,23.501,-31.935
3681.2,54.283,31.06,21.501,-29.935
3691.1,56.283,32.06,21.501,-31.935
3701.0,56.283,32.06,20.501,-31.935
3710.8,57.283,33.06,18.501,-30.935
3720.7,58.283,32.06,20.501,-30.935
3730.6,56.283,31.06,19.501,-30.935
3740.5,57.283,33.06,18.501,-30.935
3750.4,56.283,31.06,18.501,-30.935
3760.3,53.283,30.06,18.501,-29.935
3770.1,53.283,32.06,17.501,-30.935
3780.0,50.283,31.06,18.501,-31.935
3789.9,50.283,29.06,17.501,-30.935
3799.8,48.283,29.06,17.501,-30.935
3809.7,46.283,30.06,17.501,-30.935
3819.6,45.283,28.06,17.501,-31.935
3829.5,42.283,28.06,17.501,-31.935
3839.3,41.283,28.06,15.501,-31.935
3849.2,36.283,27.06,15.501,-31.935
3859.1,33.283,26.06,15.501,-30.935
3869.0,31.283,25.06,15.501,-30.935
3878.9,30.283,25.06,14.501,-31.935
3888.8,26.283,23.06,13.501,-30.935
3898.7,24.283,22.06,13.501,-31.935
3908.5,21.283,22.06,13.501,-32.935
3918.4,18.283,21.06,13.501,-32.935
3928.3,16.283,21.06,10.501,-30.935
3938.2,11.283,19.06,10.501,-30.935
3948.1,9.2835,18.06,9.5011,-31.935
3958.0,6.2835,19.06,9.5011,-31.935
3967.9,5.2835,18.06,7.5011,-30.935
3977.7,0.28348,18.06,7.5011,-30.935
3987.6,-3.7165,16.06,7.5011,-29.935
3997.5,-6.7165,14.06,7.5011,-29.935
4007.4,-8.7165,14.06,5.5011,-30.935
4017.3,-8.7165,14.06,5.5011,-30.935
4027.2,-15.717,12.06,6.5011,-30.935
4037.1,-15.717,12.06,6.5011,-30.935
4046.9,-21.717,10.06,6.5011,-31.935
4056.8,-21.717,10.06,6.5011,-31.935
4066.7,-29.717,7.0601,4.5011,-30.935
4076.6,-29.717,7.0601,4.5011,-30.935
4086.5,-37.717,6.0601,2.5011,-30.935
4096.4,-37.717,6.0601,2.5011,-30.935
4106.3,-42.717,4.0601,2.5011,-30.935
4116.1,-42.717,4.0601,2.5011,-30.935
4126.0,-50.717,2.0601,-0.49895,-30.935
4135.9,-50.717,2.0601,-0.49895,-30.935
4145.8,-58.717,0.060111,0.50105,-30.935
4155.7,-58.717,0.060111,-1.4989,-30.935
4165.6,-59.717,0.060111,-1.4989,-29.935
4175.5,-59.717,0.060111,-1.4989,-30.935
4185.3,-58.717,-0.93989,-1.4989,-29.935
4195.2,-57.717,0.060111,-1.4989,-28.935
4205.1,-52.717,1.0601,-3.4989,-26.935
4215.0,-45.717,4.0601,-5.4989,-24.935
4224.9,-38.717,5.0601,-1.4989,-23.935
4234.8,-31.717,7.0601,-0.49895,-22.935
4244.7,-26.717,9.0601,1.5011,-21.935
4254.5,-20.717,11.06,4.5011,-20.935
4264.4,-14.717,12.06,6.5011,-20.935
4274.3,-7.7165,15.06,6.5011,-21.935
4284.2,-4.7165,16.06,9.5011,-21.935
4294.1,0.28348,17.06,12.501,-21.935
4304.0,6.2835,19.06,12.501,-22.935
4313.9,10.283,19.06,15.501,-22.935
4323.7,17.283,21.06,15.501,-22.935
4333.6,19.283,22.06,15.501,-23.935
4343.5,23.283,23.06,16.501,-24.935
4353.4,26.283,24.06,18.501,-24.935
4363.3,31.283,25.06,16.501,-23.935
4373.2,32.283,27.06,19.501,-24.935
4383.1,36.283,27.06,19.501,-25.935
4392.9,38.283,28.06,20.501,-25.935
4402.8,40.283,29.06,19.501,-27.935
4412.7,40.283,29.06,19.501,-28.935
4422.6,41.283,29.06,20.501,-28.935
4432.5,44.283,30.06,20.501,-28.935
4442.4,44.283,29.06,18.501,-28.935
4452.3,46.283,31.06,17.501,-28.935
4462.1,45.283,31.06,16.501,-27.935
4472.0,46.283,30.06,16.501,-26.935
4481.9,45.283,31.06,15.501,-27.935
4491.8,45.283,30.06,15.501,-26.935
4501.7,47.283,32.06,13.501,-26.935
4511.6,45.283,32.06,14.501,-26.935
4521.5,44.283,30.06,13.501,-26.935
4531.3,44.283,32.06,14.501,-27.935
4541.2,42.283,29.06,16.501,-26.935
4551.1,40.283,29.06,13.501,-27.935
4561.0,40.283,30.06,15.501,-27.935
4570.9,37.283,30.06,13.501,-26.935
4580.8,34.283,29.06,12.501,-26.935
4590.7,33.283,27.06,14.501,-28.935
4600.5,32.283,28.06,13.501,-27.935
4610.4,29.283,27.06,11.501,-27.935
4620.3,28.283,26.06,11.501,-27.935
4630.2,25.283,25.06,11.501,-28.935
4640.1,21.283,24.06,9.5011,-28.935
4650.0,20.283,23.06,10.501,-28.935
4659.9,16.283,22.06,10.501,-29.935
4669.7,13.283,23.06,8.5011,-28.935
4679.6,12.283,21.06,8.5011,-29.935
4689.5,7.2835,20.06,6.5011,-27.935
4699.4,4.2835,19.06,8.5011,-28.935
4709.3,0.28348,18.06,7.5011,-28.935
4719.2,-2.7165,18.06,6.5011,-28.935
4729.1,-4.7165,17.06,6.5011,-28.935
4738.9,-8.7165,14.06,5.5011,-27.935
4748.8,-10.717,14.06,4.5011,-27.935
4758.7,-14.717,14.06,3.5011,-26.935
4768.6,-14.717,14.06,3.5011,-27.935
4778.5,-21.717,12.06,3.5011,-25.935
4788.4,-21.717,12.06,2.5011,-27.935
4798.3,-29.717,10.06,1.5011,-26.935
4808.1,-29.717,10.06,3.5011,-27.935
4818.0,-34.717,8.0601,1.5011,-28.935
4827.9,-34.717,8.0601,0.50105,-28.935
4837.8,-43.717,6.0601,1.5011,-28.935
4847.7,-43.717,6.0601,0.50105,-28.935
4857.6,-47.717,5.0601,-0.49895,-28.935
4867.5,-47.717,5.0601,-0.49895,-27.935
4877.3,-51.717,4.0601,-0.49895,-28.935
4887.2,-51.717,4.0601,-1.4989,-26.935
4897.1,-50.717,4.0601,-2.4989,-26.935
4907.0,-50.717,4.0601,-2.4989,-24.935
4916.9,-45.717,6.0601,-4.4989,-23.935
4926.8,-41.717,7.0601,-3.4989,-21.935
4936.7,-34.717,8.0601,-1.4989,-20.935
4946.5,-28.717,8.0601,-1.4989,-20.935
4956.4,-23.717,12.06,2.5011,-19.935
4966.3,-18.717,13.06,2.5011,-19.935
4976.2,-11.717,15.06,6.5011,-18.935
4986.1,-5.7165,15.06,6.5011,-18.935
4996.0,0.28348,19.06,10.501,-19.935
5005.9,5.2835,20.06,10.501,-19.935
5015.7,11.283,21.06,12.501,-20.935
5025.6,17.283,23.06,12.501,-20.935
5035.5,21.283,25.06,14.501,-21.935
5045.4,26.283,26.06,14.501,-21.935
5055.3,31.283,28.06,16.501,-19.935
5065.2,36.283,29.06,16.501,-19.935
5075.1,41.283,30.06,18.501,-22.935
5084.9,43.283,30.06,18.501,-22.935
5094.8,46.283,31.06,15.501,-22.935
5104.7,48.283,32.06,15.501,-22.935
5114.6,49.283,33.06,18.501,-23.935
5124.5,50.283,32.06,18.501,-23.935
5134.4,50.283,32.06,17.501,-23.935
5144.3,49.283,33.06,17.501,-23.935
5154.1,52.283,33.06,16.501,-23.935
5164.0,53.283,34.06,15.501,-23.935
5173.9,52.283,33.06,17.501,-24.935
5183.8,53.283,34.06,13.501,-23.935
5193.7,52.283,35.06,14.501,-23.935
5203.6,51.283,33.06,12.501,-22.935
5213.5,50.283,34.06,13.501,-23.935
5223.3,50.283,33.06,12.501,-22.935
5233.2,50.283,34.06,12.501,-22.935
5243.1,47.283,32.06,13.501,-23.935
5253.0,46.283,30.06,11.501,-23.935
5262.9,44.283,31.06,10.501,-23.935
5272.8,43.283,32.06,11.501,-23.935
5282.7,42.283,29.06,10.501,-22.935
5292.5,41.283,30.06,10.501,-23.935
5302.4,39.283,30.06,10.501,-23.935
5312.3,37.283,29.06,11.501,-24.935
5322.2,34.283,27.06,9.5011,-24.935
5332.1,31.283,27.06,9.5011,-24.935
5342.0,28.283,25.06,10.501,-25.935
5351.9,24.283,25.06,8.5011,-24.935
5361.7,22.283,24.06,8.5011,-24.935
5371.6,16.283,22.06,7.5011,-25.935
5381.5,16.283,23.06,8.5011,-25.935
5391.4,13.283,22.06,7.5011,-24.935
5401.3,7.2835,20.06,6.5011,-25.935
5411.2,3.2835,18.06,5.5011,-24.935
5421.1,1.2835,18.06,4.5011,-25.935
5430.9,-2.7165,16.06,4.5011,-24.935
5440.8,-6.7165,17.06,4.5011,-25.935
5450.7,-9.7165,16.06,3.5011,-24.935
5460.6,-12.717,15.06,4.5011,-23.935
5470.5,-13.717,14.06,2.5011,-24.935
5480.4,-18.717,13.06,2.5011,-25.935
5490.3,-22.717,11.06,1.5011,-24.935
5500.1,-26.717,8.0601,1.5011,-25.935
5510.0,-30.717,9.0601,1.5011,-24.935
5519.9,-30.717,9.0601,0.50105,-25.935
5529.8,-37.717,7.0601,1.5011,-24.935
5539.7,-37.717,7.0601,-2.4989,-24.935
5549.6,-42.717,6.0601,-1.4989,-24.935
5559.5,-42.717,6.0601,-2.4989,-24.935
5569.3,-45.717,5.0601,-1.4989,-24.935
5579.2,-45.717,5.0601,-3.4989,-23.935
5589.1,-41.717,8.0601,-3.4989,-23.935
5599.0,-41.717,8.0601,-3.4989,-20.935
5608.9,-29.717,10.06,-4.4989,-20.935
5618.8,-29.717,10.06,-4.4989,-18.935
5628.7,-14.717,14.06,-1.4989,-17.935
5638.5,-14.717,14.06,-1.4989,-15.935
5648.4,0.28348,18.06,1.5011,-15.935
5658.3,0.28348,18.06,2.5011,-15.935
5668.2,6.2835,19.06,5.5011,-16.935
5678.1,13.283,21.06,7.5011,-16.935
5688.0,21.283,23.06,11.501,-15.935
5697.9,28.283,25.06,12.501,-16.935
5707.7,35.283,27.06,12.501,-17.935
5717.6,42.283,28.06,14.501,-17.935
5727.5,48.283,30.06,15.501,-17.935
5737.4,54.283,33.06,16.501,-18.935
5747.3,60.283,33.06,16.501,-18.935
5757.2,64.283,35.06,16.501,-18.935
5767.1,71.283,36.06,18.501,-19.935
5776.9,75.283,38.06,18.501,-18.935
5786.8,78.283,39.06,19.501,-19.935
5796.7,78.283,39.06,21.501,-21.935
5806.6,81.283,40.06,21.501,-21.935
5816.5,83.283,41.06,21.501,-23.935
5826.4,84.283,41.06,21.501,-21.935
5836.3,86.283,41.06,21.501,-23.935
5846.1,85.283,40.06,20.501,-23.935
5856.0,84.283,41.06,21.501,-23.935
5865.9,86.283,42.06,18.501,-22.935
5875.8,87.283,41.06,19.501,-22.935
5885.7,87.283,40.06,17.501,-21.935
5895.6,85.283,41.06,17.501,-21.935
5905.5,84.283,40.06,17.501,-22.935
5915.3,84.283,40.06,15.501,-21.935
5925.2,84.283,39.06,15.501,-22.935
5935.1,83.283,38.06,16.501,-22.935
5945.0,77.283,38.06,17.501,-22.935
5954.9,77.283,38.06,16.501,-24.935
5964.8,76.283,37.06,15.501,-24.935
5974.7,74.283,36.06,15.501,-24.935
5984.5,71.283,35.06,16.501,-24.935
5994.4,67.283,34.06,16.501,-24.935
6004.3,64.283,33.06,14.501,-23.935
6014.2,63.283,32.06,14.501,-23.935
6024.1,61.283,32.06,14.501,-23.935
6034.0,57.283,30.06,14.501,-23.935
6043.9,55.283,29.06,13.501,-24.935
6053.7,51.283,28.06,13.501,-24.935
6063.6,48.283,28.06,11.501,-23.935
6073.5,44.283,25.06,11.501,-23.935
6083.4,42.283,25.06,9.5011,-24.935
6093.3,37.283,25.06,9.5011,-24.935
6103.2,33.283,24.06,10.501,-24.935
6113.1,31.283,23.06,10.501,-24.935
6122.9,27.283,21.06,7.5011,-23.935
6132.8,25.283,20.06,7.5011,-23.935
6142.7,20.283,20.06,6.5011,-23.935
6152.6,16.283,17.06,6.5011,-23.935
6162.5,13.283,16.06,5.5011,-23.935
6172.4,8.2835,16.06,5.5011,-23.935
6182.2,4.2835,14.06,2.5011,-23.935
6192.1,1.2835,13.06,2.5011,-23.935
6202.0,-3.7165,12.06,4.5011,-22.935
6211.9,-6.7165,11.06,3.5011,-22.935
6221.8,-10.717,10.06,3.5011,-24.935
6231.7,-14.717,9.0601,2.5011,-22.935
6241.6,-18.717,6.0601,2.5011,-24.935
6251.5,-20.717,8.0601,1.5011,-23.935
6261.3,-23.717,6.0601,0.50105,-23.935
6271.2,-23.717,6.0601,2.5011,-22.935
6281.1,-28.717,6.0601,1.5011,-23.935
6291.0,-28.717,6.0601,-0.49895,-23.935
6300.9,-24.717,6.0601,-1.4989,-22.935
6310.8,-24.717,6.0601,-3.4989,-21.935
6320.6,-15.717,8.0601,-3.4989,-18.935
6330.5,-15.717,8.0601,-3.4989,-17.935
6340.4,0.28348,12.06,-2.4989,-15.935
6350.3,0.28348,12.06,-1.4989,-15.935
6360.2,13.283,16.06,1.5011,-13.935
6370.1,13.283,16.06,3.5011,-14.935
6380.0,28.283,20.06,5.5011,-13.935
6389.9,28.283,20.06,8.5011,-14.935
6399.7,42.283,24.06,9.5011,-14.935
6409.6,42.283,24.06,11.501,-13.935
6419.5,56.283,28.06,15.501,-14.935
6429.4,56.283,28.06,16.501,-15.935
6439.3,62.283,30.06,17.501,-16.935
6449.2,70.283,31.06,20.501,-17.935
6459.0,78.283,35.06,18.501,-16.935
6468.9,84.283,35.06,19.501,-18.935
6478.8,87.283,36.06,21.501,-17.935
6488.7,94.283,38.06,21.501,-18.935
6498.6,99.283,38.06,23.501,-19.935
6508.5,101.28,40.06,23.501,-19.935
6518.4,102.28,40.06,24.501,-20.935
6528.2,105.28,40.06,25.501,-21.935
6538.1,107.28,42.06,24.501,-22.935
6548.0,108.28,41.06,24.501,-22.935
6557.9,108.28,43.06,24.501,-22.935
6567.8,110.28,41.06,23.501,-22.935
6577.7,111.28,41.06,22.501,-23.935
6587.6,112.28,42.06,23.501,-22.935
6597.4,111.28,42.06,23.501,-22.935
6607.3,110.28,41.06,23.501,-21.935
6617.2,111.28,40.06,22.501,-22.935
6627.1,109.28,41.06,22.501,-21.935
6637.0,108.28,40.06,21.501,-21.935
6646.9,106.28,39.06,19.501,-20.935
6656.8,105.28,38.06,21.501,-22.935
6666.6,103.28,38.06,21.501,-22.935
6676.5,102.28,37.06,20.501,-23.935
6686.4,99.283,37.06,18.501,-23.935
6696.3,96.283,36.06,20.501,-23.935
6706.2,95.283,35.06,20.501,-24.935
6716.1,92.283,34.06,20.501,-24.935
6726.0,88.283,32.06,18.501,-23.935
6735.8,86.283,32.06,17.501,-24.935
6745.7,83.283,31.06,18.501,-23.935
6755.6,79.283,30.06,18.501,-24.935
6765.5,75.283,28.06,16.501,-24.935
6775.4,73.283,27.06,17.501,-24.935
6785.3,68.283,27.06,17.501,-24.935
6795.2,66.283,26.06,16.501,-24.935
6805.0,63.283,25.06,16.501,-24.935
6814.9,58.283,24.06,14.501,-25.935
6824.8,56.283,23.06,15.501,-24.935
6834.7,51.283,20.06,15.501,-24.935
6844.6,46.283,21.06,14.501,-24.935
6854.5,43.283,20.06,13.501,-26.935
6864.4,39.283,17.06,13.501,-24.935
6874.2,35.283,17.06,12.501,-25.935
6884.1,31.283,15.06,13.501,-25.935
6894.0,26.283,14.06,11.501,-25.935
6903.9,22.283,13.06,12.501,-26.935
6913.8,19.283,12.06,11.501,-25.935
6923.7,14.283,11.06,12.501,-25.935
6933.6,10.283,9.0601,11.501,-25.935
6943.4,7.2835,8.0601,9.5011,-25.935
6953.3,2.2835,7.0601,10.501,-25.935
6963.2,-2.7165,6.0601,11.501,-27.935
6973.1,-4.7165,6.0601,10.501,-25.935
6983.0,-7.7165,4.0601,11.501,-26.935
6992.9,-12.717,3.0601,8.5011,-25.935
7002.8,-13.717,3.0601,9.5011,-27.935
7012.6,-16.717,3.0601,8.5011,-25.935
7022.5,-18.717,2.0601,8.5011,-25.935
7032.4,-17.717,2.0601,7.5011,-25.935
7042.3,-17.717,2.0601,7.5011,-25.935
7052.2,-10.717,4.0601,5.5011,-22.935
7062.1,-10.717,4.0601,5.5011,-22.935
7072.0,2.2835,7.0601,8.5011,-20.935
7081.8,2.2835,7.0601,8.5011,-20.935
7091.7,17.283,11.06,12.501,-18.935
7101.6,17.283,11.06,12.501,-18.935
7111.5,30.283,14.06,16.501,-19.935
7121.4,30.283,14.06,16.501,-19.935
7131.3,43.283,18.06,20.501,-18.935
7141.2,43.283,18.06,20.501,-18.935
7151.0,57.283,22.06,26.501,-20.935
7160.9,57.283,22.06,26.501,-20.935
7170.8,67.283,25.06,29.501,-22.935
7180.7,67.283,25.06,29.501,-22.935
7190.6,73.283,26.06,31.501,-23.935
7200.5,82.283,27.06,31.501,-23.935
7210.4,85.283,29.06,31.501,-23.935
7220.2,91.283,31.06,33.501,-24.935
7230.1,94.283,33.06,33.501,-25.935
7240.0,96.283,32.06,33.501,-23.935
7249.9,100.28,33.06,35.501,-25.935
7259.8,101.28,33.06,35.501,-27.935
7269.7,101.28,34.06,35.501,-28.935
7279.6,103.28,34.06,35.501,-26.935
7289.4,105.28,36.06,35.501,-27.935
7299.3,106.28,35.06,35.501,-28.935
7309.2,106.28,35.06,35.501,-28.935
7319.1,108.28,35.06,33.501,-28.935
7329.0,107.28,36.06,34.501,-28.935
7338.9,104.28,34.06,31.501,-27.935
7348.8,105.28,34.06,32.501,-27.935
7358.6,106.28,34.06,33.501,-28.935
7368.5,105.28,33.06,32.501,-27.935
7378.4,103.28,33.06,31.501,-27.935
7388.3,100.28,32.06,32.501,-27.935
7398.2,98.283,31.06,31.501,-26.935
7408.1,97.283,32.06,32.501,-28.935
7418.0,96.283,30.06,32.501,-29.935
7427.8,92.283,30.06,31.501,-27.935
7437.7,89.283,29.06,31.501,-29.935
7447.6,89.283,27.06,31.501,-28.935
7457.5,83.283,27.06,30.501,-29.935
7467.4,82.283,27.06,30.501,-28.935
7477.3,78.283,25.06,30.501,-30.935
7487.2,77.283,25.06,30.501,-29.935
7497.0,74.283,23.06,30.501,-30.935
7506.9,69.283,22.06,29.501,-30.935
7516.8,67.283,22.06,28.501,-30.935
7526.7,65.283,21.06,27.501,-29.935
7536.6,60.283,19.06,27.501,-30.935
7546.5,58.283,19.06,27.501,-30.935
7556.4,53.283,18.06,26.501,-28.935
7566.2,50.283,17.06,25.501,-29.935
7576.1,47.283,16.06,25.501,-29.935
7586.0,42.283,15.06,22.501,-29.935
7595.9,40.283,14.06,24.501,-30.935
7605.8,36.283,12.06,22.501,-28.935
7615.7,33.283,13.06,24.501,-30.935
7625.6,30.283,12.06,22.501,-29.935
7635.4,27.283,11.06,20.501,-29.935
7645.3,24.283,10.06,22.501,-28.935
7655.2,20.283,8.0601,21.501,-27.935
7665.1,15.283,7.0601,21.501,-29.935
7675.0,12.283,6.0601,19.501,-30.935
7684.9,8.2835,4.0601,20.501,-29.935
7694.8,3.2835,4.0601,18.501,-30.935
7704.6,1.2835,3.0601,17.501,-28.935
7714.5,-1.7165,2.0601,19.501,-30.935
7724.4,-3.7165,3.0601,18.501,-29.935
7734.3,-8.7165,0.060111,17.501,-29.935
7744.2,-11.717,0.060111,18.501,-29.935
7754.1,-14.717,-0.93989,17.501,-29.935
7764.0,-13.717,-0.93989,16.501,-29.935
7773.8,-13.717,-0.93989,16.501,-28.935
7783.7,-13.717,-0.93989,14.501,-28.935
7793.6,-13.717,-0.93989,12.501,-27.935
7803.5,-2.7165,1.0601,14.501,-24.935
7813.4,-2.7165,1.0601,13.501,-24.935
7823.3,11.283,5.0601,15.501,-22.935
7833.2,11.283,5.0601,18.501,-22.935
7843.0,26.283,9.0601,21.501,-21.935
7852.9,26.283,9.0601,23.501,-21.935
7862.8,37.283,13.06,24.501,-21.935
7872.7,37.283,13.06,26.501,-21.935
7882.6,48.283,17.06,29.501,-22.935
7892.5,48.283,17.06,30.501,-23.935
7902.4,61.283,19.06,33.501,-23.935
7912.2,61.283,19.06,34.501,-23.935
7922.1,73.283,25.06,34.501,-24.935
7932.0,73.283,25.06,35.501,-25.935
7941.9,76.283,24.06,37.501,-25.935
7951.8,82.283,26.06,36.501,-25.935
7961.7,85.283,26.06,38.501,-25.935
7971.6,88.283,28.06,38.501,-25.935
7981.4,89.283,29.06,37.501,-27.935
7991.3,91.283,28.06,37.501,-27.935
8001.2,91.283,30.06,37.501,-28.935
8011.1,94.283,29.06,37.501,-28.935
8021.0,93.283,30.06,37.501,-29.935
8030.9,93.283,30.06,37.501,-29.935
8040.8,95.283,31.06,37.501,-29.935
8050.6,95.283,31.06,37.501,-29.935
8060.5,95.283,29.06,36.501,-28.935
8070.4,94.283,29.06,36.501,-28.935
8080.3,95.283,29.06,34.501,-28.935
8090.2,95.283,29.06,34.501,-28.935
8100.1,94.283,29.06,35.501,-27.935
8110.0,93.283,29.06,35.501,-27.935
8119.8,94.283,29.06,31.501,-28.935
8129.7,91.283,29.06,31.501,-28.935
8139.6,90.283,28.06,33.501,-29.935
8149.5,88.283,27.06,33.501,-29.935
8159.4,86.283,26.06,33.501,-30.935
8169.3,83.283,26.06,33.501,-30.935
8179.2,82.283,24.06,32.501,-28.935
8189.0,80.283,24.06,32.501,-28.935
8198.9,77.283,24.06,32.501,-29.935
8208.8,74.283,23.06,32.501,-29.935
8218.7,70.283,21.06,33.501,-29.935
8228.6,67.283,21.06,30.501,-29.935
8238.5,64.283,18.06,30.501,-29.935
8248.4,60.283,18.06,29.501,-28.935
8258.2,57.283,16.06,29.501,-29.935
8268.1,54.283,16.06,27.501,-30.935
8278.0,50.283,16.06,29.501,-31.935
8287.9,47.283,15.06,27.501,-30.935
8297.8,44.283,14.06,28.501,-29.935
8307.7,39.283,14.06,27.501,-30.935
8317.6,36.283,12.06,25.501,-30.935
8327.4,31.283,10.06,25.501,-30.935
8337.3,29.283,9.0601,23.501,-29.935
8347.2,25.283,9.0601,24.501,-30.935
8357.1,22.283,8.0601,25.501,-29.935
8367.0,18.283,7.0601,22.501,-28.935
8376.9,15.283,4.0601,22.501,-30.935
8386.8,10.283,5.0601,21.501,-29.935
8396.6,7.2835,3.0601,22.501,-29.935
8406.5,1.2835,3.0601,19.501,-30.935
8416.4,-0.71652,1.0601,20.501,-30.935
8426.3,-4.7165,1.0601,22.501,-31.935
8436.2,-9.7165,-0.93989,22.501,-30.935
8446.1,-12.717,-1.9399,18.501,-28.935
8456.0,-16.717,-4.9399,19.501,-27.935
8465.8,-20.717,-5.9399,18.501,-29.935
8475.7,-24.717,-4.9399,19.501,-29.935
8485.6,-27.717,-6.9399,17.501,-30.935
8495.5,-29.717,-7.9399,17.501,-29.935
8505.4,-33.717,-8.9399,16.501,-30.935
8515.3,-33.717,-7.9399,14.501,-28.935
8525.2,-32.717,-8.9399,15.501,-28.935
8535.0,-29.717,-7.9399,14.501,-27.935
8544.9,-29.717,-7.9399,11.501,-25.935
8554.8,-17.717,-3.9399,13.501,-24.935
8564.7,-17.717,-3.9399,13.501,-23.935
8574.6,-3.7165,1.0601,17.501,-21.935
8584.5,-3.7165,1.0601,19.501,-19.935
8594.4,11.283,3.0601,21.501,-19.935
8604.2,11.283,3.0601,24.501,-19.935
8614.1,24.283,7.0601,25.501,-20.935
8624.0,24.283,7.0601,27.501,-20.935
8633.9,35.283,10.06,28.501,-20.935
8643.8,35.283,10.06,29.501,-21.935
8653.7,48.283,13.06,31.501,-21.935
8663.6,48.283,13.06,33.501,-22.935
8673.4,57.283,18.06,33.501,-22.935
8683.3,57.283,18.06,34.501,-20.935
8693.2,63.283,18.06,35.501,-23.935
8703.1,68.283,19.06,36.501,-23.935
8713.0,70.283,20.06,34.501,-24.935
8722.9,73.283,21.06,36.501,-23.935
8732.8,74.283,21.06,37.501,-25.935
8742.6,78.283,22.06,38.501,-26.935
8752.5,78.283,23.06,37.501,-25.935
8762.4,79.283,23.06,37.501,-26.935
8772.3,81.283,24.06,35.501,-27.935
8782.2,81.283,23.06,37.501,-27.935
8792.1,81.283,23.06,34.501,-27.935
8802.0,82.283,23.06,34.501,-27.935
8811.8,81.283,23.06,33.501,-27.935
8821.7,79.283,23.06,32.501,-26.935
8831.6,79.283,22.06,33.501,-26.935
8841.5,78.283,22.06,32.501,-26.935
8851.4,77.283,23.06,32.501,-25.935
8861.3,77.283,21.06,32.501,-26.935
8871.1,77.283,21.06,31.501,-26.935
8881.0,73.283,21.06,30.501,-26.935
8890.9,72.283,18.06,32.501,-25.935
8900.8,69.283,20.06,32.501,-26.935
8910.7,66.283,17.06,30.501,-27.935
8920.6,63.283,17.06,31.501,-27.935
8930.5,61.283,16.06,30.501,-27.935
8940.4,57.283,15.06,29.501,-27.935
8950.2,54.283,14.06,30.501,-27.935
8960.1,53.283,14.06,28.501,-28.935
8970.0,48.283,14.06,28.501,-28.935
8979.9,45.283,11.06,27.501,-28.935
8989.8,41.283,10.06,28.501,-27.935
8999.7,39.283,10.06,27.501,-27.935
9009.5,36.283,10.06,26.501,-28.935
9019.4,33.283,8.0601,25.501,-28.935
9029.3,29.283,7.0601,24.501,-28.935
9039.2,24.283,6.0601,23.501,-28.935
9049.1,22.283,5.0601,22.501,-28.935
9059.0,17.283,4.0601,23.501,-27.935
9068.9,16.283,3.0601,20.501,-28.935
9078.8,13.283,2.0601,20.501,-28.935
9088.6,8.2835,1.0601,20.501,-27.935
9098.5,3.2835,0.060111,20.501,-27.935
9108.4,-0.71652,-1.9399,17.501,-25.935
9118.3,-4.7165,-1.9399,17.501,-25.935
9128.2,-7.7165,-3.9399,16.501,-26.935
9138.1,-11.717,-4.9399,16.501,-26.935
9147.9,-16.717,-5.9399,18.501,-26.935
9157.8,-19.717,-6.9399,18.501,-26.935
9167.7,-23.717,-8.9399,16.501,-25.935
9177.6,-25.717,-8.9399,16.501,-25.935
9187.5,-30.717,-8.9399,14.501,-26.935
9197.4,-33.717,-10.94,14.501,-26.935
9207.3,-36.717,-11.94,14.501,-25.935
9217.1,-38.717,-12.94,14.501,-25.935
9227.0,-38.717,-10.94,12.501,-24.935
9236.9,-37.717,-10.94,12.501,-24.935
9246.8,-36.717,-10.94,8.5011,-22.935
9256.7,-30.717,-8.9399,8.5011,-22.935
9266.6,-24.717,-7.9399,10.501,-20.935
9276.5,-16.717,-5.9399,10.501,-20.935
9286.3,-9.7165,-4.9399,12.501,-18.935
9296.2,-9.7165,-4.9399,14.501,-18.935
9306.1,2.2835,-0.93989,16.501,-17.935
9316.0,2.2835,-0.93989,19.501,-17.935
9325.9,12.283,2.0601,19.501,-16.935
9335.8,12.283,2.0601,22.501,-17.935
9345.7,24.283,6.0601,23.501,-17.935
9355.5,24.283,6.0601,23.501,-16.935
9365.4,37.283,8.0601,25.501,-18.935
9375.3,37.283,8.0601,27.501,-18.935
9385.2,48.283,12.06,30.501,-19.935
9395.1,48.283,12.06,29.501,-18.935
9405.0,57.283,15.06,31.501,-19.935
9414.9,57.283,15.06,32.501,-20.935
9424.7,63.283,15.06,32.501,-20.935
9434.6,63.283,15.06,32.501,-21.935
9444.5,64.283,17.06,33.501,-21.935
9454.4,66.283,18.06,33.501,-22.935
9464.3,67.283,18.06,33.501,-23.935
9474.2,70.283,19.06,32.501,-22.935
9484.1,70.283,19.06,32.501,-23.935
9493.9,69.283,18.06,32.501,-23.935
9503.8,70.283,19.06,32.501,-23.935
9513.7,69.283,18.06,31.501,-23.935
9523.6,69.283,18.06,31.501,-22.935
9533.5,70.283,19.06,29.501,-23.935
9543.4,68.283,17.06,28.501,-23.935
9553.3,68.283,19.06,28.501,-22.935
9563.1,66.283,18.06,28.501,-22.935
9573.0,65.283,17.06,27.501,-22.935
9582.9,63.283,15.06,26.501,-22.935
9592.8,62.283,15.06,26.501,-23.935
9602.7,58.283,14.06,27.501,-22.935
9612.6,55.283,12.06,27.501,-23.935
9622.5,54.283,10.06,23.501,-21.935
9632.3,52.283,10.06,24.501,-23.935
9642.2,48.283,10.06,24.501,-22.935
9652.1,44.283,10.06,22.501,-23.935
9662.0,42.283,9.0601,23.501,-24.935
9671.9,37.283,8.0601,23.501,-22.935
9681.8,33.283,7.0601,22.501,-23.935
9691.7,31.283,6.0601,21.501,-24.935
9701.5,26.283,5.0601,20.501,-24.935
9711.4,24.283,3.0601,19.501,-23.935
9721.3,19.283,2.0601,18.501,-21.935
9731.2,14.283,1.0601,19.501,-22.935
9741.1,10.283,-0.93989,16.501,-22.935
9751.0,8.2835,-0.93989,19.501,-22.935
9760.9,6.2835,-1.9399,16.501,-23.935
9770.7,-0.71652,-4.9399,14.501,-23.935
9780.6,-3.7165,-4.9399,16.501,-23.935
9790.5,-7.7165,-5.9399,15.501,-23.935
9800.4,-11.717,-6.9399,17.501,-22.935
9810.3,-14.717,-6.9399,14.501,-23.935
9820.2,-17.717,-7.9399,12.501,-23.935
9830.1,-20.717,-8.9399,12.501,-23.935
9839.9,-25.717,-10.94,12.501,-23.935
9849.8,-28.717,-11.94,11.501,-22.935
9859.7,-32.717,-12.94,10.501,-23.935
9869.6,-36.717,-12.94,9.5011,-22.935
9879.5,-39.717,-14.94,10.501,-23.935
9889.4,-43.717,-14.94,9.5011,-23.935
9899.3,-48.717,-16.94,8.5011,-22.935
9909.1,-52.717,-17.94,8.5011,-23.935
9919.0,-57.717,-19.94,7.5011,-21.935
9928.9,-60.717,-19.94,8.5011,-22.935
9938.8,-65.717,-21.94,7.5011,-21.935
9948.7,-67.717,-22.94,4.5011,-23.935
9958.6,-71.717,-21.94,4.5011,-21.935
9968.5,-69.717,-22.94,4.5011,-21.935
9978.3,-70.717,-22.94,3.5011,-22.935
9988.2,-66.717,-20.94,1.5011,-21.935
9998.1,-63.717,-19.94,0.50105,-18.935
10008.0,-57.717,-18.94,-0.49895,-17.935
10018.0,-50.717,-16.94,1.5011,-14.935
10028.0,-41.717,-15.94,3.5011,-12.935
10038.0,-35.717,-14.94,7.5011,-12.935
10048.0,-35.717,-14.94,9.5011,-12.935
10057.0,-20.717,-8.9399,10.501,-12.935
10067.0,-20.717,-8.9399,15.501,-12.935
10077.0,-7.7165,-5.9399,15.501,-11.935
10087.0,-7.7165,-5.9399,15.501,-11.935
10097.0,5.2835,-0.93989,19.501,-13.935
10107.0,5.2835,-0.93989,19.501,-13.935
10117.0,18.283,2.0601,21.501,-13.935
10127.0,18.283,2.0601,21.501,-13.935
10137.0,31.283,5.0601,24.501,-14.935
10146.0,31.283,5.0601,24.501,-14.935
10156.0,41.283,7.0601,25.501,-15.935
10166.0,41.283,7.0601,25.501,-15.935
10176.0,50.283,10.06,26.501,-15.935
10186.0,50.283,10.06,26.501,-15.935
10196.0,54.283,11.06,28.501,-18.935
10206.0,54.283,10.06,28.501,-18.935
10216.0,57.283,13.06,28.501,-18.935
10226.0,59.283,13.06,28.501,-18.935
10235.0,61.283,13.06,27.501,-19.935
10245.0,61.283,12.06,27.501,-19.935
10255.0,61.283,13.06,26.501,-19.935
10265.0,64.283,13.06,26.501,-19.935
10275.0,63.283,14.06,25.501,-20.935
10285.0,64.283,14.06,25.501,-20.935
10295.0,63.283,14.06,23.501,-19.935
10305.0,63.283,14.06,23.501,-18.935
10315.0,62.283,14.06,22.501,-18.935
10324.0,62.283,13.06,20.501,-17.935
10334.0,61.283,13.06,21.501,-18.935
10344.0,59.283,13.06,21.501,-19.935
10354.0,56.283,13.06,19.501,-18.935
10364.0,55.283,11.06,20.501,-18.935
10374.0,51.283,10.06,21.501,-19.935
10384.0,51.283,11.06,21.501,-19.935
10394.0,48.283,10.06,20.501,-20.935
10403.0,45.283,8.0601,19.501,-19.935
10413.0,41.283,6.0601,16.501,-20.935
10423.0,38.283,6.0601,19.501,-18.935
10433.0,35.283,7.0601,18.501,-19.935
10443.0,30.283,4.0601,18.501,-19.935
10453.0,28.283,3.0601,15.501,-20.935
10463.0,23.283,2.0601,15.501,-20.935
10473.0,20.283,2.0601,14.501,-19.935
10483.0,14.283,0.060111,14.501,-20.935
10492.0,11.283,-2.9399,14.501,-19.935
10502.0,7.2835,-1.9399,14.501,-20.935
10512.0,4.2835,-3.9399,13.501,-19.935
10522.0,-0.71652,-6.9399,12.501,-19.935
10532.0,-5.7165,-5.9399,10.501,-20.935
10542.0,-8.7165,-6.9399,11.501,-19.935
10552.0,-12.717,-8.9399,11.501,-19.935
10562.0,-18.717,-9.9399,9.5011,-18.935
10572.0,-21.717,-9.9399,8.5011,-18.935
10581.0,-26.717,-12.94,7.5011,-19.935
10591.0,-29.717,-13.94,6.5011,-19.935
10601.0,-35.717,-12.94,5.5011,-18.935
10611.0,-37.717,-15.94,6.5011,-18.935
10621.0,-43.717,-16.94,3.5011,-18.935
10631.0,-46.717,-17.94,5.5011,-17.935
10641.0,-51.717,-18.94,5.5011,-18.935
10651.0,-52.717,-18.94,3.5011,-18.935
10661.0,-58.717,-20.94,1.5011,-18.935
10670.0,-61.717,-21.94,2.5011,-18.935
10680.0,-66.717,-22.94,1.5011,-18.935
10690.0,-69.717,-24.94,2.5011,-17.935
10700.0,-75.717,-25.94,0.50105,-17.935
10710.0,-79.717,-25.94,-2.4989,-17.935
10720.0,-82.717,-28.94,-1.4989,-18.935
10730.0,-87.717,-28.94,-1.4989,-19.935
10740.0,-92.717,-29.94,-1.4989,-17.935
10749.0,-95.717,-31.94,-2.4989,-18.935
10759.0,-96.717,-30.94,-2.4989,-17.935
10769.0,-98.717,-29.94,-5.4989,-17.935
10779.0,-94.717,-28.94,-4.4989,-17.935
10789.0,-91.717,-28.94,-6.4989,-15.935
10799.0,-85.717,-28.94,-5.4989,-13.935
10809.0,-78.717,-26.94,-6.4989,-10.935
10819.0,-78.717,-26.94,-4.4989,-10.935
10829.0,-62.717,-21.94,-2.4989,-8.9347
10838.0,-62.717,-21.94,-1.4989,-8.9347
10848.0,-49.717,-18.94,0.50105,-6.9347
10858.0,-49.717,-18.94,2.5011,-7.9347
10868.0,-37.717,-13.94,6.5011,-7.9347
10878.0,-37.717,-13.94,8.5011,-8.9347
10888.0,-24.717,-9.9399,8.5011,-7.9347
10898.0,-24.717,-9.9399,12.501,-8.9347
10908.0,-12.717,-7.9399,13.501,-8.9347
10918.0,-12.717,-7.9399,13.501,-9.9347
10927.0,-1.7165,-4.9399,15.501,-10.935
10937.0,-1.7165,-4.9399,16.501,-11.935
10947.0,9.2835,-0.93989,17.501,-12.935
10957.0,9.2835,-0.93989,18.501,-12.935
10967.0,13.283,1.0601,19.501,-11.935
10977.0,16.283,1.0601,19.501,-13.935
10987.0,18.283,0.060111,18.501,-12.935
10997.0,19.283,1.0601,18.501,-14.935
11007.0,23.283,2.0601,17.501,-13.935
11016.0,23.283,3.0601,19.501,-12.935
11026.0,24.283,3.0601,21.501,-14.935
11036.0,24.283,5.0601,18.501,-15.935
11046.0,27.283,4.0601,18.501,-14.935
11056.0,27.283,2.0601,18.501,-15.935
11066.0,27.283,3.0601,15.501,-15.935
11076.0,24.283,5.0601,18.501,-15.935
11086.0,27.283,5.0601,14.501,-15.935
11095.0,26.283,4.0601,14.501,-15.935
11105.0,25.283,2.0601,15.501,-14.935
11115.0,24.283,2.0601,15.501,-14.935
11125.0,24.283,3.0601,15.501,-14.935
11135.0,25.283,1.0601,15.501,-14.935
11145.0,19.283,1.0601,14.501,-15.935
11155.0,17.283,0.060111,14.501,-15.935
11165.0,14.283,-0.93989,13.501,-13.935
11175.0,12.283,-1.9399,13.501,-13.935
11184.0,9.2835,-2.9399,13.501,-14.935
11194.0,7.2835,-1.9399,13.501,-14.935
11204.0,5.2835,-1.9399,11.501,-15.935
11214.0,1.2835,-3.9399,11.501,-15.935
11224.0,-3.7165,-3.9399,11.501,-15.935
11234.0,-5.7165,-5.9399,11.501,-15.935
11244.0,-8.7165,-6.9399,11.501,-15.935
11254.0,-12.717,-7.9399,11.501,-15.935
11264.0,-16.717,-8.9399,11.501,-17.935
11273.0,-18.717,-8.9399,11.501,-17.935
11283.0,-22.717,-11.94,9.5011,-17.935
11293.0,-25.717,-10.94,10.501,-16.935
11303.0,-28.717,-10.94,8.5011,-18.935
11313.0,-30.717,-13.94,8.5011,-18.935
11323.0,-35.717,-13.94,8.5011,-17.935
11333.0,-39.717,-14.94,7.5011,-16.935
11343.0,-42.717,-14.94,5.5011,-17.935
11353.0,-46.717,-16.94,4.5011,-15.935
11362.0,-49.717,-17.94,5.5011,-16.935
11372.0,-54.717,-17.94,3.5011,-17.935
11382.0,-57.717,-19.94,3.5011,-16.935
11392.0,-61.717,-20.94,1.5011,-15.935
11402.0,-63.717,-21.94,2.5011,-16.935
11412.0,-68.717,-22.94,1.5011,-16.935
11422.0,-72.717,-23.94,0.50105,-16.935
11432.0,-77.717,-23.94,0.50105,-15.935
11441.0,-79.717,-27.94,-1.4989,-15.935
11451.0,-82.717,-26.94,-0.49895,-16.935
11461.0,-88.717,-27.94,-0.49895,-15.935
11471.0,-92.717,-28.94,-0.49895,-14.935
11481.0,-94.717,-27.94,-3.4989,-15.935
11491.0,-98.717,-29.94,-3.4989,-14.935
11501.0,-101.72,-31.94,-3.4989,-16.935
11511.0,-105.72,-31.94,-4.4989,-15.935
11521.0,-108.72,-32.94,-5.4989,-14.935
11530.0,-112.72,-31.94,-6.4989,-14.935
11540.0,-115.72,-33.94,-4.4989,-14.935
11550.0,-116.72,-34.94,-6.4989,-13.935
11560.0,-116.72,-33.94,-7.4989,-13.935
11570.0,-116.72,-33.94,-8.4989,-14.935
11580.0,-109.72,-33.94,-9.4989,-12.935
11590.0,-109.72,-33.94,-10.499,-10.935
11600.0,-98.717,-29.94,-9.4989,-8.9347
11610.0,-98.717,-29.94,-8.4989,-6.9347
11619.0,-84.717,-26.94,-6.4989,-4.9347
11629.0,-84.717,-26.94,-4.4989,-3.9347
11639.0,-74.717,-21.94,-3.4989,-2.9347
11649.0,-74.717,-21.94,-0.49895,-2.9347
11659.0,-61.717,-18.94,2.5011,-2.9347
11669.0,-61.717,-18.94,4.5011,-3.9347
11679.0,-50.717,-15.94,5.5011,-2.9347
11689.0,-50.717,-15.94,5.5011,-3.9347
11698.0,-38.717,-12.94,6.5011,-4.9347
11708.0,-38.717,-12.94,9.5011,-3.9347
11718.0,-33.717,-10.94,7.5011,-3.9347
11728.0,-29.717,-8.9399,9.5011,-4.9347
11738.0,-24.717,-7.9399,8.5011,-4.9347
11748.0,-21.717,-8.9399,10.501,-4.9347
11758.0,-19.717,-6.9399,9.5011,-5.9347
11768.0,-18.717,-7.9399,10.501,-6.9347
11778.0,-16.717,-5.9399,11.501,-6.9347
11787.0,-14.717,-4.9399,10.501,-6.9347
11797.0,-12.717,-4.9399,9.5011,-7.9347
11807.0,-11.717,-3.9399,10.501,-8.9347
11817.0,-10.717,-3.9399,9.5011,-7.9347
11827.0,-10.717,-2.9399,10.501,-7.9347
11837.0,-11.717,-2.9399,9.5011,-8.9347
11847.0,-10.717,-2.9399,6.5011,-7.9347
11857.0,-9.7165,-2.9399,6.5011,-6.9347
11867.0,-8.7165,-2.9399,5.5011,-5.9347
11876.0,-8.7165,-2.9399,5.5011,-6.9347
11886.0,-9.7165,-3.9399,2.5011,-5.9347
11896.0,-11.717,-2.9399,4.5011,-6.9347
11906.0,-10.717,-1.9399,3.5011,-6.9347
11916.0,-11.717,-1.9399,4.5011,-7.9347
11926.0,-12.717,-2.9399,2.5011,-6.9347
11936.0,-13.717,-2.9399,2.5011,-5.9347
11946.0,-14.717,-2.9399,2.5011,-6.9347
11956.0,-15.717,-3.9399,2.5011,-6.9347
11965.0,-18.717,-3.9399,2.5011,-7.9347
11975.0,-20.717,-4.9399,2.5011,-6.9347
11985.0,-23.717,-5.9399,0.50105,-6.9347
11995.0,-24.717,-4.9399,0.50105,-6.9347
12005.0,-28.717,-6.9399,-0.49895,-6.9347
12015.0,-29.717,-5.9399,-2.4989,-5.9347
12025.0,-33.717,-6.9399,-3.4989,-7.9347
12035.0,-34.717,-7.9399,-2.4989,-7.9347
12044.0,-39.717,-9.9399,-3.4989,-7.9347
12054.0,-41.717,-9.9399,-2.4989,-7.9347
12064.0,-44.717,-9.9399,-3.4989,-7.9347
12074.0,-48.717,-10.94,-5.4989,-6.9347
12084.0,-51.717,-10.94,-5.4989,-7.9347
12094.0,-54.717,-12.94,-6.4989,-6.9347
12104.0,-57.717,-13.94,-7.4989,-7.9347
12114.0,-60.717,-13.94,-7.4989,-6.9347
12124.0,-61.717,-15.94,-7.4989,-6.9347
12133.0,-67.717,-16.94,-9.4989,-6.9347
12143.0,-70.717,-16.94,-9.4989,-5.9347
12153.0,-73.717,-16.94,-10.499,-6.9347
12163.0,-76.717,-17.94,-10.499,-5.9347
12173.0,-79.717,-19.94,-11.499,-5.9347
12183.0,-82.717,-18.94,-11.499,-5.9347
12193.0,-88.717,-20.94,-12.499,-6.9347
12203.0,-89.717,-20.94,-12.499,-6.9347
12213.0,-92.717,-22.94,-14.499,-4.9347
12222.0,-95.717,-23.94,-14.499,-4.9347
12232.0,-100.72,-24.94,-15.499,-4.9347
12242.0,-102.72,-25.94,-15.499,-4.9347
12252.0,-104.72,-26.94,-15.499,-5.9347
12262.0,-109.72,-26.94,-15.499,-5.9347
12272.0,-112.72,-27.94,-16.499,-6.9347
12282.0,-115.72,-26.94,-16.499,-6.9347
12292.0,-117.72,-28.94,-18.499,-4.9347
12302.0,-119.72,-27.94,-18.499,-4.9347
12311.0,-119.72,-28.94,-16.499,-4.9347
12321.0,-119.72,-28.94,-16.499,-4.9347
12331.0,-114.72,-26.94,-20.499,-1.9347
12341.0,-114.72,-26.94,-20.499,-1.9347
12351.0,-102.72,-23.94,-18.499,0.065252
12361.0,-102.72,-23.94,-18.499,0.065252
12371.0,-90.717,-20.94,-16.499,1.0653
12381.0,-90.717,-20.94,-13.499,3.0653
12390.0,-78.717,-16.94,-12.499,4.0653
12400.0,-78.717,-16.94,-12.499,5.0653
12410.0,-69.717,-14.94,-8.4989,3.0653
12420.0,-69.717,-14.94,-6.4989,4.0653
12430.0,-59.717,-11.94,-4.4989,2.0653
12440.0,-59.717,-11.94,-5.4989,4.0653
12450.0,-50.717,-8.9399,-2.4989,4.0653
12460.0,-50.717,-8.9399,-1.4989,2.0653
12470.0,-46.717,-7.9399,-1.4989,1.0653
12479.0,-43.717,-6.9399,0.50105,2.0653
12489.0,-39.717,-4.9399,-0.49895,1.0653
12499.0,-37.717,-4.9399,1.5011,1.0653
12509.0,-36.717,-4.9399,0.50105,1.0653
12519.0,-33.717,-3.9399,3.5011,-0.93475
12529.0,-33.717,-3.9399,2.5011,0.065252
12539.0,-31.717,-0.93989,1.5011,-0.93475
12549.0,-32.717,-1.9399,1.5011,-1.9347
12559.0,-32.717,-1.9399,1.5011,-1.9347
12568.0,-31.717,-0.93989,0.50105,-1.9347
12578.0,-29.717,-2.9399,-0.49895,-2.9347
12588.0,-27.717,-0.93989,0.50105,-1.9347
12598.0,-27.717,-0.93989,-2.4989,-1.9347
12608.0,-26.717,-0.93989,-2.4989,-0.93475
12618.0,-28.717,-0.93989,-3.4989,-0.93475
12628.0,-27.717,-0.93989,-3.4989,-0.93475
12638.0,-26.717,0.060111,-3.4989,-0.93475
12648.0,-26.717,1.0601,-4.4989,-0.93475
12657.0,-28.717,0.060111,-6.4989,0.065252
12667.0,-29.717,0.060111,-5.4989,0.065252
12677.0,-29.717,-0.93989,-7.4989,1.0653
12687.0,-33.717,-1.9399,-4.4989,0.065252
12697.0,-33.717,-1.9399,-7.4989,0.065252
12707.0,-34.717,-1.9399,-7.4989,-0.93475
12717.0,-35.717,-1.9399,-8.4989,-0.93475
12727.0,-38.717,-2.9399,-6.4989,-0.93475
12736.0,-41.717,-2.9399,-9.4989,0.065252
12746.0,-44.717,-3.9399,-9.4989,0.065252
12756.0,-46.717,-3.9399,-10.499,-0.93475
12766.0,-47.717,-3.9399,-9.4989,-0.93475
12776.0,-50.717,-4.9399,-9.4989,0.065252
12786.0,-52.717,-4.9399,-11.499,0.065252
12796.0,-55.717,-6.9399,-12.499,1.0653
12806.0,-57.717,-6.9399,-11.499,0.065252
12816.0,-61.717,-7.9399,-12.499,-0.93475
12825.0,-61.717,-7.9399,-13.499,-0.93475
12835.0,-64.717,-7.9399,-14.499,-0.93475
12845.0,-68.717,-9.9399,-14.499,-0.93475
12855.0,-69.717,-10.94,-14.499,-0.93475
12865.0,-72.717,-9.9399,-16.499,-0.93475
12875.0,-77.717,-12.94,-15.499,0.065252
12885.0,-78.717,-12.94,-18.499,0.065252
12895.0,-83.717,-12.94,-18.499,-0.93475
12905.0,-86.717,-13.94,-18.499,0.065252
12914.0,-89.717,-14.94,-19.499,1.0653
12924.0,-90.717,-15.94,-20.499,1.0653
12934.0,-92.717,-16.94,-20.499,1.0653
12944.0,-96.717,-17.94,-20.499,1.0653
12954.0,-99.717,-17.94,-22.499,-0.93475
12964.0,-101.72,-19.94,-22.499,1.0653
12974.0,-105.72,-19.94,-22.499,0.065252
12984.0,-108.72,-18.94,-22.499,0.065252
12994.0,-110.72,-19.94,-21.499,0.065252
13003.0,-112.72,-19.94,-22.499,1.0653
13013.0,-113.72,-19.94,-24.499,1.0653
13023.0,-110.72,-19.94,-24.499,2.0653
13033.0,-106.72,-18.94,-26.499,2.0653
13043.0,-103.72,-17.94,-26.499,5.0653
13053.0,-97.717,-15.94,-25.499,5.0653
13063.0,-89.717,-13.94,-25.499,6.0653
13073.0,-89.717,-13.94,-22.499,7.0653
13082.0,-77.717,-9.9399,-21.499,9.0653
13092.0,-77.717,-9.9399,-18.499,9.0653
13102.0,-66.717,-6.9399,-17.499,10.065
13112.0,-66.717,-6.9399,-15.499,10.065
13122.0,-56.717,-2.9399,-12.499,10.065
13132.0,-56.717,-2.9399,-11.499,9.0653
13142.0,-43.717,-0.93989,-8.4989,9.0653
13152.0,-43.717,-0.93989,-7.4989,7.0653
13162.0,-36.717,0.060111,-7.4989,8.0653
13171.0,-36.717,0.060111,-7.4989,8.0653
13181.0,-28.717,3.0601,-6.4989,8.0653
13191.0,-28.717,3.0601,-6.4989,8.0653
13201.0,-22.717,6.0601,-4.4989,6.0653
13211.0,-22.717,6.0601,-4.4989,6.0653
13221.0,-19.717,7.0601,-3.4989,5.0653
13231.0,-17.717,7.0601,-3.4989,5.0653
13241.0,-13.717,8.0601,-3.4989,3.0653
13251.0,-13.717,9.0601,-3.4989,3.0653
13260.0,-13.717,9.0601,-4.4989,2.0653
13270.0,-13.717,9.0601,-4.4989,2.0653
13280.0,-10.717,10.06,-6.4989,3.0653
13290.0,-9.7165,10.06,-6.4989,3.0653
13300.0,-10.717,11.06,-6.4989,4.0653
13310.0,-8.7165,10.06,-6.4989,4.0653
13320.0,-9.7165,11.06,-8.4989,3.0653
13330.0,-10.717,11.06,-8.4989,3.0653
13340.0,-9.7165,10.06,-9.4989,5.0653
13349.0,-10.717,10.06,-10.499,6.0653
13359.0,-11.717,9.0601,-10.499,6.0653
13369.0,-9.7165,10.06,-10.499,6.0653
13379.0,-11.717,10.06,-11.499,5.0653
13389.0,-12.717,9.0601,-11.499,6.0653
13399.0,-13.717,8.0601,-11.499,6.0653
13409.0,-14.717,9.0601,-10.499,6.0653
13419.0,-16.717,9.0601,-12.499,4.0653
13428.0,-18.717,8.0601,-13.499,5.0653
13438.0,-19.717,8.0601,-12.499,4.0653
13448.0,-22.717,7.0601,-12.499,6.0653
13458.0,-24.717,7.0601,-13.499,4.0653
13468.0,-26.717,6.0601,-13.499,4.0653
13478.0,-28.717,5.0601,-14.499,4.0653
13488.0,-32.717,4.0601,-15.499,4.0653
13498.0,-33.717,3.0601,-15.499,5.0653
13508.0,-37.717,2.0601,-16.499,4.0653
13517.0,-40.717,2.0601,-15.499,6.0653
13527.0,-40.717,2.0601,-17.499,3.0653
13537.0,-43.717,1.0601,-16.499,4.0653
13547.0,-47.717,-0.93989,-16.499,3.0653
13557.0,-49.717,-0.93989,-19.499,5.0653
13567.0,-53.717,-0.93989,-18.499,4.0653
13577.0,-56.717,-1.9399,-20.499,5.0653
13587.0,-62.717,-3.9399,-20.499,4.0653
13597.0,-64.717,-3.9399,-21.499,5.0653
13606.0,-67.717,-4.9399,-20.499,4.0653
13616.0,-72.717,-5.9399,-22.499,5.0653
13626.0,-75.717,-6.9399,-23.499,4.0653
13636.0,-78.717,-7.9399,-22.499,5.0653
13646.0,-83.717,-9.9399,-24.499,4.0653
13656.0,-85.717,-9.9399,-23.499,4.0653
13666.0,-89.717,-11.94,-26.499,5.0653
13676.0,-92.717,-10.94,-24.499,5.0653
13686.0,-93.717,-10.94,-25.499,5.0653
13695.0,-93.717,-11.94,-25.499,4.0653
13705.0,-92.717,-9.9399,-26.499,4.0653
13715.0,-88.717,-9.9399,-30.499,7.0653
13725.0,-83.717,-7.9399,-28.499,7.0653
13735.0,-75.717,-6.9399,-29.499,9.0653
13745.0,-69.717,-4.9399,-28.499,12.065
13755.0,-60.717,-2.9399,-25.499,12.065
13765.0,-55.717,-0.93989,-25.499,13.065
13774.0,-49.717,1.0601,-21.499,14.065
13784.0,-41.717,3.0601,-19.499,14.065
13794.0,-35.717,6.0601,-15.499,14.065
13804.0,-29.717,7.0601,-15.499,13.065
13814.0,-23.717,9.0601,-12.499,13.065
13824.0,-23.717,9.0601,-10.499,12.065
13834.0,-11.717,11.06,-10.499,12.065
13844.0,-11.717,11.06,-9.4989,11.065
13854.0,-0.71652,16.06,-7.4989,12.065
13863.0,-0.71652,16.06,-6.4989,11.065
13873.0,9.2835,18.06,-7.4989,11.065
13883.0,9.2835,18.06,-5.4989,10.065
13893.0,14.283,20.06,-4.4989,11.065
13903.0,14.283,20.06,-3.4989,9.0653
13913.0,20.283,21.06,-2.4989,8.0653
13923.0,20.283,21.06,-4.4989,9.0653
13933.0,23.283,22.06,-2.4989,7.0653
13943.0,23.283,22.06,-2.4989,6.0653
13952.0,25.283,23.06,-3.4989,6.0653
13962.0,25.283,23.06,-5.4989,6.0653
13972.0,25.283,23.06,-5.4989,6.0653
13982.0,25.283,23.06,-5.4989,6.0653
13992.0,26.283,23.06,-7.4989,8.0653
14002.0,25.283,22.06,-6.4989,7.0653
14012.0,27.283,23.06,-7.4989,7.0653
14022.0,27.283,23.06,-7.4989,8.0653
14032.0,25.283,22.06,-9.4989,7.0653
14041.0,23.283,22.06,-7.4989,7.0653
14051.0,22.283,21.06,-9.4989,8.0653
14061.0,21.283,21.06,-10.499,8.0653
14071.0,20.283,21.06,-8.4989,8.0653
14081.0,18.283,21.06,-10.499,8.0653
14091.0,16.283,21.06,-10.499,6.0653
14101.0,14.283,19.06,-10.499,6.0653
14111.0,14.283,19.06,-8.4989,7.0653
14120.0,11.283,19.06,-9.4989,6.0653
14130.0,8.2835,16.06,-10.499,6.0653
14140.0,7.2835,17.06,-11.499,6.0653
14150.0,4.2835,16.06,-11.499,5.0653
14160.0,1.2835,16.06,-9.4989,5.0653
14170.0,-1.7165,15.06,-12.499,6.0653
14180.0,-4.7165,14.06,-12.499,6.0653
14190.0,-7.7165,14.06,-12.499,5.0653
14200.0,-10.717,12.06,-12.499,5.0653
14209.0,-12.717,12.06,-12.499,5.0653
14219.0,-16.717,11.06,-12.499,5.0653
14229.0,-18.717,10.06,-13.499,5.0653
14239.0,-23.717,8.0601,-13.499,5.0653
14249.0,-26.717,8.0601,-16.499,4.0653
14259.0,-30.717,7.0601,-16.499,4.0653
14269.0,-33.717,6.0601,-15.499,5.0653
14279.0,-37.717,6.0601,-15.499,5.0653
14289.0,-41.717,4.0601,-18.499,5.0653
14298.0,-43.717,2.0601,-18.499,5.0653
14308.0,-48.717,2.0601,-16.499,4.0653
14318.0,-49.717,1.0601,-16.499,4.0653
14328.0,-53.717,1.0601,-17.499,5.0653
14338.0,-57.717,-0.93989,-17.499,5.0653
14348.0,-61.717,-1.9399,-19.499,5.0653
14358.0,-62.717,-2.9399,-19.499,5.0653
14368.0,-67.717,-3.9399,-21.499,5.0653
14378.0,-70.717,-4.9399,-21.499,5.0653
14387.0,-75.717,-3.9399,-20.499,5.0653
14397.0,-75.717,-5.9399,-20.499,5.0653
14407.0,-72.717,-3.9399,-23.499,5.0653
14417.0,-73.717,-3.9399,-23.499,7.0653
14427.0,-70.717,-3.9399,-22.499,6.0653
14437.0,-63.717,-3.9399,-24.499,10.065
14447.0,-56.717,-1.9399,-24.499,10.065
14457.0,-48.717,1.0601,-22.499,12.065
14466.0,-41.717,2.0601,-19.499,13.065
14476.0,-35.717,5.0601,-18.499,14.065
14486.0,-29.717,7.0601,-17.499,14.065
14496.0,-21.717,10.06,-14.499,15.065
14506.0,-14.717,11.06,-11.499,13.065
14516.0,-7.7165,13.06,-10.499,13.065
14526.0,-3.7165,15.06,-5.4989,13.065
14536.0,3.2835,16.06,-5.4989,13.065
14546.0,10.283,18.06,-2.4989,12.065
14555.0,16.283,20.06,-2.4989,12.065
14565.0,23.283,22.06,-2.4989,10.065
14575.0,23.283,22.06,-1.4989,10.065
14585.0,33.283,24.06,0.50105,11.065
14595.0,33.283,24.06,3.5011,11.065
14605.0,40.283,26.06,1.5011,9.0653
14615.0,40.283,26.06,3.5011,10.065
14625.0,46.283,28.06,1.5011,9.0653
14635.0,46.283,28.06,3.5011,8.0653
14644.0,47.283,29.06,5.5011,7.0653
14654.0,47.283,29.06,3.5011,6.0653
14664.0,49.283,29.06,3.5011,7.0653
14674.0,49.283,29.06,2.5011,6.0653
14684.0,52.283,29.06,3.5011,6.0653
14694.0,52.283,29.06,1.5011,5.0653
14704.0,51.283,30.06,0.50105,7.0653
14714.0,51.283,30.06,1.5011,6.0653
14724.0,50.283,29.06,-1.4989,8.0653
14733.0,50.283,29.06,-0.49895,7.0653
14743.0,51.283,28.06,-0.49895,7.0653
14753.0,50.283,29.06,-0.49895,7.0653
14763.0,48.283,28.06,-0.49895,7.0653
14773.0,45.283,27.06,-0.49895,6.0653
14783.0,44.283,26.06,-1.4989,7.0653
14793.0,43.283,26.06,-1.4989,5.0653
14803.0,39.283,25.06,-1.4989,6.0653
14812.0,39.283,25.06,-2.4989,6.0653
14822.0,36.283,24.06,-2.4989,5.0653
14832.0,33.283,23.06,-4.4989,6.0653
14842.0,30.283,23.06,-4.4989,6.0653
14852.0,30.283,22.06,-4.4989,7.0653
14862.0,26.283,20.06,-5.4989,5.0653
14872.0,22.283,19.06,-4.4989,6.0653
14882.0,21.283,18.06,-7.4989,6.0653
14892.0,16.283,18.06,-7.4989,6.0653
14901.0,13.283,16.06,-6.4989,6.0653
14911.0,10.283,16.06,-9.4989,6.0653
14921.0,5.2835,13.06,-7.4989,5.0653
14931.0,3.2835,13.06,-9.4989,6.0653
14941.0,-0.71652,10.06,-9.4989,6.0653
14951.0,-2.7165,12.06,-10.499,5.0653
14961.0,-5.7165,10.06,-11.499,6.0653
14971.0,-12.717,9.0601,-12.499,5.0653
14981.0,-14.717,7.0601,-10.499,5.0653
14990.0,-19.717,7.0601,-12.499,5.0653
15000.0,-22.717,5.0601,-12.499,5.0653
15010.0,-27.717,4.0601,-14.499,5.0653
15020.0,-30.717,3.0601,-12.499,6.0653
15030.0,-33.717,2.0601,-15.499,6.0653
15040.0,-36.717,0.060111,-15.499,6.0653
15050.0,-41.717,0.060111,-15.499,5.0653
15060.0,-45.717,-1.9399,-15.499,5.0653
15070.0,-47.717,-1.9399,-14.499,3.0653
15079.0,-51.717,-2.9399,-18.499,5.0653
15089.0,-55.717,-4.9399,-17.499,7.0653
15099.0,-57.717,-5.9399,-18.499,6.0653
15109.0,-61.717,-6.9399,-18.499,6.0653
15119.0,-64.717,-6.9399,-19.499,6.0653
15129.0,-67.717,-8.9399,-20.499,6.0653
15139.0,-71.717,-8.9399,-20.499,5.0653
15149.0,-73.717,-9.9399,-21.499,6.0653
15158.0,-71.717,-8.9399,-22.499,7.0653
15168.0,-66.717,-8.9399,-23.499,9.0653
15178.0,-63.717,-7.9399,-23.499,10.065
15188.0,-55.717,-5.9399,-22.499,11.065
15198.0,-49.717,-2.9399,-21.499,13.065
15208.0,-42.717,-1.9399,-20.499,14.065
15218.0,-34.717,0.060111,-19.499,15.065
15228.0,-29.717,3.0601,-14.499,15.065
15238.0,-23.717,4.0601,-13.499,14.065
15247.0,-15.717,6.0601,-13.499,14.065
15257.0,-9.7165,7.0601,-7.4989,13.065
15267.0,-4.7165,9.0601,-7.4989,13.065
15277.0,1.2835,10.06,-5.4989,13.065
15287.0,7.2835,11.06,-5.4989,13.065
15297.0,10.283,12.06,-2.4989,12.065
15307.0,18.283,15.06,-2.4989,12.065
15317.0,22.283,16.06,-0.49895,12.065
15327.0,22.283,16.06,-0.49895,12.065
15336.0,31.283,18.06,1.5011,11.065
15346.0,31.283,18.06,1.5011,11.065
15356.0,35.283,19.06,3.5011,9.0653
15366.0,35.283,19.06,3.5011,9.0653
15376.0,41.283,21.06,4.5011,7.0653
15386.0,41.283,21.06,4.5011,7.0653
15396.0,43.283,22.06,2.5011,7.0653
15406.0,43.283,22.06,2.5011,7.0653
15416.0,44.283,21.06,1.5011,7.0653
15425.0,44.283,21.06,1.5011,7.0653
15435.0,46.283,21.06,-0.49895,6.0653
15445.0,46.283,21.06,-0.49895,6.0653
15455.0,45.283,22.06,0.50105,7.0653
15465.0,45.283,22.06,-0.49895,7.0653
15475.0,47.283,22.06,0.50105,6.0653
15485.0,47.283,21.06,0.50105,7.0653
15495.0,45.283,22.06,0.50105,6.0653
15504.0,44.283,21.06,-0.49895,7.0653
15514.0,43.283,22.06,-0.49895,6.0653
15524.0,41.283,21.06,-2.4989,5.0653
15534.0,38.283,21.06,-0.49895,7.0653
15544.0,38.283,19.06,-2.4989,5.0653
15554.0,35.283,19.06,-0.49895,4.0653
15564.0,33.283,17.06,-0.49895,4.0653
15574.0,32.283,17.06,-1.4989,5.0653
15584.0,29.283,17.06,-1.4989,4.0653
15593.0,25.283,16.06,-1.4989,5.0653
15603.0,22.283,16.06,-3.4989,4.0653
15613.0,19.283,14.06,-4.4989,3.0653
15623.0,17.283,13.06,-2.4989,4.0653
15633.0,12.283,12.06,-6.4989,4.0653
15643.0,9.2835,10.06,-6.4989,3.0653
15653.0,5.2835,8.0601,-6.4989,4.0653
15663.0,3.2835,8.0601,-6.4989,4.0653
15673.0,-0.71652,7.0601,-6.4989,5.0653
15682.0,-3.7165,6.0601,-5.4989,4.0653
15692.0,-6.7165,5.0601,-8.4989,5.0653
15702.0,-10.717,5.0601,-8.4989,5.0653
15712.0,-15.717,3.0601,-8.4989,6.0653
15722.0,-17.717,2.0601,-7.4989,4.0653
15732.0,-21.717,0.060111,-10.499,4.0653
15742.0,-24.717,0.060111,-11.499,4.0653
15752.0,-28.717,-0.93989,-11.499,3.0653
15762.0,-29.717,-0.93989,-11.499,5.0653
15771.0,-35.717,-0.93989,-11.499,5.0653
15781.0,-35.717,-2.9399,-13.499,4.0653
15791.0,-40.717,-2.9399,-13.499,4.0653
15801.0,-43.717,-5.9399,-12.499,4.0653
15811.0,-46.717,-4.9399,-14.499,4.0653
15821.0,-50.717,-7.9399,-14.499,5.0653
15831.0,-54.717,-8.9399,-13.499,4.0653
15841.0,-58.717,-9.9399,-15.499,4.0653
15850.0,-62.717,-11.94,-13.499,4.0653
15860.0,-64.717,-11.94,-14.499,4.0653
15870.0,-67.717,-12.94,-17.499,5.0653
15880.0,-70.717,-13.94,-15.499,4.0653
15890.0,-72.717,-13.94,-18.499,5.0653
15900.0,-75.717,-14.94,-18.499,5.0653
15910.0,-76.717,-15.94,-17.499,5.0653
15920.0,-75.717,-15.94,-19.499,4.0653
15930.0,-72.717,-13.94,-19.499,6.0653
15939.0,-70.717,-12.94,-20.499,7.0653
15949.0,-63.717,-11.94,-22.499,10.065
15959.0,-57.717,-8.9399,-19.499,10.065
15969.0,-48.717,-7.9399,-17.499,11.065
15979.0,-43.717,-5.9399,-15.499,13.065
15989.0,-34.717,-3.9399,-13.499,13.065
15999.0,-28.717,-0.93989,-12.499,14.065
16009.0,-22.717,-0.93989,-9.4989,13.065
16019.0,-17.717,1.0601,-9.4989,13.065
16028.0,-11.717,2.0601,-5.4989,13.065
16038.0,-7.7165,3.0601,-2.4989,12.065
16048.0,-1.7165,6.0601,-2.4989,12.065
16058.0,3.2835,8.0601,-0.49895,10.065
16068.0,8.2835,8.0601,-0.49895,10.065
16078.0,8.2835,8.0601,1.5011,10.065
16088.0,18.283,11.06,0.50105,10.065
16098.0,18.283,11.06,3.5011,9.0653
16108.0,22.283,12.06,3.5011,8.0653
16117.0,22.283,12.06,2.5011,9.0653
16127.0,29.283,13.06,6.5011,7.0653
16137.0,29.283,13.06,4.5011,6.0653
16147.0,31.283,14.06,4.5011,7.0653
16157.0,31.283,14.06,3.5011,6.0653
16167.0,34.283,15.06,3.5011,6.0653
16177.0,34.283,15.06,2.5011,6.0653
16187.0,36.283,15.06,1.5011,6.0653
16196.0,36.283,15.06,2.5011,6.0653
16206.0,35.283,16.06,1.5011,5.0653
16216.0,35.283,16.06,-1.4989,7.0653
16226.0,36.283,15.06,0.50105,7.0653
16236.0,36.283,15.06,0.50105,7.0653
16246.0,36.283,14.06,-1.4989,6.0653
16256.0,34.283,14.06,-1.4989,6.0653
16266.0,34.283,15.06,-1.4989,6.0653
16276.0,35.283,14.06,-1.4989,6.0653
16285.0,32.283,14.06,-3.4989,7.0653
16295.0,31.283,14.06,-3.4989,7.0653
16305.0,30.283,13.06,-2.4989,6.0653
16315.0,28.283,13.06,-2.4989,6.0653
16325.0,26.283,12.06,-2.4989,6.0653
16335.0,22.283,9.0601,-2.4989,6.0653
16345.0,20.283,10.06,-4.4989,5.0653
16355.0,19.283,10.06,-4.4989,5.0653
16365.0,15.283,8.0601,-3.4989,3.0653
16374.0,13.283,8.0601,-3.4989,3.0653
16384.0,10.283,6.0601,-5.4989,4.0653
16394.0,6.2835,6.0601,-5.4989,4.0653
16404.0,4.2835,4.0601,-6.4989,4.0653
16414.0,2.2835,4.0601,-6.4989,4.0653
16424.0,0.28348,4.0601,-8.4989,4.0653
16434.0,-2.7165,4.0601,-8.4989,4.0653
16444.0,-6.7165,1.0601,-7.4989,4.0653
16454.0,-9.7165,2.0601,-8.4989,5.0653
16463.0,-12.717,1.0601,-8.4989,4.0653
16473.0,-15.717,0.060111,-10.499,5.0653
16483.0,-20.717,-0.93989,-9.4989,5.0653
16493.0,-23.717,-1.9399,-10.499,4.0653
16503.0,-26.717,-2.9399,-12.499,5.0653
16513.0,-28.717,-3.9399,-12.499,5.0653
16523.0,-31.717,-4.9399,-12.499,5.0653
16533.0,-36.717,-8.9399,-12.499,5.0653
16542.0,-38.717,-7.9399,-12.499,6.0653
16552.0,-41.717,-10.94,-13.499,7.0653
16562.0,-48.717,-9.9399,-14.499,6.0653
16572.0,-50.717,-10.94,-13.499,6.0653
16582.0,-53.717,-10.94,-15.499,6.0653
16592.0,-57.717,-11.94,-17.499,5.0653
16602.0,-59.717,-13.94,-15.499,5.0653
16612.0,-62.717,-13.94,-17.499,5.0653
16622.0,-67.717,-14.94,-15.499,5.0653
16631.0,-69.717,-14.94,-16.499,4.0653
16641.0,-72.717,-16.94,-17.499,5.0653
16651.0,-72.717,-14.94,-19.499,5.0653
16661.0,-71.717,-15.94,-18.499,6.0653
16671.0,-71.717,-14.94,-20.499,7.0653
16681.0,-64.717,-14.94,-21.499,8.0653
16691.0,-58.717,-11.94,-22.499,10.065
16701.0,-50.717,-10.94,-20.499,13.065
16711.0,-42.717,-6.9399,-18.499,13.065
16720.0,-35.717,-5.9399,-15.499,14.065
16730.0,-30.717,-3.9399,-15.499,14.065
16740.0,-24.717,-3.9399,-11.499,14.065
16750.0,-17.717,-1.9399,-9.4989,14.065
16760.0,-14.717,1.0601,-8.4989,13.065
16770.0,-8.7165,1.0601,-6.4989,13.065
16780.0,-3.7165,2.0601,-3.4989,14.065
16790.0,2.2835,4.0601,-4.4989,14.065
16799.0,7.2835,5.0601,-0.49895,12.065
16809.0,11.283,7.0601,-1.4989,12.065
16819.0,16.283,9.0601,-1.4989,11.065
16829.0,16.283,9.0601,-0.49895,11.065
16839.0,23.283,11.06,0.50105,10.065
16849.0,23.283,11.06,0.50105,9.0653
16859.0,29.283,11.06,1.5011,10.065
16869.0,29.283,11.06,2.5011,10.065
16879.0,31.283,13.06,3.5011,7.0653
16888.0,31.283,13.06,2.5011,8.0653
16898.0,32.283,13.06,2.5011,7.0653
16908.0,32.283,13.06,1.5011,7.0653
16918.0,37.283,13.06,0.50105,6.0653
16928.0,37.283,13.06,-0.49895,6.0653
16938.0,39.283,14.06,-0.49895,8.0653
16948.0,39.283,14.06,-2.4989,8.0653
16958.0,40.283,15.06,-3.4989,7.0653
16968.0,40.283,15.06,-3.4989,8.0653
16977.0,41.283,15.06,-2.4989,8.0653
16987.0,40.283,15.06,-2.4989,8.0653
16997.0,39.283,15.06,-2.4989,7.0653
17007.0,38.283,15.06,-3.4989,8.0653
17017.0,38.283,14.06,-3.4989,8.0653
17027.0,36.283,13.06,-3.4989,8.0653
17037.0,32.283,13.06,-4.4989,7.0653
17047.0,32.283,14.06,-2.4989,7.0653
17057.0,29.283,11.06,-3.4989,6.0653
17066.0,27.283,10.06,-4.4989,6.0653
17076.0,25.283,10.06,-3.4989,7.0653
17086.0,22.283,9.0601,-3.4989,6.0653
17096.0,19.283,9.0601,-5.4989,7.0653
17106.0,15.283,7.0601,-3.4989,6.0653
17116.0,13.283,7.0601,-6.4989,7.0653
17126.0,9.2835,6.0601,-7.4989,6.0653
17136.0,5.2835,4.0601,-6.4989,5.0653
17145.0,3.2835,3.0601,-8.4989,6.0653
17155.0,-2.7165,2.0601,-9.4989,6.0653
17165.0,-4.7165,1.0601,-9.4989,6.0653
17175.0,-10.717,-0.93989,-9.4989,6.0653
17185.0,-12.717,-0.93989,-9.4989,6.0653
17195.0,-15.717,-1.9399,-11.499,7.0653
17205.0,-19.717,-2.9399,-10.499,5.0653
17215.0,-23.717,-4.9399,-13.499,7.0653
17225.0,-27.717,-5.9399,-11.499,6.0653
17234.0,-31.717,-6.9399,-13.499,7.0653
17244.0,-36.717,-8.9399,-13.499,7.0653
17254.0,-39.717,-9.9399,-14.499,7.0653
17264.0,-42.717,-10.94,-14.499,7.0653
17274.0,-47.717,-10.94,-14.499,6.0653
17284.0,-50.717,-12.94,-14.499,6.0653
17294.0,-55.717,-13.94,-17.499,8.0653
17304.0,-57.717,-14.94,-17.499,8.0653
17314.0,-61.717,-16.94,-18.499,7.0653
17323.0,-65.717,-17.94,-18.499,7.0653
17333.0,-67.717,-17.94,-18.499,7.0653
17343.0,-69.717,-17.94,-18.499,7.0653
17353.0,-70.717,-16.94,-19.499,8.0653
17363.0,-67.717,-16.94,-19.499,8.0653
17373.0,-63.717,-15.94,-23.499,11.065
17383.0,-57.717,-13.94,-23.499,11.065
17393.0,-49.717,-12.94,-23.499,14.065
17403.0,-44.717,-10.94,-23.499,14.065
17412.0,-38.717,-8.9399,-17.499,15.065
17422.0,-32.717,-7.9399,-17.499,15.065
17432.0,-25.717,-5.9399,-14.499,17.065
17442.0,-21.717,-3.9399,-14.499,17.065
17452.0,-15.717,-2.9399,-10.499,16.065
17462.0,-10.717,-0.93989,-10.499,16.065
17472.0,-3.7165,-0.93989,-6.4989,15.065
17482.0,1.2835,2.0601,-6.4989,15.065
17491.0,7.2835,2.0601,-5.4989,15.065
17501.0,11.283,4.0601,-5.4989,15.065
17511.0,16.283,6.0601,-2.4989,15.065
17521.0,21.283,8.0601,-2.4989,15.065
17531.0,24.283,9.0601,-2.4989,13.065
17541.0,28.283,9.0601,-2.4989,13.065
17551.0,28.283,9.0601,-2.4989,13.065
17561.0,30.283,10.06,-1.4989,13.065
17571.0,31.283,10.06,0.50105,12.065
17580.0,33.283,11.06,-0.49895,12.065
17590.0,32.283,11.06,0.50105,10.065
17600.0,32.283,11.06,-0.49895,10.065
17610.0,35.283,11.06,-0.49895,9.0653
17620.0,35.283,11.06,-0.49895,9.0653
17630.0,35.283,12.06,-1.4989,9.0653
17640.0,35.283,12.06,-3.4989,9.0653
17650.0,34.283,12.06,-3.4989,10.065
17660.0,34.283,12.06,-5.4989,10.065
17669.0,32.283,9.0601,-4.4989,10.065
17679.0,32.283,9.0601,-3.4989,9.0653
17689.0,30.283,10.06,-5.4989,11.065
17699.0,30.283,10.06,-5.4989,11.065
17709.0,26.283,6.0601,-4.4989,10.065
17719.0,26.283,6.0601,-4.4989,10.065
17729.0,21.283,6.0601,-6.4989,10.065
17739.0,21.283,6.0601,-6.4989,10.065
17749.0,19.283,6.0601,-5.4989,10.065
17758.0,17.283,4.0601,-6.4989,9.0653
17768.0,13.283,4.0601,-6.4989,9.0653
17778.0,9.2835,1.0601,-5.4989,9.0653
17788.0,7.2835,2.0601,-5.4989,9.0653
17798.0,5.2835,-0.93989,-6.4989,8.0653
17808.0,3.2835,-0.93989,-7.4989,8.0653
17818.0,-3.7165,-2.9399,-7.4989,7.0653
17828.0,-5.7165,-2.9399,-8.4989,8.0653
17837.0,-9.7165,-4.9399,-7.4989,8.0653
17847.0,-13.717,-5.9399,-8.4989,7.0653
17857.0,-16.717,-6.9399,-9.4989,8.0653
17867.0,-19.717,-6.9399,-11.499,9.0653
17877.0,-23.717,-8.9399,-10.499,7.0653
17887.0,-27.717,-9.9399,-11.499,7.0653
17897.0,-31.717,-10.94,-12.499,7.0653
17907.0,-36.717,-11.94,-11.499,7.0653
17917.0,-39.717,-13.94,-11.499,8.0653
17926.0,-43.717,-13.94,-12.499,8.0653
17936.0,-46.717,-14.94,-13.499,8.0653
17946.0,-50.717,-17.94,-14.499,8.0653
17956.0,-52.717,-15.94,-13.499,6.0653
17966.0,-57.717,-18.94,-12.499,6.0653
17976.0,-60.717,-18.94,-14.499,8.0653
17986.0,-63.717,-20.94,-14.499,7.0653
17996.0,-70.717,-21.94,-14.499,7.0653
18006.0,-71.717,-22.94,-15.499,7.0653
18015.0,-74.717,-23.94,-15.499,6.0653
18025.0,-80.717,-25.94,-16.499,6.0653
18035.0,-83.717,-25.94,-16.499,6.0653
18045.0,-86.717,-26.94,-15.499,6.0653
18055.0,-87.717,-26.94,-17.499,6.0653
18065.0,-86.717,-26.94,-16.499,8.0653
18075.0,-83.717,-26.94,-18.499,8.0653
18085.0,-78.717,-24.94,-18.499,10.065
18095.0,-73.717,-22.94,-19.499,11.065
18104.0,-67.717,-20.94,-21.499,13.065
18114.0,-56.717,-18.94,-18.499,13.065
18124.0,-51.717,-16.94,-14.499,16.065
18134.0,-45.717,-14.94,-11.499,16.065
18144.0,-36.717,-11.94,-9.4989,16.065
18154.0,-30.717,-10.94,-7.4989,17.065
18164.0,-22.717,-9.9399,-4.4989,17.065
18174.0,-17.717,-7.9399,-3.4989,15.065
18183.0,-9.7165,-4.9399,-1.4989,16.065
18193.0,-1.7165,-2.9399,0.50105,14.065
18203.0,3.2835,-1.9399,0.50105,15.065
18213.0,8.2835,0.060111,2.5011,14.065
18223.0,15.283,1.0601,4.5011,14.065
18233.0,20.283,2.0601,3.5011,13.065
18243.0,28.283,4.0601,4.5011,14.065
18253.0,30.283,5.0601,5.5011,13.065
18263.0,34.283,6.0601,6.5011,13.065
18272.0,36.283,8.0601,6.5011,13.065
18282.0,41.283,7.0601,7.5011,10.065
18292.0,40.283,8.0601,6.5011,10.065
18302.0,42.283,8.0601,5.5011,9.0653
18312.0,45.283,9.0601,7.5011,10.065
18322.0,44.283,9.0601,7.5011,9.0653
18332.0,46.283,9.0601,7.5011,9.0653
18342.0,45.283,9.0601,6.5011,9.0653
18352.0,45.283,9.0601,6.5011,9.0653
18361.0,48.283,9.0601,5.5011,10.065
18371.0,48.283,9.0601,5.5011,10.065
18381.0,45.283,7.0601,3.5011,10.065
18391.0,45.283,7.0601,3.5011,10.065
18401.0,43.283,8.0601,2.5011,10.065
18411.0,43.283,8.0601,2.5011,10.065
18421.0,40.283,7.0601,3.5011,10.065
18431.0,40.283,7.0601,3.5011,10.065
18441.0,37.283,5.0601,2.5011,10.065
18450.0,37.283,5.0601,2.5011,10.065
18460.0,33.283,4.0601,2.5011,9.0653
18470.0,33.283,4.0601,2.5011,9.0653
18480.0,26.283,2.0601,0.50105,9.0653
18490.0,26.283,2.0601,0.50105,9.0653
18500.0,23.283,1.0601,-0.49895,8.0653
18510.0,20.283,1.0601,-0.49895,8.0653
18520.0,17.283,-0.93989,1.5011,9.0653
18529.0,14.283,-2.9399,-0.49895,9.0653
18539.0,11.283,-2.9399,-0.49895,7.0653
18549.0,7.2835,-4.9399,-1.4989,9.0653
18559.0,5.2835,-4.9399,-1.4989,8.0653
18569.0,0.28348,-5.9399,-3.4989,8.0653
18579.0,-1.7165,-6.9399,-2.4989,8.0653
18589.0,-4.7165,-7.9399,-2.4989,8.0653
18599.0,-9.7165,-8.9399,-2.4989,7.0653
18609.0,-12.717,-10.94,-3.4989,7.0653
18618.0,-13.717,-9.9399,-5.4989,9.0653
18628.0,-19.717,-12.94,-4.4989,7.0653
18638.0,-24.717,-12.94,-2.4989,8.0653
18648.0,-24.717,-13.94,-5.4989,7.0653
18658.0,-28.717,-15.94,-6.4989,8.0653
18668.0,-32.717,-15.94,-7.4989,8.0653
18678.0,-37.717,-18.94,-7.4989,7.0653
18688.0,-41.717,-18.94,-8.4989,7.0653
18698.0,-46.717,-19.94,-8.4989,7.0653
18707.0,-47.717,-21.94,-8.4989,8.0653
18717.0,-52.717,-21.94,-9.4989,8.0653
18727.0,-55.717,-24.94,-8.4989,8.0653
18737.0,-59.717,-23.94,-10.499,9.0653
18747.0,-66.717,-25.94,-10.499,8.0653
18757.0,-67.717,-26.94,-10.499,9.0653
18767.0,-70.717,-27.94,-12.499,7.0653
18777.0,-72.717,-26.94,-11.499,9.0653
18787.0,-73.717,-27.94,-14.499,8.0653
18796.0,-69.717,-25.94,-12.499,9.0653
18806.0,-68.717,-26.94,-14.499,11.065
18816.0,-62.717,-24.94,-14.499,12.065
18826.0,-58.717,-23.94,-16.499,14.065
18836.0,-49.717,-21.94,-13.499,15.065
18846.0,-42.717,-19.94,-13.499,17.065
18856.0,-36.717,-18.94,-11.499,17.065
18866.0,-28.717,-14.94,-7.4989,17.065
18875.0,-22.717,-13.94,-7.4989,18.065
18885.0,-15.717,-11.94,-3.4989,18.065
18895.0,-9.7165,-9.9399,-2.4989,17.065
18905.0,-3.7165,-8.9399,0.50105,17.065
18915.0,2.2835,-7.9399,2.5011,16.065
18925.0,7.2835,-4.9399,4.5011,15.065
18935.0,16.283,-2.9399,5.5011,14.065
18945.0,20.283,-2.9399,8.5011,14.065
18955.0,28.283,-0.93989,6.5011,13.065
18964.0,32.283,1.0601,7.5011,14.065
18974.0,37.283,2.0601,9.5011,13.065
18984.0,40.283,3.0601,8.5011,13.065
18994.0,45.283,4.0601,10.501,12.065
19004.0,46.283,5.0601,11.501,11.065
19014.0,47.283,6.0601,12.501,11.065
19024.0,49.283,6.0601,11.501,10.065
19034.0,49.283,6.0601,12.501,9.0653
19044.0,52.283,7.0601,12.501,8.0653
19053.0,51.283,6.0601,11.501,8.0653
19063.0,51.283,6.0601,12.501,7.0653
19073.0,53.283,6.0601,11.501,9.0653
19083.0,53.283,5.0601,9.5011,9.0653
19093.0,51.283,6.0601,9.5011,9.0653
19103.0,51.283,6.0601,10.501,8.0653
19113.0,52.283,4.0601,9.5011,8.0653
19123.0,52.283,4.0601,8.5011,9.0653
19133.0,50.283,3.0601,9.5011,9.0653
19142.0,50.283,3.0601,8.5011,9.0653
19152.0,46.283,4.0601,8.5011,9.0653
19162.0,46.283,4.0601,7.5011,8.0653
19172.0,42.283,2.0601,9.5011,8.0653
19182.0,42.283,2.0601,9.5011,6.0653
19192.0,36.283,-0.93989,7.5011,8.0653
19202.0,36.283,-0.93989,8.5011,7.0653
19212.0,32.283,-0.93989,6.5011,8.0653
19221.0,32.283,-0.93989,7.5011,6.0653
19231.0,26.283,-2.9399,6.5011,7.0653
19241.0,26.283,-2.9399,5.5011,6.0653
19251.0,20.283,-3.9399,7.5011,6.0653
19261.0,19.283,-5.9399,6.5011,6.0653
19271.0,14.283,-6.9399,5.5011,5.0653
19281.0,13.283,-6.9399,4.5011,6.0653
19291.0,7.2835,-8.9399,2.5011,6.0653
19301.0,4.2835,-10.94,3.5011,5.0653
19310.0,2.2835,-10.94,2.5011,6.0653
19320.0,-3.7165,-9.9399,2.5011,6.0653
19330.0,-5.7165,-12.94,0.50105,7.0653
19340.0,-8.7165,-13.94,0.50105,7.0653
19350.0,-12.717,-15.94,0.50105,6.0653
19360.0,-17.717,-16.94,0.50105,6.0653
19370.0,-19.717,-15.94,-0.49895,6.0653
19380.0,-24.717,-17.94,-0.49895,6.0653
19390.0,-26.717,-18.94,-2.4989,7.0653
19399.0,-31.717,-19.94,-2.4989,7.0653
19409.0,-34.717,-20.94,-3.4989,6.0653
19419.0,-39.717,-21.94,-3.4989,6.0653
19429.0,-42.717,-22.94,-5.4989,6.0653
19439.0,-45.717,-23.94,-5.4989,6.0653
19449.0,-51.717,-26.94,-4.4989,6.0653
19459.0,-54.717,-25.94,-4.4989,6.0653
19469.0,-58.717,-27.94,-5.4989,6.0653
19479.0,-61.717,-28.94,-5.4989,6.0653
19488.0,-65.717,-29.94,-8.4989,6.0653
19498.0,-68.717,-31.94,-8.4989,6.0653
19508.0,-72.717,-29.94,-7.4989,6.0653
19518.0,-72.717,-30.94,-7.4989,6.0653
19528.0,-74.717,-30.94,-7.4989,6.0653
19538.0,-74.717,-31.94,-8.4989,8.0653
19548.0,-71.717,-29.94,-9.4989,7.0653
19558.0,-68.717,-30.94,-11.499,10.065
19567.0,-64.717,-29.94,-11.499,11.065
19577.0,-56.717,-27.94,-10.499,12.065
19587.0,-47.717,-23.94,-10.499,13.065
19597.0,-40.717,-21.94,-8.4989,14.065
19607.0,-34.717,-20.94,-5.4989,14.065
19617.0,-28.717,-19.94,-1.4989,15.065
19627.0,-21.717,-16.94,-0.49895,16.065
19637.0,-15.717,-15.94,0.50105,15.065
19647.0,-9.7165,-13.94,3.5011,16.065
19656.0,-4.7165,-12.94,7.5011,14.065
19666.0,4.2835,-10.94,6.5011,14.065
19676.0,8.2835,-8.9399,7.5011,14.065
19686.0,15.283,-6.9399,9.5011,12.065
19696.0,23.283,-4.9399,9.5011,13.065
19706.0,30.283,-1.9399,13.501,12.065
19716.0,33.283,-0.93989,12.501,12.065
19726.0,36.283,-0.93989,12.501,12.065
19736.0,39.283,0.060111,15.501,11.065
19745.0,43.283,1.0601,13.501,11.065
19755.0,44.283,2.0601,14.501,10.065
19765.0,47.283,2.0601,14.501,10.065
19775.0,47.283,2.0601,13.501,9.0653
19785.0,47.283,2.0601,13.501,8.0653
19795.0,49.283,4.0601,12.501,8.0653
19805.0,48.283,3.0601,13.501,9.0653
19815.0,51.283,4.0601,11.501,7.0653
19825.0,52.283,4.0601,11.501,8.0653
19834.0,53.283,4.0601,9.5011,9.0653
19844.0,52.283,4.0601,9.5011,9.0653
19854.0,52.283,4.0601,10.501,8.0653
19864.0,50.283,3.0601,10.501,9.0653
19874.0,50.283,3.0601,8.5011,9.0653
19884.0,49.283,2.0601,10.501,10.065
19894.0,49.283,2.0601,8.5011,8.0653
19904.0,46.283,2.0601,9.5011,8.0653
19913.0,46.283,2.0601,9.5011,9.0653
19923.0,42.283,0.060111,7.5011,8.0653
19933.0,42.283,0.060111,8.5011,8.0653
19943.0,38.283,1.0601,8.5011,8.0653
19953.0,38.283,1.0601,8.5011,8.0653
19963.0,32.283,-0.93989,5.5011,7.0653
19973.0,32.283,-0.93989,6.5011,7.0653
19983.0,27.283,-2.9399,5.5011,7.0653
19993.0,27.283,-2.9399,6.5011,8.0653
20002.0,26.283,-3.9399,7.5011,7.0653
20012.0,21.283,-4.9399,5.5011,7.0653
20022.0,18.283,-6.9399,4.5011,5.0653
20032.0,14.283,-6.9399,4.5011,7.0653
20042.0,13.283,-7.9399,4.5011,6.0653
20052.0,9.2835,-7.9399,3.5011,5.0653
20062.0,6.2835,-10.94,3.5011,6.0653
20072.0,2.2835,-10.94,1.5011,6.0653
20082.0,0.28348,-10.94,2.5011,6.0653
20091.0,-2.7165,-11.94,1.5011,7.0653
20101.0,-5.7165,-12.94,1.5011,5.0653
20111.0,-8.7165,-12.94,0.50105,6.0653
20121.0,-13.717,-13.94,0.50105,7.0653
20131.0,-15.717,-15.94,-0.49895,8.0653
20141.0,-20.717,-17.94,-0.49895,7.0653
20151.0,-22.717,-17.94,-1.4989,6.0653
20161.0,-27.717,-18.94,-2.4989,6.0653
20171.0,-29.717,-20.94,-1.4989,6.0653
20180.0,-32.717,-20.94,-2.4989,5.0653
20190.0,-37.717,-21.94,-4.4989,6.0653
20200.0,-39.717,-21.94,-2.4989,6.0653
20210.0,-44.717,-23.94,-3.4989,6.0653
20220.0,-49.717,-25.94,-3.4989,5.0653
20230.0,-52.717,-24.94,-4.4989,6.0653
20240.0,-56.717,-25.94,-4.4989,7.0653
20250.0,-59.717,-26.94,-5.4989,6.0653
20259.0,-62.717,-28.94,-4.4989,6.0653
20269.0,-65.717,-28.94,-6.4989,6.0653
20279.0,-68.717,-29.94,-5.4989,5.0653
20289.0,-71.717,-29.94,-7.4989,7.0653
20299.0,-73.717,-30.94,-8.4989,5.0653
20309.0,-71.717,-31.94,-8.4989,7.0653
20319.0,-71.717,-29.94,-10.499,8.0653
20329.0,-67.717,-29.94,-12.499,9.0653
20339.0,-60.717,-26.94,-10.499,11.065
20348.0,-53.717,-25.94,-9.4989,12.065
20358.0,-46.717,-23.94,-7.4989,14.065
20368.0,-39.717,-22.94,-4.4989,15.065
20378.0,-33.717,-20.94,-4.4989,17.065
20388.0,-25.717,-17.94,-1.4989,15.065
20398.0,-21.717,-17.94,1.5011,16.065
20408.0,-14.717,-14.94,3.5011,15.065
20418.0,-9.7165,-12.94,5.5011,14.065
20428.0,-5.7165,-10.94,5.5011,14.065
20437.0,1.2835,-9.9399,6.5011,14.065
20447.0,5.2835,-8.9399,6.5011,14.065
20457.0,11.283,-8.9399,9.5011,12.065
20467.0,17.283,-5.9399,9.5011,12.065
20477.0,21.283,-4.9399,10.501,12.065
20487.0,24.283,-3.9399,10.501,12.065
20497.0,28.283,-1.9399,12.501,11.065
20507.0,30.283,-1.9399,12.501,11.065
20517.0,32.283,-1.9399,13.501,10.065
20526.0,34.283,0.060111,13.501,10.065
20536.0,36.283,-0.93989,13.501,9.0653
20546.0,37.283,1.0601,13.501,9.0653
20556.0,37.283,1.0601,11.501,8.0653
20566.0,38.283,1.0601,11.501,8.0653
20576.0,38.283,0.060111,10.501,8.0653
20586.0,40.283,0.060111,10.501,8.0653
20596.0,42.283,1.0601,9.5011,9.0653
20605.0,42.283,1.0601,9.5011,9.0653
20615.0,39.283,0.060111,8.5011,10.065
20625.0,39.283,0.060111,8.5011,10.065
20635.0,38.283,0.060111,7.5011,10.065
20645.0,38.283,0.060111,6.5011,10.065
20655.0,37.283,0.060111,7.5011,10.065
20665.0,37.283,0.060111,6.5011,11.065
20675.0,33.283,-0.93989,7.5011,9.0653
20685.0,33.283,-0.93989,5.5011,10.065
20694.0,31.283,-0.93989,5.5011,9.0653
20704.0,31.283,-0.93989,5.5011,10.065
20714.0,28.283,-2.9399,5.5011,10.065
20724.0,28.283,-2.9399,6.5011,9.0653
20734.0,22.283,-3.9399,3.5011,9.0653
20744.0,22.283,-3.9399,2.5011,8.0653
20754.0,19.283,-4.9399,3.5011,9.0653
20764.0,17.283,-4.9399,1.5011,9.0653
20774.0,14.283,-6.9399,4.5011,9.0653
20783.0,11.283,-6.9399,3.5011,8.0653
20793.0,8.2835,-7.9399,1.5011,8.0653
20803.0,3.2835,-9.9399,0.50105,9.0653
20813.0,2.2835,-9.9399,-1.4989,9.0653
20823.0,-0.71652,-10.94,-0.49895,9.0653
20833.0,-5.7165,-11.94,-1.4989,9.0653
20843.0,-10.717,-11.94,-1.4989,10.065
20853.0,-10.717,-13.94,-2.4989,8.0653
20863.0,-14.717,-14.94,-3.4989,9.0653
20872.0,-17.717,-14.94,-3.4989,10.065
20882.0,-20.717,-14.94,-5.4989,9.0653
20892.0,-22.717,-15.94,-4.4989,10.065
20902.0,-27.717,-16.94,-5.4989,9.0653
20912.0,-30.717,-17.94,-6.4989,10.065
20922.0,-33.717,-18.94,-8.4989,10.065
20932.0,-38.717,-20.94,-7.4989,10.065
20942.0,-41.717,-21.94,-7.4989,10.065
20951.0,-45.717,-22.94,-7.4989,10.065
20961.0,-50.717,-22.94,-8.4989,10.065
20971.0,-52.717,-24.94,-9.4989,11.065
20981.0,-57.717,-24.94,-10.499,11.065
20991.0,-59.717,-26.94,-9.4989,9.0653
21001.0,-63.717,-27.94,-12.499,11.065
21011.0,-65.717,-27.94,-12.499,11.065
21021.0,-68.717,-28.94,-12.499,11.065
21031.0,-68.717,-28.94,-14.499,11.065
21040.0,-66.717,-28.94,-13.499,13.065
21050.0,-65.717,-27.94,-17.499,12.065
21060.0,-61.717,-26.94,-19.499,14.065
21070.0,-56.717,-26.94,-15.499,17.065
21080.0,-50.717,-24.94,-14.499,18.065
21090.0,-43.717,-21.94,-14.499,19.065
21100.0,-34.717,-18.94,-13.499,20.065
21110.0,-27.717,-16.94,-8.4989,20.065
21120.0,-22.717,-14.94,-7.4989,20.065
21129.0,-17.717,-12.94,-5.4989,21.065
21139.0,-11.717,-12.94,-4.4989,20.065
21149.0,-4.7165,-10.94,-2.4989,20.065
21159.0,-0.71652,-7.9399,-0.49895,19.065
21169.0,5.2835,-7.9399,1.5011,18.065
21179.0,10.283,-5.9399,1.5011,18.065
21189.0,17.283,-3.9399,1.5011,18.065
21199.0,21.283,-2.9399,1.5011,18.065
21209.0,26.283,-1.9399,4.5011,17.065
21218.0,32.283,0.060111,6.5011,17.065
21228.0,32.283,0.060111,5.5011,16.065
21238.0,34.283,2.0601,6.5011,16.065
21248.0,37.283,1.0601,7.5011,13.065
21258.0,40.283,3.0601,6.5011,14.065
21268.0,40.283,3.0601,6.5011,13.065
21278.0,39.283,3.0601,8.5011,12.065
21288.0,39.283,2.0601,6.5011,12.065
21297.0,40.283,3.0601,6.5011,12.065
21307.0,42.283,3.0601,3.5011,13.065
21317.0,44.283,4.0601,5.5011,13.065
21327.0,41.283,3.0601,3.5011,13.065
21337.0,42.283,3.0601,3.5011,15.065
21347.0,42.283,3.0601,3.5011,12.065
21357.0,42.283,3.0601,1.5011,14.065
21367.0,41.283,3.0601,1.5011,14.065
21377.0,41.283,3.0601,1.5011,14.065
21386.0,39.283,2.0601,1.5011,14.065
21396.0,39.283,2.0601,1.5011,14.065
21406.0,33.283,0.060111,2.5011,12.065
21416.0,33.283,0.060111,2.5011,12.065
21426.0,28.283,-1.9399,1.5011,13.065
21436.0,28.283,-1.9399,1.5011,13.065
21446.0,24.283,-1.9399,1.5011,12.065
21456.0,24.283,-1.9399,1.5011,12.065
21466.0,17.283,-3.9399,0.50105,12.065
21475.0,17.283,-3.9399,0.50105,12.065
21485.0,10.283,-5.9399,-1.4989,12.065
21495.0,10.283,-5.9399,-1.4989,12.065
21505.0,8.2835,-7.9399,-0.49895,12.065
21515.0,4.2835,-8.9399,-0.49895,12.065
21525.0,-0.71652,-9.9399,-3.4989,12.065
21535.0,-2.7165,-10.94,-3.4989,12.065
21545.0,-4.7165,-10.94,-5.4989,11.065
21555.0,-9.7165,-11.94,-5.4989,11.065
21564.0,-13.717,-14.94,-4.4989,11.065
21574.0,-17.717,-14.94,-4.4989,11.065
21584.0,-19.717,-15.94,-7.4989,12.065
21594.0,-22.717,-16.94,-7.4989,12.065
21604.0,-27.717,-17.94,-8.4989,13.065
21614.0,-31.717,-18.94,-8.4989,15.065
21624.0,-35.717,-19.94,-9.4989,13.065
21634.0,-39.717,-20.94,-10.499,13.065
21643.0,-42.717,-20.94,-10.499,13.065
21653.0,-46.717,-22.94,-10.499,14.065
21663.0,-49.717,-23.94,-11.499,13.065
21673.0,-54.717,-24.94,-11.499,13.065
21683.0,-57.717,-25.94,-10.499,13.065
21693.0,-61.717,-27.94,-12.499,13.065
21703.0,-63.717,-27.94,-11.499,12.065
21713.0,-66.717,-27.94,-12.499,13.065
21723.0,-71.717,-30.94,-14.499,13.065
21732.0,-71.717,-27.94,-16.499,14.065
21742.0,-72.717,-28.94,-15.499,13.065
21752.0,-72.717,-28.94,-16.499,12.065
21762.0,-67.717,-27.94,-17.499,14.065
21772.0,-63.717,-26.94,-18.499,16.065
21782.0,-58.717,-25.94,-20.499,18.065
21792.0,-49.717,-22.94,-17.499,20.065
21802.0,-42.717,-21.94,-17.499,22.065
21812.0,-35.717,-18.94,-14.499,22.065
21821.0,-29.717,-16.94,-12.499,23.065
21831.0,-21.717,-14.94,-9.4989,23.065
21841.0,-14.717,-13.94,-9.4989,23.065
21851.0,-7.7165,-11.94,-5.4989,23.065
21861.0,-0.71652,-9.9399,-5.4989,23.065
21871.0,6.2835,-6.9399,-2.4989,21.065
21881.0,13.283,-4.9399,-0.49895,22.065
21891.0,17.283,-2.9399,-1.4989,21.065
21900.0,25.283,-0.93989,1.5011,21.065
21910.0,30.283,0.060111,2.5011,20.065
21920.0,38.283,3.0601,6.5011,20.065
21930.0,44.283,4.0601,6.5011,19.065
21940.0,48.283,5.0601,5.5011,19.065
21950.0,50.283,5.0601,4.5011,18.065
21960.0,52.283,7.0601,7.5011,17.065
21970.0,56.283,7.0601,7.5011,17.065
21980.0,55.283,7.0601,6.5011,16.065
21989.0,58.283,8.0601,6.5011,16.065
21999.0,59.283,8.0601,7.5011,16.065
22009.0,58.283,7.0601,8.5011,16.065
22019.0,61.283,8.0601,5.5011,15.065
22029.0,61.283,9.0601,6.5011,15.065
22039.0,61.283,8.0601,6.5011,15.065
22049.0,61.283,9.0601,4.5011,16.065
22059.0,62.283,9.0601,4.5011,16.065
22069.0,60.283,8.0601,3.5011,14.065
22078.0,59.283,7.0601,3.5011,15.065
22088.0,59.283,7.0601,2.5011,16.065
22098.0,59.283,7.0601,3.5011,15.065
22108.0,59.283,7.0601,2.5011,15.065
22118.0,55.283,7.0601,1.5011,15.065
22128.0,55.283,7.0601,1.5011,15.065
22138.0,52.283,5.0601,2.5011,14.065
22148.0,52.283,5.0601,0.50105,14.065
22158.0,46.283,3.0601,-0.49895,14.065
22167.0,46.283,3.0601,2.5011,14.065
22177.0,41.283,1.0601,-0.49895,14.065
22187.0,41.283,1.0601,0.50105,14.065
22197.0,34.283,0.060111,-1.4989,14.065
22207.0,34.283,0.060111,-1.4989,14.065
22217.0,28.283,-1.9399,-3.4989,15.065
22227.0,28.283,-1.9399,-3.4989,15.065
22237.0,21.283,-4.9399,-3.4989,14.065
22246.0,21.283,-4.9399,-3.4989,14.065
22256.0,18.283,-4.9399,-3.4989,15.065
22266.0,13.283,-6.9399,-5.4989,13.065
22276.0,8.2835,-7.9399,-5.4989,14.065
22286.0,3.2835,-10.94,-3.4989,13.065
22296.0,-0.71652,-9.9399,-6.4989,14.065
22306.0,-2.7165,-10.94,-7.4989,14.065
22316.0,-9.7165,-13.94,-6.4989,14.065
22326.0,-12.717,-15.94,-8.4989,15.065
22335.0,-16.717,-15.94,-6.4989,14.065
22345.0,-20.717,-16.94,-7.4989,15.065
22355.0,-25.717,-18.94,-11.499,15.065
22365.0,-28.717,-19.94,-10.499,14.065
22375.0,-32.717,-20.94,-12.499,15.065
22385.0,-37.717,-21.94,-9.4989,15.065
22395.0,-40.717,-22.94,-12.499,15.065
22405.0,-43.717,-24.94,-12.499,15.065
22415.0,-50.717,-25.94,-12.499,15.065
22424.0,-54.717,-26.94,-12.499,15.065
22434.0,-57.717,-28.94,-14.499,15.065
22444.0,-60.717,-27.94,-14.499,15.065
22454.0,-65.717,-29.94,-15.499,15.065
22464.0,-69.717,-30.94,-15.499,15.065
22474.0,-73.717,-32.94,-15.499,15.065
22484.0,-76.717,-32.94,-15.499,15.065
22494.0,-77.717,-31.94,-17.499,15.065
22504.0,-76.717,-31.94,-17.499,15.065
22513.0,-75.717,-31.94,-19.499,18.065
22523.0,-72.717,-30.94,-19.499,18.065
22533.0,-66.717,-28.94,-21.499,21.065
22543.0,-59.717,-28.94,-21.499,21.065
22553.0,-50.717,-25.94,-16.499,25.065
22563.0,-41.717,-22.94,-16.499,25.065
22573.0,-35.717,-21.94,-14.499,26.065
22583.0,-28.717,-19.94,-14.499,26.065
22592.0,-18.717,-16.94,-11.499,26.065
22602.0,-12.717,-15.94,-10.499,27.065
22612.0,-3.7165,-11.94,-8.4989,26.065
22622.0,4.2835,-9.9399,-5.4989,27.065
22632.0,12.283,-7.9399,-3.4989,25.065
22642.0,18.283,-4.9399,-2.4989,26.065
22652.0,26.283,-2.9399,-1.4989,25.065
22662.0,33.283,-1.9399,0.50105,24.065
22672.0,41.283,1.0601,2.5011,24.065
22681.0,49.283,3.0601,3.5011,24.065
22691.0,55.283,3.0601,4.5011,21.065
22701.0,58.283,4.0601,4.5011,23.065
22711.0,63.283,6.0601,3.5011,22.065
22721.0,64.283,7.0601,3.5011,22.065
22731.0,69.283,9.0601,5.5011,21.065
22741.0,70.283,9.0601,5.5011,19.065
22751.0,72.283,8.0601,5.5011,18.065
22761.0,73.283,9.0601,7.5011,19.065
22770.0,72.283,8.0601,6.5011,19.065
22780.0,72.283,8.0601,6.5011,18.065
22790.0,73.283,10.06,4.5011,17.065
22800.0,74.283,8.0601,4.5011,18.065
22810.0,74.283,8.0601,2.5011,18.065
22820.0,74.283,8.0601,2.5011,19.065
22830.0,74.283,8.0601,3.5011,19.065
22840.0,71.283,7.0601,2.5011,19.065
22850.0,71.283,7.0601,2.5011,20.065
22859.0,71.283,7.0601,2.5011,19.065
22869.0,67.283,5.0601,1.5011,19.065
22879.0,67.283,5.0601,2.5011,19.065
22889.0,62.283,4.0601,0.50105,19.065
22899.0,62.283,4.0601,0.50105,18.065
22909.0,58.283,1.0601,0.50105,19.065
22919.0,58.283,1.0601,-0.49895,19.065
22929.0,52.283,0.060111,-1.4989,17.065
22938.0,52.283,0.060111,-0.49895,17.065
22948.0,45.283,-1.9399,-0.49895,18.065
22958.0,45.283,-1.9399,-1.4989,19.065
22968.0,38.283,-3.9399,-3.4989,19.065
22978.0,38.283,-3.9399,-3.4989,19.065
22988.0,30.283,-5.9399,-2.4989,18.065
22998.0,30.283,-5.9399,-4.4989,18.065
23008.0,28.283,-7.9399,-3.4989,19.065
23018.0,25.283,-8.9399,-3.4989,17.065
23027.0,21.283,-9.9399,-5.4989,17.065
23037.0,17.283,-11.94,-4.4989,18.065
23047.0,13.283,-11.94,-5.4989,18.065
23057.0,10.283,-13.94,-7.4989,18.065
23067.0,6.2835,-14.94,-9.4989,18.065
23077.0,1.2835,-15.94,-9.4989,18.065
23087.0,-2.7165,-17.94,-9.4989,18.065
23097.0,-6.7165,-18.94,-9.4989,18.065
23107.0,-11.717,-19.94,-8.4989,17.065
23116.0,-16.717,-20.94,-11.499,18.065
23126.0,-19.717,-21.94,-12.499,18.065
23136.0,-24.717,-22.94,-12.499,18.065
23146.0,-29.717,-24.94,-11.499,18.065
23156.0,-33.717,-25.94,-13.499,19.065
23166.0,-36.717,-26.94,-14.499,19.065
23176.0,-41.717,-27.94,-13.499,18.065
23186.0,-45.717,-29.94,-14.499,18.065
23196.0,-49.717,-31.94,-15.499,19.065
23205.0,-55.717,-31.94,-14.499,19.065
23215.0,-59.717,-32.94,-15.499,19.065
23225.0,-63.717,-34.94,-17.499,19.065
23235.0,-68.717,-36.94,-17.499,18.065
23245.0,-72.717,-37.94,-17.499,19.065
23255.0,-77.717,-37.94,-18.499,19.065
23265.0,-78.717,-39.94,-19.499,18.065
23275.0,-83.717,-41.94,-20.499,20.065
23284.0,-88.717,-42.94,-21.499,18.065
23294.0,-91.717,-41.94,-21.499,19.065
23304.0,-91.717,-42.94,-21.499,19.065
23314.0,-91.717,-42.94,-23.499,20.065
23324.0,-90.717,-42.94,-24.499,20.065
23334.0,-89.717,-42.94,-25.499,21.065
23344.0,-84.717,-39.94,-25.499,24.065
23354.0,-76.717,-39.94,-23.499,27.065
23364.0,-66.717,-35.94,-21.499,27.065
23373.0,-60.717,-36.94,-19.499,27.065
23383.0,-52.717,-33.94,-16.499,29.065
23393.0,-45.717,-29.94,-15.499,30.065
23403.0,-38.717,-28.94,-13.499,28.065
23413.0,-33.717,-26.94,-11.499,28.065
23423.0,-25.717,-24.94,-8.4989,29.065
23433.0,-19.717,-21.94,-5.4989,27.065
23443.0,-10.717,-20.94,-4.4989,27.065
23453.0,-4.7165,-19.94,-3.4989,27.065
23462.0,2.2835,-17.94,-3.4989,27.065
23472.0,8.2835,-15.94,-3.4989,26.065
23482.0,13.283,-15.94,-1.4989,24.065
23492.0,19.283,-12.94,-0.49895,24.065
23502.0,25.283,-12.94,1.5011,24.065
23512.0,27.283,-11.94,1.5011,24.065
23522.0,31.283,-9.9399,2.5011,24.065
23532.0,33.283,-9.9399,2.5011,24.065
23542.0,35.283,-7.9399,2.5011,22.065
23551.0,36.283,-7.9399,2.5011,22.065
23561.0,38.283,-8.9399,2.5011,21.065
23571.0,38.283,-7.9399,2.5011,21.065
23581.0,39.283,-6.9399,2.5011,21.065
23591.0,41.283,-6.9399,2.5011,21.065
23601.0,41.283,-6.9399,1.5011,22.065
23611.0,41.283,-7.9399,1.5011,22.065
23621.0,39.283,-7.9399,-1.4989,20.065
23630.0,39.283,-7.9399,-1.4989,20.065
23640.0,39.283,-6.9399,-1.4989,22.065
23650.0,39.283,-6.9399,-1.4989,22.065
23660.0,36.283,-8.9399,0.50105,21.065
23670.0,36.283,-8.9399,0.50105,21.065
23680.0,32.283,-8.9399,-1.4989,21.065
23690.0,32.283,-8.9399,-1.4989,21.065
23700.0,29.283,-10.94,-0.49895,20.065
23710.0,29.283,-10.94,-2.4989,21.065
23719.0,24.283,-11.94,-3.4989,21.065
23729.0,24.283,-11.94,-4.4989,21.065
23739.0,18.283,-13.94,-2.4989,20.065
23749.0,18.283,-13.94,-2.4989,20.065
23759.0,11.283,-17.94,-5.4989,21.065
23769.0,11.283,-17.94,-4.4989,20.065
23779.0,8.2835,-16.94,-6.4989,20.065
23789.0,6.2835,-18.94,-5.4989,21.065
23799.0,1.2835,-18.94,-8.4989,20.065
23808.0,-1.7165,-20.94,-7.4989,21.065
23818.0,-6.7165,-21.94,-8.4989,20.065
23828.0,-11.717,-22.94,-8.4989,20.065
23838.0,-13.717,-23.94,-9.4989,19.065
23848.0,-18.717,-24.94,-11.499,20.065
23858.0,-21.717,-25.94,-9.4989,21.065
23868.0,-25.717,-25.94,-10.499,19.065
23878.0,-31.717,-28.94,-10.499,20.065
23888.0,-33.717,-29.94,-11.499,20.065
23897.0,-36.717,-29.94,-11.499,21.065
23907.0,-41.717,-31.94,-12.499,20.065
23917.0,-44.717,-33.94,-12.499,20.065
23927.0,-49.717,-33.94,-12.499,19.065
23937.0,-53.717,-34.94,-11.499,19.065
23947.0,-57.717,-34.94,-14.499,20.065
23957.0,-60.717,-36.94,-14.499,19.065
23967.0,-63.717,-37.94,-17.499,20.065
23976.0,-67.717,-38.94,-16.499,20.065
23986.0,-71.717,-39.94,-16.499,19.065
23996.0,-76.717,-41.94,-17.499,19.065
24006.0,-79.717,-41.94,-17.499,20.065
24016.0,-83.717,-44.94,-19.499,19.065
24026.0,-87.717,-44.94,-20.499,20.065
24036.0,-92.717,-44.94,-19.499,19.065
24046.0,-96.717,-45.94,-21.499,20.065
24056.0,-99.717,-48.94,-22.499,21.065
24065.0,-103.72,-49.94,-23.499,22.065
24075.0,-107.72,-49.94,-22.499,21.065
24085.0,-109.72,-51.94,-23.499,22.065
24095.0,-115.72,-52.94,-23.499,21.065
24105.0,-117.72,-52.94,-25.499,21.065
24115.0,-119.72,-51.94,-25.499,21.065
24125.0,-119.72,-51.94,-26.499,22.065
24135.0,-117.72,-52.94,-27.499,22.065
24145.0,-116.72,-51.94,-28.499,23.065
24154.0,-110.72,-50.94,-30.499,25.065
24164.0,-104.72,-49.94,-29.499,27.065
24174.0,-99.717,-47.94,-28.499,28.065
24184.0,-90.717,-45.94,-26.499,30.065
24194.0,-85.717,-43.94,-25.499,30.065
24204.0,-76.717,-41.94,-23.499,32.065
24214.0,-71.717,-40.94,-19.499,31.065
24224.0,-65.717,-38.94,-17.499,31.065
24234.0,-60.717,-37.94,-16.499,32.065
24243.0,-52.717,-35.94,-14.499,32.065
24253.0,-47.717,-33.94,-13.499,31.065
24263.0,-41.717,-31.94,-10.499,29.065
24273.0,-35.717,-31.94,-9.4989,31.065
24283.0,-30.717,-28.94,-8.4989,29.065
24293.0,-24.717,-27.94,-7.4989,27.065
24303.0,-19.717,-26.94,-6.4989,28.065
24313.0,-16.717,-25.94,-6.4989,28.065
24322.0,-12.717,-24.94,-5.4989,28.065
24332.0,-10.717,-22.94,-4.4989,27.065
24342.0,-9.7165,-21.94,-5.4989,28.065
24352.0,-7.7165,-22.94,-3.4989,26.065
24362.0,-4.7165,-20.94,-4.4989,25.065
24372.0,-3.7165,-20.94,-5.4989,25.065
24382.0,-3.7165,-20.94,-6.4989,24.065
24392.0,-2.7165,-19.94,-6.4989,25.065
24402.0,-2.7165,-19.94,-6.4989,25.065
24411.0,-0.71652,-19.94,-9.4989,25.065
24421.0,-0.71652,-19.94,-8.4989,26.065
24431.0,1.2835,-18.94,-9.4989,26.065
24441.0,1.2835,-18.94,-9.4989,25.065
24451.0,1.2835,-19.94,-9.4989,26.065
24461.0,1.2835,-19.94,-9.4989,26.065
24471.0,-0.71652,-18.94,-9.4989,25.065
24481.0,-0.71652,-18.94,-9.4989,25.065
24491.0,-2.7165,-19.94,-11.499,25.065
24500.0,-2.7165,-19.94,-11.499,25.065
24510.0,-4.7165,-19.94,-12.499,25.065
24520.0,-4.7165,-19.94,-12.499,25.065
24530.0,-7.7165,-19.94,-13.499,26.065
24540.0,-8.7165,-21.94,-13.499,26.065
24550.0,-10.717,-20.94,-12.499,24.065
24560.0,-13.717,-22.94,-12.499,24.065
24570.0,-17.717,-22.94,-14.499,24.065
24580.0,-19.717,-23.94,-14.499,24.065
24589.0,-22.717,-24.94,-13.499,24.065
24599.0,-23.717,-24.94,-13.499,24.065
24609.0,-26.717,-25.94,-16.499,24.065
24619.0,-29.717,-26.94,-16.499,24.065
24629.0,-31.717,-26.94,-15.499,24.065
24639.0,-33.717,-27.94,-15.499,24.065
24649.0,-35.717,-28.94,-17.499,25.065
24659.0,-38.717,-29.94,-17.499,25.065
24668.0,-41.717,-29.94,-18.499,25.065
24678.0,-44.717,-30.94,-19.499,24.065
24688.0,-49.717,-31.94,-19.499,25.065
24698.0,-53.717,-33.94,-19.499,25.065
24708.0,-57.717,-34.94,-19.499,24.065
24718.0,-57.717,-34.94,-21.499,24.065
24728.0,-61.717,-35.94,-22.499,25.065
24738.0,-67.717,-36.94,-23.499,25.065
24748.0,-67.717,-36.94,-23.499,25.065
24757.0,-71.717,-38.94,-22.499,24.065
24767.0,-77.717,-39.94,-24.499,24.065
24777.0,-79.717,-41.94,-23.499,25.065
24787.0,-80.717,-40.94,-24.499,25.065
24797.0,-84.717,-41.94,-24.499,25.065
24807.0,-88.717,-43.94,-25.499,24.065
24817.0,-93.717,-43.94,-26.499,25.065
24827.0,-95.717,-44.94,-27.499,26.065
24837.0,-100.72,-45.94,-28.499,26.065
24846.0,-102.72,-46.94,-29.499,25.065
24856.0,-105.72,-47.94,-26.499,25.065
24866.0,-109.72,-48.94,-28.499,24.065
24876.0,-111.72,-49.94,-28.499,25.065
24886.0,-113.72,-48.94,-29.499,25.065
24896.0,-117.72,-49.94,-31.499,25.065
24906.0,-116.72,-49.94,-30.499,27.065
24916.0,-118.72,-50.94,-30.499,26.065
24926.0,-114.72,-49.94,-31.499,25.065
24935.0,-111.72,-47.94,-32.499,27.065
24945.0,-105.72,-46.94,-35.499,29.065
24955.0,-98.717,-44.94,-33.499,31.065
24965.0,-91.717,-42.94,-32.499,32.065
24975.0,-84.717,-39.94,-30.499,33.065
24985.0,-77.717,-37.94,-27.499,34.065
24995.0,-72.717,-37.94,-27.499,34.065
25005.0,-66.717,-35.94,-24.499,34.065
25014.0,-60.717,-34.94,-21.499,34.065
25024.0,-54.717,-32.94,-20.499,33.065
25034.0,-49.717,-30.94,-18.499,33.065
25044.0,-44.717,-28.94,-18.499,33.065
25054.0,-39.717,-27.94,-16.499,33.065
25064.0,-35.717,-26.94,-14.499,33.065
25074.0,-30.717,-24.94,-15.499,32.065
25084.0,-26.717,-23.94,-13.499,31.065
25094.0,-23.717,-23.94,-12.499,32.065
25103.0,-20.717,-21.94,-10.499,30.065
25113.0,-18.717,-22.94,-11.499,30.065
25123.0,-16.717,-21.94,-10.499,29.065
25133.0,-16.717,-21.94,-10.499,29.065
25143.0,-14.717,-20.94,-11.499,28.065
25153.0,-14.717,-20.94,-11.499,28.065
25163.0,-12.717,-19.94,-12.499,27.065
25173.0,-12.717,-19.94,-12.499,26.065
25183.0,-11.717,-19.94,-13.499,28.065
25192.0,-11.717,-19.94,-16.499,28.065
25202.0,-10.717,-17.94,-17.499,28.065
25212.0,-10.717,-17.94,-14.499,29.065
25222.0,-9.7165,-17.94,-16.499,29.065
25232.0,-9.7165,-17.94,-18.499,29.065
25242.0,-12.717,-18.94,-18.499,30.065
25252.0,-12.717,-18.94,-19.499,30.065
25262.0,-11.717,-17.94,-17.499,30.065
25272.0,-11.717,-17.94,-18.499,29.065
25281.0,-12.717,-18.94,-18.499,30.065
25291.0,-16.717,-19.94,-18.499,29.065
25301.0,-16.717,-20.94,-18.499,29.065
25311.0,-17.717,-20.94,-18.499,28.065
25321.0,-19.717,-20.94,-19.499,30.065
25331.0,-23.717,-21.94,-21.499,30.065
25341.0,-22.717,-20.94,-21.499,28.065
25351.0,-26.717,-21.94,-22.499,29.065
25360.0,-28.717,-21.94,-21.499,28.065
25370.0,-28.717,-22.94,-21.499,28.065
25380.0,-31.717,-22.94,-23.499,29.065
25390.0,-33.717,-24.94,-24.499,29.065
25400.0,-38.717,-25.94,-21.499,28.065
25410.0,-40.717,-25.94,-23.499,28.065
25420.0,-44.717,-27.94,-25.499,28.065
25430.0,-47.717,-28.94,-26.499,28.065
25440.0,-49.717,-28.94,-25.499,27.065
25449.0,-51.717,-28.94,-26.499,27.065
25459.0,-55.717,-30.94,-26.499,27.065
25469.0,-58.717,-30.94,-26.499,27.065
25479.0,-61.717,-31.94,-26.499,28.065
25489.0,-65.717,-33.94,-26.499,28.065
25499.0,-68.717,-34.94,-28.499,28.065
25509.0,-73.717,-34.94,-28.499,28.065
25519.0,-76.717,-35.94,-29.499,28.065
25529.0,-80.717,-37.94,-29.499,28.065
25538.0,-81.717,-37.94,-30.499,28.065
25548.0,-87.717,-40.94,-30.499,28.065
25558.0,-90.717,-40.94,-30.499,27.065
25568.0,-94.717,-40.94,-30.499,27.065
25578.0,-96.717,-41.94,-30.499,27.065
25588.0,-100.72,-43.94,-30.499,27.065
25598.0,-103.72,-43.94,-30.499,27.065
25608.0,-107.72,-44.94,-30.499,27.065
25618.0,-108.72,-44.94,-32.499,28.065
25627.0,-108.72,-43.94,-32.499,28.065
25637.0,-106.72,-43.94,-33.499,28.065
25647.0,-103.72,-42.94,-33.499,28.065
25657.0,-98.717,-39.94,-35.499,32.065
25667.0,-93.717,-38.94,-35.499,32.065
25677.0,-87.717,-38.94,-32.499,35.065
25687.0,-79.717,-35.94,-32.499,35.065
25697.0,-73.717,-34.94,-31.499,36.065
25706.0,-67.717,-33.94,-31.499,36.065
25716.0,-62.717,-31.94,-26.499,37.065
25726.0,-56.717,-29.94,-26.499,37.065
25736.0,-52.717,-27.94,-23.499,37.065
25746.0,-47.717,-27.94,-23.499,37.065
25756.0,-42.717,-26.94,-18.499,36.065
25766.0,-37.717,-24.94,-18.499,36.065
25776.0,-32.717,-22.94,-17.499,34.065
25786.0,-27.717,-21.94,-16.499,35.065
25795.0,-22.717,-20.94,-17.499,34.065
25805.0,-18.717,-17.94,-16.499,35.065
25815.0,-14.717,-18.94,-16.499,34.065
25825.0,-12.717,-17.94,-18.499,34.065
25835.0,-11.717,-16.94,-14.499,33.065
25845.0,-8.7165,-15.94,-13.499,34.065
25855.0,-8.7165,-13.94,-14.499,32.065
25865.0,-8.7165,-15.94,-13.499,31.065
25875.0,-7.7165,-15.94,-15.499,30.065
25884.0,-7.7165,-15.94,-15.499,30.065
25894.0,-6.7165,-15.94,-15.499,30.065
25904.0,-6.7165,-15.94,-15.499,31.065
25914.0,-6.7165,-14.94,-15.499,31.065
25924.0,-6.7165,-14.94,-16.499,30.065
25934.0,-7.7165,-15.94,-17.499,32.065
25944.0,-7.7165,-15.94,-19.499,31.065
25954.0,-7.7165,-15.94,-21.499,32.065
25964.0,-7.7165,-15.94,-20.499,31.065
25973.0,-10.717,-16.94,-20.499,32.065
25983.0,-10.717,-16.94,-20.499,32.065
25993.0,-13.717,-17.94,-22.499,32.065
26003.0,-13.717,-17.94,-21.499,32.065
26013.0,-17.717,-18.94,-21.499,32.065
26023.0,-17.717,-18.94,-23.499,33.065
26033.0,-16.717,-18.94,-22.499,32.065
26043.0,-18.717,-18.94,-23.499,31.065
26052.0,-21.717,-19.94,-22.499,32.065
26062.0,-23.717,-21.94,-25.499,31.065
26072.0,-27.717,-20.94,-24.499,31.065
26082.0,-29.717,-22.94,-24.499,31.065
26092.0,-33.717,-22.94,-24.499,31.065
26102.0,-35.717,-23.94,-25.499,31.065
26112.0,-38.717,-23.94,-25.499,32.065
26122.0,-40.717,-25.94,-27.499,31.065
26132.0,-45.717,-26.94,-25.499,31.065
26141.0,-48.717,-28.94,-27.499,31.065
26151.0,-50.717,-28.94,-27.499,32.065
26161.0,-54.717,-26.94,-29.499,29.065
26171.0,-56.717,-28.94,-29.499,29.065
26181.0,-59.717,-30.94,-29.499,31.065
26191.0,-62.717,-32.94,-30.499,31.065
26201.0,-65.717,-32.94,-29.499,32.065
26211.0,-69.717,-32.94,-30.499,31.065
26221.0,-72.717,-33.94,-32.499,33.065
26230.0,-74.717,-34.94,-32.499,31.065
26240.0,-79.717,-35.94,-32.499,31.065
26250.0,-83.717,-37.94,-34.499,32.065
26260.0,-87.717,-38.94,-34.499,31.065
26270.0,-91.717,-39.94,-33.499,30.065
26280.0,-96.717,-40.94,-34.499,32.065
26290.0,-99.717,-41.94,-34.499,32.065
26300.0,-103.72,-42.94,-34.499,31.065
26310.0,-106.72,-42.94,-34.499,32.065
26319.0,-108.72,-43.94,-36.499,32.065
26329.0,-108.72,-42.94,-37.499,32.065
26339.0,-110.72,-43.94,-37.499,33.065
26349.0,-105.72,-41.94,-38.499,34.065
26359.0,-103.72,-43.94,-39.499,34.065
26369.0,-96.717,-39.94,-40.499,38.065
26379.0,-90.717,-38.94,-40.499,38.065
26389.0,-84.717,-36.94,-38.499,40.065
26398.0,-74.717,-33.94,-35.499,41.065
26408.0,-66.717,-31.94,-35.499,42.065
26418.0,-59.717,-29.94,-30.499,41.065
26428.0,-54.717,-27.94,-27.499,42.065
26438.0,-48.717,-25.94,-28.499,41.065
26448.0,-42.717,-24.94,-23.499,42.065
26458.0,-34.717,-22.94,-22.499,40.065
26468.0,-28.717,-20.94,-21.499,40.065
26478.0,-22.717,-18.94,-21.499,41.065
26487.0,-18.717,-17.94,-19.499,40.065
26497.0,-10.717,-15.94,-17.499,40.065
26507.0,-4.7165,-15.94,-17.499,39.065
26517.0,2.2835,-12.94,-15.499,38.065
26527.0,4.2835,-11.94,-15.499,38.065
26537.0,9.2835,-9.9399,-15.499,38.065
26547.0,11.283,-8.9399,-13.499,37.065
26557.0,13.283,-7.9399,-15.499,36.065
26567.0,14.283,-7.9399,-14.499,36.065
26576.0,17.283,-6.9399,-14.499,36.065
26586.0,16.283,-7.9399,-14.499,36.065
26596.0,18.283,-7.9399,-14.499,36.065
26606.0,18.283,-6.9399,-13.499,34.065
26616.0,21.283,-6.9399,-13.499,34.065
26626.0,19.283,-6.9399,-15.499,34.065
26636.0,19.283,-6.9399,-15.499,34.065
26646.0,20.283,-7.9399,-17.499,36.065
26656.0,20.283,-7.9399,-17.499,36.065
26665.0,21.283,-6.9399,-16.499,34.065
26675.0,21.283,-6.9399,-16.499,34.065
26685.0,21.283,-6.9399,-16.499,35.065
26695.0,21.283,-6.9399,-16.499,35.065
26705.0,17.283,-7.9399,-17.499,34.065
26715.0,17.283,-7.9399,-17.499,34.065
26725.0,13.283,-8.9399,-19.499,35.065
26735.0,13.283,-8.9399,-19.499,35.065
26744.0,9.2835,-9.9399,-20.499,34.065
26754.0,9.2835,-9.9399,-20.499,34.065
26764.0,5.2835,-11.94,-20.499,34.065
26774.0,5.2835,-11.94,-18.499,33.065
26784.0,3.2835,-11.94,-20.499,34.065
26794.0,-0.71652,-12.94,-20.499,33.065
26804.0,-2.7165,-13.94,-20.499,32.065
26814.0,-6.7165,-16.94,-19.499,33.065
26824.0,-9.7165,-16.94,-22.499,33.065
26833.0,-12.717,-18.94,-21.499,33.065
26843.0,-13.717,-17.94,-21.499,33.065
26853.0,-17.717,-19.94,-22.499,32.065
26863.0,-20.717,-18.94,-24.499,33.065
26873.0,-24.717,-21.94,-23.499,33.065
26883.0,-25.717,-20.94,-24.499,32.065
26893.0,-30.717,-21.94,-27.499,34.065
26903.0,-34.717,-24.94,-25.499,33.065
26913.0,-37.717,-24.94,-27.499,34.065
26922.0,-40.717,-26.94,-26.499,33.065
26932.0,-44.717,-26.94,-28.499,34.065
26942.0,-49.717,-28.94,-27.499,33.065
26952.0,-52.717,-29.94,-28.499,35.065
26962.0,-56.717,-30.94,-28.499,34.065
26972.0,-59.717,-31.94,-28.499,34.065
26982.0,-63.717,-33.94,-29.499,33.065
26992.0,-67.717,-34.94,-30.499,33.065
27001.0,-69.717,-34.94,-29.499,34.065
27011.0,-71.717,-35.94,-30.499,34.065
27021.0,-75.717,-36.94,-30.499,32.065
27031.0,-76.717,-36.94,-30.499,33.065
27041.0,-80.717,-36.94,-30.499,34.065
27051.0,-81.717,-37.94,-30.499,33.065
27061.0,-80.717,-36.94,-31.499,33.065
27071.0,-75.717,-36.94,-33.499,35.065
27081.0,-73.717,-34.94,-34.499,35.065
27090.0,-68.717,-33.94,-34.499,38.065
27100.0,-60.717,-32.94,-34.499,39.065
27110.0,-51.717,-30.94,-31.499,40.065
27120.0,-44.717,-27.94,-30.499,40.065
27130.0,-36.717,-25.94,-26.499,41.065
27140.0,-30.717,-23.94,-25.499,43.065
27150.0,-23.717,-21.94,-21.499,43.065
27160.0,-17.717,-19.94,-21.499,42.065
27170.0,-10.717,-17.94,-18.499,41.065
27179.0,-4.7165,-15.94,-18.499,41.065
27189.0,2.2835,-13.94,-15.499,41.065
27199.0,9.2835,-12.94,-17.499,40.065
27209.0,15.283,-10.94,-15.499,40.065
27219.0,23.283,-8.9399,-13.499,39.065
27229.0,27.283,-6.9399,-15.499,40.065
27239.0,32.283,-5.9399,-12.499,39.065
27249.0,36.283,-4.9399,-13.499,38.065
27259.0,38.283,-5.9399,-12.499,38.065
27268.0,40.283,-3.9399,-9.4989,38.065
27278.0,43.283,-4.9399,-10.499,38.065
27288.0,44.283,-3.9399,-11.499,37.065
27298.0,44.283,-2.9399,-10.499,36.065
27308.0,45.283,-2.9399,-12.499,36.065
27318.0,48.283,-1.9399,-9.4989,35.065
27328.0,46.283,-1.9399,-10.499,36.065
27338.0,50.283,-0.93989,-13.499,35.065
27347.0,49.283,-1.9399,-12.499,35.065
27357.0,50.283,-0.93989,-13.499,35.065
27367.0,49.283,-2.9399,-13.499,35.065
27377.0,50.283,-1.9399,-14.499,37.065
27387.0,50.283,-1.9399,-16.499,37.065
27397.0,48.283,-2.9399,-14.499,36.065
27407.0,48.283,-2.9399,-15.499,36.065
27417.0,45.283,-3.9399,-16.499,37.065
27427.0,45.283,-3.9399,-16.499,35.065
27436.0,41.283,-4.9399,-15.499,35.065
27446.0,41.283,-4.9399,-14.499,35.065
27456.0,38.283,-6.9399,-16.499,34.065
27466.0,38.283,-6.9399,-16.499,35.065
27476.0,31.283,-7.9399,-16.499,35.065
27486.0,31.283,-7.9399,-16.499,35.065
27496.0,24.283,-10.94,-16.499,34.065
27506.0,24.283,-10.94,-17.499,35.065
27516.0,20.283,-11.94,-19.499,35.065
27525.0,20.283,-11.94,-18.499,35.065
27535.0,19.283,-12.94,-19.499,34.065
27545.0,14.283,-13.94,-19.499,34.065
27555.0,10.283,-14.94,-19.499,34.065
27565.0,7.2835,-16.94,-19.499,34.065
27575.0,5.2835,-16.94,-21.499,35.065
27585.0,0.28348,-17.94,-21.499,35.065
27595.0,-2.7165,-18.94,-23.499,35.065
27605.0,-5.7165,-20.94,-23.499,35.065
27614.0,-8.7165,-20.94,-25.499,36.065
27624.0,-12.717,-22.94,-25.499,36.065
27634.0,-17.717,-22.94,-26.499,35.065
27644.0,-20.717,-23.94,-26.499,35.065
27654.0,-23.717,-25.94,-29.499,36.065
27664.0,-27.717,-27.94,-29.499,36.065
27674.0,-30.717,-27.94,-29.499,37.065
27684.0,-35.717,-29.94,-29.499,37.065
27693.0,-37.717,-29.94,-28.499,37.065
27703.0,-43.717,-30.94,-28.499,37.065
27713.0,-47.717,-32.94,-28.499,36.065
27723.0,-50.717,-33.94,-28.499,36.065
27733.0,-53.717,-34.94,-28.499,35.065
27743.0,-57.717,-34.94,-28.499,35.065
27753.0,-61.717,-34.94,-29.499,37.065
27763.0,-63.717,-37.94,-30.499,36.065
27773.0,-66.717,-37.94,-30.499,36.065
27782.0,-68.717,-37.94,-31.499,36.065
27792.0,-66.717,-37.94,-32.499,36.065
27802.0,-64.717,-36.94,-31.499,37.065
27812.0,-61.717,-35.94,-33.499,38.065
27822.0,-54.717,-33.94,-34.499,40.065
27832.0,-49.717,-32.94,-34.499,42.065
27842.0,-43.717,-31.94,-33.499,43.065
27852.0,-34.717,-28.94,-31.499,43.065
27862.0,-26.717,-25.94,-26.499,44.065
27871.0,-20.717,-23.94,-26.499,43.065
27881.0,-14.717,-22.94,-22.499,43.065
27891.0,-8.7165,-20.94,-21.499,43.065
27901.0,-1.7165,-17.94,-18.499,43.065
27911.0,4.2835,-16.94,-16.499,42.065
27921.0,12.283,-14.94,-17.499,42.065
27931.0,17.283,-12.94,-16.499,42.065
27941.0,23.283,-11.94,-17.499,43.065
27951.0,28.283,-10.94,-14.499,42.065
27960.0,33.283,-9.9399,-13.499,41.065
27970.0,38.283,-7.9399,-13.499,41.065
27980.0,42.283,-6.9399,-13.499,41.065
27990.0,42.283,-6.9399,-12.499,41.065
28000.0,46.283,-4.9399,-12.499,39.065
28010.0,47.283,-4.9399,-11.499,40.065
28020.0,49.283,-3.9399,-9.4989,39.065
28030.0,50.283,-4.9399,-9.4989,38.065
28039.0,51.283,-3.9399,-11.499,37.065
28049.0,52.283,-4.9399,-11.499,36.065
28059.0,52.283,-2.9399,-11.499,37.065
28069.0,53.283,-3.9399,-11.499,36.065
28079.0,54.283,-3.9399,-12.499,37.065
28089.0,54.283,-2.9399,-12.499,37.065
28099.0,52.283,-3.9399,-16.499,37.065
28109.0,53.283,-4.9399,-13.499,36.065
28119.0,52.283,-3.9399,-15.499,38.065
28128.0,52.283,-3.9399,-15.499,38.065
28138.0,52.283,-3.9399,-14.499,37.065
28148.0,48.283,-4.9399,-14.499,36.065
28158.0,48.283,-4.9399,-16.499,37.065
28168.0,43.283,-6.9399,-16.499,37.065
28178.0,43.283,-6.9399,-17.499,37.065
28188.0,39.283,-8.9399,-16.499,36.065
28198.0,39.283,-8.9399,-15.499,36.065
28208.0,34.283,-11.94,-16.499,36.065
28217.0,34.283,-11.94,-17.499,36.065
28227.0,29.283,-12.94,-19.499,37.065
28237.0,29.283,-12.94,-18.499,37.065
28247.0,23.283,-13.94,-17.499,36.065
28257.0,23.283,-13.94,-20.499,36.065
28267.0,15.283,-16.94,-18.499,36.065
28277.0,15.283,-16.94,-19.499,35.065
28287.0,13.283,-16.94,-20.499,35.065
28297.0,11.283,-17.94,-19.499,36.065
28306.0,5.2835,-19.94,-20.499,35.065
28316.0,3.2835,-21.94,-21.499,35.065
28326.0,0.28348,-21.94,-23.499,36.065
28336.0,-3.7165,-21.94,-24.499,37.065
28346.0,-5.7165,-21.94,-22.499,37.065
28356.0,-9.7165,-25.94,-22.499,36.065
28366.0,-11.717,-24.94,-25.499,36.065
28376.0,-15.717,-25.94,-25.499,35.065
28385.0,-18.717,-27.94,-25.499,35.065
28395.0,-22.717,-29.94,-26.499,36.065
28405.0,-26.717,-29.94,-26.499,37.065
28415.0,-30.717,-30.94,-26.499,36.065
28425.0,-34.717,-31.94,-27.499,36.065
28435.0,-38.717,-32.94,-27.499,36.065
28445.0,-42.717,-33.94,-28.499,37.065
28455.0,-45.717,-35.94,-28.499,36.065
28465.0,-48.717,-36.94,-26.499,37.065
28474.0,-52.717,-36.94,-28.499,36.065
28484.0,-53.717,-37.94,-31.499,37.065
28494.0,-57.717,-37.94,-29.499,36.065
28504.0,-57.717,-36.94,-30.499,38.065
28514.0,-57.717,-37.94,-30.499,36.065
28524.0,-56.717,-36.94,-32.499,38.065
28534.0,-52.717,-36.94,-32.499,39.065
28544.0,-48.717,-35.94,-33.499,41.065
28554.0,-43.717,-33.94,-32.499,44.065
28563.0,-36.717,-31.94,-28.499,44.065
28573.0,-28.717,-29.94,-29.499,44.065
28583.0,-20.717,-26.94,-25.499,45.065
28593.0,-11.717,-25.94,-25.499,45.065
28603.0,-6.7165,-23.94,-22.499,44.065
28613.0,-0.71652,-22.94,-20.499,44.065
28623.0,5.2835,-20.94,-20.499,43.065
28633.0,12.283,-17.94,-16.499,43.065
28643.0,17.283,-14.94,-18.499,43.065
28652.0,25.283,-13.94,-18.499,43.065
28662.0,32.283,-11.94,-13.499,41.065
28672.0,38.283,-10.94,-13.499,41.065
28682.0,41.283,-9.9399,-12.499,42.065
28692.0,44.283,-8.9399,-12.499,42.065
28702.0,50.283,-7.9399,-11.499,41.065
28712.0,51.283,-6.9399,-11.499,41.065
28722.0,54.283,-5.9399,-10.499,39.065
28731.0,55.283,-5.9399,-10.499,39.065
28741.0,58.283,-3.9399,-10.499,37.065
28751.0,58.283,-5.9399,-10.499,37.065
28761.0,59.283,-4.9399,-9.4989,36.065
28771.0,60.283,-4.9399,-9.4989,36.065
28781.0,59.283,-4.9399,-13.499,38.065
28791.0,62.283,-3.9399,-13.499,38.065
28801.0,62.283,-4.9399,-13.499,37.065
28811.0,63.283,-4.9399,-13.499,37.065
28820.0,63.283,-4.9399,-13.499,37.065
28830.0,60.283,-4.9399,-13.499,37.065
28840.0,61.283,-3.9399,-14.499,38.065
28850.0,60.283,-4.9399,-15.499,38.065
28860.0,58.283,-5.9399,-14.499,37.065
28870.0,58.283,-5.9399,-14.499,37.065
28880.0,53.283,-6.9399,-13.499,37.065
28890.0,52.283,-6.9399,-15.499,38.065
28900.0,49.283,-8.9399,-15.499,36.065
28909.0,49.283,-8.9399,-15.499,37.065
28919.0,44.283,-9.9399,-16.499,37.065
28929.0,44.283,-9.9399,-16.499,37.065
28939.0,39.283,-10.94,-15.499,36.065
28949.0,39.283,-10.94,-15.499,36.065
28959.0,34.283,-13.94,-16.499,36.065
28969.0,34.283,-13.94,-19.499,38.065
28979.0,28.283,-16.94,-18.499,37.065
28989.0,28.283,-16.94,-19.499,37.065
28998.0,21.283,-16.94,-19.499,35.065
29008.0,21.283,-16.94,-20.499,36.065
29018.0,14.283,-19.94,-20.499,35.065
29028.0,14.283,-19.94,-20.499,36.065
29038.0,9.2835,-20.94,-22.499,36.065
29048.0,9.2835,-20.94,-23.499,35.065
29058.0,5.2835,-21.94,-21.499,36.065
29068.0,2.2835,-23.94,-22.499,36.065
29077.0,-1.7165,-24.94,-22.499,35.065
29087.0,-5.7165,-25.94,-21.499,34.065
29097.0,-9.7165,-26.94,-23.499,35.065
29107.0,-14.717,-28.94,-24.499,35.065
29117.0,-19.717,-28.94,-22.499,35.065
29127.0,-22.717,-29.94,-23.499,35.065
29137.0,-25.717,-31.94,-23.499,36.065
29147.0,-29.717,-32.94,-24.499,35.065
29157.0,-33.717,-33.94,-24.499,35.065
29166.0,-37.717,-34.94,-24.499,35.065
29176.0,-40.717,-34.94,-26.499,35.065
29186.0,-44.717,-36.94,-27.499,36.065
29196.0,-48.717,-36.94,-26.499,36.065
29206.0,-48.717,-37.94,-29.499,35.065
29216.0,-51.717,-38.94,-28.499,35.065
29226.0,-48.717,-36.94,-26.499,36.065
29236.0,-46.717,-37.94,-28.499,38.065
29246.0,-42.717,-35.94,-29.499,39.065
29255.0,-35.717,-34.94,-30.499,41.065
29265.0,-27.717,-32.94,-29.499,43.065
29275.0,-18.717,-30.94,-27.499,45.065
29285.0,-11.717,-27.94,-25.499,44.065
29295.0,-4.7165,-24.94,-22.499,43.065
29305.0,2.2835,-23.94,-21.499,44.065
29315.0,10.283,-21.94,-17.499,44.065
29325.0,18.283,-19.94,-17.499,44.065
29335.0,25.283,-18.94,-13.499,43.065
29344.0,32.283,-14.94,-13.499,42.065
29354.0,39.283,-12.94,-11.499,43.065
29364.0,47.283,-11.94,-11.499,42.065
29374.0,53.283,-8.9399,-9.4989,41.065
29384.0,60.283,-7.9399,-9.4989,41.065
29394.0,67.283,-6.9399,-7.4989,41.065
29404.0,71.283,-3.9399,-6.4989,41.065
29414.0,74.283,-2.9399,-6.4989,39.065
29423.0,77.283,-1.9399,-4.4989,39.065
29433.0,81.283,-0.93989,-6.4989,38.065
29443.0,82.283,-0.93989,-4.4989,37.065
29453.0,83.283,-0.93989,-4.4989,36.065
29463.0,85.283,-0.93989,-3.4989,36.065
29473.0,85.283,-0.93989,-4.4989,37.065
29483.0,86.283,-0.93989,-5.4989,36.065
29493.0,87.283,0.060111,-5.4989,35.065
29503.0,88.283,0.060111,-6.4989,35.065
29512.0,88.283,-0.93989,-6.4989,37.065
29522.0,89.283,0.060111,-7.4989,37.065
29532.0,88.283,0.060111,-8.4989,37.065
29542.0,87.283,-1.9399,-6.4989,37.065
29552.0,88.283,-1.9399,-7.4989,37.065
29562.0,86.283,-0.93989,-7.4989,37.065
29572.0,84.283,-2.9399,-8.4989,36.065
29582.0,82.283,-2.9399,-8.4989,37.065
29592.0,79.283,-3.9399,-7.4989,36.065
29601.0,78.283,-3.9399,-8.4989,37.065
29611.0,75.283,-5.9399,-7.4989,36.065
29621.0,73.283,-5.9399,-10.499,35.065
29631.0,69.283,-7.9399,-10.499,35.065
29641.0,66.283,-8.9399,-10.499,35.065
29651.0,62.283,-9.9399,-11.499,35.065
29661.0,62.283,-9.9399,-11.499,35.065
29671.0,55.283,-12.94,-13.499,36.065
29681.0,55.283,-12.94,-13.499,36.065
29690.0,49.283,-14.94,-13.499,36.065
29700.0,49.283,-14.94,-13.499,36.065
29710.0,42.283,-16.94,-14.499,36.065
29720.0,42.283,-16.94,-14.499,36.065
29730.0,35.283,-17.94,-16.499,37.065
29740.0,35.283,-17.94,-16.499,37.065
29750.0,26.283,-21.94,-16.499,35.065
29760.0,26.283,-21.94,-16.499,35.065
29769.0,20.283,-22.94,-18.499,36.065
29779.0,20.283,-22.94,-18.499,36.065
29789.0,11.283,-25.94,-20.499,37.065
29799.0,11.283,-25.94,-20.499,37.065
29809.0,7.2835,-26.94,-20.499,36.065
29819.0,3.2835,-27.94,-19.499,37.065
29829.0,1.2835,-29.94,-21.499,37.065
29839.0,-2.7165,-31.94,-21.499,36.065
29849.0,-6.7165,-31.94,-21.499,37.065
29858.0,-8.7165,-31.94,-22.499,37.065
29868.0,-15.717,-31.94,-23.499,37.065
29878.0,-16.717,-33.94,-22.499,37.065
29888.0,-17.717,-33.94,-25.499,37.065
29898.0,-15.717,-32.94,-24.499,36.065
29908.0,-16.717,-32.94,-25.499,37.065
29918.0,-12.717,-30.94,-26.499,39.065
29928.0,-4.7165,-29.94,-26.499,40.065
29938.0,1.2835,-27.94,-25.499,43.065
29947.0,7.2835,-25.94,-25.499,44.065
29957.0,15.283,-24.94,-24.499,44.065
29967.0,21.283,-22.94,-21.499,44.065
29977.0,29.283,-19.94,-19.499,44.065
29987.0,38.283,-19.94,-17.499,45.065
29997.0,42.283,-15.94,-15.499,45.065
