t,carotid_880nm,carotid_660nm,brachial_880nm,brachial_660nm
3.0,-4.1192,6.1238,9.0993,27.06
12.9,-14.119,3.1238,9.0993,27.06
22.8,-22.119,0.12378,8.0993,26.06
32.6,-34.119,-1.8762,8.0993,26.06
42.5,-43.119,-5.8762,6.0993,26.06
52.4,-55.119,-8.8762,6.0993,26.06
62.3,-65.119,-11.876,5.0993,27.06
72.2,-75.119,-13.876,5.0993,26.06
82.1,-85.119,-16.876,4.0993,26.06
92.0,-95.119,-20.876,2.0993,26.06
101.8,-107.12,-22.876,2.0993,25.06
111.7,-119.12,-25.876,-0.90074,25.06
121.6,-131.12,-28.876,-0.90074,24.06
131.5,-140.12,-32.876,-1.9007,23.06
141.4,-140.12,-32.876,-3.9007,22.06
151.3,-165.12,-37.876,-6.9007,23.06
161.2,-165.12,-37.876,-6.9007,22.06
171.0,-188.12,-46.876,-8.9007,22.06
180.9,-188.12,-46.876,-8.9007,22.06
190.8,-204.12,-47.876,-9.9007,21.06
200.7,-204.12,-47.876,-12.901,19.06
210.6,-181.12,-38.876,-14.901,22.06
220.5,-181.12,-38.876,-14.901,19.06
230.4,-128.12,-23.876,-18.901,18.06
240.2,-128.12,-23.876,-21.901,14.06
250.1,-65.119,-4.8762,-24.901,9.0604
260.0,-65.119,-4.8762,-22.901,9.0604
269.9,-36.119,2.1238,-21.901,6.0604
279.8,-12.119,8.1238,-17.901,6.0604
289.7,11.881,14.124,-17.901,6.0604
299.6,31.881,20.124,-13.901,6.0604
309.4,50.881,25.124,-13.901,6.0604
319.3,66.881,31.124,-8.9007,6.0604
329.2,82.881,34.124,-6.9007,6.0604
339.1,95.881,38.124,-5.9007,6.0604
349.0,104.88,40.124,-5.9007,8.0604
358.9,109.88,42.124,-2.9007,7.0604
368.8,109.88,41.124,-0.90074,8.0604
378.6,106.88,41.124,-1.9007,10.06
388.5,100.88,41.124,-0.90074,10.06
398.4,92.881,37.124,1.0993,13.06
408.3,84.881,36.124,0.099262,12.06
418.2,70.881,32.124,1.0993,12.06
428.1,62.881,29.124,-0.90074,13.06
438.0,56.881,28.124,0.099262,14.06
447.8,47.881,26.124,1.0993,15.06
457.7,41.881,24.124,-1.9007,14.06
467.6,33.881,22.124,-2.9007,14.06
477.5,25.881,20.124,-4.9007,14.06
487.4,16.881,18.124,-5.9007,12.06
497.3,4.8808,15.124,-7.9007,12.06
507.2,-3.1192,12.124,-11.901,12.06
517.0,-13.119,10.124,-11.901,11.06
526.9,-25.119,7.1238,-13.901,11.06
536.8,-34.119,5.1238,-13.901,10.06
546.7,-44.119,2.1238,-12.901,10.06
556.6,-53.119,0.12378,-15.901,10.06
566.5,-65.119,-2.8762,-15.901,10.06
576.4,-75.119,-5.8762,-18.901,9.0604
586.2,-88.119,-8.8762,-17.901,8.0604
596.1,-99.119,-12.876,-20.901,8.0604
606.0,-111.12,-14.876,-20.901,9.0604
615.9,-121.12,-16.876,-24.901,8.0604
625.8,-131.12,-19.876,-23.901,7.0604
635.7,-143.12,-23.876,-24.901,7.0604
645.6,-153.12,-25.876,-27.901,7.0604
655.4,-163.12,-27.876,-27.901,6.0604
665.3,-172.12,-29.876,-29.901,6.0604
675.2,-182.12,-32.876,-30.901,6.0604
685.1,-192.12,-34.876,-33.901,4.0604
695.0,-202.12,-37.876,-33.901,6.0604
704.9,-212.12,-40.876,-36.901,4.0604
714.8,-216.12,-40.876,-37.901,4.0604
724.6,-218.12,-40.876,-37.901,5.0604
734.5,-208.12,-34.876,-40.901,4.0604
744.4,-184.12,-28.876,-41.901,2.0604
754.3,-157.12,-20.876,-44.901,1.0604
764.2,-129.12,-12.876,-44.901,1.0604
774.1,-96.119,-3.8762,-49.901,-5.9396
784.0,-64.119,5.1238,-49.901,-5.9396
793.8,-31.119,14.124,-48.901,-9.9396
803.7,-0.11923,23.124,-48.901,-9.9396
813.6,25.881,32.124,-43.901,-11.94
823.5,50.881,37.124,-43.901,-11.94
833.4,70.881,43.124,-40.901,-11.94
843.3,89.881,48.124,-40.901,-11.94
853.2,89.881,48.124,-32.901,-10.94
863.0,119.88,56.124,-32.901,-10.94
872.9,119.88,56.124,-28.901,-8.9396
882.8,138.88,62.124,-28.901,-8.9396
892.7,138.88,62.124,-26.901,-7.9396
902.6,146.88,64.124,-26.901,-7.9396
912.5,146.88,64.124,-25.901,-5.9396
922.4,132.88,59.124,-25.901,-5.9396
932.2,132.88,59.124,-23.901,-2.9396
942.1,109.88,54.124,-23.901,-2.9396
952.0,109.88,54.124,-23.901,-1.9396
961.9,91.881,50.124,-23.901,-1.9396
971.8,91.881,50.124,-21.901,-1.9396
981.7,74.881,45.124,-21.901,-1.9396
991.6,74.881,45.124,-21.901,-0.93956
1001.4,65.881,42.124,-24.901,-0.93956
1011.3,56.881,41.124,-23.901,0.06044
1021.2,48.881,38.124,-26.901,0.06044
1031.1,38.881,36.124,-28.901,0.06044
1041.0,29.881,34.124,-29.901,-1.9396
1050.9,19.881,31.124,-31.901,-0.93956
1060.8,9.8808,28.124,-33.901,-1.9396
1070.6,1.8808,27.124,-32.901,-2.9396
1080.5,-8.1192,23.124,-32.901,-2.9396
1090.4,-14.119,23.124,-35.901,-2.9396
1100.3,-24.119,19.124,-36.901,-1.9396
1110.2,-33.119,17.124,-37.901,-0.93956
1120.1,-41.119,14.124,-36.901,-2.9396
1130.0,-50.119,14.124,-38.901,-2.9396
1139.8,-61.119,10.124,-40.901,-2.9396
1149.7,-70.119,8.1238,-40.901,-2.9396
1159.6,-80.119,4.1238,-41.901,-1.9396
1169.5,-89.119,3.1238,-41.901,-2.9396
1179.4,-100.12,-0.87622,-43.901,-2.9396
1189.3,-109.12,-3.8762,-44.901,-3.9396
1199.2,-120.12,-6.8762,-45.901,-3.9396
1209.0,-131.12,-8.8762,-45.901,-3.9396
1218.9,-142.12,-10.876,-48.901,-2.9396
1228.8,-151.12,-14.876,-50.901,-5.9396
1238.7,-163.12,-18.876,-52.901,-3.9396
1248.6,-168.12,-17.876,-53.901,-5.9396
1258.5,-166.12,-14.876,-53.901,-3.9396
1268.3,-148.12,-9.8762,-54.901,-4.9396
1278.2,-125.12,-2.8762,-57.901,-5.9396
1288.1,-99.119,5.1238,-62.901,-8.9396
1298.0,-70.119,11.124,-63.901,-11.94
1307.9,-40.119,19.124,-66.901,-13.94
1317.8,-6.1192,30.124,-63.901,-14.94
1327.7,26.881,38.124,-60.901,-17.94
1337.6,55.881,47.124,-58.901,-18.94
1347.4,80.881,53.124,-54.901,-18.94
1357.3,101.88,60.124,-51.901,-17.94
1367.2,120.88,63.124,-47.901,-18.94
1377.1,138.88,68.124,-45.901,-16.94
1387.0,153.88,72.124,-41.901,-15.94
1396.9,165.88,76.124,-40.901,-15.94
1406.7,176.88,78.124,-39.901,-13.94
1416.6,185.88,80.124,-35.901,-14.94
1426.5,188.88,82.124,-34.901,-12.94
1436.4,187.88,82.124,-32.901,-11.94
1446.3,183.88,79.124,-31.901,-9.9396
1456.2,171.88,75.124,-30.901,-9.9396
1466.1,161.88,73.124,-29.901,-8.9396
1476.0,151.88,70.124,-26.901,-6.9396
1485.8,139.88,69.124,-27.901,-5.9396
1495.7,128.88,64.124,-26.901,-5.9396
1505.6,118.88,62.124,-27.901,-3.9396
1515.5,108.88,59.124,-28.901,-3.9396
1525.4,97.881,56.124,-28.901,-3.9396
1535.3,87.881,54.124,-27.901,-2.9396
1545.1,81.881,50.124,-28.901,-2.9396
1555.0,69.881,49.124,-31.901,-1.9396
1564.9,58.881,46.124,-31.901,-2.9396
1574.8,49.881,42.124,-32.901,-3.9396
1584.7,49.881,42.124,-33.901,-5.9396
1594.6,25.881,35.124,-35.901,-2.9396
1604.5,25.881,35.124,-36.901,-1.9396
1614.3,5.8808,28.124,-37.901,-1.9396
1624.2,5.8808,28.124,-38.901,-2.9396
1634.1,-15.119,23.124,-38.901,-1.9396
1644.0,-15.119,23.124,-40.901,-2.9396
1653.9,-38.119,15.124,-40.901,-2.9396
1663.8,-38.119,15.124,-38.901,-1.9396
1673.7,-61.119,11.124,-42.901,-1.9396
1683.5,-61.119,11.124,-41.901,-2.9396
1693.4,-82.119,3.1238,-43.901,-0.93956
1703.3,-82.119,3.1238,-44.901,-2.9396
1713.2,-103.12,-1.8762,-43.901,-1.9396
1723.1,-103.12,-1.8762,-45.901,-2.9396
1733.0,-114.12,-5.8762,-47.901,-2.9396
1742.9,-127.12,-7.8762,-49.901,-1.9396
1752.7,-140.12,-11.876,-49.901,-1.9396
1762.6,-149.12,-14.876,-49.901,-2.9396
1772.5,-160.12,-17.876,-49.901,-2.9396
1782.4,-166.12,-18.876,-53.901,-1.9396
1792.3,-165.12,-16.876,-53.901,-1.9396
1802.2,-146.12,-10.876,-55.901,-3.9396
1812.1,-125.12,-2.8762,-55.901,-3.9396
1821.9,-99.119,2.1238,-60.901,-9.9396
1831.8,-72.119,9.1238,-60.901,-9.9396
1841.7,-40.119,18.124,-60.901,-12.94
1851.6,-9.1192,27.124,-60.901,-12.94
1861.5,19.881,35.124,-56.901,-15.94
1871.4,48.881,42.124,-56.901,-15.94
1881.3,73.881,49.124,-48.901,-15.94
1891.1,97.881,54.124,-48.901,-15.94
1901.0,116.88,60.124,-43.901,-12.94
1910.9,134.88,65.124,-43.901,-12.94
1920.8,148.88,69.124,-35.901,-10.94
1930.7,161.88,72.124,-35.901,-10.94
1940.6,169.88,74.124,-30.901,-8.9396
1950.5,177.88,77.124,-30.901,-8.9396
1960.3,180.88,76.124,-28.901,-7.9396
1970.2,177.88,76.124,-25.901,-6.9396
1980.1,172.88,74.124,-23.901,-4.9396
1990.0,163.88,71.124,-22.901,-3.9396
1999.9,154.88,69.124,-21.901,-2.9396
2009.8,145.88,66.124,-20.901,-1.9396
2019.7,135.88,63.124,-19.901,-0.93956
2029.5,125.88,60.124,-19.901,1.0604
2039.4,117.88,58.124,-18.901,2.0604
2049.3,110.88,56.124,-19.901,1.0604
2059.2,104.88,54.124,-20.901,3.0604
2069.1,97.881,53.124,-21.901,3.0604
2079.0,89.881,50.124,-21.901,4.0604
2088.9,83.881,48.124,-21.901,3.0604
2098.7,75.881,46.124,-22.901,4.0604
2108.6,68.881,43.124,-22.901,5.0604
2118.5,60.881,41.124,-23.901,3.0604
2128.4,51.881,38.124,-23.901,4.0604
2138.3,40.881,35.124,-26.901,3.0604
2148.2,32.881,33.124,-22.901,3.0604
2158.1,25.881,30.124,-25.901,3.0604
2167.9,13.881,29.124,-27.901,3.0604
2177.8,5.8808,24.124,-27.901,3.0604
2187.7,-4.1192,22.124,-27.901,5.0604
2197.6,-15.119,19.124,-28.901,4.0604
2207.5,-24.119,16.124,-29.901,4.0604
2217.4,-33.119,12.124,-29.901,5.0604
2227.3,-45.119,11.124,-30.901,5.0604
2237.1,-57.119,7.1238,-32.901,4.0604
2247.0,-64.119,4.1238,-33.901,4.0604
2256.9,-74.119,1.1238,-34.901,5.0604
2266.8,-86.119,-0.87622,-34.901,5.0604
2276.7,-95.119,-4.8762,-34.901,4.0604
2286.6,-105.12,-6.8762,-35.901,5.0604
2296.5,-105.12,-6.8762,-36.901,5.0604
2306.3,-124.12,-11.876,-37.901,5.0604
2316.2,-124.12,-11.876,-38.901,5.0604
2326.1,-109.12,-4.8762,-38.901,5.0604
2336.0,-109.12,-4.8762,-39.901,6.0604
2345.9,-63.119,7.1238,-40.901,4.0604
2355.8,-63.119,7.1238,-45.901,2.0604
2365.7,-11.119,22.124,-47.901,-1.9396
2375.5,-11.119,22.124,-48.901,-2.9396
2385.4,46.881,37.124,-43.901,-4.9396
2395.3,46.881,37.124,-41.901,-4.9396
2405.2,88.881,48.124,-37.901,-4.9396
2415.1,88.881,48.124,-33.901,-5.9396
2425.0,121.88,55.124,-29.901,-6.9396
2434.9,121.88,55.124,-25.901,-4.9396
2444.7,131.88,58.124,-21.901,-2.9396
2454.6,145.88,62.124,-19.901,-0.93956
2464.5,154.88,65.124,-17.901,-0.93956
2474.4,162.88,67.124,-14.901,1.0604
2484.3,169.88,68.124,-11.901,2.0604
2494.2,170.88,68.124,-8.9007,4.0604
2504.1,165.88,67.124,-10.901,4.0604
2513.9,158.88,65.124,-6.9007,6.0604
2523.8,149.88,60.124,-6.9007,7.0604
2533.7,143.88,60.124,-4.9007,8.0604
2543.6,132.88,56.124,-2.9007,10.06
2553.5,123.88,53.124,-2.9007,11.06
2563.4,112.88,50.124,-1.9007,12.06
2573.3,105.88,47.124,-4.9007,12.06
2583.1,95.881,45.124,-4.9007,11.06
2593.0,88.881,44.124,-5.9007,14.06
2602.9,79.881,39.124,-5.9007,13.06
2612.8,70.881,36.124,-5.9007,13.06
2622.7,59.881,33.124,-7.9007,14.06
2632.6,49.881,30.124,-6.9007,14.06
2642.5,38.881,25.124,-8.9007,13.06
2652.3,27.881,23.124,-8.9007,12.06
2662.2,14.881,19.124,-9.9007,14.06
2672.1,4.8808,15.124,-9.9007,14.06
2682.0,-3.1192,12.124,-11.901,14.06
2691.9,-16.119,9.1238,-11.901,13.06
2701.8,-29.119,6.1238,-12.901,14.06
2711.7,-39.119,1.1238,-10.901,15.06
2721.5,-50.119,-2.8762,-13.901,14.06
2731.4,-61.119,-5.8762,-13.901,15.06
2741.3,-73.119,-9.8762,-14.901,15.06
2751.2,-84.119,-11.876,-13.901,14.06
2761.1,-94.119,-15.876,-13.901,14.06
2771.0,-106.12,-18.876,-16.901,15.06
2780.9,-116.12,-22.876,-16.901,15.06
2790.7,-126.12,-25.876,-16.901,15.06
2800.6,-140.12,-28.876,-18.901,16.06
2810.5,-149.12,-29.876,-18.901,15.06
2820.4,-159.12,-34.876,-18.901,15.06
2830.3,-170.12,-38.876,-20.901,15.06
2840.2,-183.12,-39.876,-20.901,15.06
2850.1,-184.12,-40.876,-25.901,13.06
2859.9,-181.12,-35.876,-25.901,13.06
2869.8,-164.12,-29.876,-25.901,15.06
2879.7,-142.12,-23.876,-25.901,15.06
2889.6,-114.12,-17.876,-31.901,7.0604
2899.5,-85.119,-9.8762,-31.901,7.0604
2909.4,-56.119,-0.87622,-32.901,4.0604
2919.3,-26.119,7.1238,-32.901,4.0604
2929.1,-1.1192,13.124,-28.901,1.0604
2939.0,18.881,18.124,-28.901,1.0604
2948.9,38.881,25.124,-22.901,0.06044
2958.8,53.881,28.124,-22.901,0.06044
2968.7,70.881,33.124,-16.901,1.0604
2978.6,84.881,37.124,-16.901,1.0604
2988.5,94.881,40.124,-10.901,3.0604
2998.3,103.88,42.124,-10.901,3.0604
3008.2,111.88,44.124,-9.9007,4.0604
3018.1,112.88,44.124,-7.9007,4.0604
3028.0,112.88,44.124,-4.9007,6.0604
3037.9,98.881,41.124,-2.9007,7.0604
3047.8,98.881,41.124,-0.90074,8.0604
3057.7,78.881,37.124,-2.9007,9.0604
3067.5,78.881,37.124,-1.9007,10.06
3077.4,58.881,32.124,-0.90074,11.06
3087.3,58.881,32.124,-1.9007,12.06
3097.2,38.881,26.124,-0.90074,14.06
3107.1,38.881,26.124,0.099262,14.06
3117.0,20.881,21.124,-0.90074,13.06
3126.9,20.881,21.124,-2.9007,12.06
3136.7,0.88077,16.124,-3.9007,13.06
3146.6,0.88077,16.124,-5.9007,11.06
3156.5,-18.119,10.124,-6.9007,11.06
3166.4,-18.119,10.124,-9.9007,10.06
3176.3,-29.119,6.1238,-10.901,10.06
3186.2,-39.119,3.1238,-9.9007,10.06
3196.1,-48.119,1.1238,-10.901,10.06
3205.9,-57.119,-2.8762,-11.901,10.06
3215.8,-66.119,-4.8762,-12.901,10.06
3225.7,-76.119,-6.8762,-13.901,9.0604
3235.6,-84.119,-9.8762,-16.901,9.0604
3245.5,-94.119,-12.876,-13.901,8.0604
3255.4,-104.12,-14.876,-15.901,9.0604
3265.3,-112.12,-18.876,-18.901,9.0604
3275.1,-121.12,-19.876,-17.901,9.0604
3285.0,-130.12,-22.876,-18.901,9.0604
3294.9,-140.12,-26.876,-20.901,9.0604
3304.8,-150.12,-27.876,-19.901,8.0604
3314.7,-160.12,-31.876,-21.901,7.0604
3324.6,-171.12,-34.876,-24.901,7.0604
3334.5,-182.12,-37.876,-26.901,6.0604
3344.3,-190.12,-40.876,-26.901,6.0604
3354.2,-201.12,-43.876,-29.901,6.0604
3364.1,-210.12,-46.876,-29.901,6.0604
3374.0,-221.12,-49.876,-30.901,6.0604
3383.9,-225.12,-49.876,-31.901,6.0604
3393.8,-219.12,-44.876,-32.901,6.0604
3403.7,-202.12,-38.876,-34.901,6.0604
3413.5,-180.12,-33.876,-38.901,4.0604
3423.4,-152.12,-25.876,-40.901,0.06044
3433.3,-121.12,-17.876,-43.901,-2.9396
3443.2,-90.119,-8.8762,-42.901,-4.9396
3453.1,-58.119,-0.87622,-41.901,-6.9396
3463.0,-31.119,6.1238,-40.901,-7.9396
3472.9,-7.1192,14.124,-37.901,-10.94
3482.7,11.881,17.124,-34.901,-7.9396
3492.6,30.881,23.124,-31.901,-8.9396
3502.5,49.881,28.124,-28.901,-7.9396
3512.4,64.881,33.124,-26.901,-7.9396
3522.3,75.881,36.124,-23.901,-5.9396
3532.2,87.881,38.124,-21.901,-4.9396
3542.1,96.881,41.124,-18.901,-3.9396
3551.9,98.881,41.124,-17.901,-4.9396
3561.8,95.881,41.124,-15.901,-2.9396
3571.7,91.881,39.124,-14.901,-1.9396
3581.6,81.881,36.124,-13.901,-1.9396
3591.5,73.881,35.124,-13.901,-0.93956
3601.4,64.881,34.124,-12.901,1.0604
3611.3,54.881,30.124,-12.901,1.0604
3621.1,48.881,28.124,-13.901,2.0604
3631.0,40.881,26.124,-14.901,1.0604
3640.9,29.881,23.124,-14.901,1.0604
3650.8,21.881,21.124,-16.901,2.0604
3660.7,13.881,19.124,-15.901,3.0604
3670.6,5.8808,17.124,-19.901,2.0604
3680.5,-2.1192,16.124,-17.901,2.0604
3690.3,-12.119,12.124,-21.901,1.0604
3700.2,-20.119,10.124,-21.901,2.0604
3710.1,-31.119,8.1238,-22.901,1.0604
3720.0,-39.119,5.1238,-22.901,1.0604
3729.9,-49.119,3.1238,-25.901,-0.93956
3739.8,-59.119,0.12378,-24.901,0.06044
3749.7,-67.119,-1.8762,-27.901,-0.93956
3759.5,-67.119,-1.8762,-29.901,-0.93956
3769.4,-88.119,-7.8762,-29.901,-0.93956
3779.3,-88.119,-7.8762,-30.901,-0.93956
3789.2,-107.12,-14.876,-30.901,0.06044
3799.1,-107.12,-14.876,-33.901,-0.93956
3809.0,-130.12,-19.876,-33.901,-0.93956
3818.8,-130.12,-19.876,-35.901,-1.9396
3828.7,-151.12,-24.876,-35.901,-1.9396
3838.6,-151.12,-24.876,-38.901,-0.93956
3848.5,-173.12,-29.876,-38.901,-0.93956
3858.4,-173.12,-29.876,-42.901,-2.9396
3868.3,-194.12,-35.876,-42.901,-2.9396
3878.2,-194.12,-35.876,-44.901,-1.9396
3888.1,-203.12,-38.876,-44.901,-1.9396
3897.9,-211.12,-40.876,-46.901,-3.9396
3907.8,-218.12,-43.876,-46.901,-3.9396
3917.7,-221.12,-42.876,-50.901,-2.9396
3927.6,-208.12,-35.876,-50.901,-2.9396
3937.5,-184.12,-28.876,-54.901,-5.9396
3947.4,-158.12,-20.876,-54.901,-5.9396
3957.2,-127.12,-12.876,-62.901,-12.94
3967.1,-95.119,-4.8762,-62.901,-12.94
3977.0,-63.119,5.1238,-59.901,-17.94
3986.9,-28.119,15.124,-59.901,-17.94
3996.8,3.8808,23.124,-55.901,-18.94
4006.7,32.881,31.124,-55.901,-18.94
4016.6,59.881,39.124,-51.901,-19.94
4026.5,84.881,46.124,-47.901,-17.94
4036.3,106.88,52.124,-45.901,-17.94
4046.2,126.88,56.124,-41.901,-17.94
4056.1,143.88,63.124,-39.901,-16.94
4066.0,156.88,64.124,-37.901,-16.94
4075.9,167.88,69.124,-34.901,-14.94
4085.8,175.88,70.124,-32.901,-14.94
4095.6,176.88,72.124,-33.901,-13.94
4105.5,177.88,71.124,-30.901,-11.94
4115.4,169.88,68.124,-29.901,-11.94
4125.3,160.88,65.124,-28.901,-10.94
4135.2,152.88,64.124,-26.901,-9.9396
4145.1,143.88,62.124,-27.901,-8.9396
4155.0,133.88,60.124,-26.901,-8.9396
4164.8,121.88,57.124,-26.901,-6.9396
4174.7,112.88,55.124,-26.901,-6.9396
4184.6,104.88,52.124,-27.901,-5.9396
4194.5,94.881,49.124,-29.901,-4.9396
4204.4,85.881,45.124,-29.901,-4.9396
4214.3,76.881,41.124,-31.901,-5.9396
4224.2,63.881,41.124,-31.901,-4.9396
4234.0,52.881,37.124,-32.901,-6.9396
4243.9,42.881,34.124,-34.901,-5.9396
4253.8,29.881,29.124,-34.901,-5.9396
4263.7,16.881,26.124,-35.901,-6.9396
4273.6,7.8808,24.124,-36.901,-7.9396
4283.5,-5.1192,20.124,-37.901,-7.9396
4293.4,-16.119,17.124,-38.901,-6.9396
4303.2,-28.119,13.124,-40.901,-7.9396
4313.1,-40.119,9.1238,-41.901,-7.9396
4323.0,-51.119,6.1238,-41.901,-6.9396
4332.9,-63.119,3.1238,-43.901,-7.9396
4342.8,-74.119,-0.87622,-44.901,-6.9396
4352.7,-86.119,-3.8762,-44.901,-5.9396
4362.6,-96.119,-7.8762,-45.901,-7.9396
4372.4,-109.12,-10.876,-46.901,-7.9396
4382.3,-119.12,-13.876,-46.901,-7.9396
4392.2,-130.12,-16.876,-48.901,-8.9396
4402.1,-143.12,-19.876,-51.901,-8.9396
4412.0,-155.12,-22.876,-51.901,-8.9396
4421.9,-165.12,-25.876,-51.901,-9.9396
4431.8,-173.12,-27.876,-53.901,-8.9396
4441.6,-172.12,-24.876,-55.901,-9.9396
4451.5,-157.12,-19.876,-56.901,-8.9396
4461.4,-133.12,-13.876,-57.901,-8.9396
4471.3,-133.12,-13.876,-59.901,-9.9396
4481.2,-77.119,2.1238,-63.901,-14.94
4491.1,-77.119,2.1238,-67.901,-17.94
4501.0,-9.1192,18.124,-63.901,-18.94
4510.8,-9.1192,18.124,-61.901,-20.94
4520.7,56.881,36.124,-60.901,-22.94
4530.6,56.881,36.124,-54.901,-21.94
4540.5,108.88,50.124,-54.901,-21.94
4550.4,108.88,50.124,-51.901,-21.94
4560.3,150.88,61.124,-45.901,-18.94
4570.2,150.88,61.124,-43.901,-17.94
4580.0,180.88,69.124,-37.901,-16.94
4589.9,180.88,69.124,-36.901,-15.94
4599.8,205.88,76.124,-34.901,-13.94
4609.7,205.88,76.124,-33.901,-13.94
4619.6,209.88,76.124,-29.901,-12.94
4629.5,211.88,76.124,-27.901,-11.94
4639.4,209.88,76.124,-26.901,-9.9396
4649.2,203.88,73.124,-25.901,-9.9396
4659.1,192.88,70.124,-23.901,-7.9396
4669.0,181.88,67.124,-21.901,-8.9396
4678.9,171.88,64.124,-20.901,-5.9396
4688.8,160.88,62.124,-18.901,-3.9396
4698.7,148.88,57.124,-20.901,-3.9396
4708.6,138.88,55.124,-20.901,-3.9396
4718.4,127.88,52.124,-20.901,0.06044
4728.3,117.88,48.124,-19.901,-0.93956
4738.2,108.88,46.124,-20.901,-0.93956
4748.1,96.881,42.124,-19.901,0.06044
4758.0,87.881,39.124,-22.901,0.06044
4767.9,76.881,36.124,-24.901,-0.93956
4777.8,66.881,34.124,-25.901,-1.9396
4787.6,52.881,30.124,-25.901,-0.93956
4797.5,41.881,26.124,-25.901,-0.93956
4807.4,32.881,24.124,-27.901,-0.93956
4817.3,19.881,19.124,-28.901,-0.93956
4827.2,7.8808,16.124,-28.901,-1.9396
4837.1,-5.1192,13.124,-29.901,-1.9396
4847.0,-16.119,10.124,-30.901,-1.9396
4856.8,-30.119,6.1238,-30.901,-1.9396
4866.7,-43.119,2.1238,-33.901,-0.93956
4876.6,-56.119,-1.8762,-33.901,-0.93956
4886.5,-69.119,-5.8762,-33.901,-0.93956
4896.4,-78.119,-8.8762,-33.901,-0.93956
4906.3,-92.119,-12.876,-36.901,-1.9396
4916.2,-101.12,-14.876,-36.901,-1.9396
4926.0,-112.12,-18.876,-35.901,-1.9396
4935.9,-125.12,-21.876,-35.901,-1.9396
4945.8,-134.12,-24.876,-37.901,-2.9396
4955.7,-148.12,-28.876,-37.901,-2.9396
4965.6,-155.12,-30.876,-39.901,-0.93956
4975.5,-153.12,-28.876,-39.901,-0.93956
4985.4,-138.12,-24.876,-41.901,-1.9396
4995.2,-116.12,-16.876,-41.901,-1.9396
5005.1,-88.119,-9.8762,-47.901,-6.9396
5015.0,-58.119,-3.8762,-47.901,-6.9396
5024.9,-25.119,6.1238,-50.901,-12.94
5034.8,9.8808,15.124,-50.901,-12.94
5044.7,43.881,26.124,-47.901,-13.94
5054.6,73.881,34.124,-43.901,-12.94
5064.4,104.88,40.124,-40.901,-13.94
5074.3,126.88,46.124,-36.901,-13.94
5084.2,147.88,51.124,-31.901,-13.94
5094.1,168.88,57.124,-26.901,-12.94
5104.0,189.88,65.124,-23.901,-11.94
5113.9,204.88,68.124,-21.901,-10.94
5123.8,216.88,71.124,-16.901,-7.9396
5133.6,226.88,74.124,-13.901,-7.9396
5143.5,231.88,76.124,-13.901,-5.9396
5153.4,232.88,77.124,-10.901,-4.9396
5163.3,228.88,74.124,-7.9007,-2.9396
5173.2,220.88,71.124,-4.9007,-1.9396
5183.1,211.88,69.124,-3.9007,-0.93956
5193.0,198.88,65.124,-2.9007,1.0604
5202.8,198.88,65.124,-1.9007,1.0604
5212.7,177.88,59.124,0.099262,5.0604
5222.6,177.88,59.124,0.099262,4.0604
5232.5,157.88,53.124,1.0993,6.0604
5242.4,157.88,53.124,-0.90074,6.0604
5252.3,136.88,47.124,1.0993,8.0604
5262.2,136.88,47.124,-0.90074,7.0604
5272.0,116.88,43.124,0.099262,8.0604
5281.9,116.88,43.124,-0.90074,8.0604
5291.8,95.881,37.124,-2.9007,9.0604
5301.7,95.881,37.124,-0.90074,10.06
5311.6,72.881,29.124,-1.9007,11.06
5321.5,72.881,29.124,-1.9007,10.06
5331.4,49.881,21.124,-2.9007,11.06
5341.2,49.881,21.124,-4.9007,10.06
5351.1,34.881,16.124,-3.9007,10.06
5361.0,23.881,13.124,-3.9007,12.06
5370.9,12.881,10.124,-5.9007,11.06
5380.8,0.88077,6.1238,-2.9007,12.06
5390.7,-11.119,4.1238,-4.9007,11.06
5400.6,-22.119,0.12378,-5.9007,12.06
5410.4,-36.119,-3.8762,-4.9007,12.06
5420.3,-48.119,-5.8762,-4.9007,14.06
5430.2,-59.119,-9.8762,-5.9007,13.06
5440.1,-69.119,-13.876,-6.9007,12.06
5450.0,-83.119,-16.876,-6.9007,13.06
5459.9,-96.119,-21.876,-9.9007,13.06
5469.8,-107.12,-24.876,-9.9007,13.06
5479.6,-120.12,-26.876,-10.901,14.06
5489.5,-133.12,-32.876,-11.901,13.06
5499.4,-142.12,-34.876,-11.901,13.06
5509.3,-145.12,-33.876,-11.901,13.06
5519.2,-134.12,-29.876,-11.901,14.06
5529.1,-117.12,-25.876,-13.901,14.06
5539.0,-91.119,-19.876,-17.901,10.06
5548.8,-63.119,-11.876,-20.901,6.0604
5558.7,-29.119,-3.8762,-19.901,4.0604
5568.6,4.8808,5.1238,-17.901,3.0604
5578.5,35.881,14.124,-15.901,3.0604
5588.4,66.881,22.124,-10.901,2.0604
5598.3,93.881,27.124,-6.9007,3.0604
5608.2,117.88,34.124,-1.9007,3.0604
5618.0,140.88,40.124,1.0993,5.0604
5627.9,161.88,45.124,4.0993,5.0604
5637.8,178.88,49.124,7.0993,7.0604
5647.7,194.88,54.124,12.099,8.0604
5657.6,207.88,56.124,15.099,9.0604
5667.5,216.88,58.124,18.099,11.06
5677.4,224.88,61.124,20.099,12.06
5687.2,223.88,59.124,22.099,13.06
5697.1,215.88,56.124,23.099,14.06
5707.0,205.88,54.124,25.099,16.06
5716.9,193.88,51.124,28.099,16.06
5726.8,181.88,47.124,29.099,20.06
5736.7,167.88,44.124,30.099,21.06
5746.6,155.88,40.124,31.099,22.06
5756.4,138.88,35.124,32.099,24.06
5766.3,125.88,30.124,30.099,24.06
5776.2,109.88,27.124,33.099,24.06
5786.1,96.881,23.124,30.099,25.06
5796.0,82.881,19.124,30.099,24.06
5805.9,67.881,14.124,29.099,25.06
5815.8,54.881,10.124,27.099,24.06
5825.6,38.881,6.1238,26.099,24.06
5835.5,25.881,2.1238,25.099,23.06
5845.4,9.8808,-2.8762,25.099,23.06
5855.3,-5.1192,-6.8762,26.099,24.06
5865.2,-17.119,-8.8762,26.099,24.06
5875.1,-32.119,-13.876,25.099,24.06
5885.0,-46.119,-16.876,25.099,24.06
5894.8,-59.119,-20.876,23.099,25.06
5904.7,-73.119,-25.876,23.099,25.06
5914.6,-84.119,-28.876,23.099,24.06
5924.5,-98.119,-32.876,23.099,24.06
5934.4,-98.119,-32.876,19.099,25.06
5944.3,-121.12,-38.876,19.099,25.06
5954.2,-121.12,-38.876,19.099,24.06
5964.0,-143.12,-43.876,19.099,24.06
5973.9,-143.12,-43.876,15.099,25.06
5983.8,-165.12,-50.876,15.099,25.06
5993.7,-165.12,-50.876,15.099,24.06
6003.6,-189.12,-56.876,15.099,24.06
6013.5,-189.12,-56.876,13.099,24.06
6023.4,-214.12,-64.876,13.099,24.06
6033.2,-214.12,-64.876,8.0993,23.06
6043.1,-222.12,-64.876,8.0993,23.06
6053.0,-222.12,-64.876,9.0993,23.06
6062.9,-186.12,-51.876,8.0993,24.06
6072.8,-186.12,-51.876,6.0993,23.06
6082.7,-159.12,-44.876,3.0993,18.06
6092.6,-130.12,-37.876,-1.9007,15.06
6102.4,-96.119,-26.876,-0.90074,13.06
6112.3,-64.119,-20.876,0.099262,11.06
6122.2,-37.119,-11.876,5.0993,11.06
6132.1,-12.119,-6.8762,7.0993,10.06
6142.0,10.881,-0.87622,9.0993,10.06
6151.9,31.881,6.1238,13.099,10.06
6161.8,51.881,12.124,15.099,10.06
6171.6,73.881,16.124,19.099,12.06
6181.5,87.881,21.124,22.099,12.06
6191.4,100.88,26.124,24.099,13.06
6201.3,112.88,28.124,26.099,13.06
6211.2,118.88,30.124,30.099,15.06
6221.1,120.88,31.124,29.099,17.06
6231.0,113.88,29.124,31.099,17.06
6240.8,105.88,26.124,32.099,16.06
6250.7,96.881,23.124,34.099,19.06
6260.6,86.881,21.124,35.099,20.06
6270.5,77.881,18.124,35.099,21.06
6280.4,65.881,14.124,37.099,23.06
6290.3,57.881,11.124,36.099,23.06
6300.2,46.881,8.1238,35.099,24.06
6310.0,40.881,6.1238,35.099,24.06
6319.9,30.881,3.1238,33.099,24.06
6329.8,23.881,1.1238,33.099,23.06
6339.7,13.881,0.12378,32.099,24.06
6349.6,3.8808,-2.8762,30.099,24.06
6359.5,-7.1192,-7.8762,29.099,24.06
6369.4,-15.119,-8.8762,30.099,23.06
6379.2,-26.119,-12.876,28.099,24.06
6389.1,-36.119,-14.876,26.099,23.06
6399.0,-47.119,-16.876,25.099,24.06
6408.9,-56.119,-20.876,24.099,22.06
6418.8,-69.119,-24.876,25.099,23.06
6428.7,-80.119,-26.876,23.099,24.06
6438.6,-89.119,-30.876,21.099,22.06
6448.4,-102.12,-32.876,21.099,22.06
6458.3,-110.12,-34.876,20.099,21.06
6468.2,-120.12,-38.876,18.099,22.06
6478.1,-131.12,-40.876,17.099,19.06
6488.0,-139.12,-42.876,17.099,21.06
6497.9,-147.12,-45.876,14.099,19.06
6507.7,-157.12,-48.876,14.099,19.06
6517.6,-168.12,-50.876,12.099,20.06
6527.5,-177.12,-52.876,11.099,20.06
6537.4,-187.12,-55.876,10.099,19.06
6547.3,-200.12,-59.876,9.0993,17.06
6557.2,-209.12,-61.876,9.0993,18.06
6567.1,-215.12,-62.876,7.0993,19.06
6577.0,-219.12,-62.876,4.0993,18.06
6586.8,-210.12,-59.876,2.0993,17.06
6596.7,-190.12,-51.876,0.099262,17.06
6606.6,-164.12,-45.876,-1.9007,14.06
6616.5,-132.12,-36.876,-5.9007,11.06
6626.4,-99.119,-26.876,-8.9007,8.0604
6636.3,-64.119,-16.876,-9.9007,5.0604
6646.1,-29.119,-8.8762,-6.9007,4.0604
6656.0,0.88077,-0.87622,-4.9007,3.0604
6665.9,0.88077,-0.87622,-0.90074,0.06044
6675.8,53.881,15.124,1.0993,2.0604
6685.7,53.881,15.124,3.0993,3.0604
6695.6,98.881,27.124,7.0993,3.0604
6705.5,98.881,27.124,11.099,3.0604
6715.3,136.88,38.124,13.099,4.0604
6725.2,136.88,38.124,16.099,6.0604
6735.1,163.88,47.124,17.099,7.0604
6745.0,163.88,47.124,20.099,8.0604
6754.9,175.88,51.124,22.099,9.0604
6764.8,175.88,51.124,24.099,10.06
6774.7,165.88,47.124,25.099,11.06
6784.5,165.88,47.124,26.099,11.06
6794.4,147.88,44.124,27.099,12.06
6804.3,147.88,44.124,28.099,14.06
6814.2,138.88,42.124,27.099,14.06
6824.1,128.88,38.124,26.099,14.06
6834.0,120.88,37.124,26.099,14.06
6843.9,112.88,35.124,23.099,15.06
6853.7,107.88,33.124,23.099,15.06
6863.6,98.881,31.124,24.099,15.06
6873.5,92.881,28.124,24.099,15.06
6883.4,82.881,27.124,20.099,15.06
6893.3,74.881,24.124,20.099,15.06
6903.2,65.881,22.124,18.099,13.06
6913.1,56.881,20.124,18.099,13.06
6922.9,46.881,18.124,15.099,14.06
6932.8,38.881,15.124,15.099,14.06
6942.7,27.881,12.124,13.099,13.06
6952.6,20.881,10.124,13.099,13.06
6962.5,9.8808,7.1238,9.0993,11.06
6972.4,0.88077,5.1238,9.0993,11.06
6982.3,-9.1192,1.1238,7.0993,11.06
6992.1,-21.119,-0.87622,7.0993,11.06
7002.0,-31.119,-2.8762,3.0993,10.06
7011.9,-39.119,-5.8762,3.0993,10.06
7021.8,-52.119,-7.8762,2.0993,11.06
7031.7,-60.119,-9.8762,2.0993,11.06
7041.6,-73.119,-13.876,0.099262,9.0604
7051.5,-83.119,-15.876,-0.90074,9.0604
7061.3,-92.119,-19.876,-1.9007,8.0604
7071.2,-103.12,-22.876,-5.9007,8.0604
7081.1,-117.12,-25.876,-3.9007,7.0604
7091.0,-130.12,-29.876,-5.9007,6.0604
7100.9,-141.12,-32.876,-8.9007,8.0604
7110.8,-146.12,-33.876,-8.9007,6.0604
7120.7,-141.12,-30.876,-10.901,7.0604
7130.5,-123.12,-25.876,-12.901,7.0604
7140.4,-100.12,-18.876,-13.901,7.0604
7150.3,-72.119,-10.876,-17.901,4.0604
7160.2,-42.119,-3.8762,-22.901,-0.93956
7170.1,-9.1192,4.1238,-22.901,-2.9396
7180.0,28.881,16.124,-21.901,-4.9396
7189.9,62.881,26.124,-19.901,-5.9396
7199.7,92.881,34.124,-15.901,-5.9396
7209.6,117.88,41.124,-10.901,-5.9396
7219.5,138.88,48.124,-9.9007,-6.9396
7229.4,160.88,53.124,-5.9007,-6.9396
7239.3,178.88,59.124,-1.9007,-3.9396
7249.2,198.88,62.124,0.099262,-3.9396
7259.1,212.88,67.124,4.0993,-2.9396
7268.9,224.88,71.124,5.0993,-2.9396
7278.8,232.88,73.124,9.0993,-0.93956
7288.7,238.88,74.124,11.099,1.0604
7298.6,240.88,76.124,12.099,1.0604
7308.5,234.88,75.124,13.099,3.0604
7318.4,225.88,70.124,14.099,3.0604
7328.3,212.88,69.124,16.099,4.0604
7338.1,202.88,63.124,18.099,6.0604
7348.0,190.88,61.124,18.099,7.0604
7357.9,178.88,58.124,20.099,9.0604
7367.8,167.88,54.124,20.099,10.06
7377.7,155.88,51.124,20.099,11.06
7387.6,143.88,47.124,19.099,11.06
7397.5,143.88,47.124,18.099,11.06
7407.3,121.88,42.124,17.099,12.06
7417.2,121.88,42.124,17.099,12.06
7427.1,98.881,36.124,14.099,12.06
7437.0,98.881,36.124,13.099,11.06
7446.9,75.881,31.124,11.099,11.06
7456.8,75.881,31.124,9.0993,11.06
7466.7,51.881,23.124,10.099,12.06
7476.5,51.881,23.124,9.0993,12.06
7486.4,28.881,16.124,7.0993,11.06
7496.3,28.881,16.124,6.0993,10.06
7506.2,3.8808,9.1238,4.0993,10.06
7516.1,3.8808,9.1238,3.0993,10.06
7526.0,-19.119,3.1238,2.0993,8.0604
7535.9,-19.119,3.1238,3.0993,9.0604
7545.7,-32.119,-0.87622,1.0993,8.0604
7555.6,-44.119,-2.8762,0.099262,8.0604
7565.5,-55.119,-6.8762,-1.9007,8.0604
7575.4,-67.119,-11.876,-2.9007,9.0604
7585.3,-79.119,-13.876,-1.9007,7.0604
7595.2,-92.119,-17.876,-4.9007,9.0604
7605.1,-104.12,-20.876,-5.9007,9.0604
7614.9,-116.12,-25.876,-6.9007,8.0604
7624.8,-127.12,-26.876,-6.9007,8.0604
7634.7,-140.12,-30.876,-8.9007,8.0604
7644.6,-152.12,-33.876,-12.901,7.0604
7654.5,-156.12,-35.876,-11.901,8.0604
7664.4,-147.12,-31.876,-12.901,8.0604
7674.3,-127.12,-24.876,-13.901,6.0604
7684.1,-102.12,-16.876,-19.901,3.0604
7694.0,-75.119,-10.876,-22.901,-0.93956
7703.9,-42.119,-2.8762,-24.901,-2.9396
7713.8,-7.1192,7.1238,-21.901,-5.9396
7723.7,28.881,17.124,-19.901,-5.9396
7733.6,57.881,25.124,-17.901,-7.9396
7743.5,88.881,32.124,-11.901,-5.9396
7753.3,110.88,40.124,-9.9007,-5.9396
7763.2,132.88,46.124,-3.9007,-4.9396
7773.1,154.88,52.124,-0.90074,-4.9396
7783.0,173.88,56.124,3.0993,-1.9396
7792.9,191.88,63.124,5.0993,-0.93956
7802.8,204.88,66.124,9.0993,-0.93956
7812.7,216.88,68.124,11.099,2.0604
7822.5,224.88,71.124,14.099,4.0604
7832.4,230.88,72.124,16.099,3.0604
7842.3,232.88,72.124,19.099,5.0604
7852.2,225.88,70.124,20.099,6.0604
7862.1,217.88,67.124,22.099,7.0604
7872.0,204.88,64.124,22.099,9.0604
7881.9,195.88,62.124,25.099,10.06
7891.7,181.88,57.124,25.099,12.06
7901.6,168.88,54.124,25.099,12.06
7911.5,159.88,52.124,27.099,15.06
7921.4,147.88,48.124,27.099,15.06
7931.3,137.88,45.124,26.099,16.06
7941.2,129.88,44.124,26.099,16.06
7951.1,120.88,42.124,23.099,15.06
7960.9,108.88,38.124,23.099,15.06
7970.8,101.88,37.124,22.099,16.06
7980.7,91.881,34.124,22.099,16.06
7990.6,80.881,31.124,18.099,15.06
8000.5,68.881,26.124,18.099,15.06
8010.4,57.881,23.124,17.099,14.06
8020.3,45.881,19.124,17.099,14.06
8030.1,31.881,16.124,15.099,14.06
8040.0,18.881,12.124,15.099,14.06
8049.9,8.8808,10.124,14.099,15.06
8059.8,-2.1192,6.1238,14.099,15.06
8069.7,-15.119,3.1238,12.099,15.06
8079.6,-25.119,-0.87622,12.099,15.06
8089.5,-37.119,-1.8762,10.099,14.06
8099.3,-48.119,-5.8762,10.099,14.06
8109.2,-60.119,-8.8762,8.0993,16.06
8119.1,-70.119,-11.876,9.0993,14.06
8129.0,-70.119,-11.876,7.0993,13.06
8138.9,-93.119,-19.876,7.0993,14.06
8148.8,-93.119,-19.876,4.0993,13.06
8158.7,-116.12,-24.876,4.0993,15.06
8168.5,-116.12,-24.876,4.0993,14.06
8178.4,-137.12,-29.876,2.0993,13.06
8188.3,-137.12,-29.876,3.0993,14.06
8198.2,-138.12,-28.876,0.099262,14.06
8208.1,-138.12,-28.876,-0.90074,14.06
8218.0,-100.12,-17.876,-2.9007,14.06
8227.9,-100.12,-17.876,-2.9007,13.06
8237.7,-45.119,-3.8762,-7.9007,9.0604
8247.6,-45.119,-3.8762,-9.9007,5.0604
8257.5,21.881,15.124,-8.9007,2.0604
8267.4,21.881,15.124,-7.9007,1.0604
8277.3,52.881,23.124,-3.9007,2.0604
8287.2,78.881,30.124,1.0993,2.0604
8297.1,101.88,36.124,3.0993,2.0604
8306.9,122.88,41.124,7.0993,1.0604
8316.8,143.88,48.124,12.099,3.0604
8326.7,162.88,52.124,12.099,3.0604
8336.6,178.88,57.124,18.099,5.0604
8346.5,189.88,60.124,20.099,5.0604
8356.4,200.88,64.124,24.099,7.0604
8366.3,208.88,66.124,25.099,7.0604
8376.1,211.88,67.124,26.099,9.0604
8386.0,211.88,67.124,28.099,11.06
8395.9,205.88,65.124,29.099,12.06
8405.8,194.88,64.124,30.099,13.06
8415.7,188.88,61.124,33.099,15.06
8425.6,177.88,57.124,32.099,16.06
8435.5,165.88,55.124,35.099,17.06
8445.3,154.88,50.124,35.099,19.06
8455.2,145.88,49.124,35.099,20.06
8465.1,136.88,46.124,35.099,21.06
8475.0,127.88,44.124,35.099,21.06
8484.9,115.88,40.124,34.099,21.06
8494.8,103.88,37.124,33.099,21.06
8504.7,91.881,34.124,32.099,21.06
8514.5,79.881,30.124,31.099,20.06
8524.4,65.881,26.124,32.099,22.06
8534.3,52.881,22.124,30.099,20.06
8544.2,37.881,18.124,30.099,21.06
8554.1,25.881,14.124,28.099,21.06
8564.0,11.881,11.124,28.099,23.06
8573.9,0.88077,7.1238,29.099,22.06
8583.7,-11.119,2.1238,27.099,23.06
8593.6,-24.119,-0.87622,28.099,23.06
8603.5,-36.119,-2.8762,27.099,22.06
8613.4,-47.119,-6.8762,27.099,23.06
8623.3,-59.119,-10.876,24.099,24.06
8633.2,-69.119,-12.876,25.099,23.06
8643.1,-80.119,-16.876,24.099,23.06
8652.9,-91.119,-19.876,22.099,23.06
8662.8,-103.12,-21.876,23.099,23.06
8672.7,-115.12,-25.876,20.099,23.06
8682.6,-125.12,-28.876,23.099,24.06
8692.5,-136.12,-33.876,20.099,24.06
8702.4,-148.12,-36.876,19.099,23.06
8712.3,-159.12,-40.876,16.099,23.06
8722.1,-171.12,-43.876,16.099,22.06
8732.0,-183.12,-46.876,16.099,23.06
8741.9,-191.12,-48.876,16.099,24.06
8751.8,-190.12,-48.876,17.099,23.06
8761.7,-177.12,-42.876,13.099,23.06
8771.6,-156.12,-36.876,13.099,23.06
8781.5,-131.12,-30.876,9.0993,19.06
8791.3,-102.12,-24.876,5.0993,15.06
8801.2,-73.119,-14.876,6.0993,14.06
8811.1,-40.119,-5.8762,7.0993,12.06
8821.0,-14.119,0.12378,9.0993,10.06
8830.9,7.8808,7.1238,11.099,11.06
8840.8,29.881,12.124,15.099,10.06
8850.7,49.881,18.124,21.099,11.06
8860.5,49.881,18.124,23.099,11.06
8870.4,88.881,28.124,27.099,13.06
8880.3,88.881,28.124,28.099,13.06
8890.2,118.88,36.124,32.099,14.06
8900.1,118.88,36.124,34.099,14.06
8910.0,134.88,43.124,34.099,14.06
8919.9,134.88,43.124,37.099,17.06
8929.7,134.88,43.124,37.099,17.06
8939.6,134.88,43.124,41.099,21.06
8949.5,123.88,40.124,41.099,21.06
8959.4,123.88,40.124,42.099,23.06
8969.3,106.88,35.124,42.099,23.06
8979.2,106.88,35.124,43.099,24.06
8989.1,92.881,33.124,43.099,24.06
8998.9,92.881,33.124,41.099,26.06
9008.8,86.881,30.124,41.099,26.06
9018.7,79.881,28.124,40.099,26.06
9028.6,69.881,26.124,40.099,26.06
9038.5,59.881,22.124,36.099,25.06
9048.4,47.881,21.124,36.099,25.06
9058.2,34.881,16.124,32.099,24.06
9068.1,19.881,13.124,32.099,24.06
9078.0,6.8808,8.1238,32.099,24.06
9087.9,-7.1192,6.1238,32.099,24.06
9097.8,-20.119,0.12378,30.099,25.06
9107.7,-35.119,-2.8762,29.099,25.06
9117.6,-50.119,-6.8762,28.099,24.06
9127.5,-63.119,-11.876,28.099,23.06
9137.3,-78.119,-15.876,26.099,24.06
9147.2,-92.119,-19.876,26.099,22.06
9157.1,-103.12,-23.876,24.099,24.06
9167.0,-115.12,-26.876,23.099,23.06
9176.9,-129.12,-30.876,23.099,22.06
9186.8,-140.12,-33.876,21.099,23.06
9196.6,-151.12,-35.876,21.099,22.06
9206.5,-162.12,-40.876,20.099,23.06
9216.4,-174.12,-41.876,18.099,21.06
9226.3,-185.12,-45.876,16.099,21.06
9236.2,-196.12,-47.876,16.099,21.06
9246.1,-207.12,-51.876,13.099,21.06
9256.0,-220.12,-54.876,10.099,20.06
9265.9,-231.12,-57.876,11.099,19.06
9275.7,-242.12,-60.876,9.0993,20.06
9285.6,-251.12,-61.876,7.0993,19.06
9295.5,-257.12,-62.876,4.0993,18.06
9305.4,-250.12,-57.876,4.0993,18.06
9315.3,-232.12,-54.876,2.0993,17.06
9325.2,-211.12,-47.876,1.0993,18.06
9335.0,-184.12,-40.876,-3.9007,13.06
9344.9,-157.12,-33.876,-6.9007,11.06
9354.8,-128.12,-25.876,-7.9007,7.0604
9364.7,-103.12,-18.876,-7.9007,6.0604
9374.6,-81.119,-13.876,-3.9007,4.0604
9384.5,-63.119,-7.8762,-1.9007,3.0604
9394.4,-46.119,-3.8762,0.099262,3.0604
9404.2,-32.119,0.12378,3.0993,3.0604
9414.1,-18.119,3.1238,6.0993,3.0604
9424.0,-6.1192,6.1238,9.0993,4.0604
9433.9,4.8808,10.124,11.099,6.0604
9443.8,11.881,12.124,12.099,6.0604
9453.7,16.881,13.124,16.099,7.0604
9463.6,16.881,12.124,16.099,9.0604
9473.4,11.881,12.124,16.099,9.0604
9483.3,5.8808,10.124,17.099,9.0604
9493.2,-2.1192,9.1238,19.099,11.06
9503.1,-9.1192,6.1238,21.099,11.06
9513.0,-19.119,5.1238,20.099,12.06
9522.9,-27.119,3.1238,20.099,13.06
9532.8,-33.119,1.1238,17.099,13.06
9542.6,-39.119,0.12378,19.099,13.06
9552.5,-44.119,-1.8762,16.099,13.06
9562.4,-53.119,-3.8762,15.099,15.06
9572.3,-59.119,-5.8762,14.099,13.06
9582.2,-69.119,-8.8762,11.099,11.06
9592.1,-69.119,-8.8762,11.099,10.06
9602.0,-86.119,-11.876,9.0993,12.06
9611.8,-86.119,-11.876,6.0993,10.06
9621.7,-100.12,-17.876,6.0993,12.06
9631.6,-100.12,-17.876,5.0993,11.06
9641.5,-120.12,-21.876,2.0993,10.06
9651.4,-120.12,-21.876,2.0993,8.0604
9661.3,-135.12,-24.876,0.099262,8.0604
9671.2,-135.12,-24.876,0.099262,9.0604
9681.0,-150.12,-29.876,-0.90074,9.0604
9690.9,-150.12,-29.876,-4.9007,8.0604
9700.8,-169.12,-33.876,-6.9007,8.0604
9710.7,-169.12,-33.876,-6.9007,7.0604
9720.6,-178.12,-36.876,-6.9007,6.0604
9730.5,-187.12,-39.876,-8.9007,5.0604
9740.4,-195.12,-41.876,-10.901,5.0604
9750.2,-203.12,-44.876,-12.901,5.0604
9760.1,-211.12,-45.876,-13.901,5.0604
9770.0,-221.12,-47.876,-15.901,4.0604
9779.9,-230.12,-50.876,-17.901,3.0604
9789.8,-240.12,-53.876,-18.901,2.0604
9799.7,-248.12,-55.876,-20.901,4.0604
9809.6,-258.12,-57.876,-22.901,2.0604
9819.4,-266.12,-59.876,-22.901,3.0604
9829.3,-276.12,-60.876,-25.901,2.0604
9839.2,-278.12,-59.876,-26.901,1.0604
9849.1,-273.12,-56.876,-27.901,2.0604
9859.0,-253.12,-51.876,-30.901,0.06044
9868.9,-232.12,-44.876,-34.901,-1.9396
9878.8,-206.12,-38.876,-40.901,-6.9396
9888.6,-176.12,-28.876,-41.901,-10.94
9898.5,-147.12,-21.876,-41.901,-10.94
9908.4,-116.12,-12.876,-37.901,-13.94
9918.3,-91.119,-2.8762,-37.901,-13.94
9928.2,-64.119,3.1238,-33.901,-15.94
9938.1,-41.119,9.1238,-33.901,-15.94
9948.0,-20.119,15.124,-29.901,-16.94
9957.8,-2.1192,20.124,-29.901,-16.94
9967.7,15.881,26.124,-25.901,-13.94
9977.6,30.881,29.124,-25.901,-13.94
9987.5,43.881,33.124,-21.901,-14.94
9997.4,54.881,38.124,-21.901,-14.94
10007.0,62.881,39.124,-16.901,-11.94
10017.0,65.881,40.124,-16.901,-11.94
10027.0,64.881,40.124,-14.901,-10.94
10037.0,61.881,40.124,-14.901,-10.94
10047.0,54.881,37.124,-13.901,-8.9396
10057.0,46.881,37.124,-13.901,-8.9396
10067.0,39.881,34.124,-10.901,-5.9396
10077.0,32.881,33.124,-10.901,-5.9396
10086.0,26.881,31.124,-13.901,-4.9396
10096.0,16.881,30.124,-13.901,-4.9396
10106.0,10.881,27.124,-14.901,-3.9396
10116.0,3.8808,26.124,-14.901,-3.9396
10126.0,-5.1192,23.124,-16.901,-5.9396
10136.0,-14.119,21.124,-16.901,-4.9396
10146.0,-21.119,20.124,-19.901,-6.9396
10156.0,-30.119,17.124,-19.901,-7.9396
10165.0,-40.119,15.124,-23.901,-6.9396
10175.0,-48.119,12.124,-25.901,-8.9396
10185.0,-59.119,9.1238,-26.901,-7.9396
10195.0,-68.119,6.1238,-27.901,-8.9396
10205.0,-79.119,2.1238,-28.901,-8.9396
10215.0,-90.119,1.1238,-29.901,-8.9396
10225.0,-99.119,-1.8762,-29.901,-8.9396
10235.0,-111.12,-6.8762,-31.901,-9.9396
10245.0,-122.12,-8.8762,-33.901,-9.9396
10254.0,-134.12,-10.876,-34.901,-8.9396
10264.0,-146.12,-14.876,-35.901,-9.9396
10274.0,-156.12,-16.876,-34.901,-10.94
10284.0,-169.12,-20.876,-37.901,-9.9396
10294.0,-178.12,-23.876,-38.901,-9.9396
10304.0,-178.12,-23.876,-40.901,-10.94
10314.0,-201.12,-29.876,-40.901,-11.94
10324.0,-201.12,-29.876,-40.901,-10.94
10334.0,-223.12,-35.876,-43.901,-10.94
10343.0,-223.12,-35.876,-45.901,-12.94
10353.0,-244.12,-43.876,-45.901,-11.94
10363.0,-244.12,-43.876,-46.901,-12.94
10373.0,-257.12,-43.876,-48.901,-12.94
10383.0,-257.12,-43.876,-49.901,-12.94
10393.0,-228.12,-32.876,-48.901,-11.94
10403.0,-228.12,-32.876,-49.901,-11.94
10413.0,-181.12,-20.876,-54.901,-14.94
10423.0,-181.12,-20.876,-58.901,-16.94
10432.0,-120.12,-3.8762,-59.901,-20.94
10442.0,-120.12,-3.8762,-59.901,-21.94
10452.0,-88.119,4.1238,-54.901,-23.94
10462.0,-59.119,11.124,-52.901,-25.94
10472.0,-33.119,20.124,-49.901,-26.94
10482.0,-8.1192,26.124,-45.901,-24.94
10492.0,11.881,31.124,-43.901,-24.94
10502.0,33.881,37.124,-39.901,-24.94
10511.0,48.881,42.124,-36.901,-23.94
10521.0,65.881,46.124,-33.901,-21.94
10531.0,74.881,50.124,-32.901,-21.94
10541.0,86.881,52.124,-28.901,-20.94
10551.0,92.881,53.124,-28.901,-20.94
10561.0,96.881,56.124,-25.901,-18.94
10571.0,95.881,55.124,-25.901,-18.94
10581.0,90.881,53.124,-23.901,-16.94
10591.0,82.881,51.124,-21.901,-16.94
10600.0,74.881,48.124,-20.901,-14.94
10610.0,67.881,47.124,-21.901,-14.94
10620.0,57.881,44.124,-18.901,-12.94
10630.0,48.881,41.124,-20.901,-12.94
10640.0,40.881,39.124,-19.901,-10.94
10650.0,31.881,37.124,-21.901,-10.94
10660.0,21.881,35.124,-21.901,-9.9396
10670.0,14.881,34.124,-22.901,-9.9396
10680.0,7.8808,31.124,-22.901,-8.9396
10689.0,-1.1192,29.124,-24.901,-9.9396
10699.0,-9.1192,26.124,-26.901,-10.94
10709.0,-20.119,24.124,-27.901,-9.9396
10719.0,-27.119,22.124,-26.901,-8.9396
10729.0,-38.119,18.124,-28.901,-8.9396
10739.0,-47.119,17.124,-26.901,-8.9396
10749.0,-57.119,14.124,-27.901,-8.9396
10759.0,-68.119,8.1238,-27.901,-8.9396
10769.0,-75.119,8.1238,-29.901,-8.9396
10778.0,-85.119,5.1238,-28.901,-8.9396
10788.0,-97.119,1.1238,-30.901,-8.9396
10798.0,-109.12,-2.8762,-31.901,-9.9396
10808.0,-118.12,-3.8762,-29.901,-9.9396
10818.0,-131.12,-7.8762,-32.901,-8.9396
10828.0,-138.12,-11.876,-31.901,-9.9396
10838.0,-151.12,-12.876,-32.901,-7.9396
10848.0,-158.12,-15.876,-32.901,-6.9396
10857.0,-169.12,-18.876,-34.901,-6.9396
10867.0,-180.12,-21.876,-33.901,-6.9396
10877.0,-191.12,-23.876,-35.901,-7.9396
10887.0,-200.12,-26.876,-37.901,-6.9396
10897.0,-210.12,-30.876,-37.901,-7.9396
10907.0,-217.12,-31.876,-37.901,-8.9396
10917.0,-220.12,-31.876,-38.901,-7.9396
10927.0,-207.12,-26.876,-40.901,-5.9396
10937.0,-186.12,-19.876,-40.901,-6.9396
10946.0,-164.12,-14.876,-42.901,-8.9396
10956.0,-135.12,-7.8762,-44.901,-11.94
10966.0,-106.12,0.12378,-44.901,-11.94
10976.0,-74.119,11.124,-45.901,-16.94
10986.0,-44.119,18.124,-45.901,-16.94
10996.0,-14.119,27.124,-38.901,-16.94
11006.0,13.881,33.124,-38.901,-16.94
11016.0,36.881,39.124,-32.901,-18.94
11026.0,57.881,44.124,-32.901,-18.94
11035.0,57.881,44.124,-24.901,-18.94
11045.0,93.881,54.124,-24.901,-18.94
11055.0,93.881,54.124,-17.901,-14.94
11065.0,122.88,63.124,-17.901,-14.94
11075.0,122.88,63.124,-12.901,-10.94
11085.0,137.88,66.124,-12.901,-10.94
11095.0,137.88,66.124,-7.9007,-9.9396
11105.0,138.88,67.124,-7.9007,-9.9396
11115.0,138.88,67.124,-4.9007,-6.9396
11124.0,127.88,62.124,-4.9007,-6.9396
11134.0,127.88,62.124,-2.9007,-4.9396
11144.0,110.88,58.124,0.099262,-3.9396
11154.0,110.88,58.124,1.0993,-2.9396
11164.0,93.881,54.124,1.0993,-1.9396
11174.0,93.881,54.124,-0.90074,-0.93956
11184.0,86.881,50.124,0.099262,-0.93956
11194.0,79.881,49.124,0.099262,-0.93956
11203.0,71.881,48.124,0.099262,2.0604
11213.0,61.881,47.124,0.099262,2.0604
11223.0,55.881,44.124,0.099262,2.0604
11233.0,48.881,41.124,-0.90074,3.0604
11243.0,38.881,40.124,-0.90074,2.0604
11253.0,29.881,37.124,-2.9007,4.0604
11263.0,18.881,33.124,-2.9007,3.0604
11273.0,10.881,31.124,-4.9007,3.0604
11283.0,2.8808,28.124,-4.9007,3.0604
11292.0,-7.1192,26.124,-4.9007,3.0604
11302.0,-16.119,22.124,-3.9007,5.0604
11312.0,-28.119,19.124,-3.9007,4.0604
11322.0,-37.119,17.124,-4.9007,5.0604
11332.0,-46.119,13.124,-4.9007,5.0604
11342.0,-58.119,10.124,-5.9007,5.0604
11352.0,-67.119,7.1238,-5.9007,6.0604
11362.0,-79.119,4.1238,-6.9007,6.0604
11372.0,-90.119,1.1238,-7.9007,6.0604
11381.0,-100.12,-2.8762,-5.9007,8.0604
11391.0,-111.12,-4.8762,-6.9007,7.0604
11401.0,-123.12,-10.876,-6.9007,7.0604
11411.0,-135.12,-13.876,-7.9007,7.0604
11421.0,-149.12,-17.876,-8.9007,8.0604
11431.0,-163.12,-20.876,-6.9007,9.0604
11441.0,-176.12,-24.876,-7.9007,9.0604
11451.0,-184.12,-28.876,-9.9007,8.0604
11461.0,-190.12,-26.876,-11.901,8.0604
11470.0,-179.12,-23.876,-11.901,9.0604
11480.0,-163.12,-17.876,-12.901,9.0604
11490.0,-141.12,-13.876,-14.901,7.0604
11500.0,-118.12,-6.8762,-17.901,3.0604
11510.0,-91.119,0.12378,-17.901,0.06044
11520.0,-62.119,8.1238,-18.901,-0.93956
11530.0,-35.119,15.124,-11.901,0.06044
11540.0,-10.119,22.124,-10.901,-2.9396
11549.0,12.881,27.124,-6.9007,-1.9396
11559.0,33.881,32.124,-3.9007,-2.9396
11569.0,48.881,35.124,1.0993,-0.93956
11579.0,67.881,40.124,3.0993,0.06044
11589.0,78.881,44.124,7.0993,0.06044
11599.0,94.881,46.124,9.0993,1.0604
11609.0,106.88,49.124,12.099,2.0604
11619.0,116.88,51.124,15.099,4.0604
11629.0,120.88,52.124,18.099,5.0604
11638.0,120.88,51.124,20.099,7.0604
11648.0,118.88,50.124,20.099,8.0604
11658.0,111.88,49.124,21.099,9.0604
11668.0,107.88,46.124,24.099,11.06
11678.0,100.88,45.124,27.099,12.06
11688.0,94.881,43.124,28.099,15.06
11698.0,86.881,40.124,28.099,15.06
11708.0,79.881,38.124,28.099,16.06
11718.0,74.881,36.124,29.099,17.06
11727.0,65.881,33.124,30.099,17.06
11737.0,57.881,31.124,28.099,17.06
11747.0,49.881,29.124,27.099,15.06
11757.0,41.881,26.124,27.099,19.06
11767.0,41.881,26.124,26.099,18.06
11777.0,20.881,19.124,26.099,18.06
11787.0,20.881,19.124,26.099,17.06
11797.0,-3.1192,13.124,24.099,18.06
11807.0,-3.1192,13.124,25.099,18.06
11816.0,-22.119,6.1238,23.099,18.06
11826.0,-22.119,6.1238,24.099,20.06
11836.0,-44.119,0.12378,22.099,19.06
11846.0,-44.119,0.12378,24.099,18.06
11856.0,-67.119,-5.8762,22.099,18.06
11866.0,-67.119,-5.8762,22.099,19.06
11876.0,-87.119,-11.876,19.099,20.06
11886.0,-87.119,-11.876,18.099,19.06
11895.0,-110.12,-18.876,18.099,18.06
11905.0,-110.12,-18.876,18.099,20.06
11915.0,-124.12,-22.876,18.099,20.06
11925.0,-132.12,-26.876,16.099,19.06
11935.0,-144.12,-30.876,16.099,19.06
11945.0,-155.12,-33.876,13.099,19.06
11955.0,-166.12,-35.876,13.099,19.06
11965.0,-178.12,-38.876,12.099,19.06
11975.0,-190.12,-41.876,12.099,19.06
11984.0,-202.12,-45.876,9.0993,17.06
11994.0,-209.12,-46.876,9.0993,17.06
12004.0,-211.12,-46.876,7.0993,18.06
12014.0,-201.12,-40.876,7.0993,18.06
12024.0,-182.12,-34.876,5.0993,16.06
12034.0,-158.12,-26.876,5.0993,16.06
12044.0,-128.12,-20.876,-0.90074,11.06
12054.0,-99.119,-12.876,-0.90074,11.06
12064.0,-69.119,-4.8762,2.0993,6.0604
12073.0,-40.119,1.1238,2.0993,6.0604
12083.0,-17.119,9.1238,7.0993,5.0604
12093.0,3.8808,14.124,7.0993,5.0604
12103.0,23.881,19.124,12.099,5.0604
12113.0,42.881,23.124,12.099,5.0604
12123.0,59.881,29.124,15.099,6.0604
12133.0,73.881,32.124,19.099,5.0604
12143.0,86.881,36.124,20.099,7.0604
12153.0,97.881,40.124,23.099,7.0604
12162.0,100.88,42.124,23.099,8.0604
12172.0,99.881,41.124,27.099,9.0604
12182.0,98.881,40.124,28.099,10.06
12192.0,91.881,38.124,29.099,11.06
12202.0,83.881,36.124,29.099,13.06
12212.0,76.881,34.124,31.099,13.06
12222.0,66.881,30.124,32.099,14.06
12232.0,61.881,30.124,32.099,15.06
12241.0,55.881,28.124,32.099,16.06
12251.0,50.881,27.124,32.099,16.06
12261.0,43.881,26.124,29.099,16.06
12271.0,36.881,22.124,30.099,16.06
12281.0,26.881,22.124,27.099,16.06
12291.0,20.881,18.124,25.099,15.06
12301.0,10.881,16.124,24.099,15.06
12311.0,2.8808,15.124,22.099,14.06
12321.0,-7.1192,11.124,21.099,14.06
12330.0,-17.119,9.1238,22.099,14.06
12340.0,-26.119,6.1238,19.099,11.06
12350.0,-35.119,3.1238,18.099,12.06
12360.0,-45.119,2.1238,18.099,11.06
12370.0,-54.119,-1.8762,18.099,13.06
12380.0,-64.119,-2.8762,16.099,13.06
12390.0,-75.119,-5.8762,15.099,13.06
12400.0,-83.119,-9.8762,13.099,11.06
12410.0,-95.119,-12.876,14.099,11.06
12419.0,-105.12,-14.876,11.099,11.06
12429.0,-114.12,-17.876,10.099,11.06
12439.0,-126.12,-22.876,9.0993,10.06
12449.0,-136.12,-24.876,9.0993,10.06
12459.0,-149.12,-28.876,5.0993,9.0604
12469.0,-159.12,-33.876,6.0993,9.0604
12479.0,-159.12,-33.876,5.0993,9.0604
12489.0,-179.12,-36.876,2.0993,9.0604
12499.0,-179.12,-36.876,3.0993,10.06
12508.0,-198.12,-42.876,1.0993,9.0604
12518.0,-198.12,-42.876,-1.9007,9.0604
12528.0,-214.12,-45.876,-2.9007,7.0604
12538.0,-214.12,-45.876,-2.9007,8.0604
12548.0,-190.12,-36.876,-2.9007,8.0604
12558.0,-190.12,-36.876,-5.9007,7.0604
12568.0,-139.12,-20.876,-8.9007,5.0604
12578.0,-139.12,-20.876,-13.901,0.06044
12587.0,-76.119,-3.8762,-15.901,-2.9396
12597.0,-76.119,-3.8762,-14.901,-4.9396
12607.0,-16.119,11.124,-11.901,-6.9396
12617.0,-16.119,11.124,-10.901,-6.9396
12627.0,7.8808,18.124,-7.9007,-7.9396
12637.0,32.881,25.124,-3.9007,-7.9396
12647.0,56.881,32.124,-0.90074,-6.9396
12657.0,78.881,38.124,1.0993,-5.9396
12667.0,97.881,44.124,2.0993,-6.9396
12676.0,113.88,49.124,5.0993,-5.9396
12686.0,131.88,55.124,8.0993,-4.9396
12696.0,143.88,59.124,10.099,-2.9396
12706.0,152.88,61.124,9.0993,-3.9396
12716.0,156.88,62.124,12.099,-2.9396
12726.0,154.88,61.124,13.099,-0.93956
12736.0,148.88,62.124,13.099,-0.93956
12746.0,140.88,60.124,14.099,0.06044
12756.0,134.88,58.124,15.099,2.0604
12765.0,128.88,57.124,15.099,1.0604
12775.0,119.88,54.124,15.099,2.0604
12785.0,112.88,53.124,14.099,4.0604
12795.0,106.88,51.124,14.099,2.0604
12805.0,100.88,50.124,12.099,4.0604
12815.0,91.881,48.124,10.099,2.0604
12825.0,84.881,46.124,10.099,3.0604
12835.0,75.881,42.124,8.0993,1.0604
12845.0,65.881,40.124,8.0993,1.0604
12854.0,56.881,37.124,4.0993,2.0604
12864.0,48.881,35.124,4.0993,1.0604
12874.0,39.881,32.124,3.0993,1.0604
12884.0,32.881,29.124,1.0993,0.06044
12894.0,22.881,28.124,0.099262,0.06044
12904.0,13.881,25.124,0.099262,-0.93956
12914.0,4.8808,23.124,-0.90074,-0.93956
12924.0,-2.1192,21.124,-2.9007,-0.93956
12933.0,-13.119,18.124,-4.9007,-0.93956
12943.0,-21.119,16.124,-4.9007,-0.93956
12953.0,-30.119,14.124,-6.9007,-0.93956
12963.0,-38.119,10.124,-8.9007,-2.9396
12973.0,-49.119,8.1238,-10.901,-2.9396
12983.0,-61.119,6.1238,-10.901,-2.9396
12993.0,-72.119,1.1238,-12.901,-2.9396
13003.0,-82.119,0.12378,-12.901,-2.9396
13013.0,-95.119,-3.8762,-11.901,-3.9396
13022.0,-104.12,-6.8762,-11.901,-3.9396
13032.0,-119.12,-9.8762,-16.901,-3.9396
13042.0,-129.12,-13.876,-16.901,-3.9396
13052.0,-141.12,-16.876,-18.901,-5.9396
13062.0,-144.12,-15.876,-18.901,-5.9396
13072.0,-138.12,-13.876,-20.901,-4.9396
13082.0,-120.12,-7.8762,-20.901,-4.9396
13092.0,-99.119,-1.8762,-23.901,-6.9396
13102.0,-73.119,6.1238,-23.901,-6.9396
13111.0,-42.119,14.124,-31.901,-13.94
13121.0,-8.1192,23.124,-31.901,-13.94
13131.0,25.881,33.124,-29.901,-16.94
13141.0,58.881,41.124,-29.901,-16.94
13151.0,87.881,50.124,-23.901,-19.94
13161.0,111.88,57.124,-23.901,-19.94
13171.0,133.88,63.124,-22.901,-18.94
13181.0,151.88,68.124,-18.901,-18.94
13191.0,169.88,71.124,-12.901,-16.94
13200.0,183.88,76.124,-12.901,-16.94
13210.0,183.88,76.124,-10.901,-15.94
13220.0,207.88,82.124,-8.9007,-14.94
13230.0,207.88,82.124,-6.9007,-13.94
13240.0,219.88,85.124,-3.9007,-12.94
13250.0,219.88,85.124,-1.9007,-12.94
13260.0,212.88,83.124,1.0993,-11.94
13270.0,212.88,83.124,0.099262,-10.94
13279.0,191.88,76.124,1.0993,-9.9396
13289.0,191.88,76.124,2.0993,-8.9396
13299.0,168.88,72.124,4.0993,-6.9396
13309.0,168.88,72.124,7.0993,-4.9396
13319.0,146.88,65.124,7.0993,-4.9396
13329.0,146.88,65.124,5.0993,-3.9396
13339.0,129.88,60.124,4.0993,-4.9396
13349.0,129.88,60.124,5.0993,-4.9396
13359.0,120.88,57.124,2.0993,-3.9396
13368.0,111.88,54.124,0.099262,-3.9396
13378.0,102.88,51.124,-0.90074,-4.9396
13388.0,90.881,48.124,-2.9007,-4.9396
13398.0,75.881,44.124,-1.9007,-3.9396
13408.0,64.881,39.124,-2.9007,-3.9396
13418.0,54.881,37.124,-2.9007,-4.9396
13428.0,44.881,35.124,-4.9007,-4.9396
13438.0,33.881,31.124,-7.9007,-4.9396
13448.0,22.881,27.124,-7.9007,-4.9396
13457.0,13.881,26.124,-7.9007,-3.9396
13467.0,2.8808,21.124,-8.9007,-4.9396
13477.0,-7.1192,19.124,-9.9007,-5.9396
13487.0,-17.119,16.124,-10.901,-5.9396
13497.0,-27.119,13.124,-10.901,-5.9396
13507.0,-41.119,10.124,-12.901,-6.9396
13517.0,-50.119,7.1238,-13.901,-4.9396
13527.0,-60.119,5.1238,-15.901,-5.9396
13537.0,-71.119,2.1238,-16.901,-4.9396
13546.0,-79.119,-1.8762,-16.901,-4.9396
13556.0,-89.119,-3.8762,-17.901,-4.9396
13566.0,-100.12,-6.8762,-17.901,-4.9396
13576.0,-111.12,-9.8762,-19.901,-6.9396
13586.0,-122.12,-13.876,-20.901,-5.9396
13596.0,-129.12,-14.876,-21.901,-5.9396
13606.0,-128.12,-14.876,-24.901,-6.9396
13616.0,-115.12,-7.8762,-23.901,-5.9396
13625.0,-94.119,-1.8762,-25.901,-6.9396
13635.0,-67.119,6.1238,-28.901,-8.9396
13645.0,-40.119,12.124,-33.901,-13.94
13655.0,-6.1192,22.124,-35.901,-16.94
13665.0,24.881,29.124,-32.901,-17.94
13675.0,60.881,40.124,-31.901,-19.94
13685.0,91.881,47.124,-29.901,-19.94
13695.0,115.88,54.124,-25.901,-19.94
13705.0,136.88,60.124,-20.901,-18.94
13714.0,158.88,64.124,-17.901,-18.94
13724.0,178.88,71.124,-13.901,-16.94
13734.0,193.88,75.124,-10.901,-16.94
13744.0,211.88,79.124,-6.9007,-15.94
13754.0,222.88,81.124,-6.9007,-14.94
13764.0,229.88,84.124,-2.9007,-12.94
13774.0,237.88,85.124,2.0993,-11.94
13784.0,238.88,85.124,2.0993,-11.94
13794.0,237.88,86.124,4.0993,-10.94
13803.0,229.88,83.124,6.0993,-9.9396
13813.0,218.88,80.124,7.0993,-7.9396
13823.0,208.88,76.124,10.099,-6.9396
13833.0,196.88,73.124,10.099,-3.9396
13843.0,185.88,70.124,12.099,-2.9396
13853.0,174.88,67.124,12.099,-0.93956
13863.0,162.88,63.124,13.099,0.06044
13873.0,151.88,61.124,11.099,0.06044
13883.0,141.88,56.124,11.099,1.0604
13892.0,131.88,55.124,12.099,1.0604
13902.0,122.88,52.124,10.099,1.0604
13912.0,113.88,49.124,9.0993,1.0604
13922.0,103.88,46.124,10.099,2.0604
13932.0,92.881,42.124,10.099,2.0604
13942.0,92.881,42.124,8.0993,2.0604
13952.0,70.881,37.124,8.0993,2.0604
13962.0,70.881,37.124,8.0993,2.0604
13971.0,48.881,31.124,8.0993,2.0604
13981.0,48.881,31.124,7.0993,2.0604
13991.0,26.881,24.124,7.0993,2.0604
14001.0,26.881,24.124,5.0993,2.0604
14011.0,0.88077,16.124,5.0993,2.0604
14021.0,0.88077,16.124,3.0993,3.0604
14031.0,-21.119,10.124,3.0993,3.0604
14041.0,-21.119,10.124,0.099262,1.0604
14051.0,-42.119,5.1238,0.099262,1.0604
14060.0,-42.119,5.1238,0.099262,2.0604
14070.0,-60.119,-0.87622,0.099262,2.0604
14080.0,-60.119,-0.87622,-1.9007,2.0604
14090.0,-70.119,-4.8762,-1.9007,2.0604
14100.0,-81.119,-6.8762,-2.9007,4.0604
14110.0,-92.119,-9.8762,-2.9007,4.0604
14120.0,-102.12,-11.876,-4.9007,3.0604
14130.0,-114.12,-14.876,-4.9007,3.0604
14140.0,-119.12,-16.876,-6.9007,3.0604
14149.0,-117.12,-13.876,-6.9007,3.0604
14159.0,-102.12,-9.8762,-7.9007,3.0604
14169.0,-80.119,-3.8762,-7.9007,3.0604
14179.0,-56.119,4.1238,-11.901,0.06044
14189.0,-25.119,10.124,-15.901,-4.9396
14199.0,8.8808,20.124,-17.901,-6.9396
14209.0,42.881,30.124,-17.901,-8.9396
14219.0,75.881,40.124,-13.901,-9.9396
14229.0,103.88,48.124,-9.9007,-8.9396
14238.0,129.88,54.124,-5.9007,-7.9396
14248.0,152.88,60.124,-0.90074,-8.9396
14258.0,172.88,65.124,0.099262,-7.9396
14268.0,190.88,69.124,3.0993,-5.9396
14278.0,206.88,74.124,8.0993,-5.9396
14288.0,220.88,79.124,13.099,-4.9396
14298.0,232.88,81.124,14.099,-2.9396
14308.0,241.88,84.124,17.099,-0.93956
14317.0,246.88,86.124,20.099,0.06044
14327.0,245.88,84.124,22.099,1.0604
14337.0,238.88,83.124,23.099,2.0604
14347.0,230.88,80.124,25.099,4.0604
14357.0,220.88,77.124,27.099,5.0604
14367.0,211.88,74.124,27.099,6.0604
14377.0,198.88,70.124,30.099,7.0604
14387.0,186.88,67.124,30.099,9.0604
14397.0,175.88,63.124,33.099,11.06
14406.0,165.88,60.124,33.099,12.06
14416.0,152.88,56.124,31.099,11.06
14426.0,139.88,52.124,31.099,11.06
14436.0,128.88,51.124,31.099,14.06
14446.0,119.88,47.124,30.099,14.06
14456.0,106.88,44.124,29.099,13.06
14466.0,91.881,37.124,28.099,14.06
14476.0,80.881,35.124,30.099,14.06
14486.0,68.881,31.124,28.099,15.06
14495.0,56.881,28.124,26.099,14.06
14505.0,45.881,25.124,27.099,15.06
14515.0,30.881,20.124,28.099,15.06
14525.0,20.881,16.124,30.099,16.06
14535.0,9.8808,13.124,26.099,15.06
14545.0,-3.1192,9.1238,26.099,15.06
14555.0,-14.119,5.1238,24.099,16.06
14565.0,-26.119,1.1238,26.099,16.06
14574.0,-38.119,-1.8762,25.099,16.06
14584.0,-48.119,-5.8762,24.099,15.06
14594.0,-64.119,-10.876,22.099,16.06
14604.0,-73.119,-12.876,21.099,16.06
14614.0,-87.119,-16.876,21.099,16.06
14624.0,-99.119,-21.876,22.099,17.06
14634.0,-113.12,-25.876,23.099,18.06
14644.0,-124.12,-27.876,20.099,18.06
14654.0,-135.12,-30.876,21.099,18.06
14663.0,-147.12,-36.876,19.099,18.06
14673.0,-147.12,-36.876,17.099,17.06
14683.0,-164.12,-40.876,16.099,16.06
14693.0,-164.12,-40.876,16.099,16.06
14703.0,-139.12,-30.876,16.099,16.06
14713.0,-139.12,-30.876,12.099,16.06
14723.0,-85.119,-17.876,7.0993,11.06
14733.0,-85.119,-17.876,2.0993,8.0604
14743.0,-16.119,2.1238,2.0993,4.0604
14752.0,-16.119,2.1238,3.0993,3.0604
14762.0,47.881,19.124,7.0993,3.0604
14772.0,47.881,19.124,13.099,4.0604
14782.0,94.881,32.124,16.099,4.0604
14792.0,94.881,32.124,20.099,4.0604
14802.0,118.88,37.124,24.099,4.0604
14812.0,136.88,44.124,27.099,6.0604
14822.0,155.88,48.124,28.099,7.0604
14832.0,169.88,53.124,31.099,7.0604
14841.0,183.88,55.124,32.099,6.0604
14851.0,191.88,58.124,33.099,7.0604
14861.0,196.88,60.124,35.099,9.0604
14871.0,195.88,60.124,37.099,11.06
14881.0,191.88,58.124,39.099,11.06
14891.0,184.88,57.124,40.099,14.06
14901.0,176.88,54.124,42.099,15.06
14911.0,165.88,53.124,43.099,16.06
14920.0,152.88,50.124,43.099,17.06
14930.0,143.88,47.124,43.099,18.06
14940.0,135.88,44.124,42.099,19.06
14950.0,127.88,41.124,41.099,19.06
14960.0,119.88,39.124,42.099,20.06
14970.0,112.88,38.124,39.099,20.06
14980.0,104.88,35.124,39.099,20.06
14990.0,96.881,34.124,38.099,21.06
15000.0,86.881,30.124,38.099,21.06
15009.0,78.881,28.124,37.099,20.06
15019.0,66.881,25.124,37.099,20.06
15029.0,57.881,22.124,36.099,19.06
15039.0,48.881,20.124,36.099,19.06
15049.0,37.881,16.124,36.099,19.06
15059.0,27.881,14.124,36.099,19.06
15069.0,17.881,11.124,31.099,19.06
15079.0,8.8808,10.124,31.099,19.06
15089.0,-3.1192,5.1238,28.099,19.06
15098.0,-17.119,1.1238,28.099,19.06
15108.0,-26.119,-0.87622,26.099,18.06
15118.0,-36.119,-3.8762,26.099,18.06
15128.0,-47.119,-6.8762,23.099,16.06
15138.0,-57.119,-10.876,23.099,16.06
15148.0,-69.119,-11.876,19.099,14.06
15158.0,-80.119,-16.876,19.099,14.06
15168.0,-93.119,-18.876,19.099,13.06
15178.0,-103.12,-23.876,19.099,13.06
15187.0,-116.12,-28.876,15.099,12.06
15197.0,-127.12,-31.876,13.099,12.06
15207.0,-140.12,-32.876,13.099,13.06
15217.0,-151.12,-38.876,12.099,12.06
15227.0,-160.12,-39.876,10.099,12.06
15237.0,-163.12,-39.876,9.0993,11.06
15247.0,-153.12,-36.876,9.0993,12.06
15257.0,-137.12,-31.876,7.0993,12.06
15266.0,-113.12,-24.876,5.0993,11.06
15276.0,-85.119,-16.876,1.0993,8.0604
15286.0,-56.119,-10.876,-5.9007,2.0604
15296.0,-27.119,-1.8762,-5.9007,0.06044
15306.0,3.8808,6.1238,-5.9007,-1.9396
15316.0,29.881,13.124,-3.9007,-3.9396
15326.0,49.881,18.124,-1.9007,-3.9396
15336.0,70.881,24.124,1.0993,-5.9396
15346.0,88.881,30.124,3.0993,-4.9396
15355.0,105.88,35.124,7.0993,-3.9396
15365.0,117.88,38.124,9.0993,-2.9396
15375.0,130.88,42.124,12.099,-3.9396
15385.0,130.88,42.124,15.099,-1.9396
15395.0,145.88,45.124,15.099,0.06044
15405.0,145.88,45.124,18.099,0.06044
15415.0,141.88,44.124,18.099,2.0604
15425.0,141.88,44.124,20.099,1.0604
15435.0,126.88,39.124,23.099,3.0604
15444.0,126.88,39.124,22.099,2.0604
15454.0,107.88,35.124,24.099,5.0604
15464.0,107.88,35.124,23.099,6.0604
15474.0,89.881,29.124,22.099,6.0604
15484.0,89.881,29.124,23.099,7.0604
15494.0,76.881,27.124,21.099,7.0604
15504.0,76.881,27.124,21.099,7.0604
15514.0,58.881,20.124,19.099,7.0604
15524.0,58.881,20.124,18.099,8.0604
15533.0,51.881,19.124,16.099,7.0604
15543.0,44.881,16.124,17.099,6.0604
15553.0,32.881,14.124,13.099,5.0604
15563.0,23.881,11.124,12.099,4.0604
15573.0,13.881,8.1238,10.099,4.0604
15583.0,5.8808,5.1238,9.0993,4.0604
15593.0,-4.1192,4.1238,8.0993,3.0604
15603.0,-13.119,0.12378,6.0993,1.0604
15612.0,-22.119,-0.87622,3.0993,2.0604
15622.0,-29.119,-1.8762,2.0993,2.0604
15632.0,-39.119,-5.8762,1.0993,2.0604
15642.0,-49.119,-9.8762,0.099262,2.0604
15652.0,-57.119,-10.876,0.099262,0.06044
15662.0,-66.119,-13.876,-2.9007,1.0604
15672.0,-76.119,-15.876,-4.9007,0.06044
15682.0,-85.119,-18.876,-4.9007,0.06044
15692.0,-94.119,-21.876,-4.9007,-1.9396
15701.0,-103.12,-22.876,-6.9007,-0.93956
15711.0,-115.12,-26.876,-6.9007,-2.9396
15721.0,-124.12,-29.876,-8.9007,-2.9396
15731.0,-133.12,-33.876,-9.9007,-2.9396
15741.0,-145.12,-35.876,-12.901,-4.9396
15751.0,-154.12,-38.876,-14.901,-3.9396
15761.0,-164.12,-41.876,-17.901,-4.9396
15771.0,-173.12,-42.876,-18.901,-4.9396
15781.0,-174.12,-43.876,-19.901,-6.9396
15790.0,-162.12,-36.876,-19.901,-3.9396
15800.0,-141.12,-30.876,-21.901,-5.9396
15810.0,-117.12,-23.876,-24.901,-8.9396
15820.0,-85.119,-15.876,-31.901,-13.94
15830.0,-56.119,-5.8762,-34.901,-15.94
15840.0,-25.119,2.1238,-32.901,-18.94
15850.0,4.8808,11.124,-30.901,-20.94
15860.0,33.881,20.124,-29.901,-22.94
15870.0,57.881,25.124,-25.901,-21.94
15879.0,80.881,31.124,-24.901,-20.94
15889.0,99.881,36.124,-20.901,-20.94
15899.0,118.88,40.124,-18.901,-19.94
15909.0,134.88,45.124,-14.901,-18.94
15919.0,148.88,49.124,-13.901,-18.94
15929.0,159.88,54.124,-9.9007,-16.94
15939.0,167.88,55.124,-9.9007,-16.94
15949.0,173.88,58.124,-6.9007,-15.94
15958.0,173.88,57.124,-3.9007,-13.94
15968.0,171.88,56.124,-2.9007,-13.94
15978.0,162.88,52.124,-2.9007,-11.94
15988.0,151.88,49.124,-0.90074,-12.94
15998.0,141.88,48.124,2.0993,-9.9396
16008.0,127.88,44.124,1.0993,-8.9396
16018.0,117.88,41.124,0.099262,-8.9396
16028.0,104.88,38.124,0.099262,-8.9396
16038.0,94.881,33.124,0.099262,-8.9396
16047.0,85.881,31.124,0.099262,-8.9396
16057.0,76.881,28.124,-0.90074,-7.9396
16067.0,67.881,26.124,-0.90074,-7.9396
16077.0,57.881,23.124,-1.9007,-6.9396
16087.0,44.881,21.124,-1.9007,-6.9396
16097.0,30.881,16.124,-5.9007,-7.9396
16107.0,16.881,13.124,-5.9007,-7.9396
16117.0,16.881,13.124,-8.9007,-8.9396
16127.0,-13.119,4.1238,-8.9007,-8.9396
16136.0,-13.119,4.1238,-9.9007,-9.9396
16146.0,-41.119,-3.8762,-9.9007,-9.9396
16156.0,-41.119,-3.8762,-12.901,-9.9396
16166.0,-69.119,-10.876,-12.901,-9.9396
16176.0,-69.119,-10.876,-14.901,-9.9396
16186.0,-95.119,-19.876,-14.901,-9.9396
16196.0,-95.119,-19.876,-15.901,-9.9396
16206.0,-120.12,-26.876,-15.901,-9.9396
16216.0,-120.12,-26.876,-19.901,-10.94
16225.0,-144.12,-33.876,-19.901,-10.94
16235.0,-144.12,-33.876,-20.901,-11.94
16245.0,-167.12,-39.876,-22.901,-11.94
16255.0,-167.12,-39.876,-22.901,-11.94
16265.0,-178.12,-42.876,-25.901,-11.94
16275.0,-190.12,-46.876,-26.901,-12.94
16285.0,-199.12,-48.876,-25.901,-12.94
16295.0,-211.12,-52.876,-27.901,-12.94
16304.0,-221.12,-56.876,-32.901,-13.94
16314.0,-230.12,-56.876,-31.901,-12.94
16324.0,-232.12,-56.876,-30.901,-12.94
16334.0,-220.12,-51.876,-31.901,-13.94
16344.0,-197.12,-45.876,-32.901,-13.94
16354.0,-171.12,-38.876,-36.901,-15.94
16364.0,-143.12,-29.876,-43.901,-20.94
16374.0,-112.12,-22.876,-46.901,-23.94
16384.0,-77.119,-13.876,-47.901,-25.94
16393.0,-44.119,-4.8762,-43.901,-27.94
16403.0,-10.119,6.1238,-40.901,-27.94
16413.0,19.881,15.124,-37.901,-28.94
16423.0,47.881,21.124,-34.901,-27.94
16433.0,71.881,29.124,-29.901,-26.94
16443.0,94.881,35.124,-25.901,-26.94
16453.0,114.88,40.124,-22.901,-25.94
16463.0,133.88,44.124,-18.901,-23.94
16473.0,145.88,49.124,-16.901,-23.94
16482.0,158.88,52.124,-14.901,-21.94
16492.0,168.88,55.124,-11.901,-19.94
16502.0,171.88,57.124,-10.901,-18.94
16512.0,170.88,56.124,-6.9007,-17.94
16522.0,167.88,55.124,-4.9007,-15.94
16532.0,158.88,53.124,-5.9007,-15.94
16542.0,147.88,50.124,-2.9007,-14.94
16552.0,138.88,47.124,-1.9007,-12.94
16562.0,126.88,44.124,-0.90074,-10.94
16571.0,115.88,41.124,0.099262,-10.94
16581.0,105.88,39.124,-0.90074,-9.9396
16591.0,93.881,36.124,-1.9007,-8.9396
16601.0,82.881,33.124,1.0993,-7.9396
16611.0,74.881,31.124,-1.9007,-7.9396
16621.0,68.881,28.124,-1.9007,-6.9396
16631.0,56.881,25.124,-2.9007,-5.9396
16641.0,45.881,23.124,-2.9007,-7.9396
16650.0,34.881,20.124,-3.9007,-6.9396
16660.0,23.881,17.124,-5.9007,-6.9396
16670.0,13.881,14.124,-5.9007,-7.9396
16680.0,1.8808,10.124,-7.9007,-7.9396
16690.0,-10.119,6.1238,-7.9007,-6.9396
16700.0,-19.119,3.1238,-5.9007,-6.9396
16710.0,-32.119,1.1238,-8.9007,-6.9396
16720.0,-41.119,-1.8762,-8.9007,-6.9396
16730.0,-54.119,-5.8762,-9.9007,-6.9396
16739.0,-66.119,-8.8762,-12.901,-6.9396
16749.0,-75.119,-10.876,-12.901,-7.9396
16759.0,-84.119,-14.876,-11.901,-6.9396
16769.0,-94.119,-16.876,-13.901,-5.9396
16779.0,-104.12,-19.876,-15.901,-6.9396
16789.0,-114.12,-22.876,-16.901,-6.9396
16799.0,-125.12,-24.876,-17.901,-6.9396
16809.0,-132.12,-27.876,-16.901,-5.9396
16819.0,-142.12,-30.876,-17.901,-5.9396
16828.0,-151.12,-33.876,-17.901,-4.9396
16838.0,-160.12,-34.876,-17.901,-4.9396
16848.0,-160.12,-34.876,-19.901,-5.9396
16858.0,-174.12,-37.876,-21.901,-6.9396
16868.0,-174.12,-37.876,-18.901,-4.9396
16878.0,-147.12,-28.876,-21.901,-5.9396
16888.0,-147.12,-28.876,-23.901,-6.9396
16898.0,-94.119,-12.876,-27.901,-10.94
16908.0,-94.119,-12.876,-31.901,-14.94
16917.0,-31.119,5.1238,-32.901,-15.94
16927.0,-31.119,5.1238,-31.901,-18.94
16937.0,36.881,22.124,-29.901,-20.94
16947.0,36.881,22.124,-28.901,-19.94
16957.0,90.881,37.124,-25.901,-19.94
16967.0,90.881,37.124,-20.901,-17.94
16977.0,132.88,49.124,-20.901,-17.94
16987.0,132.88,49.124,-12.901,-18.94
16996.0,151.88,54.124,-12.901,-18.94
17006.0,168.88,56.124,-7.9007,-14.94
17016.0,178.88,61.124,-7.9007,-14.94
17026.0,188.88,63.124,-1.9007,-13.94
17036.0,196.88,65.124,-1.9007,-13.94
17046.0,198.88,66.124,2.0993,-9.9396
17056.0,195.88,64.124,2.0993,-9.9396
17066.0,189.88,61.124,8.0993,-5.9396
17076.0,176.88,58.124,8.0993,-5.9396
17085.0,164.88,54.124,8.0993,-3.9396
17095.0,152.88,51.124,8.0993,-3.9396
17105.0,138.88,46.124,10.099,-1.9396
17115.0,123.88,42.124,10.099,-1.9396
17125.0,109.88,37.124,12.099,0.06044
17135.0,96.881,33.124,12.099,0.06044
17145.0,82.881,30.124,11.099,2.0604
17155.0,69.881,24.124,11.099,2.0604
17165.0,53.881,21.124,12.099,3.0604
17174.0,42.881,16.124,12.099,3.0604
17184.0,27.881,13.124,10.099,2.0604
17194.0,16.881,8.1238,10.099,2.0604
17204.0,3.8808,5.1238,8.0993,2.0604
17214.0,-7.1192,0.12378,9.0993,2.0604
17224.0,-18.119,-2.8762,8.0993,3.0604
17234.0,-30.119,-6.8762,7.0993,3.0604
17244.0,-40.119,-9.8762,5.0993,3.0604
17254.0,-54.119,-13.876,4.0993,2.0604
17263.0,-64.119,-17.876,5.0993,2.0604
17273.0,-77.119,-21.876,5.0993,3.0604
17283.0,-89.119,-24.876,3.0993,4.0604
17293.0,-101.12,-29.876,3.0993,3.0604
17303.0,-114.12,-33.876,4.0993,3.0604
17313.0,-129.12,-37.876,2.0993,4.0604
17323.0,-142.12,-40.876,2.0993,4.0604
17333.0,-156.12,-45.876,1.0993,4.0604
17342.0,-171.12,-49.876,0.099262,3.0604
17352.0,-185.12,-52.876,1.0993,4.0604
17362.0,-197.12,-57.876,-0.90074,4.0604
17372.0,-209.12,-60.876,-0.90074,4.0604
17382.0,-223.12,-64.876,-1.9007,4.0604
17392.0,-237.12,-68.876,-2.9007,4.0604
17402.0,-249.12,-70.876,-3.9007,3.0604
17412.0,-254.12,-72.876,-7.9007,3.0604
17422.0,-250.12,-70.876,-6.9007,4.0604
17431.0,-237.12,-64.876,-8.9007,3.0604
17441.0,-215.12,-58.876,-9.9007,2.0604
17451.0,-186.12,-51.876,-12.901,2.0604
17461.0,-156.12,-42.876,-16.901,-4.9396
17471.0,-127.12,-34.876,-18.901,-6.9396
17481.0,-97.119,-25.876,-17.901,-9.9396
17491.0,-71.119,-19.876,-16.901,-9.9396
17501.0,-45.119,-13.876,-12.901,-9.9396
17511.0,-24.119,-8.8762,-10.901,-9.9396
17520.0,-5.1192,-3.8762,-8.9007,-11.94
17530.0,13.881,2.1238,-3.9007,-9.9396
17540.0,30.881,6.1238,0.099262,-8.9396
17550.0,43.881,10.124,3.0993,-8.9396
17560.0,58.881,13.124,4.0993,-6.9396
17570.0,65.881,15.124,9.0993,-5.9396
17580.0,65.881,15.124,9.0993,-5.9396
17590.0,69.881,17.124,12.099,-3.9396
17600.0,69.881,17.124,14.099,-3.9396
17609.0,55.881,10.124,14.099,-1.9396
17619.0,55.881,10.124,15.099,-0.93956
17629.0,36.881,6.1238,16.099,-1.9396
17639.0,36.881,6.1238,16.099,0.06044
17649.0,20.881,1.1238,16.099,0.06044
17659.0,20.881,1.1238,15.099,2.0604
17669.0,3.8808,-2.8762,14.099,2.0604
17679.0,3.8808,-2.8762,15.099,3.0604
17688.0,-12.119,-7.8762,15.099,3.0604
17698.0,-12.119,-7.8762,14.099,2.0604
17708.0,-21.119,-11.876,12.099,3.0604
17718.0,-29.119,-13.876,13.099,2.0604
17728.0,-37.119,-16.876,10.099,3.0604
17738.0,-46.119,-19.876,9.0993,3.0604
17748.0,-58.119,-22.876,9.0993,2.0604
17758.0,-67.119,-27.876,6.0993,0.06044
17768.0,-79.119,-28.876,7.0993,1.0604
17777.0,-89.119,-32.876,5.0993,0.06044
17787.0,-101.12,-34.876,4.0993,0.06044
17797.0,-112.12,-40.876,2.0993,0.06044
17807.0,-123.12,-43.876,1.0993,0.06044
17817.0,-135.12,-46.876,1.0993,-0.93956
17827.0,-148.12,-50.876,-0.90074,-1.9396
17837.0,-159.12,-55.876,-1.9007,-1.9396
17847.0,-172.12,-58.876,0.099262,-0.93956
17857.0,-182.12,-60.876,-3.9007,-0.93956
17866.0,-192.12,-64.876,-4.9007,-0.93956
17876.0,-200.12,-66.876,-5.9007,-1.9396
17886.0,-210.12,-70.876,-6.9007,0.06044
17896.0,-218.12,-71.876,-7.9007,-1.9396
17906.0,-226.12,-75.876,-9.9007,-2.9396
17916.0,-235.12,-77.876,-11.901,-3.9396
17926.0,-245.12,-80.876,-12.901,-3.9396
17936.0,-252.12,-84.876,-14.901,-3.9396
17946.0,-260.12,-84.876,-14.901,-4.9396
17955.0,-266.12,-86.876,-15.901,-3.9396
17965.0,-265.12,-85.876,-17.901,-5.9396
17975.0,-255.12,-79.876,-17.901,-3.9396
17985.0,-233.12,-72.876,-19.901,-3.9396
17995.0,-206.12,-64.876,-24.901,-7.9396
18005.0,-177.12,-55.876,-29.901,-11.94
18015.0,-145.12,-47.876,-29.901,-15.94
18025.0,-114.12,-38.876,-29.901,-15.94
18034.0,-83.119,-30.876,-28.901,-19.94
18044.0,-55.119,-21.876,-28.901,-19.94
18054.0,-31.119,-15.876,-24.901,-21.94
18064.0,-8.1192,-8.8762,-24.901,-21.94
18074.0,11.881,-3.8762,-19.901,-20.94
18084.0,28.881,0.12378,-19.901,-20.94
18094.0,45.881,6.1238,-15.901,-19.94
18104.0,57.881,10.124,-15.901,-19.94
18114.0,68.881,13.124,-11.901,-17.94
18123.0,77.881,15.124,-11.901,-17.94
18133.0,80.881,17.124,-8.9007,-16.94
18143.0,82.881,18.124,-8.9007,-16.94
18153.0,76.881,16.124,-10.901,-16.94
18163.0,69.881,15.124,-10.901,-16.94
18173.0,64.881,15.124,-8.9007,-14.94
18183.0,57.881,13.124,-8.9007,-14.94
18193.0,48.881,11.124,-7.9007,-13.94
18203.0,42.881,9.1238,-7.9007,-13.94
18212.0,36.881,7.1238,-10.901,-11.94
18222.0,30.881,6.1238,-10.901,-11.94
18232.0,25.881,4.1238,-13.901,-12.94
18242.0,17.881,3.1238,-13.901,-12.94
18252.0,10.881,1.1238,-12.901,-13.94
18262.0,0.88077,-0.87622,-15.901,-13.94
18272.0,-8.1192,-4.8762,-16.901,-14.94
18282.0,-17.119,-8.8762,-20.901,-14.94
18292.0,-17.119,-8.8762,-19.901,-14.94
18301.0,-40.119,-13.876,-22.901,-15.94
18311.0,-40.119,-13.876,-23.901,-15.94
18321.0,-61.119,-19.876,-23.901,-16.94
18331.0,-61.119,-19.876,-25.901,-16.94
18341.0,-85.119,-25.876,-25.901,-17.94
18351.0,-85.119,-25.876,-27.901,-17.94
18361.0,-107.12,-29.876,-28.901,-17.94
18371.0,-107.12,-29.876,-30.901,-18.94
18380.0,-126.12,-35.876,-31.901,-17.94
18390.0,-126.12,-35.876,-32.901,-19.94
18400.0,-145.12,-41.876,-31.901,-19.94
18410.0,-145.12,-41.876,-33.901,-19.94
18420.0,-165.12,-46.876,-37.901,-19.94
18430.0,-165.12,-46.876,-36.901,-19.94
18440.0,-176.12,-49.876,-38.901,-20.94
18450.0,-188.12,-52.876,-37.901,-19.94
18460.0,-199.12,-54.876,-40.901,-20.94
18469.0,-208.12,-59.876,-41.901,-21.94
18479.0,-221.12,-60.876,-42.901,-20.94
18489.0,-229.12,-63.876,-44.901,-20.94
18499.0,-240.12,-67.876,-44.901,-19.94
18509.0,-243.12,-68.876,-45.901,-21.94
18519.0,-236.12,-63.876,-49.901,-22.94
18529.0,-216.12,-57.876,-50.901,-23.94
18539.0,-190.12,-49.876,-52.901,-24.94
18549.0,-164.12,-42.876,-56.901,-27.94
18558.0,-136.12,-35.876,-58.901,-30.94
18568.0,-106.12,-26.876,-59.901,-33.94
18578.0,-73.119,-17.876,-57.901,-34.94
18588.0,-41.119,-7.8762,-54.901,-36.94
18598.0,-13.119,-0.87622,-53.901,-38.94
18608.0,11.881,7.1238,-50.901,-36.94
18618.0,33.881,13.124,-47.901,-38.94
18628.0,52.881,18.124,-45.901,-36.94
18638.0,70.881,23.124,-43.901,-36.94
18647.0,83.881,27.124,-42.901,-35.94
18657.0,93.881,30.124,-37.901,-34.94
18667.0,101.88,32.124,-36.901,-35.94
18677.0,108.88,34.124,-34.901,-33.94
18687.0,109.88,35.124,-33.901,-30.94
18697.0,107.88,34.124,-32.901,-30.94
18707.0,102.88,34.124,-30.901,-29.94
18717.0,92.881,30.124,-29.901,-28.94
18726.0,84.881,28.124,-28.901,-27.94
18736.0,77.881,26.124,-27.901,-25.94
18746.0,67.881,25.124,-26.901,-24.94
18756.0,56.881,21.124,-27.901,-25.94
18766.0,48.881,18.124,-27.901,-24.94
18776.0,40.881,17.124,-26.901,-22.94
18786.0,35.881,15.124,-28.901,-22.94
18796.0,24.881,13.124,-28.901,-22.94
18806.0,15.881,10.124,-29.901,-23.94
18815.0,7.8808,8.1238,-31.901,-22.94
18825.0,-2.1192,6.1238,-33.901,-23.94
18835.0,-11.119,2.1238,-34.901,-23.94
18845.0,-21.119,0.12378,-34.901,-23.94
18855.0,-29.119,-3.8762,-35.901,-23.94
18865.0,-42.119,-5.8762,-36.901,-24.94
18875.0,-52.119,-7.8762,-35.901,-23.94
18885.0,-60.119,-10.876,-38.901,-23.94
18895.0,-69.119,-15.876,-40.901,-23.94
18904.0,-81.119,-15.876,-39.901,-23.94
18914.0,-90.119,-17.876,-41.901,-24.94
18924.0,-102.12,-21.876,-41.901,-23.94
18934.0,-112.12,-25.876,-42.901,-24.94
18944.0,-121.12,-27.876,-42.901,-23.94
18954.0,-132.12,-30.876,-44.901,-23.94
18964.0,-142.12,-34.876,-44.901,-24.94
18974.0,-151.12,-35.876,-47.901,-24.94
18984.0,-164.12,-39.876,-47.901,-25.94
18993.0,-173.12,-40.876,-48.901,-24.94
19003.0,-183.12,-44.876,-49.901,-25.94
19013.0,-195.12,-48.876,-49.901,-23.94
19023.0,-195.12,-48.876,-51.901,-24.94
19033.0,-217.12,-52.876,-50.901,-24.94
19043.0,-217.12,-52.876,-52.901,-24.94
19053.0,-217.12,-50.876,-55.901,-24.94
19063.0,-217.12,-50.876,-55.901,-24.94
19072.0,-176.12,-36.876,-55.901,-24.94
19082.0,-176.12,-36.876,-59.901,-27.94
19092.0,-124.12,-23.876,-59.901,-27.94
19102.0,-124.12,-23.876,-65.901,-34.94
19112.0,-58.119,-5.8762,-65.901,-34.94
19122.0,-58.119,-5.8762,-61.901,-37.94
19132.0,2.8808,11.124,-61.901,-37.94
19142.0,2.8808,11.124,-55.901,-36.94
19152.0,52.881,24.124,-55.901,-36.94
19161.0,52.881,24.124,-47.901,-37.94
19171.0,75.881,31.124,-47.901,-37.94
19181.0,92.881,36.124,-41.901,-34.94
19191.0,110.88,41.124,-41.901,-34.94
19201.0,124.88,45.124,-35.901,-32.94
19211.0,136.88,47.124,-35.901,-32.94
19221.0,143.88,51.124,-30.901,-29.94
19231.0,149.88,52.124,-30.901,-29.94
19241.0,151.88,53.124,-26.901,-27.94
19250.0,147.88,51.124,-26.901,-27.94
19260.0,140.88,49.124,-25.901,-25.94
19270.0,130.88,47.124,-25.901,-24.94
19280.0,124.88,44.124,-23.901,-23.94
19290.0,116.88,43.124,-21.901,-22.94
19300.0,106.88,40.124,-20.901,-19.94
19310.0,97.881,37.124,-20.901,-20.94
19320.0,89.881,35.124,-19.901,-18.94
19330.0,80.881,32.124,-21.901,-17.94
19339.0,72.881,31.124,-22.901,-16.94
19349.0,62.881,27.124,-22.901,-18.94
19359.0,56.881,25.124,-22.901,-18.94
19369.0,47.881,21.124,-24.901,-16.94
19379.0,37.881,19.124,-23.901,-16.94
19389.0,26.881,15.124,-23.901,-17.94
19399.0,19.881,14.124,-25.901,-17.94
19409.0,8.8808,11.124,-25.901,-16.94
19418.0,-2.1192,7.1238,-25.901,-15.94
19428.0,-13.119,5.1238,-29.901,-17.94
19438.0,-22.119,2.1238,-28.901,-16.94
19448.0,-31.119,0.12378,-28.901,-16.94
19458.0,-39.119,-2.8762,-29.901,-15.94
19468.0,-47.119,-4.8762,-29.901,-15.94
19478.0,-56.119,-8.8762,-28.901,-15.94
19488.0,-65.119,-9.8762,-28.901,-14.94
19498.0,-72.119,-12.876,-28.901,-14.94
19507.0,-80.119,-15.876,-29.901,-12.94
19517.0,-88.119,-16.876,-30.901,-12.94
19527.0,-97.119,-18.876,-30.901,-12.94
19537.0,-105.12,-20.876,-31.901,-13.94
19547.0,-113.12,-23.876,-31.901,-12.94
19557.0,-124.12,-25.876,-32.901,-13.94
19567.0,-131.12,-27.876,-33.901,-11.94
19577.0,-141.12,-29.876,-35.901,-12.94
19587.0,-146.12,-32.876,-34.901,-12.94
19596.0,-147.12,-31.876,-33.901,-10.94
19606.0,-132.12,-26.876,-35.901,-12.94
19616.0,-111.12,-20.876,-36.901,-11.94
19626.0,-87.119,-13.876,-36.901,-13.94
19636.0,-59.119,-4.8762,-41.901,-16.94
19646.0,-32.119,2.1238,-43.901,-20.94
19656.0,1.8808,11.124,-41.901,-21.94
19666.0,32.881,20.124,-42.901,-24.94
19675.0,59.881,27.124,-38.901,-23.94
19685.0,84.881,34.124,-34.901,-23.94
19695.0,105.88,40.124,-31.901,-24.94
19705.0,123.88,44.124,-29.901,-21.94
19715.0,140.88,48.124,-23.901,-21.94
19725.0,152.88,52.124,-19.901,-19.94
19735.0,163.88,55.124,-18.901,-19.94
19745.0,170.88,56.124,-15.901,-17.94
19755.0,170.88,56.124,-12.901,-17.94
19764.0,177.88,57.124,-8.9007,-15.94
19774.0,177.88,57.124,-7.9007,-14.94
19784.0,165.88,54.124,-4.9007,-12.94
19794.0,165.88,54.124,-4.9007,-12.94
19804.0,146.88,47.124,-1.9007,-9.9396
19814.0,146.88,47.124,-0.90074,-8.9396
19824.0,127.88,41.124,2.0993,-7.9396
19834.0,127.88,41.124,2.0993,-6.9396
19844.0,105.88,34.124,2.0993,-4.9396
19853.0,105.88,34.124,3.0993,-5.9396
19863.0,89.881,29.124,4.0993,-2.9396
19873.0,89.881,29.124,3.0993,-3.9396
19883.0,71.881,24.124,2.0993,-2.9396
19893.0,71.881,24.124,0.099262,-2.9396
19903.0,62.881,21.124,0.099262,-2.9396
19913.0,53.881,18.124,-0.90074,-2.9396
19923.0,44.881,14.124,0.099262,-2.9396
19933.0,34.881,11.124,-0.90074,-1.9396
19942.0,24.881,9.1238,-1.9007,-1.9396
19952.0,16.881,6.1238,-1.9007,-1.9396
19962.0,7.8808,3.1238,-3.9007,-0.93956
19972.0,-0.11923,0.12378,-2.9007,-0.93956
19982.0,-10.119,-1.8762,-3.9007,-0.93956
19992.0,-21.119,-5.8762,-3.9007,-0.93956
20002.0,-27.119,-7.8762,-0.90074,0.06044
20012.0,-36.119,-10.876,-2.9007,0.06044
20021.0,-45.119,-13.876,-2.9007,0.06044
20031.0,-54.119,-15.876,-3.9007,1.0604
20041.0,-66.119,-20.876,-3.9007,1.0604
20051.0,-77.119,-22.876,-5.9007,1.0604
20061.0,-89.119,-26.876,-5.9007,1.0604
20071.0,-103.12,-30.876,-6.9007,3.0604
20081.0,-114.12,-33.876,-6.9007,3.0604
20091.0,-126.12,-36.876,-6.9007,2.0604
20101.0,-140.12,-40.876,-6.9007,2.0604
20110.0,-153.12,-46.876,-7.9007,2.0604
20120.0,-165.12,-49.876,-7.9007,2.0604
20130.0,-179.12,-52.876,-8.9007,2.0604
20140.0,-188.12,-55.876,-8.9007,2.0604
20150.0,-190.12,-55.876,-8.9007,2.0604
20160.0,-183.12,-49.876,-8.9007,2.0604
20170.0,-165.12,-46.876,-10.901,2.0604
20180.0,-141.12,-39.876,-10.901,2.0604
20190.0,-115.12,-32.876,-16.901,-4.9396
20199.0,-89.119,-25.876,-16.901,-4.9396
20209.0,-60.119,-16.876,-14.901,-7.9396
20219.0,-32.119,-8.8762,-14.901,-7.9396
20229.0,-11.119,-2.8762,-9.9007,-7.9396
20239.0,7.8808,2.1238,-9.9007,-7.9396
20249.0,28.881,6.1238,-5.9007,-7.9396
20259.0,43.881,12.124,-2.9007,-9.9396
20269.0,60.881,14.124,2.0993,-7.9396
20279.0,70.881,18.124,3.0993,-7.9396
20288.0,84.881,21.124,8.0993,-6.9396
20298.0,93.881,24.124,8.0993,-4.9396
20308.0,95.881,25.124,12.099,-3.9396
20318.0,97.881,26.124,14.099,-2.9396
20328.0,95.881,24.124,16.099,-1.9396
20338.0,88.881,22.124,17.099,0.06044
20348.0,81.881,19.124,18.099,0.06044
20358.0,73.881,18.124,19.099,2.0604
20367.0,66.881,16.124,20.099,3.0604
20377.0,57.881,12.124,21.099,3.0604
20387.0,51.881,11.124,23.099,4.0604
20397.0,45.881,9.1238,21.099,4.0604
20407.0,36.881,8.1238,22.099,5.0604
20417.0,29.881,4.1238,21.099,4.0604
20427.0,20.881,1.1238,21.099,5.0604
20437.0,10.881,-1.8762,19.099,5.0604
20447.0,-0.11923,-4.8762,20.099,5.0604
20456.0,-11.119,-6.8762,16.099,5.0604
20466.0,-20.119,-9.8762,16.099,3.0604
20476.0,-30.119,-12.876,14.099,4.0604
20486.0,-30.119,-12.876,15.099,2.0604
20496.0,-50.119,-18.876,14.099,3.0604
20506.0,-50.119,-18.876,13.099,3.0604
20516.0,-72.119,-24.876,13.099,4.0604
20526.0,-72.119,-24.876,12.099,2.0604
20536.0,-92.119,-30.876,11.099,3.0604
20545.0,-92.119,-30.876,10.099,3.0604
20555.0,-115.12,-36.876,9.0993,2.0604
20565.0,-115.12,-36.876,10.099,3.0604
20575.0,-137.12,-45.876,9.0993,3.0604
20585.0,-137.12,-45.876,10.099,3.0604
20595.0,-155.12,-49.876,5.0993,3.0604
20605.0,-155.12,-49.876,4.0993,3.0604
20615.0,-167.12,-52.876,3.0993,1.0604
20625.0,-178.12,-55.876,3.0993,3.0604
20634.0,-187.12,-57.876,1.0993,2.0604
20644.0,-197.12,-60.876,0.099262,1.0604
20654.0,-204.12,-62.876,0.099262,3.0604
20664.0,-214.12,-65.876,-1.9007,2.0604
20674.0,-224.12,-68.876,-1.9007,0.06044
20684.0,-234.12,-70.876,-5.9007,0.06044
20694.0,-237.12,-70.876,-4.9007,-0.93956
20704.0,-234.12,-70.876,-7.9007,-0.93956
20713.0,-218.12,-63.876,-6.9007,-0.93956
20723.0,-197.12,-58.876,-10.901,-2.9396
20733.0,-171.12,-50.876,-13.901,-4.9396
20743.0,-142.12,-43.876,-16.901,-7.9396
20753.0,-112.12,-35.876,-16.901,-10.94
20763.0,-83.119,-27.876,-13.901,-11.94
20773.0,-58.119,-21.876,-13.901,-13.94
20783.0,-34.119,-14.876,-7.9007,-14.94
20793.0,-12.119,-8.8762,-4.9007,-14.94
20802.0,6.8808,-4.8762,-1.9007,-14.94
20812.0,26.881,0.12378,2.0993,-13.94
20822.0,42.881,5.1238,4.0993,-12.94
20832.0,57.881,9.1238,4.0993,-11.94
20842.0,68.881,12.124,7.0993,-10.94
20852.0,76.881,14.124,8.0993,-10.94
20862.0,82.881,16.124,11.099,-10.94
20872.0,83.881,16.124,12.099,-9.9396
20882.0,80.881,13.124,12.099,-8.9396
20891.0,72.881,11.124,14.099,-7.9396
20901.0,65.881,9.1238,15.099,-5.9396
20911.0,58.881,9.1238,15.099,-4.9396
20921.0,49.881,5.1238,16.099,-4.9396
20931.0,43.881,4.1238,15.099,-3.9396
20941.0,35.881,1.1238,15.099,-4.9396
20951.0,28.881,-0.87622,14.099,-2.9396
20961.0,24.881,-2.8762,14.099,-3.9396
20971.0,15.881,-4.8762,14.099,-3.9396
20980.0,9.8808,-5.8762,12.099,-2.9396
20990.0,0.88077,-9.8762,11.099,-3.9396
21000.0,-8.1192,-12.876,10.099,-2.9396
21010.0,-18.119,-14.876,7.0993,-4.9396
21020.0,-26.119,-17.876,9.0993,-3.9396
21030.0,-36.119,-21.876,7.0993,-4.9396
21040.0,-44.119,-23.876,6.0993,-5.9396
21050.0,-52.119,-25.876,4.0993,-5.9396
21059.0,-60.119,-27.876,3.0993,-5.9396
21069.0,-66.119,-29.876,3.0993,-5.9396
21079.0,-75.119,-33.876,1.0993,-5.9396
21089.0,-82.119,-34.876,1.0993,-5.9396
21099.0,-92.119,-36.876,-1.9007,-7.9396
21109.0,-97.119,-38.876,-1.9007,-7.9396
21119.0,-103.12,-39.876,-3.9007,-8.9396
21129.0,-110.12,-41.876,-3.9007,-8.9396
21139.0,-118.12,-43.876,-6.9007,-9.9396
21148.0,-124.12,-44.876,-6.9007,-9.9396
21158.0,-132.12,-47.876,-8.9007,-9.9396
21168.0,-142.12,-49.876,-8.9007,-9.9396
21178.0,-150.12,-51.876,-11.901,-9.9396
21188.0,-159.12,-55.876,-11.901,-9.9396
21198.0,-170.12,-57.876,-12.901,-10.94
21208.0,-178.12,-60.876,-12.901,-10.94
21218.0,-178.12,-60.876,-16.901,-10.94
21228.0,-196.12,-64.876,-16.901,-10.94
21237.0,-196.12,-64.876,-18.901,-9.9396
21247.0,-180.12,-59.876,-18.901,-9.9396
21257.0,-180.12,-59.876,-21.901,-11.94
21267.0,-133.12,-45.876,-21.901,-11.94
21277.0,-133.12,-45.876,-27.901,-19.94
21287.0,-72.119,-27.876,-27.901,-19.94
21297.0,-72.119,-27.876,-30.901,-20.94
21307.0,-6.1192,-9.8762,-26.901,-20.94
21317.0,-6.1192,-9.8762,-24.901,-22.94
21326.0,50.881,7.1238,-21.901,-24.94
21336.0,50.881,7.1238,-18.901,-22.94
21346.0,73.881,13.124,-15.901,-22.94
21356.0,92.881,19.124,-10.901,-20.94
21366.0,109.88,23.124,-6.9007,-20.94
21376.0,125.88,27.124,-5.9007,-18.94
21386.0,136.88,31.124,-1.9007,-18.94
21396.0,147.88,34.124,1.0993,-17.94
21405.0,159.88,37.124,1.0993,-17.94
21415.0,164.88,37.124,2.0993,-17.94
21425.0,163.88,38.124,5.0993,-15.94
21435.0,160.88,38.124,9.0993,-13.94
21445.0,152.88,35.124,8.0993,-11.94
21455.0,143.88,33.124,10.099,-11.94
21465.0,135.88,30.124,12.099,-9.9396
21475.0,125.88,29.124,13.099,-8.9396
21485.0,115.88,26.124,13.099,-7.9396
21494.0,108.88,23.124,13.099,-6.9396
21504.0,100.88,20.124,12.099,-5.9396
21514.0,91.881,19.124,13.099,-5.9396
21524.0,84.881,17.124,12.099,-4.9396
21534.0,75.881,16.124,10.099,-5.9396
21544.0,67.881,12.124,10.099,-5.9396
21554.0,59.881,9.1238,7.0993,-6.9396
21564.0,48.881,6.1238,6.0993,-4.9396
21574.0,39.881,4.1238,5.0993,-5.9396
21583.0,30.881,1.1238,6.0993,-5.9396
21593.0,20.881,-0.87622,2.0993,-5.9396
21603.0,9.8808,-3.8762,2.0993,-6.9396
21613.0,1.8808,-5.8762,2.0993,-5.9396
21623.0,-8.1192,-8.8762,3.0993,-6.9396
21633.0,-17.119,-10.876,0.099262,-6.9396
21643.0,-26.119,-13.876,-0.90074,-7.9396
21653.0,-36.119,-16.876,-1.9007,-7.9396
21663.0,-46.119,-18.876,-0.90074,-7.9396
21672.0,-55.119,-20.876,-2.9007,-6.9396
21682.0,-66.119,-24.876,-2.9007,-7.9396
21692.0,-75.119,-27.876,-4.9007,-9.9396
21702.0,-83.119,-29.876,-6.9007,-9.9396
21712.0,-96.119,-32.876,-8.9007,-8.9396
21722.0,-105.12,-35.876,-7.9007,-9.9396
21732.0,-114.12,-37.876,-11.901,-8.9396
21742.0,-126.12,-40.876,-11.901,-9.9396
21751.0,-137.12,-43.876,-12.901,-8.9396
21761.0,-146.12,-47.876,-12.901,-8.9396
21771.0,-155.12,-49.876,-14.901,-9.9396
21781.0,-154.12,-47.876,-13.901,-9.9396
21791.0,-139.12,-43.876,-15.901,-9.9396
21801.0,-117.12,-37.876,-18.901,-8.9396
21811.0,-94.119,-29.876,-21.901,-12.94
21821.0,-65.119,-21.876,-24.901,-15.94
21831.0,-34.119,-14.876,-26.901,-17.94
21840.0,-0.11923,-3.8762,-25.901,-20.94
21850.0,33.881,7.1238,-21.901,-21.94
21860.0,63.881,15.124,-17.901,-21.94
21870.0,90.881,23.124,-14.901,-21.94
21880.0,116.88,30.124,-10.901,-21.94
21890.0,135.88,37.124,-4.9007,-19.94
21900.0,157.88,43.124,-2.9007,-17.94
21910.0,174.88,48.124,-0.90074,-17.94
21920.0,190.88,52.124,3.0993,-15.94
21929.0,190.88,52.124,7.0993,-15.94
21939.0,217.88,62.124,9.0993,-13.94
21949.0,217.88,62.124,11.099,-12.94
21959.0,233.88,66.124,14.099,-12.94
21969.0,233.88,66.124,15.099,-12.94
21979.0,229.88,66.124,16.099,-10.94
21989.0,229.88,66.124,18.099,-9.9396
21999.0,213.88,60.124,18.099,-9.9396
22009.0,213.88,60.124,19.099,-7.9396
22018.0,196.88,57.124,19.099,-5.9396
22028.0,196.88,57.124,23.099,-3.9396
22038.0,179.88,52.124,21.099,-3.9396
22048.0,179.88,52.124,21.099,-1.9396
22058.0,169.88,49.124,21.099,-2.9396
22068.0,169.88,49.124,20.099,-1.9396
22078.0,163.88,47.124,20.099,-1.9396
22088.0,157.88,45.124,17.099,-2.9396
22097.0,149.88,42.124,17.099,-2.9396
22107.0,140.88,42.124,16.099,-2.9396
22117.0,132.88,37.124,16.099,-2.9396
22127.0,120.88,34.124,15.099,-1.9396
22137.0,110.88,31.124,15.099,-1.9396
22147.0,99.881,28.124,13.099,-2.9396
22157.0,89.881,25.124,13.099,-2.9396
22167.0,77.881,22.124,12.099,-1.9396
22177.0,66.881,19.124,12.099,-1.9396
22186.0,55.881,16.124,14.099,-2.9396
22196.0,45.881,12.124,14.099,-2.9396
22206.0,33.881,9.1238,10.099,-1.9396
22216.0,23.881,6.1238,10.099,-1.9396
22226.0,13.881,3.1238,12.099,-1.9396
22236.0,3.8808,1.1238,12.099,-1.9396
22246.0,-5.1192,-2.8762,8.0993,-2.9396
22256.0,-14.119,-5.8762,8.0993,-2.9396
22266.0,-23.119,-7.8762,6.0993,-2.9396
22275.0,-34.119,-9.8762,5.0993,-3.9396
22285.0,-47.119,-12.876,4.0993,-3.9396
22295.0,-58.119,-16.876,5.0993,-3.9396
22305.0,-68.119,-20.876,3.0993,-2.9396
22315.0,-79.119,-22.876,2.0993,-2.9396
22325.0,-88.119,-25.876,-0.90074,-2.9396
22335.0,-79.119,-21.876,2.0993,-2.9396
22345.0,-62.119,-16.876,1.0993,-2.9396
22355.0,-41.119,-10.876,-2.9007,-4.9396
22364.0,-17.119,-4.8762,-3.9007,-5.9396
22374.0,6.8808,2.1238,-5.9007,-7.9396
22384.0,35.881,8.1238,-5.9007,-9.9396
22394.0,63.881,16.124,0.099262,-10.94
22404.0,83.881,22.124,4.0993,-8.9396
22414.0,101.88,26.124,9.0993,-8.9396
22424.0,122.88,32.124,15.099,-7.9396
22434.0,139.88,34.124,18.099,-7.9396
22443.0,151.88,39.124,22.099,-5.9396
22453.0,162.88,40.124,25.099,-4.9396
22463.0,174.88,43.124,31.099,-4.9396
22473.0,183.88,45.124,35.099,-1.9396
22483.0,193.88,48.124,36.099,-1.9396
22493.0,199.88,48.124,39.099,0.06044
22503.0,201.88,48.124,41.099,-0.93956
22513.0,198.88,48.124,42.099,2.0604
22523.0,189.88,44.124,46.099,3.0604
22532.0,178.88,41.124,46.099,4.0604
22542.0,168.88,38.124,46.099,4.0604
22552.0,155.88,35.124,48.099,5.0604
22562.0,143.88,29.124,47.099,5.0604
22572.0,126.88,26.124,47.099,7.0604
22582.0,114.88,20.124,48.099,7.0604
22592.0,102.88,17.124,47.099,8.0604
22602.0,92.881,14.124,48.099,9.0604
22612.0,77.881,11.124,46.099,8.0604
22621.0,65.881,7.1238,44.099,9.0604
22631.0,55.881,4.1238,44.099,8.0604
22641.0,46.881,1.1238,42.099,8.0604
22651.0,33.881,-1.8762,43.099,8.0604
22661.0,33.881,-1.8762,42.099,8.0604
22671.0,12.881,-7.8762,41.099,9.0604
22681.0,12.881,-7.8762,40.099,8.0604
22691.0,-10.119,-15.876,38.099,7.0604
22701.0,-10.119,-15.876,37.099,7.0604
22710.0,-30.119,-19.876,38.099,6.0604
22720.0,-30.119,-19.876,37.099,8.0604
22730.0,-50.119,-25.876,35.099,7.0604
22740.0,-50.119,-25.876,37.099,8.0604
22750.0,-71.119,-31.876,34.099,7.0604
22760.0,-71.119,-31.876,32.099,7.0604
22770.0,-93.119,-38.876,34.099,7.0604
22780.0,-93.119,-38.876,33.099,7.0604
22789.0,-117.12,-43.876,32.099,7.0604
22799.0,-117.12,-43.876,30.099,7.0604
22809.0,-128.12,-47.876,28.099,8.0604
22819.0,-140.12,-51.876,30.099,8.0604
22829.0,-150.12,-54.876,27.099,8.0604
22839.0,-162.12,-57.876,26.099,6.0604
22849.0,-173.12,-60.876,26.099,7.0604
22859.0,-185.12,-64.876,24.099,5.0604
22869.0,-192.12,-64.876,21.099,5.0604
22878.0,-189.12,-64.876,23.099,6.0604
22888.0,-175.12,-59.876,20.099,6.0604
22898.0,-156.12,-53.876,16.099,3.0604
22908.0,-129.12,-45.876,14.099,-0.93956
22918.0,-102.12,-39.876,10.099,-3.9396
22928.0,-71.119,-31.876,11.099,-6.9396
22938.0,-45.119,-23.876,15.099,-6.9396
22948.0,-18.119,-15.876,18.099,-6.9396
22958.0,6.8808,-9.8762,19.099,-6.9396
22967.0,24.881,-5.8762,25.099,-7.9396
22977.0,45.881,0.12378,27.099,-6.9396
22987.0,63.881,4.1238,34.099,-4.9396
22997.0,78.881,8.1238,35.099,-4.9396
23007.0,93.881,12.124,38.099,-3.9396
23017.0,102.88,14.124,41.099,-2.9396
23027.0,112.88,17.124,43.099,-1.9396
23037.0,117.88,19.124,44.099,-0.93956
23047.0,121.88,19.124,45.099,0.06044
23056.0,119.88,18.124,49.099,2.0604
23066.0,112.88,19.124,49.099,2.0604
23076.0,102.88,14.124,51.099,4.0604
23086.0,94.881,11.124,51.099,4.0604
23096.0,86.881,9.1238,54.099,6.0604
23106.0,76.881,6.1238,54.099,6.0604
23116.0,68.881,4.1238,53.099,8.0604
23126.0,59.881,0.12378,53.099,8.0604
23135.0,50.881,-2.8762,53.099,9.0604
23145.0,43.881,-3.8762,53.099,9.0604
23155.0,37.881,-6.8762,51.099,11.06
23165.0,27.881,-6.8762,51.099,11.06
23175.0,21.881,-9.8762,47.099,9.0604
23185.0,10.881,-11.876,47.099,9.0604
23195.0,2.8808,-14.876,46.099,9.0604
23205.0,-7.1192,-15.876,46.099,9.0604
23215.0,-17.119,-19.876,43.099,9.0604
23224.0,-27.119,-22.876,43.099,9.0604
23234.0,-38.119,-25.876,40.099,8.0604
23244.0,-48.119,-28.876,40.099,8.0604
23254.0,-59.119,-31.876,39.099,9.0604
23264.0,-70.119,-35.876,39.099,9.0604
23274.0,-82.119,-37.876,38.099,8.0604
23284.0,-94.119,-42.876,37.099,8.0604
23294.0,-105.12,-45.876,36.099,7.0604
23304.0,-117.12,-48.876,35.099,7.0604
23313.0,-131.12,-54.876,35.099,7.0604
23323.0,-144.12,-57.876,33.099,5.0604
23333.0,-154.12,-60.876,32.099,6.0604
23343.0,-167.12,-63.876,29.099,5.0604
23353.0,-177.12,-67.876,26.099,5.0604
23363.0,-191.12,-71.876,26.099,3.0604
23373.0,-200.12,-74.876,23.099,4.0604
23383.0,-211.12,-77.876,24.099,6.0604
23393.0,-211.12,-77.876,23.099,5.0604
23402.0,-227.12,-81.876,21.099,4.0604
23412.0,-227.12,-81.876,20.099,4.0604
23422.0,-213.12,-75.876,20.099,4.0604
23432.0,-213.12,-75.876,18.099,4.0604
23442.0,-164.12,-61.876,16.099,3.0604
23452.0,-164.12,-61.876,10.099,-1.9396
23462.0,-99.119,-43.876,9.0993,-5.9396
23472.0,-99.119,-43.876,9.0993,-7.9396
23481.0,-37.119,-24.876,7.0993,-10.94
23491.0,-37.119,-24.876,11.099,-11.94
23501.0,15.881,-11.876,13.099,-12.94
23511.0,15.881,-11.876,17.099,-12.94
23521.0,61.881,2.1238,20.099,-13.94
23531.0,61.881,2.1238,23.099,-11.94
23541.0,84.881,8.1238,26.099,-10.94
23551.0,103.88,13.124,28.099,-10.94
23561.0,121.88,20.124,31.099,-9.9396
23570.0,135.88,23.124,31.099,-9.9396
23580.0,148.88,29.124,36.099,-7.9396
23590.0,159.88,30.124,34.099,-7.9396
23600.0,166.88,34.124,38.099,-6.9396
23610.0,165.88,32.124,36.099,-5.9396
23620.0,160.88,30.124,38.099,-5.9396
23630.0,152.88,29.124,39.099,-5.9396
23640.0,145.88,28.124,40.099,-3.9396
23650.0,138.88,25.124,43.099,-0.93956
23659.0,130.88,23.124,41.099,-0.93956
23669.0,121.88,22.124,41.099,-0.93956
23679.0,114.88,19.124,41.099,1.0604
23689.0,105.88,18.124,39.099,1.0604
23699.0,100.88,17.124,39.099,2.0604
23709.0,93.881,15.124,39.099,3.0604
23719.0,85.881,13.124,36.099,3.0604
23729.0,79.881,11.124,36.099,2.0604
23739.0,69.881,8.1238,34.099,1.0604
23748.0,58.881,6.1238,33.099,2.0604
23758.0,48.881,3.1238,30.099,0.06044
23768.0,39.881,1.1238,29.099,-0.93956
23778.0,30.881,-0.87622,26.099,-0.93956
23788.0,19.881,-3.8762,27.099,-0.93956
23798.0,10.881,-5.8762,28.099,-2.9396
23808.0,1.8808,-8.8762,25.099,-0.93956
23818.0,-9.1192,-10.876,25.099,-0.93956
23827.0,-19.119,-13.876,25.099,1.0604
23837.0,-27.119,-15.876,23.099,0.06044
23847.0,-39.119,-19.876,23.099,0.06044
23857.0,-49.119,-22.876,23.099,0.06044
23867.0,-57.119,-23.876,19.099,0.06044
23877.0,-67.119,-26.876,17.099,-0.93956
23887.0,-76.119,-29.876,16.099,-1.9396
23897.0,-83.119,-30.876,14.099,-0.93956
23907.0,-93.119,-33.876,13.099,-1.9396
23916.0,-103.12,-36.876,11.099,-1.9396
23926.0,-113.12,-38.876,8.0993,-2.9396
23936.0,-122.12,-41.876,6.0993,-2.9396
23946.0,-129.12,-42.876,4.0993,-3.9396
23956.0,-128.12,-40.876,2.0993,-3.9396
23966.0,-113.12,-35.876,2.0993,-3.9396
23976.0,-90.119,-29.876,0.099262,-4.9396
23986.0,-64.119,-21.876,-5.9007,-8.9396
23996.0,-35.119,-13.876,-7.9007,-12.94
24005.0,-5.1192,-6.8762,-8.9007,-15.94
24015.0,28.881,1.1238,-8.9007,-15.94
24025.0,61.881,12.124,-5.9007,-18.94
24035.0,89.881,21.124,-3.9007,-18.94
24045.0,112.88,28.124,-0.90074,-19.94
24055.0,137.88,33.124,2.0993,-17.94
24065.0,160.88,40.124,2.0993,-18.94
24075.0,183.88,46.124,6.0993,-17.94
24085.0,201.88,51.124,9.0993,-17.94
24094.0,218.88,57.124,10.099,-17.94
24104.0,237.88,63.124,12.099,-16.94
24114.0,250.88,69.124,15.099,-14.94
24124.0,250.88,69.124,17.099,-14.94
24134.0,269.88,73.124,17.099,-14.94
24144.0,269.88,73.124,23.099,-11.94
24154.0,275.88,74.124,23.099,-11.94
24164.0,275.88,74.124,23.099,-9.9396
24173.0,258.88,70.124,23.099,-9.9396
24183.0,258.88,70.124,24.099,-9.9396
24193.0,244.88,66.124,24.099,-9.9396
24203.0,244.88,66.124,23.099,-7.9396
24213.0,227.88,61.124,23.099,-7.9396
24223.0,227.88,61.124,23.099,-7.9396
24233.0,214.88,57.124,23.099,-7.9396
24243.0,214.88,57.124,22.099,-7.9396
24253.0,201.88,54.124,22.099,-7.9396
24262.0,201.88,54.124,18.099,-8.9396
24272.0,196.88,52.124,18.099,-8.9396
24282.0,190.88,50.124,15.099,-8.9396
24292.0,182.88,49.124,15.099,-8.9396
24302.0,174.88,46.124,12.099,-9.9396
24312.0,166.88,44.124,12.099,-9.9396
24322.0,158.88,41.124,10.099,-9.9396
24332.0,149.88,39.124,8.0993,-10.94
24342.0,141.88,38.124,8.0993,-11.94
24351.0,134.88,36.124,7.0993,-12.94
24361.0,126.88,33.124,5.0993,-12.94
24371.0,118.88,30.124,4.0993,-14.94
24381.0,109.88,28.124,4.0993,-13.94
24391.0,98.881,26.124,2.0993,-13.94
24401.0,89.881,21.124,1.0993,-13.94
24411.0,80.881,19.124,-1.9007,-12.94
24421.0,72.881,16.124,-3.9007,-14.94
24431.0,59.881,12.124,-3.9007,-13.94
24440.0,50.881,9.1238,-4.9007,-14.94
24450.0,39.881,6.1238,-5.9007,-14.94
24460.0,28.881,4.1238,-5.9007,-14.94
24470.0,17.881,0.12378,-7.9007,-14.94
24480.0,6.8808,-2.8762,-9.9007,-15.94
24490.0,1.8808,-3.8762,-9.9007,-15.94
24500.0,5.8808,-0.87622,-11.901,-15.94
24510.0,24.881,5.1238,-13.901,-16.94
24519.0,49.881,13.124,-15.901,-14.94
24529.0,76.881,20.124,-18.901,-17.94
24539.0,104.88,28.124,-21.901,-23.94
24549.0,136.88,36.124,-22.901,-24.94
24559.0,169.88,43.124,-22.901,-26.94
24569.0,196.88,51.124,-18.901,-28.94
24579.0,221.88,59.124,-15.901,-29.94
24589.0,243.88,64.124,-12.901,-28.94
24599.0,263.88,69.124,-10.901,-27.94
24608.0,280.88,74.124,-6.9007,-27.94
24618.0,295.88,78.124,-3.9007,-26.94
24628.0,310.88,80.124,0.099262,-24.94
24638.0,323.88,85.124,2.0993,-23.94
24648.0,332.88,87.124,7.0993,-22.94
24658.0,338.88,89.124,11.099,-20.94
24668.0,346.88,90.124,12.099,-19.94
24678.0,348.88,92.124,13.099,-18.94
24688.0,346.88,91.124,18.099,-17.94
24697.0,339.88,89.124,19.099,-15.94
24707.0,326.88,84.124,19.099,-15.94
24717.0,313.88,81.124,20.099,-13.94
24727.0,299.88,77.124,24.099,-11.94
24737.0,286.88,73.124,24.099,-10.94
24747.0,270.88,69.124,26.099,-9.9396
24757.0,256.88,65.124,24.099,-8.9396
24767.0,243.88,60.124,26.099,-7.9396
24776.0,230.88,57.124,26.099,-7.9396
24786.0,217.88,54.124,25.099,-6.9396
24796.0,203.88,48.124,24.099,-6.9396
24806.0,190.88,44.124,24.099,-5.9396
24816.0,178.88,41.124,22.099,-5.9396
24826.0,169.88,38.124,20.099,-6.9396
24836.0,157.88,35.124,20.099,-6.9396
24846.0,148.88,32.124,20.099,-5.9396
24856.0,148.88,32.124,19.099,-6.9396
24865.0,133.88,29.124,17.099,-6.9396
24875.0,133.88,29.124,18.099,-6.9396
24885.0,117.88,24.124,17.099,-5.9396
24895.0,117.88,24.124,14.099,-5.9396
24905.0,97.881,18.124,13.099,-5.9396
24915.0,97.881,18.124,15.099,-6.9396
24925.0,71.881,11.124,10.099,-5.9396
24935.0,71.881,11.124,11.099,-6.9396
24945.0,38.881,1.1238,9.0993,-7.9396
24954.0,38.881,1.1238,8.0993,-7.9396
24964.0,4.8808,-9.8762,7.0993,-5.9396
24974.0,4.8808,-9.8762,8.0993,-5.9396
24984.0,-12.119,-12.876,5.0993,-6.9396
24994.0,-29.119,-18.876,3.0993,-6.9396
25004.0,-45.119,-23.876,3.0993,-6.9396
25014.0,-61.119,-28.876,3.0993,-6.9396
25024.0,-75.119,-32.876,2.0993,-6.9396
25034.0,-89.119,-36.876,1.0993,-7.9396
25043.0,-93.119,-36.876,-0.90074,-6.9396
25053.0,-82.119,-32.876,-0.90074,-6.9396
25063.0,-61.119,-26.876,-2.9007,-7.9396
25073.0,-31.119,-18.876,-5.9007,-11.94
25083.0,-3.1192,-10.876,-5.9007,-11.94
25093.0,30.881,-0.87622,-7.9007,-17.94
25103.0,63.881,8.1238,-7.9007,-17.94
25113.0,95.881,18.124,-3.9007,-19.94
25122.0,131.88,26.124,-3.9007,-19.94
25132.0,160.88,35.124,2.0993,-19.94
25142.0,190.88,42.124,2.0993,-19.94
25152.0,214.88,50.124,10.099,-18.94
25162.0,242.88,57.124,10.099,-18.94
25172.0,265.88,65.124,15.099,-17.94
25182.0,290.88,71.124,15.099,-17.94
25192.0,311.88,79.124,21.099,-14.94
25202.0,330.88,83.124,21.099,-14.94
25211.0,347.88,88.124,28.099,-11.94
25221.0,362.88,90.124,28.099,-11.94
25231.0,372.88,93.124,30.099,-9.9396
25241.0,379.88,96.124,30.099,-9.9396
25251.0,386.88,97.124,34.099,-6.9396
25261.0,392.88,98.124,34.099,-6.9396
25271.0,398.88,100.12,36.099,-5.9396
25281.0,404.88,101.12,36.099,-5.9396
25291.0,410.88,102.12,36.099,-2.9396
25300.0,413.88,102.12,38.099,-1.9396
25310.0,416.88,101.12,38.099,-1.9396
25320.0,418.88,100.12,37.099,0.06044
25330.0,420.88,97.124,37.099,0.06044
25340.0,420.88,96.124,38.099,0.06044
25350.0,419.88,93.124,37.099,1.0604
25360.0,414.88,91.124,36.099,2.0604
25370.0,410.88,86.124,36.099,1.0604
25380.0,402.88,83.124,35.099,1.0604
25389.0,395.88,78.124,33.099,1.0604
25399.0,383.88,74.124,32.099,-0.93956
25409.0,375.88,69.124,31.099,0.06044
25419.0,363.88,63.124,31.099,1.0604
25429.0,350.88,56.124,31.099,2.0604
25439.0,337.88,49.124,30.099,1.0604
25449.0,331.88,44.124,29.099,1.0604
25459.0,320.88,39.124,28.099,1.0604
25468.0,312.88,35.124,29.099,1.0604
25478.0,302.88,29.124,28.099,1.0604
25488.0,289.88,24.124,27.099,3.0604
25498.0,273.88,18.124,26.099,2.0604
25508.0,256.88,10.124,24.099,2.0604
25518.0,236.88,3.1238,25.099,3.0604
25528.0,212.88,-5.8762,23.099,2.0604
25538.0,189.88,-12.876,24.099,3.0604
25548.0,165.88,-19.876,22.099,3.0604
25557.0,142.88,-26.876,23.099,5.0604
25567.0,142.88,-26.876,24.099,5.0604
25577.0,104.88,-35.876,22.099,4.0604
25587.0,104.88,-35.876,21.099,4.0604
25597.0,80.881,-40.876,20.099,3.0604
25607.0,80.881,-40.876,21.099,5.0604
25617.0,100.88,-30.876,20.099,4.0604
25627.0,100.88,-30.876,15.099,2.0604
25637.0,135.88,-17.876,14.099,-1.9396
25646.0,135.88,-17.876,11.099,-4.9396
25656.0,187.88,-2.8762,12.099,-5.9396
25666.0,187.88,-2.8762,15.099,-7.9396
25676.0,251.88,19.124,18.099,-8.9396
25686.0,251.88,19.124,21.099,-8.9396
25696.0,318.88,41.124,23.099,-7.9396
25706.0,318.88,41.124,27.099,-7.9396
25716.0,357.88,51.124,28.099,-6.9396
25726.0,395.88,60.124,32.099,-5.9396
25735.0,431.88,71.124,34.099,-5.9396
25745.0,464.88,78.124,36.099,-3.9396
25755.0,499.88,88.124,39.099,-4.9396
25765.0,531.88,97.124,40.099,-0.93956
25775.0,558.88,104.12,43.099,-1.9396
25785.0,575.88,109.12,44.099,-0.93956
25795.0,588.88,113.12,46.099,2.0604
25805.0,594.88,116.12,47.099,3.0604
25814.0,597.88,118.12,48.099,5.0604
25824.0,596.88,116.12,49.099,4.0604
25834.0,599.88,120.12,48.099,5.0604
25844.0,595.88,122.12,47.099,6.0604
25854.0,587.88,121.12,47.099,5.0604
25864.0,570.88,116.12,48.099,8.0604
25874.0,548.88,108.12,45.099,8.0604
25884.0,522.88,100.12,45.099,9.0604
25894.0,493.88,90.124,45.099,9.0604
25903.0,457.88,77.124,43.099,8.0604
25913.0,415.88,61.124,43.099,8.0604
25923.0,372.88,44.124,43.099,8.0604
25933.0,323.88,27.124,42.099,9.0604
25943.0,275.88,9.1238,41.099,9.0604
25953.0,224.88,-7.8762,42.099,9.0604
25963.0,172.88,-26.876,40.099,8.0604
25973.0,123.88,-41.876,40.099,9.0604
25983.0,76.881,-57.876,40.099,10.06
25992.0,32.881,-70.876,40.099,10.06
26002.0,-9.1192,-83.876,39.099,10.06
26012.0,-45.119,-92.876,38.099,11.06
26022.0,-77.119,-101.88,36.099,10.06
26032.0,-105.12,-108.88,38.099,11.06
26042.0,-127.12,-116.88,37.099,12.06
26052.0,-146.12,-118.88,36.099,11.06
26062.0,-162.12,-122.88,34.099,11.06
26072.0,-176.12,-124.88,34.099,11.06
26081.0,-181.12,-123.88,32.099,10.06
26091.0,-181.12,-122.88,32.099,11.06
26101.0,-178.12,-116.88,32.099,11.06
26111.0,-172.12,-110.88,32.099,11.06
26121.0,-167.12,-105.88,31.099,11.06
26131.0,-159.12,-100.88,31.099,11.06
26141.0,-144.12,-92.876,28.099,12.06
26151.0,-121.12,-83.876,28.099,12.06
26160.0,-90.119,-74.876,26.099,12.06
26170.0,-52.119,-62.876,26.099,12.06
26180.0,-14.119,-48.876,21.099,7.0604
26190.0,19.881,-37.876,21.099,7.0604
26200.0,55.881,-26.876,20.099,2.0604
26210.0,88.881,-18.876,20.099,2.0604
26220.0,114.88,-10.876,24.099,-0.93956
26230.0,135.88,-6.8762,24.099,-0.93956
26240.0,153.88,-3.8762,28.099,-0.93956
26249.0,165.88,-1.8762,28.099,-0.93956
26259.0,177.88,0.12378,36.099,1.0604
26269.0,184.88,3.1238,36.099,1.0604
26279.0,193.88,2.1238,41.099,3.0604
26289.0,196.88,3.1238,41.099,3.0604
26299.0,196.88,3.1238,44.099,4.0604
26309.0,196.88,1.1238,44.099,4.0604
26319.0,196.88,1.1238,47.099,6.0604
26329.0,183.88,-3.8762,47.099,6.0604
26338.0,183.88,-3.8762,48.099,8.0604
26348.0,166.88,-11.876,51.099,9.0604
26358.0,166.88,-11.876,52.099,10.06
26368.0,148.88,-17.876,53.099,11.06
26378.0,148.88,-17.876,51.099,13.06
26388.0,133.88,-21.876,54.099,14.06
26398.0,133.88,-21.876,52.099,13.06
26408.0,118.88,-25.876,51.099,15.06
26418.0,118.88,-25.876,52.099,16.06
26427.0,101.88,-30.876,52.099,16.06
26437.0,101.88,-30.876,51.099,16.06
26447.0,93.881,-34.876,50.099,16.06
26457.0,87.881,-36.876,47.099,17.06
26467.0,77.881,-38.876,49.099,16.06
26477.0,66.881,-41.876,47.099,15.06
26487.0,56.881,-44.876,47.099,16.06
26497.0,45.881,-48.876,44.099,16.06
26506.0,32.881,-51.876,45.099,16.06
26516.0,21.881,-55.876,46.099,17.06
26526.0,9.8808,-59.876,44.099,16.06
26536.0,-1.1192,-61.876,45.099,16.06
26546.0,-13.119,-65.876,43.099,17.06
26556.0,-27.119,-69.876,42.099,16.06
26566.0,-39.119,-73.876,40.099,16.06
26576.0,-50.119,-77.876,41.099,15.06
26586.0,-63.119,-78.876,40.099,17.06
26595.0,-72.119,-82.876,39.099,16.06
26605.0,-83.119,-85.876,38.099,17.06
26615.0,-95.119,-88.876,37.099,17.06
26625.0,-106.12,-91.876,34.099,15.06
26635.0,-118.12,-94.876,33.099,15.06
26645.0,-130.12,-98.876,33.099,16.06
26655.0,-142.12,-100.88,33.099,15.06
26665.0,-157.12,-105.88,29.099,16.06
26675.0,-172.12,-110.88,28.099,15.06
26684.0,-173.12,-108.88,28.099,15.06
26694.0,-172.12,-108.88,26.099,15.06
26704.0,-160.12,-103.88,27.099,15.06
26714.0,-141.12,-96.876,22.099,13.06
26724.0,-117.12,-89.876,18.099,10.06
26734.0,-96.119,-82.876,16.099,7.0604
26744.0,-69.119,-75.876,15.099,4.0604
26754.0,-45.119,-67.876,16.099,4.0604
26764.0,-26.119,-61.876,19.099,1.0604
26773.0,-6.1192,-56.876,21.099,1.0604
26783.0,9.8808,-51.876,23.099,-0.93956
26793.0,25.881,-48.876,26.099,0.06044
26803.0,41.881,-44.876,29.099,0.06044
26813.0,51.881,-42.876,31.099,0.06044
26823.0,60.881,-38.876,33.099,2.0604
26833.0,69.881,-35.876,36.099,2.0604
26843.0,74.881,-34.876,37.099,3.0604
26852.0,74.881,-34.876,38.099,3.0604
26862.0,73.881,-34.876,40.099,5.0604
26872.0,66.881,-37.876,41.099,5.0604
26882.0,60.881,-37.876,42.099,7.0604
26892.0,53.881,-39.876,42.099,7.0604
26902.0,47.881,-42.876,44.099,10.06
26912.0,40.881,-42.876,43.099,10.06
26922.0,33.881,-43.876,41.099,10.06
26932.0,27.881,-45.876,40.099,9.0604
26941.0,22.881,-47.876,40.099,10.06
26951.0,13.881,-49.876,38.099,10.06
26961.0,3.8808,-51.876,38.099,10.06
26971.0,-6.1192,-53.876,37.099,9.0604
26981.0,-17.119,-56.876,35.099,9.0604
26991.0,-31.119,-60.876,31.099,8.0604
27001.0,-44.119,-64.876,32.099,7.0604
27011.0,-56.119,-68.876,30.099,7.0604
27021.0,-68.119,-72.876,28.099,8.0604
27030.0,-68.119,-72.876,29.099,6.0604
27040.0,-91.119,-79.876,26.099,7.0604
27050.0,-91.119,-79.876,28.099,6.0604
27060.0,-114.12,-84.876,24.099,6.0604
27070.0,-114.12,-84.876,25.099,7.0604
27080.0,-134.12,-91.876,23.099,6.0604
27090.0,-134.12,-91.876,22.099,5.0604
27100.0,-150.12,-96.876,22.099,6.0604
27110.0,-150.12,-96.876,20.099,5.0604
27119.0,-169.12,-102.88,18.099,6.0604
27129.0,-169.12,-102.88,17.099,6.0604
27139.0,-188.12,-107.88,17.099,6.0604
27149.0,-188.12,-107.88,15.099,5.0604
27159.0,-196.12,-109.88,15.099,5.0604
27169.0,-202.12,-111.88,13.099,4.0604
27179.0,-212.12,-112.88,13.099,4.0604
27189.0,-219.12,-114.88,10.099,3.0604
27198.0,-226.12,-116.88,10.099,3.0604
27208.0,-233.12,-117.88,7.0993,3.0604
27218.0,-238.12,-117.88,7.0993,3.0604
27228.0,-237.12,-116.88,3.0993,2.0604
27238.0,-228.12,-111.88,3.0993,2.0604
27248.0,-210.12,-105.88,1.0993,1.0604
27258.0,-191.12,-98.876,1.0993,1.0604
27268.0,-165.12,-91.876,-9.9007,-6.9396
27278.0,-140.12,-84.876,-9.9007,-6.9396
27287.0,-112.12,-77.876,-7.9007,-11.94
27297.0,-84.119,-69.876,-7.9007,-11.94
27307.0,-60.119,-62.876,-3.9007,-13.94
27317.0,-39.119,-56.876,-3.9007,-13.94
27327.0,-21.119,-50.876,-2.9007,-15.94
27337.0,-5.1192,-46.876,1.0993,-15.94
27347.0,12.881,-41.876,2.0993,-14.94
27357.0,25.881,-37.876,5.0993,-13.94
27367.0,39.881,-32.876,7.0993,-12.94
27376.0,49.881,-30.876,9.0993,-11.94
27386.0,56.881,-27.876,12.099,-10.94
27396.0,62.881,-25.876,14.099,-10.94
27406.0,61.881,-25.876,14.099,-9.9396
27416.0,59.881,-25.876,15.099,-8.9396
27426.0,55.881,-27.876,15.099,-8.9396
27436.0,50.881,-27.876,14.099,-8.9396
27446.0,42.881,-28.876,16.099,-7.9396
27456.0,38.881,-29.876,17.099,-6.9396
27465.0,31.881,-29.876,18.099,-6.9396
27475.0,27.881,-30.876,16.099,-4.9396
27485.0,22.881,-32.876,16.099,-5.9396
27495.0,16.881,-33.876,14.099,-4.9396
27505.0,10.881,-35.876,14.099,-5.9396
27515.0,5.8808,-35.876,13.099,-4.9396
27525.0,-2.1192,-37.876,12.099,-4.9396
27535.0,-11.119,-38.876,9.0993,-4.9396
27544.0,-18.119,-41.876,10.099,-5.9396
27554.0,-27.119,-43.876,7.0993,-4.9396
27564.0,-41.119,-47.876,5.0993,-6.9396
27574.0,-51.119,-50.876,4.0993,-5.9396
27584.0,-60.119,-52.876,3.0993,-7.9396
27594.0,-69.119,-54.876,3.0993,-5.9396
27604.0,-81.119,-57.876,2.0993,-6.9396
27614.0,-91.119,-61.876,2.0993,-5.9396
27624.0,-100.12,-63.876,0.099262,-7.9396
27633.0,-111.12,-66.876,-0.90074,-6.9396
27643.0,-122.12,-69.876,-3.9007,-7.9396
27653.0,-131.12,-71.876,-4.9007,-9.9396
27663.0,-143.12,-75.876,-6.9007,-8.9396
27673.0,-152.12,-76.876,-7.9007,-7.9396
27683.0,-162.12,-80.876,-7.9007,-9.9396
27693.0,-171.12,-83.876,-8.9007,-9.9396
27703.0,-183.12,-86.876,-8.9007,-8.9396
27713.0,-193.12,-88.876,-10.901,-9.9396
27722.0,-203.12,-91.876,-10.901,-8.9396
27732.0,-212.12,-95.876,-11.901,-10.94
27742.0,-212.12,-95.876,-11.901,-9.9396
27752.0,-227.12,-97.876,-14.901,-8.9396
27762.0,-227.12,-97.876,-14.901,-9.9396
27772.0,-208.12,-88.876,-14.901,-8.9396
27782.0,-208.12,-88.876,-14.901,-8.9396
27792.0,-165.12,-77.876,-19.901,-11.94
27802.0,-165.12,-77.876,-24.901,-15.94
27811.0,-110.12,-62.876,-27.901,-18.94
27821.0,-110.12,-62.876,-25.901,-19.94
27831.0,-56.119,-45.876,-25.901,-22.94
27841.0,-56.119,-45.876,-23.901,-22.94
27851.0,-10.119,-33.876,-22.901,-23.94
27861.0,-10.119,-33.876,-19.901,-23.94
27871.0,21.881,-27.876,-17.901,-23.94
27881.0,21.881,-27.876,-13.901,-22.94
27890.0,35.881,-22.876,-12.901,-22.94
27900.0,48.881,-19.876,-8.9007,-20.94
27910.0,58.881,-16.876,-6.9007,-18.94
27920.0,66.881,-15.876,-4.9007,-18.94
27930.0,73.881,-13.876,-0.90074,-16.94
27940.0,75.881,-12.876,-0.90074,-17.94
27950.0,76.881,-10.876,2.0993,-15.94
27960.0,73.881,-12.876,3.0993,-13.94
27970.0,65.881,-13.876,3.0993,-13.94
27979.0,58.881,-16.876,3.0993,-12.94
27989.0,51.881,-17.876,7.0993,-10.94
27999.0,42.881,-19.876,7.0993,-10.94
28009.0,32.881,-23.876,9.0993,-9.9396
28019.0,24.881,-25.876,6.0993,-9.9396
28029.0,15.881,-28.876,7.0993,-8.9396
28039.0,6.8808,-31.876,6.0993,-7.9396
28049.0,-0.11923,-33.876,6.0993,-7.9396
28059.0,-9.1192,-35.876,4.0993,-8.9396
28068.0,-18.119,-39.876,3.0993,-7.9396
28078.0,-28.119,-40.876,1.0993,-6.9396
28088.0,-39.119,-43.876,1.0993,-6.9396
28098.0,-48.119,-47.876,0.099262,-7.9396
28108.0,-58.119,-50.876,-1.9007,-6.9396
28118.0,-67.119,-52.876,0.099262,-4.9396
28128.0,-77.119,-55.876,0.099262,-4.9396
28138.0,-88.119,-57.876,1.0993,-5.9396
28148.0,-98.119,-61.876,1.0993,-5.9396
28157.0,-108.12,-64.876,-0.90074,-5.9396
28167.0,-120.12,-66.876,-0.90074,-5.9396
28177.0,-126.12,-69.876,-2.9007,-5.9396
28187.0,-141.12,-72.876,-2.9007,-5.9396
28197.0,-152.12,-77.876,-3.9007,-5.9396
28207.0,-162.12,-79.876,-3.9007,-5.9396
28217.0,-174.12,-83.876,-3.9007,-3.9396
28227.0,-186.12,-85.876,-3.9007,-3.9396
28236.0,-198.12,-91.876,-4.9007,-2.9396
28246.0,-209.12,-92.876,-4.9007,-2.9396
28256.0,-220.12,-95.876,-7.9007,-1.9396
28266.0,-231.12,-99.876,-7.9007,-1.9396
28276.0,-240.12,-102.88,-7.9007,-2.9396
28286.0,-254.12,-106.88,-7.9007,-2.9396
28296.0,-257.12,-107.88,-10.901,-2.9396
28306.0,-254.12,-104.88,-10.901,-2.9396
28316.0,-240.12,-99.876,-10.901,-1.9396
28325.0,-219.12,-92.876,-10.901,-1.9396
28335.0,-196.12,-87.876,-13.901,-3.9396
28345.0,-172.12,-80.876,-16.901,-6.9396
28355.0,-145.12,-74.876,-19.901,-9.9396
28365.0,-117.12,-66.876,-18.901,-12.94
28375.0,-91.119,-57.876,-14.901,-12.94
28385.0,-68.119,-53.876,-12.901,-13.94
28395.0,-47.119,-47.876,-8.9007,-13.94
28405.0,-28.119,-42.876,-5.9007,-13.94
28414.0,-11.119,-37.876,-3.9007,-13.94
28424.0,2.8808,-33.876,0.099262,-10.94
28434.0,16.881,-31.876,4.0993,-10.94
28444.0,26.881,-26.876,8.0993,-9.9396
28454.0,36.881,-25.876,10.099,-7.9396
28464.0,41.881,-23.876,13.099,-5.9396
28474.0,41.881,-23.876,16.099,-3.9396
28484.0,46.881,-23.876,19.099,-2.9396
28494.0,46.881,-23.876,21.099,-2.9396
28503.0,33.881,-25.876,22.099,0.06044
28513.0,33.881,-25.876,24.099,0.06044
28523.0,18.881,-29.876,26.099,2.0604
28533.0,18.881,-29.876,27.099,3.0604
28543.0,3.8808,-33.876,27.099,6.0604
28553.0,3.8808,-33.876,29.099,6.0604
28563.0,-12.119,-38.876,29.099,7.0604
28573.0,-12.119,-38.876,29.099,7.0604
28582.0,-28.119,-42.876,27.099,8.0604
28592.0,-28.119,-42.876,29.099,9.0604
28602.0,-45.119,-47.876,28.099,8.0604
28612.0,-45.119,-47.876,28.099,9.0604
28622.0,-54.119,-49.876,26.099,9.0604
28632.0,-61.119,-51.876,26.099,9.0604
28642.0,-70.119,-53.876,26.099,10.06
28652.0,-79.119,-57.876,25.099,11.06
28662.0,-88.119,-59.876,26.099,11.06
28671.0,-96.119,-61.876,28.099,10.06
28681.0,-107.12,-64.876,27.099,12.06
28691.0,-114.12,-66.876,26.099,13.06
28701.0,-124.12,-69.876,25.099,13.06
28711.0,-134.12,-71.876,26.099,14.06
28721.0,-143.12,-74.876,25.099,13.06
28731.0,-153.12,-77.876,25.099,14.06
28741.0,-164.12,-81.876,26.099,14.06
28751.0,-174.12,-83.876,25.099,15.06
28760.0,-185.12,-87.876,25.099,14.06
28770.0,-195.12,-89.876,24.099,15.06
28780.0,-206.12,-94.876,23.099,17.06
28790.0,-217.12,-96.876,25.099,16.06
28800.0,-228.12,-100.88,24.099,16.06
28810.0,-239.12,-103.88,24.099,17.06
28820.0,-250.12,-105.88,23.099,16.06
28830.0,-261.12,-109.88,24.099,18.06
28840.0,-268.12,-110.88,21.099,18.06
28849.0,-269.12,-109.88,21.099,19.06
28859.0,-258.12,-106.88,21.099,18.06
28869.0,-242.12,-101.88,21.099,19.06
28879.0,-223.12,-97.876,19.099,15.06
28889.0,-205.12,-91.876,17.099,13.06
28899.0,-184.12,-88.876,15.099,11.06
28909.0,-163.12,-83.876,16.099,10.06
28919.0,-143.12,-76.876,19.099,9.0604
28928.0,-122.12,-71.876,23.099,8.0604
28938.0,-105.12,-66.876,26.099,9.0604
28948.0,-90.119,-61.876,32.099,10.06
28958.0,-75.119,-59.876,36.099,12.06
28968.0,-63.119,-54.876,39.099,13.06
28978.0,-48.119,-52.876,44.099,16.06
28988.0,-39.119,-49.876,46.099,15.06
28998.0,-29.119,-47.876,50.099,16.06
29008.0,-22.119,-43.876,52.099,18.06
29017.0,-16.119,-43.876,55.099,20.06
29027.0,-20.119,-44.876,58.099,22.06
29037.0,-22.119,-45.876,58.099,22.06
29047.0,-29.119,-46.876,59.099,24.06
29057.0,-35.119,-49.876,60.099,26.06
29067.0,-42.119,-49.876,60.099,27.06
29077.0,-50.119,-52.876,61.099,28.06
29087.0,-57.119,-55.876,62.099,29.06
29097.0,-67.119,-58.876,60.099,29.06
29106.0,-75.119,-60.876,63.099,30.06
29116.0,-83.119,-63.876,60.099,29.06
29126.0,-87.119,-64.876,60.099,30.06
29136.0,-96.119,-66.876,59.099,29.06
29146.0,-104.12,-69.876,58.099,29.06
29156.0,-111.12,-70.876,58.099,29.06
29166.0,-119.12,-73.876,56.099,29.06
29176.0,-127.12,-74.876,56.099,29.06
29186.0,-135.12,-76.876,55.099,29.06
29195.0,-142.12,-79.876,55.099,29.06
29205.0,-142.12,-79.876,53.099,29.06
29215.0,-158.12,-83.876,53.099,29.06
29225.0,-158.12,-83.876,54.099,29.06
29235.0,-178.12,-88.876,54.099,29.06
29245.0,-178.12,-88.876,53.099,30.06
29255.0,-197.12,-92.876,53.099,30.06
29265.0,-197.12,-92.876,52.099,29.06
29274.0,-214.12,-97.876,52.099,29.06
29284.0,-214.12,-97.876,48.099,28.06
29294.0,-234.12,-103.88,48.099,28.06
29304.0,-234.12,-103.88,49.099,29.06
29314.0,-254.12,-107.88,49.099,29.06
29324.0,-254.12,-107.88,48.099,28.06
29334.0,-271.12,-112.88,48.099,28.06
29344.0,-271.12,-112.88,45.099,28.06
29354.0,-279.12,-115.88,45.099,28.06
29363.0,-290.12,-118.88,43.099,28.06
29373.0,-300.12,-121.88,43.099,28.06
29383.0,-311.12,-124.88,42.099,27.06
29393.0,-317.12,-123.88,39.099,27.06
29403.0,-315.12,-123.88,38.099,27.06
29413.0,-307.12,-118.88,37.099,27.06
29423.0,-290.12,-112.88,39.099,26.06
29433.0,-270.12,-106.88,34.099,23.06
29443.0,-248.12,-101.88,28.099,19.06
29452.0,-227.12,-95.876,27.099,16.06
29462.0,-204.12,-87.876,29.099,14.06
29472.0,-187.12,-83.876,31.099,13.06
29482.0,-171.12,-79.876,32.099,12.06
29492.0,-157.12,-76.876,36.099,12.06
29502.0,-141.12,-72.876,38.099,12.06
29512.0,-128.12,-69.876,39.099,11.06
29522.0,-118.12,-65.876,41.099,11.06
29532.0,-106.12,-62.876,44.099,12.06
29541.0,-98.119,-60.876,46.099,13.06
29551.0,-92.119,-56.876,48.099,13.06
29561.0,-89.119,-57.876,47.099,14.06
29571.0,-90.119,-57.876,49.099,14.06
29581.0,-94.119,-60.876,49.099,15.06
29591.0,-98.119,-59.876,51.099,16.06
29601.0,-104.12,-60.876,52.099,18.06
29611.0,-108.12,-62.876,52.099,18.06
29620.0,-112.12,-62.876,52.099,18.06
29630.0,-117.12,-63.876,51.099,17.06
29640.0,-121.12,-64.876,50.099,19.06
29650.0,-126.12,-65.876,49.099,20.06
29660.0,-131.12,-67.876,49.099,20.06
29670.0,-136.12,-69.876,49.099,19.06
29680.0,-142.12,-70.876,49.099,20.06
29690.0,-149.12,-71.876,48.099,19.06
29700.0,-156.12,-73.876,46.099,19.06
29709.0,-162.12,-75.876,45.099,17.06
29719.0,-166.12,-76.876,43.099,18.06
29729.0,-173.12,-79.876,42.099,17.06
29739.0,-181.12,-80.876,40.099,17.06
29749.0,-189.12,-82.876,38.099,16.06
29759.0,-197.12,-85.876,37.099,16.06
29769.0,-205.12,-87.876,36.099,14.06
29779.0,-213.12,-90.876,36.099,15.06
29789.0,-222.12,-92.876,36.099,14.06
29798.0,-229.12,-94.876,34.099,14.06
29808.0,-238.12,-96.876,32.099,13.06
29818.0,-246.12,-100.88,31.099,14.06
29828.0,-255.12,-102.88,31.099,14.06
29838.0,-263.12,-103.88,28.099,13.06
29848.0,-270.12,-106.88,28.099,12.06
29858.0,-278.12,-108.88,26.099,12.06
29868.0,-287.12,-110.88,23.099,11.06
29877.0,-296.12,-111.88,24.099,11.06
29887.0,-303.12,-114.88,24.099,12.06
29897.0,-312.12,-116.88,20.099,10.06
29907.0,-320.12,-118.88,17.099,9.0604
29917.0,-328.12,-120.88,17.099,11.06
29927.0,-336.12,-122.88,16.099,10.06
29937.0,-336.12,-122.88,15.099,9.0604
29947.0,-331.12,-118.88,13.099,10.06
29957.0,-331.12,-118.88,14.099,10.06
29966.0,-298.12,-106.88,10.099,10.06
29976.0,-298.12,-106.88,7.0993,4.0604
29986.0,-248.12,-93.876,2.0993,2.0604
29996.0,-248.12,-93.876,2.0993,-0.93956
