t,lead_I,lead_II,v3,v4
9.3,13046,64850,-2767,-21698
11.3,11941,64911,-3514,-22361
13.3,11410,65238,-3847,-22653
15.3,10988,65562,-3836,-22639
17.3,10455,65599,-3733,-22565
19.3,10169,65548,-3642,-22526
21.3,10461,65578,-3448,-22418
23.3,11140,65514,-3048,-22171
25.3,11845,65264,-2599,-21917
27.3,12345,65037,-2404,-21861
29.3,12349,64976,-2552,-22004
31.3,11804,65064,-2865,-22186
33.3,11191,65322,-3122,-22310
35.3,10791,65682,-3177,-22336
37.3,10380,65927,-3058,-22254
39.3,10074,66054,-2947,-22145
41.3,10294,66256,-2779,-21976
43.3,10904,66484,-2244,-21549
45.3,11590,66543,-1521,-20996
47.3,12357,66447,-1305,-20825
49.3,12828,66339,-1780,-21169
51.3,12464,66387,-2366,-21559
53.3,11732,66747,-2619,-21637
55.3,11443,67267,-2631,-21503
57.3,11403,67633,-2581,-21344
59.3,11174,67931,-2406,-21103
61.3,11076,68327,-1937,-20610
63.3,11437,68482,-1305,-19979
65.3,12076,68208,-986,-19636
67.3,12745,68014,-1174,-19733
69.3,13110,68211,-1523,-19924
71.3,12851,68488,-1807,-19975
73.3,12295,68744,-2108,-19971
75.3,11992,69156,-2262,-19868
77.3,11860,69545,-2097,-19603
79.3,11742,69723,-1903,-19394
81.3,11971,69856,-1819,-19282
83.3,12593,69899,-1563,-19012
85.3,13129,69649,-1237,-18675
87.3,13391,69443,-1242,-18570
89.3,13510,69676,-1425,-18558
91.3,13434,70031,-1489,-18466
93.3,13073,70118,-1653,-18526
95.3,12478,70117,-1993,-18755
97.3,11842,70257,-2121,-18788
99.3,11679,70488,-1956,-18582
101.3,12276,70746,-1745,-18359
103.3,12972,70915,-1461,-18090
105.3,13173,70830,-1126,-17797
107.3,13432,70623,-1127,-17809
109.3,14112,70568,-1522,-18157
111.3,14305,70628,-1824,-18403
113.3,13481,70636,-1823,-18364
115.3,12531,70629,-1876,-18363
117.3,12227,70705,-2165,-18583
119.3,12320,70830,-2305,-18710
121.3,12521,70905,-1990,-18472
123.3,12885,70872,-1503,-18104
125.3,13331,70742,-1220,-17916
127.3,13684,70580,-1095,-17861
129.3,13821,70435,-1099,-17913
131.3,13615,70367,-1457,-18253
133.3,13214,70450,-2047,-18742
135.3,12962,70638,-2349,-18926
137.3,12808,70782,-2212,-18718
139.3,12602,70818,-1901,-18410
141.3,12685,70770,-1570,-18173
143.3,13168,70669,-1279,-18014
145.3,13475,70562,-1111,-17892
147.3,13405,70477,-1066,-17790
149.3,13364,70446,-1209,-17861
151.3,13300,70579,-1587,-18172
153.3,12942,70853,-1857,-18364
155.3,12690,70996,-1747,-18219
157.3,12805,70905,-1582,-18098
159.3,12769,70844,-1583,-18162
161.3,12549,70923,-1444,-18063
163.3,12841,70928,-1142,-17788
165.3,13466,70762,-1039,-17690
167.3,13501,70552,-1118,-17755
169.3,13073,70420,-1219,-17838
171.3,13068,70516,-1477,-18046
173.3,13378,70881,-1789,-18261
175.3,13209,71187,-1784,-18196
177.3,12634,71146,-1600,-18031
179.3,12407,70992,-1578,-18044
181.3,12713,71014,-1530,-18024
183.3,13111,71054,-1234,-17805
185.3,13364,70924,-981,-17653
187.3,13586,70779,-1034,-17741
189.3,13721,70784,-1291,-17960
191.2,13530,70877,-1590,-18211
193.2,13110,70986,-1831,-18425
195.2,12857,71131,-1949,-18525
197.2,12821,71285,-1956,-18520
199.2,12758,71341,-1846,-18409
201.2,12766,71228,-1648,-18219
203.2,13106,71002,-1497,-18100
205.2,13539,70786,-1383,-18065
207.2,13655,70646,-1210,-17974
209.2,13551,70594,-1227,-17968
211.2,13490,70659,-1642,-18254
213.2,13403,70832,-2024,-18544
215.2,13211,70987,-1963,-18507
217.2,13068,70996,-1765,-18375
219.2,13036,70905,-1728,-18375
221.2,13043,70866,-1596,-18282
223.2,13136,70888,-1262,-18014
225.2,13315,70796,-1075,-17897
227.2,13376,70567,-1221,-18086
229.2,13256,70486,-1525,-18359
231.2,13159,70715,-1788,-18503
233.2,13161,70955,-1923,-18539
235.2,13113,70914,-1956,-18581
237.2,12935,70735,-1961,-18633
239.2,12665,70629,-1914,-18583
241.2,12441,70541,-1793,-18443
243.2,12609,70445,-1714,-18383
245.2,13331,70440,-1738,-18443
247.2,14023,70462,-1789,-18522
249.2,13993,70394,-1849,-18616
251.2,13470,70355,-1933,-18738
253.2,13018,70433,-1967,-18799
255.2,12508,70449,-1945,-18778
257.2,11860,70343,-1958,-18765
259.2,11821,70324,-2015,-18788
261.2,12651,70441,-2019,-18780
263.2,13293,70483,-1859,-18643
265.2,13050,70418,-1533,-18377
267.2,12721,70448,-1300,-18209
269.2,13074,70604,-1398,-18337
271.2,13583,70695,-1627,-18585
273.2,13491,70693,-1730,-18725
275.2,13037,70814,-1818,-18818
277.2,12913,71102,-1896,-18846
279.2,13170,71227,-1723,-18660
281.2,13286,70982,-1473,-18463
283.2,13162,70689,-1526,-18534
285.2,13308,70716,-1695,-18679
287.2,13775,70891,-1671,-18670
289.2,13867,70915,-1639,-18642
291.2,13399,70933,-1693,-18606
293.2,13064,71161,-1608,-18439
295.2,13097,71425,-1473,-18331
297.2,13015,71535,-1495,-18404
299.2,12834,71577,-1471,-18395
301.2,13059,71574,-1319,-18294
303.2,13528,71437,-1343,-18401
305.2,13632,71308,-1514,-18595
307.2,13395,71393,-1504,-18550
309.2,13326,71562,-1419,-18436
311.2,13486,71556,-1520,-18503
313.2,13444,71402,-1653,-18585
315.2,13069,71301,-1649,-18555
317.2,12827,71321,-1649,-18580
319.2,13053,71402,-1721,-18690
321.2,13378,71485,-1724,-18712
323.2,13378,71508,-1612,-18607
325.2,13226,71403,-1513,-18524
327.2,13177,71197,-1585,-18603
329.2,13164,70990,-1809,-18813
331.2,13146,70804,-1963,-18966
333.2,13075,70591,-1992,-19010
335.2,12763,70393,-2154,-19127
337.2,12428,70279,-2488,-19371
339.2,12546,70171,-2620,-19498
341.2,12924,69994,-2394,-19362
343.2,13060,69831,-2156,-19159
345.2,13080,69736,-2177,-19132
347.2,13161,69669,-2285,-19239
349.2,12991,69674,-2262,-19285
351.2,12648,69808,-2268,-19317
353.2,12684,69940,-2520,-19524
355.2,13022,69918,-2762,-19737
357.2,13136,69770,-2648,-19657
359.2,13017,69614,-2460,-19529
361.2,12942,69559,-2597,-19726
363.2,12971,69642,-2741,-19940
365.2,13138,69698,-2524,-19796
367.2,13324,69572,-2328,-19635
369.2,13165,69412,-2499,-19796
371.2,12781,69419,-2694,-19969
373.18,12784,69471,-2653,-19921
375.15,13136,69404,-2577,-19862
377.13,13180,69332,-2560,-19895
379.1,12921,69377,-2544,-19939
381.1,12912,69448,-2590,-20014
383.1,13109,69466,-2635,-20071
385.1,13154,69486,-2535,-20002
387.1,13187,69505,-2442,-19944
389.1,13268,69454,-2549,-20041
391.1,13032,69371,-2699,-20113
393.1,12721,69354,-2720,-20023
395.1,13035,69354,-2696,-19951
397.1,13528,69280,-2703,-20013
399.1,13152,69243,-2700,-20060
401.1,12310,69392,-2649,-19990
403.1,12178,69609,-2538,-19887
405.1,12680,69698,-2431,-19852
407.1,13094,69658,-2443,-19891
409.1,13398,69506,-2567,-19991
411.1,13535,69162,-2698,-20172
413.1,13114,68728,-2795,-20404
415.1,12549,68413,-2855,-20642
417.1,12558,68205,-2906,-20948
419.1,12778,68048,-2957,-21284
421.1,12640,68131,-2808,-21285
423.1,12566,68554,-2265,-20740
425.1,12893,69112,-1543,-19979
427.1,13237,69676,-906,-19274
429.1,13626,70373,-239,-18461
431.1,14488,71286,514,-17522
433.1,15503,72291,1160,-16650
435.1,16116,73176,1770,-15678
437.1,16585,73868,2510,-14427
439.1,17332,74601,3090,-13250
441.1,18166,75630,3302,-12369
443.1,18799,76716,3500,-11505
445.1,19171,77452,3850,-10668
447.1,19156,77931,4089,-10170
449.1,18673,78396,4258,-9851
451.1,17866,78600,4547,-9473
453.1,16904,78328,4673,-9341
455.1,16024,77941,4371,-9651
457.1,15542,77641,3827,-10189
459.1,15332,76947,2995,-11168
461.1,14811,75513,1482,-13126
463.1,13827,73734,-567,-15820
465.1,12948,72175,-2432,-18315
467.1,12642,71004,-3693,-20063
469.1,12704,70151,-4436,-21107
471.1,12707,69573,-4781,-21601
473.1,12630,69274,-4763,-21695
475.1,12728,69213,-4539,-21628
477.1,12915,69262,-4334,-21553
479.1,12824,69303,-4119,-21363
481.1,12494,69316,-3708,-20975
483.1,12346,69298,-3269,-20657
485.1,12476,69218,-3186,-20685
487.1,12680,69120,-3334,-20855
489.1,12915,69062,-3287,-20872
491.1,13095,68995,-3126,-20860
493.1,12962,68869,-3153,-20946
495.1,12674,68751,-3224,-20954
497.1,12685,68712,-3162,-20892
499.1,12894,68732,-3133,-20956
501.1,12906,68757,-3181,-21039
503.1,12867,68753,-3208,-21024
505.1,12973,68743,-3317,-21123
507.1,12905,68786,-3464,-21293
509.1,12616,68862,-3325,-21169
511.1,12602,68874,-2975,-20867
513.1,12869,68806,-2851,-20853
515.1,12904,68730,-3004,-21097
517.1,12727,68694,-3159,-21257
519.1,12721,68681,-3233,-21293
521.1,12817,68664,-3242,-21294
523.1,12795,68641,-3184,-21243
525.1,12767,68668,-3164,-21184
527.1,12788,68787,-3208,-21153
529.1,12760,68893,-3147,-21058
531.1,12768,68823,-2958,-20915
533.1,12838,68607,-2856,-20911
535.1,12725,68452,-2945,-21081
537.1,12487,68443,-3104,-21259
539.1,12556,68474,-3187,-21338
541.1,12918,68510,-3176,-21352
543.1,13078,68650,-3136,-21312
545.1,12981,68830,-3108,-21216
547.1,12989,68829,-3124,-21193
549.1,13088,68719,-3231,-21365
551.1,13074,68796,-3351,-21561
553.1,13118,68977,-3326,-21552
555.1,13235,68908,-3219,-21446
557.1,13025,68641,-3204,-21429
559.1,12619,68528,-3237,-21435
561.1,12690,68597,-3269,-21444
563.1,13074,68672,-3364,-21535
565.1,12926,68723,-3349,-21513
567.1,12332,68713,-3062,-21250
569.1,12180,68595,-2902,-21149
571.1,12645,68548,-3188,-21439
573.1,13095,68684,-3455,-21676
575.1,13117,68749,-3315,-21592
577.1,12815,68587,-3132,-21529
579.1,12509,68431,-3175,-21621
581.1,12431,68423,-3191,-21605
583.1,12559,68435,-3168,-21541
585.1,12784,68460,-3368,-21693
587.1,13006,68603,-3614,-21887
589.1,12996,68729,-3552,-21808
591.1,12725,68632,-3362,-21633
593.08,12636,68417,-3408,-21703
595.05,12857,68322,-3534,-21881
597.03,12854,68354,-3419,-21844
599.0,12514,68380,-3254,-21710
601.0,12379,68433,-3392,-21796
603.0,12543,68634,-3620,-21944
605.0,12653,68877,-3510,-21809
607.0,12741,68904,-3261,-21603
609.0,12867,68715,-3336,-21730
611.0,12788,68588,-3536,-21952
613.0,12692,68610,-3404,-21848
615.0,12973,68561,-3166,-21673
617.0,13168,68359,-3260,-21817
619.0,12693,68239,-3488,-22037
621.0,12142,68366,-3524,-22016
623.0,12294,68622,-3490,-21916
625.0,12734,68829,-3468,-21878
627.0,12836,68907,-3342,-21806
629.0,12882,68833,-3260,-21782
631.0,13128,68656,-3402,-21908
633.0,13092,68513,-3507,-21961
635.0,12612,68478,-3362,-21814
637.0,12319,68478,-3225,-21730
639.0,12502,68442,-3318,-21875
641.0,12727,68460,-3490,-22067
643.0,12765,68655,-3528,-22104
645.0,12835,68939,-3392,-21975
647.0,12996,69095,-3232,-21837
649.0,13141,69085,-3258,-21873
651.0,13228,69049,-3395,-22014
653.0,13109,69018,-3351,-22022
655.0,12785,68948,-3187,-21921
657.0,12735,68922,-3204,-21901
659.0,13141,68981,-3280,-21851
661.0,13396,68980,-3107,-21605
663.0,13201,68880,-2884,-21404
665.0,13130,68890,-2967,-21499
667.0,13423,69085,-3147,-21646
669.0,13527,69240,-3023,-21535
671.0,13263,69199,-2738,-21328
673.0,13163,69087,-2689,-21324
675.0,13416,69061,-2809,-21417
677.0,13616,69115,-2752,-21344
679.0,13573,69193,-2582,-21216
681.0,13500,69293,-2621,-21286
683.0,13495,69410,-2765,-21408
685.0,13446,69493,-2680,-21297
687.0,13406,69513,-2485,-21089
689.0,13573,69502,-2475,-21037
691.0,13870,69485,-2529,-21026
693.0,13918,69476,-2462,-20923
695.0,13605,69526,-2438,-20907
697.0,13383,69630,-2558,-21045
699.0,13678,69671,-2662,-21158
701.0,14191,69606,-2678,-21204
703.0,14216,69574,-2639,-21231
705.0,13635,69656,-2497,-21106
707.0,13064,69722,-2282,-20802
709.0,12950,69629,-2145,-20597
711.0,13090,69429,-2162,-20707
713.0,13196,69314,-2350,-21016
715.0,13307,69392,-2654,-21267
717.0,13454,69527,-2835,-21330
719.0,13472,69514,-2753,-21279
721.0,13348,69376,-2578,-21225
723.0,13325,69281,-2449,-21148
725.0,13488,69241,-2377,-21080
727.0,13544,69179,-2490,-21215
729.0,13277,69150,-2766,-21506
731.0,12974,69162,-2879,-21618
733.0,12992,69071,-2820,-21564
735.0,13155,68897,-2977,-21708
737.0,13096,68885,-3283,-21982
739.0,12947,69056,-3239,-21939
741.0,13067,69121,-2880,-21626
743.0,13354,68941,-2717,-21529
745.0,13439,68695,-2845,-21737
747.0,13337,68567,-2975,-21928
749.0,13338,68587,-3074,-22043
751.0,13401,68736,-3286,-22266
753.0,13228,68930,-3470,-22490
755.0,12883,69014,-3389,-22438
757.0,12753,68986,-3184,-22213
759.0,12887,69054,-3153,-22143
761.0,13040,69227,-3190,-22166
763.0,13243,69158,-3005,-22024
765.0,13526,68725,-2751,-21862
767.0,13501,68368,-2782,-21953
769.0,13090,68433,-3021,-22153
771.0,12928,68666,-3197,-22233
773.0,13247,68746,-3336,-22288
775.0,13455,68759,-3473,-22378
777.0,13292,68841,-3433,-22349
779.0,13122,68915,-3214,-22201
781.0,12995,68956,-3025,-22082
783.0,12764,69033,-2897,-21973
785.0,12666,69061,-2723,-21815
787.0,12750,68932,-2557,-21707
789.0,12639,68784,-2567,-21765
791.0,12426,68840,-2809,-21982
793.0,12582,69063,-3121,-22227
795.0,12954,69223,-3240,-22308
797.0,13109,69249,-3154,-22213
799.0,13141,69251,-3112,-22162
801.0,13192,69221,-3141,-22214
803.0,13107,69042,-3026,-22178
805.0,12988,68803,-2821,-22028
807.0,13056,68690,-2776,-21950
809.0,13121,68648,-2888,-22023
811.0,13052,68567,-3023,-22186
812.98,13093,68590,-3173,-22362
814.95,13249,68820,-3296,-22463
816.93,13263,69045,-3320,-22483
818.9,13196,69086,-3305,-22506
820.9,13183,69002,-3272,-22483
822.9,13123,68840,-3142,-22339
824.9,13082,68609,-3009,-22223
826.9,13241,68441,-3021,-22276
828.9,13413,68424,-3114,-22382
830.9,13386,68450,-3238,-22468
832.9,13304,68480,-3441,-22606
834.9,13176,68591,-3584,-22701
836.9,12898,68724,-3508,-22629
838.9,12818,68762,-3381,-22553
840.9,13146,68755,-3336,-22579
842.9,13317,68754,-3219,-22542
844.9,13145,68667,-3102,-22487
846.9,13414,68510,-3298,-22692
848.9,14079,68436,-3624,-23000
850.9,13791,68446,-3566,-22946
852.9,12478,68426,-3241,-22639
854.9,11936,68414,-3248,-22639
856.9,12744,68487,-3570,-22953
858.9,13312,68550,-3622,-23040
860.9,12849,68487,-3310,-22784
862.9,12421,68374,-3125,-22633
864.9,12643,68332,-3223,-22752
866.9,12910,68354,-3292,-22843
868.9,12921,68378,-3254,-22804
870.9,12955,68400,-3296,-22831
872.9,13036,68447,-3388,-22950
874.9,13075,68546,-3466,-23068
876.9,13144,68711,-3626,-23197
878.9,13161,68848,-3708,-23210
880.9,13040,68777,-3443,-22958
882.9,12990,68511,-3152,-22747
884.9,13073,68343,-3225,-22886
886.9,13068,68436,-3283,-23023
888.9,13009,68602,-3033,-22861
890.9,13077,68699,-3001,-22804
892.9,13096,68873,-3347,-23027
894.9,12897,69186,-3425,-23069
896.9,12795,69417,-3179,-22891
898.9,13058,69424,-3225,-22949
900.9,13373,69329,-3475,-23160
902.9,13342,69264,-3410,-23110
904.9,13084,69213,-3170,-22882
906.9,12986,69125,-3069,-22726
908.9,13173,69036,-3036,-22660
910.9,13508,69068,-3149,-22791
912.9,13820,69258,-3494,-23118
914.9,13826,69430,-3652,-23236
916.9,13314,69430,-3405,-23002
918.9,12730,69382,-3197,-22811
920.9,12799,69425,-3209,-22814
922.9,13299,69398,-3133,-22763
924.9,13387,69123,-3039,-22714
926.9,13125,68759,-3244,-22920
928.9,13096,68543,-3558,-23235
930.9,13049,68436,-3668,-23387
932.9,12631,68304,-3763,-23485
934.9,12360,68175,-4056,-23718
936.9,12476,68113,-4292,-23914
938.9,12413,68048,-4191,-23804
940.9,12169,67891,-3916,-23527
942.9,12269,67686,-3830,-23486
944.9,12509,67542,-3981,-23735
946.9,12523,67491,-4082,-23922
948.9,12664,67505,-4018,-23915
950.9,13018,67595,-4052,-23974
952.9,13060,67755,-4347,-24211
954.9,12845,67886,-4660,-24439
956.9,12869,67919,-4758,-24561
958.9,12998,67921,-4734,-24615
960.9,12979,67943,-4673,-24523
962.9,13070,67904,-4452,-24215
964.9,13234,67726,-4082,-23866
966.9,13023,67476,-3889,-23748
968.9,12628,67309,-4074,-23924
970.9,12633,67347,-4412,-24210
972.9,12873,67560,-4605,-24409
974.9,12848,67764,-4659,-24486
976.9,12748,67818,-4683,-24505
978.9,12935,67758,-4650,-24502
980.9,13132,67651,-4517,-24460
982.9,13022,67486,-4304,-24320
984.9,12919,67281,-4083,-24112
986.9,13126,67143,-4050,-24060
988.9,13318,67124,-4307,-24291
990.9,13130,67191,-4591,-24548
992.9,12771,67303,-4634,-24587
994.9,12622,67420,-4579,-24552
996.9,12671,67460,-4595,-24617
998.9,12718,67399,-4571,-24694
1000.9,12822,67334,-4475,-24705
1002.9,13129,67325,-4414,-24651
1004.9,13383,67269,-4340,-24500
1006.9,13159,67107,-4258,-24375
1008.9,12654,66974,-4379,-24503
1010.9,12544,66935,-4702,-24840
1012.9,12882,66862,-5017,-25219
1014.9,13027,66703,-5283,-25645
1016.9,12757,66515,-5445,-26033
1018.9,12476,66277,-5276,-26149
1020.9,12391,66109,-4788,-25967
1022.9,12427,66336,-4157,-25524
1024.9,12669,66933,-3360,-24746
1026.9,13164,67487,-2550,-23871
1028.9,13734,67973,-2107,-23292
1030.9,14264,68784,-1847,-22740
1032.88,14767,69936,-1223,-21673
1034.85,15308,71094,-311,-20247
1036.83,16049,72171,471,-18924
1038.8,16951,73224,1139,-17697
1040.8,17649,74171,1743,-16491
1042.8,18069,75001,2090,-15521
1044.8,18406,75767,2291,-14803
1046.8,18340,76338,2624,-14118
1048.8,17460,76596,2940,-13512
1050.8,16334,76627,2971,-13264
1052.8,15787,76516,2763,-13460
1054.8,15603,76320,2496,-13818
1056.8,15183,76069,2286,-14055
1058.8,14671,75487,1916,-14587
1060.8,14397,74178,728,-16330
1062.8,14137,72302,-1413,-19260
1064.8,13616,70452,-3514,-22088
1066.8,12992,68968,-4801,-23939
1068.8,12491,67940,-5658,-25104
1070.8,12149,67452,-6389,-25854
1072.8,11955,67372,-6600,-26053
1074.8,11967,67411,-6310,-25952
1076.8,12257,67485,-6064,-25978
1078.8,12687,67545,-5894,-25992
1080.8,12843,67382,-5511,-25752
1082.8,12630,67061,-5128,-25486
1084.8,12607,66945,-5093,-25456
1086.8,13029,67055,-5249,-25556
1088.8,13222,67081,-5247,-25577
1090.8,12727,66980,-5034,-25453
1092.8,12171,66920,-4862,-25331
1094.8,12184,66890,-4962,-25439
1096.8,12503,66841,-5201,-25702
1098.8,12687,66825,-5246,-25783
1100.8,12728,66795,-5077,-25622
1102.8,12716,66698,-4944,-25463
1104.8,12673,66673,-4886,-25381
1106.8,12697,66801,-4815,-25310
1108.8,12842,66931,-4825,-25352
1110.8,13025,66973,-4984,-25565
1112.8,13125,66986,-5141,-25766
1114.8,13063,66938,-5188,-25828
1116.8,12922,66792,-5193,-25837
1118.8,12922,66718,-5190,-25843
1120.8,13083,66827,-5145,-25784
1122.8,13158,66910,-5092,-25690
1124.8,13025,66815,-5106,-25679
1126.8,12844,66743,-5154,-25743
1128.8,12835,66869,-5125,-25752
1130.8,13049,67011,-5033,-25708
1132.8,13245,66967,-5041,-25760
1134.8,13106,66836,-5190,-25923
1136.8,12770,66781,-5280,-26004
1138.8,12707,66795,-5151,-25882
1140.8,12937,66800,-4930,-25685
1142.8,13014,66754,-4858,-25628
1144.8,12846,66670,-5000,-25756
1146.8,12805,66664,-5178,-25895
1148.8,13032,66835,-5189,-25892
1150.8,13271,67050,-5076,-25841
1152.8,13347,67091,-5037,-25897
1154.8,13302,66966,-5092,-26003
1156.8,13139,66856,-5123,-26058
1158.8,12836,66838,-5148,-26125
1160.8,12567,66827,-5216,-26204
1162.8,12580,66740,-5238,-26178
1164.8,12802,66643,-5195,-26109
1166.8,12882,66672,-5174,-26140
1168.8,12719,66786,-5166,-26186
1170.8,12620,66816,-5146,-26147
1172.8,12791,66770,-5172,-26134
1174.8,12988,66759,-5178,-26207
1176.8,12909,66720,-5088,-26275
1178.8,12652,66600,-5081,-26343
1180.8,12558,66560,-5250,-26439
1182.8,12729,66671,-5329,-26449
1184.8,12961,66743,-5208,-26345
1186.8,13089,66683,-5178,-26292
1188.8,13157,66600,-5352,-26346
1190.8,13200,66548,-5432,-26361
1192.8,13125,66495,-5197,-26221
1194.8,12882,66436,-4823,-25994
1196.8,12603,66361,-4685,-25883
1198.8,12482,66298,-4969,-26045
1200.8,12598,66376,-5409,-26364
1202.8,12824,66624,-5545,-26527
1204.8,12942,66826,-5301,-26397
1206.8,12875,66814,-5038,-26164
1208.8,12740,66698,-5009,-26068
1210.8,12694,66682,-5085,-26104
1212.8,12851,66783,-5048,-26104
1214.8,13147,66822,-4954,-26075
1216.8,13240,66676,-5051,-26209
1218.8,12929,66504,-5318,-26449
1220.8,12588,66550,-5427,-26482
1222.8,12658,66740,-5316,-26323
1224.8,12958,66802,-5282,-26323
1226.8,13045,66727,-5344,-26495
1228.8,12912,66700,-5256,-26564
1230.8,12866,66703,-5136,-26539
1232.8,13035,66631,-5240,-26548
1234.8,13260,66594,-5377,-26490
1236.8,13357,66711,-5335,-26362
1238.8,13408,66849,-5304,-26359
1240.8,13563,66866,-5373,-26416
1242.78,13600,66831,-5351,-26335
1244.75,13292,66859,-5238,-26210
1246.73,13042,66927,-5172,-26174
1248.7,13237,66959,-5137,-26162
1250.7,13431,66965,-5130,-26178
1252.7,13197,66982,-5166,-26233
1254.7,12990,66986,-5127,-26182
1256.7,13224,67001,-5052,-26075
1258.7,13516,67121,-5114,-26125
1260.7,13535,67273,-5198,-26221
1262.7,13519,67287,-5174,-26193
1264.7,13587,67278,-5227,-26185
1266.7,13534,67429,-5308,-26187
1268.7,13381,67493,-5135,-26002
1270.7,13370,67237,-4933,-25868
1272.7,13519,67010,-5032,-26049
1274.7,13646,67122,-5126,-26192
1276.7,13665,67274,-5004,-26079
1278.7,13625,67223,-5000,-26061
1280.7,13566,67227,-5095,-26139
1282.7,13487,67446,-4950,-25957
1284.7,13472,67691,-4807,-25739
1286.7,13639,67824,-4925,-25825
1288.7,13859,67818,-4885,-25826
1290.7,13879,67660,-4535,-25463
1292.7,13790,67513,-4399,-25211
1294.7,13849,67568,-4592,-25346
1296.7,13956,67727,-4681,-25507
1298.7,13876,67794,-4581,-25472
1300.7,13638,67755,-4483,-25374
1302.7,13308,67715,-4415,-25318
1304.7,13009,67806,-4414,-25352
1306.7,13130,68024,-4488,-25462
1308.7,13628,68091,-4450,-25489
1310.7,13717,67865,-4328,-25419
1312.7,13247,67684,-4416,-25465
1314.7,13150,67766,-4673,-25636
1316.7,13666,67807,-4788,-25704
1318.7,13892,67685,-4748,-25634
1320.7,13577,67716,-4720,-25571
1322.7,13382,67885,-4713,-25559
1324.7,13387,67815,-4730,-25565
1326.7,13244,67577,-4816,-25588
1328.7,13251,67543,-4877,-25625
1330.7,13632,67632,-4849,-25687
1332.7,13755,67546,-4849,-25787
1334.7,13306,67371,-4917,-25863
1336.7,12942,67322,-4944,-25883
1338.7,13038,67378,-4955,-25927
1340.7,13181,67471,-5028,-26017
1342.7,13200,67577,-5039,-26024
1344.7,13304,67571,-4902,-25953
1346.7,13345,67421,-4837,-25991
1348.7,13182,67343,-4958,-26127
1350.7,13189,67418,-5044,-26160
1352.7,13456,67468,-5016,-26130
1354.7,13493,67442,-5031,-26195
1356.7,13270,67436,-5024,-26226
1358.7,13259,67405,-4940,-26159
1360.7,13377,67356,-5084,-26280
1362.7,13286,67442,-5414,-26521
1364.7,13270,67531,-5345,-26375
1366.7,13498,67381,-4925,-25950
1368.7,13480,67263,-4852,-25890
1370.7,13197,67505,-5079,-26147
1372.7,13305,67770,-5030,-26209
1374.7,13715,67714,-4878,-26138
1376.7,13685,67628,-5001,-26161
1378.7,13356,67714,-5082,-26092
1380.7,13436,67740,-4959,-25966
1382.7,13759,67702,-5000,-26060
1384.7,13751,67760,-5163,-26187
1386.7,13613,67693,-5139,-26121
1388.7,13658,67416,-5089,-26109
1390.7,13492,67369,-5087,-26144
1392.7,12983,67699,-4864,-25890
1394.7,12838,67943,-4612,-25586
1396.7,13265,67853,-4678,-25637
1398.7,13401,67665,-4777,-25768
1400.7,12910,67571,-4684,-25714
1402.7,12691,67581,-4721,-25752
1404.7,13266,67659,-4894,-25922
1406.7,13838,67715,-4918,-25978
1408.7,13715,67757,-4959,-26003
1410.7,13389,67881,-5087,-26036
1412.7,13478,67945,-4923,-25846
1414.7,13696,67761,-4608,-25640
1416.7,13588,67538,-4706,-25825
1418.7,13347,67536,-5042,-26133
1420.7,13309,67605,-5097,-26154
1422.7,13420,67613,-5037,-26108
1424.7,13567,67726,-5150,-26229
1426.7,13775,67926,-5221,-26309
1428.7,13906,67956,-5113,-26259
1430.7,13788,67828,-5001,-26218
1432.7,13603,67759,-4960,-26200
1434.7,13636,67756,-4992,-26193
1436.7,13810,67717,-5105,-26223
1438.7,13853,67629,-5143,-26211
1440.7,13711,67493,-5058,-26183
1442.7,13554,67387,-5116,-26315
1444.7,13524,67485,-5362,-26493
1446.7,13644,67710,-5465,-26443
1448.7,13777,67735,-5343,-26293
1450.7,13692,67520,-5270,-26313
1452.7,13400,67361,-5338,-26417
1454.7,13303,67364,-5437,-26472
1456.7,13606,67393,-5511,-26534
1458.7,13879,67429,-5465,-26499
1460.7,13781,67509,-5246,-26251
1462.68,13624,67526,-5124,-26113
1464.65,13598,67455,-5325,-26351
1466.63,13388,67470,-5555,-26604
1468.6,13166,67623,-5535,-26568
1470.6,13519,67746,-5517,-26549
1472.6,14029,67775,-5633,-26676
1474.6,13733,67808,-5487,-26544
1476.6,13067,67867,-5058,-26170
1478.6,13272,67936,-4959,-26144
1480.6,14086,68051,-5238,-26439
1482.6,14160,68146,-5215,-26403
1484.6,13367,68099,-4879,-26078
1486.6,12822,68039,-4911,-26094
1488.6,13010,68161,-5251,-26374
1490.6,13391,68280,-5282,-26399
1492.6,13541,68116,-5127,-26307
1494.6,13572,67859,-5191,-26395
1496.6,13593,67835,-5178,-26351
1498.6,13496,67951,-4890,-26052
1500.6,13321,68011,-4836,-25992
1502.6,13293,68132,-5125,-26250
1504.6,13434,68395,-5172,-26308
1506.6,13565,68589,-4897,-26104
1508.6,13684,68607,-4806,-26054
1510.6,13894,68599,-4970,-26200
1512.6,14042,68596,-5075,-26299
1514.6,13927,68509,-5089,-26322
1516.6,13696,68466,-5124,-26325
1518.6,13639,68642,-5146,-26285
1520.6,13786,68874,-5109,-26221
1522.6,13934,68867,-5045,-26198
1524.6,13915,68703,-5051,-26291
1526.6,13772,68694,-5181,-26468
1528.6,13723,68824,-5198,-26452
1530.6,13862,68777,-4945,-26160
1532.6,13981,68523,-4853,-26072
1534.6,13898,68350,-5231,-26429
1536.6,13755,68328,-5539,-26686
1538.6,13745,68218,-5359,-26534
1540.6,13811,67925,-5199,-26454
1542.6,13821,67599,-5450,-26696
1544.6,13772,67369,-5758,-26893
1546.6,13709,67289,-5883,-26924
1548.6,13673,67363,-5999,-27015
1550.6,13714,67460,-6126,-27156
1552.6,13792,67437,-6165,-27220
1554.6,13769,67311,-6155,-27226
1556.6,13599,67141,-6058,-27174
1558.6,13412,66959,-5844,-27054
1560.6,13378,66874,-5769,-27009
1562.6,13518,66960,-6014,-27125
1564.6,13649,67086,-6307,-27283
1566.6,13611,67139,-6328,-27356
1568.6,13509,67161,-6198,-27370
1570.6,13501,67141,-6197,-27392
1572.6,13547,66998,-6229,-27355
1574.6,13601,66775,-6051,-27192
1576.6,13699,66596,-5906,-27123
1578.6,13720,66571,-6182,-27374
1580.6,13597,66783,-6558,-27646
1582.6,13575,67110,-6447,-27516
1584.6,13718,67203,-6058,-27211
1586.6,13728,66962,-5987,-27203
1588.6,13648,66722,-6163,-27397
1590.6,13762,66699,-6145,-27408
1592.6,13756,66711,-5951,-27219
1594.6,13278,66659,-5894,-27092
1596.6,12898,66691,-6052,-27172
1598.6,13144,66804,-6232,-27358
1600.6,13495,66823,-6266,-27462
1602.6,13500,66792,-6233,-27480
1604.6,13545,66846,-6260,-27512
1606.6,13672,66851,-6224,-27482
1608.6,13344,66707,-6061,-27357
1610.6,12845,66682,-6053,-27369
1612.6,13067,66924,-6254,-27526
1614.6,13806,67085,-6283,-27494
1616.6,14053,66925,-6097,-27277
1618.6,13745,66724,-6074,-27236
1620.6,13598,66649,-6229,-27411
1622.6,13711,66432,-6321,-27668
1624.6,13711,65976,-6455,-28118
1626.6,13632,65573,-6727,-28692
1628.6,13603,65373,-6831,-28953
1630.6,13428,65329,-6532,-28718
1632.6,13180,65569,-5920,-28189
1634.6,13360,66208,-5164,-27506
1636.6,14036,67002,-4459,-26738
1638.6,14668,67673,-3922,-25997
1640.6,14988,68323,-3383,-25223
1642.6,15390,69240,-2690,-24246
1644.6,16281,70450,-1927,-23042
1646.6,17445,71591,-1118,-21701
1648.6,18248,72324,-320,-20430
1650.6,18533,72878,134,-19471
1652.6,18842,73751,200,-18729
1654.6,19380,74875,348,-17906
1656.6,19486,75754,728,-17100
1658.6,18789,76263,985,-16585
1660.6,17883,76566,1034,-16297
1662.6,17312,76613,1033,-16185
1664.6,16983,76384,890,-16414
1666.6,16729,75996,488,-16917
1668.6,16402,75224,-226,-17668
1670.6,15748,73772,-1518,-19187
1672.6,14884,72016,-3415,-21685
1674.6,14259,70554,-5324,-24370
1676.6,13971,69352,-6766,-26450
1678.6,13909,68183,-7778,-27855
1680.6,14052,67313,-8289,-28598
1682.58,14059,67050,-8123,-28593
1684.55,13551,67190,-7572,-28190
1686.53,12996,67356,-7105,-27905
1688.5,13048,67378,-6813,-27808
1690.5,13364,67207,-6612,-27740
1692.5,13320,66924,-6527,-27698
1694.5,13185,66749,-6551,-27744
1696.5,13446,66746,-6616,-27854
1698.5,13849,66692,-6679,-27970
1700.5,13937,66473,-6728,-28066
1702.5,13745,66294,-6762,-28153
1704.5,13530,66301,-6736,-28197
1706.5,13414,66348,-6591,-28130
1708.5,13444,66317,-6434,-28028
1710.5,13524,66268,-6421,-28010
1712.5,13429,66169,-6467,-28011
1714.5,13218,65969,-6485,-27996
1716.5,13245,65887,-6585,-28091
1718.5,13493,66060,-6693,-28216
1720.5,13501,66157,-6586,-28146
1722.5,13231,65958,-6448,-28020
1724.5,13223,65815,-6585,-28083
1726.5,13597,65968,-6767,-28170
1728.5,13786,66111,-6664,-28067
1730.5,13552,66086,-6448,-27917
1732.5,13375,66135,-6376,-27858
1734.5,13543,66284,-6399,-27837
1736.5,13701,66292,-6413,-27847
1738.5,13574,66202,-6403,-27889
1740.5,13417,66225,-6410,-27926
1742.5,13490,66313,-6548,-28012
1744.5,13621,66317,-6748,-28112
1746.5,13591,66274,-6723,-28029
1748.5,13543,66277,-6501,-27828
1750.5,13690,66314,-6426,-27812
1752.5,13896,66309,-6534,-27968
1754.5,13905,66220,-6610,-28067
1756.5,13823,66144,-6669,-28121
1758.5,13883,66205,-6739,-28198
1760.5,13911,66329,-6670,-28203
1762.5,13611,66330,-6536,-28176
1764.5,13219,66224,-6580,-28258
1766.5,13193,66174,-6684,-28339
1768.5,13429,66200,-6579,-28251
1770.5,13493,66186,-6393,-28125
1772.5,13391,66095,-6389,-28149
1774.5,13395,65987,-6478,-28243
1776.5,13427,65904,-6478,-28288
1778.5,13306,65877,-6489,-28340
1780.5,13234,65943,-6602,-28390
1782.5,13422,66027,-6606,-28275
1784.5,13649,65970,-6437,-28051
1786.5,13651,65828,-6438,-28050
1788.5,13559,65878,-6713,-28288
1790.5,13622,66147,-6837,-28358
1792.5,13785,66309,-6637,-28160
1794.5,13755,66194,-6460,-28021
1796.5,13441,65991,-6456,-28050
1798.5,13208,65887,-6498,-28136
1800.5,13447,65890,-6669,-28330
1802.5,13865,65916,-6922,-28546
1804.5,13774,65850,-6863,-28458
1806.5,13192,65695,-6539,-28190
1808.5,12841,65661,-6485,-28203
1810.5,12947,65842,-6677,-28401
1812.5,13021,66021,-6610,-28324
1814.5,12917,66054,-6297,-28028
1816.5,13076,66036,-6150,-27902
1818.5,13532,65985,-6245,-28018
1820.5,13691,65822,-6407,-28205
1822.5,13381,65656,-6506,-28327
1824.5,13136,65644,-6498,-28344
1826.5,13207,65710,-6509,-28377
1828.5,13283,65735,-6636,-28500
1830.5,13322,65730,-6674,-28541
1832.5,13576,65702,-6550,-28470
1834.5,13841,65682,-6574,-28508
1836.5,13756,65778,-6738,-28554
1838.5,13523,65925,-6634,-28297
1840.5,13480,65918,-6323,-27959
1842.5,13531,65842,-6249,-27966
1844.5,13508,65951,-6387,-28172
1846.5,13419,66105,-6434,-28220
1848.5,13294,65977,-6405,-28161
1850.5,13308,65738,-6400,-28169
1852.5,13659,65812,-6365,-28222
1854.5,14054,66121,-6308,-28252
1856.5,14030,66266,-6254,-28223
1858.5,13732,66218,-6172,-28143
1860.5,13636,66199,-6116,-28097
1862.5,13756,66143,-6101,-28064
1864.5,13775,65912,-6052,-27969
1866.5,13641,65767,-6079,-27930
1868.5,13582,65999,-6240,-27979
1870.5,13690,66345,-6228,-27847
1872.5,13821,66388,-5958,-27536
1874.5,13884,66246,-5840,-27435
1876.5,13934,66254,-5942,-27532
1878.5,13963,66352,-5877,-27462
1880.5,13935,66341,-5696,-27324
1882.5,13967,66328,-5776,-27441
1884.5,14086,66454,-6014,-27671
1886.5,14091,66621,-6099,-27742
1888.5,13999,66727,-6059,-27703
1890.5,14061,66795,-5965,-27590
1892.5,14139,66821,-5766,-27344
1894.5,13915,66802,-5582,-27096
1896.5,13662,66823,-5567,-27011
1898.5,13805,66931,-5638,-27057
1900.4,14061,67038,-5658,-27152
1902.4,14006,67048,-5630,-27253
1904.4,13897,66982,-5619,-27299
1906.4,14040,66976,-5654,-27268
1908.4,14172,67092,-5666,-27165
1910.4,14190,67154,-5610,-27036
1912.4,14378,67000,-5625,-27024
1914.4,14468,66815,-5720,-27097
1916.4,13901,66845,-5600,-26949
1918.4,13203,66972,-5253,-26597
1920.4,13387,66967,-5162,-26547
1922.4,14095,66903,-5474,-26922
1924.4,14186,66932,-5742,-27227
1926.4,13744,66959,-5744,-27243
1928.4,13662,66852,-5764,-27289
1930.4,13902,66682,-5943,-27477
1932.4,13891,66567,-6053,-27525
1934.4,13786,66487,-5973,-27362
1936.4,13906,66397,-5913,-27277
1938.4,13928,66381,-6013,-27374
1940.4,13739,66525,-6070,-27417
1942.4,13862,66663,-5982,-27344
1944.4,14309,66544,-6030,-27430
1946.4,14364,66286,-6242,-27665
1948.4,13928,66247,-6188,-27672
1950.4,13664,66451,-5926,-27519
1952.4,13729,66622,-6048,-27665
1954.4,13718,66691,-6421,-27966
1956.4,13619,66732,-6345,-27887
1958.4,13670,66665,-5973,-27584
1960.4,13751,66488,-5979,-27563
1962.4,13714,66423,-6206,-27691
1964.4,13722,66502,-6158,-27635
1966.4,13865,66476,-6050,-27585
1968.4,13967,66349,-6221,-27730
1970.4,13885,66439,-6413,-27811
1972.4,13721,66744,-6360,-27687
1974.4,13763,66834,-6261,-27622
1976.4,14077,66565,-6316,-27787
1978.4,14208,66326,-6385,-27964
1980.4,13806,66378,-6279,-27880
1982.4,13341,66506,-6111,-27609
1984.4,13397,66516,-6132,-27459
1986.4,13707,66489,-6285,-27491
1988.4,13711,66465,-6288,-27495
1990.4,13501,66423,-6140,-27427
1992.4,13506,66450,-6067,-27428
1994.4,13769,66525,-6109,-27514
1996.4,14047,66485,-6221,-27630
1998.4,14212,66412,-6408,-27765
2000.4,14265,66509,-6544,-27843
2002.4,14170,66645,-6487,-27804
2004.4,13906,66608,-6303,-27697
2006.4,13633,66502,-6084,-27544
2008.4,13548,66438,-5939,-27421
2010.4,13629,66352,-6053,-27510
2012.4,13769,66314,-6258,-27676
2014.4,13948,66421,-6149,-27578
2016.4,14048,66513,-5929,-27407
2018.4,13910,66483,-6103,-27573
2020.4,13728,66495,-6405,-27823
2022.4,13805,66588,-6329,-27738
2024.4,14013,66593,-6133,-27556
2026.4,14080,66493,-6166,-27570
2028.4,14031,66382,-6196,-27582
2030.4,13916,66270,-6129,-27507
2032.4,13746,66217,-6216,-27550
2034.4,13816,66314,-6387,-27668
2036.4,14232,66448,-6416,-27688
2038.4,14412,66471,-6396,-27653
2040.4,13961,66436,-6404,-27622
2042.4,13416,66428,-6352,-27573
2044.4,13333,66409,-6358,-27606
2046.4,13575,66369,-6550,-27775
2048.4,13916,66355,-6746,-27945
2050.4,14227,66358,-6766,-28002
2052.4,14081,66379,-6644,-27906
2054.4,13412,66459,-6432,-27650
2056.4,13073,66527,-6234,-27418
2058.4,13544,66428,-6222,-27431
2060.4,13985,66179,-6373,-27598
2062.4,13700,66011,-6510,-27722
2064.4,13322,66079,-6621,-27832
2066.4,13492,66281,-6747,-27962
2068.4,13781,66408,-6770,-27985
2070.4,13824,66380,-6685,-27940
2072.4,13967,66258,-6717,-28039
2074.4,14141,66134,-6882,-28222
2076.4,13812,66069,-6891,-28204
2078.4,13332,66103,-6696,-27997
2080.4,13476,66206,-6611,-27875
2082.4,13885,66286,-6726,-27889
2084.4,13799,66333,-6793,-27870
2086.4,13570,66461,-6716,-27794
2088.4,13760,66674,-6594,-27704
2090.4,13985,66734,-6437,-27556
2092.4,13894,66536,-6349,-27473
2094.4,13838,66386,-6549,-27672
2096.4,13921,66538,-6830,-27937
2098.4,13836,66718,-6748,-27874
2100.4,13661,66607,-6496,-27671
2102.4,13678,66428,-6579,-27762
2104.4,13844,66494,-6800,-27944
2106.4,14052,66625,-6680,-27805
2108.4,14233,66572,-6404,-27517
2110.4,14164,66491,-6327,-27389
2112.4,13838,66568,-6314,-27338
2114.4,13603,66731,-6258,-27302
2116.4,13567,66915,-6301,-27373
2118.4,13568,67075,-6360,-27430
2120.4,13664,67038,-6324,-27403
2122.38,13897,66846,-6385,-27485
2124.35,13999,66840,-6526,-27620
2126.33,13951,67075,-6502,-27564
2128.3,14073,67209,-6452,-27485
2130.3,14241,67098,-6520,-27552
2132.3,13998,66914,-6412,-27477
2134.3,13545,66820,-6203,-27274
2136.3,13544,66923,-6405,-27381
2138.3,13983,67192,-6765,-27638
2140.3,14207,67310,-6649,-27545
2142.3,14006,67081,-6393,-27356
2144.3,13828,66779,-6573,-27512
2146.3,13916,66630,-6830,-27732
2148.3,13981,66481,-6802,-27750
2150.3,13860,66258,-6845,-27824
2152.3,13804,66075,-7067,-28008
2154.3,13872,65837,-7170,-28113
2156.3,13760,65490,-7251,-28255
2158.3,13487,65351,-7468,-28490
2160.3,13474,65550,-7563,-28560
2162.3,13740,65673,-7488,-28480
2164.3,13862,65458,-7523,-28505
2166.3,13759,65187,-7591,-28543
2168.3,13667,65117,-7468,-28431
2170.3,13561,65127,-7328,-28361
2172.3,13396,65061,-7367,-28460
2174.3,13430,64944,-7463,-28575
2176.3,13666,64872,-7540,-28629
2178.3,13702,64939,-7635,-28636
2180.3,13568,65137,-7637,-28523
2182.3,13703,65275,-7460,-28320
2184.3,13945,65229,-7285,-28224
2186.3,13790,65157,-7322,-28305
2188.3,13507,65227,-7536,-28448
2190.3,13621,65324,-7703,-28539
2192.3,13732,65269,-7643,-28509
2194.3,13340,65077,-7485,-28430
2196.3,13081,64864,-7580,-28569
2198.3,13619,64736,-7964,-28963
2200.3,14217,64769,-8147,-29124
2202.3,13911,64878,-7819,-28732
2204.3,13106,64878,-7393,-28238
2206.3,12795,64806,-7354,-28161
2208.3,13128,64848,-7525,-28331
2210.3,13601,64981,-7560,-28427
2212.3,13886,65078,-7553,-28514
2214.3,13945,65121,-7606,-28579
2216.3,13805,65029,-7550,-28440
2218.3,13470,64739,-7457,-28295
2220.3,13084,64551,-7577,-28414
2222.3,13117,64738,-7712,-28530
2224.3,13784,64969,-7592,-28409
2226.3,14339,64818,-7477,-28362
2228.3,13986,64468,-7606,-28527
2230.3,13297,64279,-7752,-28619
2232.3,13299,64214,-7843,-28696
2234.3,13680,64081,-8077,-29064
2236.3,13491,63826,-8309,-29539
2238.3,12949,63491,-8256,-29782
2240.3,12937,63292,-8051,-29854
2242.3,13442,63503,-7810,-29758
2244.3,13816,64052,-7278,-29200
2246.3,13957,64627,-6419,-28239
2248.3,14250,65167,-5653,-27369
2250.3,14813,65831,-5241,-26801
2252.3,15486,66702,-4921,-26213
2254.3,16245,67782,-4262,-25193
2256.3,17118,68898,-3226,-23760
2258.3,17881,69714,-2333,-22437
2260.3,18351,70280,-1983,-21557
2262.3,18772,71085,-1830,-20748
2264.3,19385,72199,-1432,-19698
2266.3,19830,73134,-1014,-18811
2268.3,19590,73723,-825,-18355
2270.3,18779,74143,-618,-17990
2272.3,17968,74261,-385,-17710
2274.3,17456,73960,-522,-17916
2276.3,17098,73552,-980,-18417
2278.3,16661,73079,-1490,-18870
2280.3,16115,72058,-2397,-19857
2282.3,15517,70420,-4103,-22022
2284.3,14769,68747,-6172,-24781
2286.3,13871,67385,-7843,-27061
2288.3,13270,66240,-8850,-28510
2290.3,13302,65339,-9319,-29314
2292.3,13526,64830,-9430,-29636
2294.3,13409,64664,-9326,-29624
2296.3,13221,64693,-9070,-29469
2298.3,13397,64806,-8735,-29300
2300.3,13678,64833,-8460,-29169
2302.3,13671,64684,-8316,-29102
2304.3,13521,64501,-8256,-29111
2306.3,13485,64387,-8203,-29146
2308.3,13518,64225,-8114,-29126
2310.3,13514,64015,-8076,-29117
2312.3,13474,63952,-8216,-29229
2314.3,13465,64045,-8382,-29330
2316.3,13623,64099,-8343,-29253
2318.3,13854,64090,-8206,-29155
2320.3,13754,64107,-8140,-29178
2322.3,13320,64073,-8030,-29157
2324.3,13161,63938,-7901,-29076
2326.3,13449,63864,-8025,-29166
2328.3,13624,63944,-8311,-29366
2330.3,13563,64055,-8392,-29404
2332.3,13729,64077,-8291,-29315
2334.3,13983,63990,-8244,-29269
2336.3,13775,63832,-8238,-29251
2338.3,13363,63736,-8203,-29237
2340.3,13338,63791,-8164,-29222
2342.28,13471,63881,-8091,-29116
2344.25,13337,63922,-8017,-28969
2346.23,13206,64016,-8042,-28946
2348.2,13334,64138,-8072,-29010
2350.2,13429,64120,-8051,-29089
2352.2,13384,64031,-8150,-29261
2354.2,13448,64037,-8282,-29392
2356.2,13526,64010,-8146,-29257
2358.2,13364,63829,-7939,-29106
2360.2,13230,63704,-8036,-29256
2362.2,13468,63743,-8202,-29441
2364.2,13791,63726,-8134,-29385
2366.2,13846,63616,-8121,-29327
2368.2,13826,63647,-8334,-29396
2370.2,13844,63812,-8416,-29334
2372.2,13572,63892,-8247,-29121
2374.2,13090,63846,-8107,-29000
2376.2,13035,63726,-8060,-28994
2378.2,13445,63519,-8002,-29020
2380.2,13596,63345,-8022,-29132
2382.2,13289,63398,-8154,-29288
2384.2,13108,63603,-8212,-29333
2386.2,13305,63708,-8160,-29308
2388.2,13516,63656,-8164,-29376
2390.2,13533,63581,-8223,-29477
2392.2,13498,63556,-8178,-29437
2394.2,13499,63539,-8091,-29339
2396.2,13525,63506,-8187,-29416
2398.2,13542,63494,-8398,-29597
2400.2,13441,63516,-8419,-29578
2402.2,13269,63555,-8259,-29382
2404.2,13343,63629,-8222,-29336
2406.2,13664,63749,-8321,-29463
2408.2,13672,63791,-8297,-29474
2410.2,13186,63644,-8162,-29346
2412.2,12922,63443,-8154,-29334
2414.2,13385,63376,-8292,-29505
2416.2,13955,63400,-8421,-29685
2418.2,13878,63411,-8507,-29766
2420.2,13413,63486,-8585,-29782
2422.2,13246,63674,-8568,-29736
2424.2,13431,63798,-8358,-29580
2426.2,13623,63709,-8105,-29416
2428.2,13706,63526,-8103,-29447
2430.2,13677,63425,-8285,-29598
2432.2,13458,63387,-8292,-29593
2434.2,13178,63333,-8187,-29530
2436.2,13081,63337,-8336,-29680
2438.2,13138,63480,-8537,-29806
2440.2,13199,63619,-8355,-29589
2442.2,13267,63562,-8075,-29380
2444.2,13281,63383,-8155,-29542
2446.2,13157,63311,-8302,-29727
2448.2,13093,63367,-8141,-29621
2450.2,13237,63378,-7953,-29499
2452.2,13318,63302,-8035,-29566
2454.2,13208,63287,-8227,-29660
2456.2,13222,63376,-8305,-29671
2458.2,13445,63402,-8209,-29582
2460.2,13549,63286,-8045,-29436
2462.2,13482,63188,-8046,-29410
2464.2,13502,63190,-8203,-29528
2466.2,13544,63158,-8233,-29552
2468.2,13356,63080,-8134,-29456
2470.2,13120,63110,-8107,-29403
2472.2,13201,63171,-8074,-29348
2474.2,13463,63102,-8001,-29273
2476.2,13564,63121,-8066,-29303
2478.2,13635,63425,-8109,-29297
2480.2,13870,63669,-7909,-29116
2482.2,13933,63601,-7829,-29064
2484.2,13656,63580,-8086,-29246
2486.2,13552,63826,-8152,-29241
2488.2,13827,63995,-7811,-28966
2490.2,13943,63915,-7568,-28813
2492.2,13748,63815,-7590,-28811
2494.2,13730,63749,-7603,-28760
2496.2,13945,63644,-7658,-28788
2498.2,14015,63671,-7863,-28949
2500.2,13965,63885,-7980,-29012
2502.2,13971,64008,-7942,-28966
2504.2,13913,63954,-7907,-28927
2506.2,13800,63949,-7788,-28762
2508.2,13867,64028,-7523,-28482
2510.2,14119,63989,-7380,-28397
2512.2,14358,63824,-7503,-28581
2514.2,14382,63789,-7730,-28804
2516.2,14057,64030,-7870,-28901
2518.2,13700,64323,-7803,-28822
2520.2,13847,64337,-7618,-28667
2522.2,14221,64137,-7567,-28624
2524.2,14052,64068,-7563,-28568
2526.2,13501,64125,-7339,-28292
2528.2,13335,64039,-7179,-28107
2530.2,13553,63923,-7459,-28321
2532.2,13691,64050,-7810,-28564
2534.2,13732,64218,-7829,-28535
2536.2,13761,64104,-7794,-28547
2538.2,13705,63891,-7896,-28731
2540.2,13700,63878,-7879,-28780
2542.2,13792,63949,-7737,-28671
2544.2,13657,63896,-7672,-28609
2546.2,13371,63809,-7638,-28580
2548.2,13523,63859,-7649,-28608
2550.2,14072,64012,-7844,-28803
2552.2,14248,64092,-8003,-28955
2554.2,13844,63991,-7866,-28838
2556.2,13441,63783,-7707,-28696
2558.2,13375,63638,-7829,-28785
2560.2,13459,63655,-8008,-28909
2562.2,13559,63781,-7986,-28881
2564.2,13632,63815,-7918,-28851
2566.2,13533,63571,-7991,-28945
2568.2,13326,63218,-8130,-29060
2570.2,13376,63198,-8186,-29081
2572.18,13782,63553,-8115,-29010
2574.15,14184,63759,-8004,-28938
2576.13,14255,63566,-8033,-29008
2578.1,14017,63403,-8232,-29195
2580.1,13701,63544,-8294,-29203
2582.1,13529,63637,-8016,-28912
2584.1,13522,63463,-7778,-28717
2586.1,13526,63357,-7966,-28903
2588.1,13514,63481,-8201,-29086
2590.1,13542,63506,-8027,-28939
2592.1,13490,63338,-7825,-28845
2594.1,13320,63303,-8039,-29099
2596.1,13297,63425,-8289,-29307
2598.1,13459,63391,-8199,-29206
2600.1,13531,63274,-8059,-29087
2602.1,13612,63374,-8035,-29055
2604.1,13930,63514,-7914,-28929
2606.1,14050,63385,-7806,-28830
2608.1,13647,63204,-7992,-28977
2610.1,13416,63260,-8303,-29219
2612.1,13806,63378,-8408,-29315
2614.1,14051,63353,-8234,-29195
2616.1,13682,63276,-7926,-28937
2618.1,13326,63207,-7802,-28826
2620.1,13291,63125,-8029,-29013
2622.1,13255,63126,-8249,-29159
2624.1,13351,63246,-8210,-29061
2626.1,13744,63363,-8248,-29037
2628.1,13872,63436,-8428,-29116
2630.1,13538,63483,-8318,-28958
2632.1,13466,63453,-8046,-28765
2634.1,13896,63388,-8107,-28926
2636.1,14187,63372,-8269,-29108
2638.1,14067,63290,-8138,-28992
2640.1,13898,63081,-8055,-28980
2642.1,13853,62987,-8292,-29252
2644.1,13823,63127,-8458,-29367
2646.1,13774,63261,-8339,-29181
2648.1,13725,63224,-8181,-28989
2650.1,13670,63090,-8138,-28916
2652.1,13655,62943,-8241,-28967
2654.1,13748,62888,-8487,-29166
2656.1,13923,63039,-8642,-29328
2658.1,13992,63250,-8520,-29271
2660.1,13804,63226,-8309,-29118
2662.1,13536,62977,-8231,-29050
2664.1,13493,62776,-8285,-29101
2666.1,13608,62759,-8394,-29227
2668.1,13606,62840,-8481,-29329
2670.1,13474,62898,-8555,-29389
2672.1,13332,62913,-8687,-29482
2674.1,13184,62980,-8712,-29470
2676.1,13119,63135,-8435,-29184
2678.1,13304,63231,-8145,-28917
2680.1,13599,63122,-8165,-28976
2682.1,13690,62890,-8277,-29122
2684.1,13594,62763,-8327,-29169
2686.1,13619,62865,-8560,-29359
2688.1,13873,63070,-8892,-29667
2690.1,14092,63125,-8937,-29760
2692.1,13990,62973,-8799,-29709
2694.1,13650,62811,-8775,-29741
2696.1,13443,62736,-8705,-29682
2698.1,13534,62644,-8467,-29430
2700.1,13684,62548,-8386,-29307
2702.1,13650,62636,-8619,-29456
2704.1,13539,62948,-8840,-29574
2706.1,13580,63239,-8754,-29429
2708.1,13699,63256,-8468,-29179
2710.1,13660,63037,-8335,-29112
2712.1,13511,62881,-8490,-29269
2714.1,13463,62950,-8649,-29420
2716.1,13451,63077,-8615,-29455
2718.1,13356,63105,-8639,-29541
2720.1,13369,63095,-8850,-29701
2722.1,13590,63087,-8914,-29701
2724.1,13731,63052,-8696,-29527
2726.1,13619,63082,-8509,-29402
2728.1,13396,63229,-8466,-29320
2730.1,13154,63343,-8391,-29156
2732.1,13001,63350,-8307,-29028
2734.1,13116,63375,-8349,-29062
2736.1,13345,63473,-8417,-29126
2738.1,13423,63565,-8390,-29099
2740.1,13534,63580,-8379,-29085
2742.1,13770,63484,-8478,-29169
2744.1,13709,63351,-8574,-29249
2746.1,13350,63355,-8567,-29249
2748.1,13306,63505,-8587,-29291
2750.1,13579,63623,-8733,-29421
2752.1,13621,63657,-8761,-29398
2754.1,13537,63653,-8499,-29124
2756.1,13681,63549,-8321,-28985
2758.1,13748,63377,-8540,-29212
2760.1,13557,63321,-8758,-29393
2762.1,13545,63338,-8646,-29253
2764.1,13740,63213,-8613,-29174
2766.1,13722,62987,-8916,-29401
2768.1,13643,62846,-9140,-29631
2770.1,13761,62752,-9101,-29714
2772.1,13663,62602,-9108,-29804
2774.1,13255,62413,-9156,-29831
2776.1,13215,62164,-9041,-29705
2778.1,13593,61871,-9010,-29689
2780.1,13627,61743,-9286,-29896
2782.1,13275,61887,-9523,-30028
2784.1,13243,62049,-9470,-29979
2786.1,13573,62003,-9400,-29996
2788.1,13705,61875,-9455,-30095
2790.1,13521,61806,-9359,-30011
2792.1,13291,61672,-9098,-29799
2794.1,13165,61414,-9144,-29876
2796.1,13239,61275,-9656,-30314
2798.1,13479,61419,-10055,-30601
2800.0,13533,61630,-9844,-30369
2802.0,13222,61689,-9341,-29928
2804.0,12907,61675,-9091,-29720
2806.0,12902,61671,-9118,-29743
2808.0,13088,61590,-9240,-29871
2810.0,13300,61445,-9440,-30095
2812.0,13432,61369,-9608,-30274
2814.0,13310,61361,-9618,-30285
2816.0,13041,61353,-9642,-30312
2818.0,13000,61376,-9781,-30461
2820.0,13108,61435,-9811,-30533
2822.0,12994,61472,-9663,-30455
2824.0,12850,61454,-9516,-30362
2826.0,13020,61326,-9430,-30292
2828.0,13194,61118,-9439,-30308
2830.0,13118,61110,-9602,-30468
2832.0,13188,61360,-9712,-30571
2834.0,13469,61420,-9670,-30531
2836.0,13461,61151,-9802,-30633
2838.0,13290,61116,-10079,-30827
2840.0,13473,61472,-9970,-30674
2842.0,13655,61599,-9593,-30334
2844.0,13354,61353,-9600,-30352
2846.0,13179,61320,-9825,-30530
2848.0,13605,61490,-9665,-30365
2850.0,13826,61219,-9413,-30177
2852.0,13271,60591,-9669,-30530
2854.0,12640,60293,-10131,-31164
2856.0,12486,60291,-10202,-31501
2858.0,12446,60101,-9980,-31512
2860.0,12363,59974,-9761,-31391
2862.0,12614,60446,-9379,-31012
2864.0,13179,61242,-8644,-30250
2866.0,13595,61827,-7816,-29357
2868.0,13807,62401,-7144,-28554
2870.0,14298,63315,-6428,-27648
2872.0,15337,64256,-5557,-26489
2874.0,16492,64909,-4897,-25362
2876.0,17151,65629,-4577,-24435
2878.0,17417,66738,-4160,-23409
2880.0,17934,67902,-3503,-22179
2882.0,18751,68693,-3033,-21149
2884.0,19174,69188,-2881,-20553
2886.0,18871,69705,-2727,-20163
2888.0,18232,70269,-2470,-19779
2890.0,17595,70565,-2292,-19490
2892.0,16971,70390,-2333,-19485
2894.0,16428,69979,-2667,-19817
2896.0,16019,69542,-3264,-20413
2898.0,15521,68738,-4172,-21474
2900.0,14745,67212,-5732,-23498
2902.0,13824,65346,-7863,-26285
2904.0,13049,63809,-9649,-28686
2906.0,12695,62729,-10572,-30070
2908.0,12841,61882,-11137,-30897
2910.0,13102,61241,-11564,-31433
2912.0,12990,60910,-11487,-31457
2914.0,12675,60884,-11144,-31254
2916.0,12728,61041,-11037,-31250
2918.0,13107,61184,-10880,-31163
2920.0,13278,61181,-10424,-30793
2922.0,13174,61100,-10142,-30582
2924.0,13105,60998,-10155,-30665
2926.0,13054,60801,-10059,-30702
2928.0,12881,60636,-9961,-30730
2930.0,12781,60763,-10098,-30868
2932.0,12894,60992,-10108,-30833
2934.0,12960,60878,-9889,-30648
2936.0,12759,60529,-9875,-30692
2938.0,12436,60402,-9979,-30810
2940.0,12285,60503,-9838,-30689
2942.0,12482,60554,-9775,-30644
2944.0,12888,60543,-10054,-30872
2946.0,13094,60515,-10188,-30950
2948.0,12897,60391,-9983,-30790
2950.0,12560,60284,-9895,-30782
2952.0,12395,60390,-9995,-30892
2954.0,12473,60562,-9949,-30821
2956.0,12733,60564,-9841,-30723
2958.0,12976,60496,-9941,-30841
2960.0,13016,60557,-10171,-31047
2962.0,13038,60718,-10320,-31148
2964.0,13208,60814,-10259,-31083
2966.0,13143,60714,-9979,-30874
2968.0,12695,60447,-9764,-30736
2970.0,12564,60271,-9910,-30872
2972.0,13073,60407,-10203,-31081
2974.0,13403,60671,-10244,-31081
2976.0,13078,60705,-10136,-31016
2978.0,12791,60500,-10187,-31107
2980.0,13028,60352,-10251,-31161
2982.0,13331,60352,-10057,-30970
2984.0,13291,60320,-9839,-30797
2986.0,13050,60224,-9936,-30898
2988.0,12837,60249,-10155,-31039
2990.0,12822,60414,-10184,-30997
2992.0,13088,60531,-10139,-30969
2994.0,13419,60568,-10162,-31051
2996.0,13511,60607,-10115,-31048
2998.0,13308,60586,-9996,-30961
3000.0,12868,60437,-9934,-30926
3002.0,12330,60318,-9837,-30835
3004.0,12123,60366,-9725,-30696
3006.0,12527,60474,-9888,-30811
3008.0,13072,60500,-10245,-31138
3010.0,13083,60466,-10342,-31253
3012.0,12677,60428,-10130,-31102
3014.0,12500,60329,-9951,-30997
3016.0,12674,60139,-9948,-31051
3018.0,12759,60014,-10068,-31173
3020.0,12651,60111,-10228,-31280
3021.98,12678,60328,-10280,-31295
3023.95,12878,60462,-10219,-31233
3025.93,12971,60464,-10196,-31193
3027.9,12957,60334,-10197,-31169
3029.9,13005,60050,-10160,-31140
3031.9,12993,59771,-10198,-31174
3033.9,12817,59733,-10332,-31232
3035.9,12716,59873,-10425,-31246
3037.9,12757,59968,-10475,-31293
3039.9,12683,59990,-10473,-31327
3041.9,12581,60021,-10352,-31223
3043.9,12817,60073,-10327,-31190
3045.9,13173,60155,-10508,-31344
3047.9,13090,60201,-10472,-31300
3049.9,12715,60044,-10151,-31049
3051.9,12644,59774,-10215,-31210
3053.9,12841,59748,-10686,-31716
3055.9,12832,59979,-10738,-31776
3057.9,12615,60067,-10310,-31401
3059.9,12562,59893,-10130,-31262
3061.9,12777,59759,-10251,-31339
3063.9,13031,59794,-10259,-31272
3065.9,13025,59809,-10226,-31211
3067.9,12695,59721,-10256,-31261
3069.9,12420,59670,-10172,-31200
3071.9,12563,59740,-10091,-31108
3073.9,12853,59858,-10208,-31204
3075.9,12882,59933,-10272,-31288
3077.9,12820,59961,-10090,-31154
3079.9,12942,59975,-9886,-30962
3081.9,13047,59961,-9802,-30866
3083.9,12989,59924,-9801,-30867
3085.9,13011,59951,-9893,-30953
3087.9,13225,60050,-10010,-31039
3089.9,13428,60081,-10055,-31065
3091.9,13480,60006,-10097,-31102
3093.9,13353,59970,-10127,-31118
3095.9,13075,60038,-10019,-31029
3097.9,12890,60113,-9873,-30938
3099.9,12997,60122,-9829,-30901
3101.9,13156,60065,-9812,-30821
3103.9,13062,59994,-9814,-30777
3105.9,12920,60035,-9881,-30843
3107.9,13028,60214,-9840,-30788
3109.9,13194,60321,-9660,-30560
3111.9,13171,60246,-9615,-30489
3113.9,13185,60203,-9732,-30625
3115.9,13421,60363,-9764,-30674
3117.9,13622,60573,-9692,-30587
3119.9,13664,60633,-9619,-30500
3121.9,13713,60560,-9538,-30421
3123.9,13642,60495,-9499,-30365
3125.9,13272,60519,-9499,-30342
3127.9,13069,60596,-9423,-30297
3129.9,13503,60681,-9443,-30365
3131.9,14125,60796,-9750,-30655
3133.9,14249,60876,-9945,-30813
3135.9,13970,60785,-9707,-30564
3137.9,13786,60651,-9442,-30251
3139.9,13793,60713,-9386,-30124
3141.9,13735,60806,-9203,-29969
3143.9,13495,60660,-8978,-29824
3145.9,13256,60502,-9158,-29976
3147.9,13199,60632,-9507,-30239
3149.9,13249,60796,-9549,-30292
3151.9,13277,60718,-9508,-30316
3153.9,13276,60611,-9620,-30433
3155.9,13202,60634,-9536,-30336
3157.9,13086,60587,-9255,-30072
3159.9,13186,60444,-9323,-30141
3161.9,13452,60427,-9697,-30480
3163.9,13379,60462,-9778,-30532
3165.9,12953,60316,-9633,-30374
3167.9,12807,60177,-9804,-30544
3169.9,13038,60362,-10149,-30924
3171.9,13082,60669,-10125,-30951
3173.9,12904,60668,-9821,-30660
3175.9,12985,60392,-9675,-30506
3177.9,13280,60177,-9721,-30584
3179.9,13351,60119,-9793,-30725
3181.9,13230,60123,-9867,-30842
3183.9,13238,60140,-9912,-30878
3185.9,13356,60145,-9965,-30885
3187.9,13403,60161,-10143,-30988
3189.9,13392,60268,-10215,-30989
3191.9,13362,60367,-9893,-30664
3193.9,13237,60236,-9568,-30398
3195.9,13053,59959,-9701,-30562
3197.9,12976,59845,-9923,-30765
3199.9,12998,59948,-9866,-30701
3201.9,12971,60097,-9874,-30716
3203.9,12964,60189,-10050,-30870
3205.9,13145,60159,-10041,-30836
3207.9,13367,60015,-9997,-30794
3209.9,13384,59965,-10142,-30943
3211.9,13286,60082,-10006,-30819
3213.9,13207,60113,-9562,-30397
3215.9,13055,59987,-9608,-30414
3217.9,12922,59991,-10115,-30846
3219.9,13040,60177,-10185,-30918
3221.9,13192,60253,-9830,-30657
3223.9,13048,60141,-9729,-30623
3225.9,12883,60026,-9830,-30719
3227.9,12995,59967,-9787,-30651
3229.9,13020,59928,-9722,-30558
3231.9,12741,59963,-9716,-30518
3233.9,12637,60085,-9708,-30486
3235.9,12934,60210,-9820,-30603
3237.9,13179,60250,-9995,-30814
3239.9,13117,60190,-9972,-30827
3241.88,13022,60149,-9847,-30686
3243.85,13078,60226,-9808,-30603
3245.83,13167,60258,-9744,-30543
3247.8,13179,60087,-9702,-30517
3249.8,13146,59951,-9880,-30635
3251.8,13214,60071,-10078,-30754
3253.8,13463,60204,-10063,-30720
3255.8,13708,60127,-10006,-30653
3257.8,13710,60012,-9994,-30605
3259.8,13496,59965,-9929,-30541
3261.8,13246,59868,-9957,-30589
3263.8,13137,59792,-10144,-30742
3265.8,13304,59896,-10184,-30759
3267.8,13551,60013,-10018,-30662
3269.8,13412,59903,-9934,-30644
3271.8,12925,59676,-9929,-30619
3273.8,12707,59540,-9843,-30515
3275.8,12925,59473,-9824,-30557
3277.8,13105,59408,-9999,-30790
3279.8,13088,59403,-10183,-30969
3281.8,13184,59480,-10258,-31042
3283.8,13415,59574,-10283,-31109
3285.8,13494,59685,-10248,-31093
3287.8,13382,59783,-10127,-30920
3289.8,13182,59713,-10004,-30749
3291.8,12848,59496,-9981,-30747
3293.8,12460,59477,-10091,-30865
3295.8,12374,59762,-10264,-30940
3297.8,12741,59958,-10353,-30901
3299.8,13228,59839,-10315,-30837
3301.8,13398,59675,-10243,-30836
3303.8,13180,59613,-10199,-30871
3305.8,12923,59496,-10196,-30920
3307.8,13036,59407,-10271,-31024
3309.8,13420,59549,-10392,-31140
3311.8,13486,59702,-10442,-31167
3313.8,13060,59602,-10384,-31108
3315.8,12768,59488,-10298,-31032
3317.8,13002,59616,-10275,-31010
3319.8,13274,59784,-10309,-31065
3321.8,13205,59782,-10292,-31117
3323.8,13127,59714,-10223,-31115
3325.8,13182,59694,-10270,-31169
3327.8,13070,59724,-10379,-31278
3329.8,12922,59795,-10296,-31259
3331.8,13116,59808,-10130,-31161
3333.8,13414,59721,-10183,-31182
3335.8,13454,59757,-10246,-31171
3337.8,13431,60000,-10040,-30965
3339.8,13410,60117,-9908,-30855
3341.8,13137,59976,-10111,-31005
3343.8,12933,59966,-10217,-31052
3345.8,13290,60245,-9972,-30841
3347.8,13729,60427,-9777,-30701
3349.8,13622,60363,-9867,-30771
3351.8,13413,60380,-10018,-30882
3353.8,13594,60563,-10101,-30994
3355.8,13646,60620,-10173,-31121
3357.8,13222,60536,-10235,-31164
3359.8,13021,60598,-10316,-31147
3361.8,13532,60790,-10390,-31160
3363.8,14053,60802,-10282,-31111
3365.8,13780,60598,-9987,-30935
3367.8,13075,60433,-9767,-30798
3369.8,12905,60410,-9795,-30848
3371.8,13363,60437,-10015,-31022
3373.8,13609,60464,-10238,-31149
3375.8,13279,60411,-10232,-31133
3377.8,12929,60140,-10077,-31127
3379.8,12930,59779,-10178,-31371
3381.8,13038,59643,-10516,-31707
3383.8,13122,59673,-10590,-31738
3385.8,13221,59497,-10391,-31535
3387.8,13131,59135,-10459,-31531
3389.8,12840,58995,-10826,-31775
3391.8,12787,59147,-10979,-31913
3393.8,13052,59249,-10826,-31812
3395.8,13180,59152,-10765,-31703
3397.8,13087,59016,-10927,-31772
3399.8,13112,58934,-11037,-31894
3401.8,13234,58887,-10984,-31892
3403.8,13209,58938,-11026,-31899
3405.8,13158,59079,-11279,-32090
3407.8,13203,59084,-11429,-32259
3409.8,13101,58852,-11301,-32204
3411.8,12890,58657,-11192,-32164
3413.8,13078,58718,-11300,-32342
3415.8,13593,58845,-11412,-32505
3417.8,13629,58818,-11395,-32467
3419.8,13146,58740,-11350,-32352
3421.8,13071,58708,-11340,-32292
3423.8,13506,58638,-11382,-32302
3425.8,13533,58562,-11438,-32336
3427.8,13096,58596,-11364,-32299
3429.8,12977,58620,-11210,-32226
3431.8,13071,58472,-11215,-32255
3433.8,12878,58320,-11349,-32341
3435.8,12903,58413,-11427,-32360
3437.8,13486,58663,-11435,-32308
3439.8,13664,58768,-11289,-32124
3441.8,12963,58618,-10948,-31840
3443.8,12432,58403,-10829,-31828
3445.8,12700,58343,-11175,-32206
3447.8,13078,58394,-11469,-32465
3449.8,13116,58390,-11394,-32337
3451.8,13149,58369,-11334,-32177
3453.8,13242,58432,-11399,-32148
3455.8,13166,58492,-11274,-32062
3457.8,13136,58457,-11092,-31995
3459.8,13399,58364,-11170,-32117
3461.8,13607,58174,-11350,-32318
3463.8,13412,57840,-11488,-32574
3465.8,13116,57540,-11753,-33018
3467.8,13108,57396,-12022,-33499
3469.7,13244,57268,-11967,-33727
3471.7,13251,57147,-11630,-33668
3473.7,13217,57303,-11167,-33330
3475.7,13293,57825,-10479,-32621
3477.7,13403,58501,-9580,-31657
3479.7,13504,59189,-8759,-30728
3481.7,13774,59941,-8151,-29902
3483.7,14375,60865,-7547,-28964
3485.7,15284,61980,-6734,-27726
3487.7,16272,63050,-5864,-26345
3489.7,17033,63804,-5310,-25185
3491.7,17547,64434,-5097,-24272
3493.7,18065,65354,-4870,-23298
3495.7,18471,66446,-4503,-22260
3497.7,18329,67233,-4149,-21448
3499.7,17769,67629,-3768,-20846
3501.7,17280,67758,-3348,-20364
3503.7,16730,67533,-3243,-20263
3505.7,15918,67060,-3595,-20622
3507.7,15486,66751,-4111,-21127
3509.7,15695,66476,-4822,-21925
3511.7,15466,65493,-6164,-23671
3513.7,14252,63616,-8116,-26409
3515.7,13155,61584,-10113,-29331
3517.7,12894,60073,-11687,-31636
3519.7,12719,59109,-12640,-32993
3521.7,12262,58515,-12988,-33528
3523.7,12190,58237,-13036,-33692
3525.7,12554,58186,-13071,-33794
3527.7,12617,58194,-13013,-33732
3529.7,12387,58202,-12701,-33414
3531.7,12492,58249,-12226,-33047
3533.7,12870,58308,-11809,-32839
3535.7,13058,58284,-11615,-32833
3537.7,13147,58138,-11670,-32988
3539.7,13300,57905,-11817,-33191
3541.7,13189,57681,-11911,-33307
3543.7,12824,57590,-11979,-33312
3545.7,12783,57638,-12029,-33261
3547.7,13064,57721,-11978,-33231
3549.7,13054,57799,-11861,-33253
3551.7,12825,57869,-11774,-33227
3553.7,12940,57845,-11674,-33050
3555.7,13205,57742,-11512,-32838
3557.7,13173,57754,-11397,-32754
3559.7,13154,57895,-11449,-32772
3561.7,13386,57933,-11606,-32793
3563.7,13377,57816,-11663,-32769
3565.7,13022,57717,-11551,-32703
3567.7,12892,57691,-11503,-32719
3569.7,13028,57708,-11665,-32888
3571.7,13035,57820,-11786,-33014
3573.7,13076,57957,-11705,-32978
3575.7,13295,57911,-11652,-32960
3577.7,13221,57739,-11704,-33023
3579.7,12881,57754,-11672,-33005
3581.7,13007,58002,-11623,-32952
3583.7,13491,58135,-11708,-32998
3585.7,13451,57953,-11760,-33025
3587.7,12951,57702,-11699,-32949
3589.7,12783,57671,-11690,-32899
3591.7,12920,57760,-11669,-32877
3593.7,12861,57721,-11527,-32822
3595.7,12759,57589,-11511,-32842
3597.7,12898,57537,-11700,-32932
3599.7,13029,57561,-11762,-32915
3601.7,13037,57606,-11642,-32823
3603.7,13186,57714,-11607,-32806
3605.7,13373,57829,-11623,-32808
3607.7,13282,57787,-11547,-32793
3609.7,13165,57620,-11550,-32895
3611.7,13345,57527,-11699,-33055
3613.7,13411,57561,-11717,-33031
3615.7,12985,57598,-11542,-32860
3617.7,12584,57573,-11480,-32818
3619.7,12727,57558,-11634,-32976
3621.7,13060,57620,-11751,-33138
3623.7,13160,57695,-11702,-33186
3625.7,13197,57656,-11662,-33194
3627.7,13297,57512,-11730,-33219
3629.7,13255,57419,-11755,-33199
3631.7,13127,57466,-11667,-33142
3633.7,13179,57574,-11612,-33142
3635.7,13288,57608,-11648,-33180
3637.7,13146,57519,-11672,-33174
3639.7,12846,57409,-11672,-33182
3641.7,12762,57434,-11713,-33280
3643.7,13059,57568,-11787,-33409
3645.7,13495,57620,-11870,-33500
3647.7,13608,57513,-11906,-33519
3649.7,13267,57354,-11813,-33444
3651.7,12954,57279,-11727,-33416
3653.7,13072,57355,-11849,-33575
3655.7,13339,57535,-11963,-33699
3657.7,13387,57646,-11823,-33575
3659.7,13315,57604,-11719,-33432
3661.7,13186,57539,-11825,-33399
3663.7,12868,57530,-11757,-33222
3665.7,12619,57488,-11488,-32978
3667.7,12823,57415,-11520,-33067
3669.7,13192,57428,-11770,-33318
3671.7,13208,57509,-11714,-33262
3673.7,13048,57546,-11508,-33060
3675.7,13177,57560,-11607,-33104
3677.7,13448,57598,-11798,-33255
3679.7,13417,57588,-11720,-33254
3681.7,13199,57501,-11583,-33237
3683.7,13269,57457,-11667,-33373
3685.7,13572,57508,-11803,-33540
3687.7,13574,57519,-11728,-33551
3689.7,13229,57380,-11502,-33411
3691.68,13069,57210,-11389,-33279
3693.65,13257,57227,-11450,-33221
3695.63,13439,57432,-11478,-33134
3697.6,13538,57606,-11428,-33061
3699.6,13772,57605,-11492,-33174
3701.6,14014,57498,-11601,-33344
3703.6,13952,57421,-11510,-33308
3705.6,13653,57457,-11328,-33175
3707.6,13436,57564,-11259,-33138
3709.6,13425,57550,-11183,-33079
3711.6,13488,57342,-11093,-32983
3713.6,13473,57236,-11237,-33037
3715.6,13471,57483,-11480,-33116
3717.6,13644,57859,-11426,-32955
3719.6,13808,58022,-11177,-32729
3721.6,13670,58012,-11083,-32678
3723.6,13449,58006,-11089,-32648
3725.6,13610,58011,-11008,-32531
3727.6,14060,58023,-10931,-32513
3729.6,14258,58069,-10967,-32628
3731.6,14034,58086,-11078,-32726
3733.6,13808,58064,-11196,-32776
3735.6,13957,58119,-11216,-32772
3737.6,14251,58231,-11098,-32666
3739.6,14270,58290,-11006,-32562
3741.6,14164,58350,-10992,-32532
3743.6,14229,58448,-10869,-32438
3745.6,14115,58441,-10667,-32310
3747.6,13561,58336,-10646,-32356
3749.6,13223,58338,-10762,-32470
3751.6,13572,58424,-10811,-32413
3753.6,13978,58409,-10840,-32291
3755.6,13952,58348,-10841,-32222
3757.6,13934,58369,-10669,-32096
3759.6,14112,58380,-10540,-32029
3761.6,13985,58316,-10720,-32219
3763.6,13544,58270,-10864,-32388
3765.6,13437,58234,-10668,-32272
3767.6,13805,58153,-10539,-32194
3769.6,14105,58135,-10727,-32346
3771.6,14047,58207,-10761,-32348
3773.6,13795,58128,-10478,-32127
3775.6,13481,57882,-10459,-32182
3777.6,13238,57865,-10882,-32594
3779.6,13313,58168,-11136,-32826
3781.6,13629,58280,-10937,-32697
3783.6,13729,57952,-10755,-32609
3785.6,13529,57629,-10888,-32757
3787.6,13430,57631,-11056,-32907
3789.6,13502,57678,-11067,-32947
3791.6,13438,57584,-11101,-33000
3793.6,13300,57610,-11231,-33076
3795.6,13389,57846,-11303,-33087
3797.6,13604,57971,-11244,-33052
3799.6,13704,57809,-11122,-33019
3801.6,13714,57577,-11021,-33002
3803.6,13563,57524,-10993,-33022
3805.6,13106,57629,-11003,-33039
3807.6,12684,57719,-11024,-33026
3809.6,12776,57743,-11132,-33101
3811.6,13200,57792,-11248,-33254
3813.6,13461,57842,-11143,-33250
3815.6,13487,57757,-10952,-33113
3817.6,13467,57612,-11004,-33100
3819.6,13499,57605,-11125,-33153
3821.6,13609,57694,-11038,-33115
3823.6,13689,57737,-11032,-33156
3825.6,13605,57792,-11275,-33265
3827.6,13538,57889,-11327,-33112
3829.6,13731,57869,-11084,-32839
3831.6,13950,57726,-11017,-32908
3833.6,13862,57666,-11153,-33144
3835.6,13617,57708,-11096,-33095
3837.6,13414,57701,-10920,-32913
3839.6,13139,57682,-10912,-32887
3841.6,12898,57786,-10971,-32873
3843.6,13041,57925,-10953,-32787
3845.6,13381,57926,-10954,-32806
3847.6,13406,57866,-10986,-32881
3849.6,13243,57912,-10946,-32789
3851.6,13328,57968,-10841,-32577
3853.6,13495,57851,-10758,-32483
3855.6,13435,57668,-10782,-32613
3857.6,13387,57644,-10892,-32818
3859.6,13525,57726,-10898,-32841
3861.6,13585,57758,-10759,-32685
3863.6,13594,57772,-10746,-32649
3865.6,13800,57780,-10904,-32795
3867.6,13862,57689,-10928,-32856
3869.6,13420,57615,-10806,-32802
3871.6,13011,57758,-10831,-32849
3873.6,13161,57944,-10930,-32920
3875.6,13405,57900,-10799,-32778
3877.6,13289,57763,-10513,-32508
3879.6,13190,57748,-10363,-32369
3881.6,13348,57733,-10439,-32439
3883.6,13422,57642,-10695,-32670
3885.6,13427,57653,-11019,-32989
3887.6,13722,57779,-11216,-33254
3889.6,14018,57849,-11183,-33325
3891.6,13810,57870,-10989,-33161
3893.6,13434,57876,-10754,-32881
3895.6,13455,57748,-10674,-32752
3897.6,13678,57546,-10837,-32871
3899.6,13693,57497,-10998,-32992
3901.6,13580,57553,-10981,-32986
3903.6,13515,57561,-10990,-33022
3905.6,13490,57617,-11068,-33066
3907.6,13546,57766,-10953,-32938
3909.6,13623,57800,-10747,-32848
3911.58,13540,57667,-10804,-33032
3913.55,13449,57558,-10995,-33214
3915.53,13621,57511,-11000,-33159
3917.5,13791,57450,-10948,-33090
3919.5,13620,57436,-11073,-33157
3921.5,13436,57533,-11257,-33249
3923.5,13580,57644,-11272,-33321
3925.5,13729,57656,-11085,-33359
3927.5,13682,57602,-10928,-33347
3929.5,13798,57645,-11045,-33391
3931.5,14081,57872,-11195,-33411
3933.5,13982,58096,-10913,-33116
3935.5,13487,58080,-10419,-32694
3937.5,13228,57939,-10391,-32709
3939.5,13391,57927,-10807,-33111
3941.5,13542,57984,-11015,-33309
3943.5,13492,57887,-10824,-33162
3945.5,13456,57670,-10639,-33033
3947.5,13504,57546,-10732,-33097
3949.5,13544,57627,-10946,-33190
3951.5,13622,57880,-10954,-33131
3953.5,13700,58151,-10623,-32877
3955.5,13566,58248,-10220,-32576
3957.5,13311,58192,-10143,-32478
3959.5,13305,58220,-10371,-32622
3961.5,13522,58384,-10509,-32744
3963.5,13592,58461,-10438,-32701
3965.5,13467,58387,-10461,-32714
3967.5,13338,58372,-10636,-32877
3969.5,13244,58490,-10587,-32878
3971.5,13274,58566,-10285,-32629
3973.5,13549,58544,-10241,-32555
3975.5,13804,58545,-10546,-32788
3977.5,13737,58579,-10689,-32928
3979.5,13561,58585,-10577,-32866
3981.5,13566,58644,-10581,-32865
3983.5,13660,58794,-10643,-32858
3985.5,13728,58847,-10509,-32686
3987.5,13762,58664,-10396,-32608
3989.5,13690,58350,-10494,-32758
3991.5,13608,58040,-10601,-32882
3993.5,13713,57782,-10723,-32995
3995.5,13808,57640,-11040,-33306
3997.5,13655,57622,-11325,-33601
3999.5,13506,57591,-11325,-33644
4001.5,13547,57462,-11246,-33657
4003.5,13538,57325,-11303,-33803
4005.5,13515,57262,-11433,-33908
4007.5,13738,57222,-11516,-33850
4009.5,13879,57139,-11418,-33653
4011.5,13516,57049,-11175,-33447
4013.5,13072,57036,-11178,-33504
4015.5,13135,57073,-11516,-33808
4017.5,13484,57008,-11664,-33938
4019.5,13649,56832,-11464,-33801
4021.5,13665,56769,-11385,-33743
4023.5,13708,56903,-11513,-33814
4025.5,13700,57012,-11513,-33831
4027.5,13571,56976,-11451,-33860
4029.5,13450,56939,-11530,-33927
4031.5,13474,56967,-11598,-33878
4033.5,13594,56995,-11581,-33815
4035.5,13588,57042,-11606,-33896
4037.5,13342,57071,-11579,-33924
4039.5,13089,56938,-11434,-33829
4041.5,13115,56756,-11424,-33885
4043.5,13280,56806,-11606,-34080
4045.5,13249,57026,-11694,-34093
4047.5,13103,57128,-11627,-33942
4049.5,13192,57069,-11582,-33874
4051.5,13465,56969,-11579,-33888
4053.5,13603,56881,-11575,-33894
4055.5,13623,56857,-11578,-33908
4057.5,13675,56884,-11558,-33931
4059.5,13598,56805,-11565,-33993
4061.5,13360,56653,-11727,-34144
4063.5,13303,56678,-11880,-34229
4065.5,13434,56854,-11721,-34037
4067.5,13370,56888,-11375,-33703
4069.5,13181,56755,-11250,-33565
4071.5,13270,56672,-11425,-33722
4073.5,13540,56637,-11674,-34055
4075.5,13681,56479,-11919,-34481
4077.5,13754,56193,-12202,-34927
4079.5,13780,55873,-12387,-35203
4081.5,13543,55544,-12243,-35179
4083.5,13225,55308,-11808,-34985
4085.5,13296,55451,-11322,-34769
4087.5,13718,56091,-10806,-34381
4089.5,14077,56892,-10108,-33667
4091.5,14311,57501,-9341,-32858
4093.5,14671,58100,-8717,-32142
4095.5,15247,59048,-8080,-31234
4097.5,15944,60216,-7231,-29930
4099.5,16678,61217,-6414,-28598
4101.5,17381,62008,-5882,-27567
4103.5,17993,62815,-5502,-26632
4105.5,18532,63773,-5187,-25571
4107.5,18987,64861,-5011,-24522
4109.5,19089,65879,-4816,-23655
4111.5,18497,66553,-4447,-22989
4113.5,17444,66851,-4178,-22595
4115.5,16677,66942,-4251,-22532
4117.5,16467,66861,-4426,-22666
4119.5,16335,66535,-4518,-22852
4121.5,15995,65899,-4883,-23301
4123.5,15624,64791,-5961,-24530
4125.5,15162,63147,-7691,-26754
4127.5,14424,61344,-9623,-29482
4129.5,13768,59843,-11373,-31976
4131.48,13560,58685,-12741,-33846
4133.45,13442,57768,-13496,-34926
4135.43,13066,57226,-13508,-35130
4137.4,12832,57151,-13091,-34788
4139.4,13130,57313,-12735,-34503
4141.4,13619,57393,-12509,-34442
4143.4,13765,57282,-12258,-34386
4145.4,13497,57116,-12095,-34321
4147.4,13152,57073,-12104,-34354
4149.4,13120,57117,-12059,-34381
4151.4,13430,57068,-11878,-34333
4153.4,13670,56926,-11781,-34322
4155.4,13585,56826,-11815,-34353
4157.4,13474,56758,-11844,-34379
4159.4,13622,56685,-11907,-34485
4161.4,13795,56690,-12042,-34648
4163.4,13687,56720,-12065,-34661
4165.4,13449,56583,-11923,-34546
4167.4,13403,56396,-11861,-34558
4169.4,13570,56488,-11977,-34690
4171.4,13724,56747,-12032,-34680
4173.4,13711,56743,-11927,-34546
4175.4,13526,56523,-11942,-34595
4177.4,13301,56540,-12165,-34811
4179.4,13286,56788,-12163,-34767
4181.4,13548,56800,-11749,-34392
4183.4,13731,56511,-11502,-34231
4185.4,13572,56356,-11789,-34525
4187.4,13416,56466,-12067,-34768
4189.4,13612,56536,-11954,-34668
4191.4,13873,56522,-11898,-34600
4193.4,13892,56664,-12094,-34708
4195.4,13888,56856,-12087,-34667
4197.4,13980,56780,-11884,-34536
4199.4,13870,56561,-11976,-34675
4201.4,13527,56539,-12205,-34894
4203.4,13305,56643,-12037,-34768
4205.4,13328,56598,-11658,-34480
4207.4,13442,56449,-11618,-34464
4209.4,13564,56430,-11877,-34660
4211.4,13679,56569,-12018,-34726
4213.4,13771,56682,-11930,-34618
4215.4,13837,56640,-11822,-34560
4217.4,13780,56505,-11851,-34650
4219.4,13588,56413,-11991,-34786
4221.4,13533,56412,-12183,-34938
4223.4,13685,56516,-12384,-35137
4225.4,13661,56703,-12422,-35202
4227.4,13392,56790,-12151,-34954
4229.4,13360,56641,-11812,-34645
4231.4,13659,56467,-11734,-34592
4233.4,13766,56470,-11819,-34675
4235.4,13484,56477,-11833,-34696
4237.4,13180,56361,-11823,-34730
4239.4,13086,56329,-11887,-34814
4241.4,13126,56479,-11976,-34869
4243.4,13269,56604,-12054,-34925
4245.4,13514,56583,-12068,-34971
4247.4,13734,56490,-11976,-34916
4249.4,13805,56418,-11902,-34854
4251.4,13725,56418,-11912,-34883
4253.4,13593,56466,-11870,-34858
4255.4,13585,56448,-11800,-34763
4257.4,13756,56326,-11883,-34814
4259.4,13828,56172,-12005,-34983
4261.4,13609,56071,-11962,-35043
4263.4,13487,56140,-11873,-35017
4265.4,13799,56399,-11875,-35030
4267.4,14070,56598,-11889,-35065
4269.4,13781,56542,-11933,-35120
4271.4,13352,56442,-12057,-35199
4273.4,13378,56499,-12077,-35173
4275.4,13638,56502,-11895,-35021
4277.4,13717,56265,-11730,-34934
4279.4,13696,56016,-11732,-35002
4281.4,13710,55997,-11837,-35129
4283.4,13736,56118,-11999,-35239
4285.4,13859,56220,-12148,-35262
4287.4,14021,56311,-12133,-35145
4289.4,13956,56402,-11945,-34965
4291.4,13715,56386,-11711,-34816
4293.4,13523,56233,-11510,-34689
4295.4,13303,56102,-11396,-34621
4297.4,13142,56121,-11439,-34708
4299.4,13460,56207,-11610,-34915
4301.4,14058,56266,-11789,-35102
4303.4,14230,56343,-11862,-35187
4305.4,14012,56443,-11786,-35153
4307.4,13886,56462,-11608,-35019
4309.4,13691,56396,-11417,-34852
4311.4,13348,56359,-11291,-34759
4313.4,13565,56381,-11357,-34863
4315.4,14420,56411,-11665,-35137
4317.4,14769,56470,-11931,-35287
4319.4,14132,56597,-11805,-35055
4321.4,13440,56723,-11378,-34593
4323.4,13367,56750,-11053,-34279
4325.4,13583,56709,-11016,-34268
4327.4,13782,56711,-11156,-34435
4329.4,14004,56752,-11274,-34570
4331.4,14135,56732,-11249,-34558
4333.4,14034,56682,-11185,-34486
4335.4,13895,56770,-11244,-34486
4337.4,13963,56985,-11287,-34459
4339.4,14162,57077,-11109,-34269
4341.4,14223,56952,-10940,-34100
4343.4,14087,56859,-11065,-34179
4345.4,14028,57006,-11236,-34327
4347.4,14255,57282,-11138,-34291
4349.4,14575,57487,-10991,-34179
4351.38,14696,57565,-11039,-34154
4353.35,14600,57512,-11071,-34131
4355.33,14470,57375,-10942,-34074
4357.3,14467,57317,-10862,-34098
4359.3,14574,57400,-10915,-34171
4361.3,14566,57466,-10956,-34139
4363.3,14381,57472,-10958,-34033
4365.3,14306,57564,-10966,-33978
4367.3,14446,57695,-10935,-33973
4369.3,14538,57665,-10868,-33939
4371.3,14545,57512,-10802,-33852
4373.3,14658,57404,-10712,-33776
4375.3,14678,57322,-10657,-33826
4377.3,14352,57235,-10763,-34020
4379.3,14013,57250,-10982,-34236
4381.3,14024,57395,-11130,-34343
4383.3,14150,57525,-11101,-34269
4385.3,14141,57516,-10941,-34080
4387.3,14144,57383,-10846,-34017
4389.3,14183,57250,-10946,-34183
4391.3,14122,57218,-11091,-34328
4393.3,14191,57245,-11148,-34316
4395.3,14612,57243,-11227,-34347
4397.3,14866,57212,-11269,-34401
4399.3,14367,57142,-11064,-34250
4401.3,13601,57019,-10843,-34089
4403.3,13492,56949,-10965,-34237
4405.3,13975,57001,-11184,-34457
4407.3,14281,57038,-11184,-34464
4409.3,14183,56984,-11245,-34527
4411.3,13979,57009,-11522,-34792
4413.3,13854,57157,-11543,-34840
4415.3,13924,57179,-11166,-34538
4417.3,14210,56991,-10999,-34396
4419.3,14429,56850,-11316,-34641
4421.3,14476,56885,-11580,-34835
4423.3,14597,56901,-11447,-34724
4425.3,14585,56842,-11245,-34586
4427.3,13983,56911,-11180,-34536
4429.3,13252,57073,-11069,-34419
4431.3,13241,57062,-10994,-34378
4433.3,13734,56968,-11192,-34611
4435.3,14004,57109,-11411,-34804
4437.3,14056,57339,-11326,-34671
4439.3,14141,57273,-11156,-34523
4441.3,14108,57012,-11151,-34607
4443.3,13974,56910,-11184,-34682
4445.3,14031,56936,-11204,-34618
4447.3,14217,56889,-11231,-34518
4449.3,14273,56811,-11088,-34354
4451.3,14249,56794,-10870,-34195
4453.3,14233,56799,-10953,-34292
4455.3,14135,56823,-11221,-34556
4457.3,14069,56915,-11304,-34702
4459.3,14294,57067,-11327,-34806
4461.3,14615,57214,-11396,-34918
4463.3,14500,57245,-11182,-34765
4465.3,13978,57092,-10764,-34402
4467.3,13727,56911,-10668,-34278
4469.3,14032,56883,-10874,-34449
4471.3,14323,56906,-10996,-34615
4473.3,14115,56844,-11090,-34714
4475.3,13728,56849,-11254,-34771
4477.3,13683,57031,-11207,-34670
4479.3,13958,57173,-10894,-34457
4481.3,14201,57107,-10666,-34346
4483.3,14255,56992,-10698,-34399
4485.3,14276,57025,-10877,-34557
4487.3,14478,57145,-11051,-34714
4489.3,14715,57142,-11082,-34716
4491.3,14588,56945,-11010,-34615
4493.3,14169,56759,-11037,-34635
4495.3,14014,56810,-11098,-34723
4497.3,14216,56984,-10996,-34688
4499.3,14321,57016,-10928,-34699
4501.3,14266,56934,-11134,-34920
4503.3,14331,56939,-11322,-35041
4505.3,14362,57026,-11200,-34842
4507.3,14151,57073,-11028,-34636
4509.3,14061,57083,-11045,-34660
4511.3,14320,57058,-11072,-34724
4513.3,14492,56917,-10994,-34706
4515.3,14356,56704,-10993,-34725
4517.3,14336,56615,-11155,-34833
4519.3,14558,56732,-11349,-34968
4521.3,14540,56937,-11411,-35041
4523.3,14149,57060,-11267,-34940
4525.3,13936,57025,-11057,-34733
4527.3,14220,56933,-11043,-34681
4529.3,14613,56951,-11175,-34786
4531.3,14694,57056,-11139,-34765
4533.3,14575,57033,-10961,-34659
4535.3,14512,56839,-11013,-34812
4537.3,14444,56728,-11299,-35138
4539.3,14293,56878,-11414,-35200
4541.3,14264,57110,-11238,-34987
4543.3,14394,57168,-11043,-34844
4545.3,14386,57077,-10922,-34780
4547.3,14271,57032,-10783,-34631
4549.3,14455,57091,-10760,-34598
4551.3,14766,57184,-10974,-34837
4553.3,14528,57276,-11106,-34955
4555.3,13843,57330,-10857,-34652
4557.3,13544,57278,-10555,-34347
4559.3,13787,57163,-10608,-34458
4561.3,13997,57137,-10777,-34663
4563.3,14011,57242,-10679,-34576
4565.3,14086,57364,-10517,-34451
4567.3,14170,57445,-10626,-34589
4569.3,14167,57552,-10830,-34757
4571.28,14303,57711,-10827,-34703
4573.25,14554,57826,-10703,-34609
4575.23,14522,57819,-10691,-34664
4577.2,14246,57766,-10824,-34758
4579.2,14240,57804,-10971,-34756
4581.2,14538,57939,-10992,-34687
4583.2,14643,58035,-10851,-34591
4585.2,14450,57977,-10666,-34459
4587.2,14327,57790,-10587,-34334
4589.2,14378,57641,-10655,-34305
4591.2,14434,57695,-10778,-34354
4593.2,14512,57870,-10807,-34370
4595.2,14666,57919,-10754,-34368
4597.2,14738,57854,-10820,-34490
4599.2,14672,57944,-11022,-34676
4601.2,14653,58159,-11090,-34713
4603.2,14816,58119,-10977,-34647
4605.2,15023,57696,-10942,-34698
4607.2,14886,57188,-11023,-34832
4609.2,14232,56886,-11064,-34904
4611.2,13708,56840,-11153,-35012
4613.2,14081,56926,-11404,-35249
4615.2,14791,56923,-11655,-35490
4617.2,14656,56779,-11782,-35642
4619.2,13935,56716,-11841,-35697
4621.2,13830,56825,-11819,-35618
4623.2,14328,56875,-11702,-35473
4625.2,14477,56760,-11599,-35421
4627.2,14177,56633,-11567,-35451
4629.2,14038,56541,-11629,-35519
4631.2,14212,56435,-11863,-35708
4633.2,14417,56425,-12122,-35912
4635.2,14478,56563,-12076,-35840
4637.2,14415,56654,-11737,-35522
4639.2,14363,56560,-11478,-35334
4641.2,14375,56385,-11542,-35482
4643.2,14304,56282,-11879,-35833
4645.2,14158,56308,-12220,-36089
4647.2,14172,56378,-12253,-36058
4649.2,14292,56321,-12013,-35868
4651.2,14272,56145,-11852,-35779
4653.2,14273,56082,-11896,-35809
4655.2,14528,56211,-11947,-35823
4657.2,14723,56321,-11893,-35803
4659.2,14543,56265,-11812,-35779
4661.2,14307,56161,-11839,-35788
4663.2,14392,56183,-12044,-35897
4665.2,14630,56343,-12268,-36026
4667.2,14733,56485,-12257,-35979
4669.2,14681,56454,-12086,-35804
4671.2,14506,56292,-12019,-35712
4673.2,14260,56204,-12040,-35712
4675.2,14179,56287,-11984,-35704
4677.2,14390,56393,-11865,-35692
4679.2,14584,56331,-11792,-35675
4681.2,14472,56152,-11809,-35651
4683.2,14297,56074,-11879,-35669
4685.2,14395,56138,-11886,-35698
4687.2,14609,56129,-11831,-35695
4689.2,14613,55920,-11915,-35778
4691.2,14454,55621,-12154,-36023
4693.2,14329,55318,-12317,-36333
4695.2,14292,54996,-12384,-36685
4697.2,14373,54740,-12453,-37049
4699.2,14487,54705,-12294,-37116
4701.2,14367,54934,-11692,-36661
4703.2,14137,55423,-10909,-35920
4705.2,14424,56192,-10248,-35194
4707.2,15307,57137,-9638,-34474
4709.2,16054,58081,-8910,-33614
4711.2,16386,59017,-8054,-32500
4713.2,16899,60009,-7217,-31181
4715.2,17877,60948,-6644,-29985
4717.2,18794,61747,-6338,-29095
4719.2,19268,62563,-5935,-28154
4721.2,19551,63537,-5298,-26892
4723.2,19853,64529,-4780,-25744
4725.2,19869,65330,-4573,-25159
4727.2,19310,65897,-4465,-24905
4729.2,18493,66193,-4362,-24667
4731.2,17971,66114,-4402,-24620
4733.2,17783,65719,-4630,-24934
4735.2,17568,65208,-5042,-25430
4737.2,17169,64483,-5782,-26146
4739.2,16663,63193,-7012,-27568
4741.2,16030,61377,-8704,-29876
4743.2,15247,59573,-10566,-32470
4745.2,14517,58181,-12173,-34595
4747.2,14155,57226,-13212,-35971
4749.2,14268,56689,-13599,-36628
4751.2,14564,56536,-13447,-36687
4753.2,14605,56532,-13056,-36472
4755.2,14350,56461,-12723,-36319
4757.2,14188,56375,-12531,-36270
4759.2,14346,56401,-12447,-36251
4761.2,14598,56486,-12411,-36248
4763.2,14666,56471,-12264,-36168
4765.2,14619,56320,-12029,-36021
4767.2,14723,56202,-12016,-36072
4769.2,14951,56235,-12213,-36325
4771.2,14946,56246,-12189,-36389
4773.2,14618,56051,-11916,-36196
4775.2,14336,55812,-11785,-36062
4777.2,14311,55740,-11823,-36039
4779.2,14387,55764,-11852,-36023
4781.2,14527,55775,-11954,-36110
4783.2,14734,55794,-12037,-36203
4785.2,14673,55757,-11858,-36071
4787.2,14271,55629,-11693,-35953
4789.2,14117,55590,-11860,-36144
4791.18,14433,55687,-11974,-36333
4793.15,14656,55698,-11773,-36263
4795.13,14643,55597,-11721,-36268
4797.1,14872,55589,-12013,-36495
4799.1,15128,55668,-12179,-36594
4801.1,14715,55692,-12031,-36442
4803.1,13939,55695,-11838,-36245
4805.1,13671,55692,-11706,-36095
4807.1,13819,55596,-11638,-36041
4809.1,13833,55508,-11748,-36169
4811.1,13919,55593,-11945,-36349
4813.1,14354,55708,-12001,-36393
4815.1,14622,55649,-11947,-36374
4817.1,14366,55544,-11931,-36412
4819.1,14123,55596,-11937,-36446
4821.1,14327,55728,-11929,-36438
4823.1,14618,55761,-11955,-36455
4825.1,14628,55702,-11993,-36502
4827.1,14549,55680,-11982,-36543
4829.1,14617,55724,-11980,-36611
4831.1,14720,55737,-12050,-36715
4833.1,14690,55666,-12111,-36767
4835.1,14531,55596,-12070,-36721
4837.1,14321,55615,-12013,-36677
4839.1,14201,55663,-12035,-36698
4841.1,14319,55629,-12059,-36713
4843.1,14566,55557,-12061,-36726
4845.1,14653,55607,-12148,-36822
4847.1,14596,55757,-12189,-36850
4849.1,14651,55737,-11993,-36666
4851.1,14715,55470,-11877,-36596
4853.1,14504,55316,-12172,-36905
4855.1,14225,55504,-12427,-37145
4857.1,14241,55680,-12183,-36920
4859.1,14357,55517,-11893,-36646
4861.1,14325,55305,-12015,-36708
4863.1,14472,55402,-12167,-36783
4865.1,14891,55601,-12017,-36627
4867.1,14923,55600,-11846,-36479
4869.1,14316,55552,-11792,-36402
4871.1,13824,55631,-11703,-36277
4873.1,13918,55618,-11720,-36307
4875.1,14143,55374,-12002,-36653
4877.1,14223,55219,-12247,-37004
4879.1,14414,55400,-12220,-37088
4881.1,14596,55664,-12118,-37007
4883.1,14447,55694,-12093,-36862
4885.1,14348,55557,-12039,-36660
4887.1,14712,55450,-11936,-36519
4889.1,14987,55383,-11866,-36498
4891.1,14619,55333,-11811,-36485
4893.1,14111,55376,-11757,-36455
4895.1,14022,55500,-11751,-36486
4897.1,14066,55559,-11775,-36542
4899.1,13995,55519,-11772,-36557
4901.1,14103,55519,-11769,-36601
4903.1,14395,55651,-11805,-36718
4905.1,14461,55803,-11814,-36793
4907.1,14310,55787,-11741,-36757
4909.1,14298,55578,-11695,-36734
4911.1,14388,55362,-11794,-36819
4913.1,14348,55275,-11900,-36893
4915.1,14303,55247,-11854,-36869
4917.1,14463,55259,-11834,-36898
4919.1,14701,55455,-11962,-37025
4921.1,14803,55753,-11911,-36983
4923.1,14749,55798,-11551,-36721
4925.1,14600,55581,-11364,-36601
4927.1,14471,55509,-11534,-36701
4929.1,14535,55654,-11577,-36689
4931.1,14750,55672,-11406,-36586
4933.1,14826,55566,-11508,-36738
4935.1,14695,55673,-11807,-36985
4937.1,14673,55949,-11716,-36863
4939.1,14921,56036,-11294,-36485
4941.1,15145,55921,-11131,-36341
4943.1,15057,55864,-11308,-36483
4945.1,14805,55902,-11417,-36579
4947.1,14714,55935,-11349,-36509
4949.1,14869,56059,-11361,-36458
4951.1,15147,56399,-11520,-36508
4953.1,15391,56737,-11529,-36459
4955.1,15419,56744,-11254,-36232
4957.1,15198,56499,-11036,-36091
4959.1,14991,56361,-11078,-36132
4961.1,15002,56397,-11073,-36065
4963.1,15079,56421,-10918,-35867
4965.1,15146,56466,-10968,-35904
4967.1,15351,56637,-11227,-36143
4969.1,15503,56788,-11262,-36167
4971.1,15232,56807,-11046,-35960
4973.1,14834,56838,-10902,-35822
4975.1,14868,56907,-10865,-35791
4977.1,15146,56860,-10845,-35790
4979.1,15199,56776,-10907,-35857
4981.1,15151,56857,-10978,-35918
4983.1,15157,56993,-10854,-35815
4985.1,14982,56957,-10604,-35614
4987.1,14726,56818,-10542,-35590
4989.1,14802,56783,-10824,-35895
4991.1,15062,56853,-11177,-36281
4993.1,15058,56871,-11198,-36306
4995.1,14866,56786,-10995,-36012
4997.1,14761,56730,-11046,-35918
4999.1,14721,56825,-11272,-36090
5001.1,14724,56955,-11170,-36086
5003.1,14836,56919,-10856,-35889
5005.1,14922,56738,-10825,-35857
5007.1,14863,56583,-10990,-35964
5009.1,14774,56508,-11069,-36038
5011.08,14801,56491,-11203,-36208
5013.05,15038,56552,-11422,-36456
5015.03,15424,56640,-11453,-36510
5017.0,15519,56643,-11351,-36388
5019.0,15029,56578,-11357,-36296
5021.0,14552,56552,-11329,-36195
5023.0,14791,56555,-11113,-36052
5025.0,15322,56506,-10994,-36064
5027.0,15298,56434,-11206,-36289
5029.0,14920,56421,-11490,-36483
5031.0,14951,56445,-11501,-36475
5033.0,15287,56446,-11327,-36389
5035.0,15272,56455,-11288,-36422
5037.0,14942,56475,-11341,-36497
5039.0,14804,56391,-11202,-36410
5041.0,14880,56227,-11078,-36334
5043.0,14908,56246,-11389,-36568
5045.0,14960,56489,-11777,-36833
5047.0,15144,56622,-11625,-36690
5049.0,15261,56507,-11268,-36418
5051.0,15147,56423,-11323,-36440
5053.0,14857,56498,-11437,-36441
5055.0,14509,56514,-11123,-36107
5057.0,14322,56428,-10835,-35883
5059.0,14476,56445,-11048,-36106
5061.0,14791,56583,-11371,-36369
5063.0,14999,56676,-11393,-36344
5065.0,15145,56701,-11303,-36258
5067.0,15292,56701,-11276,-36274
5069.0,15259,56594,-11183,-36252
5071.0,14967,56380,-11068,-36211
5073.0,14607,56299,-11166,-36345
5075.0,14442,56492,-11374,-36536
5077.0,14614,56694,-11292,-36434
5079.0,14932,56579,-10953,-36111
5081.0,15001,56320,-10919,-36072
5083.0,14882,56346,-11330,-36419
5085.0,14995,56631,-11588,-36641
5087.0,15247,56754,-11394,-36511
5089.0,15218,56637,-11229,-36407
5091.0,15057,56573,-11373,-36518
5093.0,15134,56615,-11468,-36567
5095.0,15283,56589,-11323,-36431
5097.0,15301,56556,-11186,-36284
5099.0,15348,56637,-11153,-36194
5101.0,15380,56672,-11109,-36136
5103.0,15230,56539,-11127,-36189
5105.0,15157,56451,-11333,-36382
5107.0,15302,56575,-11550,-36552
5109.0,15247,56737,-11490,-36508
5111.0,14934,56764,-11223,-36305
5113.0,14908,56732,-11121,-36225
5115.0,15214,56743,-11254,-36355
5117.0,15334,56729,-11282,-36442
5119.0,15206,56612,-11161,-36395
5121.0,15077,56458,-11244,-36445
5123.0,14876,56378,-11476,-36571
5125.0,14713,56391,-11467,-36539
5127.0,15009,56453,-11359,-36499
5129.0,15546,56525,-11488,-36670
5131.0,15621,56526,-11582,-36779
5133.0,15241,56401,-11391,-36637
5135.0,14944,56283,-11300,-36576
5137.0,14811,56375,-11494,-36709
5139.0,14747,56611,-11577,-36725
5141.0,14888,56699,-11441,-36607
5143.0,15034,56538,-11415,-36614
5145.0,14845,56334,-11556,-36727
5147.0,14728,56296,-11651,-36783
5149.0,15132,56385,-11601,-36766
5151.0,15457,56415,-11453,-36685
5153.0,15176,56349,-11373,-36608
5155.0,14917,56343,-11466,-36637
5157.0,15116,56454,-11530,-36672
5159.0,15151,56547,-11400,-36570
5161.0,14817,56583,-11245,-36416
5163.0,14810,56660,-11125,-36292
5165.0,15191,56731,-10992,-36235
5167.0,15261,56733,-11102,-36422
5169.0,15036,56834,-11463,-36743
5171.0,15125,57045,-11472,-36701
5173.0,15417,57013,-11022,-36326
5175.0,15372,56660,-10836,-36236
5177.0,15136,56447,-11118,-36511
5179.0,15243,56625,-11317,-36678
5181.0,15625,56897,-11285,-36658
5183.0,15705,57023,-11267,-36642
5185.0,15286,57109,-11218,-36582
5187.0,14861,57221,-11099,-36495
5189.0,14921,57268,-11093,-36524
5191.0,15269,57239,-11139,-36551
5193.0,15418,57210,-11038,-36408
5195.0,15376,57164,-10888,-36244
5197.0,15411,57077,-10896,-36255
5199.0,15450,57085,-11087,-36441
5201.0,15433,57304,-11319,-36661
5203.0,15632,57543,-11359,-36682
5205.0,15971,57520,-11196,-36488
5207.0,15899,57332,-11138,-36387
5209.0,15416,57327,-11213,-36422
5211.0,15221,57524,-11057,-36246
5213.0,15556,57584,-10728,-35943
5215.0,15886,57346,-10764,-36043
5217.0,15804,57024,-11223,-36539
5219.0,15492,56849,-11589,-36886
5221.0,15336,56782,-11646,-36956
5223.0,15456,56646,-11677,-37088
5225.0,15531,56419,-11826,-37297
5227.0,15279,56213,-11866,-37272
5229.0,15071,56070,-11762,-37132
5231.0,15318,55993,-11864,-37333
5233.0,15496,56051,-12181,-37720
5235.0,15007,56169,-12157,-37629
5237.0,14478,56107,-11737,-37145
5238.9,14698,55879,-11600,-37037
5240.9,15178,55756,-11877,-37351
5242.9,15229,55754,-11995,-37495
5244.9,15200,55700,-11919,-37476
5246.9,15420,55677,-12024,-37615
5248.9,15488,55781,-12151,-37696
5250.9,15343,55828,-12113,-37592
5252.9,15420,55775,-12221,-37657
5254.9,15572,55813,-12396,-37803
5256.9,15363,55826,-12151,-37591
5258.9,15064,55581,-11777,-37326
5260.9,15107,55395,-11961,-37573
5262.9,15273,55639,-12393,-37956
5264.9,15263,55899,-12307,-37828
5266.9,15178,55639,-11898,-37477
5268.9,15057,55233,-11883,-37508
5270.9,14850,55324,-12197,-37761
5272.9,14839,55733,-12270,-37776
5274.9,15213,55887,-12108,-37677
5276.9,15528,55768,-12142,-37790
5278.9,15372,55671,-12320,-37948
5280.9,15080,55640,-12282,-37876
5282.9,15125,55649,-12126,-37768
5284.9,15376,55779,-12133,-37826
5286.9,15508,55909,-12148,-37838
5288.9,15509,55803,-12052,-37753
5290.9,15389,55580,-12126,-37850
5292.9,15140,55538,-12343,-38032
5294.9,15080,55675,-12296,-37924
5296.9,15407,55816,-12040,-37651
5298.9,15643,55857,-11935,-37548
5300.9,15438,55680,-11946,-37556
5302.9,15253,55274,-12009,-37661
5304.9,15419,54906,-12284,-38037
5306.9,15453,54699,-12546,-38471
5308.9,15056,54420,-12480,-38690
5310.9,14697,54093,-12395,-38926
5312.9,14724,54127,-12471,-39202
5314.9,14920,54620,-12187,-38972
5316.9,15155,55290,-11369,-38153
5318.9,15605,56023,-10535,-37277
5320.9,16255,56775,-9842,-36472
5322.9,16842,57420,-9059,-35500
5324.9,17355,58147,-8269,-34412
5326.9,18066,59216,-7585,-33299
5328.9,18953,60260,-6929,-32158
5330.9,19646,60890,-6485,-31196
5332.9,20112,61584,-6338,-30411
5334.9,20688,62796,-6042,-29406
5336.9,21228,64026,-5473,-28290
5338.9,21144,64741,-5123,-27650
5340.9,20436,65104,-5047,-27390
5342.9,19711,65217,-4829,-27007
5344.9,19196,64943,-4628,-26730
5346.9,18683,64575,-4916,-27003
5348.9,18179,64387,-5595,-27612
5350.9,17780,63878,-6464,-28458
5352.9,17248,62536,-7790,-30084
5354.9,16433,60736,-9674,-32628
5356.9,15711,59096,-11610,-35297
5358.9,15446,57737,-13035,-37286
5360.9,15418,56645,-13770,-38403
5362.9,15243,55968,-13895,-38797
5364.9,15021,55721,-13660,-38760
5366.9,15035,55736,-13411,-38677
5368.9,15143,55878,-13287,-38695
5370.9,15067,55999,-13134,-38650
5372.9,15007,55950,-12918,-38507
5374.9,15258,55803,-12844,-38461
5376.9,15508,55731,-12885,-38474
5378.9,15310,55718,-12732,-38290
5380.9,14909,55710,-12424,-38017
5382.9,14797,55748,-12306,-37982
5384.9,14930,55731,-12368,-38130
5386.9,15082,55495,-12401,-38252
5388.9,15321,55241,-12466,-38395
5390.9,15538,55251,-12521,-38483
5392.9,15348,55352,-12346,-38317
5394.9,14899,55303,-12201,-38161
5396.9,14837,55270,-12447,-38353
5398.9,15185,55358,-12674,-38534
5400.9,15278,55328,-12423,-38325
5402.9,14956,55166,-12118,-38094
5404.9,14803,55154,-12201,-38200
5406.9,15074,55260,-12396,-38395
5408.9,15319,55239,-12432,-38448
5410.9,15263,55141,-12393,-38434
5412.9,15218,55093,-12316,-38403
5414.9,15354,55044,-12303,-38433
5416.9,15380,55055,-12500,-38583
5418.9,15217,55249,-12633,-38614
5420.9,15192,55439,-12435,-38416
5422.9,15410,55426,-12258,-38325
5424.9,15585,55364,-12367,-38461
5426.9,15517,55369,-12449,-38515
5428.9,15317,55300,-12396,-38483
5430.9,15274,55187,-12496,-38625
5432.9,15546,55251,-12668,-38798
5434.9,15834,55423,-12552,-38707
5436.9,15743,55412,-12198,-38454
5438.9,15472,55195,-12014,-38360
5440.9,15443,55078,-12252,-38565
5442.9,15513,55257,-12671,-38866
5444.9,15419,55498,-12742,-38879
5446.9,15390,55434,-12441,-38614
5448.9,15541,55148,-12335,-38521
5450.9,15562,55071,-12524,-38646
5452.9,15478,55258,-12506,-38590
5454.9,15633,55366,-12282,-38420
5456.9,15883,55299,-12262,-38477
5458.9,15847,55193,-12331,-38598
5460.88,15632,55013,-12277,-38575
5462.85,15495,54788,-12376,-38651
5464.83,15337,54773,-12617,-38825
5466.8,15064,54959,-12538,-38727
5468.8,14870,55040,-12222,-38475
5470.8,14965,54979,-12185,-38512
5472.8,15325,55001,-12400,-38773
5474.8,15645,55095,-12505,-38883
5476.8,15608,55114,-12443,-38771
5478.8,15379,55090,-12293,-38571
5480.8,15388,55086,-12120,-38427
5482.8,15564,55063,-12131,-38498
5484.8,15533,55044,-12389,-38754
5486.8,15413,55108,-12613,-38943
5488.8,15478,55198,-12624,-38947
5490.8,15482,55217,-12529,-38847
5492.8,15240,55176,-12390,-38701
5494.8,15134,55123,-12230,-38587
5496.8,15292,55071,-12215,-38653
5498.8,15300,55064,-12381,-38849
5500.8,15204,55107,-12492,-38960
5502.8,15454,55087,-12517,-39015
5504.8,15777,54973,-12685,-39199
5506.8,15637,54939,-12865,-39340
5508.8,15471,55058,-12666,-39145
5510.8,15771,55143,-12300,-38865
5512.8,15856,55084,-12300,-38898
5514.8,15265,55016,-12470,-38998
5516.8,14912,55030,-12342,-38842
5518.8,15326,55097,-12221,-38766
5520.8,15651,55204,-12463,-39001
5522.8,15463,55262,-12644,-39145
5524.8,15422,55157,-12525,-39074
5526.8,15669,55027,-12498,-39143
5528.8,15676,55040,-12534,-39229
5530.8,15523,55028,-12300,-39016
5532.8,15576,54885,-12151,-38852
5534.8,15670,54891,-12425,-39035
5536.8,15705,55149,-12641,-39170
5538.8,15911,55347,-12528,-39059
5540.8,16130,55373,-12432,-38977
5542.8,15993,55398,-12366,-38903
5544.8,15683,55403,-12192,-38754
5546.8,15597,55318,-12208,-38788
5548.8,15760,55308,-12405,-38935
5550.8,15973,55434,-12366,-38849
5552.8,15996,55549,-12233,-38728
5554.8,15760,55637,-12288,-38805
5556.8,15656,55706,-12222,-38757
5558.8,16009,55652,-12046,-38594
5560.8,16404,55584,-12231,-38730
5562.8,16373,55707,-12451,-38891
5564.8,16121,55856,-12149,-38632
5566.8,15902,55847,-11869,-38398
5568.8,15644,55917,-12069,-38512
5570.8,15526,56153,-12059,-38423
5572.8,15787,56188,-11566,-37999
5574.8,16119,55942,-11337,-37848
5576.8,16211,55808,-11547,-38033
5578.8,16315,55928,-11669,-38131
5580.8,16602,56096,-11694,-38167
5582.8,16772,56234,-11814,-38246
5584.8,16661,56354,-11783,-38152
5586.8,16524,56381,-11589,-37944
5588.8,16595,56327,-11584,-37941
5590.8,16767,56268,-11700,-38063
5592.8,16733,56160,-11597,-38023
5594.8,16378,56008,-11347,-37857
5596.8,15997,55982,-11264,-37773
5598.8,15890,56145,-11435,-37864
5600.8,15974,56331,-11653,-38029
5602.8,16075,56380,-11627,-38018
5604.8,16210,56280,-11394,-37833
5606.8,16290,56107,-11372,-37834
5608.8,16169,56003,-11669,-38106
5610.8,16095,56080,-11879,-38278
5612.8,16401,56262,-11859,-38243
5614.8,16759,56336,-11916,-38282
5616.8,16577,56212,-12075,-38391
5618.8,16013,56025,-12025,-38335
5620.8,15739,55938,-11809,-38227
5622.8,15932,55948,-11780,-38307
5624.8,16260,55956,-11946,-38442
5626.8,16486,55893,-12035,-38444
5628.8,16411,55778,-12070,-38482
5630.8,15884,55737,-12227,-38669
5632.8,15351,55856,-12336,-38730
5634.8,15519,56008,-12192,-38538
5636.8,16180,56035,-12028,-38408
5638.8,16423,55993,-12018,-38450
5640.8,16065,55954,-11926,-38382
5642.8,15721,55848,-11768,-38240
5644.8,15699,55737,-11872,-38331
5646.8,15778,55778,-12074,-38501
5648.8,15777,55846,-11991,-38450
5650.8,15700,55724,-11873,-38395
5652.8,15670,55569,-12020,-38521
5654.8,15844,55611,-12129,-38557
5656.8,16122,55692,-12056,-38477
5658.8,16210,55611,-12105,-38569
5660.8,16079,55521,-12248,-38735
5662.8,15945,55632,-12215,-38699
5664.8,15951,55862,-12060,-38542
5666.8,16128,55973,-11873,-38374
5668.8,16312,55858,-11678,-38228
5670.8,16207,55661,-11752,-38327
5672.8,15951,55630,-12142,-38693
5674.8,16011,55804,-12354,-38903
5676.8,16243,55990,-12208,-38773
5678.8,16165,56039,-12069,-38554
5680.78,16059,55970,-12078,-38424
5682.75,16381,55885,-12119,-38433
5684.73,16651,55893,-12156,-38542
5686.7,16393,55952,-12024,-38462
5688.7,16150,55850,-11699,-38164
5690.7,16335,55619,-11679,-38177
5692.7,16421,55641,-12114,-38580
5694.7,16153,55978,-12314,-38701
5696.7,16062,56177,-12006,-38382
5698.7,16304,56042,-11809,-38217
5700.7,16357,55894,-11960,-38327
5702.7,16055,55892,-12015,-38315
5704.7,15825,55857,-11915,-38239
5706.7,15924,55784,-12020,-38410
5708.7,16184,55825,-12262,-38652
5710.7,16365,55876,-12293,-38655
5712.7,16366,55778,-12183,-38559
5714.7,16255,55684,-12220,-38619
5716.7,16209,55767,-12332,-38716
5718.7,16277,55848,-12261,-38641
5720.7,16314,55732,-12125,-38537
5722.7,16290,55622,-12203,-38638
5724.7,16353,55795,-12342,-38783
5726.7,16477,56106,-12247,-38711
5728.7,16493,56210,-12097,-38591
5730.7,16474,56064,-12180,-38685
5732.7,16546,55863,-12330,-38858
5734.7,16493,55733,-12337,-38908
5736.7,16170,55724,-12308,-38895
5738.7,15952,55844,-12309,-38864
5740.7,16130,55971,-12279,-38768
5742.7,16379,55963,-12268,-38681
5744.7,16362,55825,-12290,-38662
5746.7,16277,55652,-12268,-38671
5748.7,16380,55550,-12274,-38710
5750.7,16500,55580,-12339,-38755
5752.7,16383,55649,-12339,-38749
5754.7,16129,55652,-12379,-38834
5756.7,16012,55670,-12612,-39085
5758.7,16081,55772,-12715,-39175
5760.7,16125,55822,-12428,-38926
5762.7,16051,55753,-12134,-38695
5764.7,16069,55691,-12149,-38724
5766.7,16326,55715,-12283,-38856
5768.7,16610,55849,-12442,-39010
5770.7,16707,56128,-12621,-39126
5772.7,16734,56377,-12555,-38994
5774.7,16799,56337,-12305,-38756
5776.7,16758,56155,-12340,-38801
5778.7,16565,56154,-12526,-38939
5780.7,16413,56230,-12310,-38755
5782.7,16315,56102,-11911,-38503
5784.7,16079,55896,-11931,-38608
5786.7,15824,55907,-12244,-38873
5788.7,15918,56107,-12379,-38932
5790.7,16310,56250,-12258,-38766
5792.7,16491,56235,-12021,-38487
5794.7,16293,56215,-11860,-38294
5796.7,16160,56398,-11969,-38381
5798.7,16303,56717,-12148,-38537
5800.7,16250,56866,-12041,-38442
5802.7,15858,56768,-11839,-38303
5804.7,15879,56643,-11942,-38464
5806.7,16573,56579,-12199,-38755
5808.7,16938,56519,-12236,-38814
5810.7,16458,56542,-12044,-38604
5812.7,16063,56658,-11838,-38351
5814.7,16310,56662,-11823,-38318
5816.7,16520,56576,-12065,-38562
5818.7,16425,56694,-12303,-38767
5820.7,16585,56969,-12248,-38683
5822.7,16952,57026,-12057,-38520
5824.7,16920,56775,-12005,-38502
5826.7,16522,56410,-12020,-38502
5828.7,16215,56026,-12029,-38492
5830.7,16157,55755,-12246,-38730
5832.7,16316,55786,-12685,-39182
5834.7,16524,55948,-12943,-39399
5836.7,16513,55836,-12802,-39223
5838.7,16449,55475,-12608,-39067
5840.7,16678,55247,-12739,-39245
5842.7,16878,55251,-13036,-39501
5844.7,16596,55295,-13108,-39492
5846.7,16231,55306,-12958,-39331
5848.7,16305,55322,-12898,-39314
5850.7,16513,55326,-13016,-39430
5852.7,16426,55318,-13075,-39447
5854.7,16202,55298,-12896,-39263
5856.7,16019,55177,-12649,-39044
5858.7,15830,54952,-12686,-39090
5860.7,15813,54817,-13058,-39441
5862.7,16172,54899,-13401,-39736
5864.7,16603,55073,-13438,-39695
5866.7,16692,55157,-13264,-39464
5868.7,16505,55083,-13062,-39290
5870.7,16338,54930,-12994,-39283
5872.7,16351,54879,-13187,-39465
5874.7,16572,54971,-13401,-39648
5876.7,16772,54971,-13267,-39599
5878.7,16547,54750,-13039,-39517
5880.7,16019,54579,-13202,-39699
5882.7,15836,54671,-13471,-39887
5884.7,16139,54801,-13322,-39742
5886.7,16414,54752,-13022,-39518
5888.7,16504,54678,-13037,-39519
5890.7,16607,54704,-13183,-39573
5892.7,16555,54667,-13148,-39526
5894.7,16266,54491,-13061,-39507
5896.7,16202,54370,-13103,-39566
5898.7,16369,54423,-13216,-39612
5900.7,16109,54550,-13273,-39603
5902.7,15553,54638,-13225,-39537
5904.7,15618,54688,-13178,-39474
5906.7,16260,54747,-13252,-39518
5908.6,16575,54808,-13329,-39614
5910.6,16446,54792,-13299,-39679
5912.6,16408,54662,-13352,-39802
5914.6,16486,54483,-13572,-40019
5916.6,16512,54265,-13778,-40281
5918.6,16650,53933,-13988,-40708
5920.6,16811,53563,-14209,-41219
5922.6,16588,53382,-14034,-41307
5924.6,16085,53528,-13347,-40817
5926.6,15855,54031,-12621,-40151
5928.6,16119,54794,-11940,-39385
5930.6,16724,55535,-11020,-38371
5932.6,17490,56109,-10203,-37466
5934.6,18178,56810,-9805,-36809
5936.6,18647,57855,-9256,-35796
5938.6,19194,58977,-8325,-34351
5940.6,20149,59942,-7679,-33186
5942.6,21189,60833,-7372,-32287
5944.6,21696,61641,-6822,-31096
5946.6,21647,62298,-6319,-29978
5948.6,21487,63014,-6352,-29499
5950.6,21338,63826,-6301,-29124
5952.6,20987,64260,-5723,-28426
5954.6,20409,64098,-5415,-28103
5956.6,19753,63805,-5820,-28510
5958.6,19170,63694,-6269,-28959
5960.6,18851,63364,-6622,-29360
5962.6,18665,62351,-7703,-30652
5964.6,17941,60726,-9697,-33099
5966.6,16512,58901,-11743,-35761
5968.6,15419,57285,-13234,-37875
5970.6,15479,56149,-14288,-39442
5972.6,16051,55493,-14996,-40472
5974.6,16272,55101,-15207,-40823
5976.6,16262,54865,-15056,-40758
5978.6,16257,54852,-14924,-40728
5980.6,16069,55021,-14827,-40706
5982.6,15915,55167,-14538,-40466
5984.6,16230,55193,-14148,-40155
5986.6,16649,55140,-13905,-39996
5988.6,16597,54992,-13785,-39916
5990.6,16360,54737,-13715,-39862
5992.6,16431,54524,-13741,-39918
5994.6,16611,54462,-13780,-40003
5996.6,16567,54443,-13749,-40022
5998.6,16407,54355,-13784,-40091
6000.6,16288,54278,-13908,-40214
6002.6,16202,54315,-13936,-40224
6004.6,16236,54428,-13855,-40146
6006.6,16489,54487,-13771,-40097
6008.6,16786,54399,-13671,-40040
6010.6,16816,54256,-13624,-39985
6012.6,16542,54273,-13704,-39974
6014.6,16260,54428,-13718,-39887
6016.6,16152,54459,-13585,-39741
6018.6,16024,54360,-13573,-39777
6020.6,15839,54405,-13708,-39937
6022.6,16023,54603,-13690,-39951
6024.6,16636,54687,-13565,-39908
6026.6,16972,54601,-13615,-39999
6028.6,16706,54495,-13728,-40046
6030.6,16462,54422,-13652,-39897
6032.6,16541,54357,-13515,-39775
6034.6,16401,54314,-13581,-39874
6036.6,15962,54327,-13793,-40062
6038.6,15933,54413,-13874,-40120
6040.6,16410,54523,-13772,-40054
6042.6,16667,54565,-13730,-40042
6044.6,16500,54552,-13779,-40063
6046.6,16336,54501,-13628,-39887
6048.6,16192,54338,-13348,-39637
6050.6,15881,54177,-13406,-39725
6052.6,15784,54284,-13772,-40068
6054.6,16180,54539,-13975,-40232
6056.6,16538,54548,-13989,-40243
6058.6,16456,54357,-14069,-40345
6060.6,16338,54307,-14130,-40413
6062.6,16437,54400,-14045,-40303
6064.6,16491,54454,-13896,-40119
6066.6,16540,54483,-13688,-39916
6068.6,16723,54499,-13508,-39764
6070.6,16662,54427,-13591,-39857
6072.6,16308,54355,-13822,-40118
6074.6,16299,54439,-13860,-40234
6076.6,16620,54611,-13779,-40174
6078.6,16587,54671,-13813,-40117
6080.6,16365,54544,-13909,-40147
6082.6,16565,54340,-14005,-40280
6084.6,16858,54244,-14062,-40369
6086.6,16752,54300,-13869,-40165
6088.6,16565,54334,-13534,-39853
6090.6,16530,54245,-13562,-39883
6092.6,16414,54194,-13918,-40131
6094.6,16311,54318,-14051,-40149
6096.6,16391,54497,-13932,-40044
6098.6,16402,54566,-13911,-40109
6100.6,16320,54553,-13901,-40155
6102.6,16447,54554,-13767,-40041
6104.6,16618,54579,-13772,-40027
6106.6,16536,54555,-13937,-40128
6108.6,16498,54419,-13928,-40054
6110.6,16717,54224,-13823,-39907
6112.6,16749,54148,-13943,-39982
6114.6,16468,54282,-14112,-40131
6116.6,16553,54479,-14057,-40125
6118.6,17188,54552,-13992,-40126
6120.6,17371,54495,-14060,-40203
6122.6,16528,54394,-13964,-40095
6124.6,15717,54294,-13681,-39845
6126.6,15979,54237,-13648,-39862
6128.6,16594,54257,-13901,-40115
6130.58,16490,54287,-13935,-40147
6132.55,16059,54268,-13677,-39952
6134.53,16052,54299,-13631,-39955
6136.5,16211,54470,-13875,-40124
6138.5,16248,54620,-13912,-40060
6140.5,16498,54546,-13676,-39854
6142.5,16871,54331,-13631,-39886
6144.5,16858,54230,-13837,-40034
6146.5,16631,54327,-13943,-39987
6148.5,16684,54550,-13921,-39887
6150.5,16864,54814,-13915,-39902
6152.5,16818,54953,-13828,-39838
6154.5,16706,54826,-13653,-39654
6156.5,16822,54605,-13594,-39585
6158.5,17068,54583,-13631,-39629
6160.5,17131,54700,-13622,-39636
6162.5,16956,54681,-13634,-39658
6164.5,16863,54552,-13707,-39729
6166.5,17040,54609,-13739,-39733
6168.5,17219,54933,-13738,-39651
6170.5,17182,55260,-13699,-39511
6172.5,17097,55312,-13534,-39323
6174.5,17074,55104,-13396,-39240
6176.5,17044,54891,-13454,-39315
6178.5,17089,54846,-13446,-39259
6180.5,17284,54943,-13213,-38977
6182.5,17468,55102,-13115,-38827
6184.5,17532,55253,-13288,-38936
6186.5,17534,55324,-13407,-39036
6188.5,17520,55348,-13394,-39048
6190.5,17471,55428,-13391,-39031
6192.5,17262,55531,-13240,-38848
6194.5,16829,55544,-12912,-38550
6196.5,16532,55499,-12807,-38501
6198.5,16767,55485,-13007,-38725
6200.5,17237,55505,-13113,-38834
6202.5,17400,55537,-13003,-38702
6204.5,17258,55544,-12942,-38567
6206.5,17077,55485,-13011,-38589
6208.5,17013,55463,-13055,-38685
6210.5,17218,55599,-12991,-38690
6212.5,17549,55714,-12917,-38607
6214.5,17501,55601,-12975,-38615
6216.5,17014,55417,-13093,-38718
6218.5,16672,55336,-13053,-38690
6220.5,16819,55244,-12922,-38557
6222.5,17197,55123,-12948,-38567
6224.5,17369,55153,-13044,-38666
6226.5,17127,55273,-13029,-38663
6228.5,16745,55276,-13083,-38694
6230.5,16721,55252,-13319,-38886
6232.5,17018,55355,-13414,-38982
6234.5,17149,55403,-13201,-38825
6236.5,17053,55217,-13027,-38706
6238.5,17017,54996,-13181,-38876
6240.5,16990,54993,-13448,-39122
6242.5,16854,55128,-13505,-39160
6244.5,16838,55198,-13444,-39110
6246.5,17040,55198,-13540,-39218
6248.5,17146,55201,-13687,-39346
6250.5,16970,55155,-13613,-39260
6252.5,16789,55073,-13439,-39109
6254.5,16926,55118,-13392,-39067
6256.5,17249,55233,-13346,-38999
6258.5,17298,55155,-13243,-38904
6260.5,16985,54960,-13335,-39011
6262.5,16806,54986,-13610,-39230
6264.5,17017,55194,-13743,-39269
6266.5,17209,55280,-13669,-39158
6268.5,17087,55245,-13530,-39049
6270.5,16901,55248,-13378,-38920
6272.5,16836,55238,-13286,-38791
6274.5,16807,55142,-13284,-38742
6276.5,16847,55021,-13246,-38727
6278.5,16971,54905,-13221,-38757
6280.5,17019,54838,-13391,-38903
6282.5,17042,54937,-13594,-39042
6284.5,17207,55165,-13567,-39028
6286.5,17253,55323,-13399,-38915
6288.5,16903,55335,-13228,-38725
6290.5,16580,55296,-13084,-38525
6292.5,16832,55289,-13145,-38589
6294.5,17402,55312,-13378,-38878
6296.5,17618,55310,-13368,-38937
6298.5,17343,55257,-13122,-38742
6300.5,16977,55215,-13155,-38739
6302.5,16851,55216,-13475,-38926
6304.5,16970,55194,-13616,-38951
6306.5,17135,55166,-13526,-38843
6308.5,17147,55219,-13432,-38780
6310.5,17061,55287,-13341,-38709
6312.5,17125,55265,-13288,-38657
6314.5,17323,55242,-13349,-38705
6316.5,17334,55299,-13349,-38700
6318.5,17165,55318,-13222,-38596
6320.5,17144,55242,-13231,-38635
6322.5,17155,55200,-13405,-38797
6324.5,16870,55255,-13469,-38798
6326.5,16661,55314,-13418,-38682
6328.5,16983,55283,-13435,-38670
6330.5,17287,55161,-13461,-38696
6332.5,17040,55061,-13409,-38652
6334.5,16859,55112,-13388,-38661
6336.5,17214,55253,-13442,-38767
6338.5,17468,55298,-13508,-38844
6340.5,17289,55236,-13562,-38866
6342.5,17191,55192,-13577,-38871
6344.5,17200,55213,-13531,-38816
6346.5,16929,55305,-13504,-38701
6348.5,16713,55455,-13524,-38620
6350.5,16943,55506,-13488,-38596
6352.5,17182,55337,-13391,-38570
6354.5,17132,55108,-13363,-38536
6356.5,17136,55024,-13465,-38551
6358.4,17214,55046,-13621,-38629
6360.4,17079,55101,-13701,-38709
6362.4,16918,55205,-13663,-38770
6364.4,16967,55283,-13649,-38878
6366.4,17058,55231,-13765,-39014
6368.4,17185,55156,-13857,-39035
6370.4,17457,55200,-13787,-38921
6372.4,17571,55260,-13672,-38787
6374.4,17404,55201,-13623,-38683
6376.4,17381,55148,-13602,-38626
6378.4,17504,55292,-13569,-38621
6380.4,17327,55551,-13484,-38546
6382.4,17090,55669,-13385,-38410
6384.4,17253,55611,-13475,-38510
6386.4,17385,55622,-13704,-38818
6388.4,17117,55782,-13668,-38864
6390.4,17045,55815,-13378,-38639
6392.4,17384,55587,-13356,-38643
6394.4,17377,55421,-13614,-38814
6396.4,16887,55546,-13594,-38636
6398.4,16722,55702,-13246,-38213
6400.4,17039,55676,-13068,-38066
6402.4,17229,55704,-13195,-38197
6404.4,17181,55951,-13341,-38283
6406.4,17259,56163,-13400,-38307
6408.4,17470,56171,-13420,-38352
6410.4,17602,56145,-13336,-38311
6412.4,17616,56169,-13141,-38174
6414.4,17516,56148,-13057,-38147
6416.4,17385,56176,-13213,-38292
6418.4,17444,56384,-13389,-38407
6420.4,17627,56541,-13361,-38379
6422.4,17573,56430,-13242,-38327
6424.4,17347,56297,-13199,-38319
6426.4,17343,56347,-13179,-38285
6428.4,17377,56328,-13166,-38274
6430.4,17043,56110,-13264,-38395
6432.4,16765,55971,-13434,-38567
6434.4,17123,55979,-13571,-38670
6436.4,17681,55853,-13700,-38734
6438.4,17780,55580,-13807,-38765
6440.4,17610,55417,-13827,-38727
6442.4,17514,55359,-13824,-38677
6444.4,17439,55218,-13821,-38648
6446.4,17482,55009,-13775,-38653
6448.4,17737,54872,-13867,-38817
6450.4,17762,54849,-14177,-39064
6452.4,17339,54882,-14297,-39022
6454.4,16989,54887,-14046,-38724
6456.4,17006,54834,-13872,-38643
6458.4,17072,54775,-13988,-38828
6460.4,17071,54692,-14114,-38953
6462.4,17160,54538,-14217,-39061
6464.4,17223,54438,-14394,-39243
6466.4,17153,54541,-14430,-39234
6468.4,17134,54717,-14316,-39030
6470.4,17138,54783,-14364,-38989
6472.4,16949,54799,-14468,-39064
6474.4,16802,54872,-14327,-38974
6476.4,17077,54951,-14178,-38884
6478.4,17486,54975,-14289,-38984
6480.4,17479,54954,-14396,-39061
6482.4,17187,54868,-14326,-39021
6484.4,17102,54717,-14294,-39037
6486.4,17166,54576,-14347,-39075
6488.4,17041,54520,-14351,-39024
6490.4,16923,54552,-14368,-39020
6492.4,17174,54643,-14450,-39108
6494.4,17492,54748,-14440,-39095
6496.4,17444,54800,-14325,-38979
6498.4,17351,54735,-14329,-38988
6500.4,17607,54581,-14501,-39139
6502.4,17741,54465,-14585,-39201
6504.4,17305,54438,-14434,-39080
6506.4,16889,54429,-14296,-38963
6508.4,17075,54444,-14420,-39024
6510.4,17373,54554,-14588,-39132
6512.4,17266,54657,-14513,-39089
6514.4,17141,54626,-14396,-39024
6516.4,17293,54563,-14471,-39117
6518.4,17313,54540,-14500,-39213
6520.4,17109,54377,-14363,-39209
6522.4,17212,53994,-14409,-39392
6524.4,17597,53584,-14725,-39894
6526.4,17576,53289,-14902,-40354
6528.4,17152,53144,-14751,-40427
6530.4,17110,53269,-14382,-40097
6532.4,17540,53725,-13748,-39439
6534.4,17777,54384,-12904,-38596
6536.4,17879,55123,-12215,-37809
6538.4,18435,55902,-11711,-37065
6540.4,19092,56714,-10930,-36018
6542.4,19218,57654,-9793,-34553
6544.4,19436,58755,-8849,-33084
6546.4,20440,59778,-8417,-31993
6548.4,21458,60608,-8168,-31064
6550.4,21796,61534,-7780,-29897
6552.4,22059,62633,-7406,-28666
6554.4,22476,63472,-7228,-27839
6556.4,22280,63847,-7005,-27330
6558.4,21478,64037,-6536,-26759
6560.4,20907,64121,-6166,-26337
6562.4,20649,63899,-6258,-26449
6564.4,20269,63469,-6624,-26855
6566.4,19800,63019,-7110,-27364
6568.4,19296,62293,-8100,-28552
6570.38,18581,60962,-9822,-30836
6572.35,17841,59234,-11864,-33688
6574.33,17368,57615,-13717,-36326
6576.3,17055,56384,-15111,-38307
6578.3,16857,55537,-15900,-39412
6580.3,16965,55006,-16191,-39776
6582.3,17196,54759,-16245,-39830
6584.3,17113,54722,-16060,-39732
6586.3,16776,54775,-15627,-39448
6588.3,16709,54859,-15308,-39232
6590.3,17158,54960,-15270,-39252
6592.3,17724,54939,-15180,-39245
6594.3,17819,54686,-14940,-39108
6596.3,17465,54393,-14856,-39104
6598.3,17268,54321,-14908,-39214
6600.3,17455,54398,-14795,-39157
6602.3,17595,54395,-14630,-39015
6604.3,17494,54313,-14701,-39052
6606.3,17472,54286,-14827,-39128
6608.3,17589,54317,-14708,-38998
6610.3,17577,54369,-14546,-38857
6612.3,17513,54475,-14612,-38917
6614.3,17613,54579,-14628,-38884
6616.3,17643,54519,-14335,-38550
6618.3,17403,54334,-14162,-38384
6620.3,17300,54302,-14486,-38718
6622.3,17590,54504,-14839,-39050
6624.3,17796,54684,-14741,-38937
6626.3,17598,54660,-14525,-38752
6628.3,17431,54557,-14604,-38872
6630.3,17585,54530,-14781,-39063
6632.3,17703,54565,-14767,-39043
6634.3,17617,54567,-14597,-38856
6636.3,17635,54468,-14434,-38676
6638.3,17745,54321,-14431,-38684
6640.3,17571,54287,-14559,-38844
6642.3,17230,54390,-14572,-38873
6644.3,17223,54457,-14482,-38793
6646.3,17512,54405,-14573,-38922
6648.3,17616,54343,-14734,-39133
6650.3,17477,54365,-14632,-39042
6652.3,17440,54469,-14438,-38803
6654.3,17581,54567,-14431,-38719
6656.3,17671,54484,-14419,-38647
6658.3,17625,54241,-14316,-38533
6660.3,17546,54162,-14428,-38667
6662.3,17551,54355,-14741,-38981
6664.3,17697,54481,-14896,-39090
6666.3,17875,54370,-14852,-38981
6668.3,17835,54306,-14763,-38852
6670.3,17572,54463,-14613,-38703
6672.3,17440,54652,-14485,-38594
6674.3,17632,54708,-14545,-38676
6676.3,17886,54649,-14654,-38808
6678.3,17897,54516,-14621,-38764
6680.3,17668,54392,-14589,-38649
6682.3,17377,54366,-14665,-38628
6684.3,17212,54389,-14642,-38603
6686.3,17294,54365,-14447,-38498
6688.3,17516,54306,-14331,-38466
6690.3,17593,54270,-14425,-38588
6692.3,17479,54314,-14546,-38716
6694.3,17484,54493,-14551,-38728
6696.3,17708,54713,-14546,-38715
6698.3,17775,54749,-14606,-38766
6700.3,17532,54547,-14607,-38795
6702.3,17459,54313,-14535,-38792
6704.3,17780,54243,-14629,-38921
6706.3,17924,54319,-14881,-39102
6708.3,17569,54366,-14885,-38988
6710.3,17272,54285,-14562,-38631
6712.3,17452,54206,-14388,-38523
6714.3,17798,54284,-14585,-38764
6716.3,17998,54431,-14795,-38917
6718.3,18051,54497,-14757,-38777
6720.3,17891,54526,-14628,-38580
6722.3,17509,54565,-14573,-38506
6724.3,17222,54566,-14567,-38514
6726.3,17350,54581,-14577,-38561
6728.3,17783,54662,-14609,-38643
6730.3,18012,54634,-14607,-38702
6732.3,17740,54397,-14511,-38666
6734.3,17387,54183,-14409,-38583
6736.3,17453,54177,-14472,-38582
6738.3,17703,54280,-14666,-38671
6740.3,17805,54414,-14765,-38721
6742.3,17972,54594,-14727,-38715
6744.3,18154,54716,-14710,-38739
6746.3,17957,54697,-14701,-38759
6748.3,17741,54670,-14593,-38716
6750.3,18051,54699,-14475,-38646
6752.3,18301,54654,-14431,-38484
6754.3,17878,54575,-14351,-38159
6756.3,17481,54699,-14241,-37909
6758.3,17744,54964,-14245,-37975
6760.3,18078,55006,-14336,-38166
6762.3,18010,54808,-14402,-38232
6764.3,17997,54767,-14453,-38234
6766.3,18284,54983,-14476,-38248
6768.3,18442,55126,-14427,-38227
6770.3,18308,55081,-14390,-38203
6772.3,18249,55072,-14383,-38170
6774.3,18361,55156,-14264,-38007
6776.3,18312,55188,-14108,-37792
6778.3,18126,55199,-14133,-37727
6780.3,18193,55289,-14200,-37713
6782.3,18353,55378,-14070,-37562
6784.3,18105,55399,-13929,-37430
6786.3,17772,55456,-13981,-37483
6788.3,18022,55583,-13999,-37539
6790.28,18514,55676,-13832,-37449
6792.25,18538,55702,-13701,-37341
6794.23,18351,55719,-13696,-37291
6796.2,18476,55753,-13685,-37257
6798.2,18663,55822,-13706,-37272
6800.2,18595,55932,-13807,-37335
6802.2,18513,56020,-13804,-37320
6804.2,18570,56026,-13637,-37206
6806.2,18554,55982,-13513,-37112
6808.2,18450,55937,-13530,-37079
6810.2,18542,55913,-13591,-37088
6812.2,18849,55934,-13624,-37130
6814.2,18925,55968,-13607,-37155
6816.2,18531,55966,-13561,-37135
6818.2,18190,55986,-13552,-37115
6820.2,18419,56078,-13555,-37098
6822.2,18784,56116,-13529,-37087
6824.2,18626,56006,-13567,-37148
6826.2,18217,55888,-13640,-37201
6828.2,18166,55868,-13571,-37093
6830.2,18439,55883,-13482,-36998
6832.2,18753,55925,-13629,-37158
6834.2,18980,56012,-13835,-37365
6836.2,18860,56008,-13820,-37369
6838.2,18344,55863,-13732,-37334
6840.2,17974,55763,-13715,-37356
6842.2,18041,55744,-13651,-37274
6844.2,18079,55649,-13626,-37202
6846.2,17844,55552,-13795,-37339
6848.2,17724,55639,-13890,-37418
6850.2,17877,55757,-13717,-37231
6852.2,18038,55689,-13632,-37148
6854.2,18161,55594,-13840,-37375
6856.2,18276,55669,-13971,-37492
6858.2,18203,55759,-13811,-37270
6860.2,18091,55703,-13693,-37101
6862.2,18410,55650,-13881,-37278
6864.2,18963,55753,-14123,-37519
6866.2,18960,55907,-14046,-37460
6868.2,18291,55952,-13681,-37169
6870.2,17631,55900,-13392,-36965
6872.2,17379,55847,-13375,-36954
6874.2,17474,55827,-13485,-36994
6876.2,17846,55827,-13549,-37001
6878.2,18230,55837,-13577,-37017
6880.2,18216,55845,-13635,-37050
6882.2,18009,55850,-13716,-37053
6884.2,18184,55889,-13747,-37018
6886.2,18541,55957,-13683,-36959
6888.2,18440,55967,-13594,-36897
6890.2,18088,55905,-13601,-36881
6892.2,18107,55916,-13707,-36928
6894.2,18298,56093,-13764,-36941
6896.2,18190,56262,-13645,-36799
6898.2,18049,56184,-13438,-36598
6900.2,18169,55964,-13375,-36573
6902.2,18252,55934,-13468,-36703
6904.2,18245,56100,-13499,-36741
6906.2,18554,56132,-13515,-36751
6908.2,19005,55974,-13749,-36966
6910.2,18904,55901,-13980,-37152
6912.2,18239,55976,-13801,-36932
6914.2,17750,56050,-13428,-36562
6916.2,17871,56160,-13337,-36498
6918.2,18295,56354,-13426,-36609
6920.2,18500,56434,-13373,-36562
6922.2,18381,56326,-13248,-36431
6924.2,18266,56249,-13250,-36420
6926.2,18325,56284,-13383,-36534
6928.2,18347,56320,-13558,-36671
6930.2,18276,56381,-13641,-36714
6932.2,18346,56495,-13586,-36641
6934.2,18483,56506,-13544,-36594
6936.2,18382,56372,-13550,-36592
6938.2,18214,56279,-13454,-36499
6940.2,18353,56308,-13366,-36411
6942.2,18581,56373,-13490,-36493
6944.2,18535,56455,-13629,-36587
6946.2,18492,56567,-13619,-36590
6948.2,18801,56659,-13714,-36719
6950.2,19085,56701,-13932,-36931
6952.2,18837,56701,-13883,-36882
6954.2,18273,56659,-13592,-36622
6956.2,18012,56612,-13474,-36508
6958.2,18255,56610,-13568,-36548
6960.2,18648,56605,-13633,-36571
6962.2,18750,56553,-13644,-36596
6964.2,18481,56497,-13635,-36622
6966.2,18137,56459,-13600,-36580
6968.2,18051,56430,-13648,-36575
6970.2,18289,56462,-13786,-36672
6972.2,18618,56565,-13802,-36693
6974.2,18762,56617,-13654,-36565
6976.2,18730,56584,-13529,-36456
6978.2,18685,56613,-13457,-36427
6980.2,18565,56775,-13330,-36344
6982.2,18288,56933,-13161,-36159
6984.2,18161,56975,-13066,-36011
6986.2,18395,56967,-13146,-36072
6988.2,18621,57043,-13346,-36263
6990.2,18549,57216,-13382,-36274
6992.2,18479,57325,-13164,-36100
6994.2,18581,57228,-13083,-36149
6996.2,18539,57032,-13317,-36451
6998.2,18349,56984,-13459,-36514
7000.2,18438,57127,-13325,-36268
7002.2,18730,57268,-13239,-36149
7004.2,18665,57293,-13257,-36201
7006.2,18267,57289,-13153,-36135
7008.2,18145,57349,-13056,-36033
7010.2,18426,57482,-13152,-36067
7012.2,18672,57669,-13248,-36059
7014.2,18739,57860,-13210,-35920
7016.2,18775,57947,-13164,-35818
7018.1,18654,57904,-13106,-35752
7020.1,18333,57868,-12992,-35644
7022.1,18274,57929,-12973,-35622
7024.1,18664,57995,-13103,-35753
7026.1,18955,57989,-13211,-35874
7028.1,18827,57967,-13198,-35870
7030.1,18639,57949,-13084,-35766
7032.1,18610,57909,-12959,-35655
7034.1,18637,57932,-13001,-35680
7036.1,18784,58064,-13192,-35826
7038.1,18913,58110,-13221,-35855
7040.1,18580,57904,-13034,-35734
7042.1,18047,57578,-13002,-35766
7044.1,18117,57331,-13283,-36041
7046.1,18576,57170,-13571,-36267
7048.1,18526,57020,-13655,-36299
7050.1,18202,56856,-13704,-36361
7052.1,18481,56727,-13913,-36590
7054.1,19035,56720,-14134,-36753
7056.1,18906,56807,-14075,-36622
7058.1,18283,56807,-13772,-36352
7060.1,17994,56648,-13570,-36237
7062.1,18088,56501,-13636,-36303
7064.1,18204,56523,-13816,-36425
7066.1,18356,56646,-13964,-36573
7068.1,18488,56694,-14057,-36714
7070.1,18313,56600,-14077,-36749
7072.1,18025,56503,-13999,-36658
7074.1,18109,56549,-13841,-36514
7076.1,18447,56653,-13708,-36436
7078.1,18603,56656,-13784,-36559
7080.1,18634,56620,-14071,-36827
7082.1,18732,56682,-14257,-36915
7084.1,18736,56761,-14140,-36667
7086.1,18626,56708,-13926,-36356
7088.1,18674,56572,-13881,-36284
7090.1,18829,56505,-13999,-36409
7092.1,18727,56555,-14079,-36474
7094.1,18355,56624,-13944,-36317
7096.1,18131,56580,-13707,-36093
7098.1,18407,56447,-13745,-36138
7100.1,18993,56370,-14111,-36464
7102.1,19164,56365,-14359,-36694
7104.1,18610,56329,-14260,-36640
7106.1,18106,56304,-14074,-36475
7108.1,18255,56381,-13988,-36320
7110.1,18373,56459,-13930,-36170
7112.1,17915,56430,-13893,-36087
7114.1,17665,56392,-13932,-36118
7116.1,18167,56424,-14039,-36226
7118.1,18651,56500,-14179,-36359
7120.1,18565,56653,-14229,-36387
7122.1,18408,56842,-14099,-36260
7124.1,18514,56804,-14036,-36278
7126.1,18635,56431,-14297,-36669
7128.1,18690,55975,-14635,-37148
7130.1,18696,55619,-14728,-37438
7132.1,18493,55305,-14657,-37672
7134.1,18276,55151,-14509,-37844
7136.1,18470,55454,-14115,-37605
7138.1,18877,56154,-13441,-36881
7140.1,19049,56859,-12678,-35978
7142.1,19227,57478,-11943,-35087
7144.1,19812,58278,-11212,-34139
7146.1,20563,59350,-10413,-33014
7148.1,21242,60510,-9544,-31714
7150.1,22061,61594,-8814,-30447
7152.1,22859,62507,-8382,-29377
7154.1,23170,63246,-8075,-28340
7156.1,23303,64062,-7723,-27213
7158.1,23824,65193,-7433,-26248
7160.1,24192,66369,-7188,-25589
7162.1,23581,67068,-6817,-25008
7164.1,22486,67181,-6514,-24514
7166.1,21893,67028,-6635,-24470
7168.1,21730,66867,-7026,-24829
7170.1,21484,66633,-7330,-25169
7172.1,21217,66013,-7763,-25663
7174.1,20896,64778,-8879,-27068
7176.1,20031,63104,-10682,-29496
7178.1,18753,61398,-12535,-32085
7180.1,18005,59863,-13971,-34148
7182.1,18155,58564,-15101,-35773
7184.1,18501,57722,-15983,-36995
7186.1,18437,57475,-16202,-37391
7188.1,18196,57575,-15665,-36995
7190.1,18210,57658,-15084,-36590
7192.1,18390,57599,-14923,-36573
7194.1,18367,57435,-14801,-36557
7196.1,18121,57257,-14510,-36377
7198.1,18034,57199,-14416,-36320
7200.1,18337,57268,-14512,-36351
7202.1,18720,57281,-14420,-36247
7204.1,18708,57143,-14269,-36194
7206.1,18368,56980,-14363,-36356
7208.1,18236,56889,-14489,-36477
7210.1,18484,56852,-14436,-36463
7212.1,18710,56883,-14408,-36527
7214.1,18662,56985,-14469,-36630
7216.1,18526,57037,-14427,-36568
7218.1,18469,56970,-14307,-36435
7220.1,18522,56873,-14263,-36403
7222.1,18757,56823,-14290,-36444
7224.1,19046,56806,-14345,-36490
7226.1,19025,56813,-14399,-36506
7228.1,18687,56844,-14377,-36463
7230.1,18484,56886,-14289,-36411
7232.1,18626,56951,-14241,-36402
7234.1,18795,57012,-14264,-36400
7236.1,18699,56989,-14335,-36434
7238.0,18520,56908,-14411,-36533
7240.0,18608,56934,-14401,-36561
7242.0,18919,57125,-14311,-36450
7244.0,19063,57322,-14259,-36344
7246.0,18933,57316,-14241,-36302
7248.0,18813,57074,-14193,-36275
7250.0,18759,56798,-14197,-36325
7252.0,18588,56717,-14285,-36463
7254.0,18547,56830,-14343,-36540
7256.0,19010,56966,-14359,-36534
7258.0,19536,57053,-14371,-36515
7260.0,19378,57114,-14293,-36417
7262.0,18756,57138,-14154,-36274
7264.0,18397,57122,-14121,-36264
7266.0,18245,57103,-14114,-36297
7268.0,17910,57075,-13978,-36186
7270.0,17686,57021,-13916,-36115
7272.0,17967,57007,-14104,-36279
7274.0,18416,57065,-14255,-36414
7276.0,18561,57088,-14117,-36292
7278.0,18450,57004,-13926,-36175
7280.0,18377,56924,-13980,-36310
7282.0,18560,57001,-14177,-36508
7284.0,18916,57181,-14241,-36517
7286.0,18949,57243,-14139,-36409
7288.0,18489,57120,-14063,-36382
7290.0,18243,57002,-14121,-36472
7292.0,18691,57049,-14224,-36597
7294.0,19184,57178,-14246,-36677
7296.0,19110,57243,-14160,-36643
7298.0,18860,57211,-14064,-36531
7300.0,18831,57120,-14110,-36523
7302.0,18781,57044,-14255,-36648
7304.0,18672,57061,-14236,-36672
7306.0,18833,57159,-14058,-36565
7308.0,19097,57232,-14060,-36581
7310.0,18983,57200,-14246,-36681
7312.0,18660,57083,-14272,-36606
7314.0,18655,56992,-14151,-36459
7316.0,18893,57013,-14139,-36452
7318.0,18916,57072,-14151,-36439
7320.0,18704,57033,-14045,-36303
7322.0,18546,56957,-13968,-36211
7324.0,18555,56995,-14003,-36208
7326.0,18784,57102,-14085,-36257
7328.0,19220,57149,-14229,-36447
7330.0,19406,57159,-14325,-36645
7332.0,18949,57183,-14185,-36571
7334.0,18430,57197,-14012,-36413
7336.0,18618,57232,-14052,-36475
7338.0,19058,57323,-14070,-36545
7340.0,18910,57361,-13924,-36425
7342.0,18524,57278,-13910,-36369
7344.0,18564,57201,-14034,-36421
7346.0,18623,57227,-13959,-36320
7348.0,18267,57281,-13780,-36162
7350.0,18067,57286,-13798,-36194
7352.0,18370,57270,-13880,-36268
7354.0,18612,57300,-13833,-36221
7356.0,18582,57427,-13785,-36182
7358.0,18742,57596,-13791,-36191
7360.0,19075,57661,-13768,-36173
7362.0,19115,57597,-13770,-36201
7364.0,18928,57535,-13809,-36273
7366.0,18859,57510,-13769,-36244
7368.0,18846,57452,-13725,-36173
7370.0,18768,57425,-13793,-36207
7372.0,18777,57527,-13807,-36233
7374.0,18859,57635,-13677,-36143
7376.0,18862,57625,-13622,-36095
7378.0,18959,57661,-13684,-36124
7380.0,19299,57866,-13579,-36012
7382.0,19515,58003,-13303,-35766
7384.0,19335,57909,-13246,-35698
7386.0,19139,57845,-13514,-35896
7388.0,19292,58038,-13727,-36065
7390.0,19556,58297,-13641,-36009
7392.0,19595,58414,-13499,-35874
7394.0,19468,58479,-13511,-35782
7396.0,19407,58576,-13469,-35609
7398.0,19524,58646,-13218,-35321
7400.0,19716,58685,-13017,-35141
7402.0,19737,58723,-13045,-35158
7404.0,19569,58719,-13085,-35177
7406.0,19484,58674,-12986,-35104
7408.0,19511,58632,-12893,-35063
