t,carotid_880nm,carotid_660nm,brachial_880nm,brachial_660nm
2.2,7.8317,-13.569,-26.816,9.2993
12.1,15.832,-8.5695,-27.816,9.2993
22.0,16.832,-7.5695,-25.816,10.299
31.9,12.832,-7.5695,-29.816,10.299
41.8,10.832,-8.5695,-25.816,8.2993
51.7,6.8317,-11.569,-28.816,10.299
61.5,2.8317,-14.569,-28.816,9.2993
71.4,-0.16833,-15.569,-31.816,9.2993
81.3,-3.1683,-15.569,-32.816,9.2993
91.2,-7.1683,-19.569,-31.816,9.2993
101.1,-12.168,-21.569,-34.816,8.2993
111.0,-18.168,-25.569,-34.816,9.2993
120.9,-21.168,-26.569,-35.816,9.2993
130.7,-25.168,-29.569,-34.816,9.2993
140.6,-30.168,-32.569,-35.816,9.2993
150.5,-35.168,-36.569,-35.816,8.2993
160.4,-39.168,-39.569,-35.816,8.2993
170.3,-45.168,-45.569,-36.816,8.2993
180.2,-48.168,-45.569,-35.816,9.2993
190.1,-48.168,-46.569,-36.816,9.2993
199.9,-51.168,-47.569,-34.816,9.2993
209.8,-49.168,-46.569,-34.816,9.2993
219.7,-48.168,-44.569,-36.816,8.2993
229.6,-49.168,-47.569,-37.816,9.2993
239.5,-50.168,-48.569,-36.816,8.2993
249.4,-52.168,-49.569,-37.816,8.2993
259.3,-51.168,-50.569,-34.816,8.2993
269.1,-54.168,-52.569,-33.816,9.2993
279.0,-54.168,-53.569,-35.816,8.2993
288.9,-56.168,-53.569,-35.816,8.2993
298.8,-56.168,-55.569,-35.816,9.2993
308.7,-56.168,-54.569,-34.816,8.2993
318.6,-59.168,-56.569,-33.816,9.2993
328.4,-59.168,-56.569,-34.816,8.2993
338.3,-56.168,-58.569,-33.816,9.2993
348.2,-59.168,-57.569,-33.816,8.2993
358.1,-59.168,-60.569,-32.816,9.2993
368.0,-59.168,-59.569,-32.816,9.2993
377.9,-61.168,-60.569,-32.816,9.2993
387.8,-59.168,-61.569,-32.816,8.2993
397.7,-61.168,-60.569,-31.816,9.2993
407.5,-60.168,-59.569,-30.816,10.299
417.4,-60.168,-59.569,-30.816,10.299
427.3,-58.168,-60.569,-29.816,10.299
437.2,-58.168,-60.569,-29.816,10.299
447.1,-59.168,-59.569,-29.816,9.2993
457.0,-59.168,-59.569,-29.816,9.2993
466.8,-58.168,-60.569,-28.816,11.299
476.7,-58.168,-60.569,-28.816,11.299
486.6,-55.168,-60.569,-26.816,11.299
496.5,-55.168,-60.569,-26.816,11.299
506.4,-52.168,-58.569,-25.816,11.299
516.3,-52.168,-58.569,-25.816,11.299
526.2,-53.168,-59.569,-25.816,10.299
536.1,-53.168,-59.569,-25.816,10.299
545.9,-50.168,-58.569,-23.816,11.299
555.8,-50.168,-58.569,-23.816,11.299
565.7,-49.168,-57.569,-23.816,12.299
575.6,-47.168,-55.569,-23.816,12.299
585.5,-45.168,-53.569,-21.816,12.299
595.4,-35.168,-46.569,-21.816,12.299
605.2,-27.168,-39.569,-20.816,11.299
615.1,-21.168,-32.569,-19.816,13.299
625.0,-12.168,-26.569,-19.816,12.299
634.9,-9.1683,-21.569,-18.816,13.299
644.8,-9.1683,-20.569,-20.816,13.299
654.7,-9.1683,-19.569,-18.816,13.299
664.6,-13.168,-21.569,-20.816,12.299
674.4,-15.168,-22.569,-19.816,14.299
684.3,-16.168,-23.569,-22.816,13.299
694.2,-19.168,-22.569,-22.816,13.299
704.1,-21.168,-24.569,-23.816,12.299
714.0,-23.168,-25.569,-23.816,13.299
723.9,-25.168,-24.569,-24.816,13.299
733.8,-30.168,-27.569,-27.816,11.299
743.6,-31.168,-29.569,-28.816,12.299
753.5,-33.168,-31.569,-25.816,12.299
763.4,-38.168,-33.569,-26.816,12.299
773.3,-41.168,-36.569,-27.816,12.299
783.2,-46.168,-40.569,-25.816,13.299
793.1,-47.168,-40.569,-27.816,12.299
803.0,-48.168,-40.569,-27.816,12.299
812.8,-47.168,-42.569,-25.816,12.299
822.7,-45.168,-38.569,-25.816,12.299
832.6,-46.168,-39.569,-27.816,11.299
842.5,-44.168,-39.569,-26.816,12.299
852.4,-45.168,-39.569,-24.816,11.299
862.3,-45.168,-38.569,-25.816,13.299
872.2,-47.168,-41.569,-24.816,11.299
882.0,-48.168,-43.569,-25.816,14.299
891.9,-48.168,-41.569,-24.816,12.299
901.8,-48.168,-43.569,-24.816,12.299
911.7,-49.168,-44.569,-24.816,13.299
921.6,-50.168,-44.569,-25.816,11.299
931.5,-53.168,-44.569,-22.816,14.299
941.4,-52.168,-47.569,-24.816,13.299
951.2,-54.168,-46.569,-22.816,13.299
961.1,-54.168,-47.569,-19.816,13.299
971.0,-53.168,-48.569,-21.816,12.299
980.9,-55.168,-48.569,-20.816,13.299
990.8,-55.168,-50.569,-20.816,13.299
1000.7,-56.168,-49.569,-21.816,14.299
1010.6,-54.168,-50.569,-20.816,13.299
1020.4,-53.168,-50.569,-19.816,12.299
1030.3,-53.168,-51.569,-18.816,14.299
1040.2,-52.168,-51.569,-16.816,14.299
1050.1,-51.168,-50.569,-17.816,15.299
1060.0,-52.168,-53.569,-17.816,13.299
1069.9,-53.168,-52.569,-17.816,13.299
1079.8,-52.168,-51.569,-15.816,13.299
1089.6,-50.168,-53.569,-15.816,15.299
1099.5,-49.168,-52.569,-15.816,13.299
1109.4,-48.168,-53.569,-13.816,13.299
1119.3,-49.168,-56.569,-15.816,14.299
1129.2,-49.168,-56.569,-13.816,13.299
1139.1,-48.168,-55.569,-13.816,13.299
1149.0,-48.168,-55.569,-11.816,15.299
1158.8,-49.168,-57.569,-11.816,14.299
1168.7,-49.168,-57.569,-11.816,15.299
1178.6,-44.168,-55.569,-10.816,14.299
1188.5,-44.168,-55.569,-7.8163,14.299
1198.4,-39.168,-50.569,-9.8163,14.299
1208.3,-39.168,-50.569,-7.8163,16.299
1218.2,-21.168,-36.569,-6.8163,15.299
1228.0,-21.168,-36.569,-7.8163,16.299
1237.9,-11.168,-24.569,-6.8163,16.299
1247.8,-11.168,-24.569,-6.8163,16.299
1257.7,-7.1683,-21.569,-5.8163,18.299
1267.6,-7.1683,-21.569,-5.8163,16.299
1277.5,-8.1683,-21.569,-4.8163,17.299
1287.4,-10.168,-22.569,-6.8163,16.299
1297.2,-12.168,-23.569,-7.8163,16.299
1307.1,-13.168,-24.569,-8.8163,17.299
1317.0,-19.168,-25.569,-9.8163,16.299
1326.9,-19.168,-27.569,-9.8163,16.299
1336.8,-22.168,-27.569,-8.8163,15.299
1346.7,-25.168,-31.569,-9.8163,16.299
1356.6,-28.168,-32.569,-10.816,15.299
1366.4,-30.168,-33.569,-10.816,16.299
1376.3,-32.168,-35.569,-11.816,15.299
1386.2,-37.168,-38.569,-11.816,15.299
1396.1,-41.168,-43.569,-9.8163,17.299
1406.0,-43.168,-44.569,-9.8163,15.299
1415.9,-42.168,-44.569,-9.8163,17.299
1425.8,-44.168,-43.569,-8.8163,16.299
1435.6,-42.168,-43.569,-8.8163,17.299
1445.5,-43.168,-42.569,-8.8163,17.299
1455.4,-39.168,-41.569,-9.8163,17.299
1465.3,-41.168,-42.569,-9.8163,17.299
1475.2,-41.168,-41.569,-7.8163,17.299
1485.1,-42.168,-42.569,-7.8163,17.299
1495.0,-42.168,-44.569,-6.8163,17.299
1504.8,-42.168,-45.569,-6.8163,17.299
1514.7,-44.168,-45.569,-4.8163,17.299
1524.6,-41.168,-43.569,-4.8163,17.299
1534.5,-42.168,-43.569,-4.8163,19.299
1544.4,-43.168,-45.569,-4.8163,19.299
1554.3,-43.168,-45.569,-3.8163,18.299
1564.2,-44.168,-45.569,-3.8163,18.299
1574.0,-43.168,-46.569,-2.8163,18.299
1583.9,-43.168,-45.569,-2.8163,18.299
1593.8,-42.168,-45.569,-2.8163,18.299
1603.7,-43.168,-46.569,-2.8163,18.299
1613.6,-41.168,-47.569,-2.8163,18.299
1623.5,-40.168,-46.569,-2.8163,18.299
1633.4,-39.168,-46.569,-1.8163,19.299
1643.2,-41.168,-47.569,-1.8163,19.299
1653.1,-39.168,-47.569,1.1837,18.299
1663.0,-38.168,-45.569,-0.81625,19.299
1672.9,-36.168,-45.569,-0.81625,19.299
1682.8,-36.168,-45.569,0.18375,20.299
1692.7,-35.168,-45.569,1.1837,19.299
1702.6,-33.168,-44.569,0.18375,20.299
1712.4,-32.168,-44.569,2.1837,18.299
1722.3,-31.168,-43.569,3.1837,21.299
1732.2,-32.168,-42.569,4.1837,20.299
1742.1,-29.168,-44.569,4.1837,20.299
1752.0,-30.168,-45.569,6.1837,20.299
1761.9,-30.168,-46.569,6.1837,21.299
1771.8,-28.168,-46.569,6.1837,20.299
1781.6,-27.168,-45.569,5.1837,20.299
1791.5,-25.168,-46.569,5.1837,21.299
1801.4,-23.168,-43.569,7.1837,21.299
1811.3,-20.168,-41.569,8.1837,20.299
1821.2,-13.168,-35.569,10.184,21.299
1831.1,-5.1683,-29.569,11.184,20.299
1841.0,-0.16833,-21.569,10.184,21.299
1850.8,9.8317,-15.569,12.184,20.299
1860.7,9.8317,-15.569,11.184,20.299
1870.6,12.832,-10.569,12.184,21.299
1880.5,12.832,-10.569,10.184,23.299
1890.4,10.832,-11.569,12.184,21.299
1900.3,10.832,-11.569,11.184,22.299
1910.2,7.8317,-13.569,9.1837,23.299
1920.0,7.8317,-13.569,10.184,23.299
1929.9,1.8317,-16.569,10.184,23.299
1939.8,1.8317,-16.569,10.184,22.299
1949.7,-5.1683,-19.569,9.1837,23.299
1959.6,-5.1683,-19.569,9.1837,22.299
1969.5,-11.168,-24.569,8.1837,23.299
1979.4,-11.168,-24.569,7.1837,22.299
1989.2,-16.168,-28.569,6.1837,21.299
1999.1,-16.168,-28.569,6.1837,21.299
2009.0,-20.168,-33.569,7.1837,22.299
2018.9,-24.168,-34.569,7.1837,22.299
2028.8,-25.168,-35.569,7.1837,22.299
2038.7,-26.168,-35.569,8.1837,23.299
2048.6,-22.168,-35.569,7.1837,22.299
2058.4,-20.168,-33.569,10.184,23.299
2068.3,-21.168,-34.569,8.1837,22.299
2078.2,-18.168,-33.569,8.1837,21.299
2088.1,-20.168,-33.569,8.1837,23.299
2098.0,-19.168,-33.569,10.184,21.299
2107.9,-19.168,-33.569,8.1837,23.299
2117.8,-20.168,-34.569,10.184,24.299
2127.6,-21.168,-34.569,10.184,22.299
2137.5,-21.168,-36.569,10.184,24.299
2147.4,-20.168,-37.569,11.184,22.299
2157.3,-20.168,-36.569,13.184,24.299
2167.2,-21.168,-36.569,13.184,23.299
2177.1,-19.168,-35.569,12.184,24.299
2187.0,-20.168,-35.569,12.184,23.299
2196.8,-19.168,-36.569,13.184,22.299
2206.7,-19.168,-37.569,12.184,23.299
2216.6,-18.168,-36.569,13.184,23.299
2226.5,-18.168,-37.569,12.184,23.299
2236.4,-17.168,-37.569,12.184,23.299
2246.3,-15.168,-38.569,12.184,22.299
2256.2,-15.168,-36.569,14.184,24.299
2266.0,-13.168,-36.569,14.184,23.299
2275.9,-13.168,-35.569,14.184,23.299
2285.8,-10.168,-35.569,15.184,25.299
2295.7,-9.1683,-34.569,15.184,24.299
2305.6,-9.1683,-35.569,16.184,24.299
2315.5,-8.1683,-34.569,16.184,24.299
2325.4,-6.1683,-34.569,17.184,23.299
2335.2,-4.1683,-32.569,16.184,24.299
2345.1,-4.1683,-33.569,16.184,26.299
2355.0,-1.1683,-33.569,17.184,24.299
2364.9,-3.1683,-33.569,17.184,24.299
2374.8,-1.1683,-33.569,19.184,25.299
2384.7,-0.16833,-33.569,18.184,24.299
2394.6,0.83167,-34.569,18.184,25.299
2404.4,2.8317,-31.569,20.184,26.299
2414.3,5.8317,-30.569,23.184,25.299
2424.2,9.8317,-28.569,22.184,24.299
2434.1,13.832,-22.569,22.184,25.299
2444.0,25.832,-14.569,21.184,25.299
2453.9,33.832,-6.5695,26.184,26.299
2463.8,40.832,-1.5695,24.184,26.299
2473.6,46.832,5.4305,25.184,26.299
2483.5,47.832,6.4305,26.184,27.299
2493.4,46.832,7.4305,24.184,27.299
2503.3,43.832,6.4305,25.184,27.299
2513.2,43.832,5.4305,25.184,27.299
2523.1,40.832,4.4305,22.184,27.299
2533.0,38.832,3.4305,22.184,27.299
2542.8,34.832,1.4305,19.184,27.299
2552.7,33.832,-0.5695,19.184,27.299
2562.6,31.832,0.4305,18.184,26.299
2572.5,31.832,0.4305,18.184,26.299
2582.4,28.832,-3.5695,18.184,27.299
2592.3,28.832,-3.5695,18.184,27.299
2602.2,21.832,-6.5695,18.184,26.299
2612.0,21.832,-6.5695,18.184,26.299
2621.9,13.832,-15.569,17.184,26.299
2631.8,13.832,-15.569,17.184,26.299
2641.7,10.832,-16.569,16.184,27.299
2651.6,10.832,-16.569,16.184,27.299
2661.5,11.832,-14.569,18.184,26.299
2671.4,11.832,-14.569,18.184,26.299
2681.2,13.832,-12.569,16.184,25.299
2691.1,13.832,-12.569,16.184,25.299
2701.0,12.832,-14.569,17.184,26.299
2710.9,12.832,-14.569,17.184,26.299
2720.8,10.832,-14.569,18.184,26.299
2730.7,10.832,-14.569,18.184,27.299
2740.6,8.8317,-17.569,18.184,27.299
2750.4,9.8317,-17.569,18.184,27.299
2760.3,9.8317,-18.569,17.184,26.299
2770.2,8.8317,-19.569,20.184,27.299
2780.1,7.8317,-19.569,19.184,26.299
2790.0,9.8317,-20.569,18.184,26.299
2799.9,8.8317,-19.569,21.184,28.299
2809.8,8.8317,-20.569,20.184,27.299
2819.6,5.8317,-21.569,19.184,26.299
2829.5,6.8317,-22.569,19.184,27.299
2839.4,7.8317,-23.569,21.184,25.299
2849.3,6.8317,-23.569,20.184,27.299
2859.2,4.8317,-24.569,20.184,26.299
2869.1,7.8317,-23.569,20.184,26.299
2878.9,6.8317,-23.569,21.184,26.299
2888.8,6.8317,-23.569,20.184,26.299
2898.7,6.8317,-24.569,21.184,27.299
2908.6,8.8317,-24.569,23.184,27.299
2918.5,10.832,-22.569,24.184,28.299
2928.4,10.832,-23.569,24.184,26.299
2938.3,12.832,-23.569,24.184,28.299
2948.2,11.832,-23.569,26.184,27.299
2958.0,13.832,-22.569,25.184,29.299
2967.9,15.832,-22.569,26.184,27.299
2977.8,13.832,-22.569,27.184,28.299
2987.7,14.832,-24.569,27.184,28.299
2997.6,13.832,-24.569,27.184,27.299
3007.5,14.832,-23.569,27.184,29.299
3017.3,18.832,-23.569,30.184,28.299
3027.2,18.832,-21.569,30.184,28.299
3037.1,21.832,-19.569,28.184,29.299
3047.0,27.832,-13.569,30.184,29.299
3056.9,38.832,-5.5695,32.184,29.299
3066.8,47.832,2.4305,31.184,29.299
3076.7,53.832,8.4305,33.184,28.299
3086.6,59.832,13.431,34.184,28.299
3096.4,61.832,16.431,30.184,30.299
3106.3,59.832,16.431,32.184,29.299
3116.2,59.832,14.431,31.184,28.299
3126.1,55.832,14.431,32.184,30.299
3136.0,53.832,12.431,31.184,30.299
3145.9,49.832,11.431,28.184,30.299
3155.7,46.832,10.431,28.184,28.299
3165.6,42.832,9.4305,27.184,30.299
3175.5,40.832,7.4305,26.184,28.299
3185.4,38.832,4.4305,26.184,29.299
3195.3,36.832,4.4305,26.184,28.299
3205.2,32.832,1.4305,23.184,28.299
3215.1,29.832,-0.5695,24.184,27.299
3224.9,25.832,-4.5695,23.184,28.299
3234.8,20.832,-8.5695,23.184,28.299
3244.7,16.832,-9.5695,22.184,29.299
3254.6,17.832,-9.5695,22.184,28.299
3264.5,18.832,-9.5695,24.184,28.299
3274.4,19.832,-7.5695,24.184,28.299
3284.3,21.832,-8.5695,23.184,27.299
3294.1,19.832,-7.5695,22.184,27.299
3304.0,19.832,-7.5695,21.184,28.299
3313.9,18.832,-10.569,24.184,28.299
3323.8,18.832,-10.569,24.184,28.299
3333.7,15.832,-10.569,25.184,28.299
3343.6,15.832,-10.569,25.184,29.299
3353.5,13.832,-13.569,25.184,29.299
3363.3,13.832,-13.569,24.184,28.299
3373.2,12.832,-13.569,26.184,28.299
3383.1,12.832,-13.569,24.184,27.299
3393.0,10.832,-15.569,25.184,29.299
3402.9,10.832,-15.569,24.184,28.299
3412.8,9.8317,-15.569,23.184,29.299
3422.7,9.8317,-15.569,23.184,28.299
3432.5,6.8317,-18.569,25.184,27.299
3442.4,6.8317,-18.569,25.184,28.299
3452.3,6.8317,-18.569,23.184,26.299
3462.2,4.8317,-19.569,25.184,27.299
3472.1,7.8317,-20.569,26.184,28.299
3482.0,6.8317,-20.569,25.184,26.299
3491.9,7.8317,-19.569,25.184,27.299
3501.7,7.8317,-18.569,24.184,26.299
3511.6,9.8317,-19.569,25.184,27.299
3521.5,8.8317,-19.569,24.184,27.299
3531.4,9.8317,-20.569,26.184,27.299
3541.3,10.832,-18.569,26.184,27.299
3551.2,9.8317,-20.569,26.184,28.299
3561.1,10.832,-19.569,26.184,28.299
3570.9,10.832,-20.569,28.184,27.299
3580.8,12.832,-20.569,28.184,27.299
3590.7,11.832,-21.569,27.184,26.299
3600.6,11.832,-20.569,27.184,26.299
3610.5,10.832,-21.569,28.184,27.299
3620.4,14.832,-21.569,28.184,27.299
3630.3,12.832,-21.569,28.184,26.299
3640.1,15.832,-20.569,28.184,26.299
3650.0,18.832,-18.569,30.184,27.299
3659.9,25.832,-12.569,30.184,27.299
3669.8,33.832,-4.5695,31.184,28.299
3679.7,40.832,1.4305,31.184,28.299
3689.6,47.832,7.4305,33.184,28.299
3699.5,52.832,11.431,33.184,28.299
3709.3,56.832,14.431,33.184,30.299
3719.2,54.832,14.431,33.184,30.299
3729.1,51.832,13.431,30.184,29.299
3739.0,47.832,11.431,30.184,29.299
3748.9,46.832,9.4305,29.184,28.299
3758.8,42.832,9.4305,27.184,28.299
3768.7,41.832,7.4305,28.184,28.299
3778.5,38.832,6.4305,27.184,28.299
3788.4,35.832,4.4305,24.184,27.299
3798.3,32.832,3.4305,22.184,27.299
3808.2,29.832,0.4305,23.184,27.299
3818.1,26.832,-0.5695,24.184,28.299
3828.0,21.832,-4.5695,24.184,27.299
3837.9,18.832,-6.5695,22.184,26.299
3847.7,13.832,-11.569,22.184,25.299
3857.6,12.832,-11.569,21.184,27.299
3867.5,12.832,-12.569,23.184,27.299
3877.4,12.832,-11.569,22.184,26.299
3887.3,12.832,-10.569,21.184,27.299
3897.2,13.832,-10.569,22.184,26.299
3907.1,14.832,-10.569,23.184,26.299
3916.9,14.832,-12.569,22.184,27.299
3926.8,13.832,-11.569,23.184,26.299
3936.7,12.832,-13.569,23.184,28.299
3946.6,10.832,-12.569,23.184,26.299
3956.5,8.8317,-16.569,22.184,26.299
3966.4,10.832,-15.569,23.184,27.299
3976.3,9.8317,-16.569,21.184,24.299
3986.1,9.8317,-17.569,23.184,27.299
3996.0,8.8317,-17.569,23.184,26.299
4005.9,7.8317,-18.569,24.184,26.299
4015.8,7.8317,-18.569,23.184,26.299
4025.7,5.8317,-19.569,24.184,26.299
4035.6,5.8317,-19.569,23.184,24.299
4045.5,3.8317,-20.569,23.184,25.299
4055.3,3.8317,-20.569,24.184,25.299
4065.2,4.8317,-21.569,23.184,25.299
4075.1,4.8317,-21.569,23.184,27.299
4085.0,5.8317,-21.569,23.184,25.299
4094.9,5.8317,-21.569,23.184,25.299
4104.8,4.8317,-21.569,23.184,26.299
4114.7,4.8317,-21.569,24.184,26.299
4124.5,9.8317,-20.569,24.184,26.299
4134.4,9.8317,-20.569,25.184,26.299
4144.3,9.8317,-21.569,23.184,27.299
4154.2,9.8317,-21.569,26.184,26.299
4164.1,9.8317,-20.569,25.184,27.299
4174.0,10.832,-20.569,25.184,26.299
4183.9,10.832,-21.569,25.184,25.299
4193.7,10.832,-20.569,24.184,27.299
4203.6,9.8317,-22.569,27.184,26.299
4213.5,9.8317,-20.569,26.184,28.299
4223.4,9.8317,-23.569,27.184,27.299
4233.3,12.832,-22.569,28.184,27.299
4243.2,13.832,-21.569,28.184,27.299
4253.1,14.832,-20.569,30.184,28.299
4262.9,21.832,-14.569,28.184,27.299
4272.8,28.832,-7.5695,28.184,27.299
4282.7,35.832,-1.5695,30.184,27.299
4292.6,41.832,3.4305,30.184,27.299
4302.5,46.832,8.4305,31.184,27.299
4312.4,47.832,10.431,29.184,28.299
4322.3,47.832,11.431,30.184,27.299
4332.1,45.832,9.4305,26.184,28.299
4342.0,44.832,8.4305,27.184,28.299
4351.9,39.832,7.4305,27.184,26.299
4361.8,35.832,5.4305,24.184,27.299
4371.7,33.832,3.4305,25.184,27.299
4381.6,27.832,2.4305,26.184,27.299
4391.5,26.832,0.4305,23.184,26.299
4401.3,21.832,-1.5695,23.184,26.299
4411.2,18.832,-4.5695,22.184,24.299
4421.1,14.832,-7.5695,21.184,26.299
4431.0,11.832,-9.5695,21.184,26.299
4440.9,7.8317,-13.569,22.184,26.299
4450.8,2.8317,-17.569,21.184,26.299
4460.7,1.8317,-18.569,21.184,26.299
4470.5,-2.1683,-18.569,20.184,26.299
4480.4,0.83167,-18.569,23.184,27.299
4490.3,0.83167,-18.569,23.184,26.299
4500.2,-1.1683,-17.569,22.184,26.299
4510.1,-0.16833,-19.569,24.184,26.299
4520.0,-3.1683,-19.569,22.184,25.299
4529.9,-3.1683,-20.569,21.184,26.299
4539.7,-4.1683,-22.569,24.184,27.299
4549.6,-6.1683,-23.569,24.184,25.299
4559.5,-5.1683,-24.569,24.184,26.299
4569.4,-8.1683,-24.569,24.184,26.299
4579.3,-8.1683,-26.569,23.184,26.299
4589.2,-10.168,-27.569,23.184,24.299
4599.1,-9.1683,-27.569,24.184,25.299
4608.9,-11.168,-27.569,24.184,25.299
4618.8,-11.168,-29.569,24.184,26.299
4628.7,-12.168,-30.569,24.184,26.299
4638.6,-13.168,-30.569,23.184,25.299
4648.5,-14.168,-33.569,23.184,25.299
4658.4,-13.168,-33.569,23.184,26.299
4668.3,-14.168,-33.569,23.184,26.299
4678.1,-15.168,-33.569,25.184,25.299
4688.0,-15.168,-34.569,25.184,25.299
4697.9,-14.168,-34.569,27.184,27.299
4707.8,-13.168,-34.569,27.184,27.299
4717.7,-12.168,-33.569,26.184,25.299
4727.6,-12.168,-34.569,26.184,25.299
4737.5,-13.168,-34.569,26.184,26.299
4747.3,-13.168,-34.569,26.184,26.299
4757.2,-12.168,-34.569,27.184,25.299
4767.1,-12.168,-34.569,27.184,25.299
4777.0,-13.168,-37.569,26.184,26.299
4786.9,-13.168,-37.569,26.184,26.299
4796.8,-12.168,-38.569,28.184,26.299
4806.7,-12.168,-38.569,28.184,26.299
4816.5,-10.168,-37.569,28.184,27.299
4826.4,-10.168,-37.569,28.184,27.299
4836.3,-8.1683,-34.569,29.184,27.299
4846.2,-8.1683,-34.569,31.184,28.299
4856.1,1.8317,-28.569,31.184,28.299
4866.0,1.8317,-28.569,31.184,28.299
4875.9,8.8317,-22.569,32.184,27.299
4885.7,14.832,-14.569,32.184,27.299
4895.6,20.832,-10.569,33.184,27.299
4905.5,23.832,-5.5695,35.184,28.299
4915.4,24.832,-4.5695,34.184,29.299
4925.3,25.832,-5.5695,33.184,29.299
4935.2,22.832,-5.5695,31.184,29.299
4945.1,19.832,-6.5695,31.184,29.299
4954.9,15.832,-7.5695,30.184,28.299
4964.8,13.832,-9.5695,30.184,28.299
4974.7,11.832,-10.569,29.184,27.299
4984.6,8.8317,-12.569,29.184,29.299
4994.5,4.8317,-12.569,28.184,28.299
5004.4,2.8317,-15.569,26.184,27.299
5014.3,0.83167,-16.569,26.184,28.299
5024.1,-4.1683,-20.569,26.184,28.299
5034.0,-6.1683,-22.569,26.184,28.299
5043.9,-11.168,-25.569,26.184,27.299
5053.8,-15.168,-27.569,26.184,27.299
5063.7,-12.168,-28.569,27.184,26.299
5073.6,-15.168,-27.569,27.184,27.299
5083.5,-14.168,-26.569,28.184,27.299
5093.3,-12.168,-25.569,27.184,26.299
5103.2,-13.168,-24.569,27.184,28.299
5113.1,-12.168,-24.569,27.184,28.299
5123.0,-14.168,-25.569,27.184,28.299
5132.9,-15.168,-25.569,28.184,27.299
5142.8,-16.168,-25.569,27.184,26.299
5152.7,-15.168,-27.569,26.184,27.299
5162.5,-18.168,-28.569,26.184,27.299
5172.4,-17.168,-29.569,30.184,28.299
5182.3,-20.168,-29.569,28.184,27.299
5192.2,-20.168,-31.569,28.184,27.299
5202.1,-23.168,-32.569,28.184,27.299
5212.0,-26.168,-33.569,28.184,26.299
5221.9,-26.168,-33.569,28.184,28.299
5231.7,-26.168,-36.569,29.184,27.299
5241.6,-30.168,-36.569,28.184,27.299
5251.5,-28.168,-38.569,27.184,27.299
5261.4,-31.168,-39.569,28.184,27.299
5271.3,-30.168,-38.569,29.184,26.299
5281.2,-29.168,-37.569,29.184,28.299
5291.1,-28.168,-38.569,29.184,26.299
5300.9,-28.168,-39.569,30.184,27.299
5310.8,-30.168,-39.569,29.184,27.299
5320.7,-29.168,-39.569,30.184,26.299
5330.6,-27.168,-37.569,29.184,28.299
5340.5,-29.168,-39.569,28.184,26.299
5350.4,-29.168,-39.569,30.184,26.299
5360.3,-28.168,-40.569,31.184,25.299
5370.1,-28.168,-41.569,30.184,27.299
5380.0,-28.168,-40.569,32.184,28.299
5389.9,-27.168,-42.569,31.184,28.299
5399.8,-26.168,-42.569,32.184,27.299
5409.7,-26.168,-41.569,31.184,27.299
5419.6,-23.168,-41.569,31.184,27.299
5429.5,-21.168,-38.569,32.184,27.299
5439.3,-14.168,-33.569,34.184,27.299
5449.2,-9.1683,-27.569,33.184,28.299
5459.1,-9.1683,-27.569,35.184,28.299
5469.0,4.8317,-15.569,35.184,28.299
5478.9,4.8317,-15.569,34.184,28.299
5488.8,12.832,-7.5695,35.184,29.299
5498.7,12.832,-7.5695,33.184,28.299
5508.5,12.832,-6.5695,34.184,28.299
5518.4,12.832,-6.5695,35.184,27.299
5528.3,5.8317,-7.5695,32.184,28.299
5538.2,5.8317,-7.5695,32.184,29.299
5548.1,2.8317,-8.5695,29.184,28.299
5558.0,2.8317,-8.5695,31.184,27.299
5567.8,-2.1683,-12.569,29.184,28.299
5577.7,-2.1683,-12.569,27.184,28.299
5587.6,-7.1683,-15.569,29.184,29.299
5597.5,-7.1683,-15.569,28.184,27.299
5607.4,-10.168,-17.569,27.184,27.299
5617.3,-14.168,-20.569,27.184,27.299
5627.2,-18.168,-24.569,27.184,27.299
5637.1,-21.168,-25.569,27.184,27.299
5646.9,-24.168,-28.569,25.184,27.299
5656.8,-26.168,-28.569,25.184,27.299
5666.7,-24.168,-28.569,25.184,26.299
5676.6,-23.168,-28.569,25.184,26.299
5686.5,-24.168,-26.569,26.184,26.299
5696.4,-21.168,-25.569,26.184,26.299
5706.2,-22.168,-25.569,25.184,26.299
5716.1,-23.168,-27.569,25.184,26.299
5726.0,-24.168,-27.569,26.184,26.299
5735.9,-26.168,-29.569,26.184,26.299
5745.8,-28.168,-28.569,24.184,25.299
5755.7,-27.168,-30.569,24.184,25.299
5765.6,-28.168,-30.569,24.184,26.299
5775.4,-28.168,-30.569,24.184,26.299
5785.3,-30.168,-32.569,24.184,26.299
5795.2,-32.168,-32.569,24.184,26.299
5805.1,-33.168,-33.569,26.184,25.299
5815.0,-34.168,-35.569,26.184,25.299
5824.9,-34.168,-34.569,27.184,27.299
5834.8,-34.168,-35.569,25.184,25.299
5844.6,-33.168,-35.569,26.184,27.299
5854.5,-33.168,-36.569,25.184,26.299
5864.4,-31.168,-35.569,25.184,25.299
5874.3,-32.168,-35.569,24.184,26.299
5884.2,-33.168,-36.569,26.184,25.299
5894.1,-32.168,-36.569,26.184,26.299
5904.0,-31.168,-36.569,27.184,26.299
5913.8,-31.168,-35.569,27.184,26.299
5923.7,-30.168,-36.569,27.184,26.299
5933.6,-31.168,-37.569,27.184,27.299
5943.5,-29.168,-37.569,28.184,26.299
5953.4,-30.168,-36.569,28.184,26.299
5963.3,-30.168,-38.569,29.184,26.299
5973.2,-32.168,-39.569,27.184,25.299
5983.0,-30.168,-41.569,29.184,27.299
5992.9,-27.168,-39.569,29.184,26.299
6002.8,-28.168,-39.569,30.184,27.299
6012.7,-25.168,-37.569,29.184,26.299
6022.6,-23.168,-34.569,30.184,27.299
6032.5,-12.168,-25.569,32.184,27.299
6042.4,-6.1683,-18.569,30.184,26.299
6052.2,0.83167,-10.569,31.184,28.299
6062.1,7.8317,-4.5695,32.184,28.299
6072.0,12.832,-1.5695,33.184,27.299
6081.9,13.832,1.4305,33.184,27.299
6091.8,13.832,1.4305,33.184,26.299
6101.7,11.832,1.4305,30.184,27.299
6111.6,8.8317,0.4305,29.184,27.299
6121.4,6.8317,-0.5695,27.184,26.299
6131.3,3.8317,-1.5695,26.184,26.299
6141.2,1.8317,-2.5695,24.184,26.299
6151.1,-2.1683,-2.5695,24.184,25.299
6161.0,-3.1683,-4.5695,22.184,25.299
6170.9,-7.1683,-5.5695,22.184,25.299
6180.8,-9.1683,-7.5695,21.184,25.299
6190.6,-9.1683,-7.5695,21.184,25.299
6200.5,-17.168,-13.569,19.184,24.299
6210.4,-17.168,-13.569,19.184,25.299
6220.3,-30.168,-21.569,19.184,25.299
6230.2,-30.168,-21.569,19.184,25.299
6240.1,-31.168,-23.569,19.184,25.299
6250.0,-31.168,-23.569,18.184,25.299
6259.8,-34.168,-24.569,20.184,25.299
6269.7,-34.168,-24.569,19.184,25.299
6279.6,-35.168,-24.569,20.184,26.299
6289.5,-35.168,-24.569,20.184,25.299
6299.4,-37.168,-27.569,19.184,25.299
6309.3,-37.168,-27.569,19.184,26.299
6319.2,-42.168,-29.569,18.184,26.299
6329.0,-42.168,-29.569,19.184,25.299
6338.9,-42.168,-31.569,19.184,24.299
6348.8,-44.168,-31.569,20.184,25.299
6358.7,-46.168,-33.569,18.184,24.299
6368.6,-45.168,-32.569,19.184,25.299
6378.5,-49.168,-33.569,20.184,24.299
6388.4,-50.168,-36.569,18.184,24.299
6398.2,-50.168,-35.569,19.184,23.299
6408.1,-51.168,-37.569,18.184,25.299
6418.0,-53.168,-38.569,19.184,24.299
6427.9,-53.168,-39.569,20.184,23.299
6437.8,-53.168,-38.569,19.184,23.299
6447.7,-52.168,-40.569,19.184,24.299
6457.6,-54.168,-41.569,18.184,24.299
6467.4,-54.168,-40.569,21.184,24.299
6477.3,-52.168,-41.569,19.184,23.299
6487.2,-52.168,-40.569,20.184,23.299
6497.1,-53.168,-40.569,19.184,24.299
6507.0,-53.168,-42.569,20.184,24.299
6516.9,-56.168,-41.569,20.184,24.299
6526.8,-53.168,-42.569,20.184,23.299
6536.6,-52.168,-43.569,20.184,23.299
6546.5,-53.168,-43.569,22.184,23.299
6556.4,-51.168,-43.569,20.184,24.299
6566.3,-51.168,-44.569,20.184,23.299
6576.2,-52.168,-45.569,21.184,23.299
6586.1,-49.168,-44.569,21.184,24.299
6596.0,-48.168,-44.569,21.184,23.299
6605.8,-47.168,-42.569,22.184,23.299
6615.7,-43.168,-37.569,23.184,24.299
6625.6,-32.168,-29.569,23.184,24.299
6635.5,-24.168,-23.569,22.184,22.299
6645.4,-18.168,-12.569,24.184,24.299
6655.3,-11.168,-8.5695,25.184,24.299
6665.2,-7.1683,-6.5695,22.184,24.299
6675.0,-7.1683,-4.5695,23.184,24.299
6684.9,-12.168,-5.5695,23.184,24.299
6694.8,-10.168,-4.5695,19.184,24.299
6704.7,-14.168,-5.5695,19.184,24.299
6714.6,-17.168,-7.5695,19.184,24.299
6724.5,-16.168,-5.5695,19.184,24.299
6734.4,-20.168,-6.5695,16.184,23.299
6744.2,-23.168,-7.5695,16.184,23.299
6754.1,-26.168,-9.5695,14.184,22.299
6764.0,-29.168,-11.569,14.184,22.299
6773.9,-33.168,-13.569,12.184,22.299
6783.8,-35.168,-14.569,12.184,22.299
6793.7,-42.168,-18.569,10.184,21.299
6803.6,-44.168,-22.569,10.184,21.299
6813.4,-51.168,-25.569,13.184,21.299
6823.3,-52.168,-27.569,13.184,21.299
6833.2,-53.168,-27.569,11.184,21.299
6843.1,-56.168,-29.569,11.184,21.299
6853.0,-55.168,-26.569,10.184,22.299
6862.9,-55.168,-26.569,10.184,22.299
6872.8,-54.168,-27.569,8.1837,20.299
6882.6,-56.168,-28.569,8.1837,20.299
6892.5,-59.168,-29.569,7.1837,20.299
6902.4,-59.168,-29.569,7.1837,20.299
6912.3,-60.168,-30.569,10.184,20.299
6922.2,-60.168,-30.569,7.1837,21.299
6932.1,-63.168,-33.569,9.1837,20.299
6942.0,-63.168,-33.569,8.1837,21.299
6951.8,-67.168,-35.569,9.1837,20.299
6961.7,-67.168,-35.569,10.184,20.299
6971.6,-68.168,-37.569,9.1837,19.299
6981.5,-68.168,-37.569,8.1837,20.299
6991.4,-71.168,-38.569,11.184,20.299
7001.3,-71.168,-38.569,9.1837,19.299
7011.2,-71.168,-40.569,9.1837,20.299
7021.0,-71.168,-40.569,9.1837,19.299
7030.9,-72.168,-42.569,9.1837,19.299
7040.8,-72.168,-42.569,10.184,19.299
7050.7,-71.168,-41.569,9.1837,19.299
7060.6,-72.168,-41.569,11.184,18.299
7070.5,-71.168,-44.569,9.1837,19.299
7080.4,-71.168,-41.569,10.184,18.299
7090.2,-71.168,-44.569,9.1837,19.299
7100.1,-72.168,-43.569,9.1837,19.299
7110.0,-72.168,-44.569,10.184,18.299
7119.9,-69.168,-44.569,9.1837,17.299
7129.8,-68.168,-45.569,10.184,19.299
7139.7,-70.168,-45.569,11.184,19.299
7149.6,-71.168,-46.569,12.184,20.299
7159.4,-70.168,-46.569,11.184,19.299
7169.3,-69.168,-49.569,12.184,20.299
7179.2,-67.168,-46.569,10.184,19.299
7189.1,-65.168,-46.569,13.184,20.299
7199.0,-63.168,-44.569,13.184,19.299
7208.9,-59.168,-38.569,14.184,18.299
7218.8,-50.168,-32.569,13.184,19.299
7228.6,-41.168,-23.569,13.184,19.299
7238.5,-32.168,-16.569,16.184,18.299
7248.4,-26.168,-11.569,14.184,19.299
7258.3,-26.168,-9.5695,14.184,19.299
7268.2,-26.168,-8.5695,14.184,19.299
7278.1,-28.168,-8.5695,11.184,20.299
7288.0,-32.168,-10.569,11.184,19.299
7297.8,-33.168,-9.5695,9.1837,19.299
7307.7,-33.168,-11.569,7.1837,19.299
7317.6,-36.168,-11.569,7.1837,18.299
7327.5,-37.168,-12.569,6.1837,18.299
7337.4,-40.168,-12.569,5.1837,19.299
7347.3,-44.168,-14.569,4.1837,18.299
7357.2,-47.168,-15.569,5.1837,17.299
7367.0,-49.168,-17.569,3.1837,17.299
7376.9,-53.168,-20.569,1.1837,16.299
7386.8,-56.168,-21.569,1.1837,15.299
7396.7,-61.168,-27.569,3.1837,17.299
7406.6,-65.168,-28.569,1.1837,16.299
7416.5,-68.168,-28.569,1.1837,16.299
7426.4,-65.168,-29.569,1.1837,16.299
7436.2,-66.168,-27.569,-0.81625,16.299
7446.1,-65.168,-26.569,-0.81625,16.299
7456.0,-65.168,-28.569,0.18375,15.299
7465.9,-68.168,-28.569,-1.8163,15.299
7475.8,-66.168,-29.569,0.18375,15.299
7485.7,-69.168,-30.569,-0.81625,15.299
7495.6,-68.168,-30.569,0.18375,15.299
7505.4,-71.168,-30.569,-0.81625,14.299
7515.3,-73.168,-32.569,-1.8163,14.299
7525.2,-73.168,-33.569,0.18375,14.299
7535.1,-74.168,-34.569,2.1837,17.299
7545.0,-74.168,-35.569,1.1837,17.299
7554.9,-75.168,-35.569,2.1837,14.299
7564.8,-77.168,-38.569,-0.81625,15.299
7574.6,-77.168,-37.569,1.1837,14.299
7584.5,-76.168,-40.569,1.1837,15.299
7594.4,-78.168,-39.569,-1.8163,13.299
7604.3,-78.168,-39.569,0.18375,15.299
7614.2,-78.168,-40.569,0.18375,13.299
7624.1,-76.168,-40.569,1.1837,14.299
7634.0,-76.168,-40.569,-0.81625,14.299
7643.8,-77.168,-41.569,-0.81625,14.299
7653.7,-77.168,-41.569,1.1837,13.299
7663.6,-76.168,-41.569,2.1837,13.299
7673.5,-76.168,-41.569,2.1837,13.299
7683.4,-74.168,-41.569,2.1837,13.299
7693.3,-74.168,-41.569,2.1837,13.299
7703.2,-72.168,-41.569,3.1837,15.299
7713.0,-72.168,-41.569,1.1837,13.299
7722.9,-69.168,-41.569,4.1837,15.299
7732.8,-69.168,-41.569,4.1837,15.299
7742.7,-70.168,-44.569,5.1837,14.299
7752.6,-70.168,-44.569,5.1837,14.299
7762.5,-71.168,-44.569,5.1837,14.299
7772.4,-70.168,-44.569,5.1837,14.299
7782.2,-66.168,-43.569,3.1837,13.299
7792.1,-66.168,-42.569,3.1837,13.299
7802.0,-62.168,-38.569,5.1837,14.299
7811.9,-53.168,-31.569,5.1837,14.299
7821.8,-43.168,-25.569,4.1837,14.299
7831.7,-37.168,-18.569,4.1837,14.299
7841.6,-30.168,-11.569,7.1837,14.299
7851.4,-27.168,-8.5695,7.1837,14.299
7861.3,-27.168,-7.5695,6.1837,14.299
7871.2,-29.168,-7.5695,6.1837,14.299
7881.1,-30.168,-8.5695,3.1837,13.299
7891.0,-32.168,-9.5695,3.1837,13.299
7900.9,-36.168,-9.5695,2.1837,13.299
7910.8,-39.168,-11.569,2.1837,13.299
7920.6,-40.168,-10.569,0.18375,12.299
7930.5,-43.168,-12.569,0.18375,12.299
7940.4,-45.168,-14.569,-0.81625,13.299
7950.3,-47.168,-16.569,-2.8163,13.299
7960.2,-51.168,-17.569,-3.8163,11.299
7970.1,-54.168,-20.569,-3.8163,12.299
7980.0,-57.168,-22.569,-4.8163,12.299
7989.8,-62.168,-27.569,-4.8163,12.299
7999.7,-71.168,-31.569,-4.8163,11.299
8009.6,-69.168,-30.569,-4.8163,12.299
8019.5,-69.168,-30.569,-3.8163,11.299
8029.4,-72.168,-30.569,-2.8163,12.299
8039.3,-69.168,-28.569,-3.8163,12.299
8049.2,-70.168,-29.569,-3.8163,11.299
8059.0,-70.168,-29.569,-2.8163,11.299
8068.9,-72.168,-31.569,-1.8163,13.299
8078.8,-72.168,-31.569,-1.8163,10.299
8088.7,-75.168,-31.569,-2.8163,11.299
8098.6,-77.168,-36.569,-0.81625,11.299
8108.5,-76.168,-34.569,-0.81625,11.299
8118.3,-77.168,-34.569,-0.81625,12.299
8128.2,-77.168,-36.569,-2.8163,11.299
8138.1,-81.168,-38.569,-1.8163,10.299
8148.0,-80.168,-38.569,-1.8163,11.299
8157.9,-83.168,-39.569,-3.8163,11.299
8167.8,-82.168,-40.569,0.18375,11.299
8177.7,-83.168,-40.569,-2.8163,10.299
8187.6,-84.168,-41.569,-0.81625,10.299
8197.4,-85.168,-42.569,0.18375,11.299
8207.3,-83.168,-42.569,-1.8163,10.299
8217.2,-84.168,-42.569,-1.8163,10.299
8227.1,-85.168,-43.569,-3.8163,11.299
8237.0,-83.168,-44.569,0.18375,12.299
8246.9,-85.168,-44.569,0.18375,10.299
8256.7,-83.168,-43.569,0.18375,11.299
8266.6,-82.168,-45.569,1.1837,11.299
8276.5,-83.168,-44.569,-0.81625,11.299
8286.4,-80.168,-45.569,0.18375,12.299
8296.3,-79.168,-46.569,2.1837,12.299
8306.2,-82.168,-46.569,3.1837,10.299
8316.1,-79.168,-47.569,3.1837,11.299
8326.0,-81.168,-46.569,2.1837,11.299
8335.8,-79.168,-49.569,4.1837,11.299
8345.7,-79.168,-49.569,4.1837,12.299
8355.6,-79.168,-48.569,3.1837,11.299
8365.5,-79.168,-48.569,3.1837,12.299
8375.4,-76.168,-47.569,4.1837,12.299
8385.3,-76.168,-47.569,5.1837,13.299
8395.1,-69.168,-43.569,5.1837,12.299
8405.0,-69.168,-43.569,7.1837,12.299
8414.9,-53.168,-30.569,5.1837,12.299
8424.8,-53.168,-30.569,6.1837,12.299
8434.7,-40.168,-16.569,7.1837,12.299
8444.6,-40.168,-16.569,7.1837,11.299
8454.5,-36.168,-10.569,6.1837,13.299
8464.3,-36.168,-10.569,6.1837,12.299
8474.2,-36.168,-10.569,5.1837,11.299
8484.1,-36.168,-10.569,5.1837,13.299
8494.0,-37.168,-10.569,5.1837,13.299
8503.9,-40.168,-10.569,3.1837,12.299
8513.8,-41.168,-10.569,3.1837,11.299
8523.7,-43.168,-11.569,0.18375,12.299
8533.5,-44.168,-11.569,0.18375,11.299
8543.4,-48.168,-13.569,-1.8163,10.299
8553.3,-50.168,-14.569,1.1837,10.299
8563.2,-52.168,-14.569,0.18375,11.299
8573.1,-57.168,-16.569,-1.8163,12.299
8583.0,-60.168,-20.569,-0.81625,11.299
8592.9,-65.168,-24.569,-0.81625,12.299
8602.7,-70.168,-28.569,-0.81625,10.299
8612.6,-70.168,-28.569,-3.8163,11.299
8622.5,-70.168,-28.569,-3.8163,9.2993
8632.4,-70.168,-25.569,-3.8163,10.299
8642.3,-71.168,-26.569,-1.8163,10.299
8652.2,-72.168,-25.569,-2.8163,11.299
8662.1,-71.168,-25.569,-3.8163,10.299
8671.9,-72.168,-26.569,-0.81625,10.299
8681.8,-73.168,-28.569,-1.8163,9.2993
8691.7,-74.168,-28.569,-2.8163,10.299
8701.6,-75.168,-28.569,-1.8163,9.2993
8711.5,-78.168,-30.569,-1.8163,10.299
8721.4,-77.168,-31.569,-0.81625,10.299
8731.3,-80.168,-33.569,-1.8163,9.2993
8741.1,-81.168,-33.569,0.18375,11.299
8751.0,-83.168,-34.569,-1.8163,9.2993
8760.9,-85.168,-35.569,-0.81625,9.2993
8770.8,-85.168,-37.569,-0.81625,9.2993
8780.7,-87.168,-37.569,-0.81625,10.299
8790.6,-86.168,-39.569,-2.8163,9.2993
8800.5,-86.168,-40.569,-2.8163,9.2993
8810.3,-89.168,-41.569,-0.81625,7.2993
8820.2,-88.168,-40.569,-0.81625,7.2993
8830.1,-87.168,-43.569,0.18375,9.2993
8840.0,-90.168,-43.569,0.18375,9.2993
8849.9,-87.168,-44.569,-0.81625,9.2993
8859.8,-86.168,-43.569,-0.81625,9.2993
8869.7,-84.168,-44.569,2.1837,10.299
8879.5,-83.168,-43.569,2.1837,10.299
8889.4,-81.168,-43.569,3.1837,10.299
8899.3,-83.168,-44.569,3.1837,10.299
8909.2,-80.168,-43.569,2.1837,10.299
8919.1,-80.168,-43.569,2.1837,10.299
8929.0,-79.168,-43.569,2.1837,9.2993
8938.9,-79.168,-43.569,2.1837,9.2993
8948.7,-80.168,-45.569,3.1837,9.2993
8958.6,-79.168,-47.569,3.1837,9.2993
8968.5,-80.168,-46.569,6.1837,10.299
8978.4,-78.168,-46.569,6.1837,10.299
8988.3,-75.168,-45.569,6.1837,10.299
8998.2,-73.168,-45.569,6.1837,10.299
9008.1,-67.168,-39.569,7.1837,10.299
9017.9,-57.168,-30.569,6.1837,9.2993
9027.8,-46.168,-24.569,6.1837,10.299
9037.7,-39.168,-15.569,6.1837,11.299
9047.6,-33.168,-9.5695,8.1837,10.299
9057.5,-29.168,-7.5695,8.1837,10.299
9067.4,-29.168,-5.5695,9.1837,11.299
9077.3,-29.168,-5.5695,7.1837,11.299
9087.1,-32.168,-3.5695,7.1837,11.299
9097.0,-32.168,-3.5695,5.1837,11.299
9106.9,-31.168,-3.5695,3.1837,11.299
9116.8,-31.168,-3.5695,3.1837,11.299
9126.7,-36.168,-4.5695,2.1837,10.299
9136.6,-36.168,-4.5695,1.1837,10.299
9146.5,-41.168,-7.5695,1.1837,11.299
9156.3,-41.168,-7.5695,-1.8163,10.299
9166.2,-45.168,-8.5695,1.1837,9.2993
9176.1,-45.168,-8.5695,0.18375,9.2993
9186.0,-53.168,-14.569,-0.81625,9.2993
9195.9,-53.168,-14.569,-1.8163,8.2993
9205.8,-55.168,-18.569,-3.8163,9.2993
9215.7,-60.168,-21.569,-1.8163,9.2993
9225.5,-62.168,-20.569,-3.8163,8.2993
9235.4,-63.168,-21.569,-2.8163,9.2993
9245.3,-63.168,-21.569,-2.8163,9.2993
9255.2,-60.168,-19.569,-2.8163,9.2993
9265.1,-62.168,-19.569,-4.8163,8.2993
9275.0,-61.168,-19.569,-3.8163,9.2993
9284.9,-62.168,-19.569,-3.8163,8.2993
9294.7,-62.168,-20.569,-4.8163,8.2993
9304.6,-64.168,-22.569,-3.8163,9.2993
9314.5,-68.168,-24.569,-2.8163,7.2993
9324.4,-65.168,-23.569,-3.8163,9.2993
9334.3,-66.168,-24.569,-3.8163,8.2993
9344.2,-69.168,-25.569,-3.8163,7.2993
9354.1,-68.168,-25.569,-3.8163,8.2993
9363.9,-70.168,-25.569,-2.8163,7.2993
9373.8,-71.168,-26.569,-3.8163,8.2993
9383.7,-70.168,-28.569,-4.8163,8.2993
9393.6,-72.168,-29.569,-2.8163,7.2993
9403.5,-72.168,-29.569,-4.8163,7.2993
9413.4,-72.168,-30.569,-4.8163,7.2993
9423.3,-72.168,-31.569,-3.8163,7.2993
9433.1,-73.168,-33.569,-3.8163,6.2993
9443.0,-71.168,-32.569,-3.8163,7.2993
9452.9,-72.168,-31.569,-3.8163,8.2993
9462.8,-71.168,-32.569,-2.8163,7.2993
9472.7,-69.168,-32.569,-2.8163,6.2993
9482.6,-69.168,-31.569,-2.8163,6.2993
9492.5,-69.168,-32.569,-1.8163,7.2993
9502.3,-65.168,-31.569,-0.81625,7.2993
9512.2,-67.168,-31.569,-2.8163,7.2993
9522.1,-63.168,-32.569,-1.8163,7.2993
9532.0,-64.168,-30.569,-0.81625,8.2993
9541.9,-64.168,-32.569,-1.8163,7.2993
9551.8,-63.168,-32.569,-0.81625,7.2993
9561.7,-63.168,-33.569,0.18375,6.2993
9571.5,-63.168,-35.569,1.1837,7.2993
9581.4,-61.168,-34.569,0.18375,8.2993
9591.3,-59.168,-34.569,1.1837,7.2993
9601.2,-58.168,-33.569,2.1837,8.2993
9611.1,-56.168,-32.569,2.1837,7.2993
9621.0,-54.168,-28.569,3.1837,7.2993
9630.9,-44.168,-21.569,4.1837,7.2993
9640.7,-32.168,-12.569,4.1837,7.2993
9650.6,-25.168,-4.5695,3.1837,7.2993
9660.5,-16.168,3.4305,6.1837,8.2993
9670.4,-11.168,8.4305,6.1837,8.2993
9680.3,-9.1683,10.431,4.1837,9.2993
9690.2,-10.168,11.431,3.1837,7.2993
9700.1,-12.168,10.431,3.1837,9.2993
9709.9,-12.168,12.431,2.1837,8.2993
9719.8,-13.168,10.431,0.18375,9.2993
9729.7,-14.168,12.431,0.18375,8.2993
9739.6,-17.168,11.431,-2.8163,8.2993
9749.5,-17.168,10.431,-1.8163,9.2993
9759.4,-19.168,9.4305,-1.8163,7.2993
9769.3,-24.168,8.4305,-2.8163,6.2993
9779.1,-27.168,6.4305,-4.8163,6.2993
9789.0,-27.168,6.4305,-6.8163,6.2993
9798.9,-33.168,3.4305,-4.8163,7.2993
9808.8,-33.168,3.4305,-5.8163,7.2993
9818.7,-41.168,-5.5695,-4.8163,8.2993
9828.6,-41.168,-5.5695,-4.8163,8.2993
9838.5,-51.168,-8.5695,-6.8163,7.2993
9848.3,-51.168,-8.5695,-6.8163,7.2993
9858.2,-50.168,-9.5695,-6.8163,6.2993
9868.1,-50.168,-9.5695,-6.8163,6.2993
9878.0,-50.168,-9.5695,-7.8163,6.2993
9887.9,-50.168,-9.5695,-7.8163,6.2993
9897.8,-54.168,-12.569,-7.8163,4.2993
9907.7,-54.168,-12.569,-7.8163,4.2993
9917.5,-55.168,-13.569,-8.8163,6.2993
9927.4,-55.168,-13.569,-8.8163,6.2993
9937.3,-57.168,-14.569,-7.8163,5.2993
9947.2,-58.168,-15.569,-7.8163,5.2993
9957.1,-62.168,-15.569,-7.8163,4.2993
9967.0,-60.168,-16.569,-7.8163,4.2993
9976.9,-60.168,-18.569,-8.8163,4.2993
9986.7,-63.168,-19.569,-8.8163,4.2993
9996.6,-63.168,-21.569,-8.8163,5.2993
10007.0,-65.168,-21.569,-8.8163,5.2993
10016.0,-65.168,-20.569,-7.8163,4.2993
10026.0,-65.168,-23.569,-7.8163,4.2993
10036.0,-67.168,-24.569,-7.8163,4.2993
10046.0,-65.168,-23.569,-7.8163,6.2993
10056.0,-65.168,-24.569,-8.8163,4.2993
10066.0,-66.168,-25.569,-7.8163,5.2993
10076.0,-68.168,-27.569,-7.8163,5.2993
10086.0,-67.168,-26.569,-7.8163,5.2993
10096.0,-66.168,-27.569,-7.8163,4.2993
10105.0,-65.168,-28.569,-6.8163,4.2993
10115.0,-63.168,-28.569,-6.8163,4.2993
10125.0,-64.168,-28.569,-5.8163,3.2993
10135.0,-62.168,-28.569,-6.8163,5.2993
10145.0,-62.168,-29.569,-6.8163,3.2993
10155.0,-62.168,-29.569,-6.8163,4.2993
10165.0,-61.168,-29.569,-6.8163,4.2993
10175.0,-60.168,-29.569,-3.8163,4.2993
10185.0,-58.168,-29.569,-3.8163,4.2993
10194.0,-59.168,-30.569,-4.8163,5.2993
10204.0,-58.168,-31.569,-4.8163,4.2993
10214.0,-56.168,-31.569,-2.8163,3.2993
10224.0,-56.168,-30.569,-3.8163,4.2993
10234.0,-54.168,-29.569,-0.81625,5.2993
10244.0,-51.168,-28.569,-1.8163,5.2993
10254.0,-45.168,-23.569,-1.8163,5.2993
10264.0,-34.168,-13.569,-1.8163,5.2993
10273.0,-25.168,-5.5695,-0.81625,6.2993
10283.0,-15.168,2.4305,1.1837,4.2993
10293.0,-8.1683,8.4305,0.18375,6.2993
10303.0,-3.1683,13.431,0.18375,6.2993
10313.0,-5.1683,14.431,-0.81625,6.2993
10323.0,-4.1683,15.431,-0.81625,6.2993
10333.0,-6.1683,16.431,-2.8163,5.2993
10343.0,-5.1683,15.431,-2.8163,6.2993
10353.0,-8.1683,14.431,-3.8163,5.2993
10362.0,-10.168,16.431,-4.8163,4.2993
10372.0,-10.168,16.431,-6.8163,5.2993
10382.0,-14.168,15.431,-7.8163,5.2993
10392.0,-15.168,14.431,-6.8163,4.2993
10402.0,-18.168,12.431,-6.8163,3.2993
10412.0,-21.168,11.431,-8.8163,4.2993
10422.0,-24.168,8.4305,-9.8163,3.2993
10432.0,-28.168,6.4305,-9.8163,4.2993
10442.0,-32.168,4.4305,-9.8163,4.2993
10451.0,-37.168,-0.5695,-9.8163,3.2993
10461.0,-40.168,-2.5695,-11.816,4.2993
10471.0,-40.168,-3.5695,-11.816,3.2993
10481.0,-42.168,-2.5695,-11.816,3.2993
10491.0,-42.168,-3.5695,-11.816,3.2993
10501.0,-41.168,-3.5695,-11.816,1.2993
10511.0,-42.168,-3.5695,-13.816,4.2993
10521.0,-42.168,-3.5695,-13.816,4.2993
10531.0,-45.168,-5.5695,-10.816,2.2993
10540.0,-45.168,-5.5695,-11.816,4.2993
10550.0,-49.168,-7.5695,-13.816,3.2993
10560.0,-49.168,-7.5695,-12.816,1.2993
10570.0,-50.168,-9.5695,-12.816,3.2993
10580.0,-50.168,-9.5695,-10.816,3.2993
10590.0,-53.168,-11.569,-10.816,2.2993
10600.0,-53.168,-11.569,-10.816,3.2993
10610.0,-55.168,-14.569,-10.816,3.2993
10619.0,-55.168,-14.569,-11.816,3.2993
10629.0,-56.168,-15.569,-10.816,1.2993
10639.0,-56.168,-15.569,-11.816,1.2993
10649.0,-57.168,-18.569,-10.816,1.2993
10659.0,-57.168,-18.569,-10.816,3.2993
10669.0,-58.168,-18.569,-11.816,2.2993
10679.0,-58.168,-18.569,-11.816,2.2993
10689.0,-60.168,-19.569,-11.816,2.2993
10699.0,-60.168,-20.569,-11.816,2.2993
10708.0,-58.168,-21.569,-11.816,2.2993
10718.0,-58.168,-22.569,-8.8163,2.2993
10728.0,-58.168,-23.569,-9.8163,3.2993
10738.0,-58.168,-22.569,-10.816,3.2993
10748.0,-56.168,-24.569,-9.8163,3.2993
10758.0,-55.168,-23.569,-8.8163,2.2993
10768.0,-55.168,-24.569,-7.8163,3.2993
10778.0,-51.168,-21.569,-7.8163,2.2993
10788.0,-51.168,-22.569,-10.816,2.2993
10797.0,-50.168,-23.569,-5.8163,3.2993
10807.0,-50.168,-23.569,-7.8163,3.2993
10817.0,-49.168,-24.569,-7.8163,2.2993
10827.0,-49.168,-23.569,-7.8163,2.2993
10837.0,-50.168,-27.569,-5.8163,4.2993
10847.0,-49.168,-26.569,-4.8163,3.2993
10857.0,-46.168,-25.569,-5.8163,3.2993
10867.0,-45.168,-25.569,-5.8163,2.2993
10877.0,-42.168,-23.569,-5.8163,2.2993
10886.0,-40.168,-22.569,-4.8163,3.2993
10896.0,-31.168,-13.569,-4.8163,3.2993
10906.0,-18.168,-3.5695,-3.8163,3.2993
10916.0,-11.168,3.4305,-3.8163,3.2993
10926.0,-0.16833,10.431,-1.8163,5.2993
10936.0,2.8317,17.431,-1.8163,5.2993
10946.0,4.8317,17.431,-1.8163,4.2993
10956.0,5.8317,19.431,-1.8163,4.2993
10965.0,6.8317,21.431,-3.8163,5.2993
10975.0,3.8317,22.431,-3.8163,5.2993
10985.0,3.8317,21.431,-7.8163,3.2993
10995.0,2.8317,23.431,-7.8163,3.2993
11005.0,0.83167,20.431,-8.8163,3.2993
11015.0,-1.1683,19.431,-8.8163,3.2993
11025.0,-5.1683,20.431,-8.8163,3.2993
11035.0,-5.1683,18.431,-8.8163,3.2993
11045.0,-8.1683,17.431,-11.816,2.2993
11054.0,-12.168,14.431,-11.816,2.2993
11064.0,-15.168,10.431,-11.816,2.2993
11074.0,-19.168,6.4305,-11.816,2.2993
11084.0,-24.168,3.4305,-10.816,2.2993
11094.0,-28.168,1.4305,-11.816,3.2993
11104.0,-28.168,0.4305,-13.816,2.2993
11114.0,-30.168,-0.5695,-11.816,2.2993
11124.0,-30.168,0.4305,-12.816,1.2993
11134.0,-28.168,0.4305,-12.816,3.2993
11143.0,-30.168,-0.5695,-12.816,3.2993
11153.0,-29.168,-0.5695,-13.816,0.29928
11163.0,-30.168,-2.5695,-12.816,1.2993
11173.0,-30.168,-2.5695,-13.816,1.2993
11183.0,-32.168,-5.5695,-12.816,2.2993
11193.0,-32.168,-5.5695,-11.816,1.2993
11203.0,-34.168,-7.5695,-11.816,1.2993
11213.0,-36.168,-8.5695,-12.816,0.29928
11222.0,-36.168,-8.5695,-13.816,1.2993
11232.0,-36.168,-8.5695,-13.816,1.2993
11242.0,-38.168,-12.569,-13.816,1.2993
11252.0,-38.168,-12.569,-13.816,0.29928
11262.0,-38.168,-13.569,-13.816,1.2993
11272.0,-38.168,-13.569,-11.816,0.29928
11282.0,-40.168,-14.569,-12.816,1.2993
11292.0,-40.168,-14.569,-12.816,1.2993
11302.0,-40.168,-17.569,-12.816,1.2993
11311.0,-40.168,-17.569,-12.816,0.29928
11321.0,-40.168,-20.569,-11.816,2.2993
11331.0,-40.168,-20.569,-11.816,0.29928
11341.0,-39.168,-19.569,-11.816,2.2993
11351.0,-39.168,-19.569,-11.816,1.2993
11361.0,-37.168,-19.569,-10.816,1.2993
11371.0,-37.168,-19.569,-10.816,1.2993
11381.0,-37.168,-19.569,-8.8163,2.2993
11391.0,-35.168,-21.569,-8.8163,2.2993
11400.0,-35.168,-21.569,-5.8163,3.2993
11410.0,-35.168,-20.569,-4.8163,3.2993
11420.0,-33.168,-20.569,-4.8163,3.2993
11430.0,-32.168,-20.569,-4.8163,4.2993
11440.0,-32.168,-20.569,-4.8163,3.2993
11450.0,-31.168,-22.569,-2.8163,5.2993
11460.0,-30.168,-21.569,-1.8163,4.2993
11470.0,-31.168,-21.569,-1.8163,4.2993
11480.0,-30.168,-23.569,-0.81625,4.2993
11489.0,-29.168,-23.569,-1.8163,4.2993
11499.0,-27.168,-22.569,1.1837,3.2993
11509.0,-24.168,-21.569,0.18375,4.2993
11519.0,-24.168,-20.569,0.18375,5.2993
11529.0,-16.168,-12.569,1.1837,5.2993
11539.0,-3.1683,-2.5695,4.1837,6.2993
11549.0,3.8317,3.4305,2.1837,6.2993
11559.0,10.832,11.431,4.1837,5.2993
11568.0,19.832,18.431,6.1837,7.2993
11578.0,24.832,23.431,5.1837,6.2993
11588.0,24.832,23.431,4.1837,6.2993
11598.0,23.832,22.431,1.1837,5.2993
11608.0,20.832,23.431,2.1837,6.2993
11618.0,17.832,22.431,-0.81625,6.2993
11628.0,18.832,22.431,0.18375,6.2993
11638.0,16.832,22.431,1.1837,6.2993
11648.0,15.832,21.431,0.18375,7.2993
11657.0,14.832,20.431,0.18375,7.2993
11667.0,11.832,19.431,0.18375,6.2993
11677.0,8.8317,17.431,-0.81625,6.2993
11687.0,7.8317,16.431,0.18375,6.2993
11697.0,3.8317,13.431,0.18375,5.2993
11707.0,-1.1683,10.431,1.1837,7.2993
11717.0,-4.1683,7.4305,0.18375,6.2993
11727.0,-12.168,3.4305,1.1837,7.2993
11737.0,-11.168,3.4305,0.18375,6.2993
11746.0,-11.168,2.4305,-0.81625,5.2993
11756.0,-10.168,2.4305,1.1837,7.2993
11766.0,-8.1683,2.4305,1.1837,6.2993
11776.0,-8.1683,3.4305,2.1837,7.2993
11786.0,-6.1683,4.4305,2.1837,5.2993
11796.0,-9.1683,2.4305,2.1837,7.2993
11806.0,-8.1683,1.4305,3.1837,6.2993
11816.0,-11.168,2.4305,3.1837,5.2993
11826.0,-11.168,0.4305,1.1837,6.2993
11835.0,-14.168,-0.5695,0.18375,5.2993
11845.0,-15.168,-0.5695,1.1837,5.2993
11855.0,-15.168,-2.5695,4.1837,5.2993
11865.0,-14.168,-3.5695,3.1837,5.2993
11875.0,-13.168,-3.5695,5.1837,6.2993
11885.0,-16.168,-6.5695,5.1837,6.2993
11895.0,-17.168,-6.5695,5.1837,5.2993
11905.0,-17.168,-7.5695,5.1837,6.2993
11914.0,-18.168,-6.5695,5.1837,6.2993
11924.0,-16.168,-8.5695,7.1837,6.2993
11934.0,-18.168,-8.5695,6.1837,6.2993
11944.0,-19.168,-11.569,6.1837,6.2993
11954.0,-20.168,-11.569,7.1837,6.2993
11964.0,-20.168,-11.569,7.1837,6.2993
11974.0,-18.168,-13.569,9.1837,7.2993
11984.0,-18.168,-13.569,9.1837,7.2993
11994.0,-18.168,-15.569,10.184,7.2993
12003.0,-18.168,-15.569,10.184,7.2993
12013.0,-19.168,-16.569,10.184,6.2993
12023.0,-19.168,-16.569,10.184,6.2993
12033.0,-19.168,-16.569,12.184,7.2993
12043.0,-19.168,-16.569,12.184,7.2993
12053.0,-19.168,-17.569,13.184,8.2993
12063.0,-19.168,-17.569,13.184,8.2993
12073.0,-16.168,-17.569,15.184,7.2993
12083.0,-16.168,-17.569,15.184,7.2993
12092.0,-16.168,-18.569,16.184,8.2993
12102.0,-16.168,-18.569,16.184,8.2993
12112.0,-15.168,-18.569,18.184,8.2993
12122.0,-17.168,-19.569,18.184,8.2993
12132.0,-18.168,-20.569,17.184,8.2993
12142.0,-16.168,-20.569,20.184,9.2993
12152.0,-16.168,-20.569,20.184,8.2993
12162.0,-13.168,-18.569,21.184,11.299
12172.0,-13.168,-16.569,21.184,9.2993
12181.0,-7.1683,-12.569,21.184,9.2993
12191.0,-0.16833,-6.5695,21.184,9.2993
12201.0,8.8317,2.4305,22.184,10.299
12211.0,18.832,10.431,24.184,10.299
12221.0,27.832,18.431,25.184,10.299
12231.0,31.832,22.431,26.184,10.299
12241.0,29.832,24.431,25.184,10.299
12251.0,30.832,24.431,25.184,10.299
12260.0,30.832,24.431,22.184,11.299
12270.0,25.832,26.431,21.184,10.299
12280.0,25.832,23.431,22.184,10.299
12290.0,23.832,23.431,21.184,10.299
12300.0,20.832,21.431,21.184,9.2993
12310.0,18.832,20.431,19.184,10.299
12320.0,14.832,17.431,19.184,9.2993
12330.0,10.832,16.431,19.184,10.299
12340.0,9.8317,15.431,18.184,9.2993
12349.0,5.8317,12.431,19.184,10.299
12359.0,3.8317,9.4305,18.184,8.2993
12369.0,-0.16833,5.4305,19.184,11.299
12379.0,-7.1683,0.4305,19.184,11.299
12389.0,-8.1683,0.4305,20.184,10.299
12399.0,-8.1683,2.4305,18.184,10.299
12409.0,-6.1683,0.4305,18.184,10.299
12419.0,-6.1683,1.4305,19.184,10.299
12429.0,-5.1683,2.4305,21.184,9.2993
12438.0,-2.1683,2.4305,19.184,10.299
12448.0,-5.1683,1.4305,20.184,9.2993
12458.0,-4.1683,0.4305,19.184,9.2993
12468.0,-4.1683,0.4305,20.184,9.2993
12478.0,-7.1683,-1.5695,21.184,10.299
12488.0,-7.1683,-0.5695,20.184,9.2993
12498.0,-5.1683,-1.5695,20.184,10.299
12508.0,-8.1683,-3.5695,22.184,10.299
12518.0,-7.1683,-4.5695,22.184,11.299
12527.0,-7.1683,-2.5695,23.184,10.299
12537.0,-8.1683,-3.5695,22.184,9.2993
12547.0,-6.1683,-3.5695,22.184,9.2993
12557.0,-8.1683,-4.5695,21.184,9.2993
12567.0,-7.1683,-5.5695,23.184,10.299
12577.0,-8.1683,-6.5695,22.184,9.2993
12587.0,-8.1683,-6.5695,24.184,9.2993
12597.0,-8.1683,-6.5695,22.184,10.299
12606.0,-7.1683,-8.5695,21.184,10.299
12616.0,-8.1683,-9.5695,22.184,11.299
12626.0,-5.1683,-8.5695,22.184,10.299
12636.0,-6.1683,-8.5695,23.184,8.2993
12646.0,-4.1683,-8.5695,22.184,8.2993
12656.0,-3.1683,-8.5695,22.184,10.299
12666.0,-1.1683,-8.5695,23.184,9.2993
12676.0,-1.1683,-8.5695,23.184,9.2993
12686.0,0.83167,-7.5695,25.184,10.299
12695.0,0.83167,-7.5695,24.184,10.299
12705.0,2.8317,-6.5695,26.184,10.299
12715.0,2.8317,-6.5695,25.184,10.299
12725.0,1.8317,-7.5695,24.184,9.2993
12735.0,1.8317,-7.5695,25.184,10.299
12745.0,6.8317,-8.5695,25.184,10.299
12755.0,6.8317,-8.5695,26.184,10.299
12765.0,6.8317,-9.5695,26.184,10.299
12775.0,6.8317,-9.5695,26.184,10.299
12784.0,7.8317,-9.5695,28.184,12.299
12794.0,7.8317,-9.5695,28.184,10.299
12804.0,10.832,-9.5695,29.184,10.299
12814.0,10.832,-9.5695,30.184,10.299
12824.0,13.832,-6.5695,29.184,10.299
12834.0,21.832,0.4305,29.184,9.2993
12844.0,33.832,9.4305,30.184,9.2993
12854.0,45.832,21.431,31.184,11.299
12864.0,55.832,28.431,33.184,12.299
12873.0,61.832,34.431,34.184,12.299
12883.0,67.832,39.431,34.184,12.299
12893.0,67.832,43.431,33.184,12.299
12903.0,67.832,41.431,31.184,11.299
12913.0,66.832,41.431,30.184,11.299
12923.0,65.832,40.431,28.184,11.299
12933.0,65.832,42.431,29.184,12.299
12943.0,62.832,41.431,28.184,11.299
12952.0,59.832,39.431,26.184,11.299
12962.0,57.832,39.431,25.184,11.299
12972.0,57.832,38.431,25.184,11.299
12982.0,53.832,37.431,23.184,11.299
12992.0,50.832,34.431,23.184,11.299
13002.0,47.832,33.431,23.184,10.299
13012.0,44.832,30.431,23.184,10.299
13022.0,40.832,26.431,24.184,12.299
13032.0,31.832,20.431,24.184,12.299
13041.0,30.832,21.431,24.184,11.299
13051.0,33.832,20.431,24.184,11.299
13061.0,29.832,20.431,22.184,10.299
13071.0,32.832,22.431,22.184,10.299
13081.0,34.832,22.431,23.184,11.299
13091.0,34.832,23.431,23.184,11.299
13101.0,30.832,21.431,22.184,12.299
13111.0,32.832,21.431,22.184,12.299
13121.0,29.832,19.431,23.184,10.299
13130.0,28.832,20.431,23.184,10.299
13140.0,25.832,18.431,23.184,11.299
13150.0,27.832,17.431,23.184,11.299
13160.0,23.832,16.431,25.184,11.299
13170.0,24.832,14.431,25.184,11.299
13180.0,24.832,14.431,24.184,10.299
13190.0,23.832,13.431,25.184,11.299
13200.0,21.832,12.431,25.184,11.299
13210.0,21.832,12.431,25.184,13.299
13219.0,22.832,10.431,23.184,11.299
13229.0,21.832,10.431,24.184,11.299
13239.0,20.832,9.4305,25.184,11.299
13249.0,20.832,7.4305,24.184,11.299
13259.0,20.832,8.4305,25.184,11.299
13269.0,20.832,7.4305,25.184,12.299
13279.0,21.832,7.4305,26.184,11.299
13289.0,20.832,6.4305,28.184,13.299
13298.0,20.832,6.4305,27.184,11.299
13308.0,21.832,5.4305,27.184,12.299
13318.0,21.832,4.4305,27.184,13.299
13328.0,20.832,5.4305,26.184,13.299
13338.0,24.832,3.4305,28.184,10.299
13348.0,23.832,4.4305,28.184,13.299
13358.0,23.832,5.4305,29.184,13.299
13368.0,24.832,3.4305,29.184,13.299
13378.0,24.832,2.4305,29.184,13.299
13387.0,24.832,2.4305,29.184,12.299
13397.0,26.832,3.4305,30.184,12.299
13407.0,26.832,3.4305,30.184,13.299
13417.0,25.832,1.4305,31.184,12.299
13427.0,25.832,1.4305,33.184,13.299
13437.0,29.832,3.4305,32.184,13.299
13447.0,29.832,3.4305,32.184,12.299
13457.0,32.832,4.4305,31.184,13.299
13467.0,32.832,4.4305,34.184,13.299
13476.0,51.832,21.431,34.184,14.299
13486.0,51.832,21.431,35.184,13.299
13496.0,73.832,40.431,35.184,15.299
13506.0,73.832,40.431,35.184,14.299
13516.0,86.832,50.431,36.184,14.299
13526.0,86.832,50.431,35.184,14.299
13536.0,87.832,52.431,35.184,14.299
13546.0,86.832,52.431,36.184,14.299
13556.0,84.832,53.431,33.184,15.299
13565.0,82.832,53.431,34.184,15.299
13575.0,81.832,50.431,32.184,14.299
13585.0,77.832,51.431,30.184,14.299
13595.0,76.832,51.431,29.184,13.299
13605.0,75.832,49.431,29.184,14.299
13615.0,74.832,50.431,28.184,14.299
13625.0,69.832,47.431,26.184,14.299
13635.0,66.832,46.431,26.184,12.299
13644.0,64.832,44.431,25.184,14.299
13654.0,58.832,41.431,24.184,12.299
13664.0,54.832,37.431,25.184,14.299
13674.0,50.832,33.431,25.184,12.299
13684.0,47.832,30.431,23.184,13.299
13694.0,45.832,30.431,23.184,13.299
13704.0,43.832,30.431,23.184,12.299
13714.0,43.832,31.431,25.184,12.299
13724.0,46.832,33.431,25.184,13.299
13733.0,45.832,32.431,24.184,14.299
13743.0,43.832,30.431,23.184,14.299
13753.0,43.832,30.431,23.184,12.299
13763.0,40.832,29.431,23.184,12.299
13773.0,37.832,27.431,24.184,13.299
13783.0,36.832,25.431,24.184,13.299
13793.0,34.832,22.431,23.184,12.299
13803.0,33.832,22.431,25.184,12.299
13813.0,32.832,21.431,24.184,12.299
13822.0,30.832,21.431,23.184,12.299
13832.0,29.832,19.431,24.184,12.299
13842.0,29.832,17.431,22.184,12.299
13852.0,27.832,17.431,25.184,13.299
13862.0,27.832,15.431,24.184,11.299
13872.0,27.832,14.431,24.184,13.299
13882.0,26.832,13.431,25.184,12.299
13892.0,25.832,12.431,25.184,12.299
13902.0,23.832,12.431,24.184,12.299
13911.0,23.832,11.431,24.184,12.299
13921.0,21.832,9.4305,24.184,11.299
13931.0,22.832,7.4305,25.184,12.299
13941.0,22.832,7.4305,26.184,13.299
13951.0,22.832,6.4305,26.184,12.299
13961.0,21.832,5.4305,26.184,13.299
13971.0,22.832,5.4305,26.184,13.299
13981.0,25.832,7.4305,26.184,13.299
13990.0,25.832,6.4305,28.184,13.299
14000.0,24.832,5.4305,27.184,12.299
14010.0,24.832,6.4305,28.184,12.299
14020.0,25.832,3.4305,27.184,13.299
14030.0,25.832,5.4305,28.184,13.299
14040.0,25.832,3.4305,28.184,13.299
14050.0,25.832,1.4305,29.184,12.299
14060.0,25.832,1.4305,29.184,12.299
14070.0,25.832,1.4305,29.184,12.299
14079.0,27.832,2.4305,29.184,12.299
14089.0,28.832,3.4305,30.184,12.299
14099.0,31.832,6.4305,30.184,12.299
14109.0,41.832,13.431,34.184,15.299
14119.0,41.832,13.431,34.184,15.299
14129.0,61.832,31.431,31.184,13.299
14139.0,61.832,31.431,31.184,13.299
14149.0,76.832,44.431,34.184,14.299
14159.0,76.832,44.431,34.184,14.299
14168.0,81.832,49.431,31.184,14.299
14178.0,81.832,49.431,31.184,14.299
14188.0,75.832,49.431,30.184,14.299
14198.0,75.832,49.431,30.184,14.299
14208.0,73.832,47.431,29.184,12.299
14218.0,73.832,47.431,29.184,12.299
14228.0,69.832,47.431,27.184,13.299
14238.0,69.832,47.431,27.184,13.299
14248.0,64.832,44.431,25.184,13.299
14257.0,64.832,44.431,22.184,12.299
14267.0,61.832,42.431,23.184,12.299
14277.0,58.832,41.431,24.184,13.299
14287.0,54.832,37.431,23.184,13.299
14297.0,50.832,35.431,23.184,13.299
14307.0,44.832,29.431,22.184,12.299
14317.0,41.832,27.431,23.184,12.299
14327.0,41.832,27.431,23.184,13.299
14336.0,40.832,26.431,24.184,12.299
14346.0,38.832,25.431,22.184,12.299
14356.0,39.832,25.431,23.184,12.299
14366.0,40.832,26.431,21.184,12.299
14376.0,39.832,27.431,21.184,12.299
14386.0,36.832,25.431,22.184,11.299
14396.0,37.832,24.431,22.184,10.299
14406.0,33.832,24.431,22.184,11.299
14416.0,32.832,21.431,21.184,13.299
14425.0,32.832,22.431,21.184,11.299
14435.0,28.832,19.431,23.184,11.299
14445.0,26.832,18.431,23.184,13.299
14455.0,25.832,16.431,23.184,12.299
14465.0,24.832,15.431,24.184,13.299
14475.0,22.832,14.431,23.184,12.299
14485.0,21.832,13.431,25.184,12.299
14495.0,19.832,12.431,25.184,11.299
14505.0,18.832,10.431,23.184,11.299
14514.0,19.832,11.431,25.184,11.299
14524.0,18.832,10.431,22.184,11.299
14534.0,17.832,9.4305,25.184,12.299
14544.0,17.832,8.4305,25.184,10.299
14554.0,17.832,5.4305,24.184,11.299
14564.0,18.832,5.4305,24.184,12.299
14574.0,17.832,5.4305,25.184,11.299
14584.0,15.832,4.4305,23.184,12.299
14594.0,16.832,3.4305,24.184,10.299
14603.0,18.832,4.4305,25.184,10.299
14613.0,18.832,2.4305,26.184,12.299
14623.0,19.832,2.4305,27.184,12.299
14633.0,19.832,2.4305,24.184,12.299
14643.0,18.832,2.4305,29.184,12.299
14653.0,21.832,2.4305,27.184,13.299
14663.0,23.832,2.4305,26.184,13.299
14673.0,23.832,0.4305,28.184,12.299
14682.0,20.832,-1.5695,28.184,12.299
14692.0,22.832,0.4305,29.184,13.299
14702.0,22.832,-0.5695,28.184,13.299
14712.0,24.832,-0.5695,29.184,12.299
14722.0,28.832,3.4305,29.184,12.299
14732.0,30.832,5.4305,29.184,13.299
14742.0,43.832,16.431,32.184,13.299
14752.0,51.832,22.431,31.184,12.299
14762.0,60.832,30.431,31.184,13.299
14771.0,69.832,37.431,30.184,12.299
14781.0,74.832,41.431,33.184,14.299
14791.0,74.832,44.431,32.184,13.299
14801.0,75.832,44.431,31.184,14.299
14811.0,74.832,45.431,30.184,15.299
14821.0,72.832,45.431,29.184,13.299
14831.0,71.832,42.431,30.184,12.299
14841.0,67.832,42.431,27.184,12.299
14851.0,67.832,42.431,26.184,11.299
14860.0,64.832,40.431,25.184,13.299
14870.0,64.832,40.431,24.184,12.299
14880.0,59.832,38.431,24.184,12.299
14890.0,59.832,38.431,22.184,12.299
14900.0,52.832,32.431,23.184,12.299
14910.0,52.832,32.431,21.184,10.299
14920.0,44.832,24.431,21.184,12.299
14930.0,44.832,24.431,23.184,12.299
14940.0,37.832,23.431,22.184,11.299
14949.0,37.832,23.431,24.184,12.299
14959.0,33.832,21.431,23.184,12.299
14969.0,33.832,21.431,23.184,12.299
14979.0,36.832,21.431,23.184,11.299
14989.0,36.832,22.431,21.184,12.299
14999.0,37.832,23.431,21.184,10.299
15009.0,34.832,22.431,22.184,12.299
15019.0,34.832,20.431,23.184,10.299
15028.0,33.832,19.431,21.184,10.299
15038.0,31.832,18.431,24.184,11.299
15048.0,29.832,15.431,23.184,12.299
15058.0,29.832,17.431,23.184,11.299
15068.0,27.832,15.431,23.184,11.299
15078.0,24.832,13.431,24.184,12.299
15088.0,24.832,12.431,24.184,12.299
15098.0,24.832,12.431,25.184,12.299
15108.0,22.832,10.431,25.184,12.299
15117.0,20.832,10.431,23.184,12.299
15127.0,20.832,8.4305,23.184,12.299
15137.0,19.832,7.4305,23.184,12.299
15147.0,18.832,5.4305,23.184,12.299
15157.0,17.832,6.4305,26.184,11.299
15167.0,16.832,5.4305,26.184,11.299
15177.0,17.832,4.4305,26.184,12.299
15187.0,17.832,4.4305,26.184,12.299
15197.0,17.832,2.4305,26.184,11.299
15206.0,15.832,2.4305,26.184,11.299
15216.0,19.832,1.4305,27.184,12.299
15226.0,18.832,1.4305,27.184,12.299
15236.0,18.832,1.4305,29.184,12.299
15246.0,18.832,0.4305,29.184,12.299
15256.0,18.832,0.4305,29.184,12.299
15266.0,18.832,-0.5695,29.184,12.299
15276.0,17.832,-1.5695,26.184,12.299
15286.0,18.832,-1.5695,28.184,12.299
15295.0,15.832,-3.5695,27.184,12.299
15305.0,16.832,-4.5695,30.184,13.299
15315.0,16.832,-4.5695,31.184,14.299
15325.0,17.832,-5.5695,32.184,12.299
15335.0,20.832,-3.5695,32.184,12.299
15345.0,20.832,-2.5695,32.184,14.299
15355.0,26.832,0.4305,34.184,13.299
15365.0,32.832,8.4305,33.184,14.299
15374.0,42.832,15.431,35.184,13.299
15384.0,51.832,22.431,33.184,13.299
15394.0,59.832,28.431,35.184,13.299
15404.0,62.832,33.431,35.184,14.299
15414.0,65.832,35.431,35.184,14.299
15424.0,65.832,35.431,34.184,14.299
15434.0,62.832,36.431,34.184,14.299
15444.0,57.832,33.431,32.184,14.299
15454.0,54.832,31.431,31.184,13.299
15463.0,52.832,30.431,31.184,15.299
15473.0,49.832,29.431,29.184,12.299
15483.0,47.832,29.431,31.184,13.299
15493.0,43.832,27.431,28.184,14.299
15503.0,42.832,25.431,27.184,13.299
15513.0,37.832,22.431,27.184,13.299
15523.0,34.832,21.431,28.184,13.299
15533.0,29.832,17.431,28.184,13.299
15543.0,25.832,12.431,27.184,12.299
15552.0,19.832,8.4305,26.184,12.299
15562.0,19.832,8.4305,25.184,12.299
15572.0,18.832,7.4305,27.184,12.299
15582.0,18.832,7.4305,26.184,12.299
15592.0,18.832,10.431,27.184,13.299
15602.0,18.832,10.431,27.184,13.299
15612.0,19.832,9.4305,27.184,11.299
15622.0,19.832,9.4305,26.184,12.299
15632.0,17.832,8.4305,26.184,11.299
15641.0,17.832,8.4305,25.184,12.299
15651.0,13.832,5.4305,27.184,11.299
15661.0,13.832,5.4305,26.184,13.299
15671.0,9.8317,3.4305,28.184,12.299
15681.0,9.8317,3.4305,28.184,13.299
15691.0,7.8317,0.4305,28.184,12.299
15701.0,7.8317,0.4305,27.184,13.299
15711.0,7.8317,0.4305,28.184,13.299
15720.0,6.8317,0.4305,29.184,13.299
15730.0,4.8317,-1.5695,28.184,12.299
15740.0,2.8317,-3.5695,29.184,13.299
15750.0,3.8317,-5.5695,28.184,11.299
15760.0,0.83167,-4.5695,29.184,12.299
15770.0,-0.16833,-5.5695,30.184,12.299
15780.0,-0.16833,-6.5695,28.184,12.299
15790.0,-0.16833,-5.5695,28.184,12.299
15800.0,-1.1683,-6.5695,27.184,12.299
15809.0,-1.1683,-7.5695,29.184,12.299
15819.0,-1.1683,-7.5695,30.184,12.299
15829.0,0.83167,-7.5695,30.184,12.299
15839.0,-1.1683,-8.5695,31.184,12.299
15849.0,-1.1683,-8.5695,31.184,11.299
15859.0,-0.16833,-9.5695,32.184,13.299
15869.0,-1.1683,-7.5695,30.184,12.299
15879.0,-0.16833,-10.569,31.184,12.299
15889.0,-0.16833,-10.569,32.184,12.299
15898.0,-1.1683,-11.569,33.184,12.299
15908.0,-2.1683,-15.569,32.184,13.299
15918.0,-6.1683,-15.569,34.184,12.299
15928.0,-4.1683,-15.569,33.184,13.299
15938.0,-2.1683,-13.569,33.184,13.299
15948.0,-1.1683,-15.569,33.184,13.299
15958.0,1.8317,-14.569,35.184,13.299
15968.0,2.8317,-10.569,36.184,14.299
15978.0,11.832,-3.5695,36.184,14.299
15987.0,18.832,4.4305,37.184,13.299
15997.0,27.832,11.431,37.184,12.299
16007.0,35.832,17.431,37.184,13.299
16017.0,40.832,21.431,39.184,13.299
16027.0,42.832,24.431,37.184,12.299
16037.0,42.832,25.431,37.184,13.299
16047.0,40.832,24.431,35.184,12.299
16057.0,35.832,22.431,34.184,12.299
16066.0,34.832,23.431,32.184,12.299
16076.0,33.832,22.431,31.184,13.299
16086.0,31.832,22.431,31.184,12.299
16096.0,29.832,20.431,30.184,11.299
16106.0,28.832,19.431,29.184,12.299
16116.0,23.832,18.431,29.184,12.299
16126.0,20.832,14.431,29.184,11.299
16136.0,17.832,13.431,29.184,11.299
16146.0,13.832,11.431,25.184,11.299
16155.0,9.8317,6.4305,25.184,11.299
16165.0,2.8317,1.4305,25.184,12.299
16175.0,-0.16833,1.4305,25.184,12.299
16185.0,0.83167,2.4305,25.184,10.299
16195.0,-0.16833,0.4305,25.184,10.299
16205.0,0.83167,3.4305,26.184,10.299
16215.0,1.8317,2.4305,26.184,10.299
16225.0,2.8317,3.4305,26.184,10.299
16235.0,0.83167,1.4305,26.184,10.299
16244.0,-2.1683,2.4305,25.184,10.299
16254.0,-1.1683,-0.5695,25.184,10.299
16264.0,-5.1683,-0.5695,26.184,9.2993
16274.0,-5.1683,-0.5695,26.184,9.2993
16284.0,-6.1683,-1.5695,22.184,8.2993
16294.0,-6.1683,-1.5695,22.184,8.2993
16304.0,-6.1683,-1.5695,24.184,9.2993
16314.0,-6.1683,-1.5695,24.184,9.2993
16323.0,-8.1683,-5.5695,22.184,9.2993
16333.0,-8.1683,-5.5695,22.184,9.2993
16343.0,-7.1683,-5.5695,23.184,10.299
16353.0,-7.1683,-5.5695,23.184,8.2993
16363.0,-10.168,-7.5695,22.184,8.2993
16373.0,-10.168,-7.5695,23.184,8.2993
16383.0,-11.168,-10.569,23.184,8.2993
16393.0,-11.168,-10.569,22.184,9.2993
16403.0,-12.168,-12.569,23.184,8.2993
16412.0,-12.168,-12.569,24.184,8.2993
16422.0,-12.168,-12.569,22.184,7.2993
16432.0,-12.168,-11.569,22.184,8.2993
16442.0,-10.168,-13.569,26.184,8.2993
16452.0,-10.168,-14.569,22.184,9.2993
16462.0,-11.168,-13.569,24.184,9.2993
16472.0,-8.1683,-14.569,24.184,8.2993
16482.0,-10.168,-14.569,25.184,9.2993
16492.0,-9.1683,-14.569,27.184,9.2993
16501.0,-9.1683,-14.569,28.184,9.2993
16511.0,-5.1683,-14.569,27.184,10.299
16521.0,-7.1683,-15.569,28.184,8.2993
16531.0,-5.1683,-16.569,28.184,9.2993
16541.0,-4.1683,-16.569,28.184,9.2993
16551.0,-4.1683,-14.569,28.184,9.2993
16561.0,-2.1683,-14.569,29.184,9.2993
16571.0,0.83167,-11.569,30.184,9.2993
16581.0,7.8317,-5.5695,28.184,9.2993
16590.0,17.832,3.4305,31.184,10.299
16600.0,28.832,12.431,31.184,10.299
16610.0,37.832,20.431,32.184,10.299
16620.0,44.832,27.431,32.184,11.299
16630.0,48.832,29.431,32.184,11.299
16640.0,47.832,31.431,31.184,11.299
16650.0,48.832,30.431,31.184,10.299
16660.0,47.832,32.431,26.184,10.299
16669.0,46.832,31.431,27.184,10.299
16679.0,43.832,32.431,25.184,11.299
16689.0,42.832,32.431,25.184,10.299
16699.0,41.832,32.431,25.184,9.2993
16709.0,38.832,31.431,21.184,8.2993
16719.0,35.832,28.431,23.184,9.2993
16729.0,33.832,29.431,20.184,8.2993
16739.0,32.832,26.431,20.184,9.2993
16749.0,28.832,25.431,20.184,9.2993
16758.0,23.832,21.431,19.184,9.2993
16768.0,18.832,17.431,19.184,9.2993
16778.0,10.832,11.431,21.184,9.2993
16788.0,10.832,10.431,19.184,9.2993
16798.0,6.8317,10.431,19.184,8.2993
16808.0,4.8317,8.4305,18.184,8.2993
16818.0,8.8317,9.4305,18.184,7.2993
16828.0,9.8317,12.431,18.184,6.2993
16838.0,7.8317,10.431,18.184,7.2993
16847.0,7.8317,8.4305,18.184,6.2993
16857.0,3.8317,9.4305,17.184,7.2993
16867.0,4.8317,7.4305,16.184,6.2993
16877.0,2.8317,6.4305,18.184,7.2993
16887.0,-0.16833,4.4305,18.184,7.2993
16897.0,-3.1683,3.4305,17.184,7.2993
16907.0,-4.1683,1.4305,17.184,6.2993
16917.0,-6.1683,1.4305,18.184,6.2993
16927.0,-7.1683,0.4305,18.184,6.2993
16936.0,-10.168,-1.5695,18.184,5.2993
16946.0,-9.1683,-2.5695,18.184,6.2993
16956.0,-12.168,-4.5695,17.184,6.2993
16966.0,-12.168,-4.5695,17.184,6.2993
16976.0,-13.168,-6.5695,16.184,5.2993
16986.0,-13.168,-6.5695,18.184,5.2993
16996.0,-15.168,-7.5695,18.184,6.2993
17006.0,-15.168,-7.5695,17.184,5.2993
17015.0,-15.168,-8.5695,16.184,5.2993
17025.0,-15.168,-8.5695,15.184,4.2993
17035.0,-16.168,-8.5695,16.184,4.2993
17045.0,-16.168,-8.5695,16.184,4.2993
17055.0,-14.168,-9.5695,17.184,5.2993
17065.0,-14.168,-9.5695,17.184,5.2993
17075.0,-14.168,-9.5695,17.184,5.2993
17085.0,-14.168,-9.5695,18.184,5.2993
17095.0,-15.168,-10.569,17.184,5.2993
17104.0,-15.168,-10.569,17.184,5.2993
17114.0,-13.168,-12.569,18.184,5.2993
17124.0,-13.168,-12.569,17.184,4.2993
17134.0,-14.168,-13.569,19.184,5.2993
17144.0,-15.168,-14.569,17.184,4.2993
17154.0,-13.168,-13.569,18.184,4.2993
17164.0,-14.168,-14.569,18.184,4.2993
17174.0,-12.168,-13.569,20.184,4.2993
17184.0,-9.1683,-11.569,20.184,4.2993
17193.0,-4.1683,-5.5695,20.184,4.2993
17203.0,6.8317,3.4305,20.184,4.2993
17213.0,18.832,11.431,20.184,5.2993
17223.0,26.832,21.431,20.184,5.2993
17233.0,34.832,28.431,21.184,5.2993
17243.0,41.832,33.431,21.184,5.2993
17253.0,40.832,35.431,20.184,5.2993
17263.0,41.832,35.431,20.184,5.2993
17273.0,40.832,33.431,17.184,5.2993
17282.0,39.832,35.431,17.184,5.2993
17292.0,35.832,35.431,14.184,3.2993
17302.0,35.832,36.431,14.184,3.2993
17312.0,33.832,34.431,13.184,4.2993
17322.0,31.832,33.431,13.184,4.2993
17332.0,27.832,32.431,11.184,4.2993
17342.0,25.832,31.431,11.184,4.2993
17352.0,23.832,29.431,9.1837,3.2993
17361.0,16.832,27.431,9.1837,3.2993
17371.0,13.832,25.431,8.1837,2.2993
17381.0,8.8317,21.431,7.1837,1.2993
17391.0,3.8317,16.431,5.1837,1.2993
17401.0,-2.1683,15.431,4.1837,1.2993
17411.0,-2.1683,13.431,4.1837,2.2993
17421.0,-2.1683,13.431,5.1837,2.2993
17431.0,-5.1683,11.431,3.1837,1.2993
17441.0,-6.1683,13.431,4.1837,0.29928
17450.0,-7.1683,12.431,4.1837,1.2993
17460.0,-6.1683,11.431,2.1837,1.2993
17470.0,-9.1683,9.4305,4.1837,0.29928
17480.0,-12.168,9.4305,4.1837,1.2993
17490.0,-16.168,5.4305,3.1837,1.2993
17500.0,-18.168,4.4305,4.1837,0.29928
17510.0,-19.168,2.4305,2.1837,2.2993
17520.0,-21.168,2.4305,2.1837,0.29928
17530.0,-23.168,0.4305,3.1837,0.29928
17539.0,-24.168,-0.5695,3.1837,0.29928
17549.0,-27.168,-2.5695,3.1837,0.29928
17559.0,-27.168,-2.5695,2.1837,0.29928
17569.0,-29.168,-2.5695,2.1837,-0.70072
17579.0,-32.168,-6.5695,2.1837,0.29928
17589.0,-34.168,-5.5695,2.1837,-0.70072
17599.0,-33.168,-8.5695,2.1837,-1.7007
17609.0,-35.168,-8.5695,1.1837,0.29928
17619.0,-36.168,-10.569,2.1837,-0.70072
17628.0,-37.168,-11.569,1.1837,-1.7007
17638.0,-37.168,-12.569,1.1837,-0.70072
17648.0,-37.168,-13.569,4.1837,-0.70072
17658.0,-37.168,-12.569,2.1837,-1.7007
17668.0,-36.168,-12.569,0.18375,-1.7007
17678.0,-36.168,-13.569,2.1837,-1.7007
17688.0,-37.168,-14.569,2.1837,-2.7007
17698.0,-36.168,-12.569,2.1837,-1.7007
17707.0,-37.168,-14.569,1.1837,-1.7007
17717.0,-37.168,-14.569,4.1837,-1.7007
17727.0,-37.168,-16.569,2.1837,-1.7007
17737.0,-37.168,-16.569,1.1837,-1.7007
17747.0,-35.168,-17.569,1.1837,-2.7007
17757.0,-35.168,-17.569,2.1837,-3.7007
17767.0,-35.168,-19.569,5.1837,-2.7007
17777.0,-35.168,-19.569,3.1837,-2.7007
17787.0,-32.168,-18.569,4.1837,-2.7007
17796.0,-32.168,-18.569,6.1837,-1.7007
17806.0,-23.168,-10.569,3.1837,-2.7007
17816.0,-23.168,-10.569,4.1837,-0.70072
17826.0,-5.1683,5.4305,8.1837,-2.7007
17836.0,-5.1683,5.4305,5.1837,-0.70072
17846.0,3.8317,14.431,7.1837,-1.7007
17856.0,9.8317,20.431,7.1837,0.29928
17866.0,14.832,22.431,5.1837,-2.7007
17876.0,13.832,25.431,4.1837,-1.7007
17885.0,13.832,24.431,5.1837,-1.7007
17895.0,13.832,26.431,3.1837,-1.7007
17905.0,12.832,25.431,4.1837,-2.7007
17915.0,10.832,25.431,1.1837,-1.7007
17925.0,8.8317,26.431,-1.8163,-3.7007
17935.0,6.8317,25.431,-1.8163,-1.7007
17945.0,6.8317,24.431,-1.8163,-2.7007
17955.0,1.8317,24.431,-4.8163,-3.7007
17965.0,0.83167,22.431,-4.8163,-2.7007
17974.0,-1.1683,21.431,-3.8163,-3.7007
17984.0,-6.1683,18.431,-5.8163,-3.7007
17994.0,-11.168,15.431,-6.8163,-3.7007
18004.0,-16.168,11.431,-6.8163,-5.7007
18014.0,-21.168,7.4305,-5.8163,-2.7007
18024.0,-26.168,6.4305,-6.8163,-4.7007
18034.0,-27.168,5.4305,-5.8163,-4.7007
18044.0,-27.168,4.4305,-7.8163,-3.7007
18053.0,-27.168,5.4305,-7.8163,-4.7007
18063.0,-27.168,3.4305,-7.8163,-3.7007
18073.0,-27.168,4.4305,-9.8163,-6.7007
18083.0,-31.168,2.4305,-8.8163,-5.7007
18093.0,-32.168,-0.5695,-9.8163,-6.7007
18103.0,-35.168,-1.5695,-10.816,-5.7007
18113.0,-36.168,-1.5695,-8.8163,-4.7007
18123.0,-40.168,-3.5695,-9.8163,-6.7007
18133.0,-40.168,-5.5695,-9.8163,-6.7007
18142.0,-42.168,-6.5695,-7.8163,-4.7007
18152.0,-43.168,-5.5695,-8.8163,-6.7007
18162.0,-45.168,-7.5695,-9.8163,-6.7007
18172.0,-45.168,-9.5695,-9.8163,-6.7007
18182.0,-49.168,-10.569,-9.8163,-5.7007
18192.0,-50.168,-11.569,-10.816,-6.7007
18202.0,-52.168,-13.569,-8.8163,-6.7007
18212.0,-52.168,-13.569,-10.816,-6.7007
18222.0,-54.168,-16.569,-11.816,-6.7007
18231.0,-55.168,-16.569,-11.816,-6.7007
18241.0,-56.168,-17.569,-10.816,-7.7007
18251.0,-55.168,-18.569,-10.816,-7.7007
18261.0,-54.168,-18.569,-10.816,-7.7007
18271.0,-54.168,-19.569,-10.816,-7.7007
18281.0,-53.168,-19.569,-6.8163,-7.7007
18291.0,-54.168,-20.569,-6.8163,-7.7007
18301.0,-53.168,-19.569,-9.8163,-6.7007
18311.0,-54.168,-21.569,-9.8163,-6.7007
18320.0,-53.168,-21.569,-8.8163,-7.7007
18330.0,-54.168,-23.569,-8.8163,-7.7007
18340.0,-55.168,-23.569,-6.8163,-7.7007
18350.0,-53.168,-24.569,-6.8163,-7.7007
18360.0,-53.168,-25.569,-6.8163,-7.7007
18370.0,-54.168,-26.569,-6.8163,-7.7007
18380.0,-54.168,-26.569,-5.8163,-7.7007
18390.0,-51.168,-27.569,-5.8163,-7.7007
18399.0,-52.168,-25.569,-3.8163,-7.7007
18409.0,-51.168,-26.569,-3.8163,-7.7007
18419.0,-47.168,-25.569,-4.8163,-7.7007
18429.0,-47.168,-25.569,-4.8163,-7.7007
18439.0,-34.168,-13.569,-3.8163,-8.7007
18449.0,-34.168,-13.569,-4.8163,-7.7007
18459.0,-14.168,2.4305,-4.8163,-7.7007
18469.0,-14.168,2.4305,-2.8163,-5.7007
18479.0,-0.16833,14.431,-2.8163,-5.7007
18488.0,-0.16833,14.431,-3.8163,-5.7007
18498.0,1.8317,19.431,-1.8163,-6.7007
18508.0,1.8317,19.431,-5.8163,-6.7007
18518.0,0.83167,19.431,-5.8163,-7.7007
18528.0,0.83167,19.431,-6.8163,-7.7007
18538.0,-2.1683,19.431,-8.8163,-8.7007
18548.0,-2.1683,19.431,-8.8163,-7.7007
18558.0,-5.1683,18.431,-9.8163,-7.7007
18568.0,-5.1683,18.431,-10.816,-8.7007
18577.0,-10.168,17.431,-10.816,-9.7007
18587.0,-11.168,16.431,-12.816,-9.7007
18597.0,-14.168,13.431,-13.816,-10.701
18607.0,-16.168,13.431,-13.816,-9.7007
18617.0,-18.168,9.4305,-14.816,-9.7007
18627.0,-24.168,7.4305,-15.816,-9.7007
18637.0,-30.168,2.4305,-16.816,-10.701
18647.0,-33.168,-0.5695,-16.816,-11.701
18657.0,-37.168,-0.5695,-16.816,-10.701
18666.0,-36.168,-0.5695,-18.816,-10.701
18676.0,-36.168,-1.5695,-19.816,-10.701
18686.0,-32.168,0.4305,-17.816,-11.701
18696.0,-33.168,-0.5695,-19.816,-9.7007
18706.0,-36.168,-0.5695,-19.816,-13.701
18716.0,-38.168,-2.5695,-19.816,-12.701
18726.0,-36.168,-3.5695,-17.816,-11.701
18736.0,-39.168,-4.5695,-18.816,-11.701
18745.0,-40.168,-5.5695,-17.816,-12.701
18755.0,-44.168,-7.5695,-18.816,-11.701
18765.0,-44.168,-6.5695,-18.816,-11.701
18775.0,-45.168,-8.5695,-20.816,-13.701
18785.0,-47.168,-10.569,-18.816,-12.701
18795.0,-49.168,-12.569,-17.816,-13.701
18805.0,-48.168,-12.569,-20.816,-13.701
18815.0,-49.168,-14.569,-20.816,-13.701
18825.0,-50.168,-14.569,-18.816,-13.701
18834.0,-49.168,-16.569,-18.816,-14.701
18844.0,-49.168,-16.569,-19.816,-13.701
18854.0,-50.168,-16.569,-19.816,-15.701
18864.0,-50.168,-18.569,-18.816,-12.701
18874.0,-49.168,-19.569,-20.816,-14.701
18884.0,-51.168,-19.569,-19.816,-14.701
18894.0,-48.168,-18.569,-20.816,-13.701
18904.0,-47.168,-19.569,-20.816,-14.701
18914.0,-46.168,-18.569,-18.816,-14.701
18923.0,-46.168,-19.569,-18.816,-14.701
18933.0,-45.168,-20.569,-17.816,-15.701
18943.0,-46.168,-20.569,-19.816,-14.701
18953.0,-43.168,-20.569,-17.816,-14.701
18963.0,-44.168,-21.569,-18.816,-14.701
18973.0,-45.168,-23.569,-17.816,-13.701
18983.0,-42.168,-22.569,-18.816,-15.701
18993.0,-41.168,-24.569,-18.816,-14.701
19003.0,-42.168,-22.569,-15.816,-13.701
19012.0,-42.168,-23.569,-15.816,-13.701
19022.0,-41.168,-23.569,-17.816,-13.701
19032.0,-38.168,-23.569,-13.816,-13.701
19042.0,-38.168,-22.569,-14.816,-13.701
19052.0,-35.168,-20.569,-13.816,-12.701
19062.0,-32.168,-19.569,-12.816,-12.701
19072.0,-24.168,-10.569,-12.816,-11.701
19082.0,-13.168,-2.5695,-13.816,-14.701
19091.0,-7.1683,4.4305,-12.816,-13.701
19101.0,2.8317,11.431,-11.816,-13.701
19111.0,7.8317,16.431,-8.8163,-11.701
19121.0,9.8317,18.431,-9.8163,-12.701
19131.0,8.8317,19.431,-11.816,-13.701
19141.0,8.8317,19.431,-11.816,-11.701
19151.0,4.8317,18.431,-10.816,-10.701
19161.0,4.8317,18.431,-13.816,-11.701
19171.0,0.83167,17.431,-14.816,-13.701
19180.0,0.83167,17.431,-15.816,-13.701
19190.0,-3.1683,15.431,-15.816,-13.701
19200.0,-3.1683,15.431,-18.816,-13.701
19210.0,-8.1683,13.431,-17.816,-13.701
19220.0,-8.1683,13.431,-18.816,-13.701
19230.0,-13.168,10.431,-18.816,-14.701
19240.0,-13.168,10.431,-18.816,-13.701
19250.0,-24.168,3.4305,-20.816,-13.701
19260.0,-24.168,3.4305,-20.816,-13.701
19269.0,-33.168,-3.5695,-19.816,-13.701
19279.0,-33.168,-3.5695,-19.816,-13.701
19289.0,-36.168,-3.5695,-19.816,-14.701
19299.0,-35.168,-4.5695,-19.816,-14.701
19309.0,-35.168,-5.5695,-20.816,-14.701
19319.0,-34.168,-3.5695,-20.816,-14.701
19329.0,-34.168,-4.5695,-20.816,-15.701
19339.0,-37.168,-5.5695,-20.816,-15.701
19349.0,-37.168,-7.5695,-20.816,-14.701
19358.0,-39.168,-8.5695,-20.816,-14.701
19368.0,-40.168,-9.5695,-20.816,-16.701
19378.0,-41.168,-10.569,-20.816,-16.701
19388.0,-44.168,-12.569,-18.816,-14.701
19398.0,-48.168,-12.569,-18.816,-14.701
19408.0,-46.168,-15.569,-18.816,-14.701
19418.0,-46.168,-16.569,-18.816,-14.701
19428.0,-48.168,-17.569,-18.816,-14.701
19437.0,-49.168,-18.569,-18.816,-14.701
19447.0,-51.168,-18.569,-18.816,-15.701
19457.0,-53.168,-20.569,-18.816,-15.701
19467.0,-52.168,-22.569,-19.816,-15.701
19477.0,-52.168,-22.569,-17.816,-15.701
19487.0,-54.168,-24.569,-16.816,-15.701
19497.0,-55.168,-25.569,-16.816,-14.701
19507.0,-55.168,-25.569,-17.816,-15.701
19517.0,-56.168,-27.569,-16.816,-14.701
19526.0,-56.168,-27.569,-15.816,-14.701
19536.0,-56.168,-29.569,-16.816,-15.701
19546.0,-54.168,-28.569,-17.816,-14.701
19556.0,-53.168,-28.569,-15.816,-15.701
19566.0,-53.168,-28.569,-14.816,-13.701
19576.0,-53.168,-28.569,-14.816,-15.701
19586.0,-51.168,-28.569,-14.816,-15.701
19596.0,-53.168,-29.569,-14.816,-13.701
19606.0,-51.168,-30.569,-12.816,-13.701
19615.0,-51.168,-31.569,-12.816,-14.701
19625.0,-52.168,-31.569,-11.816,-14.701
19635.0,-51.168,-32.569,-12.816,-14.701
19645.0,-51.168,-33.569,-11.816,-15.701
19655.0,-53.168,-34.569,-12.816,-14.701
19665.0,-50.168,-34.569,-10.816,-13.701
19675.0,-50.168,-33.569,-10.816,-14.701
19685.0,-46.168,-32.569,-11.816,-15.701
19695.0,-47.168,-30.569,-8.8163,-13.701
19704.0,-42.168,-28.569,-7.8163,-12.701
19714.0,-33.168,-21.569,-8.8163,-13.701
19724.0,-26.168,-15.569,-7.8163,-13.701
19734.0,-15.168,-5.5695,-6.8163,-13.701
19744.0,-8.1683,2.4305,-7.8163,-12.701
19754.0,-4.1683,7.4305,-5.8163,-13.701
19764.0,0.83167,8.4305,-5.8163,-12.701
19774.0,-1.1683,9.4305,-7.8163,-12.701
19783.0,-1.1683,10.431,-6.8163,-12.701
19793.0,-3.1683,9.4305,-6.8163,-12.701
19803.0,-7.1683,9.4305,-7.8163,-13.701
19813.0,-7.1683,8.4305,-8.8163,-12.701
19823.0,-11.168,9.4305,-9.8163,-12.701
19833.0,-10.168,9.4305,-12.816,-13.701
19843.0,-14.168,7.4305,-12.816,-14.701
19853.0,-17.168,5.4305,-12.816,-13.701
19863.0,-19.168,3.4305,-15.816,-13.701
19872.0,-19.168,3.4305,-12.816,-13.701
19882.0,-27.168,-1.5695,-13.816,-13.701
19892.0,-27.168,-1.5695,-14.816,-14.701
19902.0,-39.168,-9.5695,-14.816,-15.701
19912.0,-39.168,-9.5695,-13.816,-12.701
19922.0,-39.168,-11.569,-13.816,-14.701
19932.0,-39.168,-11.569,-14.816,-14.701
19942.0,-39.168,-10.569,-14.816,-14.701
19952.0,-39.168,-10.569,-14.816,-14.701
19961.0,-37.168,-9.5695,-12.816,-14.701
19971.0,-37.168,-9.5695,-14.816,-16.701
19981.0,-41.168,-10.569,-15.816,-15.701
19991.0,-41.168,-10.569,-12.816,-14.701
20001.0,-43.168,-12.569,-15.816,-15.701
20011.0,-47.168,-14.569,-15.816,-14.701
20021.0,-48.168,-15.569,-13.816,-15.701
20031.0,-48.168,-15.569,-13.816,-14.701
20041.0,-49.168,-17.569,-12.816,-15.701
20050.0,-48.168,-16.569,-13.816,-14.701
20060.0,-50.168,-17.569,-12.816,-14.701
20070.0,-52.168,-19.569,-13.816,-15.701
20080.0,-52.168,-19.569,-11.816,-15.701
20090.0,-53.168,-20.569,-11.816,-15.701
20100.0,-52.168,-21.569,-11.816,-15.701
20110.0,-54.168,-23.569,-10.816,-15.701
20120.0,-55.168,-23.569,-10.816,-13.701
20129.0,-54.168,-25.569,-10.816,-14.701
20139.0,-53.168,-23.569,-10.816,-14.701
20149.0,-55.168,-24.569,-12.816,-16.701
20159.0,-54.168,-24.569,-10.816,-14.701
20169.0,-52.168,-25.569,-11.816,-16.701
20179.0,-51.168,-26.569,-10.816,-16.701
20189.0,-52.168,-24.569,-9.8163,-15.701
20199.0,-50.168,-23.569,-8.8163,-14.701
20209.0,-49.168,-25.569,-9.8163,-15.701
20218.0,-48.168,-25.569,-7.8163,-14.701
20228.0,-47.168,-25.569,-8.8163,-15.701
20238.0,-44.168,-24.569,-6.8163,-15.701
20248.0,-44.168,-25.569,-6.8163,-14.701
20258.0,-45.168,-26.569,-6.8163,-15.701
20268.0,-44.168,-27.569,-3.8163,-14.701
20278.0,-41.168,-26.569,-5.8163,-13.701
20288.0,-42.168,-28.569,-5.8163,-14.701
20298.0,-43.168,-28.569,-6.8163,-15.701
20307.0,-39.168,-27.569,-6.8163,-15.701
20317.0,-38.168,-26.569,-5.8163,-16.701
20327.0,-35.168,-25.569,-5.8163,-16.701
20337.0,-33.168,-24.569,-5.8163,-15.701
20347.0,-30.168,-20.569,-5.8163,-15.701
20357.0,-19.168,-12.569,-3.8163,-14.701
20367.0,-8.1683,-3.5695,-3.8163,-14.701
20377.0,1.8317,5.4305,-1.8163,-14.701
20387.0,9.8317,11.431,-1.8163,-14.701
20396.0,16.832,18.431,-1.8163,-14.701
20406.0,18.832,20.431,-1.8163,-14.701
20416.0,20.832,22.431,-4.8163,-14.701
20426.0,18.832,22.431,-4.8163,-14.701
20436.0,17.832,23.431,-6.8163,-13.701
20446.0,15.832,21.431,-6.8163,-13.701
20456.0,15.832,23.431,-8.8163,-14.701
20466.0,14.832,22.431,-8.8163,-14.701
20475.0,12.832,22.431,-11.816,-16.701
20485.0,9.8317,21.431,-11.816,-16.701
20495.0,7.8317,20.431,-10.816,-14.701
20505.0,6.8317,18.431,-10.816,-14.701
20515.0,3.8317,18.431,-12.816,-16.701
20525.0,0.83167,14.431,-12.816,-16.701
20535.0,-5.1683,11.431,-11.816,-16.701
20545.0,-9.1683,7.4305,-12.816,-16.701
20555.0,-13.168,5.4305,-11.816,-16.701
20564.0,-12.168,6.4305,-12.816,-14.701
20574.0,-12.168,5.4305,-14.816,-15.701
20584.0,-12.168,5.4305,-14.816,-14.701
20594.0,-10.168,7.4305,-13.816,-15.701
20604.0,-10.168,7.4305,-11.816,-15.701
20614.0,-10.168,7.4305,-13.816,-16.701
20624.0,-10.168,7.4305,-14.816,-16.701
20634.0,-13.168,5.4305,-14.816,-15.701
20644.0,-13.168,5.4305,-12.816,-17.701
20653.0,-14.168,3.4305,-14.816,-16.701
20663.0,-14.168,3.4305,-14.816,-17.701
20673.0,-18.168,1.4305,-13.816,-17.701
20683.0,-18.168,1.4305,-15.816,-16.701
20693.0,-19.168,0.4305,-13.816,-16.701
20703.0,-19.168,0.4305,-13.816,-17.701
20713.0,-21.168,-0.5695,-14.816,-16.701
20723.0,-21.168,-0.5695,-12.816,-16.701
20733.0,-19.168,-1.5695,-12.816,-17.701
20742.0,-21.168,-2.5695,-12.816,-15.701
20752.0,-22.168,-3.5695,-12.816,-17.701
20762.0,-21.168,-4.5695,-15.816,-17.701
20772.0,-21.168,-4.5695,-14.816,-17.701
20782.0,-22.168,-5.5695,-13.816,-19.701
20792.0,-21.168,-6.5695,-13.816,-17.701
20802.0,-22.168,-6.5695,-12.816,-16.701
20812.0,-23.168,-7.5695,-10.816,-16.701
20821.0,-22.168,-6.5695,-12.816,-17.701
20831.0,-21.168,-7.5695,-11.816,-16.701
20841.0,-21.168,-8.5695,-10.816,-16.701
20851.0,-20.168,-8.5695,-9.8163,-17.701
20861.0,-19.168,-8.5695,-8.8163,-17.701
20871.0,-16.168,-9.5695,-10.816,-17.701
20881.0,-19.168,-8.5695,-9.8163,-16.701
20891.0,-15.168,-9.5695,-7.8163,-16.701
20901.0,-13.168,-10.569,-9.8163,-16.701
20910.0,-13.168,-8.5695,-7.8163,-16.701
20920.0,-12.168,-8.5695,-5.8163,-16.701
20930.0,-13.168,-8.5695,-7.8163,-15.701
20940.0,-11.168,-9.5695,-6.8163,-16.701
20950.0,-12.168,-11.569,-4.8163,-16.701
20960.0,-11.168,-10.569,-4.8163,-15.701
20970.0,-9.1683,-10.569,-5.8163,-16.701
20980.0,-8.1683,-9.5695,-7.8163,-15.701
20990.0,-5.1683,-7.5695,-3.8163,-16.701
20999.0,-1.1683,-2.5695,-4.8163,-14.701
21009.0,10.832,6.4305,-2.8163,-16.701
21019.0,23.832,17.431,-3.8163,-17.701
21029.0,34.832,27.431,-2.8163,-16.701
21039.0,43.832,37.431,-3.8163,-15.701
21049.0,50.832,40.431,-0.81625,-14.701
21059.0,50.832,43.431,-2.8163,-15.701
21069.0,51.832,44.431,-4.8163,-14.701
21079.0,48.832,43.431,-4.8163,-14.701
21088.0,49.832,43.431,-5.8163,-15.701
21098.0,47.832,43.431,-5.8163,-15.701
21108.0,47.832,44.431,-8.8163,-15.701
21118.0,45.832,44.431,-9.8163,-15.701
21128.0,43.832,42.431,-9.8163,-17.701
21138.0,39.832,42.431,-11.816,-17.701
21148.0,38.832,41.431,-12.816,-17.701
21158.0,37.832,41.431,-13.816,-17.701
21167.0,32.832,39.431,-13.816,-16.701
21177.0,31.832,36.431,-13.816,-18.701
21187.0,25.832,32.431,-14.816,-17.701
21197.0,20.832,29.431,-14.816,-17.701
21207.0,14.832,25.431,-14.816,-17.701
21217.0,14.832,24.431,-15.816,-17.701
21227.0,12.832,25.431,-14.816,-18.701
21237.0,12.832,25.431,-14.816,-17.701
21247.0,13.832,26.431,-14.816,-17.701
21256.0,15.832,27.431,-14.816,-18.701
21266.0,14.832,26.431,-17.816,-18.701
21276.0,10.832,24.431,-15.816,-18.701
21286.0,10.832,24.431,-13.816,-18.701
21296.0,10.832,24.431,-14.816,-18.701
21306.0,9.8317,20.431,-15.816,-18.701
21316.0,9.8317,20.431,-14.816,-18.701
21326.0,6.8317,19.431,-16.816,-19.701
21336.0,6.8317,19.431,-14.816,-18.701
21345.0,3.8317,17.431,-15.816,-18.701
21355.0,3.8317,17.431,-15.816,-18.701
21365.0,2.8317,16.431,-15.816,-18.701
21375.0,2.8317,16.431,-15.816,-18.701
21385.0,0.83167,12.431,-18.816,-18.701
21395.0,0.83167,12.431,-18.816,-18.701
21405.0,-0.16833,10.431,-18.816,-19.701
21415.0,-0.16833,10.431,-18.816,-19.701
21424.0,0.83167,11.431,-16.816,-19.701
21434.0,0.83167,11.431,-16.816,-19.701
21444.0,-2.1683,11.431,-14.816,-18.701
21454.0,-1.1683,7.4305,-14.816,-18.701
21464.0,-1.1683,7.4305,-16.816,-18.701
21474.0,0.83167,8.4305,-16.816,-18.701
21484.0,0.83167,6.4305,-12.816,-18.701
21494.0,1.8317,7.4305,-12.816,-18.701
21504.0,1.8317,5.4305,-13.816,-18.701
21513.0,4.8317,6.4305,-13.816,-18.701
21523.0,4.8317,6.4305,-12.816,-18.701
21533.0,3.8317,5.4305,-12.816,-18.701
21543.0,5.8317,5.4305,-12.816,-18.701
21553.0,5.8317,3.4305,-12.816,-18.701
21563.0,2.8317,3.4305,-12.816,-18.701
21573.0,6.8317,2.4305,-12.816,-17.701
21583.0,6.8317,4.4305,-11.816,-18.701
21593.0,8.8317,1.4305,-11.816,-16.701
21602.0,6.8317,2.4305,-11.816,-16.701
21612.0,8.8317,1.4305,-11.816,-17.701
21622.0,11.832,2.4305,-10.816,-18.701
21632.0,11.832,3.4305,-9.8163,-18.701
21642.0,13.832,5.4305,-8.8163,-18.701
21652.0,19.832,10.431,-9.8163,-19.701
21662.0,32.832,20.431,-7.8163,-17.701
21672.0,43.832,29.431,-6.8163,-17.701
21682.0,52.832,39.431,-6.8163,-16.701
21691.0,62.832,46.431,-5.8163,-17.701
21701.0,67.832,51.431,-4.8163,-16.701
21711.0,69.832,54.431,-4.8163,-16.701
21721.0,67.832,55.431,-6.8163,-16.701
21731.0,66.832,54.431,-7.8163,-16.701
21741.0,66.832,54.431,-7.8163,-16.701
21751.0,67.832,54.431,-8.8163,-18.701
21761.0,63.832,54.431,-11.816,-18.701
21770.0,62.832,55.431,-12.816,-16.701
21780.0,61.832,54.431,-12.816,-17.701
21790.0,59.832,53.431,-11.816,-17.701
21800.0,55.832,51.431,-13.816,-17.701
21810.0,52.832,49.431,-13.816,-18.701
21820.0,50.832,46.431,-13.816,-19.701
21830.0,45.832,45.431,-15.816,-19.701
21840.0,41.832,40.431,-16.816,-17.701
21850.0,34.832,36.431,-16.816,-17.701
21859.0,32.832,35.431,-15.816,-18.701
21869.0,31.832,33.431,-18.816,-19.701
21879.0,30.832,33.431,-17.816,-19.701
21889.0,30.832,33.431,-17.816,-19.701
21899.0,29.832,34.431,-19.816,-19.701
21909.0,31.832,33.431,-17.816,-18.701
21919.0,28.832,32.431,-17.816,-19.701
21929.0,27.832,30.431,-17.816,-19.701
21939.0,24.832,30.431,-17.816,-19.701
21948.0,22.832,29.431,-18.816,-19.701
21958.0,22.832,28.431,-17.816,-19.701
21968.0,20.832,25.431,-19.816,-20.701
21978.0,20.832,25.431,-19.816,-19.701
21988.0,17.832,23.431,-18.816,-18.701
21998.0,15.832,23.431,-18.816,-20.701
22008.0,17.832,21.431,-16.816,-17.701
22018.0,14.832,19.431,-17.816,-20.701
22028.0,14.832,19.431,-17.816,-19.701
22037.0,13.832,18.431,-19.816,-19.701
22047.0,13.832,18.431,-18.816,-19.701
22057.0,12.832,15.431,-18.816,-19.701
22067.0,12.832,15.431,-15.816,-20.701
22077.0,10.832,14.431,-16.816,-20.701
22087.0,10.832,14.431,-15.816,-19.701
22097.0,9.8317,12.431,-16.816,-20.701
22107.0,9.8317,12.431,-17.816,-19.701
22116.0,9.8317,10.431,-15.816,-20.701
22126.0,9.8317,10.431,-16.816,-20.701
22136.0,11.832,10.431,-15.816,-20.701
22146.0,11.832,10.431,-15.816,-20.701
22156.0,12.832,9.4305,-15.816,-18.701
22166.0,13.832,9.4305,-15.816,-19.701
22176.0,15.832,9.4305,-12.816,-19.701
22186.0,14.832,10.431,-12.816,-19.701
22196.0,16.832,9.4305,-12.816,-17.701
22205.0,16.832,7.4305,-12.816,-19.701
22215.0,16.832,8.4305,-11.816,-17.701
22225.0,17.832,7.4305,-12.816,-18.701
22235.0,18.832,7.4305,-10.816,-17.701
22245.0,18.832,6.4305,-8.8163,-18.701
22255.0,16.832,5.4305,-7.8163,-18.701
22265.0,19.832,4.4305,-8.8163,-18.701
22275.0,19.832,5.4305,-9.8163,-18.701
22285.0,23.832,7.4305,-7.8163,-18.701
22294.0,24.832,8.4305,-6.8163,-17.701
22304.0,30.832,13.431,-7.8163,-18.701
22314.0,42.832,22.431,-6.8163,-17.701
22324.0,54.832,32.431,-4.8163,-17.701
22334.0,63.832,42.431,-4.8163,-17.701
22344.0,70.832,47.431,-4.8163,-16.701
22354.0,74.832,51.431,-4.8163,-16.701
22364.0,79.832,54.431,-4.8163,-17.701
22374.0,78.832,55.431,-5.8163,-17.701
22383.0,76.832,53.431,-8.8163,-17.701
22393.0,74.832,54.431,-8.8163,-17.701
22403.0,73.832,53.431,-8.8163,-17.701
22413.0,71.832,53.431,-11.816,-17.701
22423.0,70.832,54.431,-11.816,-17.701
22433.0,69.832,52.431,-11.816,-18.701
22443.0,67.832,52.431,-11.816,-18.701
22453.0,64.832,49.431,-11.816,-16.701
22462.0,61.832,49.431,-11.816,-16.701
22472.0,57.832,45.431,-13.816,-18.701
22482.0,54.832,43.431,-13.816,-18.701
22492.0,51.832,40.431,-14.816,-17.701
22502.0,43.832,36.431,-14.816,-17.701
22512.0,43.832,34.431,-12.816,-16.701
22522.0,42.832,34.431,-12.816,-16.701
22532.0,44.832,35.431,-12.816,-16.701
22542.0,45.832,36.431,-12.816,-16.701
22551.0,45.832,36.431,-12.816,-18.701
22561.0,46.832,35.431,-12.816,-18.701
22571.0,43.832,34.431,-12.816,-17.701
22581.0,41.832,35.431,-12.816,-17.701
22591.0,42.832,32.431,-11.816,-18.701
22601.0,41.832,32.431,-11.816,-18.701
22611.0,39.832,30.431,-11.816,-18.701
22621.0,39.832,28.431,-11.816,-18.701
22631.0,39.832,28.431,-9.8163,-16.701
22640.0,36.832,28.431,-9.8163,-16.701
22650.0,36.832,26.431,-9.8163,-16.701
22660.0,36.832,27.431,-7.8163,-16.701
22670.0,34.832,25.431,-8.8163,-17.701
22680.0,35.832,24.431,-11.816,-17.701
22690.0,32.832,23.431,-9.8163,-18.701
22700.0,33.832,21.431,-10.816,-18.701
22710.0,31.832,21.431,-10.816,-18.701
22720.0,31.832,19.431,-9.8163,-18.701
22729.0,33.832,19.431,-9.8163,-17.701
22739.0,33.832,19.431,-9.8163,-17.701
22749.0,31.832,17.431,-10.816,-18.701
22759.0,31.832,17.431,-8.8163,-19.701
22769.0,30.832,15.431,-9.8163,-17.701
22779.0,30.832,15.431,-10.816,-18.701
22789.0,34.832,15.431,-6.8163,-18.701
22799.0,34.832,15.431,-7.8163,-18.701
22808.0,32.832,15.431,-6.8163,-18.701
22818.0,32.832,15.431,-4.8163,-17.701
22828.0,33.832,13.431,-5.8163,-17.701
22838.0,33.832,13.431,-6.8163,-18.701
22848.0,32.832,11.431,-4.8163,-18.701
22858.0,32.832,11.431,-5.8163,-17.701
22868.0,33.832,8.4305,-4.8163,-16.701
22878.0,33.832,8.4305,-3.8163,-17.701
22888.0,34.832,8.4305,-2.8163,-16.701
22897.0,33.832,8.4305,-2.8163,-18.701
22907.0,34.832,8.4305,-2.8163,-17.701
22917.0,36.832,9.4305,-2.8163,-17.701
22927.0,37.832,9.4305,-1.8163,-16.701
22937.0,38.832,10.431,-2.8163,-16.701
22947.0,43.832,13.431,-0.81625,-16.701
22957.0,51.832,20.431,-0.81625,-17.701
22967.0,62.832,29.431,1.1837,-16.701
22977.0,70.832,38.431,1.1837,-15.701
22986.0,80.832,44.431,0.18375,-15.701
22996.0,83.832,48.431,2.1837,-15.701
23006.0,85.832,51.431,1.1837,-15.701
23016.0,84.832,52.431,0.18375,-15.701
23026.0,83.832,51.431,-0.81625,-15.701
23036.0,80.832,51.431,1.1837,-14.701
23046.0,78.832,50.431,-1.8163,-15.701
23056.0,75.832,48.431,-0.81625,-16.701
23066.0,71.832,47.431,-2.8163,-15.701
23075.0,70.832,46.431,-1.8163,-15.701
23085.0,69.832,44.431,-2.8163,-15.701
23095.0,64.832,42.431,-2.8163,-15.701
23105.0,61.832,41.431,-3.8163,-16.701
23115.0,60.832,37.431,-5.8163,-17.701
23125.0,54.832,36.431,-4.8163,-16.701
23135.0,50.832,31.431,-5.8163,-15.701
23145.0,44.832,26.431,-3.8163,-15.701
23154.0,41.832,26.431,-3.8163,-17.701
23164.0,41.832,26.431,-3.8163,-16.701
23174.0,40.832,26.431,-3.8163,-16.701
23184.0,43.832,27.431,-1.8163,-16.701
23194.0,42.832,28.431,-3.8163,-16.701
23204.0,41.832,25.431,-1.8163,-16.701
23214.0,41.832,26.431,-1.8163,-16.701
23224.0,38.832,24.431,-2.8163,-16.701
23234.0,37.832,22.431,-2.8163,-17.701
23243.0,34.832,21.431,-3.8163,-17.701
23253.0,35.832,21.431,-1.8163,-16.701
23263.0,32.832,20.431,-0.81625,-17.701
23273.0,32.832,17.431,-1.8163,-15.701
23283.0,30.832,16.431,-1.8163,-16.701
23293.0,29.832,16.431,-1.8163,-16.701
23303.0,28.832,14.431,1.1837,-15.701
23313.0,26.832,12.431,1.1837,-15.701
23323.0,25.832,11.431,1.1837,-14.701
23332.0,24.832,10.431,0.18375,-15.701
23342.0,22.832,10.431,0.18375,-15.701
23352.0,24.832,9.4305,1.1837,-16.701
23362.0,23.832,6.4305,0.18375,-15.701
23372.0,22.832,8.4305,0.18375,-14.701
23382.0,22.832,7.4305,2.1837,-15.701
23392.0,23.832,6.4305,1.1837,-14.701
23402.0,24.832,6.4305,4.1837,-14.701
23412.0,22.832,5.4305,4.1837,-14.701
23421.0,24.832,5.4305,6.1837,-14.701
23431.0,24.832,4.4305,5.1837,-14.701
23441.0,24.832,3.4305,5.1837,-13.701
23451.0,24.832,3.4305,5.1837,-13.701
23461.0,22.832,2.4305,7.1837,-13.701
23471.0,22.832,2.4305,7.1837,-13.701
23481.0,23.832,2.4305,7.1837,-13.701
23491.0,23.832,2.4305,7.1837,-13.701
23500.0,25.832,1.4305,9.1837,-13.701
23510.0,25.832,1.4305,9.1837,-13.701
23520.0,26.832,0.4305,11.184,-12.701
23530.0,26.832,0.4305,11.184,-12.701
23540.0,24.832,-1.5695,11.184,-12.701
23550.0,24.832,-1.5695,11.184,-12.701
23560.0,28.832,-0.5695,12.184,-12.701
23570.0,28.832,-0.5695,12.184,-12.701
23580.0,36.832,4.4305,12.184,-13.701
23589.0,36.832,4.4305,12.184,-13.701
23599.0,42.832,11.431,13.184,-12.701
23609.0,52.832,18.431,13.184,-12.701
23619.0,62.832,27.431,14.184,-12.701
23629.0,69.832,35.431,14.184,-12.701
23639.0,74.832,38.431,14.184,-13.701
23649.0,77.832,41.431,14.184,-13.701
23659.0,77.832,42.431,14.184,-12.701
23669.0,75.832,41.431,14.184,-11.701
23678.0,73.832,40.431,14.184,-12.701
23688.0,71.832,39.431,11.184,-12.701
23698.0,68.832,39.431,11.184,-13.701
23708.0,68.832,37.431,10.184,-12.701
23718.0,64.832,36.431,9.1837,-12.701
23728.0,62.832,35.431,8.1837,-12.701
23738.0,59.832,32.431,8.1837,-12.701
23748.0,57.832,33.431,8.1837,-12.701
23758.0,53.832,30.431,8.1837,-11.701
23767.0,49.832,28.431,7.1837,-13.701
23777.0,48.832,23.431,9.1837,-11.701
23787.0,42.832,20.431,9.1837,-11.701
23797.0,43.832,20.431,8.1837,-11.701
23807.0,41.832,21.431,8.1837,-11.701
23817.0,42.832,22.431,8.1837,-11.701
23827.0,43.832,21.431,9.1837,-10.701
23837.0,43.832,23.431,9.1837,-13.701
23846.0,44.832,21.431,8.1837,-12.701
23856.0,44.832,22.431,8.1837,-13.701
23866.0,42.832,21.431,11.184,-12.701
23876.0,41.832,21.431,10.184,-12.701
23886.0,40.832,20.431,10.184,-12.701
23896.0,39.832,19.431,10.184,-10.701
23906.0,37.832,20.431,11.184,-10.701
23916.0,38.832,18.431,12.184,-12.701
23926.0,38.832,17.431,12.184,-11.701
23935.0,35.832,15.431,11.184,-11.701
23945.0,35.832,13.431,11.184,-13.701
23955.0,34.832,15.431,11.184,-11.701
23965.0,35.832,14.431,12.184,-11.701
23975.0,33.832,14.431,9.1837,-11.701
23985.0,33.832,13.431,10.184,-12.701
23995.0,33.832,11.431,15.184,-10.701
24005.0,34.832,13.431,14.184,-10.701
24015.0,34.832,11.431,14.184,-10.701
24024.0,31.832,11.431,12.184,-11.701
24034.0,35.832,12.431,13.184,-12.701
24044.0,37.832,12.431,14.184,-11.701
24054.0,38.832,12.431,12.184,-12.701
24064.0,37.832,11.431,13.184,-11.701
24074.0,37.832,12.431,15.184,-11.701
24084.0,39.832,11.431,14.184,-10.701
24094.0,41.832,11.431,16.184,-12.701
24104.0,41.832,11.431,15.184,-11.701
24113.0,41.832,11.431,16.184,-10.701
24123.0,43.832,11.431,16.184,-11.701
24133.0,44.832,10.431,16.184,-11.701
24143.0,44.832,9.4305,18.184,-10.701
24153.0,44.832,9.4305,17.184,-10.701
24163.0,47.832,10.431,19.184,-10.701
24173.0,48.832,9.4305,20.184,-9.7007
24183.0,48.832,9.4305,20.184,-9.7007
24192.0,52.832,13.431,20.184,-9.7007
24202.0,52.832,13.431,21.184,-10.701
24212.0,65.832,27.431,21.184,-8.7007
24222.0,65.832,27.431,21.184,-9.7007
24232.0,85.832,40.431,24.184,-8.7007
24242.0,85.832,40.431,25.184,-8.7007
24252.0,100.83,53.431,25.184,-8.7007
24262.0,100.83,53.431,25.184,-8.7007
24272.0,102.83,58.431,24.184,-8.7007
24281.0,102.83,58.431,25.184,-8.7007
24291.0,101.83,58.431,22.184,-8.7007
24301.0,101.83,58.431,21.184,-8.7007
24311.0,99.832,57.431,20.184,-7.7007
24321.0,94.832,56.431,20.184,-7.7007
24331.0,95.832,56.431,19.184,-8.7007
24341.0,93.832,56.431,19.184,-9.7007
24351.0,90.832,54.431,18.184,-8.7007
24361.0,89.832,52.431,18.184,-8.7007
24370.0,86.832,52.431,17.184,-8.7007
24380.0,83.832,49.431,19.184,-8.7007
24390.0,80.832,46.431,17.184,-7.7007
24400.0,75.832,43.431,17.184,-8.7007
24410.0,72.832,37.431,16.184,-8.7007
24420.0,70.832,38.431,16.184,-9.7007
24430.0,69.832,39.431,16.184,-10.701
24440.0,70.832,38.431,17.184,-9.7007
24450.0,73.832,39.431,18.184,-8.7007
24459.0,72.832,41.431,15.184,-9.7007
24469.0,74.832,40.431,18.184,-8.7007
24479.0,73.832,39.431,18.184,-8.7007
24489.0,71.832,40.431,17.184,-9.7007
24499.0,71.832,38.431,17.184,-9.7007
24509.0,69.832,37.431,15.184,-8.7007
24519.0,68.832,36.431,15.184,-8.7007
24529.0,68.832,35.431,17.184,-8.7007
24538.0,65.832,33.431,17.184,-8.7007
24548.0,64.832,35.431,16.184,-9.7007
24558.0,65.832,34.431,16.184,-9.7007
24568.0,63.832,33.431,16.184,-9.7007
24578.0,63.832,32.431,16.184,-9.7007
24588.0,63.832,32.431,14.184,-10.701
24598.0,64.832,32.431,14.184,-10.701
24608.0,61.832,29.431,15.184,-9.7007
24618.0,61.832,30.431,15.184,-9.7007
24627.0,60.832,28.431,15.184,-10.701
24637.0,61.832,27.431,15.184,-10.701
24647.0,60.832,28.431,15.184,-10.701
24657.0,61.832,28.431,15.184,-10.701
24667.0,62.832,27.431,15.184,-9.7007
24677.0,62.832,27.431,15.184,-9.7007
24687.0,61.832,27.431,16.184,-10.701
24697.0,61.832,26.431,16.184,-10.701
24707.0,63.832,26.431,18.184,-9.7007
24716.0,64.832,25.431,17.184,-9.7007
24726.0,62.832,26.431,17.184,-10.701
24736.0,65.832,26.431,18.184,-9.7007
24746.0,66.832,24.431,20.184,-8.7007
24756.0,66.832,25.431,19.184,-9.7007
24766.0,65.832,26.431,20.184,-9.7007
24776.0,65.832,23.431,19.184,-8.7007
24786.0,67.832,24.431,19.184,-9.7007
24796.0,69.832,23.431,20.184,-8.7007
24805.0,70.832,25.431,21.184,-10.701
24815.0,72.832,27.431,20.184,-8.7007
24825.0,79.832,34.431,22.184,-8.7007
24835.0,92.832,44.431,22.184,-8.7007
24845.0,100.83,53.431,21.184,-9.7007
24855.0,111.83,62.431,21.184,-7.7007
24865.0,117.83,66.431,22.184,-8.7007
24875.0,120.83,69.431,20.184,-9.7007
24884.0,121.83,71.431,22.184,-8.7007
24894.0,121.83,71.431,19.184,-8.7007
24904.0,119.83,73.431,18.184,-10.701
24914.0,119.83,73.431,20.184,-9.7007
24924.0,115.83,72.431,16.184,-10.701
24934.0,115.83,72.431,16.184,-9.7007
24944.0,112.83,70.431,14.184,-10.701
24954.0,112.83,70.431,13.184,-11.701
24964.0,107.83,69.431,13.184,-10.701
24973.0,107.83,69.431,12.184,-10.701
24983.0,101.83,65.431,10.184,-10.701
24993.0,101.83,65.431,9.1837,-11.701
25003.0,93.832,59.431,9.1837,-12.701
25013.0,93.832,59.431,8.1837,-13.701
25023.0,85.832,50.431,8.1837,-12.701
25033.0,85.832,50.431,8.1837,-11.701
25043.0,82.832,49.431,9.1837,-13.701
25053.0,80.832,49.431,8.1837,-11.701
25062.0,81.832,49.431,8.1837,-12.701
25072.0,81.832,49.431,7.1837,-12.701
25082.0,82.832,51.431,6.1837,-12.701
25092.0,80.832,49.431,6.1837,-11.701
25102.0,79.832,49.431,7.1837,-13.701
25112.0,79.832,48.431,4.1837,-14.701
25122.0,75.832,45.431,7.1837,-13.701
25132.0,73.832,45.431,7.1837,-12.701
25142.0,72.832,43.431,4.1837,-13.701
25151.0,71.832,44.431,5.1837,-12.701
25161.0,70.832,40.431,3.1837,-13.701
25171.0,68.832,39.431,4.1837,-14.701
25181.0,68.832,41.431,4.1837,-13.701
25191.0,67.832,39.431,4.1837,-13.701
25201.0,65.832,38.431,4.1837,-15.701
25211.0,63.832,36.431,5.1837,-15.701
25221.0,62.832,35.431,2.1837,-15.701
25230.0,64.832,36.431,5.1837,-13.701
25240.0,61.832,35.431,5.1837,-14.701
25250.0,60.832,32.431,6.1837,-14.701
25260.0,60.832,32.431,4.1837,-13.701
25270.0,60.832,32.431,2.1837,-15.701
25280.0,59.832,29.431,4.1837,-15.701
25290.0,60.832,29.431,4.1837,-15.701
25300.0,61.832,30.431,5.1837,-14.701
25310.0,61.832,29.431,4.1837,-15.701
25319.0,60.832,28.431,7.1837,-14.701
25329.0,60.832,28.431,4.1837,-14.701
25339.0,61.832,28.431,5.1837,-14.701
25349.0,61.832,26.431,4.1837,-14.701
25359.0,62.832,28.431,3.1837,-14.701
25369.0,61.832,26.431,5.1837,-15.701
25379.0,62.832,26.431,6.1837,-15.701
25389.0,61.832,24.431,6.1837,-15.701
25399.0,61.832,23.431,5.1837,-14.701
25408.0,60.832,24.431,7.1837,-15.701
25418.0,64.832,24.431,7.1837,-14.701
25428.0,66.832,25.431,7.1837,-15.701
25438.0,68.832,28.431,7.1837,-14.701
25448.0,76.832,36.431,6.1837,-17.701
25458.0,86.832,43.431,8.1837,-15.701
25468.0,95.832,51.431,8.1837,-14.701
25478.0,102.83,59.431,8.1837,-14.701
25488.0,109.83,63.431,9.1837,-14.701
25497.0,110.83,65.431,9.1837,-13.701
25507.0,110.83,66.431,9.1837,-13.701
25517.0,108.83,67.431,7.1837,-13.701
25527.0,108.83,67.431,5.1837,-14.701
25537.0,106.83,67.431,5.1837,-14.701
25547.0,103.83,65.431,4.1837,-15.701
25557.0,101.83,65.431,3.1837,-14.701
25567.0,101.83,64.431,2.1837,-14.701
25576.0,98.832,63.431,-0.81625,-15.701
25586.0,96.832,62.431,-0.81625,-15.701
25596.0,92.832,60.431,-1.8163,-16.701
25606.0,92.832,60.431,-1.8163,-16.701
25616.0,85.832,55.431,-2.8163,-16.701
25626.0,85.832,55.431,-2.8163,-16.701
25636.0,73.832,47.431,-5.8163,-16.701
25646.0,73.832,47.431,-5.8163,-16.701
25656.0,68.832,44.431,-4.8163,-16.701
25665.0,68.832,44.431,-4.8163,-16.701
25675.0,66.832,43.431,-5.8163,-18.701
25685.0,66.832,43.431,-5.8163,-18.701
25695.0,68.832,45.431,-6.8163,-18.701
25705.0,68.832,45.431,-6.8163,-18.701
25715.0,66.832,43.431,-7.8163,-19.701
25725.0,66.832,43.431,-7.8163,-19.701
25735.0,60.832,40.431,-8.8163,-20.701
25745.0,60.832,40.431,-8.8163,-20.701
25754.0,57.832,39.431,-7.8163,-19.701
25764.0,56.832,37.431,-8.8163,-19.701
25774.0,56.832,35.431,-8.8163,-20.701
25784.0,53.832,35.431,-8.8163,-19.701
25794.0,54.832,34.431,-8.8163,-20.701
25804.0,50.832,33.431,-10.816,-19.701
25814.0,50.832,32.431,-10.816,-20.701
25824.0,49.832,30.431,-8.8163,-20.701
25834.0,49.832,29.431,-10.816,-20.701
25843.0,46.832,28.431,-9.8163,-20.701
25853.0,47.832,26.431,-10.816,-20.701
25863.0,44.832,26.431,-11.816,-20.701
25873.0,45.832,25.431,-11.816,-22.701
25883.0,44.832,24.431,-11.816,-21.701
25893.0,44.832,24.431,-10.816,-21.701
25903.0,45.832,23.431,-10.816,-21.701
25913.0,43.832,23.431,-10.816,-22.701
25922.0,45.832,21.431,-10.816,-21.701
25932.0,43.832,21.431,-10.816,-21.701
25942.0,44.832,21.431,-10.816,-22.701
25952.0,42.832,21.431,-11.816,-21.701
25962.0,45.832,18.431,-12.816,-23.701
25972.0,42.832,19.431,-9.8163,-21.701
25982.0,43.832,17.431,-11.816,-21.701
25992.0,42.832,16.431,-11.816,-22.701
26002.0,39.832,15.431,-9.8163,-22.701
26011.0,41.832,13.431,-10.816,-21.701
26021.0,41.832,12.431,-8.8163,-22.701
26031.0,41.832,13.431,-9.8163,-21.701
26041.0,43.832,14.431,-9.8163,-22.701
26051.0,43.832,14.431,-8.8163,-21.701
26061.0,49.832,20.431,-7.8163,-20.701
26071.0,57.832,27.431,-6.8163,-22.701
26081.0,64.832,35.431,-6.8163,-21.701
26091.0,72.832,40.431,-5.8163,-21.701
26100.0,79.832,46.431,-4.8163,-20.701
26110.0,81.832,49.431,-4.8163,-19.701
26120.0,80.832,50.431,-6.8163,-21.701
26130.0,79.832,49.431,-6.8163,-20.701
26140.0,76.832,48.431,-7.8163,-20.701
26150.0,73.832,49.431,-8.8163,-20.701
26160.0,73.832,47.431,-8.8163,-20.701
26170.0,71.832,47.431,-9.8163,-20.701
26180.0,68.832,46.431,-11.816,-21.701
26189.0,65.832,46.431,-12.816,-21.701
26199.0,64.832,43.431,-14.816,-20.701
26209.0,59.832,39.431,-12.816,-22.701
26219.0,54.832,39.431,-13.816,-21.701
26229.0,52.832,36.431,-14.816,-22.701
26239.0,47.832,32.431,-15.816,-22.701
26249.0,40.832,27.431,-15.816,-21.701
26259.0,34.832,21.431,-15.816,-21.701
26268.0,32.832,23.431,-16.816,-23.701
26278.0,32.832,21.431,-16.816,-23.701
26288.0,31.832,23.431,-17.816,-22.701
26298.0,31.832,22.431,-19.816,-23.701
26308.0,30.832,22.431,-16.816,-23.701
26318.0,30.832,22.431,-16.816,-23.701
26328.0,27.832,19.431,-18.816,-24.701
26338.0,27.832,19.431,-17.816,-23.701
26348.0,23.832,16.431,-17.816,-25.701
26357.0,23.832,16.431,-15.816,-23.701
26367.0,20.832,14.431,-16.816,-23.701
26377.0,20.832,14.431,-16.816,-23.701
26387.0,18.832,11.431,-16.816,-23.701
26397.0,18.832,11.431,-15.816,-24.701
26407.0,12.832,9.4305,-16.816,-23.701
26417.0,12.832,9.4305,-15.816,-23.701
26427.0,9.8317,5.4305,-13.816,-22.701
26437.0,9.8317,5.4305,-14.816,-23.701
26446.0,6.8317,1.4305,-12.816,-22.701
26456.0,6.8317,1.4305,-14.816,-23.701
26466.0,4.8317,0.4305,-15.816,-23.701
26476.0,1.8317,0.4305,-14.816,-23.701
26486.0,1.8317,-1.5695,-14.816,-22.701
26496.0,1.8317,-1.5695,-14.816,-23.701
26506.0,2.8317,-2.5695,-14.816,-24.701
26516.0,0.83167,-4.5695,-12.816,-23.701
26525.0,0.83167,-5.5695,-12.816,-23.701
26535.0,1.8317,-5.5695,-12.816,-22.701
26545.0,0.83167,-5.5695,-11.816,-23.701
26555.0,-1.1683,-7.5695,-11.816,-22.701
26565.0,-1.1683,-9.5695,-10.816,-22.701
26575.0,-0.16833,-8.5695,-11.816,-22.701
26585.0,-1.1683,-9.5695,-12.816,-23.701
26595.0,-1.1683,-10.569,-12.816,-23.701
26605.0,-1.1683,-11.569,-10.816,-23.701
26614.0,-3.1683,-13.569,-10.816,-23.701
26624.0,-2.1683,-12.569,-8.8163,-22.701
26634.0,-1.1683,-13.569,-8.8163,-22.701
26644.0,-0.16833,-12.569,-7.8163,-21.701
26654.0,1.8317,-12.569,-7.8163,-21.701
26664.0,1.8317,-10.569,-8.8163,-21.701
26674.0,8.8317,-5.5695,-8.8163,-21.701
26684.0,15.832,1.4305,-8.8163,-22.701
26694.0,23.832,8.4305,-8.8163,-22.701
26703.0,32.832,15.431,-6.8163,-23.701
26713.0,37.832,20.431,-6.8163,-23.701
26723.0,38.832,21.431,-5.8163,-22.701
26733.0,39.832,23.431,-5.8163,-22.701
26743.0,38.832,25.431,-7.8163,-21.701
26753.0,36.832,23.431,-7.8163,-21.701
26763.0,34.832,21.431,-8.8163,-21.701
26773.0,33.832,22.431,-8.8163,-21.701
26783.0,31.832,20.431,-10.816,-23.701
26792.0,32.832,20.431,-10.816,-23.701
26802.0,28.832,19.431,-12.816,-22.701
26812.0,25.832,19.431,-13.816,-23.701
26822.0,22.832,16.431,-15.816,-24.701
26832.0,20.832,16.431,-14.816,-23.701
26842.0,13.832,11.431,-16.816,-24.701
26852.0,10.832,7.4305,-17.816,-23.701
26862.0,3.8317,2.4305,-17.816,-25.701
26871.0,3.8317,0.4305,-17.816,-24.701
26881.0,0.83167,0.4305,-20.816,-24.701
26891.0,-0.16833,1.4305,-18.816,-24.701
26901.0,2.8317,4.4305,-18.816,-23.701
26911.0,3.8317,5.4305,-18.816,-24.701
26921.0,5.8317,5.4305,-17.816,-24.701
26931.0,2.8317,3.4305,-18.816,-25.701
26941.0,3.8317,5.4305,-18.816,-26.701
26951.0,1.8317,5.4305,-17.816,-25.701
26960.0,0.83167,0.4305,-15.816,-24.701
26970.0,-0.16833,1.4305,-17.816,-27.701
26980.0,-1.1683,0.4305,-18.816,-25.701
26990.0,-3.1683,0.4305,-17.816,-25.701
27000.0,-5.1683,-0.5695,-18.816,-26.701
27010.0,-3.1683,0.4305,-18.816,-25.701
27020.0,-4.1683,-1.5695,-16.816,-24.701
27030.0,-7.1683,-0.5695,-17.816,-25.701
27040.0,-8.1683,-0.5695,-17.816,-24.701
27049.0,-8.1683,-0.5695,-17.816,-24.701
27059.0,-9.1683,-3.5695,-18.816,-23.701
27069.0,-9.1683,-3.5695,-16.816,-24.701
27079.0,-9.1683,-4.5695,-16.816,-23.701
27089.0,-9.1683,-4.5695,-16.816,-25.701
27099.0,-8.1683,-4.5695,-17.816,-25.701
27109.0,-8.1683,-4.5695,-17.816,-25.701
27119.0,-7.1683,-4.5695,-15.816,-25.701
27129.0,-7.1683,-4.5695,-16.816,-25.701
27138.0,-6.1683,-3.5695,-14.816,-24.701
27148.0,-6.1683,-3.5695,-14.816,-24.701
27158.0,-5.1683,-5.5695,-13.816,-24.701
27168.0,-5.1683,-5.5695,-14.816,-25.701
27178.0,-5.1683,-3.5695,-15.816,-24.701
27188.0,-4.1683,-6.5695,-12.816,-23.701
27198.0,-5.1683,-6.5695,-10.816,-24.701
27208.0,-3.1683,-8.5695,-14.816,-24.701
27217.0,-4.1683,-7.5695,-13.816,-24.701
27227.0,-1.1683,-5.5695,-13.816,-24.701
27237.0,0.83167,-5.5695,-12.816,-24.701
27247.0,0.83167,-5.5695,-11.816,-23.701
27257.0,2.8317,-4.5695,-11.816,-22.701
27267.0,10.832,2.4305,-9.8163,-22.701
27277.0,20.832,9.4305,-9.8163,-23.701
27287.0,26.832,17.431,-8.8163,-22.701
27297.0,37.832,25.431,-8.8163,-23.701
27306.0,44.832,30.431,-5.8163,-22.701
27316.0,47.832,34.431,-6.8163,-22.701
27326.0,49.832,37.431,-7.8163,-21.701
27336.0,49.832,38.431,-8.8163,-22.701
27346.0,49.832,39.431,-8.8163,-22.701
27356.0,49.832,39.431,-8.8163,-23.701
27366.0,46.832,39.431,-12.816,-22.701
27376.0,46.832,40.431,-14.816,-24.701
27386.0,44.832,38.431,-12.816,-22.701
27395.0,43.832,38.431,-13.816,-24.701
27405.0,41.832,37.431,-15.816,-24.701
27415.0,40.832,36.431,-17.816,-24.701
27425.0,39.832,35.431,-15.816,-23.701
27435.0,36.832,32.431,-16.816,-24.701
27445.0,31.832,29.431,-18.816,-24.701
27455.0,28.832,27.431,-17.816,-25.701
27465.0,20.832,22.431,-18.816,-25.701
27475.0,21.832,22.431,-20.816,-25.701
27484.0,19.832,21.431,-20.816,-26.701
27494.0,20.832,21.431,-21.816,-25.701
27504.0,21.832,23.431,-23.816,-26.701
27514.0,22.832,23.431,-21.816,-26.701
27524.0,21.832,23.431,-22.816,-26.701
27534.0,20.832,22.431,-21.816,-26.701
27544.0,21.832,21.431,-22.816,-28.701
27554.0,19.832,21.431,-24.816,-26.701
27563.0,18.832,19.431,-22.816,-27.701
27573.0,16.832,20.431,-24.816,-27.701
27583.0,17.832,19.431,-24.816,-28.701
27593.0,13.832,17.431,-23.816,-27.701
27603.0,14.832,16.431,-26.816,-28.701
27613.0,12.832,16.431,-22.816,-28.701
27623.0,12.832,17.431,-23.816,-27.701
27633.0,11.832,16.431,-25.816,-28.701
27643.0,11.832,15.431,-26.816,-29.701
27652.0,9.8317,13.431,-24.816,-28.701
27662.0,10.832,13.431,-24.816,-28.701
27672.0,11.832,13.431,-23.816,-29.701
27682.0,10.832,14.431,-23.816,-29.701
27692.0,10.832,14.431,-24.816,-28.701
27702.0,10.832,12.431,-24.816,-28.701
27712.0,7.8317,12.431,-25.816,-29.701
27722.0,10.832,12.431,-25.816,-29.701
27732.0,12.832,11.431,-24.816,-28.701
27741.0,10.832,11.431,-24.816,-28.701
27751.0,11.832,11.431,-25.816,-29.701
27761.0,11.832,11.431,-25.816,-29.701
27771.0,13.832,10.431,-25.816,-30.701
27781.0,13.832,10.431,-25.816,-30.701
27791.0,15.832,10.431,-25.816,-30.701
27801.0,15.832,10.431,-25.816,-30.701
27811.0,14.832,10.431,-24.816,-29.701
27821.0,14.832,10.431,-24.816,-29.701
27830.0,17.832,12.431,-23.816,-29.701
27840.0,17.832,12.431,-23.816,-29.701
27850.0,24.832,16.431,-21.816,-29.701
27860.0,24.832,16.431,-21.816,-29.701
27870.0,41.832,32.431,-21.816,-28.701
27880.0,41.832,32.431,-21.816,-28.701
27890.0,60.832,47.431,-22.816,-29.701
27900.0,60.832,47.431,-22.816,-28.701
27909.0,64.832,52.431,-22.816,-28.701
27919.0,65.832,53.431,-22.816,-27.701
27929.0,63.832,55.431,-22.816,-29.701
27939.0,64.832,56.431,-23.816,-29.701
27949.0,61.832,56.431,-25.816,-30.701
27959.0,62.832,57.431,-26.816,-29.701
27969.0,62.832,59.431,-28.816,-29.701
27979.0,58.832,57.431,-30.816,-31.701
27989.0,55.832,56.431,-33.816,-31.701
27998.0,53.832,56.431,-33.816,-31.701
28008.0,51.832,55.431,-35.816,-31.701
28018.0,48.832,53.431,-35.816,-32.701
28028.0,45.832,51.431,-38.816,-33.701
28038.0,43.832,50.431,-38.816,-33.701
28048.0,37.832,46.431,-41.816,-33.701
28058.0,33.832,43.431,-42.816,-34.701
28068.0,26.832,40.431,-43.816,-33.701
28078.0,22.832,37.431,-42.816,-34.701
28087.0,22.832,37.431,-44.816,-34.701
28097.0,21.832,37.431,-47.816,-35.701
28107.0,22.832,37.431,-45.816,-35.701
28117.0,18.832,35.431,-46.816,-34.701
28127.0,17.832,35.431,-46.816,-35.701
28137.0,15.832,34.431,-48.816,-36.701
28147.0,14.832,32.431,-49.816,-36.701
28157.0,10.832,31.431,-49.816,-37.701
28167.0,9.8317,30.431,-49.816,-36.701
28176.0,8.8317,27.431,-49.816,-36.701
28186.0,5.8317,27.431,-49.816,-36.701
28196.0,5.8317,27.431,-47.816,-38.701
28206.0,3.8317,27.431,-50.816,-37.701
28216.0,2.8317,25.431,-48.816,-37.701
28226.0,-0.16833,23.431,-49.816,-38.701
28236.0,-0.16833,21.431,-51.816,-38.701
28246.0,-2.1683,20.431,-50.816,-38.701
28255.0,-2.1683,20.431,-51.816,-39.701
28265.0,-4.1683,19.431,-51.816,-38.701
28275.0,-3.1683,18.431,-52.816,-39.701
28285.0,-4.1683,18.431,-50.816,-38.701
28295.0,-4.1683,16.431,-51.816,-38.701
28305.0,-4.1683,16.431,-51.816,-39.701
28315.0,-3.1683,15.431,-51.816,-39.701
28325.0,-4.1683,15.431,-50.816,-39.701
28335.0,-4.1683,16.431,-51.816,-39.701
28344.0,-5.1683,15.431,-51.816,-39.701
28354.0,-3.1683,14.431,-51.816,-39.701
28364.0,-3.1683,12.431,-49.816,-38.701
28374.0,-3.1683,11.431,-51.816,-39.701
28384.0,-3.1683,13.431,-52.816,-39.701
28394.0,-3.1683,12.431,-53.816,-41.701
28404.0,-2.1683,9.4305,-49.816,-40.701
28414.0,-2.1683,9.4305,-52.816,-41.701
28424.0,-1.1683,10.431,-51.816,-40.701
28433.0,0.83167,10.431,-50.816,-39.701
28443.0,1.8317,11.431,-51.816,-40.701
28453.0,5.8317,15.431,-50.816,-39.701
28463.0,12.832,19.431,-49.816,-40.701
28473.0,12.832,19.431,-49.816,-39.701
28483.0,31.832,38.431,-48.816,-39.701
28493.0,31.832,38.431,-46.816,-38.701
28503.0,43.832,49.431,-48.816,-37.701
28513.0,43.832,49.431,-48.816,-38.701
28522.0,47.832,54.431,-50.816,-39.701
28532.0,47.832,54.431,-50.816,-40.701
28542.0,46.832,57.431,-53.816,-39.701
28552.0,46.832,57.431,-55.816,-40.701
28562.0,42.832,56.431,-56.816,-40.701
28572.0,42.832,56.431,-56.816,-40.701
28582.0,41.832,56.431,-57.816,-40.701
28592.0,41.832,56.431,-62.816,-42.701
28601.0,34.832,54.431,-62.816,-41.701
28611.0,34.832,54.431,-62.816,-42.701
28621.0,32.832,50.431,-65.816,-43.701
28631.0,28.832,51.431,-67.816,-43.701
28641.0,26.832,48.431,-67.816,-42.701
28651.0,22.832,46.431,-70.816,-44.701
28661.0,15.832,42.431,-69.816,-43.701
28671.0,9.8317,37.431,-69.816,-43.701
28681.0,7.8317,34.431,-69.816,-43.701
28690.0,5.8317,34.431,-69.816,-43.701
28700.0,5.8317,34.431,-72.816,-45.701
28710.0,4.8317,33.431,-72.816,-45.701
28720.0,2.8317,34.431,-75.816,-46.701
28730.0,2.8317,34.431,-75.816,-46.701
28740.0,-0.16833,31.431,-77.816,-47.701
28750.0,-2.1683,29.431,-77.816,-47.701
28760.0,-5.1683,27.431,-75.816,-46.701
28770.0,-5.1683,27.431,-75.816,-46.701
28779.0,-9.1683,26.431,-74.816,-47.701
28789.0,-9.1683,23.431,-74.816,-47.701
28799.0,-11.168,23.431,-75.816,-45.701
28809.0,-12.168,22.431,-75.816,-45.701
28819.0,-13.168,21.431,-76.816,-47.701
28829.0,-14.168,20.431,-76.816,-47.701
28839.0,-16.168,19.431,-76.816,-47.701
28849.0,-16.168,19.431,-76.816,-47.701
28859.0,-17.168,16.431,-77.816,-47.701
28868.0,-18.168,17.431,-77.816,-47.701
28878.0,-19.168,15.431,-76.816,-48.701
28888.0,-20.168,13.431,-76.816,-48.701
28898.0,-20.168,12.431,-76.816,-47.701
28908.0,-20.168,12.431,-77.816,-48.701
28918.0,-20.168,13.431,-77.816,-49.701
28928.0,-19.168,12.431,-78.816,-47.701
28938.0,-19.168,11.431,-77.816,-48.701
28947.0,-18.168,11.431,-76.816,-47.701
28957.0,-17.168,9.4305,-77.816,-49.701
28967.0,-19.168,10.431,-77.816,-49.701
28977.0,-17.168,11.431,-78.816,-48.701
28987.0,-16.168,9.4305,-76.816,-48.701
28997.0,-14.168,9.4305,-78.816,-48.701
29007.0,-13.168,8.4305,-76.816,-49.701
29017.0,-14.168,7.4305,-76.816,-49.701
29027.0,-13.168,7.4305,-76.816,-48.701
29036.0,-11.168,8.4305,-76.816,-49.701
29046.0,-9.1683,8.4305,-72.816,-48.701
29056.0,-7.1683,10.431,-73.816,-48.701
29066.0,-3.1683,12.431,-74.816,-50.701
29076.0,2.8317,18.431,-75.816,-49.701
29086.0,12.832,25.431,-73.816,-49.701
29096.0,20.832,32.431,-73.816,-49.701
29106.0,28.832,40.431,-72.816,-49.701
29116.0,39.832,47.431,-72.816,-48.701
29125.0,42.832,54.431,-72.816,-49.701
29135.0,45.832,55.431,-73.816,-48.701
29145.0,43.832,55.431,-73.816,-48.701
29155.0,43.832,56.431,-75.816,-48.701
29165.0,43.832,57.431,-73.816,-48.701
29175.0,43.832,58.431,-77.816,-47.701
29185.0,41.832,58.431,-76.816,-49.701
29195.0,40.832,57.431,-78.816,-50.701
29205.0,40.832,57.431,-80.816,-50.701
29214.0,35.832,56.431,-82.816,-49.701
29224.0,35.832,56.431,-83.816,-51.701
29234.0,31.832,55.431,-85.816,-51.701
29244.0,31.832,55.431,-87.816,-52.701
29254.0,22.832,49.431,-88.816,-51.701
29264.0,22.832,49.431,-87.816,-52.701
29274.0,10.832,41.431,-88.816,-52.701
29284.0,10.832,41.431,-88.816,-53.701
29293.0,4.8317,36.431,-91.816,-52.701
29303.0,4.8317,36.431,-91.816,-53.701
29313.0,2.8317,36.431,-89.816,-52.701
29323.0,2.8317,36.431,-90.816,-51.701
29333.0,4.8317,37.431,-91.816,-53.701
29343.0,2.8317,37.431,-90.816,-54.701
29353.0,0.83167,37.431,-90.816,-53.701
29363.0,-5.1683,33.431,-90.816,-53.701
29373.0,-5.1683,30.431,-91.816,-53.701
29382.0,-5.1683,30.431,-92.816,-52.701
29392.0,-6.1683,28.431,-91.816,-53.701
29402.0,-9.1683,25.431,-90.816,-53.701
29412.0,-10.168,26.431,-91.816,-54.701
29422.0,-11.168,23.431,-91.816,-54.701
29432.0,-14.168,22.431,-90.816,-55.701
29442.0,-17.168,20.431,-90.816,-54.701
29452.0,-18.168,19.431,-91.816,-55.701
29462.0,-19.168,16.431,-90.816,-54.701
29471.0,-21.168,16.431,-91.816,-55.701
29481.0,-22.168,13.431,-92.816,-55.701
29491.0,-23.168,13.431,-91.816,-54.701
29501.0,-24.168,11.431,-90.816,-55.701
29511.0,-24.168,10.431,-91.816,-55.701
29521.0,-24.168,9.4305,-89.816,-55.701
29531.0,-24.168,9.4305,-90.816,-54.701
29541.0,-23.168,8.4305,-87.816,-55.701
29551.0,-24.168,6.4305,-89.816,-55.701
29560.0,-26.168,7.4305,-87.816,-55.701
29570.0,-24.168,4.4305,-88.816,-54.701
29580.0,-24.168,4.4305,-88.816,-55.701
29590.0,-24.168,4.4305,-86.816,-52.701
29600.0,-25.168,2.4305,-86.816,-54.701
29610.0,-21.168,3.4305,-85.816,-53.701
29620.0,-23.168,1.4305,-87.816,-53.701
29630.0,-22.168,1.4305,-84.816,-53.701
29639.0,-22.168,0.4305,-86.816,-54.701
29649.0,-22.168,-1.5695,-85.816,-54.701
29659.0,-23.168,-2.5695,-84.816,-54.701
29669.0,-20.168,-1.5695,-84.816,-53.701
29679.0,-19.168,-0.5695,-84.816,-54.701
29689.0,-17.168,-1.5695,-83.816,-55.701
29699.0,-15.168,1.4305,-82.816,-53.701
29709.0,-12.168,3.4305,-78.816,-52.701
29719.0,-2.1683,12.431,-79.816,-53.701
29728.0,7.8317,19.431,-79.816,-52.701
29738.0,16.832,27.431,-81.816,-53.701
29748.0,24.832,35.431,-79.816,-53.701
29758.0,29.832,40.431,-79.816,-53.701
29768.0,30.832,42.431,-79.816,-52.701
29778.0,30.832,42.431,-79.816,-52.701
29788.0,30.832,44.431,-80.816,-53.701
29798.0,31.832,45.431,-80.816,-53.701
29808.0,26.832,44.431,-84.816,-53.701
29817.0,26.832,45.431,-84.816,-53.701
29827.0,28.832,45.431,-86.816,-54.701
29837.0,24.832,44.431,-86.816,-54.701
29847.0,22.832,42.431,-87.816,-54.701
29857.0,19.832,43.431,-87.816,-54.701
29867.0,16.832,40.431,-89.816,-54.701
29877.0,12.832,36.431,-89.816,-54.701
29887.0,9.8317,35.431,-93.816,-56.701
29897.0,3.8317,31.431,-93.816,-56.701
29906.0,-1.1683,25.431,-94.816,-55.701
29916.0,-1.1683,25.431,-94.816,-55.701
29926.0,-8.1683,22.431,-95.816,-56.701
29936.0,-8.1683,22.431,-95.816,-56.701
29946.0,-9.1683,22.431,-94.816,-56.701
29956.0,-9.1683,22.431,-94.816,-56.701
29966.0,-8.1683,22.431,-94.816,-56.701
29976.0,-8.1683,22.431,-95.816,-56.701
29985.0,-12.168,21.431,-96.816,-56.701
29995.0,-12.168,21.431,-95.816,-56.701
