t,lead_I,lead_II,v3,v4
0.8,-103408,-89014,17447,-15820
2.8,-103636,-89363,17196,-16042
4.8,-103669,-89448,17322,-15941
6.8,-103581,-89375,17436,-15865
8.8,-103577,-89311,17303,-16014
10.8,-103684,-89302,17345,-15985
12.8,-103796,-89315,17682,-15663
14.8,-103839,-89306,17865,-15461
16.8,-103743,-89240,17699,-15593
18.8,-103523,-89148,17480,-15817
20.8,-103410,-89118,17463,-15862
22.8,-103586,-89150,17572,-15747
24.8,-103847,-89190,17612,-15686
26.8,-103901,-89317,17579,-15733
28.8,-103805,-89608,17635,-15718
30.8,-103759,-89809,17801,-15584
32.83,-103743,-89616,17923,-15479
34.85,-103674,-89184,17905,-15497
36.88,-103588,-88880,17770,-15604
38.9,-103512,-88778,17624,-15729
40.9,-103460,-88780,17622,-15754
42.9,-103535,-88862,17757,-15648
44.9,-103731,-89003,17815,-15587
46.9,-103826,-89158,17726,-15666
48.9,-103720,-89228,17674,-15731
50.9,-103598,-89097,17748,-15658
52.9,-103579,-88967,17860,-15501
54.9,-103556,-89191,17935,-15367
56.9,-103485,-89497,17904,-15367
58.9,-103488,-89332,17758,-15511
60.9,-103617,-89012,17700,-15580
62.9,-103743,-89176,17880,-15417
64.9,-103710,-89456,18075,-15233
66.9,-103563,-89222,18018,-15297
68.9,-103522,-88857,17829,-15507
70.9,-103603,-88899,17794,-15563
72.9,-103540,-89017,17944,-15404
74.9,-103340,-88903,18074,-15242
76.9,-103380,-88899,18079,-15222
78.9,-103617,-89105,18044,-15259
80.9,-103544,-89113,18062,-15236
82.9,-103203,-88870,18118,-15171
84.9,-103169,-88753,18141,-15148
86.9,-103425,-88850,18054,-15240
88.9,-103458,-88907,17896,-15411
90.9,-103279,-88813,17899,-15438
92.9,-103249,-88659,18149,-15204
94.9,-103304,-88539,18334,-14988
96.9,-103265,-88532,18252,-15032
98.9,-103285,-88676,18141,-15147
100.9,-103401,-88887,18142,-15167
102.9,-103388,-89031,18095,-15220
104.9,-103296,-89022,18034,-15283
106.9,-103357,-88826,18142,-15193
108.9,-103427,-88521,18300,-15055
110.9,-103263,-88350,18363,-15006
112.9,-103065,-88473,18436,-14940
114.9,-103105,-88723,18528,-14848
116.9,-103241,-88885,18516,-14861
118.9,-103263,-88961,18470,-14917
120.9,-103238,-88947,18482,-14915
122.9,-103254,-88787,18480,-14923
124.9,-103233,-88659,18460,-14957
126.9,-103117,-88709,18465,-14971
128.9,-102982,-88670,18455,-14994
130.9,-102975,-88383,18482,-14974
132.9,-103153,-88246,18614,-14851
134.9,-103323,-88485,18705,-14776
136.9,-103244,-88701,18683,-14818
138.9,-103016,-88639,18712,-14803
140.9,-102939,-88597,18804,-14711
142.9,-103037,-88763,18826,-14684
144.9,-103064,-88847,18809,-14694
146.9,-102902,-88610,18790,-14711
148.9,-102686,-88304,18744,-14774
150.9,-102623,-88359,18815,-14726
152.9,-102762,-88735,19036,-14502
154.9,-102924,-88948,19111,-14401
156.9,-102922,-88854,18993,-14503
158.9,-102808,-88813,18995,-14508
160.9,-102747,-88922,19109,-14399
162.9,-102747,-88840,19090,-14414
164.9,-102690,-88486,19004,-14488
166.9,-102538,-88142,18986,-14490
168.9,-102378,-87915,18972,-14497
170.9,-102301,-87725,19013,-14455
172.9,-102303,-87638,19165,-14286
174.9,-102335,-87733,19225,-14203
176.9,-102397,-87892,19117,-14297
178.9,-102503,-87998,19035,-14366
180.9,-102572,-88186,18994,-14385
182.93,-102514,-88612,18915,-14450
184.95,-102430,-89018,18914,-14462
186.98,-102521,-88915,18976,-14433
189.0,-102767,-88371,18913,-14524
191.0,-102937,-88107,18820,-14608
193.0,-102943,-88434,18848,-14544
195.0,-102932,-88803,18820,-14559
197.0,-103002,-88789,18676,-14713
199.0,-103083,-88682,18637,-14736
201.0,-103139,-88737,18651,-14694
203.0,-103235,-88786,18489,-14871
205.0,-103368,-88812,18291,-15101
207.0,-103461,-88973,18260,-15128
209.0,-103528,-89125,18231,-15148
211.0,-103623,-89083,18108,-15289
213.0,-103674,-89003,18098,-15304
215.0,-103590,-89018,18230,-15148
217.0,-103502,-89087,18267,-15099
219.0,-103610,-89306,18158,-15209
221.0,-103830,-89623,18046,-15305
223.0,-103876,-89584,17948,-15385
225.0,-103699,-89125,17828,-15510
227.0,-103578,-88919,17801,-15550
229.0,-103685,-89272,17936,-15414
231.0,-103830,-89593,18077,-15270
233.0,-103783,-89455,18092,-15248
235.0,-103647,-89187,18065,-15247
237.0,-103665,-89154,18061,-15212
239.0,-103798,-89286,17987,-15273
241.0,-103821,-89423,17838,-15446
243.0,-103745,-89485,17770,-15547
245.0,-103782,-89380,17827,-15511
247.0,-103916,-89176,17878,-15477
249.0,-103894,-89164,17846,-15524
251.0,-103652,-89401,17814,-15557
253.0,-103443,-89508,17899,-15462
255.0,-103496,-89318,18058,-15286
257.0,-103788,-89225,18102,-15225
259.0,-104105,-89420,17988,-15334
261.0,-104198,-89444,17915,-15424
263.0,-104028,-89156,17984,-15374
265.0,-103829,-89194,18087,-15273
267.0,-103752,-89756,18188,-15162
269.0,-103673,-90032,18283,-15063
271.0,-103588,-89603,18242,-15118
273.0,-103699,-89146,18093,-15277
275.0,-103906,-89129,18054,-15293
277.0,-103885,-89171,18042,-15265
279.0,-103726,-89061,17859,-15447
281.0,-103713,-89084,17755,-15593
283.0,-103697,-89243,17981,-15394
285.0,-103491,-89297,18213,-15161
287.0,-103371,-89281,18192,-15193
289.0,-103499,-89207,18163,-15240
291.0,-103591,-88951,18238,-15164
293.0,-103602,-88851,18225,-15173
295.0,-103785,-89329,18176,-15234
297.0,-103921,-89811,18233,-15182
299.0,-103609,-89403,18266,-15138
301.0,-103189,-88511,18249,-15149
303.0,-103265,-88292,18341,-15056
305.0,-103658,-88785,18446,-14947
307.0,-103817,-89037,18405,-14992
309.0,-103708,-88710,18370,-15040
311.0,-103586,-88343,18446,-14975
313.0,-103495,-88375,18508,-14916
315.0,-103414,-88689,18558,-14863
317.0,-103359,-88865,18647,-14762
319.0,-103269,-88621,18649,-14743
321.0,-103162,-88218,18574,-14802
323.0,-103148,-88134,18608,-14748
325.0,-103139,-88303,18701,-14643
327.0,-102996,-88314,18707,-14645
329.0,-102875,-88200,18710,-14652
331.1,-102912,-88230,18758,-14596
333.1,-102893,-88307,18731,-14600
335.1,-102695,-88234,18660,-14633
337.1,-102542,-88064,18683,-14556
339.1,-102521,-87867,18777,-14422
341.1,-102457,-87712,18858,-14326
343.1,-102385,-87753,18877,-14302
345.1,-102527,-87935,18783,-14405
347.1,-102802,-88037,18658,-14567
349.1,-102936,-88134,18634,-14620
351.1,-102947,-88380,18605,-14639
353.1,-103037,-88566,18457,-14776
355.1,-103168,-88513,18349,-14901
357.1,-103164,-88460,18378,-14895
359.1,-103111,-88632,18380,-14897
361.1,-103201,-88836,18285,-14990
363.1,-103345,-88750,18162,-15121
365.1,-103380,-88502,18039,-15268
367.1,-103488,-88756,17999,-15328
369.1,-103845,-89738,18098,-15229
371.1,-104107,-90453,18132,-15184
373.1,-103901,-89949,17979,-15333
375.1,-103542,-88993,17842,-15463
377.1,-103575,-88973,17831,-15466
379.1,-103931,-89736,17830,-15476
381.1,-104154,-90151,17843,-15477
383.1,-104096,-89975,17891,-15419
385.1,-103925,-89707,17830,-15475
387.1,-103793,-89530,17692,-15637
389.1,-103780,-89495,17726,-15623
391.1,-103881,-89786,17895,-15452
393.1,-103970,-90219,17947,-15414
395.1,-103962,-90313,17904,-15485
397.1,-103909,-90026,17931,-15448
399.1,-103858,-89761,17976,-15363
401.1,-103818,-89771,17961,-15367
403.1,-103846,-89977,17993,-15362
405.1,-103961,-90129,18059,-15309
407.1,-104058,-90012,17936,-15419
409.1,-104085,-89758,17642,-15708
411.1,-104138,-89753,17518,-15842
413.1,-104252,-90021,17678,-15685
415.1,-104297,-90219,17859,-15486
417.1,-104180,-90255,17924,-15403
419.1,-104016,-90201,17929,-15387
421.1,-103986,-89874,17833,-15468
423.1,-104108,-89384,17673,-15614
425.1,-104192,-89425,17690,-15605
427.1,-104079,-90058,17854,-15467
429.1,-103886,-90313,17864,-15476
431.1,-103864,-89849,17763,-15584
433.1,-104021,-89591,17817,-15538
435.1,-104128,-89995,17933,-15420
437.1,-104104,-90328,17906,-15423
439.1,-104077,-90137,17849,-15462
441.1,-104107,-89901,17889,-15431
443.1,-104136,-89973,17945,-15385
445.1,-104128,-90129,17953,-15368
447.1,-104057,-90136,17897,-15423
449.1,-103942,-90011,17747,-15603
451.1,-103979,-89905,17606,-15775
453.1,-104287,-90011,17632,-15762
455.1,-104586,-90291,17772,-15634
457.1,-104556,-90433,17856,-15577
459.1,-104378,-90352,17823,-15654
461.1,-104424,-90348,17756,-15783
463.1,-104657,-90561,17817,-15778
465.1,-104778,-90695,18011,-15597
467.1,-104728,-90477,18108,-15495
469.1,-104626,-90071,18100,-15517
471.1,-104477,-89823,18309,-15297
473.13,-104215,-89704,18687,-14829
475.15,-103851,-89362,18802,-14554
477.18,-103376,-88824,18702,-14405
479.2,-102669,-88520,18748,-13959
481.2,-101601,-88339,18822,-13388
483.2,-100227,-87580,18723,-12998
485.2,-98858,-86206,18680,-12534
487.2,-97902,-85134,18686,-11988
489.2,-97510,-84954,18336,-11912
491.2,-97468,-85366,17608,-12404
493.2,-97570,-86030,16706,-13186
495.2,-97961,-87012,15510,-14435
497.2,-98898,-88259,14111,-16208
499.2,-100289,-89410,12994,-17888
501.2,-101712,-90280,12215,-19112
503.2,-102835,-90988,11530,-20070
505.2,-103611,-91490,11220,-20619
507.2,-104146,-91557,11615,-20439
509.2,-104549,-91383,12373,-19807
511.2,-104846,-91470,13048,-19229
513.2,-104949,-91713,13629,-18792
515.2,-104825,-91514,14237,-18341
517.2,-104635,-90919,14961,-17730
519.2,-104516,-90592,15826,-16947
521.2,-104419,-90683,16595,-16270
523.2,-104318,-90714,17016,-15951
525.2,-104251,-90437,17222,-15828
527.2,-104147,-90053,17415,-15689
529.2,-103980,-89836,17551,-15593
531.2,-103911,-89860,17615,-15557
533.2,-103961,-89885,17703,-15480
535.2,-103945,-89674,17800,-15389
537.2,-103899,-89503,17889,-15316
539.2,-104031,-89758,18016,-15196
541.2,-104230,-90143,18095,-15116
543.2,-104234,-90147,18025,-15199
545.2,-104087,-89912,17949,-15303
547.2,-103980,-89801,18000,-15275
549.2,-103937,-89720,18072,-15222
551.2,-103917,-89584,18096,-15220
553.2,-103929,-89609,18152,-15182
555.2,-103977,-89753,18206,-15126
557.2,-104040,-89733,18149,-15157
559.2,-104004,-89608,18058,-15218
561.2,-103757,-89538,18069,-15205
563.2,-103546,-89409,18114,-15190
565.2,-103805,-89319,18102,-15230
567.2,-104358,-89610,18158,-15179
569.2,-104532,-90050,18352,-14984
571.2,-104229,-90014,18445,-14891
573.2,-103988,-89599,18299,-15025
575.2,-103978,-89461,18203,-15098
577.2,-103940,-89668,18366,-14921
579.2,-103873,-89717,18524,-14751
581.2,-103868,-89440,18455,-14797
583.2,-103746,-89141,18358,-14877
585.2,-103579,-89129,18402,-14842
587.2,-103777,-89446,18430,-14836
589.2,-104182,-89814,18322,-14949
591.2,-104162,-89856,18258,-15006
593.2,-103781,-89575,18414,-14844
595.2,-103660,-89346,18609,-14633
597.2,-103773,-89316,18507,-14712
599.2,-103681,-89258,18195,-15021
601.2,-103567,-89053,18121,-15116
603.2,-103797,-88881,18336,-14921
605.2,-104034,-88952,18453,-14818
607.2,-103879,-89279,18414,-14878
609.2,-103654,-89648,18490,-14825
611.2,-103729,-89775,18627,-14699
613.2,-103878,-89616,18621,-14702
615.2,-103837,-89412,18570,-14726
617.2,-103738,-89360,18601,-14663
619.2,-103700,-89461,18664,-14604
621.2,-103644,-89619,18774,-14530
623.23,-103599,-89650,18875,-14443
625.25,-103673,-89402,18751,-14554
627.28,-103735,-89012,18481,-14828
629.3,-103590,-88770,18410,-14921
631.3,-103381,-88772,18554,-14786
633.3,-103393,-88966,18691,-14648
635.3,-103539,-89249,18783,-14564
637.3,-103519,-89366,18818,-14537
639.3,-103402,-89180,18746,-14606
641.3,-103493,-89030,18719,-14628
643.3,-103727,-89249,18840,-14509
645.3,-103771,-89541,18911,-14452
647.3,-103591,-89458,18854,-14531
649.3,-103420,-89145,18874,-14527
651.3,-103373,-89048,19012,-14396
653.3,-103442,-89228,19095,-14319
655.3,-103563,-89369,19075,-14346
657.3,-103573,-89261,19011,-14415
659.3,-103414,-89008,18981,-14457
661.3,-103271,-88842,19085,-14377
663.3,-103231,-88822,19237,-14247
665.3,-103183,-88830,19227,-14277
667.3,-103180,-88839,19125,-14404
669.3,-103338,-88889,19131,-14409
671.3,-103440,-88914,19170,-14360
673.3,-103281,-88900,19159,-14372
675.3,-103099,-88943,19247,-14308
677.3,-103093,-88921,19402,-14173
679.3,-103083,-88685,19423,-14165
681.3,-103020,-88566,19391,-14213
683.3,-103115,-88896,19441,-14178
685.3,-103316,-89315,19427,-14196
687.3,-103398,-89397,19347,-14281
689.3,-103382,-89315,19446,-14188
691.3,-103307,-89201,19637,-13992
693.3,-103061,-88885,19642,-13976
695.3,-102787,-88573,19591,-14020
697.3,-102748,-88587,19704,-13903
699.3,-102781,-88641,19799,-13805
701.3,-102649,-88504,19732,-13867
703.3,-102596,-88555,19700,-13885
705.3,-102837,-88817,19761,-13804
707.3,-103045,-88764,19725,-13820
709.3,-102951,-88531,19635,-13887
711.3,-102791,-88745,19711,-13793
713.3,-102771,-89131,19858,-13650
715.3,-102738,-88958,19809,-13712
717.3,-102623,-88506,19629,-13891
719.3,-102604,-88551,19552,-13950
721.3,-102757,-88924,19518,-13971
723.3,-102949,-88987,19369,-14123
725.3,-103072,-88926,19277,-14222
727.3,-103142,-89218,19387,-14110
729.3,-103222,-89461,19392,-14097
731.3,-103313,-89082,19078,-14414
733.3,-103317,-88596,18815,-14685
735.3,-103220,-88746,18894,-14601
737.3,-103221,-89131,19007,-14478
739.3,-103427,-89076,18891,-14597
741.3,-103614,-88931,18760,-14733
743.3,-103588,-89212,18785,-14710
745.3,-103501,-89550,18833,-14682
747.3,-103539,-89549,18791,-14757
749.3,-103626,-89526,18665,-14891
751.3,-103619,-89676,18508,-15029
753.3,-103543,-89668,18457,-15075
755.3,-103573,-89448,18562,-14981
757.3,-103840,-89434,18641,-14897
759.3,-104204,-89737,18560,-14967
761.3,-104312,-89973,18424,-15107
763.3,-104051,-89874,18375,-15164
765.3,-103727,-89605,18414,-15116
767.3,-103639,-89481,18468,-15045
769.3,-103721,-89572,18486,-15017
771.4,-103771,-89674,18479,-15016
773.4,-103775,-89663,18476,-15016
775.4,-103837,-89631,18463,-15041
777.4,-103920,-89602,18430,-15084
779.4,-103895,-89511,18406,-15097
781.4,-103818,-89486,18414,-15069
783.4,-103850,-89613,18484,-14992
785.4,-103886,-89644,18590,-14884
787.4,-103679,-89480,18595,-14881
789.4,-103393,-89466,18465,-15031
791.4,-103462,-89679,18388,-15134
793.4,-103851,-89737,18444,-15084
795.4,-104074,-89610,18492,-15037
797.4,-103963,-89625,18484,-15070
799.4,-103810,-89681,18479,-15110
801.4,-103800,-89548,18454,-15141
803.4,-103843,-89533,18431,-15150
805.4,-103854,-89787,18480,-15094
807.4,-103825,-89797,18509,-15069
809.4,-103754,-89427,18461,-15121
811.4,-103728,-89282,18477,-15101
813.4,-103819,-89512,18560,-15008
815.4,-103900,-89619,18544,-15016
817.4,-103833,-89559,18487,-15064
819.4,-103746,-89641,18520,-15021
821.4,-103779,-89695,18556,-14990
823.4,-103777,-89549,18559,-15005
825.4,-103596,-89516,18615,-14956
827.4,-103451,-89608,18610,-14954
829.4,-103563,-89398,18476,-15097
831.4,-103749,-88999,18475,-15117
833.4,-103752,-88929,18689,-14909
835.4,-103652,-89148,18825,-14769
837.4,-103619,-89324,18838,-14760
839.4,-103593,-89466,18949,-14648
841.4,-103513,-89558,19064,-14530
843.4,-103484,-89390,18946,-14659
845.4,-103537,-89091,18727,-14890
847.4,-103571,-88973,18663,-14953
849.4,-103557,-88930,18776,-14856
851.4,-103520,-88738,18966,-14700
853.4,-103441,-88579,19125,-14549
855.4,-103360,-88654,19160,-14485
857.4,-103351,-88737,19123,-14502
859.4,-103308,-88551,19124,-14495
861.4,-103056,-88229,19144,-14465
863.4,-102694,-88069,19147,-14460
865.4,-102511,-88022,19160,-14457
867.4,-102556,-87854,19150,-14454
869.4,-102618,-87739,19120,-14435
871.4,-102578,-88044,19199,-14315
873.4,-102473,-88500,19338,-14160
875.4,-102348,-88470,19290,-14196
877.4,-102309,-88119,19064,-14403
879.4,-102476,-88176,18948,-14516
881.4,-102691,-88595,19002,-14479
883.4,-102713,-88747,19028,-14476
885.4,-102726,-88687,18957,-14568
887.4,-103033,-88871,18891,-14657
889.4,-103403,-89139,18855,-14710
891.4,-103464,-89167,18795,-14771
893.4,-103398,-89181,18715,-14841
895.4,-103495,-89320,18671,-14879
897.4,-103577,-89283,18664,-14887
899.4,-103505,-89130,18632,-14938
901.4,-103544,-89291,18524,-15086
903.4,-103752,-89660,18369,-15272
905.4,-103805,-89807,18267,-15374
907.4,-103669,-89820,18291,-15340
909.4,-103646,-89891,18374,-15256
911.4,-103765,-89773,18363,-15255
913.43,-103819,-89500,18254,-15336
915.45,-103825,-89645,18221,-15353
917.48,-103906,-90231,18319,-15261
919.5,-104021,-90570,18401,-15189
921.5,-104090,-90451,18381,-15215
923.5,-104093,-90303,18309,-15292
925.5,-104020,-90259,18233,-15374
927.5,-103962,-90146,18196,-15424
929.5,-104003,-90024,18203,-15429
931.5,-103996,-89937,18153,-15473
933.5,-103838,-89742,18045,-15569
935.5,-103763,-89592,18048,-15569
937.5,-103869,-89802,18144,-15477
939.5,-103839,-90144,18143,-15470
941.5,-103636,-90196,18099,-15515
943.5,-103758,-90116,18147,-15475
945.5,-104256,-90163,18179,-15451
947.5,-104429,-90080,18149,-15501
949.5,-104051,-89820,18226,-15458
951.5,-103839,-89915,18344,-15353
953.5,-104144,-90357,18274,-15402
955.5,-104360,-90425,18150,-15510
957.5,-104158,-90101,18195,-15470
959.5,-104023,-90049,18247,-15422
961.5,-104148,-90180,18144,-15524
963.5,-104128,-90024,18061,-15623
965.5,-103939,-89975,18115,-15595
967.5,-103961,-90383,18199,-15519
969.5,-104115,-90556,18244,-15457
971.5,-104084,-90163,18244,-15436
973.5,-104000,-89923,18189,-15478
975.5,-104047,-90051,18152,-15507
977.5,-104036,-89980,18180,-15477
979.5,-103927,-89815,18178,-15501
981.5,-103964,-90043,18098,-15612
983.5,-104079,-90297,18033,-15683
985.5,-104006,-90131,18026,-15694
987.5,-103878,-89999,18044,-15713
989.5,-103988,-90248,18099,-15696
991.5,-104203,-90415,18185,-15615
993.5,-104248,-90262,18212,-15598
995.5,-104255,-90239,18147,-15717
997.5,-104470,-90530,18084,-15839
999.5,-104749,-90707,18101,-15850
1001.5,-104803,-90504,18215,-15756
1003.5,-104667,-90221,18450,-15545
1005.5,-104549,-90147,18755,-15223
1007.5,-104439,-90058,18921,-14982
1009.5,-104161,-89616,18858,-14934
1011.5,-103621,-89023,18783,-14816
1013.5,-102782,-88685,18821,-14419
1015.5,-101623,-88407,18786,-13971
1017.5,-100271,-87703,18668,-13594
1019.5,-98977,-86696,18730,-13033
1021.5,-97954,-85935,18852,-12392
1023.5,-97340,-85634,18578,-12238
1025.5,-97160,-85769,17852,-12710
1027.5,-97275,-86414,16879,-13549
1029.5,-97640,-87421,15604,-14845
1031.5,-98464,-88374,14126,-16638
1033.5,-99768,-89244,12957,-18336
1035.5,-101163,-90329,12261,-19488
1037.5,-102368,-91377,11712,-20317
1039.5,-103399,-91727,11374,-20872
1041.5,-104159,-91448,11638,-20792
1043.5,-104526,-91318,12339,-20207
1045.5,-104691,-91586,12995,-19657
1047.5,-104793,-91746,13671,-19146
1049.5,-104705,-91547,14614,-18377
1051.5,-104523,-91247,15524,-17596
1053.5,-104503,-90961,16068,-17161
1055.5,-104465,-90572,16522,-16819
1057.5,-104132,-90137,17149,-16293
1059.5,-103792,-89854,17630,-15892
1061.5,-103812,-89816,17728,-15854
1063.53,-103976,-89954,17764,-15856
1065.55,-103931,-89966,17947,-15696
1067.58,-103714,-89553,18026,-15643
1069.6,-103533,-89002,17934,-15761
1071.6,-103523,-89012,17999,-15709
1073.6,-103727,-89624,18270,-15449
1075.6,-103982,-90094,18396,-15342
1077.6,-104017,-90084,18318,-15430
1079.6,-103862,-90028,18330,-15414
1081.6,-103794,-90121,18438,-15309
1083.6,-103896,-90004,18389,-15382
1085.6,-104039,-89644,18233,-15563
1087.6,-104158,-89517,18220,-15579
1089.6,-104186,-89747,18332,-15449
1091.6,-103989,-89888,18402,-15367
1093.6,-103653,-89690,18420,-15358
1095.6,-103483,-89385,18447,-15352
1097.6,-103529,-89219,18505,-15310
1099.6,-103614,-89255,18597,-15227
1101.6,-103759,-89517,18637,-15203
1103.6,-104024,-89840,18531,-15325
1105.6,-104181,-89862,18402,-15455
1107.6,-104085,-89569,18413,-15430
1109.6,-103956,-89411,18499,-15331
1111.6,-103937,-89563,18529,-15283
1113.6,-103926,-89650,18500,-15291
1115.6,-103914,-89466,18448,-15343
1117.6,-103944,-89312,18444,-15376
1119.6,-103909,-89402,18559,-15285
1121.6,-103786,-89547,18663,-15174
1123.6,-103699,-89560,18612,-15213
1125.6,-103620,-89500,18548,-15280
1127.6,-103504,-89419,18601,-15227
1129.6,-103533,-89291,18625,-15185
1131.6,-103747,-89213,18581,-15214
1133.6,-103853,-89333,18625,-15174
1135.6,-103735,-89518,18693,-15115
1137.6,-103627,-89449,18629,-15187
1139.6,-103652,-89140,18565,-15259
1141.6,-103731,-88951,18618,-15212
1143.6,-103811,-89024,18639,-15196
1145.6,-103839,-89167,18600,-15248
1147.6,-103776,-89285,18660,-15200
1149.6,-103697,-89386,18765,-15087
1151.6,-103611,-89308,18767,-15066
1153.6,-103427,-88978,18756,-15066
1155.6,-103276,-88671,18819,-15004
1157.6,-103354,-88621,18835,-15002
1159.6,-103489,-88790,18791,-15074
1161.6,-103455,-89098,18834,-15053
1163.6,-103425,-89361,18914,-14974
1165.6,-103524,-89280,18883,-15002
1167.6,-103515,-88981,18832,-15071
1169.6,-103353,-88935,18872,-15045
1171.6,-103320,-89099,18887,-15026
1173.6,-103423,-89024,18845,-15065
1175.6,-103400,-88808,18929,-14990
1177.6,-103316,-88922,19101,-14827
1179.6,-103380,-89247,19107,-14829
1181.6,-103402,-89177,18979,-14974
1183.6,-103157,-88610,18965,-15004
1185.6,-102938,-88217,19071,-14908
1187.6,-103076,-88587,19172,-14816
1189.6,-103343,-89349,19270,-14722
1191.6,-103392,-89589,19331,-14650
1193.6,-103319,-89143,19267,-14706
1195.6,-103339,-88732,19164,-14822
1197.6,-103386,-88735,19140,-14876
1199.6,-103340,-88803,19155,-14892
1201.6,-103264,-88763,19194,-14879
1203.6,-103219,-88830,19268,-14817
1205.6,-103160,-88950,19260,-14824
1207.6,-103089,-88879,19185,-14909
1209.6,-103100,-88747,19244,-14878
1211.6,-103205,-88770,19412,-14732
1213.63,-103250,-88762,19480,-14665
1215.65,-103123,-88527,19490,-14651
1217.68,-102955,-88280,19550,-14597
1219.7,-102959,-88251,19544,-14616
1221.7,-103114,-88351,19466,-14711
1223.7,-103199,-88452,19485,-14701
1225.7,-103096,-88559,19545,-14644
1227.7,-102862,-88617,19503,-14691
1229.7,-102609,-88531,19492,-14708
1231.7,-102451,-88403,19627,-14563
1233.7,-102498,-88450,19760,-14406
1235.7,-102723,-88621,19823,-14326
1237.7,-102933,-88598,19891,-14251
1239.7,-102983,-88370,19900,-14230
1241.7,-102932,-88356,19802,-14312
1243.7,-102840,-88612,19734,-14365
1245.7,-102646,-88554,19733,-14354
1247.7,-102432,-88016,19657,-14423
1249.7,-102448,-87709,19519,-14558
1251.7,-102632,-88012,19474,-14591
1253.7,-102662,-88364,19531,-14518
1255.7,-102578,-88359,19551,-14499
1257.7,-102700,-88318,19445,-14616
1259.7,-102931,-88437,19264,-14802
1261.7,-102901,-88449,19153,-14921
1263.7,-102671,-88259,19146,-14946
1265.7,-102647,-88143,19086,-15018
1267.7,-102955,-88323,18936,-15172
1269.7,-103318,-88746,18911,-15198
1271.7,-103417,-89124,19057,-15047
1273.7,-103238,-89207,19096,-14998
1275.7,-103098,-89107,18930,-15168
1277.7,-103233,-89080,18800,-15310
1279.7,-103460,-89063,18786,-15321
1281.7,-103498,-88909,18698,-15399
1283.7,-103436,-88793,18520,-15578
1285.7,-103542,-88893,18442,-15659
1287.7,-103787,-89054,18469,-15630
1289.7,-103875,-89095,18450,-15654
1291.7,-103686,-89029,18386,-15721
1293.7,-103452,-88923,18391,-15709
1295.7,-103428,-88887,18450,-15643
1297.7,-103563,-88975,18459,-15639
1299.7,-103654,-88978,18372,-15734
1301.7,-103661,-88820,18272,-15850
1303.7,-103664,-88933,18315,-15830
1305.7,-103672,-89498,18507,-15640
1307.7,-103657,-89823,18587,-15531
1309.7,-103648,-89411,18396,-15705
1311.7,-103687,-88868,18184,-15928
1313.7,-103759,-88837,18220,-15895
1315.7,-103778,-88994,18364,-15728
1317.7,-103674,-88904,18365,-15710
1319.7,-103525,-88796,18269,-15812
1321.7,-103490,-88889,18243,-15858
1323.7,-103578,-88980,18279,-15848
1325.7,-103617,-88949,18289,-15852
1327.7,-103492,-88890,18285,-15845
1329.7,-103341,-88825,18341,-15780
1331.7,-103404,-88775,18452,-15679
1333.7,-103651,-88799,18511,-15623
1335.7,-103777,-88818,18440,-15676
1337.7,-103681,-88784,18314,-15793
1339.7,-103588,-88804,18261,-15858
1341.7,-103574,-88840,18282,-15839
1343.7,-103515,-88770,18301,-15815
1345.7,-103465,-88758,18313,-15815
1347.7,-103520,-88964,18351,-15794
1349.7,-103555,-89157,18398,-15757
1351.7,-103550,-89108,18411,-15763
1353.7,-103655,-88915,18371,-15823
1355.7,-103757,-88736,18311,-15880
1357.7,-103661,-88719,18288,-15885
1359.7,-103556,-88935,18305,-15864
1361.7,-103575,-89033,18323,-15855
1363.73,-103487,-88632,18373,-15809
1365.75,-103323,-88167,18503,-15677
1367.78,-103448,-88298,18623,-15554
1369.8,-103745,-88661,18623,-15554
1371.8,-103755,-88497,18571,-15606
1373.8,-103545,-88150,18598,-15577
1375.8,-103482,-88462,18710,-15472
1377.8,-103505,-89093,18811,-15385
1379.8,-103396,-88979,18812,-15390
1381.8,-103253,-88201,18735,-15463
1383.8,-103231,-87818,18729,-15479
1385.8,-103254,-88008,18828,-15409
1387.8,-103200,-87947,18845,-15401
1389.8,-103044,-87458,18772,-15452
1391.8,-102858,-87258,18854,-15341
1393.8,-102790,-87552,19043,-15136
1395.8,-102868,-87739,19014,-15164
1397.8,-102886,-87540,18813,-15374
1399.8,-102738,-87370,18762,-15428
1401.8,-102633,-87496,18841,-15339
1403.8,-102691,-87598,18857,-15306
1405.8,-102669,-87342,18864,-15286
1407.8,-102429,-86976,18902,-15223
1409.8,-102247,-86995,18881,-15204
1411.8,-102313,-87367,18888,-15160
1413.8,-102380,-87551,18965,-15060
1415.8,-102261,-87296,18854,-15171
1417.8,-102173,-86994,18554,-15501
1419.8,-102295,-87121,18527,-15576
1421.8,-102483,-87589,18810,-15317
1423.8,-102629,-87881,18828,-15285
1425.8,-102808,-87796,18483,-15609
1427.8,-103027,-87734,18354,-15733
1429.8,-103206,-87988,18547,-15537
1431.8,-103331,-88228,18514,-15564
1433.8,-103389,-88198,18173,-15917
1435.8,-103381,-88237,18050,-16069
1437.8,-103422,-88575,18255,-15891
1439.8,-103570,-88872,18361,-15806
1441.8,-103715,-88913,18231,-15952
1443.8,-103805,-88884,18090,-16095
1445.8,-103876,-88804,18009,-16164
1447.8,-103871,-88574,17974,-16192
1449.8,-103739,-88444,18073,-16089
1451.8,-103616,-88625,18216,-15937
1453.8,-103629,-88844,18177,-15979
1455.8,-103721,-88882,18042,-16132
1457.8,-103781,-88895,18042,-16138
1459.8,-103752,-88865,18082,-16100
1461.8,-103641,-88588,17994,-16211
1463.8,-103568,-88371,17940,-16293
1465.8,-103655,-88650,18051,-16180
1467.8,-103761,-88983,18138,-16081
1469.8,-103634,-88689,18074,-16153
1471.8,-103405,-88235,18004,-16230
1473.8,-103466,-88481,18002,-16219
1475.8,-103794,-89047,17953,-16265
1477.8,-103988,-89038,17829,-16411
1479.8,-103976,-88709,17753,-16505
1481.8,-104021,-88812,17809,-16450
1483.8,-104093,-89166,17942,-16314
1485.8,-103969,-89205,18033,-16216
1487.8,-103781,-88982,18020,-16210
1489.8,-103777,-88761,17979,-16232
1491.8,-103838,-88538,18001,-16215
1493.8,-103788,-88362,18035,-16212
1495.8,-103738,-88353,17992,-16287
1497.8,-103768,-88421,17923,-16371
1499.8,-103762,-88454,17913,-16389
1501.8,-103737,-88485,17916,-16397
1503.8,-103827,-88569,17863,-16445
1505.8,-103974,-88759,17832,-16451
1507.8,-104021,-89018,17899,-16348
1509.8,-103964,-89102,17995,-16226
1511.9,-103887,-88903,18028,-16188
1513.9,-103848,-88727,18005,-16228
1515.9,-103877,-88781,17940,-16313
1517.9,-103936,-88841,17836,-16431
1519.9,-103993,-88793,17773,-16511
1521.9,-104124,-88850,17812,-16492
1523.9,-104304,-89013,17871,-16439
1525.9,-104294,-89007,17881,-16428
1527.9,-104090,-88862,17885,-16443
1529.9,-104043,-88889,17879,-16494
1531.9,-104264,-89055,17827,-16604
1533.9,-104450,-89035,17817,-16675
1535.9,-104474,-88833,17925,-16619
1537.9,-104481,-88756,18083,-16492
1539.9,-104472,-88805,18280,-16293
1541.9,-104364,-88653,18568,-15961
1543.9,-104191,-88191,18806,-15633
1545.9,-103822,-87644,18820,-15468
1547.9,-103038,-87261,18716,-15311
1549.9,-101997,-87094,18641,-14994
1551.9,-100957,-86832,18566,-14613
1553.9,-99775,-86016,18517,-14195
1555.9,-98455,-84781,18523,-13688
1557.9,-97539,-83891,18341,-13373
1559.9,-97256,-83745,17795,-13552
1561.9,-97131,-84194,17064,-14078
1563.9,-97019,-85230,16196,-14855
1565.9,-97510,-86713,14979,-16172
1567.9,-98865,-87874,13555,-17976
1569.9,-100477,-88333,12385,-19653
1571.9,-101754,-88758,11615,-20803
1573.9,-102757,-89582,11209,-21432
1575.9,-103675,-90227,11331,-21501
1577.9,-104317,-90236,11959,-21053
1579.9,-104520,-89926,12642,-20492
1581.9,-104553,-89617,13118,-20122
1583.9,-104628,-89287,13641,-19746
1585.9,-104490,-88954,14466,-19075
1587.9,-104038,-88661,15407,-18247
1589.9,-103762,-88344,16089,-17662
1591.9,-103983,-88138,16451,-17406
1593.9,-104288,-88292,16774,-17175
1595.9,-104257,-88612,17186,-16829
1597.9,-104041,-88643,17481,-16593
1599.9,-103863,-88392,17553,-16567
1601.9,-103700,-88180,17600,-16545
1603.9,-103646,-88003,17746,-16427
1605.9,-103876,-87751,17877,-16330
1607.9,-104169,-87629,17927,-16281
1609.9,-104138,-87750,17986,-16198
1611.9,-103890,-87812,18090,-16098
1613.9,-103817,-87620,18144,-16081
1615.9,-103923,-87397,18122,-16132
1617.9,-103954,-87426,18149,-16113
1619.9,-103921,-87718,18265,-16004
1621.9,-103928,-87982,18303,-15984
1623.9,-103873,-87891,18209,-16092
1625.9,-103754,-87592,18187,-16109
1627.9,-103791,-87585,18286,-15979
1629.9,-103936,-87855,18311,-15923
1631.9,-103872,-87846,18248,-15985
1633.9,-103620,-87483,18274,-15982
1635.9,-103548,-87296,18362,-15918
1637.9,-103755,-87456,18362,-15933
1639.9,-103973,-87621,18306,-15989
1641.9,-104001,-87647,18300,-15982
1643.9,-103892,-87637,18319,-15956
1645.9,-103776,-87510,18308,-15979
1647.9,-103675,-87172,18297,-16012
1649.9,-103532,-86810,18342,-15973
1651.9,-103420,-86673,18432,-15871
1653.93,-103499,-86809,18463,-15834
1655.95,-103685,-87123,18390,-15923
1657.98,-103745,-87428,18342,-15993
1660.0,-103723,-87534,18405,-15942
1662.0,-103803,-87456,18465,-15894
1664.0,-103898,-87385,18451,-15928
1666.0,-103842,-87360,18452,-15935
1668.0,-103732,-87231,18499,-15872
1670.0,-103718,-87010,18546,-15818
1672.0,-103752,-86946,18627,-15746
1674.0,-103753,-87107,18743,-15619
1676.0,-103719,-87191,18751,-15573
1678.0,-103646,-87041,18620,-15688
1680.0,-103561,-86955,18515,-15816
1682.0,-103530,-87124,18524,-15830
1684.0,-103559,-87230,18583,-15769
1686.0,-103593,-87068,18666,-15671
1688.0,-103612,-86916,18771,-15561
1690.0,-103633,-86879,18826,-15522
1692.0,-103634,-86671,18799,-15572
1694.0,-103584,-86326,18743,-15625
1696.0,-103497,-86231,18694,-15658
1698.0,-103408,-86393,18681,-15681
1700.0,-103330,-86521,18774,-15625
1702.0,-103283,-86598,18927,-15493
1704.0,-103323,-86694,18955,-15457
1706.0,-103427,-86708,18829,-15566
1708.0,-103477,-86680,18766,-15621
1710.0,-103437,-86711,18882,-15503
1712.0,-103362,-86587,19006,-15381
1714.0,-103227,-86235,18955,-15442
1716.0,-103051,-86077,18818,-15602
1718.0,-103057,-86290,18814,-15641
1720.0,-103323,-86436,18974,-15508
1722.0,-103547,-86348,19136,-15351
1724.0,-103524,-86396,19196,-15298
1726.0,-103441,-86610,19196,-15330
1728.0,-103431,-86587,19213,-15349
1730.0,-103379,-86350,19272,-15300
1732.0,-103274,-86287,19318,-15249
1734.0,-103246,-86368,19291,-15289
1736.0,-103280,-86321,19268,-15340
1738.0,-103279,-86187,19348,-15274
1740.0,-103219,-86061,19437,-15193
1742.0,-103069,-85811,19433,-15222
1744.0,-102841,-85477,19441,-15245
1746.0,-102692,-85324,19509,-15189
1748.0,-102736,-85452,19513,-15184
1750.0,-102889,-85816,19480,-15219
1752.0,-103063,-86318,19547,-15156
1754.0,-103249,-86588,19653,-15056
1756.0,-103352,-86343,19709,-15016
1758.0,-103254,-85928,19758,-14984
1760.0,-103033,-85806,19741,-15008
1762.0,-102906,-85878,19609,-15138
1764.0,-102945,-85865,19574,-15160
1766.0,-103001,-85768,19729,-14987
1768.0,-102948,-85686,19835,-14875
1770.0,-102877,-85674,19832,-14875
1772.0,-102873,-85696,19905,-14777
1774.0,-102820,-85559,19994,-14655
1776.0,-102668,-85295,19925,-14717
1778.0,-102614,-85287,19801,-14843
1780.0,-102717,-85544,19764,-14860
1782.0,-102747,-85607,19759,-14843
1784.0,-102625,-85453,19748,-14845
1786.0,-102542,-85443,19750,-14835
1788.0,-102576,-85463,19716,-14854
1790.0,-102652,-85291,19657,-14908
1792.0,-102768,-85280,19647,-14916
1794.03,-102894,-85632,19642,-14918
1796.05,-102893,-85851,19548,-15011
1798.08,-102810,-85684,19392,-15173
1800.1,-102863,-85550,19234,-15338
1802.1,-103054,-85637,19105,-15473
1804.1,-103187,-85659,19067,-15514
1806.1,-103264,-85602,19124,-15453
1808.1,-103418,-85667,19162,-15400
1810.1,-103560,-85735,19098,-15444
1812.1,-103521,-85713,18983,-15541
1814.1,-103406,-85845,18907,-15610
1816.1,-103381,-86050,18895,-15625
1818.1,-103345,-85858,18893,-15623
1820.1,-103242,-85410,18851,-15652
1822.1,-103326,-85395,18747,-15754
1824.1,-103674,-85831,18611,-15907
1826.1,-103926,-86138,18574,-15947
1828.1,-103896,-86206,18712,-15780
1830.1,-103839,-86205,18796,-15664
1832.1,-103893,-85967,18616,-15848
1834.1,-103917,-85584,18432,-16052
1836.1,-103928,-85614,18519,-15961
1838.1,-104046,-86046,18626,-15839
1840.1,-104129,-86309,18546,-15920
1842.1,-104025,-86387,18567,-15905
1844.1,-103891,-86575,18762,-15698
1846.1,-103864,-86574,18756,-15680
1848.1,-103849,-86125,18554,-15862
1850.1,-103794,-85721,18528,-15870
1852.1,-103768,-85731,18626,-15750
1854.1,-103745,-85843,18563,-15792
1856.1,-103691,-85865,18435,-15903
1858.1,-103699,-85980,18411,-15921
1860.1,-103803,-86085,18401,-15930
1862.1,-103874,-85873,18389,-15929
1864.1,-103825,-85481,18456,-15838
1866.1,-103735,-85364,18505,-15782
1868.1,-103716,-85670,18480,-15821
1870.1,-103762,-86075,18529,-15776
1872.1,-103759,-86167,18653,-15635
1874.1,-103683,-85927,18676,-15600
1876.1,-103673,-85721,18606,-15682
1878.1,-103774,-85716,18584,-15723
1880.1,-103829,-85694,18606,-15718
1882.1,-103790,-85592,18583,-15746
1884.1,-103789,-85630,18537,-15786
1886.1,-103790,-85745,18534,-15781
1888.1,-103650,-85658,18567,-15744
1890.1,-103515,-85506,18583,-15712
1892.1,-103611,-85597,18581,-15686
1894.1,-103786,-85732,18601,-15655
1896.1,-103772,-85595,18633,-15638
1898.1,-103674,-85420,18633,-15652
1900.1,-103681,-85440,18625,-15655
1902.1,-103664,-85379,18649,-15622
1904.1,-103537,-85162,18688,-15576
1906.1,-103536,-85143,18756,-15500
1908.1,-103680,-85172,18870,-15381
1910.1,-103601,-84808,18960,-15298
1912.1,-103293,-84486,18970,-15303
1914.1,-103220,-84772,18952,-15343
1916.1,-103393,-84992,18934,-15383
1918.1,-103364,-84479,18907,-15419
1920.1,-103243,-84063,18904,-15401
1922.1,-103503,-84503,18915,-15358
1924.1,-103917,-85039,18909,-15345
1926.1,-103891,-84939,18971,-15269
1928.1,-103526,-84641,19118,-15098
1930.1,-103285,-84533,19190,-15013
1932.1,-103182,-84436,19188,-15026
1934.1,-103059,-84384,19269,-14952
1936.1,-103010,-84479,19325,-14873
1938.1,-103063,-84457,19205,-14966
1940.1,-103051,-84228,19108,-15054
1942.1,-102916,-83981,19161,-14991
1944.13,-102734,-83682,19148,-14979
1946.15,-102583,-83380,19060,-15033
1948.18,-102514,-83429,19128,-14917
1950.2,-102490,-83702,19247,-14740
1952.2,-102423,-83648,19173,-14772
1954.2,-102357,-83425,19041,-14898
1956.2,-102404,-83656,19040,-14920
1958.2,-102569,-84204,19058,-14933
1960.2,-102793,-84482,19012,-15002
1962.2,-102983,-84480,18975,-15042
1964.2,-103020,-84442,18933,-15079
1966.2,-103011,-84343,18845,-15163
1968.2,-103227,-84319,18767,-15231
1970.2,-103559,-84619,18731,-15263
1972.2,-103608,-84979,18712,-15301
1974.2,-103431,-85034,18695,-15350
1976.2,-103437,-84984,18630,-15440
1978.2,-103614,-85046,18529,-15552
1980.2,-103639,-84999,18524,-15560
1982.2,-103517,-84822,18606,-15466
1984.2,-103437,-84797,18629,-15433
1986.2,-103386,-84860,18616,-15458
1988.2,-103337,-84791,18644,-15448
1990.2,-103396,-84785,18613,-15477
1992.2,-103588,-85032,18495,-15583
1994.2,-103805,-85288,18436,-15647
1996.2,-103945,-85351,18420,-15680
1998.2,-103969,-85362,18331,-15779
2000.2,-103958,-85409,18283,-15825
2002.2,-104023,-85399,18397,-15694
2004.2,-104089,-85323,18500,-15557
2006.2,-104057,-85249,18409,-15609
2008.2,-104032,-85152,18244,-15756
2010.2,-104023,-85001,18252,-15756
2012.2,-103853,-84897,18462,-15567
2014.2,-103659,-84952,18607,-15445
2016.2,-103786,-85117,18473,-15595
2018.2,-104050,-85218,18252,-15812
2020.2,-104021,-85122,18237,-15805
2022.2,-103846,-84872,18347,-15681
2024.2,-103882,-84755,18380,-15649
2026.2,-103966,-85015,18411,-15616
2028.2,-103871,-85364,18523,-15496
2030.2,-103820,-85274,18562,-15446
2032.2,-103937,-84839,18442,-15551
2034.2,-103965,-84642,18306,-15684
2036.2,-103864,-84803,18302,-15705
2038.2,-103906,-85032,18407,-15616
2040.2,-104062,-85285,18464,-15556
2042.2,-104049,-85498,18408,-15613
2044.2,-103894,-85315,18381,-15649
2046.2,-103817,-84807,18457,-15559
2048.2,-103793,-84569,18496,-15484
2050.2,-103729,-84696,18454,-15512
2052.2,-103728,-84692,18419,-15562
2054.2,-103848,-84575,18395,-15603
2056.2,-103955,-84885,18419,-15587
2058.2,-103947,-85493,18565,-15453
2060.2,-103831,-85609,18621,-15417
2062.2,-103696,-85127,18418,-15641
2064.2,-103720,-84776,18275,-15798
2066.2,-103906,-84803,18406,-15678
2068.2,-103966,-84771,18518,-15602
2070.2,-103885,-84709,18493,-15696
2072.2,-104110,-85029,18547,-15706
2074.2,-104668,-85398,18643,-15648
2076.2,-104890,-85191,18719,-15603
2078.2,-104505,-84734,19002,-15330
2080.2,-104086,-84692,19392,-14894
2082.2,-104051,-84854,19462,-14748
2084.23,-104072,-84678,19301,-14810
2086.25,-103673,-84222,19276,-14622
2088.28,-102781,-83743,19255,-14267
2090.3,-101603,-83164,19051,-14012
2092.3,-100299,-82350,18967,-13627
2094.3,-98919,-81342,19141,-12938
2096.3,-97690,-80371,19172,-12370
2098.3,-96994,-79878,18772,-12351
2100.3,-96818,-80147,18062,-12812
2102.3,-96833,-80963,17132,-13615
2104.3,-97193,-81966,15916,-14872
2106.3,-98308,-83031,14552,-16548
2108.3,-99882,-84082,13402,-18184
2110.3,-101282,-85001,12637,-19367
2112.3,-102461,-85745,12162,-20107
2114.3,-103518,-86232,12019,-20441
2116.3,-104142,-86310,12368,-20252
2118.3,-104300,-86090,13005,-19737
2120.3,-104451,-85914,13561,-19313
2122.3,-104644,-85871,14122,-18922
2124.3,-104503,-85707,14930,-18262
2126.3,-104138,-85326,15780,-17505
2128.3,-104005,-85016,16438,-16934
2130.3,-104077,-85001,17075,-16400
2132.3,-104028,-85043,17727,-15840
2134.3,-103893,-84825,18080,-15564
2136.3,-103839,-84457,18118,-15601
2138.3,-103708,-84211,18202,-15573
2140.3,-103363,-84105,18461,-15344
2142.3,-103085,-84098,18708,-15120
2144.3,-103159,-84209,18768,-15073
2146.3,-103402,-84226,18632,-15208
2148.3,-103495,-83941,18499,-15346
2150.3,-103440,-83695,18618,-15247
2152.3,-103386,-83918,18907,-14965
2154.3,-103392,-84295,19047,-14818
2156.3,-103520,-84214,18951,-14921
2158.3,-103775,-83786,18791,-15108
2160.3,-103926,-83581,18721,-15202
2162.3,-103772,-83611,18800,-15136
2164.3,-103456,-83520,18943,-14986
2166.3,-103273,-83466,19007,-14893
2168.3,-103337,-83768,19042,-14830
2170.3,-103561,-84050,19136,-14723
2172.3,-103732,-83879,19141,-14711
2174.3,-103681,-83682,19010,-14845
2176.3,-103503,-83899,18989,-14890
2178.3,-103413,-84073,19094,-14813
2180.3,-103432,-83801,19071,-14845
2182.3,-103461,-83522,18983,-14926
2184.3,-103503,-83607,19055,-14849
2186.3,-103561,-83784,19135,-14764
2188.3,-103525,-83794,19086,-14797
2190.3,-103350,-83653,19140,-14711
2192.3,-103162,-83378,19338,-14483
2194.3,-103112,-83149,19349,-14467
2196.3,-103188,-83291,19151,-14681
2198.3,-103258,-83684,19098,-14749
2200.3,-103280,-83811,19243,-14617
2202.3,-103349,-83537,19291,-14582
2204.3,-103437,-83265,19215,-14661
2206.3,-103392,-83319,19284,-14579
2208.3,-103258,-83542,19495,-14352
2210.3,-103218,-83531,19509,-14329
2212.3,-103222,-83167,19298,-14540
2214.3,-103138,-82870,19260,-14592
2216.3,-103077,-83014,19475,-14397
2218.3,-103123,-83295,19567,-14312
2220.3,-103107,-83242,19460,-14415
2222.3,-102990,-83037,19429,-14442
2224.3,-102967,-83057,19471,-14389
2226.3,-103007,-83089,19444,-14385
2228.3,-102865,-82858,19455,-14336
2230.3,-102640,-82716,19531,-14241
2232.4,-102651,-82968,19529,-14259
2234.4,-102821,-83209,19540,-14278
2236.4,-102806,-83066,19675,-14161
2238.4,-102651,-82839,19726,-14116
2240.4,-102703,-82847,19598,-14251
2242.4,-102966,-82920,19508,-14343
2244.4,-103090,-82915,19540,-14313
2246.4,-102952,-82972,19623,-14245
2248.4,-102803,-83066,19754,-14132
2250.4,-102802,-82965,19826,-14064
2252.4,-102803,-82721,19741,-14140
2254.4,-102680,-82663,19711,-14163
2256.4,-102564,-82872,19843,-14027
2258.4,-102618,-83033,19877,-13998
2260.4,-102769,-82936,19748,-14140
2262.4,-102823,-82819,19736,-14160
2264.4,-102731,-82884,19877,-14021
2266.4,-102619,-82820,19937,-13961
2268.4,-102571,-82461,19888,-14002
2270.4,-102546,-82395,19909,-13972
2272.4,-102482,-82882,20058,-13839
2274.4,-102381,-83022,20177,-13762
2276.4,-102286,-82311,20088,-13884
2278.4,-102297,-81804,19924,-14059
2280.4,-102440,-82279,19990,-13977
2282.4,-102515,-82855,20225,-13709
2284.4,-102375,-82783,20317,-13600
2286.4,-102232,-82678,20298,-13626
2288.4,-102264,-82899,20372,-13558
2290.4,-102262,-82793,20427,-13507
2292.4,-102119,-82287,20356,-13598
2294.4,-102081,-82163,20345,-13626
2296.4,-102166,-82488,20444,-13515
2298.4,-102111,-82578,20479,-13464
2300.4,-101978,-82337,20465,-13483
2302.4,-101973,-82164,20517,-13427
2304.4,-101902,-82027,20586,-13338
2306.4,-101623,-81775,20630,-13285
2308.4,-101506,-81684,20697,-13231
2310.4,-101730,-81920,20759,-13179
2312.4,-101889,-82150,20779,-13155
2314.4,-101766,-82132,20764,-13154
2316.4,-101672,-82018,20682,-13222
2318.4,-101717,-81942,20588,-13314
2320.4,-101623,-81883,20635,-13269
2322.4,-101405,-81906,20741,-13153
2324.4,-101424,-82055,20676,-13205
2326.4,-101709,-82149,20495,-13382
2328.4,-101895,-82092,20406,-13461
2330.4,-101856,-82082,20395,-13460
2332.4,-101832,-82201,20363,-13494
2334.4,-101942,-82252,20311,-13556
2336.4,-102025,-82211,20246,-13625
2338.4,-102000,-82288,20176,-13694
2340.4,-101991,-82419,20139,-13732
2342.4,-102065,-82340,20092,-13777
2344.4,-102128,-82164,20009,-13855
2346.4,-102113,-82202,19985,-13874
2348.4,-102079,-82360,20009,-13839
2350.4,-102100,-82383,19944,-13884
2352.4,-102203,-82381,19810,-13995
2354.4,-102356,-82525,19723,-14060
2356.4,-102503,-82611,19652,-14108
2358.4,-102604,-82511,19576,-14169
2360.4,-102629,-82521,19566,-14180
2362.4,-102560,-82752,19591,-14162
2364.4,-102477,-82810,19573,-14177
2366.4,-102492,-82595,19573,-14165
2368.4,-102548,-82570,19637,-14095
2370.4,-102530,-82796,19666,-14070
2372.4,-102477,-82737,19603,-14143
2374.43,-102431,-82425,19522,-14243
2376.45,-102341,-82539,19486,-14297
2378.48,-102308,-83025,19462,-14320
2380.5,-102496,-83058,19400,-14369
2382.5,-102730,-82553,19357,-14412
2384.5,-102734,-82303,19431,-14335
2386.5,-102620,-82559,19543,-14194
2388.5,-102579,-82793,19546,-14154
2390.5,-102502,-82751,19531,-14156
2392.5,-102329,-82637,19593,-14089
2394.5,-102282,-82497,19579,-14091
2396.5,-102419,-82327,19476,-14202
2398.5,-102530,-82388,19502,-14202
2400.5,-102564,-82721,19586,-14135
2402.5,-102643,-82858,19483,-14245
2404.5,-102692,-82555,19365,-14383
2406.5,-102564,-82252,19472,-14297
2408.5,-102394,-82356,19613,-14149
2410.5,-102376,-82628,19610,-14121
2412.5,-102401,-82660,19582,-14126
2414.5,-102335,-82511,19573,-14140
2416.5,-102334,-82478,19552,-14185
2418.5,-102498,-82554,19564,-14183
2420.5,-102583,-82524,19541,-14191
2422.5,-102419,-82460,19458,-14263
2424.5,-102210,-82562,19537,-14189
2426.5,-102140,-82622,19739,-13978
2428.5,-102119,-82357,19710,-13984
2430.5,-102063,-82094,19537,-14148
2432.5,-102026,-82237,19575,-14124
2434.5,-102054,-82484,19677,-14036
2436.5,-102126,-82468,19613,-14104
2438.5,-102175,-82409,19615,-14102
2440.5,-102130,-82426,19752,-13965
2442.5,-102066,-82240,19715,-14002
2444.5,-102135,-81988,19558,-14148
2446.5,-102222,-82074,19629,-14054
2448.5,-102086,-82245,19859,-13809
2450.5,-101846,-82040,19961,-13704
2452.5,-101806,-81726,19967,-13688
2454.5,-101883,-81693,20027,-13626
2456.5,-101819,-81731,20093,-13595
2458.5,-101727,-81632,20045,-13689
2460.5,-101832,-81604,19902,-13854
2462.5,-101974,-81673,19835,-13929
2464.5,-101898,-81618,19955,-13813
2466.5,-101701,-81503,20128,-13618
2468.5,-101587,-81480,20188,-13521
2470.5,-101506,-81404,20183,-13511
2472.5,-101397,-81250,20207,-13487
2474.5,-101395,-81261,20203,-13465
2476.5,-101490,-81304,20120,-13507
2478.5,-101360,-81036,20052,-13553
2480.5,-100931,-80822,20161,-13448
2482.5,-100654,-81164,20416,-13189
2484.5,-100802,-81466,20503,-13074
2486.5,-101032,-80955,20274,-13265
2488.5,-101006,-80260,20093,-13414
2490.5,-100843,-80321,20220,-13254
2492.5,-100704,-80676,20319,-13126
2494.5,-100578,-80544,20169,-13270
2496.5,-100550,-80319,20066,-13388
2498.5,-100707,-80565,20097,-13376
2500.5,-100913,-80959,20013,-13480
2502.5,-101046,-81165,19904,-13616
2504.5,-101149,-81332,19986,-13559
2506.5,-101212,-81452,20057,-13501
2508.5,-101213,-81424,19948,-13607
2510.5,-101246,-81463,19842,-13698
2512.5,-101306,-81658,19772,-13770
2514.53,-101296,-81796,19611,-13959
2516.55,-101350,-81873,19498,-14098
2518.58,-101627,-81985,19576,-14026
2520.6,-101905,-81991,19687,-13924
2522.6,-101948,-81913,19692,-13930
2524.6,-101890,-81994,19627,-13991
2526.6,-101840,-82103,19529,-14082
2528.6,-101657,-81927,19481,-14139
2530.6,-101431,-81654,19532,-14089
2532.6,-101478,-81688,19532,-14064
2534.6,-101732,-82035,19419,-14151
2536.6,-101845,-82430,19391,-14180
2538.6,-101796,-82661,19477,-14111
2540.6,-101791,-82654,19489,-14112
2542.6,-101799,-82548,19437,-14164
2544.6,-101721,-82496,19437,-14149
2546.6,-101706,-82443,19444,-14114
2548.6,-101861,-82382,19449,-14085
2550.6,-101999,-82466,19522,-14000
2552.6,-101964,-82588,19570,-13949
2554.6,-101860,-82452,19489,-14036
2556.6,-101770,-82181,19384,-14159
2558.6,-101654,-82121,19354,-14210
2560.6,-101564,-82215,19363,-14211
2562.6,-101580,-82246,19369,-14206
2564.6,-101606,-82298,19330,-14245
2566.6,-101591,-82413,19251,-14320
2568.6,-101644,-82372,19273,-14278
2570.6,-101731,-82202,19457,-14068
2572.6,-101697,-82199,19601,-13917
2574.6,-101655,-82354,19537,-13996
2576.6,-101779,-82416,19379,-14172
2578.6,-101894,-82403,19329,-14235
2580.6,-101813,-82446,19404,-14177
2582.6,-101679,-82460,19440,-14154
2584.6,-101621,-82400,19371,-14220
2586.6,-101559,-82377,19369,-14208
2588.6,-101532,-82332,19480,-14076
2590.6,-101644,-82158,19467,-14069
2592.6,-101735,-82074,19327,-14199
2594.6,-101605,-82238,19370,-14167
2596.6,-101389,-82324,19528,-14027
2598.6,-101316,-82103,19458,-14112
2600.6,-101394,-81948,19279,-14298
2602.6,-101538,-82171,19289,-14280
2604.6,-101684,-82451,19357,-14198
2606.6,-101723,-82434,19332,-14224
2608.6,-101659,-82286,19337,-14248
2610.6,-101705,-82273,19336,-14307
2612.6,-101954,-82369,19248,-14462
2614.6,-102197,-82439,19297,-14458
2616.6,-102245,-82353,19529,-14243
2618.6,-102147,-82021,19662,-14110
2620.6,-102033,-81679,19757,-13996
2622.6,-101968,-81706,20084,-13609
2624.6,-101887,-81935,20441,-13154
2626.6,-101509,-81772,20510,-12940
2628.6,-100616,-81108,20403,-12804
2630.6,-99398,-80395,20263,-12577
2632.6,-98163,-79799,20070,-12321
2634.6,-96905,-79026,19982,-11911
2636.6,-95655,-78076,20101,-11259
2638.6,-94792,-77448,20089,-10775
2640.6,-94451,-77392,19608,-10903
2642.6,-94277,-77672,18742,-11586
2644.6,-94283,-78282,17682,-12622
2646.6,-95043,-79419,16441,-14042
2648.6,-96605,-80632,15082,-15783
2650.6,-98262,-81312,13920,-17397
2652.6,-99602,-81924,13281,-18403
2654.6,-100726,-83140,13193,-18750
2656.6,-101531,-84284,13435,-18712
2658.6,-101859,-84400,13780,-18524
2660.6,-102011,-83896,14079,-18335
2662.7,-102235,-83561,14383,-18149
2664.7,-102275,-83284,14969,-17706
2666.7,-101972,-82876,15871,-16913
2668.7,-101598,-82629,16694,-16144
2670.7,-101317,-82494,17317,-15591
2672.7,-101084,-82103,18031,-14994
2674.7,-101001,-81626,18718,-14415
2676.7,-101095,-81514,18991,-14208
2678.7,-101063,-81707,19048,-14200
2680.7,-100818,-81799,19203,-14091
2682.7,-100733,-81607,19202,-14131
2684.7,-100975,-81352,19018,-14347
2686.7,-101204,-81403,19157,-14217
2688.7,-101178,-81710,19573,-13777
2690.7,-101043,-81754,19709,-13626
2692.7,-100937,-81399,19597,-13750
2694.7,-100815,-81192,19612,-13749
2696.7,-100683,-81405,19666,-13707
2698.7,-100640,-81597,19613,-13791
2700.7,-100700,-81485,19600,-13836
2702.7,-100784,-81346,19642,-13806
2704.7,-100821,-81325,19650,-13812
2706.7,-100789,-81202,19685,-13792
2708.7,-100727,-80988,19734,-13727
2710.7,-100688,-80984,19758,-13666
2712.7,-100643,-81207,19904,-13504
2714.7,-100574,-81350,20093,-13315
2716.7,-100618,-81307,19988,-13422
2718.7,-100819,-81215,19714,-13718
2720.7,-100899,-81114,19697,-13759
2722.7,-100688,-80983,19838,-13597
2724.7,-100470,-80906,19798,-13587
2726.7,-100436,-80871,19696,-13669
2728.7,-100354,-80731,19761,-13606
2730.7,-100203,-80583,19888,-13452
2732.7,-100315,-80704,19932,-13360
2734.7,-100593,-80973,19902,-13381
2736.7,-100553,-80972,19840,-13485
2738.7,-100255,-80716,19817,-13548
2740.7,-100164,-80596,19868,-13502
2742.7,-100244,-80653,19881,-13486
2744.7,-100175,-80612,19801,-13572
2746.7,-100081,-80503,19756,-13613
2748.7,-100189,-80583,19835,-13520
2750.7,-100303,-80804,19978,-13370
2752.7,-100227,-80904,20094,-13244
2754.7,-100159,-80818,20107,-13206
2756.7,-100257,-80700,20031,-13266
2758.7,-100354,-80690,19996,-13310
2760.7,-100319,-80784,20058,-13261
2762.7,-100239,-80799,20129,-13184
2764.7,-100156,-80578,20157,-13134
2766.7,-100003,-80250,20155,-13123
2768.7,-99850,-80074,20118,-13169
2770.7,-99868,-80128,20087,-13216
2772.7,-100021,-80313,20128,-13181
2774.7,-100080,-80473,20185,-13119
2776.7,-100004,-80522,20175,-13117
2778.7,-99987,-80590,20136,-13144
2780.7,-100053,-80784,20137,-13147
2782.7,-99951,-80798,20175,-13133
2784.7,-99638,-80378,20212,-13109
2786.7,-99467,-80013,20244,-13062
2788.7,-99647,-80240,20318,-12971
2790.7,-99857,-80604,20424,-12864
2792.7,-99746,-80412,20447,-12851
2794.7,-99505,-80033,20385,-12934
2796.7,-99529,-80200,20404,-12940
2798.7,-99743,-80576,20485,-12867
2800.7,-99761,-80395,20462,-12890
2802.7,-99534,-79917,20419,-12947
2804.73,-99379,-79860,20502,-12869
2806.75,-99462,-80102,20571,-12784
2808.78,-99583,-80153,20527,-12811
2810.8,-99502,-80096,20506,-12819
2812.8,-99317,-80117,20501,-12809
2814.8,-99353,-80058,20423,-12890
2816.8,-99627,-79981,20444,-12909
2818.8,-99742,-80162,20645,-12749
2820.8,-99528,-80384,20753,-12648
2822.8,-99334,-80246,20659,-12737
2824.8,-99393,-79940,20619,-12786
2826.8,-99451,-79842,20761,-12652
2828.8,-99301,-79823,20909,-12494
2830.8,-99113,-79682,20907,-12479
2832.8,-99037,-79612,20827,-12563
2834.8,-99007,-79717,20846,-12575
2836.8,-99012,-79782,20957,-12490
2838.8,-99094,-79787,20968,-12480
2840.8,-99147,-79896,20899,-12541
2842.8,-99048,-79969,20961,-12482
2844.8,-98883,-79803,21059,-12387
2846.8,-98776,-79633,20983,-12447
2848.8,-98699,-79714,20947,-12446
2850.8,-98649,-79796,21137,-12210
2852.8,-98711,-79547,21234,-12081
2854.8,-98806,-79116,21099,-12206
2856.8,-98727,-78918,21079,-12217
2858.8,-98523,-79108,21226,-12052
2860.8,-98438,-79433,21255,-12021
2862.8,-98473,-79596,21236,-12053
2864.8,-98499,-79621,21308,-11979
2866.8,-98592,-79617,21203,-12069
2868.8,-98754,-79465,20872,-12406
2870.8,-98742,-79198,20754,-12552
2872.8,-98572,-79212,20972,-12362
2874.8,-98569,-79533,21120,-12229
2876.8,-98752,-79601,20967,-12372
2878.8,-98883,-79321,20694,-12616
2880.8,-99006,-79337,20552,-12739
2882.8,-99211,-79836,20608,-12677
2884.8,-99279,-80181,20686,-12586
2886.8,-99175,-80075,20613,-12646
2888.8,-99237,-79955,20494,-12778
2890.8,-99459,-80030,20454,-12842
2892.8,-99454,-80035,20399,-12906
2894.8,-99256,-79962,20314,-12998
2896.8,-99226,-80032,20293,-13042
2898.8,-99311,-80114,20247,-13116
2900.8,-99299,-80072,20155,-13220
2902.8,-99396,-80154,20207,-13155
2904.8,-99711,-80353,20325,-13011
2906.8,-99825,-80267,20252,-13067
2908.8,-99528,-80001,20149,-13168
2910.8,-99252,-80015,20224,-13084
2912.8,-99334,-80122,20236,-13050
2914.8,-99578,-79991,20086,-13184
2916.8,-99726,-80000,20084,-13180
2918.8,-99771,-80349,20226,-13043
2920.8,-99773,-80446,20205,-13083
2922.8,-99752,-80132,20105,-13208
2924.8,-99725,-80025,20134,-13185
2926.8,-99687,-80241,20141,-13162
2928.8,-99639,-80304,20039,-13245
2930.8,-99610,-80203,20048,-13228
2932.8,-99618,-80224,20150,-13117
2934.8,-99644,-80224,20102,-13152
2936.8,-99617,-79974,19984,-13271
2938.8,-99480,-79649,20034,-13240
2940.8,-99333,-79529,20136,-13151
2942.8,-99337,-79657,20063,-13226
2944.83,-99435,-79847,19943,-13356
2946.85,-99448,-79985,20041,-13278
2948.88,-99433,-80263,20313,-13004
2950.9,-99560,-80732,20482,-12807
2952.9,-99720,-80871,20387,-12881
2954.9,-99673,-80400,20146,-13121
2956.9,-99445,-79922,20034,-13235
2958.9,-99243,-79838,20135,-13139
2960.9,-99160,-79723,20182,-13095
2962.9,-99203,-79503,20026,-13238
2964.9,-99353,-79705,19964,-13278
2966.9,-99441,-80098,20152,-13075
2968.9,-99311,-79910,20239,-12992
2970.9,-99142,-79425,20078,-13180
2972.9,-99219,-79580,20052,-13238
2974.9,-99448,-80268,20281,-13015
2976.9,-99523,-80612,20408,-12863
2978.9,-99441,-80401,20328,-12921
2980.9,-99405,-80080,20231,-13022
2982.9,-99419,-79899,20136,-13133
2984.9,-99353,-79864,20100,-13187
2986.9,-99256,-79949,20282,-13013
2988.9,-99258,-79990,20477,-12811
2990.9,-99310,-79812,20402,-12884
2992.9,-99244,-79549,20307,-12994
2994.9,-99064,-79436,20465,-12848
2996.9,-99011,-79471,20628,-12685
2998.9,-99190,-79568,20612,-12700
3000.9,-99297,-79682,20608,-12699
3002.9,-99087,-79654,20641,-12658
3004.9,-98845,-79382,20592,-12710
3006.9,-98883,-79170,20590,-12714
3008.9,-98968,-79334,20727,-12553
3010.9,-98856,-79596,20813,-12427
3012.9,-98784,-79446,20774,-12443
3014.9,-98871,-78915,20734,-12483
3016.9,-98809,-78503,20720,-12522
3018.9,-98529,-78496,20692,-12589
3020.9,-98383,-78719,20676,-12625
3022.9,-98482,-78843,20700,-12597
3024.9,-98558,-78750,20806,-12488
3026.9,-98457,-78545,20975,-12311
3028.9,-98292,-78351,21023,-12213
3030.9,-98186,-78243,20924,-12244
3032.9,-98090,-78266,20911,-12211
3034.9,-97895,-78339,20969,-12122
3036.9,-97704,-78357,20844,-12218
3038.9,-97795,-78435,20656,-12402
3040.9,-98162,-78644,20669,-12410
3042.9,-98437,-78741,20710,-12381
3044.9,-98463,-78668,20576,-12510
3046.9,-98481,-78805,20448,-12638
3048.9,-98633,-79178,20425,-12665
3050.9,-98730,-79299,20415,-12664
3052.9,-98624,-79120,20481,-12586
3054.9,-98465,-79115,20560,-12521
3056.9,-98509,-79408,20367,-12752
3058.9,-98818,-79773,20036,-13128
3060.9,-99165,-80085,19981,-13225
3062.9,-99292,-80152,20086,-13148
3064.9,-99239,-79911,20022,-13216
3066.9,-99241,-79810,19943,-13281
3068.9,-99308,-79980,20021,-13191
3070.9,-99233,-79824,20011,-13205
3072.9,-99012,-79399,19853,-13372
3074.9,-98886,-79607,19860,-13369
3076.9,-98945,-80321,20043,-13180
3078.9,-99049,-80409,20066,-13138
3080.9,-99131,-79903,19894,-13282
3082.9,-99210,-79865,19820,-13341
3084.9,-99233,-80335,19910,-13252
3086.9,-99167,-80478,19946,-13217
3088.9,-99107,-80203,19864,-13293
3090.9,-99126,-80064,19832,-13314
3092.9,-99190,-80191,19908,-13229
3094.93,-99195,-80266,19947,-13187
3096.95,-99020,-80117,19905,-13231
3098.98,-98779,-79950,19891,-13247
3101.0,-98859,-80085,19917,-13243
3103.0,-99272,-80450,19902,-13314
3105.0,-99436,-80587,19888,-13386
3107.0,-99134,-80363,19969,-13321
3109.0,-98925,-80170,20089,-13185
3111.0,-99127,-80241,20106,-13146
3113.0,-99345,-80352,19979,-13247
3115.0,-99315,-80307,19831,-13379
3117.0,-99235,-80229,19820,-13406
3119.0,-99208,-80310,19944,-13310
3121.0,-99174,-80503,20036,-13214
3123.0,-99172,-80554,19982,-13233
3125.0,-99194,-80342,19848,-13342
3127.0,-99166,-80120,19754,-13437
3129.0,-99169,-80169,19744,-13451
3131.0,-99217,-80351,19779,-13407
3133.0,-99086,-80351,19802,-13370
3135.0,-98804,-80199,19809,-13355
3137.0,-98762,-80099,19818,-13346
3139.0,-98992,-80017,19833,-13343
3141.0,-99090,-79931,19881,-13312
3143.0,-99023,-80060,19941,-13251
3145.0,-99126,-80347,19889,-13283
3147.0,-99346,-80380,19759,-13408
3149.0,-99351,-80201,19785,-13408
3151.0,-99199,-80308,19929,-13292
3153.0,-99176,-80671,19918,-13339
3155.0,-99292,-80792,19854,-13473
3157.0,-99401,-80618,20017,-13382
3159.0,-99460,-80408,20212,-13203
3161.0,-99441,-80123,20220,-13175
3163.0,-99325,-79761,20354,-13032
3165.0,-99203,-79577,20757,-12605
3167.0,-99111,-79509,21032,-12261
3169.0,-98848,-79228,21058,-12112
3171.0,-98185,-78816,21097,-11852
3173.0,-97138,-78538,21079,-11502
3175.0,-95907,-78189,20907,-11205
3177.0,-94643,-77418,20907,-10701
3179.0,-93426,-76343,21093,-9981
3181.0,-92396,-75420,20937,-9612
3183.0,-91730,-75048,20355,-9789
3185.0,-91494,-75343,19727,-10193
3187.0,-91673,-76059,18950,-10919
3189.0,-92280,-76886,17714,-12304
3191.0,-93348,-77808,16338,-14046
3193.0,-94873,-78830,15293,-15559
3195.0,-96713,-79729,14513,-16744
3197.0,-98400,-80479,13891,-17650
3199.0,-99329,-81330,13723,-18019
3201.0,-99459,-82113,14131,-17771
3203.0,-99420,-82259,14683,-17353
3205.0,-99597,-81740,15024,-17129
3207.0,-99693,-81227,15390,-16871
3209.0,-99536,-81175,16096,-16256
3211.0,-99467,-81358,16976,-15446
3213.0,-99566,-81280,17740,-14757
3215.0,-99456,-80795,18386,-14209
3217.0,-99125,-80304,18924,-13782
3219.0,-98929,-80180,19220,-13591
3221.0,-98839,-80141,19338,-13567
3223.0,-98640,-79811,19477,-13503
3225.0,-98519,-79576,19643,-13376
3227.0,-98598,-79861,19796,-13234
3229.0,-98639,-80197,19959,-13075
3231.0,-98641,-80089,20035,-13000
3233.0,-98756,-79885,19985,-13046
3235.03,-98667,-79817,19992,-13029
3237.05,-98221,-79502,20061,-12950
3239.08,-98061,-79055,19995,-13008
3241.1,-98510,-79145,19918,-13082
3243.1,-98844,-79653,20054,-12957
3245.1,-98602,-79836,20187,-12852
3247.1,-98325,-79689,20125,-12941
3249.1,-98374,-79676,20128,-12933
3251.1,-98399,-79669,20299,-12731
3253.1,-98302,-79442,20343,-12661
3255.1,-98413,-79340,20212,-12781
3257.1,-98621,-79489,20157,-12840
3259.1,-98519,-79421,20184,-12849
3261.1,-98272,-79113,20151,-12931
3263.1,-98328,-79156,20146,-12943
3265.1,-98565,-79599,20288,-12772
3267.1,-98603,-79861,20461,-12581
3269.1,-98514,-79776,20503,-12522
3271.1,-98504,-79623,20420,-12564
3273.1,-98465,-79474,20357,-12594
3275.1,-98348,-79362,20416,-12542
3277.1,-98338,-79449,20507,-12476
3279.1,-98395,-79543,20495,-12520
3281.1,-98318,-79323,20431,-12622
3283.1,-98228,-79074,20423,-12651
3285.1,-98317,-79241,20430,-12637
3287.1,-98389,-79598,20420,-12638
3289.1,-98257,-79684,20463,-12594
3291.1,-98140,-79426,20500,-12542
3293.1,-98207,-78972,20412,-12606
3295.1,-98291,-78663,20322,-12687
3297.1,-98275,-78909,20406,-12589
3299.1,-98232,-79383,20540,-12416
3301.1,-98133,-79310,20563,-12357
3303.1,-97938,-78904,20589,-12326
3305.1,-97826,-78972,20682,-12244
3307.1,-97944,-79265,20643,-12292
3309.1,-98133,-79137,20463,-12486
3311.1,-98181,-79054,20460,-12493
3313.1,-98102,-79468,20692,-12238
3315.1,-98026,-79577,20803,-12088
3317.1,-98029,-78938,20668,-12206
3319.1,-98085,-78497,20571,-12328
3321.1,-98097,-78792,20640,-12312
3323.1,-98046,-79117,20694,-12318
3325.1,-98052,-79043,20627,-12426
3327.1,-98166,-78916,20529,-12536
3329.1,-98233,-78844,20541,-12512
3331.1,-98127,-78726,20753,-12283
3333.1,-97932,-78777,21031,-11992
3335.1,-97788,-79020,21083,-11931
3337.1,-97747,-79078,20943,-12053
3339.1,-97773,-78947,20933,-12021
3341.1,-97798,-78987,21041,-11883
3343.1,-97827,-79101,21010,-11952
3345.1,-97921,-78989,20954,-12092
3347.1,-97994,-78853,21078,-12006
3349.1,-97900,-78922,21149,-11914
3351.1,-97742,-78928,21017,-12036
3353.1,-97707,-78777,21026,-12038
3355.1,-97681,-78772,21306,-11753
3357.1,-97558,-78857,21448,-11614
3359.1,-97586,-78738,21242,-11860
3361.1,-97793,-78623,20980,-12152
3363.1,-97745,-78757,20949,-12173
3365.1,-97431,-78813,21119,-11994
3367.1,-97378,-78619,21280,-11842
3369.1,-97544,-78534,21288,-11827
3371.1,-97406,-78622,21249,-11844
3373.1,-97142,-78558,21314,-11775
3375.1,-97289,-78414,21376,-11727
3377.1,-97588,-78506,21340,-11775
3379.1,-97557,-78739,21380,-11740
3381.1,-97466,-78841,21518,-11605
3383.2,-97611,-78831,21498,-11628
3385.2,-97652,-78827,21351,-11773
3387.2,-97399,-78802,21398,-11718
3389.2,-97198,-78669,21611,-11500
3391.2,-97180,-78446,21681,-11426
3393.2,-97117,-78310,21611,-11484
3395.2,-96975,-78384,21616,-11456
3397.2,-96921,-78509,21699,-11351
3399.2,-96977,-78472,21732,-11300
3401.2,-97056,-78357,21724,-11296
3403.2,-97087,-78288,21743,-11291
3405.2,-97040,-78154,21745,-11327
3407.2,-96981,-77973,21660,-11420
3409.2,-96991,-78031,21560,-11476
3411.2,-97011,-78293,21547,-11437
3413.2,-96981,-78339,21570,-11404
3415.2,-96984,-78123,21530,-11466
3417.2,-97060,-78091,21458,-11555
3419.2,-97142,-78373,21379,-11638
3421.2,-97228,-78562,21235,-11786
3423.2,-97325,-78418,21095,-11933
3425.2,-97346,-78234,21107,-11922
3427.2,-97352,-78379,21199,-11830
3429.2,-97521,-78791,21206,-11837
3431.2,-97717,-79042,21170,-11903
3433.2,-97679,-78903,21148,-11956
3435.2,-97607,-78683,21020,-12089
3437.2,-97813,-78788,20785,-12303
3439.2,-98052,-79113,20664,-12409
3441.2,-98001,-79283,20706,-12372
3443.2,-97886,-79252,20727,-12353
3445.2,-97954,-79209,20668,-12389
3447.2,-97991,-79133,20631,-12407
3449.2,-97858,-78876,20632,-12425
3451.2,-97765,-78527,20624,-12461
3453.2,-97807,-78412,20649,-12423
3455.2,-97929,-78750,20733,-12306
3457.2,-98182,-79310,20768,-12282
3459.2,-98475,-79568,20656,-12444
3461.2,-98500,-79396,20496,-12630
3463.2,-98260,-79251,20457,-12646
3465.2,-98128,-79367,20526,-12542
3467.2,-98191,-79361,20544,-12505
3469.2,-98171,-79066,20489,-12553
3471.2,-98016,-78948,20489,-12557
3473.2,-97997,-79216,20535,-12514
3475.2,-98199,-79439,20522,-12512
3477.2,-98348,-79376,20507,-12503
3479.2,-98254,-79281,20591,-12430
3481.2,-98115,-79275,20672,-12402
3483.2,-98167,-79227,20648,-12468
3485.2,-98260,-79139,20599,-12491
3487.2,-98148,-79098,20574,-12454
3489.2,-97997,-79125,20531,-12474
3491.2,-98076,-79228,20538,-12487
3493.2,-98204,-79316,20629,-12401
3495.2,-98107,-79264,20634,-12373
3497.2,-97964,-79224,20524,-12476
3499.2,-98019,-79351,20531,-12490
3501.2,-98121,-79391,20654,-12379
3503.2,-98097,-79187,20629,-12400
3505.2,-98032,-79044,20498,-12541
3507.2,-97965,-79060,20535,-12522
3509.2,-97841,-78926,20686,-12356
3511.2,-97750,-78725,20713,-12283
3513.2,-97790,-78876,20659,-12299
3515.2,-97884,-79238,20652,-12294
3517.2,-97990,-79311,20651,-12300
3519.2,-98099,-79114,20663,-12305
3521.2,-98072,-78988,20735,-12250
3523.2,-97897,-78958,20735,-12254
3525.23,-97842,-78901,20625,-12372
3527.25,-97971,-78830,20662,-12372
3529.28,-98001,-78741,20882,-12197
3531.3,-97886,-78698,20949,-12144
3533.3,-97905,-78837,20817,-12263
3535.3,-98073,-78911,20830,-12240
3537.3,-98148,-78601,21041,-12039
3539.3,-98135,-78364,21171,-11927
3541.3,-98118,-78664,21138,-11966
3543.3,-97927,-78758,21048,-12043
3545.3,-97549,-78075,21001,-12068
3547.3,-97367,-77701,21167,-11876
3549.3,-97531,-78412,21520,-11491
3551.3,-97688,-78952,21620,-11358
3553.3,-97632,-78337,21318,-11652
3555.3,-97574,-77650,21111,-11883
3557.3,-97632,-77853,21249,-11763
3559.3,-97615,-78203,21339,-11655
3561.3,-97425,-77991,21211,-11747
3563.3,-97233,-77681,21175,-11766
3565.3,-97166,-77724,21317,-11628
3567.3,-97092,-77871,21415,-11521
3569.3,-96892,-77842,21413,-11489
3571.3,-96728,-77687,21372,-11503
3573.3,-96754,-77514,21301,-11569
3575.3,-96734,-77298,21277,-11578
3577.3,-96453,-77020,21335,-11497
3579.3,-96271,-76951,21307,-11534
3581.3,-96624,-77479,21144,-11744
3583.3,-97251,-78423,21046,-11868
3585.3,-97586,-79021,21055,-11839
3587.3,-97572,-78919,20973,-11892
3589.3,-97506,-78572,20792,-12064
3591.3,-97530,-78494,20736,-12134
3593.3,-97678,-78706,20834,-12064
3595.3,-97900,-78954,20868,-12052
3597.3,-97944,-79047,20735,-12182
3599.3,-97751,-78995,20567,-12350
3601.3,-97659,-78962,20478,-12466
3603.3,-97786,-78968,20460,-12517
3605.3,-97833,-78896,20486,-12495
3607.3,-97793,-78891,20523,-12435
3609.3,-98011,-79172,20485,-12442
3611.3,-98436,-79487,20370,-12530
3613.3,-98656,-79543,20344,-12544
3615.3,-98579,-79607,20484,-12405
3617.3,-98402,-79854,20601,-12294
3619.3,-98228,-79840,20529,-12380
3621.3,-98131,-79445,20366,-12564
3623.3,-98158,-79281,20279,-12665
3625.3,-98189,-79561,20283,-12663
3627.3,-98156,-79742,20313,-12630
3629.3,-98156,-79559,20316,-12615
3631.3,-98153,-79328,20297,-12597
3633.3,-98042,-79274,20340,-12510
3635.3,-98004,-79401,20461,-12396
3637.3,-98195,-79651,20474,-12445
3639.3,-98354,-79795,20278,-12680
3641.3,-98292,-79705,20106,-12833
3643.3,-98258,-79674,20163,-12755
3645.3,-98360,-79819,20281,-12652
3647.3,-98323,-79752,20266,-12681
3649.3,-98119,-79419,20251,-12680
3651.3,-98023,-79279,20365,-12539
3653.3,-98053,-79328,20432,-12451
3655.3,-98064,-79242,20318,-12552
3657.3,-98140,-79364,20231,-12649
3659.3,-98286,-79999,20367,-12539
3661.3,-98258,-80389,20565,-12353
3663.3,-98060,-79947,20528,-12375
3665.33,-97931,-79358,20259,-12631
3667.35,-97865,-79221,20072,-12823
3669.38,-97820,-79185,20183,-12719
3671.4,-97985,-79162,20411,-12485
3673.4,-98258,-79558,20487,-12400
3675.4,-98210,-80093,20471,-12433
3677.4,-97927,-80065,20513,-12443
3679.4,-97930,-79565,20492,-12514
3681.4,-98196,-79252,20342,-12670
3683.4,-98288,-79389,20289,-12701
3685.4,-98203,-79714,20378,-12604
3687.4,-98222,-79867,20371,-12606
3689.4,-98351,-79811,20282,-12665
3691.4,-98478,-79872,20313,-12627
3693.4,-98563,-80108,20369,-12646
3695.4,-98515,-80097,20329,-12791
3697.4,-98408,-79785,20395,-12771
3699.4,-98565,-79686,20683,-12488
3701.4,-98938,-79837,20998,-12191
3703.4,-98993,-79684,21231,-11944
3705.4,-98585,-79219,21451,-11624
3707.4,-98107,-78958,21665,-11244
3709.4,-97545,-78773,21823,-10828
3711.4,-96455,-78103,21853,-10386
3713.4,-94968,-77109,21690,-10038
3715.4,-93697,-76331,21522,-9688
3717.4,-92756,-75671,21628,-9040
3719.4,-91890,-74902,21781,-8329
3721.4,-91221,-74454,21463,-8223
3723.4,-91006,-74714,20665,-8816
3725.4,-91188,-75438,19695,-9741
3727.4,-91752,-76411,18497,-11064
3729.4,-92845,-77656,17010,-12926
3731.4,-94316,-78876,15691,-14775
3733.4,-95793,-79734,14920,-16015
3735.4,-97121,-80416,14487,-16775
3737.4,-98155,-81074,14224,-17273
3739.4,-98572,-81376,14383,-17282
3741.4,-98459,-81217,14996,-16780
3743.4,-98466,-81038,15645,-16216
3745.4,-98882,-81041,16149,-15774
3747.4,-99199,-80962,16759,-15209
3749.4,-99019,-80720,17548,-14497
3751.4,-98644,-80474,18284,-13894
3753.4,-98426,-80143,18865,-13460
3755.4,-98300,-79661,19330,-13111
3757.4,-98181,-79416,19630,-12898
3759.4,-98109,-79625,19767,-12831
3761.4,-97987,-79808,19917,-12732
3763.4,-97783,-79607,20174,-12507
3765.4,-97750,-79380,20402,-12301
3767.4,-97939,-79328,20438,-12286
3769.4,-98006,-79139,20311,-12429
3771.4,-97881,-78944,20264,-12474
3773.4,-97886,-79279,20496,-12234
3775.4,-98006,-79859,20806,-11935
3777.4,-97916,-79845,20783,-11983
3779.4,-97742,-79300,20444,-12329
3781.4,-97879,-78976,20263,-12497
3783.4,-98189,-79002,20446,-12314
3785.4,-98237,-79010,20684,-12093
3787.4,-98053,-79058,20744,-12041
3789.4,-97956,-79335,20752,-12028
3791.4,-97994,-79509,20788,-11989
3793.4,-98046,-79246,20734,-12037
3795.4,-98084,-78935,20630,-12129
3797.4,-98071,-79102,20684,-12083
3799.4,-97997,-79535,20850,-11947
3801.4,-98003,-79701,20862,-11948
3803.4,-98116,-79636,20737,-12057
3805.4,-98107,-79686,20753,-12033
3807.4,-97905,-79689,20903,-11888
3809.4,-97756,-79269,20905,-11878
3811.4,-97759,-78696,20759,-12002
3813.5,-97704,-78564,20740,-12011
3815.5,-97498,-78734,20841,-11912
3817.5,-97360,-78622,20833,-11919
3819.5,-97479,-78435,20802,-11948
3821.5,-97750,-78844,20954,-11799
3823.5,-97922,-79526,21107,-11650
3825.5,-97935,-79559,21002,-11762
3827.5,-97965,-79097,20809,-11962
3829.5,-98070,-79008,20794,-11969
3831.5,-98047,-79225,20884,-11865
3833.5,-97822,-79094,20921,-11820
3835.5,-97661,-78749,20936,-11799
3837.5,-97740,-78748,20980,-11746
3839.5,-97852,-79034,21012,-11715
3841.5,-97787,-79259,21004,-11731
3843.5,-97658,-79344,20979,-11765
3845.5,-97642,-79253,20971,-11784
3847.5,-97701,-78996,21019,-11750
3849.5,-97713,-78864,21121,-11646
3851.5,-97677,-78995,21216,-11528
3853.5,-97675,-79092,21238,-11492
3855.5,-97715,-79028,21191,-11559
3857.5,-97703,-78975,21134,-11637
3859.5,-97544,-78800,21097,-11650
3861.5,-97316,-78352,21073,-11634
3863.5,-97242,-78150,21080,-11632
3865.5,-97388,-78543,21123,-11628
3867.5,-97536,-78853,21121,-11646
3869.5,-97506,-78597,21073,-11692
3871.5,-97400,-78475,21127,-11645
3873.5,-97347,-78955,21277,-11493
3875.5,-97355,-79291,21332,-11423
3877.5,-97463,-78973,21313,-11451
3879.5,-97672,-78641,21388,-11407
3881.5,-97742,-78792,21453,-11360
3883.5,-97515,-78989,21368,-11453
3885.5,-97244,-78832,21345,-11486
3887.5,-97205,-78547,21529,-11294
3889.5,-97296,-78437,21678,-11121
3891.5,-97322,-78499,21657,-11143
3893.5,-97275,-78554,21646,-11181
3895.5,-97142,-78454,21700,-11136
3897.5,-96938,-78302,21739,-11079
3899.5,-96913,-78366,21802,-11003
3901.5,-97186,-78588,21850,-10956
3903.5,-97404,-78620,21746,-11081
3905.5,-97328,-78505,21608,-11257
3907.5,-97270,-78617,21658,-11240
3909.5,-97416,-78857,21784,-11119
3911.5,-97407,-78770,21793,-11101
3913.5,-97099,-78450,21787,-11110
3915.5,-96884,-78450,21877,-11018
3917.5,-96912,-78766,21958,-10921
3919.5,-96898,-78822,21963,-10916
3921.5,-96806,-78475,21944,-10966
3923.5,-96871,-78229,21913,-11016
3925.5,-97054,-78339,21883,-11027
3927.5,-97150,-78474,21917,-10971
3929.5,-97149,-78385,22007,-10879
3931.5,-97076,-78248,22090,-10787
3933.5,-96896,-78220,22183,-10667
3935.5,-96745,-78279,22307,-10517
3937.5,-96774,-78426,22350,-10459
3939.5,-96838,-78551,22215,-10584
3941.5,-96735,-78390,22042,-10755
3943.5,-96583,-78049,22036,-10760
3945.5,-96590,-77963,22121,-10662
3947.5,-96661,-78083,22068,-10704
3949.5,-96610,-78005,21930,-10843
3951.5,-96546,-77878,21941,-10821
3953.5,-96671,-78044,22036,-10696
3955.53,-96875,-78150,21975,-10762
3957.55,-96897,-77917,21831,-10966
3959.58,-96772,-77972,21841,-11000
3961.6,-96794,-78633,21910,-10911
3963.6,-97061,-79072,21771,-11014
3965.6,-97322,-78822,21495,-11275
3967.6,-97350,-78587,21396,-11357
3969.6,-97302,-78778,21488,-11246
3971.6,-97469,-78911,21497,-11249
3973.6,-97776,-78891,21401,-11383
3975.6,-97907,-79182,21422,-11387
3977.6,-97820,-79611,21476,-11329
3979.6,-97706,-79513,21284,-11517
3981.6,-97659,-78921,20969,-11845
3983.6,-97706,-78476,20899,-11941
3985.6,-97863,-78503,21054,-11810
3987.6,-98013,-78866,21168,-11707
3989.6,-98051,-79266,21201,-11668
3991.6,-98030,-79380,21195,-11644
3993.6,-97998,-79164,21101,-11696
3995.6,-97940,-78961,20990,-11779
3997.6,-97906,-78981,20985,-11787
3999.6,-97936,-79103,21007,-11787
4001.6,-98008,-79288,20987,-11827
4003.6,-98116,-79512,21022,-11817
4005.6,-98192,-79493,21077,-11787
4007.6,-98122,-79249,21032,-11831
4009.6,-98031,-79329,20999,-11833
4011.6,-98096,-79723,21065,-11736
4013.6,-98158,-79666,21070,-11716
4015.6,-98041,-79127,21003,-11764
4017.6,-97963,-78949,21049,-11705
4019.6,-98075,-79229,21104,-11671
4021.6,-98138,-79314,20997,-11816
4023.6,-98019,-79222,20958,-11864
4025.6,-97897,-79322,21144,-11663
4027.6,-97854,-79326,21224,-11575
4029.6,-97826,-79015,21037,-11760
4031.6,-97828,-78852,20927,-11868
4033.6,-97824,-79003,21050,-11757
4035.6,-97737,-79019,21128,-11687
4037.6,-97684,-78810,21043,-11751
4039.6,-97797,-78759,20993,-11777
4041.6,-97952,-79004,21074,-11708
4043.6,-98016,-79320,21166,-11638
4045.6,-98014,-79417,21185,-11617
4047.6,-97925,-79168,21173,-11619
4049.6,-97761,-78881,21169,-11619
4051.6,-97725,-78975,21162,-11619
4053.6,-97860,-79269,21157,-11619
4055.6,-97943,-79274,21166,-11614
4057.6,-97938,-79093,21137,-11650
4059.6,-98011,-79182,21067,-11734
4061.6,-98056,-79425,21091,-11749
4063.6,-97880,-79310,21225,-11653
4065.6,-97665,-78874,21289,-11583
4067.6,-97666,-78710,21295,-11547
4069.6,-97768,-78974,21433,-11400
4071.6,-97777,-79135,21599,-11237
4073.6,-97756,-78936,21554,-11258
4075.6,-97784,-78754,21434,-11346
4077.6,-97798,-78722,21470,-11322
4079.6,-97816,-78572,21551,-11283
4081.6,-97927,-78468,21544,-11305
4083.6,-98052,-78706,21547,-11297
4085.6,-98038,-78808,21572,-11284
4087.6,-97904,-78305,21540,-11328
4089.6,-97716,-77797,21539,-11300
4091.6,-97446,-77939,21665,-11134
4093.6,-97192,-78293,21820,-10976
4095.63,-97172,-78265,21898,-10912
4097.65,-97320,-78106,21903,-10904
4099.68,-97314,-78165,21863,-10934
4101.7,-97118,-78129,21808,-10989
4103.7,-97038,-77743,21778,-11018
4105.7,-97191,-77483,21801,-10971
4107.7,-97276,-77746,21888,-10837
4109.7,-97009,-77993,21972,-10702
4111.7,-96588,-77646,21964,-10678
4113.7,-96467,-77217,21925,-10701
4115.7,-96665,-77418,21943,-10670
4117.7,-96783,-77874,21932,-10684
4119.7,-96775,-77925,21829,-10815
4121.7,-96940,-77831,21743,-10921
4123.7,-97163,-78054,21686,-10966
4125.7,-97098,-78356,21570,-11076
4127.7,-96982,-78443,21458,-11209
4129.7,-97220,-78502,21468,-11221
4131.7,-97601,-78668,21536,-11169
4133.7,-97814,-78817,21523,-11201
4135.7,-98019,-78985,21366,-11369
4137.7,-98268,-79256,21135,-11601
4139.7,-98274,-79432,21008,-11744
4141.7,-98081,-79353,21044,-11735
4143.7,-98050,-79251,21064,-11714
4145.7,-98171,-79351,20970,-11778
4147.7,-98203,-79474,20873,-11850
4149.7,-98184,-79459,20830,-11891
4151.7,-98218,-79482,20831,-11909
4153.7,-98189,-79576,20898,-11861
4155.7,-98076,-79480,20941,-11817
4157.7,-98079,-79318,20881,-11877
4159.7,-98251,-79525,20858,-11926
4161.7,-98388,-79887,20917,-11893
4163.7,-98342,-79847,20883,-11921
4165.7,-98182,-79630,20826,-11961
4167.7,-98044,-79732,20939,-11845
4169.7,-98020,-79856,21018,-11752
4171.7,-98135,-79639,20881,-11859
4173.7,-98299,-79458,20805,-11919
4175.7,-98347,-79561,20913,-11816
4177.7,-98247,-79642,20924,-11806
4179.7,-98131,-79628,20818,-11913
4181.7,-98095,-79653,20797,-11950
4183.7,-98147,-79585,20772,-11998
4185.7,-98318,-79553,20686,-12099
4187.7,-98519,-79880,20772,-12011
4189.7,-98497,-80117,20983,-11781
4191.7,-98255,-79709,20995,-11743
4193.7,-98156,-79350,20908,-11820
4195.7,-98292,-79750,21038,-11709
4197.7,-98305,-80090,21214,-11557
4199.7,-98104,-79605,21094,-11685
4201.7,-98070,-79148,20795,-11983
4203.7,-98344,-79478,20619,-12161
4205.7,-98585,-79908,20610,-12177
4207.7,-98569,-79840,20683,-12118
4209.7,-98460,-79700,20786,-12030
4211.7,-98412,-79729,20840,-11964
4213.7,-98314,-79581,20825,-11941
4215.7,-98067,-79330,20855,-11900
4217.7,-97903,-79462,20956,-11825
4219.7,-98129,-79938,20979,-11828
4221.7,-98570,-80244,20857,-11953
4223.7,-98747,-80211,20757,-12043
4225.7,-98614,-80100,20795,-11981
4227.7,-98544,-80056,20847,-11898
4229.7,-98635,-80025,20830,-11917
4231.7,-98682,-80044,20859,-11940
4233.7,-98676,-80148,20931,-11943
4235.73,-98756,-80181,20903,-12049
4237.75,-98899,-80073,20891,-12127
4239.78,-99006,-80017,21129,-11918
4241.8,-99015,-80029,21483,-11546
4243.8,-98870,-79825,21704,-11277
4245.8,-98594,-79373,21870,-11035
4247.8,-98251,-78976,22098,-10679
4249.8,-97723,-78720,22254,-10294
4251.8,-96847,-78416,22234,-9945
4253.8,-95702,-77932,22106,-9597
4255.8,-94464,-77149,21994,-9191
4257.8,-93212,-75971,22029,-8607
4259.8,-92102,-74780,22138,-7931
4261.8,-91411,-74273,21980,-7623
4263.8,-91191,-74595,21379,-7952
4265.8,-91255,-75281,20444,-8780
4267.8,-91657,-76097,19194,-10108
4269.8,-92748,-77206,17719,-11942
4271.8,-94493,-78552,16463,-13755
4273.8,-96226,-79806,15674,-15041
4275.8,-97421,-80757,15118,-15934
4277.8,-98208,-81296,14723,-16585
4279.8,-98842,-81376,14750,-16757
4281.8,-99261,-81304,15214,-16407
4283.8,-99394,-81448,15841,-15869
4285.8,-99335,-81582,16496,-15338
4287.8,-99140,-81278,17209,-14741
4289.8,-98877,-80783,18014,-13995
4291.8,-98675,-80550,18881,-13188
4293.8,-98548,-80427,19624,-12554
4295.8,-98472,-80177,20059,-12246
4297.8,-98515,-80008,20221,-12182
4299.8,-98545,-79926,20255,-12217
4301.8,-98341,-79655,20295,-12235
4303.8,-98135,-79410,20473,-12105
4305.8,-98262,-79519,20754,-11858
4307.8,-98430,-79663,20937,-11693
4309.8,-98269,-79575,21007,-11624
4311.8,-98102,-79598,21091,-11530
4313.8,-98289,-79789,21127,-11483
4315.8,-98509,-79740,21062,-11549
4317.8,-98442,-79548,21039,-11592
4319.8,-98311,-79563,21067,-11589
4321.8,-98308,-79513,21014,-11663
4323.8,-98303,-79166,20964,-11736
4325.8,-98273,-79025,21045,-11679
4327.8,-98312,-79313,21150,-11577
4329.8,-98319,-79462,21171,-11529
4331.8,-98210,-79265,21158,-11520
4333.8,-98129,-79244,21150,-11533
4335.8,-98120,-79564,21202,-11493
4337.8,-98074,-79775,21325,-11365
4339.8,-98077,-79686,21357,-11330
4341.8,-98246,-79586,21265,-11445
4343.8,-98369,-79651,21304,-11430
4345.8,-98288,-79716,21489,-11233
4347.8,-98271,-79598,21506,-11184
4349.8,-98411,-79348,21366,-11313
4351.8,-98296,-79125,21379,-11307
4353.8,-97869,-79013,21518,-11160
4355.8,-97779,-79094,21533,-11121
4357.8,-98261,-79396,21433,-11206
4359.8,-98599,-79593,21365,-11281
4361.8,-98284,-79291,21363,-11306
4363.8,-97805,-78794,21410,-11284
4365.8,-97768,-78786,21453,-11253
4367.8,-98034,-79233,21426,-11273
4369.8,-98155,-79506,21371,-11304
4371.8,-98062,-79408,21352,-11283
4373.8,-97982,-79225,21362,-11229
4375.8,-98046,-79132,21401,-11166
4377.8,-98184,-79175,21443,-11136
4379.8,-98241,-79324,21457,-11167
4381.8,-98121,-79367,21546,-11117
4383.8,-97881,-79226,21733,-10930
4385.83,-97730,-79155,21757,-10884
4387.85,-97813,-79240,21568,-11061
4389.88,-97982,-79228,21516,-11104
4391.9,-97944,-79050,21660,-10941
4393.9,-97716,-78940,21688,-10915
4395.9,-97598,-78977,21612,-11021
4397.9,-97671,-79015,21654,-10996
4399.9,-97763,-79018,21709,-10936
4401.9,-97846,-79126,21647,-10993
4403.9,-97951,-79357,21636,-11002
4405.9,-97940,-79492,21730,-10904
4407.9,-97805,-79375,21766,-10865
4409.9,-97771,-79116,21738,-10890
4411.9,-97812,-78842,21752,-10874
4413.9,-97704,-78554,21793,-10848
4415.9,-97533,-78374,21810,-10850
4417.9,-97501,-78488,21824,-10834
4419.9,-97500,-78824,21886,-10771
4421.9,-97437,-79132,21988,-10693
4423.9,-97455,-79217,22006,-10702
4425.9,-97513,-78959,21910,-10814
4427.9,-97414,-78511,21921,-10812
4429.9,-97255,-78325,22111,-10613
4431.9,-97251,-78568,22199,-10501
4433.9,-97382,-78874,22104,-10595
4435.9,-97532,-78945,22083,-10646
4437.9,-97583,-78882,22173,-10585
4439.9,-97447,-78887,22194,-10580
4441.9,-97311,-79002,22185,-10601
4443.9,-97415,-79056,22225,-10567
4445.9,-97555,-78879,22235,-10560
4447.9,-97461,-78681,22241,-10567
4449.9,-97382,-78779,22317,-10502
4451.9,-97545,-78981,22369,-10448
4453.9,-97655,-78965,22364,-10457
4455.9,-97509,-78908,22386,-10447
4457.9,-97358,-78972,22392,-10451
4459.9,-97348,-78902,22351,-10506
4461.9,-97327,-78698,22349,-10517
4463.9,-97202,-78661,22338,-10517
4465.9,-97011,-78660,22281,-10558
4467.9,-96841,-78449,22375,-10465
4469.9,-96832,-78318,22593,-10245
4471.9,-96965,-78487,22629,-10193
4473.9,-96988,-78589,22559,-10258
4475.9,-96828,-78402,22687,-10132
4477.9,-96743,-78203,22843,-9958
4479.9,-96855,-78205,22752,-10013
4481.9,-96969,-78342,22617,-10127
4483.9,-96962,-78484,22627,-10116
4485.9,-96945,-78492,22609,-10132
4487.9,-96995,-78405,22504,-10232
4489.9,-97039,-78476,22462,-10284
4491.9,-97040,-78712,22484,-10277
4493.9,-97051,-78801,22481,-10254
4495.9,-97082,-78725,22467,-10208
4497.9,-97088,-78761,22422,-10225
4499.9,-97081,-78836,22287,-10389
4501.9,-97126,-78663,22099,-10613
4503.9,-97247,-78458,21978,-10751
4505.9,-97424,-78709,22005,-10737
4507.9,-97604,-79261,22094,-10668
4509.9,-97733,-79460,22032,-10740
4511.9,-97804,-79185,21826,-10939
4513.9,-97804,-78895,21730,-11017
4515.9,-97681,-78792,21794,-10944
4517.9,-97571,-78786,21801,-10950
4519.9,-97740,-78961,21689,-11079
4521.9,-98094,-79279,21597,-11165
4523.9,-98210,-79421,21622,-11132
4525.93,-97974,-79374,21748,-11018
4527.95,-97672,-79354,21820,-10957
4529.98,-97556,-79232,21689,-11067
4532.0,-97728,-79010,21520,-11199
4534.0,-98114,-79164,21523,-11184
4536.0,-98364,-79654,21524,-11200
4538.0,-98257,-79795,21395,-11354
4540.0,-98065,-79567,21365,-11397
4542.0,-98070,-79560,21457,-11302
4544.0,-98178,-79689,21434,-11315
4546.0,-98266,-79534,21393,-11349
4548.0,-98324,-79365,21497,-11247
4550.0,-98276,-79493,21542,-11211
4552.0,-98137,-79557,21466,-11278
4554.0,-98089,-79370,21497,-11219
4556.0,-98158,-79323,21566,-11144
4558.0,-98179,-79500,21507,-11226
4560.0,-98099,-79537,21519,-11220
4562.0,-97984,-79417,21657,-11061
4564.0,-97932,-79452,21645,-11070
4566.0,-98035,-79623,21521,-11202
4568.0,-98162,-79626,21535,-11184
4570.0,-98059,-79397,21574,-11148
4572.0,-97862,-79197,21503,-11250
4574.0,-97940,-79266,21480,-11290
4576.0,-98187,-79521,21543,-11219
4578.0,-98207,-79682,21564,-11207
4580.0,-98064,-79651,21571,-11218
4582.0,-98088,-79578,21603,-11184
4584.0,-98214,-79536,21601,-11180
4586.0,-98157,-79429,21603,-11177
4588.0,-97970,-79270,21638,-11115
4590.0,-97919,-79265,21634,-11078
4592.0,-98016,-79466,21640,-11057
4594.0,-98031,-79563,21707,-11002
4596.0,-97916,-79359,21688,-11043
4598.0,-97893,-79209,21589,-11172
4600.0,-98031,-79446,21650,-11130
4602.0,-98073,-79709,21835,-10939
4604.0,-97945,-79563,21869,-10894
4606.0,-97947,-79288,21735,-11021
4608.0,-98117,-79258,21622,-11104
4610.0,-98038,-79250,21645,-11052
4612.0,-97651,-79002,21806,-10906
4614.0,-97496,-78729,21954,-10795
4616.0,-97806,-78721,21958,-10804
4618.0,-98116,-78963,21966,-10801
4620.0,-98042,-79153,22078,-10709
4622.0,-97777,-78948,22089,-10718
4624.0,-97626,-78503,21962,-10851
4626.0,-97581,-78432,21963,-10857
4628.0,-97541,-78826,22126,-10700
4630.0,-97545,-79067,22247,-10558
4632.0,-97618,-78836,22265,-10498
4634.0,-97636,-78412,22192,-10540
4636.0,-97541,-78078,22094,-10629
4638.0,-97463,-78003,22169,-10551
4640.0,-97468,-78223,22357,-10355
4642.0,-97439,-78383,22341,-10373
4644.0,-97314,-78233,22202,-10517
4646.0,-97171,-78120,22271,-10419
4648.0,-97036,-78218,22433,-10201
4650.0,-96884,-78140,22419,-10173
4652.0,-96765,-77862,22326,-10247
4654.0,-96733,-77829,22253,-10302
4656.0,-96757,-77946,22130,-10403
4658.0,-96775,-77833,22066,-10457
4660.0,-96784,-77812,22151,-10382
4662.0,-96893,-78354,22170,-10395
4664.0,-97177,-79040,22010,-10598
4666.0,-97428,-79146,21848,-10784
4668.0,-97436,-78765,21783,-10848
4670.0,-97455,-78580,21732,-10898
4672.0,-97765,-78875,21682,-10956
4674.0,-98073,-79311,21713,-10928
4676.03,-98056,-79559,21805,-10834
4678.05,-97952,-79666,21755,-10896
4680.08,-97967,-79758,21492,-11193
4682.1,-97921,-79836,21338,-11373
4684.1,-97889,-79923,21494,-11211
4686.1,-98180,-79992,21588,-11097
4688.1,-98565,-79889,21391,-11294
4690.1,-98537,-79668,21288,-11403
4692.1,-98215,-79625,21449,-11228
4694.1,-98093,-79795,21519,-11144
4696.1,-98228,-79916,21421,-11251
4698.1,-98355,-79900,21375,-11311
4700.1,-98393,-79853,21335,-11360
4702.1,-98371,-79819,21292,-11427
4704.1,-98256,-79820,21424,-11321
4706.1,-98134,-79899,21549,-11197
4708.1,-98198,-80012,21390,-11336
4710.1,-98387,-80069,21228,-11474
4712.1,-98419,-80051,21347,-11328
4714.1,-98273,-80024,21497,-11157
4716.1,-98212,-80090,21476,-11176
4718.1,-98305,-80218,21389,-11277
4720.1,-98381,-80224,21269,-11417
4722.1,-98414,-80118,21166,-11543
4724.1,-98464,-80108,21204,-11520
4726.1,-98434,-80162,21271,-11454
4728.1,-98283,-80087,21256,-11467
4730.1,-98163,-79933,21328,-11388
4732.1,-98152,-79854,21466,-11234
4734.1,-98201,-79903,21425,-11262
4736.1,-98285,-80103,21330,-11359
4738.1,-98338,-80316,21398,-11305
4740.1,-98315,-80362,21447,-11276
4742.1,-98357,-80474,21393,-11344
4744.1,-98508,-80818,21443,-11290
4746.1,-98545,-80790,21476,-11249
4748.1,-98406,-80018,21268,-11461
4750.1,-98285,-79352,21119,-11605
4752.1,-98235,-79531,21296,-11406
4754.1,-98207,-79969,21459,-11231
4756.1,-98257,-80001,21364,-11331
4758.1,-98338,-79967,21291,-11410
4760.1,-98344,-80168,21368,-11339
4762.1,-98372,-80123,21322,-11396
4764.1,-98446,-79624,21104,-11619
4766.1,-98394,-79384,21080,-11645
4768.1,-98312,-79959,21373,-11360
4770.1,-98451,-80758,21575,-11168
4772.1,-98670,-80891,21431,-11344
4774.1,-98778,-80530,21289,-11564
4776.1,-98950,-80474,21426,-11501
4778.1,-99171,-80668,21608,-11343
4780.1,-99055,-80375,21708,-11237
4782.1,-98626,-79653,21927,-10994
4784.1,-98331,-79286,22207,-10642
4786.1,-98190,-79355,22359,-10361
4788.1,-97783,-79233,22507,-9995
4790.1,-96975,-78806,22622,-9506
4792.1,-95943,-78431,22423,-9214
4794.1,-94718,-77908,22166,-8978
4796.1,-93318,-76754,22290,-8348
4798.1,-92154,-75353,22432,-7644
4800.1,-91715,-74723,22092,-7491
4802.1,-91881,-75171,21504,-7794
4804.1,-92121,-76051,20784,-8399
4806.1,-92396,-76882,19574,-9658
4808.1,-93205,-77881,18062,-11498
4810.1,-94657,-79215,16879,-13242
4812.1,-96191,-80459,16051,-14589
4814.1,-97342,-81197,15348,-15629
4816.13,-98157,-81576,15016,-16203
4818.15,-98772,-81856,15254,-16172
4820.18,-99122,-81940,15771,-15799
4822.2,-99212,-81734,16293,-15387
4824.2,-99229,-81452,16881,-14934
4826.2,-99242,-81292,17671,-14269
4828.2,-99059,-81153,18602,-13405
4830.2,-98623,-80823,19422,-12647
4832.2,-98268,-80315,19998,-12182
4834.2,-98271,-79981,20443,-11852
4836.2,-98420,-80104,20780,-11594
4838.2,-98398,-80406,20920,-11532
4840.2,-98269,-80391,21004,-11530
4842.2,-98171,-80057,21171,-11401
4844.2,-98007,-79769,21284,-11286
4846.2,-97838,-79741,21333,-11235
4848.2,-97980,-79925,21474,-11089
4850.2,-98387,-80062,21580,-10967
4852.2,-98576,-79928,21562,-10989
4854.2,-98411,-79725,21655,-10917
4856.2,-98231,-79704,21803,-10772
4858.2,-98180,-79639,21698,-10876
4860.2,-98111,-79501,21556,-11039
4862.2,-98055,-79774,21725,-10891
4864.2,-98146,-80282,21910,-10699
4866.2,-98273,-80171,21799,-10790
4868.2,-98301,-79567,21643,-10933
4870.2,-98320,-79429,21655,-10922
4872.2,-98375,-79743,21724,-10855
4874.2,-98328,-79752,21782,-10789
4876.2,-98197,-79448,21783,-10786
4878.2,-98187,-79302,21679,-10915
4880.2,-98313,-79339,21620,-11001
4882.2,-98380,-79455,21721,-10896
4884.2,-98327,-79743,21860,-10742
4886.2,-98237,-80062,21968,-10632
4888.2,-98120,-80075,22040,-10549
4890.2,-98026,-79820,21983,-10580
4892.2,-98076,-79668,21875,-10667
4894.2,-98152,-79772,21917,-10612
4896.2,-98005,-79927,22003,-10526
4898.2,-97800,-79899,21944,-10603
4900.2,-97889,-79679,21874,-10691
4902.2,-98136,-79427,21897,-10666
4904.2,-98189,-79324,21897,-10656
4906.2,-98089,-79390,21890,-10654
4908.2,-97983,-79457,21963,-10560
4910.2,-97851,-79459,22031,-10472
4912.2,-97823,-79526,22054,-10451
4914.2,-97969,-79539,22100,-10411
4916.2,-97945,-79216,22125,-10389
4918.2,-97672,-78863,22077,-10453
4920.2,-97669,-79039,22015,-10537
4922.2,-98004,-79439,21963,-10597
4924.2,-98067,-79428,21956,-10606
4926.2,-97794,-79289,22058,-10504
4928.2,-97714,-79519,22151,-10394
4930.2,-97788,-79689,22138,-10392
4932.2,-97605,-79362,22191,-10350
4934.2,-97386,-79034,22333,-10234
4936.2,-97559,-79169,22310,-10274
4938.2,-97879,-79460,22158,-10429
4940.2,-97864,-79536,22126,-10449
4942.2,-97593,-79449,22148,-10413
4944.2,-97529,-79364,22110,-10449
4946.2,-97816,-79350,22173,-10385
4948.2,-98078,-79348,22341,-10203
4950.2,-97989,-79292,22404,-10135
4952.2,-97757,-79309,22379,-10180
4954.2,-97701,-79401,22374,-10208
4956.2,-97703,-79265,22361,-10240
4958.2,-97606,-78990,22384,-10239
4960.2,-97554,-79056,22469,-10173
4962.2,-97522,-79245,22463,-10194
4964.3,-97326,-78983,22385,-10290
4966.3,-97236,-78666,22447,-10244
4968.3,-97562,-78904,22584,-10109
4970.3,-97863,-79195,22632,-10064
4972.3,-97646,-79042,22691,-10021
4974.3,-97305,-78964,22799,-9927
4976.3,-97361,-79176,22799,-9940
4978.3,-97541,-79144,22726,-10033
4980.3,-97474,-79026,22771,-10002
4982.3,-97413,-79406,22932,-9843
4984.3,-97575,-79763,23035,-9745
4986.3,-97648,-79287,22922,-9876
4988.3,-97442,-78476,22675,-10139
4990.3,-97238,-78204,22638,-10180
4992.3,-97215,-78309,22855,-9956
4994.3,-97233,-78385,22944,-9869
4996.3,-97232,-78681,22894,-9938
4998.3,-97242,-79239,23059,-9786
5000.3,-97180,-79423,23268,-9572
5002.3,-97069,-79030,23179,-9659
5004.3,-97009,-78699,23078,-9761
5006.3,-96864,-78742,23206,-9627
5008.3,-96619,-78745,23226,-9603
5010.3,-96654,-78612,23105,-9724
5012.3,-96979,-78791,23208,-9594
5014.3,-97064,-79238,23427,-9339
5016.3,-96906,-79325,23443,-9327
5018.3,-96966,-78885,23382,-9416
5020.3,-97078,-78428,23372,-9429
5022.3,-96928,-78369,23297,-9494
5024.3,-96913,-78626,23203,-9588
5026.3,-97187,-78837,23170,-9611
5028.3,-97159,-78794,23099,-9652
5030.3,-96819,-78714,23038,-9687
5032.3,-96832,-78832,23077,-9636
5034.3,-97088,-78937,23065,-9647
5036.3,-97038,-78857,22975,-9745
5038.3,-97004,-78903,22975,-9750
5040.3,-97426,-79184,22963,-9756
5042.3,-97814,-79269,22800,-9920
5044.3,-97743,-79054,22659,-10078
5046.3,-97631,-78974,22601,-10150
5048.3,-97759,-79116,22501,-10249
5050.3,-97779,-79134,22474,-10272
5052.3,-97576,-79028,22607,-10142
5054.3,-97484,-79113,22680,-10076
5056.3,-97593,-79387,22610,-10146
5058.3,-97717,-79576,22499,-10254
5060.3,-97867,-79625,22307,-10461
5062.3,-98080,-79659,22106,-10678
5064.3,-98143,-79628,22116,-10656
5066.3,-98023,-79447,22193,-10554
5068.3,-98032,-79350,22117,-10629
5070.3,-98161,-79535,22100,-10645
5072.3,-98055,-79675,22248,-10477
5074.3,-97849,-79511,22263,-10461
5076.3,-97997,-79480,22108,-10640
5078.3,-98297,-79822,22042,-10718
5080.3,-98269,-79958,22028,-10732
5082.3,-98132,-79737,21973,-10806
5084.3,-98248,-79925,22071,-10725
5086.3,-98282,-80595,22348,-10439
5088.3,-97942,-80724,22490,-10281
5090.3,-97676,-79994,22343,-10413
5092.3,-97827,-79269,22089,-10647
5094.3,-98052,-79110,21962,-10758
5096.3,-98042,-79285,22030,-10686
5098.3,-97962,-79532,22119,-10595
5100.3,-97974,-79713,22058,-10658
5102.3,-98058,-79710,21963,-10765
5104.3,-98246,-79645,21994,-10738
5106.33,-98463,-79672,22087,-10645
5108.35,-98420,-79664,22194,-10543
5110.38,-98090,-79611,22355,-10380
5112.4,-97892,-79762,22446,-10280
5114.4,-98019,-80051,22350,-10380
5116.4,-98131,-80124,22228,-10514
5118.4,-98027,-79961,22240,-10497
5120.4,-97975,-79784,22305,-10414
5122.4,-98081,-79617,22301,-10408
5124.4,-98091,-79440,22226,-10480
5126.4,-97970,-79378,22163,-10536
5128.4,-97957,-79465,22171,-10519
5130.4,-98027,-79598,22208,-10481
5132.4,-97991,-79710,22265,-10438
5134.4,-97953,-79771,22393,-10320
5136.4,-98067,-79747,22438,-10266
5138.4,-98155,-79663,22241,-10462
5140.4,-98055,-79560,22095,-10633
5142.4,-97943,-79452,22262,-10492
5144.4,-97980,-79375,22429,-10326
5146.4,-98042,-79339,22384,-10371
5148.4,-97995,-79289,22395,-10375
5150.4,-97901,-79239,22512,-10269
5152.4,-97873,-79277,22560,-10218
5154.4,-97933,-79348,22658,-10115
5156.4,-97988,-79260,22791,-9989
5158.4,-97927,-79041,22685,-10122
5160.4,-97805,-78961,22534,-10302
5162.4,-97789,-79067,22645,-10191
5164.4,-97850,-79051,22727,-10087
5166.4,-97780,-78799,22660,-10146
5168.4,-97600,-78618,22838,-9964
5170.4,-97587,-78671,23089,-9689
5172.4,-97802,-78712,22915,-9843
5174.4,-97915,-78587,22652,-10120
5176.4,-97687,-78477,22761,-10034
5178.4,-97321,-78529,22931,-9869
5180.4,-97152,-78648,22942,-9855
5182.4,-97174,-78690,23021,-9770
5184.4,-97131,-78630,23080,-9687
5186.4,-96970,-78567,22989,-9733
5188.4,-96858,-78546,23011,-9660
5190.4,-96784,-78435,23126,-9508
5192.4,-96602,-78325,23032,-9585
5194.4,-96471,-78557,22866,-9743
5196.4,-96676,-78889,22820,-9784
5198.4,-97059,-78676,22732,-9895
5200.4,-97248,-78285,22653,-10024
5202.4,-97266,-78600,22729,-9978
5204.4,-97375,-79202,22700,-10009
5206.4,-97603,-79238,22527,-10181
5208.4,-97823,-79248,22598,-10106
5210.4,-97973,-79750,22775,-9915
5212.4,-98028,-79825,22563,-10117
5214.4,-98024,-79186,22153,-10521
5216.4,-98031,-79052,22019,-10655
5218.4,-98037,-79691,22095,-10607
5220.4,-98033,-80021,22162,-10593
5222.4,-98037,-79818,22192,-10590
5224.4,-97918,-79629,22165,-10616
5226.4,-97629,-79417,22158,-10619
5228.4,-97527,-79240,22291,-10476
5230.4,-97840,-79619,22380,-10359
5232.4,-98208,-80237,22243,-10481
5234.4,-98296,-80267,22066,-10672
5236.4,-98297,-79953,21988,-10766
5238.4,-98385,-80007,21909,-10843
5240.4,-98415,-80253,21849,-10888
5242.4,-98368,-80331,21923,-10811
5244.4,-98411,-80523,22073,-10677
5246.4,-98478,-80890,22158,-10609
5248.4,-98354,-80852,22089,-10675
5250.4,-98132,-80251,21938,-10818
5252.4,-98126,-79786,21952,-10813
5254.4,-98368,-80002,22173,-10609
5256.43,-98534,-80550,22281,-10513
5258.45,-98444,-80721,22136,-10675
5260.48,-98310,-80404,21965,-10858
5262.5,-98354,-80159,21928,-10887
5264.5,-98464,-80275,21990,-10811
5266.5,-98432,-80320,22058,-10736
5268.5,-98281,-80026,22004,-10775
5270.5,-98209,-79895,21890,-10872
5272.5,-98289,-80243,21965,-10802
5274.5,-98386,-80538,22154,-10641
5276.5,-98404,-80437,22150,-10671
5278.5,-98425,-80389,22041,-10785
5280.5,-98428,-80557,22057,-10759
5282.5,-98245,-80473,22055,-10758
5284.5,-98045,-80210,21952,-10861
5286.5,-98233,-80350,21962,-10830
5288.5,-98638,-80685,22084,-10684
5290.5,-98667,-80577,22118,-10657
5292.5,-98353,-80247,22096,-10689
5294.5,-98257,-80207,22107,-10660
5296.5,-98439,-80268,22117,-10646
5298.5,-98501,-80285,22168,-10633
5300.5,-98394,-80598,22265,-10563
5302.5,-98368,-81032,22281,-10541
5304.5,-98437,-80988,22227,-10591
5306.5,-98456,-80607,22179,-10647
5308.5,-98461,-80421,22053,-10789
5310.5,-98605,-80397,21895,-11000
5312.5,-98867,-80384,21925,-11054
5314.5,-99048,-80510,22093,-10940
5316.5,-99076,-80635,22220,-10826
5318.5,-99077,-80481,22362,-10690
5320.5,-99029,-80194,22598,-10455
5322.5,-98767,-79963,22862,-10154
5324.5,-98401,-79713,23084,-9837
5326.5,-98110,-79467,23116,-9617
5328.5,-97601,-79239,22880,-9528
5330.5,-96513,-78792,22682,-9288
5332.5,-95091,-78081,22776,-8724
5334.5,-93772,-77328,22934,-8076
5336.5,-92682,-76547,22927,-7535
5338.5,-91944,-75821,22745,-7185
5340.5,-91726,-75636,22240,-7318
5342.5,-91791,-76194,21330,-8039
5344.5,-91868,-77077,20187,-9141
5346.5,-92305,-78004,18836,-10685
5348.5,-93552,-79122,17379,-12630
5350.5,-95287,-80361,16326,-14252
5352.5,-96753,-81210,15815,-15148
5354.5,-97665,-81390,15465,-15720
5356.5,-98284,-81332,15421,-15964
5358.5,-98799,-81614,16062,-15494
5360.5,-99104,-82103,16908,-14755
5362.5,-99168,-82241,17451,-14336
5364.5,-99133,-81981,18057,-13899
5366.5,-99022,-81666,18932,-13167
5368.5,-98797,-81364,19700,-12496
5370.5,-98618,-81066,20359,-11935
5372.5,-98525,-80906,21045,-11346
5374.5,-98259,-80748,21443,-11031
5376.5,-97862,-80349,21558,-10994
5378.5,-97800,-79950,21819,-10789
5380.5,-98166,-79915,22086,-10546
5382.5,-98541,-80156,22039,-10616
5384.5,-98679,-80379,22003,-10671
5386.5,-98605,-80383,22203,-10465
5388.5,-98371,-80130,22346,-10304
5390.5,-98220,-79931,22407,-10237
5392.5,-98368,-80022,22498,-10146
5394.5,-98537,-80091,22402,-10263
5396.53,-98419,-80021,22238,-10476
5398.55,-98256,-80286,22432,-10302
5400.58,-98280,-80695,22725,-9985
5402.6,-98250,-80323,22622,-10090
5404.6,-98067,-79420,22404,-10349
5406.6,-98063,-79303,22449,-10319
5408.6,-98343,-80001,22516,-10235
5410.6,-98550,-80288,22439,-10304
5412.6,-98481,-79945,22411,-10330
5414.6,-98365,-79814,22453,-10285
5416.6,-98424,-80073,22499,-10258
5418.6,-98510,-80241,22626,-10150
5420.6,-98425,-80243,22744,-10014
5422.6,-98262,-80205,22663,-10077
5424.6,-98173,-80006,22503,-10256
5426.6,-98093,-79727,22507,-10270
5428.6,-97999,-79722,22626,-10127
5430.6,-98052,-79961,22679,-10047
5432.6,-98228,-80064,22690,-10053
5434.6,-98300,-79990,22774,-10001
5436.6,-98274,-79977,22817,-9969
5438.6,-98334,-80003,22622,-10166
5440.6,-98428,-79921,22392,-10410
5442.6,-98354,-79802,22498,-10308
5444.6,-98141,-79743,22808,-9980
5446.6,-98005,-79710,22937,-9835
5448.6,-98018,-79741,22924,-9854
5450.6,-98062,-79838,22948,-9835
5452.6,-98058,-79824,22929,-9844
5454.6,-98063,-79698,22867,-9882
5456.6,-98080,-79670,22865,-9862
5458.6,-98011,-79669,22796,-9939
5460.6,-97884,-79519,22638,-10142
5462.6,-97858,-79455,22666,-10148
5464.6,-97933,-79630,22863,-9937
5466.6,-97968,-79618,22900,-9865
5468.6,-97951,-79245,22780,-9957
5470.6,-97957,-79035,22780,-9942
5472.6,-97990,-79223,22951,-9775
5474.6,-98047,-79414,23108,-9626
5476.6,-98083,-79485,23083,-9648
5478.6,-97935,-79648,22945,-9801
5480.6,-97639,-79756,22973,-9820
5482.6,-97553,-79597,23154,-9667
5484.6,-97813,-79440,23147,-9654
5486.6,-98045,-79539,23054,-9732
5488.6,-97940,-79683,23261,-9535
5490.6,-97656,-79593,23547,-9253
5492.6,-97493,-79351,23515,-9278
5494.6,-97544,-79346,23421,-9382
5496.6,-97716,-79832,23487,-9336
5498.6,-97866,-80382,23425,-9423
5500.6,-97919,-80277,23252,-9630
5502.6,-97880,-79638,23290,-9611
5504.6,-97785,-79241,23401,-9490
5506.6,-97703,-79243,23362,-9531
5508.6,-97667,-79220,23361,-9551
5510.6,-97572,-79186,23459,-9455
5512.6,-97417,-79393,23491,-9409
5514.6,-97442,-79570,23529,-9381
5516.6,-97652,-79355,23613,-9331
5518.6,-97704,-79038,23585,-9386
5520.6,-97542,-79091,23539,-9444
5522.6,-97487,-79355,23620,-9367
5524.6,-97570,-79354,23647,-9350
5526.6,-97561,-79143,23600,-9414
5528.6,-97485,-79157,23701,-9314
5530.6,-97502,-79394,23829,-9166
5532.6,-97572,-79492,23803,-9182
5534.6,-97590,-79429,23820,-9179
5536.6,-97519,-79401,23909,-9115
5538.6,-97371,-79331,23843,-9207
5540.6,-97250,-79127,23764,-9302
5542.6,-97203,-78976,23864,-9198
5544.6,-97133,-78993,23925,-9127
5546.63,-97094,-79070,23917,-9130
5548.65,-97263,-79138,24079,-8953
5550.68,-97474,-79129,24241,-8769
5552.7,-97396,-78963,24148,-8849
5554.7,-97131,-78819,24037,-8950
5556.7,-96987,-78908,24075,-8904
5558.7,-96979,-79044,24068,-8922
5560.7,-96996,-78978,23999,-9000
5562.7,-97034,-78849,23965,-9013
5564.7,-97052,-78838,23893,-9065
5566.7,-97029,-78888,23861,-9106
5568.7,-97053,-78945,23978,-8978
5570.7,-97110,-79005,24006,-8900
5572.7,-97107,-79018,23839,-9034
5574.7,-97155,-79047,23728,-9148
5576.7,-97389,-79148,23650,-9234
5578.7,-97641,-79150,23418,-9467
5580.7,-97698,-79052,23267,-9621
5582.7,-97677,-79266,23366,-9514
5584.7,-97784,-79836,23430,-9441
5586.7,-97903,-80081,23371,-9500
5588.7,-97790,-79626,23374,-9491
5590.7,-97578,-79103,23330,-9520
5592.7,-97604,-79170,23113,-9740
5594.7,-97779,-79512,22959,-9911
5596.7,-97730,-79514,22983,-9889
5598.7,-97550,-79376,23026,-9836
5600.7,-97659,-79652,23064,-9795
5602.7,-98011,-80123,23116,-9746
5604.7,-98216,-80170,23062,-9799
5606.7,-98248,-79915,22941,-9909
5608.7,-98318,-79916,22919,-9917
5610.7,-98361,-80125,22941,-9892
5612.7,-98224,-80177,22876,-9970
5614.7,-98082,-80185,22808,-10054
5616.7,-98207,-80357,22830,-10035
5618.7,-98497,-80464,22846,-10011
5620.7,-98593,-80288,22771,-10078
5622.7,-98403,-79998,22741,-10106
5624.7,-98158,-79789,22891,-9948
5626.7,-97980,-79676,23039,-9775
5628.7,-97851,-79668,22956,-9844
5630.7,-97914,-79784,22820,-9997
5632.7,-98205,-79946,22882,-9953
5634.7,-98351,-80018,22987,-9845
5636.7,-98152,-79908,22940,-9894
5638.7,-97971,-79686,22839,-10011
5640.7,-98084,-79627,22753,-10106
5642.7,-98272,-79915,22699,-10163
5644.7,-98324,-80345,22807,-10059
5646.7,-98246,-80546,22956,-9896
5648.7,-98088,-80419,22882,-9944
5650.7,-98025,-80184,22801,-10029
5652.7,-98230,-80052,22984,-9872
5654.7,-98481,-80028,23113,-9748
5656.7,-98476,-80037,22982,-9870
5658.7,-98333,-80058,22942,-9919
5660.7,-98241,-80032,23066,-9816
5662.7,-98125,-79894,23062,-9820
5664.7,-97994,-79777,22996,-9862
5666.7,-97998,-79829,23019,-9816
5668.7,-98081,-79905,22967,-9864
5670.7,-98122,-79875,22867,-9966
5672.7,-98156,-79934,22927,-9895
5674.7,-98133,-80126,23034,-9779
5676.7,-97980,-80147,23057,-9765
5678.7,-97906,-79923,23105,-9730
5680.7,-98067,-79698,23116,-9717
5682.7,-98213,-79570,23036,-9795
5684.7,-98157,-79566,23092,-9738
5686.7,-98071,-79717,23247,-9573
5688.7,-98007,-79701,23206,-9610
5690.7,-97835,-79267,23134,-9697
5692.7,-97712,-78915,23258,-9586
5694.8,-97885,-79110,23288,-9568
5696.8,-98166,-79434,23138,-9742
5698.8,-98219,-79499,23193,-9698
5700.8,-98083,-79615,23426,-9452
5702.8,-97918,-79809,23495,-9377
5704.8,-97706,-79600,23477,-9403
5706.8,-97535,-79098,23515,-9357
5708.8,-97607,-78893,23497,-9360
5710.8,-97765,-78922,23496,-9355
5712.8,-97692,-78798,23592,-9239
5714.8,-97548,-78736,23564,-9236
5716.8,-97613,-78987,23475,-9321
5718.8,-97615,-79115,23655,-9148
5720.8,-97275,-78823,23898,-8880
5722.8,-96950,-78555,23823,-8913
5724.8,-96910,-78545,23641,-9074
5726.8,-96811,-78367,23576,-9127
5728.8,-96538,-78018,23468,-9211
5730.8,-96517,-78222,23419,-9237
5732.8,-96802,-79069,23668,-8979
5734.8,-96967,-79613,23895,-8762
5736.8,-96965,-79329,23717,-8961
5738.8,-97069,-78806,23372,-9320
5740.8,-97254,-78671,23220,-9476
5742.8,-97433,-78900,23220,-9477
5744.8,-97697,-79225,23197,-9501
5746.8,-97932,-79400,23121,-9583
5748.8,-97918,-79308,23060,-9657
5750.8,-97823,-79230,23046,-9684
5752.8,-97894,-79470,23005,-9741
5754.8,-98002,-79751,22922,-9854
5756.8,-98013,-79767,22913,-9889
5758.8,-98065,-79870,22959,-9853
5760.8,-98180,-80302,22929,-9901
5762.8,-98168,-80527,22880,-9972
5764.8,-98040,-80197,22874,-9967
5766.8,-98042,-79875,22805,-10002
5768.8,-98250,-80086,22748,-10046
5770.8,-98400,-80441,22867,-9925
5772.8,-98254,-80338,22969,-9816
5774.8,-98004,-79941,22867,-9933
5776.8,-98037,-79866,22767,-10059
5778.8,-98299,-80242,22784,-10042
5780.8,-98397,-80621,22760,-10050
5782.8,-98287,-80692,22717,-10088
5784.8,-98262,-80551,22730,-10062
5786.8,-98360,-80366,22706,-10073
5788.8,-98383,-80213,22704,-10083
5790.8,-98336,-80128,22823,-9975
5792.8,-98355,-80132,22832,-9959
5794.8,-98438,-80291,22666,-10127
5796.8,-98480,-80595,22688,-10120
5798.8,-98417,-80749,22924,-9883
5800.8,-98291,-80553,22950,-9851
5802.8,-98256,-80334,22721,-10094
5804.8,-98351,-80380,22589,-10234
5806.8,-98369,-80451,22654,-10156
5808.8,-98207,-80404,22744,-10057
5810.8,-98122,-80498,22761,-10046
5812.8,-98293,-80713,22760,-10053
5814.8,-98471,-80773,22825,-9999
5816.8,-98434,-80791,22872,-9965
5818.8,-98381,-80874,22738,-10105
5820.8,-98472,-80643,22522,-10322
5822.8,-98475,-80078,22473,-10384
5824.8,-98297,-79926,22619,-10254
5826.8,-98270,-80448,22852,-10017
5828.8,-98512,-80843,23017,-9821
5830.8,-98656,-80584,22926,-9891
5832.8,-98536,-80244,22722,-10107
5834.8,-98439,-80448,22770,-10080
5836.83,-98493,-80874,22906,-9950
5838.85,-98490,-80861,22750,-10116
5840.88,-98383,-80443,22584,-10308
5842.9,-98356,-80213,22736,-10167
5844.9,-98471,-80429,22851,-10044
5846.9,-98631,-80797,22738,-10172
5848.9,-98750,-81003,22734,-10227
5850.9,-98788,-80944,22839,-10179
5852.9,-98824,-80654,22816,-10245
5854.9,-98980,-80426,22835,-10255
5856.9,-99106,-80540,22994,-10116
5858.9,-98927,-80706,23091,-10021
5860.9,-98577,-80473,23237,-9840
5862.9,-98434,-80027,23576,-9423
5864.9,-98404,-79743,23742,-9107
5866.9,-97973,-79474,23554,-9007
5868.9,-96892,-79005,23362,-8766
5870.9,-95399,-78437,23319,-8335
5872.9,-93914,-77721,23302,-7884
5874.9,-92720,-76734,23302,-7365
5876.9,-91883,-75881,23148,-7012
5878.9,-91447,-75725,22564,-7267
5880.9,-91477,-76236,21660,-8018
5882.9,-91819,-77045,20633,-8982
5884.9,-92343,-78079,19435,-10309
5886.9,-93357,-79426,18237,-11929
5888.9,-94980,-80814,17328,-13344
5890.9,-96552,-81765,16629,-14380
5892.9,-97550,-82216,16144,-15065
5894.9,-98232,-82460,16227,-15180
5896.9,-98737,-82475,16813,-14776
5898.9,-98845,-82104,17423,-14291
5900.9,-98808,-81724,18020,-13817
5902.9,-98996,-81716,18832,-13166
5904.9,-99077,-81667,19683,-12469
5906.9,-98782,-81181,20339,-11914
5908.9,-98556,-80716,20934,-11396
5910.9,-98619,-80680,21565,-10865
5912.9,-98589,-80679,22047,-10495
5914.9,-98380,-80377,22250,-10370
5916.9,-98319,-80132,22316,-10345
5918.9,-98425,-80228,22446,-10250
5920.9,-98443,-80314,22617,-10117
5922.9,-98335,-80070,22687,-10067
5924.9,-98229,-79820,22753,-10001
5926.9,-98173,-79989,22980,-9763
5928.9,-98170,-80366,23195,-9541
5930.9,-98203,-80504,23200,-9553
5932.9,-98186,-80414,23153,-9633
5934.9,-98076,-80254,23136,-9672
5936.9,-97974,-79931,23000,-9834
5938.9,-97998,-79582,22866,-10013
5940.9,-98134,-79643,22956,-9946
5942.9,-98330,-80061,23078,-9800
5944.9,-98554,-80330,23059,-9787
5946.9,-98655,-80302,23117,-9721
5948.9,-98497,-80149,23284,-9554
5950.9,-98272,-79940,23324,-9515
5952.9,-98219,-79832,23291,-9559
5954.9,-98210,-79979,23319,-9540
5956.9,-98113,-80140,23269,-9578
5958.9,-98119,-80150,23170,-9653
5960.9,-98265,-80295,23245,-9569
5962.9,-98284,-80556,23341,-9482
5964.9,-98165,-80427,23249,-9581
5966.9,-98140,-79949,23226,-9593
5968.9,-98210,-79734,23436,-9371
5970.9,-98294,-79858,23541,-9269
5972.9,-98415,-79845,23356,-9461
5974.9,-98443,-79628,23170,-9647
5976.9,-98270,-79580,23227,-9607
5978.9,-98137,-79800,23410,-9461
5980.9,-98191,-79989,23470,-9422
5982.9,-98185,-79944,23361,-9520
5984.9,-98042,-79788,23309,-9559
5986.93,-98014,-79687,23444,-9419
5988.95,-98109,-79631,23581,-9264
5990.98,-98073,-79632,23567,-9252
5993.0,-97910,-79770,23480,-9335
5995.0,-97857,-79933,23422,-9422
5997.0,-97982,-79906,23462,-9410
5999.0,-98118,-79778,23606,-9260
6001.0,-98137,-79780,23678,-9159
6003.0,-98107,-79847,23619,-9203
6005.0,-98092,-79754,23618,-9202
6007.0,-98011,-79537,23647,-9173
6009.0,-97863,-79427,23549,-9278
6011.0,-97760,-79463,23548,-9290
6013.0,-97694,-79454,23757,-9076
6015.0,-97647,-79347,23789,-9030
6017.0,-97744,-79321,23603,-9218
6019.0,-97888,-79365,23623,-9206
6021.0,-97801,-79225,23789,-9034
6023.0,-97625,-79034,23801,-9011
6025.0,-97690,-79248,23837,-8968
6027.0,-97797,-79712,23969,-8837
6029.0,-97662,-79750,23903,-8920
6031.0,-97548,-79347,23779,-9065
6033.0,-97658,-79143,23914,-8931
6035.0,-97682,-79281,24050,-8795
6037.0,-97528,-79394,23956,-8911
6039.0,-97568,-79456,23908,-8977
6041.0,-97849,-79663,23993,-8883
6043.0,-97978,-79858,24020,-8849
6045.0,-97843,-79762,24021,-8856
6047.0,-97668,-79451,24035,-8839
6049.0,-97525,-79219,23955,-8909
6051.0,-97387,-79235,23909,-8969
6053.0,-97359,-79371,24057,-8856
6055.0,-97471,-79366,24240,-8699
6057.0,-97573,-79231,24335,-8615
6059.0,-97604,-79239,24377,-8585
6061.0,-97610,-79386,24317,-8669
6063.0,-97537,-79385,24219,-8791
6065.0,-97380,-79242,24296,-8723
6067.0,-97323,-79224,24451,-8568
6069.0,-97421,-79331,24451,-8577
6071.0,-97458,-79375,24404,-8640
6073.0,-97357,-79344,24466,-8591
6075.0,-97292,-79282,24523,-8549
6077.0,-97294,-79145,24523,-8554
6079.0,-97232,-79024,24560,-8509
6081.0,-97167,-79057,24589,-8482
6083.0,-97195,-79080,24532,-8554
6085.0,-97154,-78906,24481,-8598
6087.0,-96977,-78796,24544,-8512
6089.0,-96929,-79008,24693,-8361
6091.0,-97059,-79202,24818,-8237
6093.0,-97042,-79013,24853,-8173
6095.0,-96895,-78775,24845,-8154
6097.0,-96980,-78891,24826,-8177
6099.0,-97166,-79048,24741,-8265
6101.0,-97036,-78880,24631,-8353
6103.0,-96820,-78732,24602,-8353
6105.0,-96947,-78941,24580,-8359
6107.0,-97107,-79114,24514,-8423
6109.0,-96923,-78890,24546,-8393
6111.0,-96803,-78649,24596,-8338
6113.0,-97097,-78871,24414,-8514
6115.0,-97388,-79408,24179,-8764
6117.0,-97369,-79765,24149,-8813
6119.0,-97366,-79674,24089,-8869
6121.0,-97535,-79362,23901,-9053
6123.0,-97611,-79315,23937,-9030
6125.0,-97537,-79537,24115,-8855
6127.0,-97533,-79496,23992,-8962
6129.0,-97649,-79212,23764,-9187
6131.0,-97797,-79403,23823,-9146
6133.0,-97956,-80060,23905,-9082
6135.0,-98058,-80297,23763,-9239
6137.03,-98000,-79939,23656,-9357
6139.05,-97868,-79698,23646,-9371
6141.08,-97861,-79783,23562,-9454
6143.1,-97986,-79843,23524,-9494
6145.1,-98095,-79897,23586,-9424
6147.1,-98150,-80097,23558,-9445
6149.1,-98210,-80205,23513,-9495
6151.1,-98212,-80069,23592,-9423
6153.1,-98068,-79873,23578,-9436
6155.1,-97925,-79718,23425,-9604
6157.1,-98013,-79640,23426,-9629
6159.1,-98248,-79816,23562,-9501
6161.1,-98322,-80200,23576,-9470
6163.1,-98152,-80368,23520,-9505
6165.1,-97975,-80170,23510,-9504
6167.1,-97961,-79972,23475,-9535
6169.1,-97981,-79961,23429,-9572
6171.1,-97900,-79877,23433,-9552
6173.1,-97864,-79685,23419,-9559
6175.1,-97984,-79695,23401,-9584
6177.1,-98032,-79844,23469,-9520
6179.1,-97912,-79807,23535,-9449
6181.1,-97952,-79756,23491,-9491
6183.1,-98221,-79957,23415,-9570
6185.1,-98282,-80041,23398,-9590
6187.1,-98027,-79748,23416,-9574
6189.1,-97868,-79576,23417,-9566
6191.1,-97917,-79820,23428,-9544
6193.1,-97953,-80065,23541,-9432
6195.1,-98042,-80082,23693,-9290
6197.1,-98270,-80098,23653,-9327
6199.1,-98330,-80137,23466,-9502
6201.1,-98093,-80024,23439,-9532
6203.1,-97900,-79812,23543,-9438
6205.1,-97893,-79670,23531,-9437
6207.1,-97846,-79688,23519,-9417
6209.1,-97755,-79853,23655,-9271
6211.1,-97859,-79945,23700,-9247
6213.1,-98098,-79783,23560,-9404
6215.1,-98151,-79608,23500,-9460
6217.1,-97954,-79715,23551,-9421
6219.1,-97773,-79855,23520,-9492
6221.1,-97792,-79673,23483,-9565
6223.1,-97916,-79441,23600,-9464
6225.1,-98005,-79588,23784,-9291
6227.1,-98022,-79841,23879,-9186
6229.1,-97949,-79675,23843,-9182
6231.1,-97817,-79307,23765,-9239
6233.1,-97793,-79317,23817,-9212
6235.1,-97920,-79591,23963,-9095
6237.1,-97979,-79607,23951,-9112
6239.1,-97869,-79397,23816,-9251
6241.1,-97792,-79313,23849,-9227
6243.1,-97827,-79293,24022,-9054
6245.1,-97766,-79138,24115,-8957
6247.1,-97535,-78957,24155,-8903
6249.1,-97354,-78857,24190,-8840
6251.1,-97340,-78760,24145,-8871
6253.1,-97317,-78657,24108,-8918
6255.1,-97153,-78616,24185,-8838
6257.1,-97024,-78655,24242,-8778
6259.1,-97086,-78768,24224,-8823
6261.1,-97111,-78778,24237,-8828
6263.1,-96860,-78463,24211,-8816
6265.1,-96584,-78108,24094,-8877
6267.1,-96636,-78255,24096,-8836
6269.1,-96848,-78723,24259,-8628
6271.1,-96873,-78857,24342,-8507
6273.1,-96785,-78680,24287,-8568
6275.1,-96819,-78659,24182,-8698
6277.13,-96922,-78748,24001,-8881
6279.15,-96977,-78720,23844,-9039
6281.18,-97072,-78844,23887,-9015
6283.2,-97283,-79270,23966,-8943
6285.2,-97493,-79515,23852,-9041
6287.2,-97563,-79326,23713,-9173
6289.2,-97512,-79198,23764,-9139
6291.2,-97486,-79438,23857,-9064
6293.2,-97589,-79653,23756,-9176
6295.2,-97771,-79626,23471,-9476
6297.2,-97920,-79702,23253,-9725
6299.2,-98001,-79979,23327,-9677
6301.2,-98037,-80098,23551,-9459
6303.2,-98051,-80026,23583,-9423
6305.2,-98088,-80083,23441,-9567
6307.2,-98157,-80220,23386,-9615
6309.2,-98178,-80170,23415,-9567
6311.2,-98132,-80086,23417,-9551
6313.2,-98094,-80220,23428,-9542
6315.2,-98048,-80303,23400,-9587
6317.2,-97942,-80060,23287,-9729
6319.2,-97873,-79871,23283,-9759
6321.2,-97914,-80121,23412,-9634
6323.2,-97978,-80444,23386,-9655
6325.2,-98055,-80363,23237,-9813
6327.2,-98207,-80075,23272,-9784
6329.2,-98278,-79971,23427,-9615
6331.2,-98148,-80018,23436,-9599
6333.2,-98083,-80083,23330,-9729
6335.2,-98268,-80191,23232,-9865
6337.2,-98413,-80278,23159,-9961
6339.2,-98295,-80257,23142,-9977
6341.2,-98154,-80245,23158,-9945
6343.2,-98214,-80354,23154,-9928
6345.2,-98357,-80515,23250,-9818
6347.2,-98405,-80631,23464,-9589
6349.2,-98308,-80580,23522,-9511
6351.2,-98113,-80301,23361,-9661
6353.2,-97970,-80068,23257,-9775
6355.2,-97989,-80179,23266,-9782
6357.2,-98093,-80428,23232,-9830
6359.2,-98197,-80502,23210,-9873
6361.2,-98320,-80465,23286,-9824
6363.2,-98405,-80337,23307,-9808
6365.2,-98339,-80013,23203,-9885
6367.2,-98233,-79831,23171,-9896
6369.2,-98290,-80125,23295,-9778
6371.2,-98427,-80415,23373,-9708
6373.2,-98407,-80240,23274,-9797
6375.2,-98274,-80084,23175,-9889
6377.2,-98255,-80397,23230,-9834
6379.2,-98328,-80722,23270,-9784
6381.2,-98295,-80619,23187,-9863
6383.2,-98172,-80380,23221,-9850
6385.2,-98135,-80342,23417,-9683
6387.2,-98246,-80468,23409,-9723
6389.2,-98487,-80690,23174,-10019
6391.2,-98819,-80937,23147,-10124
6393.2,-99074,-81029,23384,-9943
6395.2,-99114,-80921,23560,-9801
6397.2,-99024,-80700,23664,-9715
6399.2,-98885,-80326,23828,-9528
6401.2,-98656,-79889,23963,-9319
6403.2,-98359,-79736,24070,-9087
6405.2,-97934,-79787,24200,-8740
6407.2,-97110,-79448,24115,-8484
6409.2,-95859,-78655,23774,-8411
6411.2,-94538,-77941,23634,-8109
6413.2,-93324,-77296,23823,-7417
6415.2,-92190,-76376,23848,-6845
6417.2,-91380,-75669,23454,-6794
6419.2,-91125,-75846,22825,-7167
6421.2,-91239,-76578,21967,-7902
6423.2,-91627,-77412,20760,-9116
6425.2,-92556,-78630,19429,-10698
6427.23,-93986,-80134,18328,-12279
6429.25,-95413,-81085,17511,-13570
6431.28,-96577,-81315,16893,-14491
6433.3,-97593,-81471,16599,-14982
6435.3,-98376,-81735,16823,-14942
6437.3,-98663,-81838,17454,-14459
6439.3,-98635,-81836,18175,-13855
6441.3,-98783,-81828,18869,-13312
6443.3,-99039,-81608,19586,-12770
6445.3,-98850,-81165,20265,-12205
6447.3,-98344,-80843,20906,-11630
6449.3,-98275,-80757,21635,-10995
6451.3,-98593,-80640,22323,-10424
6453.3,-98488,-80395,22733,-10099
6455.3,-97968,-80299,22997,-9897
6457.3,-97776,-80362,23234,-9721
6459.3,-97933,-80127,23208,-9789
6461.3,-97954,-79645,23023,-9990
6463.3,-97925,-79672,23170,-9851
6465.3,-98069,-80188,23502,-9523
6467.3,-98137,-80156,23472,-9557
6469.3,-98037,-79477,23283,-9758
6471.3,-98043,-79338,23432,-9619
6473.3,-98141,-80013,23677,-9378
6475.3,-98111,-80427,23648,-9421
6477.3,-98052,-80175,23559,-9537
6479.3,-98112,-79957,23570,-9549
6481.3,-98153,-80056,23528,-9598
6483.3,-98041,-80068,23516,-9606
6485.3,-97869,-79850,23681,-9428
6487.3,-97784,-79603,23807,-9292
6489.3,-97852,-79436,23730,-9364
6491.3,-97989,-79426,23616,-9465
6493.3,-98049,-79633,23580,-9490
6495.3,-98078,-79920,23599,-9487
6497.3,-98235,-80127,23683,-9429
6499.3,-98413,-80235,23771,-9347
6501.3,-98332,-80152,23762,-9351
6503.3,-98033,-79819,23738,-9384
6505.3,-97856,-79521,23792,-9335
6507.3,-97888,-79518,23840,-9270
6509.3,-97854,-79610,23821,-9268
6511.3,-97658,-79627,23804,-9284
6513.3,-97599,-79726,23825,-9283
6515.3,-97848,-79749,23840,-9293
6517.3,-98154,-79399,23816,-9324
6519.3,-98273,-79204,23799,-9330
6521.3,-98219,-79709,23867,-9259
6523.3,-98000,-80084,23941,-9195
6525.3,-97684,-79535,23870,-9276
6527.3,-97565,-79043,23802,-9339
6529.3,-97719,-79499,23996,-9139
6531.3,-97806,-79886,24240,-8901
6533.3,-97730,-79396,24159,-8999
6535.3,-97793,-79055,23921,-9251
6537.3,-97995,-79508,23894,-9279
6539.3,-98027,-79812,23982,-9183
6541.3,-97916,-79547,23968,-9189
6543.3,-97911,-79508,23961,-9187
6545.3,-97943,-79804,24077,-9063
6547.3,-97804,-79688,24179,-8949
6549.3,-97577,-79223,24174,-8939
6551.3,-97490,-79148,24167,-8943
6553.3,-97564,-79463,24241,-8876
6555.3,-97624,-79592,24297,-8822
6557.3,-97587,-79408,24190,-8922
6559.3,-97572,-79195,24000,-9118
6561.3,-97630,-79118,23961,-9170
6563.3,-97633,-79142,24101,-9029
6565.3,-97548,-79148,24218,-8908
6567.3,-97465,-79075,24226,-8905
6569.3,-97357,-79045,24216,-8905
6571.3,-97228,-79140,24251,-8851
6573.3,-97280,-79201,24304,-8808
6575.3,-97517,-79206,24339,-8812
6577.33,-97644,-79447,24400,-8779
6579.35,-97601,-79894,24563,-8616
6581.38,-97569,-79959,24722,-8447
6583.4,-97500,-79408,24665,-8500
6585.4,-97334,-78867,24492,-8684
6587.4,-97289,-78867,24482,-8719
6589.4,-97391,-79099,24579,-8644
6591.4,-97351,-79159,24625,-8620
6593.4,-97199,-79246,24740,-8527
6595.4,-97253,-79512,24901,-8374
6597.4,-97427,-79513,24794,-8473
6599.4,-97371,-78996,24503,-8765
6601.4,-97134,-78508,24475,-8802
6603.4,-97036,-78573,24734,-8540
6605.4,-97143,-78917,24936,-8333
6607.4,-97276,-79047,24979,-8296
6609.4,-97293,-78988,24969,-8308
6611.4,-97191,-78969,24973,-8298
6613.4,-97060,-78921,25011,-8267
6615.4,-96966,-78756,24996,-8301
6617.4,-96910,-78738,24891,-8422
6619.4,-96924,-79070,24919,-8406
6621.4,-97069,-79392,25127,-8203
6623.4,-97242,-79246,25162,-8154
6625.4,-97216,-78844,24971,-8315
6627.4,-97005,-78758,24961,-8297
6629.4,-96902,-78952,25163,-8073
6631.4,-96984,-78862,25221,-7996
6633.4,-96969,-78451,25145,-8065
6635.4,-96779,-78332,25147,-8065
6637.4,-96708,-78651,25138,-8072
6639.4,-96825,-78830,25033,-8167
6641.4,-96854,-78692,24969,-8217
6643.4,-96756,-78716,24974,-8196
6645.4,-96742,-78940,24950,-8199
6647.4,-96781,-78869,24901,-8222
6649.4,-96776,-78598,24852,-8255
6651.4,-96866,-78693,24795,-8314
6653.4,-97042,-79028,24761,-8355
6655.4,-97063,-79058,24707,-8408
6657.4,-97009,-78908,24577,-8535
6659.4,-97158,-79031,24501,-8621
6661.4,-97402,-79324,24543,-8589
6663.4,-97496,-79447,24514,-8621
6665.4,-97505,-79361,24353,-8784
6667.4,-97466,-79110,24250,-8884
6669.4,-97288,-78791,24227,-8896
6671.4,-97203,-78772,24116,-8996
6673.4,-97498,-79216,23943,-9165
6675.4,-97879,-79675,23874,-9241
6677.4,-97909,-79762,23943,-9197
6679.4,-97707,-79671,24059,-9121
6681.4,-97615,-79644,24107,-9097
6683.4,-97704,-79661,24048,-9148
6685.4,-97942,-79797,23990,-9184
6687.4,-98242,-80057,24023,-9143
6689.4,-98346,-80107,24058,-9113
6691.4,-98188,-79894,24010,-9160
6693.4,-98071,-79885,23933,-9234
6695.4,-98078,-80081,23866,-9321
6697.4,-97935,-79898,23798,-9412
6699.4,-97678,-79392,23773,-9430
6701.4,-97699,-79281,23806,-9379
6703.4,-98026,-79609,23843,-9356
6705.4,-98276,-79812,23864,-9351
6707.4,-98281,-79877,23883,-9308
6709.4,-98198,-80142,23899,-9266
6711.4,-98120,-80380,23919,-9261
6713.4,-97987,-80165,23906,-9293
6715.4,-97819,-79700,23817,-9375
6717.4,-97793,-79506,23749,-9446
6719.4,-97978,-79672,23793,-9426
6721.4,-98091,-79858,23843,-9387
6723.4,-97862,-79807,23832,-9383
6725.5,-97563,-79623,23892,-9308
6727.5,-97662,-79604,24045,-9152
6729.5,-98043,-79811,24108,-9094
6731.5,-98201,-79912,24003,-9202
6733.5,-98037,-79673,23847,-9358
6735.5,-97842,-79444,23796,-9418
6737.5,-97737,-79655,23899,-9332
6739.5,-97715,-80021,24004,-9241
6741.5,-97863,-79960,23937,-9310
6743.5,-98073,-79580,23804,-9448
6745.5,-98007,-79396,23769,-9492
6747.5,-97728,-79439,23772,-9497
6749.5,-97699,-79462,23785,-9485
6751.5,-97938,-79518,23909,-9356
6753.5,-97987,-79679,24028,-9230
6755.5,-97798,-79745,23968,-9288
6757.5,-97704,-79593,23883,-9378
6759.5,-97656,-79325,23941,-9323
6761.5,-97481,-79114,24013,-9250
6763.5,-97480,-79162,23988,-9266
6765.5,-97846,-79477,23946,-9284
6767.5,-98139,-79660,23974,-9243
6769.5,-98044,-79468,24107,-9125
6771.5,-97884,-79304,24280,-8971
6773.5,-97923,-79527,24314,-8935
6775.5,-97982,-79758,24211,-9041
6777.5,-97904,-79534,24181,-9106
6779.5,-97745,-79083,24231,-9091
6781.5,-97550,-78885,24252,-9084
6783.5,-97398,-78967,24341,-9010
6785.5,-97433,-79057,24513,-8858
6787.5,-97568,-78997,24519,-8846
6789.5,-97491,-78797,24357,-8976
6791.5,-97160,-78610,24328,-8980
6793.5,-96921,-78581,24449,-8852
6795.5,-96989,-78624,24476,-8821
6797.5,-97176,-78613,24423,-8870
6799.5,-97271,-78642,24456,-8831
6801.5,-97281,-78719,24528,-8742
6803.5,-97189,-78632,24537,-8714
6805.5,-96908,-78437,24536,-8700
6807.5,-96570,-78368,24572,-8647
6809.5,-96401,-78277,24560,-8630
6811.5,-96386,-77985,24455,-8709
6813.5,-96430,-77841,24352,-8806
6815.5,-96599,-78121,24336,-8838
6817.5,-96851,-78526,24350,-8848
6819.5,-96964,-78808,24305,-8905
6821.5,-96976,-79005,24226,-8977
6823.5,-97136,-79006,24157,-9034
6825.5,-97354,-78818,24072,-9120
6827.5,-97375,-78873,23999,-9205
6829.5,-97371,-79286,23990,-9223
6831.5,-97634,-79539,23965,-9262
6833.5,-97942,-79447,23880,-9373
6835.5,-97946,-79457,23878,-9404
6837.5,-97789,-79676,23957,-9338
6839.5,-97712,-79643,23904,-9396
6841.5,-97609,-79325,23748,-9558
6843.5,-97480,-79325,23720,-9580
6845.5,-97574,-79748,23758,-9525
6847.5,-97799,-79903,23693,-9589
6849.5,-97832,-79592,23649,-9651
6851.5,-97797,-79546,23711,-9601
6853.5,-97968,-79977,23700,-9619
6855.5,-98157,-80140,23589,-9740
6857.5,-98170,-79887,23557,-9777
6859.5,-98195,-79925,23571,-9763
6861.5,-98210,-80174,23503,-9843
6863.5,-97955,-79904,23459,-9897
6865.5,-97675,-79525,23567,-9776
6867.53,-97847,-79988,23703,-9623
6869.55,-98246,-80745,23701,-9626
6871.58,-98315,-80557,23582,-9745
6873.6,-98114,-79756,23489,-9835
6875.6,-98058,-79610,23505,-9830
6877.6,-98177,-80177,23576,-9783
6879.6,-98278,-80566,23616,-9762
6881.6,-98324,-80540,23614,-9769
6883.6,-98295,-80464,23568,-9814
6885.6,-98126,-80368,23480,-9897
6887.6,-97952,-80163,23467,-9910
6889.6,-98004,-80067,23582,-9801
6891.6,-98210,-80185,23664,-9725
6893.6,-98301,-80306,23631,-9766
6895.6,-98262,-80353,23603,-9805
6897.6,-98281,-80404,23576,-9840
6899.6,-98323,-80405,23468,-9950
6901.6,-98213,-80354,23415,-10003
6903.6,-98056,-80331,23511,-9916
6905.6,-98117,-80214,23557,-9880
6907.6,-98319,-79962,23513,-9924
6909.6,-98320,-79880,23581,-9838
6911.6,-98099,-80037,23683,-9719
6913.6,-97977,-80102,23598,-9810
6915.6,-98033,-80050,23505,-9922
6917.6,-98079,-80111,23594,-9842
6919.6,-98137,-80215,23608,-9834
6921.6,-98336,-80266,23431,-10033
6923.6,-98474,-80354,23409,-10082
6925.6,-98308,-80303,23626,-9883
6927.6,-98037,-79962,23705,-9832
6929.6,-98004,-79852,23565,-10024
6931.6,-98299,-80422,23529,-10119
6933.6,-98831,-81153,23650,-10045
6935.6,-99296,-81287,23708,-10018
6937.6,-99267,-80793,23734,-10008
6939.6,-98829,-80112,23893,-9844
6941.6,-98545,-79605,24098,-9598
6943.6,-98495,-79390,24226,-9373
6945.6,-98148,-79284,24350,-9062
6947.6,-97302,-79046,24438,-8668
6949.6,-96224,-78654,24309,-8390
6951.6,-94995,-78051,24098,-8139
6953.6,-93575,-77034,24127,-7611
6955.6,-92272,-75790,24245,-6965
6957.6,-91440,-74987,24030,-6714
6959.6,-91047,-74990,23466,-6976
6961.6,-90973,-75596,22678,-7613
6963.6,-91382,-76591,21481,-8788
6965.6,-92418,-77903,19950,-10511
6967.6,-93820,-79247,18690,-12208
6969.6,-95182,-80269,17962,-13436
6971.6,-96374,-80954,17443,-14317
6973.6,-97435,-81473,17084,-14895
6975.6,-98259,-81800,17155,-14996
6977.6,-98733,-81857,17539,-14765
6979.6,-99004,-81780,17946,-14484
6981.6,-99261,-81687,18478,-14077
6983.6,-99366,-81492,19276,-13428
6985.6,-99072,-81199,20132,-12706
6987.6,-98579,-81026,20881,-12034
6989.6,-98387,-81019,21596,-11363
6991.6,-98516,-80909,22261,-10776
6993.6,-98460,-80552,22725,-10434
6995.6,-98061,-80169,22974,-10292
6997.6,-97747,-79989,23113,-10208
6999.6,-97752,-79951,23211,-10140
7001.6,-97853,-79908,23288,-10103
7003.6,-97899,-79873,23361,-10072
7005.6,-97892,-79866,23446,-10002
7007.6,-97779,-79766,23556,-9882
7009.6,-97694,-79550,23677,-9749
7011.6,-97928,-79461,23763,-9673
7013.6,-98345,-79660,23759,-9702
7015.6,-98480,-79933,23668,-9823
7017.63,-98293,-79990,23583,-9941
7019.65,-98113,-79872,23595,-9955
7021.68,-98036,-79805,23678,-9884
7023.7,-97983,-79801,23740,-9819
7025.7,-97994,-79685,23758,-9786
7027.7,-98045,-79469,23749,-9772
7029.7,-98000,-79417,23764,-9745
7031.7,-97889,-79607,23873,-9638
7033.7,-97854,-79720,23955,-9554
7035.7,-97908,-79544,23771,-9740
7037.7,-98009,-79395,23498,-10044
7039.7,-98116,-79598,23591,-9988
7041.7,-98103,-79869,23932,-9647
7043.7,-97924,-79752,23986,-9583
7045.7,-97789,-79386,23801,-9771
7047.7,-97852,-79215,23825,-9726
7049.7,-97952,-79215,23966,-9544
7051.7,-97892,-79096,23878,-9638
