t,carotid_880nm,carotid_660nm,brachial_880nm,brachial_660nm
3.8,-279.2,-154.8,-113.8,-76.887
13.7,-281.2,-154.8,-113.8,-76.887
23.6,-280.2,-154.8,-115.8,-76.887
33.5,-283.2,-154.8,-116.8,-75.887
43.4,-281.2,-154.8,-115.8,-75.887
53.2,-281.2,-154.8,-112.8,-74.887
63.1,-281.2,-154.8,-111.8,-73.887
73.0,-283.2,-153.8,-109.8,-73.887
82.9,-283.2,-154.8,-106.8,-71.887
92.8,-283.2,-154.8,-105.8,-71.887
102.7,-283.2,-152.8,-105.8,-69.887
112.6,-285.2,-154.8,-102.8,-70.887
122.4,-285.2,-155.8,-102.8,-69.887
132.3,-288.2,-153.8,-103.8,-68.887
142.2,-288.2,-154.8,-101.8,-68.887
152.1,-289.2,-154.8,-100.8,-68.887
162.0,-292.2,-154.8,-101.8,-68.887
171.9,-292.2,-154.8,-99.798,-66.887
181.8,-295.2,-155.8,-99.798,-67.887
191.6,-294.2,-154.8,-98.798,-66.887
201.5,-298.2,-155.8,-95.798,-64.887
211.4,-298.2,-155.8,-95.798,-65.887
221.3,-302.2,-155.8,-94.798,-64.887
231.2,-302.2,-155.8,-92.798,-62.887
241.1,-303.2,-155.8,-93.798,-61.887
251.0,-305.2,-156.8,-94.798,-62.887
260.8,-304.2,-156.8,-96.798,-62.887
270.7,-305.2,-155.8,-95.798,-63.887
280.6,-307.2,-156.8,-95.798,-62.887
290.5,-306.2,-155.8,-97.798,-62.887
300.4,-303.2,-154.8,-96.798,-62.887
310.3,-301.2,-154.8,-91.798,-60.887
320.2,-300.2,-153.8,-85.798,-57.887
330.0,-298.2,-154.8,-79.798,-55.887
339.9,-297.2,-154.8,-75.798,-54.887
349.8,-294.2,-152.8,-67.798,-52.887
359.7,-292.2,-151.8,-62.798,-50.887
369.6,-290.2,-151.8,-54.798,-49.887
379.5,-287.2,-150.8,-48.798,-46.887
389.4,-289.2,-151.8,-44.798,-46.887
399.2,-286.2,-150.8,-38.798,-43.887
409.1,-283.2,-149.8,-36.798,-41.887
419.0,-283.2,-149.8,-34.798,-42.887
428.9,-281.2,-149.8,-31.798,-42.887
438.8,-282.2,-149.8,-28.798,-39.887
448.7,-283.2,-149.8,-29.798,-40.887
458.6,-282.2,-149.8,-28.798,-40.887
468.4,-281.2,-149.8,-27.798,-40.887
478.3,-281.2,-149.8,-27.798,-39.887
488.2,-282.2,-148.8,-28.798,-40.887
498.1,-282.2,-148.8,-31.798,-41.887
508.0,-282.2,-146.8,-32.798,-41.887
517.9,-282.2,-146.8,-30.798,-40.887
527.8,-281.2,-145.8,-32.798,-40.887
537.6,-281.2,-145.8,-31.798,-40.887
547.5,-281.2,-145.8,-31.798,-39.887
557.4,-281.2,-145.8,-31.798,-41.887
567.3,-282.2,-144.8,-32.798,-41.887
577.2,-282.2,-144.8,-32.798,-41.887
587.1,-280.2,-145.8,-36.798,-40.887
597.0,-280.2,-145.8,-36.798,-40.887
606.8,-281.2,-144.8,-33.798,-39.887
616.7,-281.2,-144.8,-33.798,-39.887
626.6,-279.2,-142.8,-30.798,-38.887
636.5,-279.2,-142.8,-30.798,-38.887
646.4,-279.2,-142.8,-29.798,-37.887
656.3,-280.2,-142.8,-29.798,-37.887
666.2,-279.2,-142.8,-23.798,-35.887
676.0,-282.2,-141.8,-23.798,-35.887
685.9,-282.2,-141.8,-24.798,-34.887
695.8,-284.2,-141.8,-24.798,-34.887
705.7,-283.2,-141.8,-24.798,-33.887
715.6,-285.2,-142.8,-24.798,-33.887
725.5,-284.2,-139.8,-24.798,-33.887
735.4,-284.2,-141.8,-24.798,-33.887
745.2,-286.2,-141.8,-27.798,-34.887
755.1,-287.2,-140.8,-27.798,-34.887
765.0,-286.2,-139.8,-30.798,-34.887
774.9,-288.2,-141.8,-31.798,-35.887
784.8,-289.2,-141.8,-34.798,-36.887
794.7,-289.2,-140.8,-31.798,-36.887
804.6,-290.2,-140.8,-33.798,-35.887
814.4,-288.2,-139.8,-32.798,-37.887
824.3,-288.2,-138.8,-30.798,-34.887
834.2,-287.2,-139.8,-33.798,-34.887
844.1,-286.2,-139.8,-28.798,-33.887
854.0,-282.2,-137.8,-24.798,-32.887
863.9,-279.2,-137.8,-17.798,-30.887
873.8,-277.2,-137.8,-15.798,-27.887
883.6,-273.2,-136.8,-10.798,-27.887
893.5,-270.2,-134.8,-4.7975,-25.887
903.4,-268.2,-133.8,0.20248,-25.887
913.3,-266.2,-131.8,7.2025,-23.887
923.2,-264.2,-132.8,14.202,-20.887
933.1,-261.2,-130.8,19.202,-20.887
943.0,-259.2,-129.8,25.202,-19.887
952.8,-256.2,-128.8,26.202,-18.887
962.7,-258.2,-128.8,29.202,-17.887
972.6,-255.2,-127.8,29.202,-18.887
982.5,-251.2,-126.8,28.202,-19.887
992.4,-250.2,-126.8,30.202,-17.887
1002.3,-251.2,-126.8,28.202,-20.887
1012.2,-249.2,-125.8,28.202,-19.887
1022.0,-250.2,-124.8,26.202,-17.887
1031.9,-249.2,-124.8,27.202,-19.887
1041.8,-249.2,-124.8,24.202,-19.887
1051.7,-249.2,-123.8,24.202,-18.887
1061.6,-247.2,-122.8,24.202,-18.887
1071.5,-246.2,-121.8,23.202,-18.887
1081.3,-245.2,-121.8,20.202,-20.887
1091.2,-244.2,-120.8,19.202,-20.887
1101.1,-244.2,-120.8,17.202,-22.887
1111.0,-245.2,-119.8,15.202,-22.887
1120.9,-242.2,-118.8,16.202,-23.887
1130.8,-242.2,-118.8,13.202,-22.887
1140.7,-240.2,-117.8,13.202,-23.887
1150.6,-238.2,-118.8,13.202,-22.887
1160.4,-239.2,-117.8,16.202,-20.887
1170.3,-239.2,-117.8,15.202,-21.887
1180.2,-239.2,-117.8,13.202,-23.887
1190.1,-238.2,-116.8,16.202,-21.887
1200.0,-239.2,-116.8,14.202,-23.887
1209.9,-239.2,-116.8,12.202,-24.887
1219.7,-238.2,-116.8,12.202,-24.887
1229.6,-241.2,-115.8,11.202,-24.887
1239.5,-240.2,-114.8,11.202,-24.887
1249.4,-238.2,-114.8,14.202,-23.887
1259.3,-239.2,-115.8,13.202,-24.887
1269.2,-242.2,-115.8,12.202,-22.887
1279.1,-242.2,-115.8,10.202,-23.887
1288.9,-243.2,-115.8,9.2025,-24.887
1298.8,-244.2,-115.8,6.2025,-23.887
1308.7,-245.2,-115.8,4.2025,-24.887
1318.6,-246.2,-116.8,0.20248,-27.887
1328.5,-246.2,-116.8,-1.7975,-28.887
1338.4,-246.2,-116.8,-4.7975,-29.887
1348.3,-246.2,-116.8,-4.7975,-28.887
1358.1,-242.2,-115.8,-5.7975,-29.887
1368.0,-242.2,-115.8,-3.7975,-28.887
1377.9,-237.2,-114.8,1.2025,-26.887
1387.8,-237.2,-114.8,5.2025,-24.887
1397.7,-233.2,-113.8,10.202,-23.887
1407.6,-233.2,-113.8,14.202,-23.887
1417.5,-226.2,-111.8,20.202,-23.887
1427.3,-226.2,-111.8,24.202,-20.887
1437.2,-220.2,-109.8,29.202,-22.887
1447.1,-220.2,-109.8,33.202,-21.887
1457.0,-215.2,-107.8,37.202,-19.887
1466.9,-215.2,-107.8,36.202,-22.887
1476.8,-211.2,-106.8,40.202,-21.887
1486.7,-211.2,-106.8,40.202,-21.887
1496.5,-209.2,-105.8,39.202,-22.887
1506.4,-208.2,-106.8,39.202,-23.887
1516.3,-206.2,-104.8,35.202,-24.887
1526.2,-208.2,-104.8,34.202,-25.887
1536.1,-204.2,-104.8,36.202,-23.887
1546.0,-204.2,-103.8,36.202,-24.887
1555.9,-202.2,-102.8,36.202,-22.887
1565.7,-203.2,-103.8,35.202,-23.887
1575.6,-203.2,-102.8,35.202,-24.887
1585.5,-201.2,-102.8,35.202,-23.887
1595.4,-201.2,-102.8,32.202,-24.887
1605.3,-201.2,-102.8,30.202,-27.887
1615.2,-199.2,-101.8,24.202,-26.887
1625.1,-200.2,-101.8,24.202,-26.887
1634.9,-198.2,-100.8,18.202,-29.887
1644.8,-197.2,-101.8,18.202,-29.887
1654.7,-196.2,-101.8,19.202,-29.887
1664.6,-195.2,-100.8,19.202,-29.887
1674.5,-193.2,-100.8,18.202,-29.887
1684.4,-193.2,-100.8,18.202,-29.887
1694.3,-194.2,-99.797,16.202,-30.887
1704.1,-193.2,-100.8,16.202,-30.887
1714.0,-192.2,-99.797,16.202,-31.887
1723.9,-191.2,-97.797,16.202,-31.887
1733.8,-194.2,-99.797,12.202,-32.887
1743.7,-193.2,-98.797,12.202,-32.887
1753.6,-193.2,-98.797,10.202,-35.887
1763.5,-196.2,-98.797,10.202,-35.887
1773.3,-197.2,-99.797,9.2025,-34.887
1783.2,-197.2,-99.797,9.2025,-34.887
1793.1,-197.2,-98.797,5.2025,-37.887
1803.0,-198.2,-100.8,5.2025,-37.887
1812.9,-200.2,-99.797,2.2025,-36.887
1822.8,-198.2,-98.797,2.2025,-36.887
1832.7,-199.2,-98.797,-1.7975,-38.887
1842.5,-200.2,-99.797,-4.7975,-38.887
1852.4,-203.2,-99.797,-7.7975,-39.887
1862.3,-200.2,-99.797,-10.798,-42.887
1872.2,-200.2,-99.797,-14.798,-43.887
1882.1,-200.2,-99.797,-16.798,-44.887
1892.0,-198.2,-98.797,-18.798,-44.887
1901.9,-195.2,-98.797,-19.798,-44.887
1911.7,-195.2,-98.797,-15.798,-44.887
1921.6,-191.2,-98.797,-11.798,-40.887
1931.5,-190.2,-96.797,-7.7975,-41.887
1941.4,-184.2,-95.797,-8.7975,-41.887
1951.3,-183.2,-94.797,-4.7975,-43.887
1961.2,-179.2,-94.797,-5.7975,-43.887
1971.1,-177.2,-92.797,-3.7975,-46.887
1980.9,-174.2,-91.797,-0.79752,-43.887
1990.8,-171.2,-90.797,3.2025,-44.887
2000.7,-170.2,-90.797,6.2025,-44.887
2010.6,-170.2,-90.797,6.2025,-43.887
2020.5,-167.2,-90.797,12.202,-41.887
2030.4,-166.2,-89.797,15.202,-41.887
2040.3,-165.2,-89.797,18.202,-39.887
2050.1,-165.2,-89.797,16.202,-39.887
2060.0,-163.2,-88.797,15.202,-40.887
2069.9,-164.2,-87.797,15.202,-40.887
2079.8,-162.2,-88.797,12.202,-40.887
2089.7,-161.2,-86.797,12.202,-40.887
2099.6,-160.2,-86.797,13.202,-40.887
2109.5,-158.2,-85.797,14.202,-38.887
2119.3,-157.2,-85.797,15.202,-36.887
2129.2,-158.2,-86.797,16.202,-36.887
2139.1,-157.2,-86.797,16.202,-36.887
2149.0,-156.2,-85.797,15.202,-36.887
2158.9,-154.2,-85.797,11.202,-38.887
2168.8,-153.2,-84.797,8.2025,-39.887
2178.7,-153.2,-84.797,3.2025,-41.887
2188.5,-152.2,-83.797,-0.79752,-43.887
2198.4,-152.2,-83.797,-2.7975,-45.887
2208.3,-153.2,-84.797,-3.7975,-44.887
2218.2,-153.2,-84.797,-5.7975,-45.887
2228.1,-152.2,-83.797,-6.7975,-46.887
2238.0,-152.2,-83.797,-8.7975,-47.887
2247.9,-152.2,-84.797,-11.798,-48.887
2257.7,-152.2,-84.797,-10.798,-49.887
2267.6,-154.2,-83.797,-11.798,-48.887
2277.5,-154.2,-83.797,-15.798,-49.887
2287.4,-154.2,-83.797,-18.798,-52.887
2297.3,-154.2,-83.797,-20.798,-52.887
2307.2,-155.2,-84.797,-25.798,-55.887
2317.1,-155.2,-84.797,-26.798,-56.887
2326.9,-157.2,-85.797,-30.798,-57.887
2336.8,-157.2,-85.797,-31.798,-57.887
2346.7,-157.2,-84.797,-35.798,-59.887
2356.6,-158.2,-84.797,-39.798,-60.887
2366.5,-158.2,-83.797,-44.798,-64.887
2376.4,-159.2,-84.797,-47.798,-64.887
2386.3,-161.2,-83.797,-49.798,-65.887
2396.1,-162.2,-84.797,-52.798,-67.887
2406.0,-162.2,-83.797,-55.798,-66.887
2415.9,-163.2,-83.797,-57.798,-67.887
2425.8,-162.2,-83.797,-57.798,-68.887
2435.7,-162.2,-84.797,-54.798,-67.887
2445.6,-159.2,-83.797,-54.798,-67.887
2455.5,-154.2,-83.797,-50.798,-66.887
2465.3,-152.2,-82.797,-45.798,-66.887
2475.2,-149.2,-81.797,-43.798,-63.887
2485.1,-147.2,-81.797,-37.798,-63.887
2495.0,-144.2,-81.797,-33.798,-62.887
2504.9,-142.2,-80.797,-25.798,-60.887
2514.8,-140.2,-77.797,-23.798,-60.887
2524.7,-136.2,-76.797,-16.798,-59.887
2534.5,-134.2,-77.797,-15.798,-58.887
2544.4,-131.2,-75.797,-13.798,-58.887
2554.3,-131.2,-74.797,-12.798,-60.887
2564.2,-129.2,-75.797,-12.798,-59.887
2574.1,-128.2,-75.797,-12.798,-60.887
2584.0,-126.2,-75.797,-14.798,-61.887
2593.9,-128.2,-75.797,-15.798,-61.887
2603.7,-127.2,-75.797,-14.798,-63.887
2613.6,-128.2,-75.797,-20.798,-63.887
2623.5,-127.2,-76.797,-19.798,-63.887
2633.4,-130.2,-76.797,-19.798,-63.887
2643.3,-127.2,-76.797,-22.798,-63.887
2653.2,-126.2,-74.797,-22.798,-63.887
2663.1,-126.2,-75.797,-25.798,-65.887
2672.9,-126.2,-74.797,-25.798,-65.887
2682.8,-124.2,-75.797,-30.798,-66.887
2692.7,-124.2,-73.797,-30.798,-66.887
2702.6,-123.2,-73.797,-34.798,-66.887
2712.5,-123.2,-73.797,-34.798,-66.887
2722.4,-124.2,-72.797,-36.798,-67.887
2732.3,-124.2,-73.797,-36.798,-67.887
2742.1,-121.2,-73.797,-39.798,-70.887
2752.0,-123.2,-74.797,-39.798,-70.887
2761.9,-124.2,-73.797,-42.798,-71.887
2771.8,-125.2,-73.797,-42.798,-71.887
2781.7,-125.2,-73.797,-42.798,-72.887
2791.6,-125.2,-74.797,-42.798,-72.887
2801.5,-126.2,-73.797,-44.798,-73.887
2811.3,-127.2,-73.797,-44.798,-73.887
2821.2,-128.2,-74.797,-47.798,-73.887
2831.1,-131.2,-75.797,-47.798,-73.887
2841.0,-131.2,-76.797,-50.798,-74.887
2850.9,-132.2,-76.797,-52.798,-76.887
2860.8,-134.2,-75.797,-54.798,-76.887
2870.7,-136.2,-76.797,-55.798,-76.887
2880.5,-136.2,-77.797,-56.798,-77.887
2890.4,-138.2,-78.797,-57.798,-78.887
2900.3,-140.2,-77.797,-60.798,-79.887
2910.2,-140.2,-78.797,-62.798,-79.887
2920.1,-142.2,-77.797,-65.798,-82.887
2930.0,-142.2,-77.797,-65.798,-81.887
2939.9,-142.2,-78.797,-65.798,-81.887
2949.7,-142.2,-78.797,-68.798,-81.887
2959.6,-141.2,-78.797,-66.798,-80.887
2969.5,-139.2,-78.797,-63.798,-78.887
2979.4,-136.2,-77.797,-59.798,-77.887
2989.3,-135.2,-77.797,-52.798,-76.887
2999.2,-132.2,-76.797,-48.798,-74.887
3009.1,-129.2,-74.797,-40.798,-72.887
3018.9,-126.2,-74.797,-35.798,-70.887
3028.8,-126.2,-74.797,-32.798,-69.887
3038.7,-121.2,-72.797,-26.798,-69.887
3048.6,-121.2,-72.797,-23.798,-68.887
3058.5,-116.2,-70.797,-19.798,-68.887
3068.4,-116.2,-70.797,-15.798,-68.887
3078.3,-112.2,-69.797,-15.798,-67.887
3088.1,-112.2,-69.797,-13.798,-67.887
3098.0,-108.2,-69.797,-13.798,-69.887
3107.9,-108.2,-69.797,-13.798,-68.887
3117.8,-108.2,-68.797,-13.798,-68.887
3127.7,-108.2,-68.797,-16.798,-69.887
3137.6,-109.2,-69.797,-17.798,-70.887
3147.5,-109.2,-69.797,-20.798,-71.887
3157.3,-107.2,-67.797,-20.798,-72.887
3167.2,-107.2,-67.797,-23.798,-72.887
3177.1,-107.2,-68.797,-27.798,-73.887
3187.0,-107.2,-68.797,-27.798,-73.887
3196.9,-107.2,-67.797,-32.798,-76.887
3206.8,-104.2,-66.797,-35.798,-76.887
3216.7,-105.2,-67.797,-34.798,-77.887
3226.5,-107.2,-66.797,-37.798,-77.887
3236.4,-106.2,-67.797,-39.798,-78.887
3246.3,-107.2,-67.797,-41.798,-79.887
3256.2,-108.2,-67.797,-41.798,-78.887
3266.1,-108.2,-68.797,-44.798,-80.887
3276.0,-108.2,-67.797,-43.798,-80.887
3285.9,-107.2,-67.797,-42.798,-81.887
3295.7,-107.2,-66.797,-42.798,-79.887
3305.6,-106.2,-66.797,-43.798,-81.887
3315.5,-107.2,-66.797,-44.798,-79.887
3325.4,-107.2,-66.797,-42.798,-80.887
3335.3,-106.2,-65.797,-44.798,-79.887
3345.2,-108.2,-66.797,-45.798,-79.887
3355.1,-108.2,-65.797,-47.798,-81.887
3364.9,-109.2,-66.797,-48.798,-83.887
3374.8,-111.2,-66.797,-50.798,-83.887
3384.7,-110.2,-65.797,-52.798,-82.887
3394.6,-113.2,-68.797,-55.798,-85.887
3404.5,-114.2,-66.797,-58.798,-86.887
3414.4,-115.2,-66.797,-59.798,-86.887
3424.3,-116.2,-66.797,-62.798,-85.887
3434.1,-117.2,-66.797,-64.798,-86.887
3444.0,-118.2,-67.797,-66.798,-87.887
3453.9,-118.2,-67.797,-66.798,-88.887
3463.8,-119.2,-68.797,-67.798,-87.887
3473.7,-120.2,-67.797,-66.798,-87.887
3483.6,-118.2,-67.797,-64.798,-85.887
3493.5,-117.2,-66.797,-63.798,-86.887
3503.3,-116.2,-67.797,-60.798,-84.887
3513.2,-116.2,-67.797,-55.798,-84.887
3523.1,-113.2,-66.797,-53.798,-81.887
3533.0,-109.2,-64.797,-47.798,-80.887
3542.9,-106.2,-65.797,-43.798,-80.887
3552.8,-105.2,-63.797,-39.798,-79.887
3562.7,-103.2,-63.797,-34.798,-78.887
3572.5,-99.2,-61.797,-31.798,-77.887
3582.4,-97.2,-61.797,-29.798,-76.887
3592.3,-95.2,-59.797,-25.798,-77.887
3602.2,-94.2,-59.797,-24.798,-75.887
3612.1,-94.2,-59.797,-21.798,-77.887
3622.0,-93.2,-58.797,-21.798,-76.887
3631.8,-92.2,-59.797,-18.798,-75.887
3641.7,-92.2,-58.797,-19.798,-76.887
3651.6,-89.2,-58.797,-19.798,-75.887
3661.5,-91.2,-58.797,-18.798,-75.887
3671.4,-89.2,-58.797,-19.798,-75.887
3681.3,-90.2,-58.797,-23.798,-77.887
3691.2,-90.2,-57.797,-20.798,-76.887
3701.1,-91.2,-58.797,-20.798,-76.887
3710.9,-92.2,-58.797,-25.798,-78.887
3720.8,-90.2,-58.797,-25.798,-78.887
3730.7,-90.2,-58.797,-29.798,-78.887
3740.6,-89.2,-58.797,-29.798,-78.887
3750.5,-90.2,-57.797,-32.798,-80.887
3760.4,-91.2,-57.797,-32.798,-80.887
3770.2,-90.2,-58.797,-37.798,-81.887
3780.1,-90.2,-57.797,-37.798,-81.887
3790.0,-91.2,-57.797,-38.798,-82.887
3799.9,-89.2,-57.797,-38.798,-82.887
3809.8,-91.2,-57.797,-40.798,-82.887
3819.7,-91.2,-56.797,-40.798,-82.887
3829.6,-93.2,-56.797,-41.798,-83.887
3839.4,-91.2,-58.797,-41.798,-83.887
3849.3,-94.2,-57.797,-41.798,-82.887
3859.2,-94.2,-58.797,-41.798,-82.887
3869.1,-94.2,-57.797,-41.798,-82.887
3879.0,-94.2,-57.797,-41.798,-82.887
3888.9,-98.2,-58.797,-41.798,-82.887
3898.8,-98.2,-58.797,-41.798,-82.887
3908.6,-101.2,-58.797,-47.798,-83.887
3918.5,-101.2,-58.797,-47.798,-83.887
3928.4,-104.2,-59.797,-44.798,-83.887
3938.3,-104.2,-59.797,-46.798,-83.887
3948.2,-106.2,-60.797,-48.798,-84.887
3958.1,-106.2,-60.797,-52.798,-85.887
3968.0,-106.2,-60.797,-53.798,-85.887
3977.8,-106.2,-60.797,-55.798,-86.887
3987.7,-109.2,-61.797,-55.798,-85.887
3997.6,-109.2,-61.797,-60.798,-87.887
4007.5,-111.2,-61.797,-61.798,-87.887
4017.4,-111.2,-61.797,-65.798,-89.887
4027.3,-112.2,-61.797,-64.798,-88.887
4037.2,-112.2,-61.797,-63.798,-87.887
4047.0,-114.2,-61.797,-60.798,-86.887
4056.9,-109.2,-62.797,-55.798,-84.887
4066.8,-108.2,-61.797,-50.798,-83.887
4076.7,-106.2,-61.797,-48.798,-81.887
4086.6,-103.2,-60.797,-43.798,-81.887
4096.5,-100.2,-58.797,-39.798,-81.887
4106.4,-96.2,-57.797,-36.798,-79.887
4116.2,-95.2,-57.797,-30.798,-79.887
4126.1,-93.2,-55.797,-27.798,-78.887
4136.0,-91.2,-55.797,-26.798,-79.887
4145.9,-89.2,-54.797,-23.798,-79.887
4155.8,-87.2,-54.797,-20.798,-77.887
4165.7,-84.2,-52.797,-18.798,-79.887
4175.6,-84.2,-52.797,-17.798,-76.887
4185.4,-81.2,-51.797,-18.798,-77.887
4195.3,-81.2,-53.797,-17.798,-77.887
4205.2,-82.2,-53.797,-18.798,-77.887
4215.1,-82.2,-52.797,-18.798,-78.887
4225.0,-84.2,-52.797,-22.798,-78.887
4234.9,-83.2,-52.797,-24.798,-79.887
4244.8,-85.2,-53.797,-27.798,-81.887
4254.6,-84.2,-52.797,-31.798,-83.887
4264.5,-82.2,-53.797,-34.798,-84.887
4274.4,-85.2,-54.797,-34.798,-84.887
4284.3,-83.2,-52.797,-35.798,-84.887
4294.2,-84.2,-52.797,-40.798,-86.887
4304.1,-83.2,-53.797,-42.798,-85.887
4314.0,-85.2,-52.797,-43.798,-86.887
4323.8,-82.2,-52.797,-44.798,-86.887
4333.7,-83.2,-51.797,-46.798,-86.887
4343.6,-84.2,-52.797,-45.798,-88.887
4353.5,-84.2,-52.797,-48.798,-88.887
4363.4,-84.2,-52.797,-50.798,-88.887
4373.3,-86.2,-51.797,-47.798,-90.887
4383.2,-85.2,-52.797,-47.798,-88.887
4393.0,-88.2,-52.797,-49.798,-87.887
4402.9,-88.2,-53.797,-47.798,-88.887
4412.8,-87.2,-54.797,-47.798,-86.887
4422.7,-89.2,-55.797,-47.798,-85.887
4432.6,-90.2,-54.797,-49.798,-88.887
4442.5,-90.2,-54.797,-52.798,-88.887
4452.4,-90.2,-54.797,-52.798,-88.887
4462.2,-94.2,-54.797,-56.798,-90.887
4472.1,-96.2,-55.797,-58.798,-90.887
4482.0,-99.2,-56.797,-59.798,-92.887
4491.9,-99.2,-56.797,-63.798,-92.887
4501.8,-102.2,-56.797,-64.798,-91.887
4511.7,-103.2,-56.797,-65.798,-93.887
4521.6,-103.2,-56.797,-70.798,-94.887
4531.4,-104.2,-56.797,-72.798,-94.887
4541.3,-104.2,-56.797,-75.798,-96.887
4551.2,-106.2,-56.797,-76.798,-97.887
4561.1,-106.2,-56.797,-80.798,-97.887
4571.0,-105.2,-56.797,-79.798,-96.887
4580.9,-107.2,-57.797,-80.798,-97.887
4590.8,-103.2,-56.797,-80.798,-96.887
4600.6,-102.2,-55.797,-77.798,-96.887
4610.5,-101.2,-56.797,-73.798,-93.887
4620.4,-100.2,-56.797,-68.798,-92.887
4630.3,-94.2,-54.797,-64.798,-90.887
4640.2,-93.2,-53.797,-58.798,-89.887
4650.1,-88.2,-52.797,-57.798,-89.887
4660.0,-84.2,-51.797,-51.798,-88.887
4669.8,-83.2,-50.797,-47.798,-88.887
4679.7,-81.2,-49.797,-46.798,-87.887
4689.6,-78.2,-48.797,-41.798,-86.887
4699.5,-77.2,-49.797,-38.798,-85.887
4709.4,-71.2,-47.797,-40.798,-86.887
4719.3,-70.2,-46.797,-38.798,-85.887
4729.2,-70.2,-46.797,-38.798,-85.887
4739.0,-70.2,-46.797,-38.798,-87.887
4748.9,-70.2,-46.797,-38.798,-87.887
4758.8,-68.2,-46.797,-41.798,-89.887
4768.7,-68.2,-46.797,-41.798,-89.887
4778.6,-69.2,-47.797,-45.798,-88.887
4788.5,-69.2,-47.797,-45.798,-88.887
4798.4,-68.2,-46.797,-49.798,-90.887
4808.2,-68.2,-46.797,-49.798,-90.887
4818.1,-68.2,-46.797,-53.798,-91.887
4828.0,-68.2,-46.797,-53.798,-91.887
4837.9,-66.2,-46.797,-58.798,-94.887
4847.8,-66.2,-46.797,-58.798,-94.887
4857.7,-68.2,-47.797,-64.798,-94.887
4867.6,-68.2,-47.797,-64.798,-94.887
4877.4,-67.2,-46.797,-69.798,-98.887
4887.3,-67.2,-46.797,-69.798,-98.887
4897.2,-67.2,-46.797,-72.798,-98.887
4907.1,-67.2,-46.797,-72.798,-98.887
4917.0,-65.2,-45.797,-73.798,-97.887
4926.9,-67.2,-47.797,-73.798,-99.887
4936.8,-67.2,-46.797,-73.798,-97.887
4946.6,-70.2,-46.797,-74.798,-97.887
4956.5,-69.2,-46.797,-74.798,-98.887
4966.4,-71.2,-47.797,-73.798,-98.887
4976.3,-72.2,-47.797,-77.798,-98.887
4986.2,-71.2,-49.797,-75.798,-97.887
4996.1,-73.2,-49.797,-76.798,-98.887
5006.0,-72.2,-50.797,-79.798,-98.887
5015.8,-76.2,-51.797,-80.798,-98.887
5025.7,-80.2,-49.797,-84.798,-100.89
5035.6,-80.2,-51.797,-82.798,-97.887
5045.5,-83.2,-51.797,-85.798,-100.89
5055.4,-83.2,-53.797,-87.798,-101.89
5065.3,-86.2,-52.797,-90.798,-102.89
5075.2,-86.2,-53.797,-91.798,-102.89
5085.0,-88.2,-53.797,-94.798,-103.89
5094.9,-89.2,-54.797,-92.798,-102.89
5104.8,-90.2,-53.797,-96.798,-103.89
5114.7,-92.2,-54.797,-100.8,-104.89
5124.6,-94.2,-55.797,-103.8,-102.89
5134.5,-93.2,-54.797,-103.8,-103.89
5144.4,-94.2,-55.797,-103.8,-104.89
5154.2,-94.2,-55.797,-101.8,-104.89
5164.1,-93.2,-55.797,-101.8,-103.89
5174.0,-88.2,-54.797,-99.798,-103.89
5183.9,-86.2,-52.797,-93.798,-98.887
5193.8,-83.2,-51.797,-84.798,-97.887
5203.7,-79.2,-51.797,-81.798,-96.887
5213.6,-77.2,-50.797,-77.798,-93.887
5223.4,-70.2,-49.797,-73.798,-93.887
5233.3,-67.2,-49.797,-66.798,-91.887
5243.2,-65.2,-48.797,-63.798,-90.887
5253.1,-62.2,-47.797,-60.798,-90.887
5263.0,-60.2,-47.797,-56.798,-88.887
5272.9,-59.2,-46.797,-53.798,-87.887
5282.8,-55.2,-46.797,-54.798,-89.887
5292.6,-54.2,-45.797,-47.798,-88.887
5302.5,-54.2,-44.797,-47.798,-88.887
5312.4,-55.2,-45.797,-47.798,-87.887
5322.3,-52.2,-45.797,-45.798,-86.887
5332.2,-51.2,-43.797,-45.798,-84.887
5342.1,-53.2,-44.797,-45.798,-85.887
5352.0,-52.2,-44.797,-47.798,-85.887
5361.8,-52.2,-44.797,-46.798,-84.887
5371.7,-53.2,-43.797,-48.798,-84.887
5381.6,-55.2,-44.797,-48.798,-85.887
5391.5,-52.2,-45.797,-50.798,-83.887
5401.4,-53.2,-44.797,-49.798,-83.887
5411.3,-55.2,-45.797,-49.798,-83.887
5421.2,-54.2,-45.797,-48.798,-81.887
5431.0,-55.2,-45.797,-46.798,-82.887
5440.9,-55.2,-44.797,-47.798,-80.887
5450.8,-54.2,-45.797,-49.798,-80.887
5460.7,-55.2,-45.797,-49.798,-80.887
5470.6,-53.2,-44.797,-49.798,-81.887
5480.5,-55.2,-44.797,-47.798,-80.887
5490.4,-54.2,-45.797,-47.798,-81.887
5500.2,-57.2,-45.797,-47.798,-80.887
5510.1,-55.2,-47.797,-49.798,-79.887
5520.0,-57.2,-46.797,-48.798,-80.887
5529.9,-57.2,-46.797,-48.798,-79.887
5539.8,-57.2,-46.797,-50.798,-79.887
5549.7,-58.2,-47.797,-50.798,-80.887
5559.6,-60.2,-47.797,-51.798,-79.887
5569.4,-60.2,-47.797,-49.798,-78.887
5579.3,-60.2,-47.797,-52.798,-79.887
5589.2,-65.2,-47.797,-53.798,-79.887
5599.1,-65.2,-47.797,-51.798,-79.887
5609.0,-68.2,-48.797,-53.798,-78.887
5618.9,-68.2,-48.797,-56.798,-80.887
5628.8,-73.2,-50.797,-56.798,-80.887
5638.6,-73.2,-50.797,-56.798,-79.887
5648.5,-74.2,-52.797,-59.798,-79.887
5658.4,-74.2,-52.797,-59.798,-80.887
5668.3,-79.2,-53.797,-59.798,-79.887
5678.2,-79.2,-53.797,-60.798,-79.887
5688.1,-82.2,-53.797,-60.798,-79.887
5698.0,-82.2,-53.797,-62.798,-80.887
5707.8,-82.2,-54.797,-63.798,-78.887
5717.7,-82.2,-54.797,-63.798,-78.887
5727.6,-82.2,-55.797,-62.798,-76.887
5737.5,-82.2,-55.797,-61.798,-76.887
5747.4,-80.2,-54.797,-58.798,-74.887
5757.3,-78.2,-53.797,-53.798,-72.887
5767.2,-74.2,-51.797,-49.798,-71.887
5777.0,-72.2,-52.797,-49.798,-71.887
5786.9,-72.2,-52.797,-38.798,-67.887
5796.8,-66.2,-49.797,-38.798,-67.887
5806.7,-61.2,-48.797,-31.798,-64.887
5816.6,-60.2,-46.797,-31.798,-64.887
5826.5,-56.2,-46.797,-20.798,-62.887
5836.4,-53.2,-45.797,-20.798,-62.887
5846.2,-53.2,-45.797,-9.7975,-59.887
5856.1,-49.2,-45.797,-9.7975,-59.887
5866.0,-47.2,-45.797,-5.7975,-55.887
5875.9,-46.2,-44.797,-5.7975,-55.887
5885.8,-46.2,-44.797,-2.7975,-56.887
5895.7,-46.2,-44.797,-2.7975,-56.887
5905.6,-43.2,-44.797,-4.7975,-56.887
5915.4,-44.2,-44.797,-4.7975,-56.887
5925.3,-44.2,-44.797,-6.7975,-55.887
5935.2,-45.2,-44.797,-6.7975,-55.887
5945.1,-46.2,-45.797,-7.7975,-55.887
5955.0,-46.2,-45.797,-7.7975,-55.887
5964.9,-45.2,-45.797,-7.7975,-54.887
5974.8,-46.2,-43.797,-7.7975,-54.887
5984.6,-45.2,-45.797,-8.7975,-53.887
5994.5,-46.2,-44.797,-13.798,-55.887
6004.4,-44.2,-45.797,-12.798,-54.887
6014.3,-45.2,-45.797,-15.798,-56.887
6024.2,-44.2,-44.797,-16.798,-57.887
6034.1,-44.2,-45.797,-19.798,-57.887
6044.0,-46.2,-43.797,-19.798,-56.887
6053.8,-43.2,-44.797,-21.798,-57.887
6063.7,-42.2,-45.797,-21.798,-57.887
6073.6,-45.2,-44.797,-22.798,-58.887
6083.5,-43.2,-43.797,-19.798,-56.887
6093.4,-45.2,-45.797,-23.798,-58.887
6103.3,-45.2,-43.797,-26.798,-58.887
6113.2,-47.2,-43.797,-28.798,-58.887
6123.0,-46.2,-44.797,-28.798,-58.887
6132.9,-47.2,-44.797,-28.798,-57.887
6142.8,-48.2,-45.797,-32.798,-58.887
6152.7,-48.2,-46.797,-29.798,-59.887
6162.6,-50.2,-45.797,-31.798,-57.887
6172.5,-51.2,-47.797,-34.798,-58.887
6182.3,-55.2,-47.797,-34.798,-58.887
6192.2,-54.2,-48.797,-37.798,-59.887
6202.1,-57.2,-48.797,-36.798,-59.887
6212.0,-60.2,-50.797,-40.798,-60.887
6221.9,-63.2,-50.797,-41.798,-60.887
6231.8,-64.2,-51.797,-45.798,-61.887
6241.7,-65.2,-52.797,-46.798,-63.887
6251.6,-65.2,-52.797,-51.798,-63.887
6261.4,-66.2,-52.797,-52.798,-63.887
6271.3,-70.2,-52.797,-54.798,-65.887
6281.2,-70.2,-52.797,-59.798,-66.887
6291.1,-72.2,-53.797,-61.798,-66.887
6301.0,-72.2,-52.797,-61.798,-67.887
6310.9,-73.2,-53.797,-65.798,-67.887
6320.7,-72.2,-51.797,-66.798,-66.887
6330.6,-71.2,-52.797,-68.798,-67.887
6340.5,-66.2,-52.797,-65.798,-67.887
6350.4,-63.2,-50.797,-61.798,-64.887
6360.3,-59.2,-49.797,-59.798,-63.887
6370.2,-56.2,-49.797,-54.798,-61.887
6380.1,-51.2,-47.797,-49.798,-59.887
6390.0,-48.2,-45.797,-43.798,-59.887
6399.8,-45.2,-43.797,-37.798,-56.887
6409.7,-40.2,-43.797,-34.798,-55.887
6419.6,-38.2,-42.797,-30.798,-56.887
6429.5,-38.2,-42.797,-27.798,-54.887
6439.4,-31.2,-40.797,-25.798,-55.887
6449.3,-31.2,-40.797,-25.798,-55.887
6459.1,-29.2,-40.797,-22.798,-54.887
6469.0,-29.2,-40.797,-23.798,-53.887
6478.9,-23.2,-39.797,-22.798,-54.887
6488.8,-23.2,-39.797,-22.798,-53.887
6498.7,-21.2,-38.797,-23.798,-53.887
6508.6,-21.2,-38.797,-23.798,-52.887
6518.5,-22.2,-39.797,-26.798,-54.887
6528.3,-22.2,-39.797,-26.798,-54.887
6538.2,-21.2,-38.797,-27.798,-54.887
6548.1,-21.2,-38.797,-30.798,-55.887
6558.0,-22.2,-38.797,-30.798,-55.887
6567.9,-22.2,-38.797,-32.798,-56.887
6577.8,-22.2,-38.797,-33.798,-55.887
6587.7,-22.2,-38.797,-34.798,-56.887
6597.5,-20.2,-38.797,-35.798,-56.887
6607.4,-20.2,-37.797,-38.798,-57.887
6617.3,-20.2,-37.797,-40.798,-57.887
6627.2,-20.2,-38.797,-45.798,-58.887
6637.1,-18.2,-37.797,-43.798,-59.887
6647.0,-18.2,-36.797,-46.798,-58.887
6656.9,-18.2,-37.797,-43.798,-59.887
6666.7,-19.2,-37.797,-46.798,-58.887
6676.6,-19.2,-38.797,-46.798,-58.887
6686.5,-19.2,-37.797,-44.798,-58.887
6696.4,-18.2,-38.797,-44.798,-58.887
6706.3,-19.2,-37.797,-44.798,-57.887
6716.2,-21.2,-37.797,-45.798,-57.887
6726.1,-21.2,-38.797,-45.798,-55.887
6735.9,-22.2,-37.797,-46.798,-57.887
6745.8,-22.2,-38.797,-50.798,-58.887
6755.7,-23.2,-38.797,-49.798,-56.887
6765.6,-23.2,-38.797,-50.798,-58.887
6775.5,-26.2,-39.797,-49.798,-58.887
6785.4,-27.2,-40.797,-50.798,-58.887
6795.3,-29.2,-40.797,-53.798,-58.887
6805.1,-30.2,-40.797,-55.798,-59.887
6815.0,-30.2,-38.797,-53.798,-59.887
6824.9,-30.2,-41.797,-56.798,-59.887
6834.8,-32.2,-42.797,-57.798,-60.887
6844.7,-34.2,-41.797,-57.798,-60.887
6854.6,-33.2,-40.797,-66.798,-62.887
6864.5,-36.2,-41.797,-66.798,-62.887
6874.3,-36.2,-42.797,-76.798,-66.887
6884.2,-38.2,-42.797,-76.798,-66.887
6894.1,-38.2,-41.797,-82.798,-68.887
6904.0,-39.2,-42.797,-82.798,-68.887
6913.9,-39.2,-41.797,-83.798,-70.887
6923.8,-36.2,-40.797,-83.798,-70.887
6933.7,-32.2,-40.797,-80.798,-68.887
6943.5,-27.2,-38.797,-80.798,-68.887
6953.4,-27.2,-39.797,-69.798,-63.887
6963.3,-20.2,-37.797,-69.798,-63.887
6973.2,-17.2,-36.797,-55.798,-58.887
6983.1,-13.2,-35.797,-55.798,-58.887
6993.0,-7.1998,-34.797,-42.798,-53.887
7002.9,-3.1998,-32.797,-42.798,-53.887
7012.7,1.8002,-31.797,-30.798,-50.887
7022.6,1.8002,-30.797,-30.798,-50.887
7032.5,3.8002,-30.797,-27.798,-49.887
7042.4,7.8002,-29.797,-24.798,-48.887
7052.3,10.8,-29.797,-22.798,-48.887
7062.2,11.8,-28.797,-22.798,-50.887
7072.1,13.8,-27.797,-21.798,-48.887
7081.9,14.8,-27.797,-22.798,-48.887
7091.8,16.8,-27.797,-23.798,-48.887
7101.7,17.8,-25.797,-25.798,-47.887
7111.6,16.8,-26.797,-26.798,-49.887
7121.5,18.8,-27.797,-27.798,-48.887
7131.4,18.8,-26.797,-26.798,-49.887
7141.3,18.8,-25.797,-25.798,-48.887
7151.1,20.8,-25.797,-27.798,-49.887
7161.0,20.8,-24.797,-28.798,-48.887
7170.9,21.8,-24.797,-29.798,-49.887
7180.8,20.8,-24.797,-31.798,-49.887
7190.7,20.8,-24.797,-31.798,-49.887
7200.6,20.8,-24.797,-36.798,-50.887
7210.5,23.8,-22.797,-36.798,-52.887
7220.3,24.8,-24.797,-39.798,-52.887
7230.2,23.8,-23.797,-41.798,-51.887
7240.1,23.8,-22.797,-43.798,-52.887
7250.0,22.8,-22.797,-44.798,-54.887
7259.9,23.8,-23.797,-42.798,-53.887
7269.8,21.8,-22.797,-47.798,-53.887
7279.7,21.8,-22.797,-47.798,-54.887
7289.5,21.8,-22.797,-47.798,-54.887
7299.4,21.8,-22.797,-52.798,-54.887
7309.3,19.8,-25.797,-50.798,-55.887
7319.2,19.8,-25.797,-52.798,-54.887
7329.1,18.8,-25.797,-53.798,-55.887
7339.0,18.8,-25.797,-54.798,-54.887
7348.9,16.8,-24.797,-56.798,-55.887
7358.7,16.8,-24.797,-55.798,-55.887
7368.6,14.8,-25.797,-57.798,-55.887
7378.5,14.8,-25.797,-58.798,-55.887
7388.4,10.8,-25.797,-62.798,-56.887
7398.3,10.8,-25.797,-63.798,-56.887
7408.2,7.8002,-27.797,-63.798,-57.887
7418.1,7.8002,-27.797,-65.798,-56.887
7427.9,2.8002,-27.797,-66.798,-57.887
7437.8,2.8002,-27.797,-70.798,-58.887
7447.7,1.8002,-29.797,-74.798,-59.887
7457.6,0.80022,-29.797,-77.798,-61.887
7467.5,0.80022,-28.797,-79.798,-62.887
7477.4,-1.1998,-30.797,-84.798,-64.887
7487.3,0.80022,-29.797,-85.798,-63.887
7497.1,-1.1998,-29.797,-87.798,-63.887
7507.0,-1.1998,-29.797,-87.798,-62.887
7516.9,-0.19978,-29.797,-85.798,-63.887
7526.8,3.8002,-28.797,-84.798,-61.887
7536.7,6.8002,-28.797,-80.798,-60.887
7546.6,10.8,-28.797,-76.798,-58.887
7556.5,13.8,-26.797,-73.798,-57.887
7566.3,19.8,-24.797,-68.798,-56.887
7576.2,22.8,-23.797,-63.798,-56.887
7586.1,26.8,-22.797,-61.798,-54.887
7596.0,30.8,-20.797,-56.798,-52.887
7605.9,35.8,-19.797,-52.798,-52.887
7615.8,38.8,-19.797,-48.798,-52.887
7625.7,39.8,-17.797,-46.798,-50.887
7635.5,41.8,-18.797,-43.798,-50.887
7645.4,44.8,-18.797,-46.798,-51.887
7655.3,44.8,-18.797,-47.798,-52.887
7665.2,45.8,-18.797,-47.798,-53.887
7675.1,45.8,-17.797,-48.798,-52.887
7685.0,46.8,-18.797,-48.798,-53.887
7694.9,46.8,-18.797,-47.798,-51.887
7704.7,45.8,-17.797,-49.798,-52.887
7714.6,44.8,-18.797,-50.798,-53.887
7724.5,45.8,-17.797,-52.798,-54.887
7734.4,45.8,-18.797,-56.798,-53.887
7744.3,44.8,-17.797,-59.798,-56.887
7754.2,45.8,-17.797,-62.798,-56.887
7764.1,43.8,-18.797,-66.798,-57.887
7773.9,46.8,-18.797,-68.798,-58.887
7783.8,46.8,-17.797,-71.798,-59.887
7793.7,46.8,-16.797,-76.798,-59.887
7803.6,45.8,-17.797,-79.798,-60.887
7813.5,44.8,-18.797,-78.798,-60.887
7823.4,45.8,-17.797,-79.798,-61.887
7833.3,45.8,-16.797,-80.798,-63.887
7843.1,44.8,-17.797,-84.798,-62.887
7853.0,43.8,-17.797,-84.798,-62.887
7862.9,40.8,-18.797,-84.798,-63.887
7872.8,40.8,-19.797,-84.798,-63.887
7882.7,39.8,-18.797,-87.798,-62.887
7892.6,37.8,-19.797,-87.798,-62.887
7902.5,36.8,-20.797,-92.798,-64.887
7912.3,35.8,-20.797,-92.798,-64.887
7922.2,34.8,-21.797,-94.798,-63.887
7932.1,31.8,-20.797,-94.798,-63.887
7942.0,33.8,-21.797,-96.798,-65.887
7951.9,31.8,-23.797,-96.798,-65.887
7961.8,28.8,-22.797,-103.8,-67.887
7971.7,26.8,-24.797,-103.8,-67.887
7981.5,23.8,-24.797,-104.8,-67.887
7991.4,20.8,-25.797,-104.8,-67.887
8001.3,19.8,-25.797,-113.8,-71.887
8011.2,15.8,-27.797,-113.8,-71.887
8021.1,14.8,-27.797,-119.8,-71.887
8031.0,13.8,-26.797,-119.8,-71.887
8040.9,9.8002,-28.797,-127.8,-73.887
8050.7,8.8002,-28.797,-127.8,-73.887
8060.6,8.8002,-28.797,-129.8,-75.887
8070.5,6.8002,-27.797,-134.8,-78.887
8080.4,5.8002,-28.797,-136.8,-78.887
8090.3,6.8002,-29.797,-141.8,-79.887
8100.2,8.8002,-28.797,-137.8,-77.887
8110.1,11.8,-29.797,-136.8,-77.887
8119.9,12.8,-27.797,-134.8,-76.887
8129.8,12.8,-27.797,-131.8,-75.887
8139.7,19.8,-24.797,-129.8,-75.887
8149.6,19.8,-24.797,-125.8,-73.887
8159.5,29.8,-23.797,-123.8,-73.887
8169.4,29.8,-23.797,-117.8,-72.887
8179.3,33.8,-20.797,-115.8,-71.887
8189.1,33.8,-20.797,-111.8,-70.887
8199.0,40.8,-20.797,-110.8,-70.887
8208.9,40.8,-20.797,-107.8,-70.887
8218.8,42.8,-18.797,-107.8,-71.887
8228.7,42.8,-18.797,-107.8,-73.887
8238.6,42.8,-19.797,-108.8,-72.887
8248.5,42.8,-19.797,-109.8,-71.887
8258.3,42.8,-18.797,-113.8,-75.887
8268.2,42.8,-18.797,-113.8,-73.887
8278.1,42.8,-19.797,-115.8,-74.887
8288.0,42.8,-19.797,-115.8,-74.887
8297.9,40.8,-19.797,-116.8,-74.887
8307.8,40.8,-20.797,-118.8,-73.887
8317.7,40.8,-19.797,-119.8,-74.887
8327.5,39.8,-21.797,-122.8,-74.887
8337.4,38.8,-20.797,-122.8,-73.887
8347.3,39.8,-21.797,-123.8,-75.887
8357.2,38.8,-20.797,-125.8,-75.887
8367.1,38.8,-20.797,-129.8,-76.887
8377.0,36.8,-21.797,-132.8,-76.887
8386.9,37.8,-20.797,-132.8,-77.887
8396.7,35.8,-21.797,-133.8,-77.887
8406.6,34.8,-21.797,-137.8,-79.887
8416.5,35.8,-21.797,-138.8,-78.887
8426.4,34.8,-20.797,-139.8,-79.887
8436.3,34.8,-20.797,-140.8,-79.887
8446.2,34.8,-21.797,-139.8,-80.887
8456.1,33.8,-22.797,-142.8,-79.887
8465.9,31.8,-22.797,-142.8,-80.887
8475.8,28.8,-22.797,-144.8,-79.887
8485.7,27.8,-23.797,-146.8,-79.887
8495.6,24.8,-23.797,-146.8,-79.887
8505.5,21.8,-24.797,-146.8,-79.887
8515.4,19.8,-25.797,-149.8,-81.887
8525.3,18.8,-26.797,-150.8,-80.887
8535.1,16.8,-26.797,-151.8,-80.887
8545.0,14.8,-26.797,-153.8,-80.887
8554.9,13.8,-27.797,-152.8,-80.887
8564.8,9.8002,-28.797,-156.8,-80.887
8574.7,4.8002,-28.797,-158.8,-82.887
8584.6,4.8002,-29.797,-158.8,-81.887
8594.5,3.8002,-29.797,-160.8,-81.887
8604.3,1.8002,-30.797,-163.8,-82.887
8614.2,-2.1998,-30.797,-165.8,-83.887
8624.1,-4.1998,-31.797,-167.8,-84.887
8634.0,-6.1998,-32.797,-171.8,-84.887
8643.9,-8.1998,-33.797,-175.8,-86.887
8653.8,-8.1998,-33.797,-180.8,-87.887
8663.7,-10.2,-34.797,-180.8,-88.887
8673.5,-11.2,-33.797,-182.8,-87.887
8683.4,-11.2,-33.797,-180.8,-88.887
8693.3,-10.2,-32.797,-176.8,-85.887
8703.2,-8.1998,-32.797,-175.8,-83.887
8713.1,-2.1998,-31.797,-170.8,-82.887
8723.0,-0.19978,-30.797,-166.8,-80.887
8732.8,4.8002,-29.797,-158.8,-80.887
8742.7,7.8002,-28.797,-154.8,-77.887
8752.6,8.8002,-29.797,-147.8,-74.887
8762.5,11.8,-26.797,-144.8,-74.887
8772.4,13.8,-27.797,-142.8,-74.887
8782.3,15.8,-26.797,-139.8,-72.887
8792.2,17.8,-25.797,-136.8,-72.887
8802.1,18.8,-24.797,-132.8,-72.887
8811.9,19.8,-25.797,-131.8,-71.887
8821.8,20.8,-24.797,-133.8,-71.887
8831.7,20.8,-25.797,-132.8,-70.887
8841.6,19.8,-25.797,-135.8,-71.887
8851.5,16.8,-25.797,-135.8,-71.887
8861.4,14.8,-27.797,-137.8,-72.887
8871.2,14.8,-26.797,-135.8,-71.887
8881.1,14.8,-26.797,-139.8,-71.887
8891.0,10.8,-28.797,-142.8,-73.887
8900.9,9.8002,-27.797,-143.8,-74.887
8910.8,9.8002,-27.797,-146.8,-75.887
8920.7,7.8002,-27.797,-146.8,-75.887
8930.6,7.8002,-28.797,-150.8,-76.887
8940.5,5.8002,-30.797,-150.8,-76.887
8950.3,6.8002,-30.797,-154.8,-76.887
8960.2,4.8002,-30.797,-154.8,-76.887
8970.1,4.8002,-29.797,-158.8,-78.887
8980.0,4.8002,-29.797,-158.8,-78.887
8989.9,4.8002,-30.797,-161.8,-77.887
8999.8,4.8002,-30.797,-161.8,-77.887
9009.6,2.8002,-30.797,-163.8,-79.887
9019.5,2.8002,-30.797,-163.8,-79.887
9029.4,1.8002,-30.797,-163.8,-79.887
9039.3,1.8002,-30.797,-163.8,-79.887
9049.2,-3.1998,-31.797,-163.8,-78.887
9059.1,-3.1998,-31.797,-163.8,-78.887
9069.0,-6.1998,-32.797,-165.8,-78.887
9078.8,-6.1998,-32.797,-165.8,-78.887
9088.7,-10.2,-33.797,-168.8,-78.887
9098.6,-10.2,-33.797,-168.8,-78.887
9108.5,-15.2,-34.797,-168.8,-79.887
9118.4,-15.2,-34.797,-168.8,-79.887
9128.3,-19.2,-35.797,-170.8,-80.887
9138.2,-19.2,-35.797,-172.8,-81.887
9148.0,-22.2,-37.797,-171.8,-81.887
9157.9,-27.2,-39.797,-173.8,-80.887
9167.8,-29.2,-38.797,-173.8,-82.887
9177.7,-30.2,-39.797,-177.8,-80.887
9187.6,-32.2,-39.797,-179.8,-83.887
9197.5,-35.2,-40.797,-182.8,-83.887
9207.4,-37.2,-39.797,-184.8,-84.887
9217.2,-38.2,-40.797,-187.8,-83.887
9227.1,-43.2,-42.797,-189.8,-84.887
9237.0,-43.2,-42.797,-191.8,-85.887
9246.9,-43.2,-41.797,-193.8,-86.887
9256.8,-45.2,-42.797,-197.8,-88.887
9266.7,-44.2,-41.797,-196.8,-86.887
9276.6,-43.2,-41.797,-196.8,-86.887
9286.4,-41.2,-40.797,-193.8,-85.887
9296.3,-39.2,-41.797,-189.8,-83.887
9306.2,-35.2,-38.797,-186.8,-83.887
9316.1,-33.2,-39.797,-183.8,-82.887
9326.0,-31.2,-38.797,-179.8,-80.887
9335.9,-27.2,-35.797,-177.8,-80.887
9345.8,-26.2,-36.797,-173.8,-80.887
9355.6,-24.2,-35.797,-168.8,-78.887
9365.5,-23.2,-35.797,-166.8,-77.887
9375.4,-21.2,-34.797,-161.8,-76.887
9385.3,-19.2,-33.797,-159.8,-76.887
9395.2,-19.2,-34.797,-156.8,-74.887
9405.1,-20.2,-32.797,-157.8,-75.887
9415.0,-20.2,-33.797,-156.8,-72.887
9424.8,-21.2,-34.797,-156.8,-75.887
9434.7,-23.2,-34.797,-159.8,-75.887
9444.6,-22.2,-34.797,-159.8,-75.887
9454.5,-24.2,-35.797,-164.8,-76.887
9464.4,-26.2,-36.797,-165.8,-78.887
9474.3,-26.2,-36.797,-166.8,-78.887
9484.2,-28.2,-37.797,-170.8,-79.887
9494.0,-32.2,-37.797,-170.8,-79.887
9503.9,-32.2,-37.797,-172.8,-80.887
9513.8,-31.2,-37.797,-174.8,-80.887
9523.7,-33.2,-38.797,-176.8,-81.887
9533.6,-35.2,-38.797,-180.8,-81.887
9543.5,-35.2,-38.797,-180.8,-80.887
9553.4,-36.2,-37.797,-179.8,-82.887
9563.2,-36.2,-36.797,-181.8,-81.887
9573.1,-36.2,-37.797,-184.8,-83.887
9583.0,-36.2,-37.797,-185.8,-84.887
9592.9,-38.2,-37.797,-186.8,-84.887
9602.8,-40.2,-39.797,-186.8,-84.887
9612.7,-41.2,-38.797,-188.8,-84.887
9622.6,-41.2,-39.797,-189.8,-84.887
9632.4,-44.2,-40.797,-190.8,-84.887
9642.3,-46.2,-40.797,-190.8,-85.887
9652.2,-47.2,-41.797,-192.8,-85.887
9662.1,-50.2,-42.797,-194.8,-86.887
9672.0,-52.2,-43.797,-195.8,-86.887
9681.9,-53.2,-44.797,-195.8,-86.887
9691.8,-56.2,-43.797,-196.8,-86.887
9701.6,-57.2,-44.797,-200.8,-87.887
9711.5,-59.2,-43.797,-203.8,-88.887
9721.4,-62.2,-43.797,-205.8,-89.887
9731.3,-63.2,-44.797,-205.8,-90.887
9741.2,-65.2,-44.797,-208.8,-91.887
9751.1,-67.2,-45.797,-212.8,-92.887
9761.0,-71.2,-47.797,-213.8,-91.887
9770.8,-73.2,-47.797,-215.8,-92.887
9780.7,-75.2,-46.797,-218.8,-94.887
9790.6,-76.2,-47.797,-221.8,-94.887
9800.5,-79.2,-48.797,-225.8,-96.887
9810.4,-79.2,-48.797,-226.8,-97.887
9820.3,-81.2,-48.797,-228.8,-97.887
9830.2,-81.2,-48.797,-230.8,-96.887
9840.0,-81.2,-47.797,-230.8,-97.887
9849.9,-81.2,-47.797,-230.8,-94.887
9859.8,-80.2,-48.797,-228.8,-95.887
9869.7,-80.2,-48.797,-226.8,-95.887
9879.6,-79.2,-48.797,-221.8,-92.887
9889.5,-79.2,-48.797,-215.8,-90.887
9899.4,-72.2,-46.797,-213.8,-91.887
9909.2,-72.2,-46.797,-213.8,-91.887
9919.1,-69.2,-45.797,-203.8,-88.887
9929.0,-69.2,-45.797,-203.8,-88.887
9938.9,-68.2,-44.797,-196.8,-86.887
9948.8,-68.2,-44.797,-196.8,-86.887
9958.7,-65.2,-43.797,-192.8,-85.887
9968.6,-65.2,-43.797,-192.8,-85.887
9978.4,-63.2,-42.797,-189.8,-84.887
9988.3,-63.2,-42.797,-189.8,-84.887
9998.2,-67.2,-42.797,-191.8,-84.887
10008.0,-67.2,-44.797,-191.8,-84.887
10018.0,-68.2,-44.797,-192.8,-84.887
10028.0,-68.2,-46.797,-192.8,-84.887
10038.0,-70.2,-45.797,-197.8,-86.887
10048.0,-70.2,-44.797,-197.8,-86.887
10058.0,-71.2,-44.797,-202.8,-88.887
10067.0,-71.2,-45.797,-202.8,-88.887
10077.0,-72.2,-45.797,-206.8,-88.887
10087.0,-74.2,-46.797,-206.8,-88.887
10097.0,-74.2,-45.797,-208.8,-90.887
10107.0,-75.2,-45.797,-208.8,-90.887
10117.0,-78.2,-46.797,-212.8,-90.887
10127.0,-79.2,-46.797,-213.8,-93.887
10137.0,-78.2,-47.797,-215.8,-91.887
10147.0,-79.2,-46.797,-216.8,-91.887
10156.0,-78.2,-45.797,-217.8,-93.887
10166.0,-78.2,-45.797,-217.8,-92.887
10176.0,-80.2,-45.797,-216.8,-90.887
10186.0,-81.2,-45.797,-219.8,-93.887
10196.0,-83.2,-47.797,-221.8,-92.887
10206.0,-85.2,-46.797,-218.8,-92.887
10216.0,-86.2,-47.797,-220.8,-92.887
10226.0,-88.2,-47.797,-219.8,-92.887
10236.0,-89.2,-48.797,-218.8,-91.887
10245.0,-89.2,-49.797,-221.8,-91.887
10255.0,-93.2,-49.797,-220.8,-93.887
10265.0,-96.2,-50.797,-221.8,-92.887
10275.0,-95.2,-50.797,-222.8,-92.887
10285.0,-97.2,-50.797,-223.8,-92.887
10295.0,-100.2,-49.797,-224.8,-93.887
10305.0,-100.2,-51.797,-226.8,-93.887
10315.0,-105.2,-52.797,-226.8,-94.887
10324.0,-108.2,-52.797,-228.8,-93.887
10334.0,-110.2,-54.797,-227.8,-94.887
10344.0,-112.2,-54.797,-229.8,-93.887
10354.0,-113.2,-54.797,-230.8,-92.887
10364.0,-114.2,-55.797,-231.8,-94.887
10374.0,-116.2,-53.797,-233.8,-93.887
10384.0,-117.2,-55.797,-235.8,-93.887
10394.0,-117.2,-54.797,-238.8,-95.887
10404.0,-118.2,-55.797,-239.8,-95.887
10413.0,-120.2,-56.797,-242.8,-96.887
10423.0,-121.2,-56.797,-242.8,-95.887
10433.0,-119.2,-55.797,-239.8,-92.887
10443.0,-119.2,-57.797,-234.8,-92.887
10453.0,-118.2,-55.797,-229.8,-90.887
10463.0,-115.2,-54.797,-223.8,-88.887
10473.0,-110.2,-53.797,-219.8,-86.887
10483.0,-108.2,-52.797,-214.8,-86.887
10493.0,-105.2,-51.797,-208.8,-84.887
10502.0,-103.2,-51.797,-206.8,-83.887
10512.0,-103.2,-51.797,-202.8,-81.887
10522.0,-101.2,-49.797,-199.8,-81.887
10532.0,-100.2,-50.797,-195.8,-80.887
10542.0,-100.2,-50.797,-190.8,-77.887
10552.0,-100.2,-49.797,-185.8,-75.887
10562.0,-99.2,-49.797,-182.8,-75.887
10572.0,-100.2,-50.797,-182.8,-75.887
10582.0,-101.2,-50.797,-182.8,-74.887
10591.0,-101.2,-50.797,-182.8,-74.887
10601.0,-104.2,-50.797,-179.8,-74.887
10611.0,-103.2,-51.797,-182.8,-72.887
10621.0,-106.2,-51.797,-181.8,-71.887
10631.0,-106.2,-51.797,-180.8,-72.887
10641.0,-108.2,-51.797,-181.8,-72.887
10651.0,-108.2,-51.797,-180.8,-71.887
10661.0,-109.2,-51.797,-179.8,-72.887
10670.0,-109.2,-52.797,-180.8,-71.887
10680.0,-109.2,-52.797,-180.8,-71.887
10690.0,-110.2,-51.797,-181.8,-70.887
10700.0,-110.2,-51.797,-183.8,-71.887
10710.0,-113.2,-49.797,-182.8,-71.887
10720.0,-113.2,-49.797,-182.8,-70.887
10730.0,-114.2,-51.797,-184.8,-71.887
10740.0,-114.2,-51.797,-180.8,-69.887
10750.0,-116.2,-50.797,-180.8,-68.887
10759.0,-116.2,-50.797,-179.8,-68.887
10769.0,-119.2,-52.797,-180.8,-69.887
10779.0,-119.2,-52.797,-178.8,-68.887
10789.0,-119.2,-52.797,-176.8,-67.887
10799.0,-119.2,-52.797,-179.8,-67.887
10809.0,-123.2,-53.797,-178.8,-66.887
10819.0,-123.2,-53.797,-176.8,-64.887
10829.0,-125.2,-53.797,-174.8,-64.887
10839.0,-125.2,-53.797,-176.8,-63.887
10848.0,-128.2,-54.797,-174.8,-63.887
10858.0,-128.2,-54.797,-175.8,-64.887
10868.0,-129.2,-54.797,-174.8,-63.887
10878.0,-131.2,-54.797,-175.8,-64.887
10888.0,-133.2,-54.797,-177.8,-63.887
10898.0,-135.2,-55.797,-177.8,-61.887
10908.0,-137.2,-55.797,-176.8,-61.887
10918.0,-140.2,-56.797,-176.8,-61.887
10928.0,-141.2,-57.797,-176.8,-61.887
10937.0,-141.2,-55.797,-176.8,-61.887
10947.0,-143.2,-56.797,-177.8,-61.887
10957.0,-145.2,-58.797,-177.8,-61.887
10967.0,-147.2,-57.797,-178.8,-62.887
10977.0,-147.2,-56.797,-178.8,-62.887
10987.0,-148.2,-57.797,-180.8,-62.887
10997.0,-149.2,-56.797,-180.8,-62.887
11007.0,-147.2,-56.797,-179.8,-61.887
11016.0,-146.2,-56.797,-179.8,-61.887
11026.0,-145.2,-56.797,-170.8,-57.887
11036.0,-144.2,-55.797,-170.8,-57.887
11046.0,-142.2,-54.797,-159.8,-53.887
11056.0,-138.2,-54.797,-159.8,-53.887
11066.0,-135.2,-53.797,-148.8,-49.887
11076.0,-135.2,-52.797,-148.8,-49.887
11086.0,-133.2,-52.797,-136.8,-45.887
11096.0,-130.2,-50.797,-136.8,-45.887
11105.0,-129.2,-50.797,-125.8,-41.887
11115.0,-129.2,-51.797,-125.8,-41.887
11125.0,-128.2,-50.797,-118.8,-40.887
11135.0,-129.2,-49.797,-118.8,-40.887
11145.0,-129.2,-49.797,-118.8,-39.887
11155.0,-129.2,-49.797,-117.8,-38.887
11165.0,-131.2,-49.797,-114.8,-38.887
11175.0,-131.2,-49.797,-114.8,-38.887
11185.0,-130.2,-48.797,-115.8,-36.887
11194.0,-131.2,-48.797,-114.8,-34.887
11204.0,-132.2,-49.797,-115.8,-36.887
11214.0,-132.2,-49.797,-115.8,-36.887
11224.0,-133.2,-48.797,-115.8,-34.887
11234.0,-133.2,-48.797,-117.8,-35.887
11244.0,-134.2,-49.797,-113.8,-34.887
11254.0,-136.2,-49.797,-114.8,-33.887
11264.0,-133.2,-48.797,-115.8,-34.887
11274.0,-135.2,-48.797,-117.8,-34.887
11283.0,-134.2,-49.797,-117.8,-34.887
11293.0,-136.2,-49.797,-114.8,-33.887
11303.0,-137.2,-48.797,-115.8,-33.887
11313.0,-136.2,-48.797,-114.8,-33.887
11323.0,-137.2,-47.797,-116.8,-32.887
11333.0,-135.2,-47.797,-114.8,-32.887
11343.0,-138.2,-48.797,-113.8,-31.887
11353.0,-139.2,-47.797,-113.8,-31.887
11362.0,-139.2,-48.797,-110.8,-31.887
11372.0,-140.2,-48.797,-110.8,-29.887
11382.0,-142.2,-49.797,-108.8,-30.887
11392.0,-143.2,-49.797,-110.8,-30.887
11402.0,-143.2,-48.797,-109.8,-28.887
11412.0,-143.2,-48.797,-108.8,-28.887
11422.0,-146.2,-48.797,-107.8,-26.887
11432.0,-148.2,-48.797,-106.8,-26.887
11442.0,-147.2,-48.797,-103.8,-25.887
11451.0,-150.2,-48.797,-102.8,-23.887
11461.0,-149.2,-48.797,-101.8,-24.887
11471.0,-153.2,-50.797,-100.8,-24.887
11481.0,-152.2,-50.797,-100.8,-22.887
11491.0,-152.2,-49.797,-101.8,-22.887
11501.0,-153.2,-48.797,-104.8,-22.887
11511.0,-155.2,-48.797,-105.8,-24.887
11521.0,-155.2,-47.797,-106.8,-25.887
11531.0,-154.2,-48.797,-108.8,-23.887
11540.0,-152.2,-46.797,-107.8,-23.887
11550.0,-152.2,-46.797,-107.8,-23.887
11560.0,-153.2,-45.797,-105.8,-23.887
11570.0,-153.2,-45.797,-101.8,-22.887
11580.0,-148.2,-44.797,-97.798,-19.887
11590.0,-148.2,-44.797,-95.798,-18.887
11600.0,-142.2,-41.797,-91.798,-14.887
11610.0,-142.2,-41.797,-84.798,-13.887
11620.0,-135.2,-39.797,-78.798,-10.887
11629.0,-135.2,-39.797,-72.798,-9.8868
11639.0,-131.2,-37.797,-65.798,-5.8868
11649.0,-131.2,-37.797,-58.798,-4.8868
11659.0,-128.2,-36.797,-54.798,-2.8868
11669.0,-128.2,-36.797,-49.798,-1.8868
11679.0,-124.2,-34.797,-47.798,-0.88683
11689.0,-124.2,-34.797,-45.798,0.11317
11699.0,-122.2,-33.797,-43.798,1.1132
11708.0,-122.2,-33.797,-39.798,1.1132
11718.0,-122.2,-33.797,-38.798,0.11317
11728.0,-120.2,-35.797,-39.798,2.1132
11738.0,-122.2,-34.797,-39.798,3.1132
11748.0,-120.2,-33.797,-39.798,2.1132
11758.0,-118.2,-32.797,-40.798,3.1132
11768.0,-120.2,-33.797,-39.798,2.1132
11778.0,-120.2,-32.797,-38.798,2.1132
11788.0,-119.2,-32.797,-39.798,4.1132
11797.0,-120.2,-32.797,-41.798,2.1132
11807.0,-120.2,-32.797,-39.798,5.1132
11817.0,-120.2,-32.797,-39.798,5.1132
11827.0,-119.2,-32.797,-40.798,5.1132
11837.0,-119.2,-31.797,-39.798,6.1132
11847.0,-119.2,-30.797,-39.798,5.1132
11857.0,-117.2,-30.797,-39.798,5.1132
11867.0,-117.2,-30.797,-40.798,5.1132
11877.0,-118.2,-30.797,-39.798,5.1132
11886.0,-117.2,-29.797,-38.798,5.1132
11896.0,-119.2,-28.797,-38.798,5.1132
11906.0,-119.2,-29.797,-36.798,6.1132
11916.0,-118.2,-31.797,-39.798,7.1132
11926.0,-118.2,-29.797,-38.798,7.1132
11936.0,-118.2,-29.797,-38.798,8.1132
11946.0,-120.2,-28.797,-38.798,7.1132
11956.0,-120.2,-28.797,-40.798,8.1132
11966.0,-120.2,-27.797,-40.798,8.1132
11975.0,-120.2,-27.797,-37.798,8.1132
11985.0,-122.2,-27.797,-37.798,8.1132
11995.0,-121.2,-28.797,-35.798,10.113
12005.0,-124.2,-28.797,-35.798,10.113
12015.0,-124.2,-27.797,-36.798,10.113
12025.0,-124.2,-28.797,-36.798,10.113
12035.0,-127.2,-28.797,-36.798,11.113
12045.0,-127.2,-29.797,-36.798,11.113
12054.0,-128.2,-28.797,-35.798,12.113
12064.0,-128.2,-27.797,-35.798,12.113
12074.0,-130.2,-28.797,-38.798,11.113
12084.0,-130.2,-28.797,-38.798,11.113
12094.0,-130.2,-27.797,-40.798,12.113
12104.0,-130.2,-27.797,-40.798,12.113
12114.0,-129.2,-26.797,-40.798,12.113
12124.0,-125.2,-25.797,-40.798,12.113
12134.0,-124.2,-24.797,-34.798,14.113
12143.0,-121.2,-24.797,-34.798,14.113
12153.0,-118.2,-24.797,-28.798,17.113
12163.0,-115.2,-22.797,-21.798,18.113
12173.0,-112.2,-21.797,-18.798,20.113
12183.0,-108.2,-21.797,-10.798,20.113
12193.0,-105.2,-20.797,-4.7975,24.113
12203.0,-105.2,-19.797,2.2025,26.113
12213.0,-103.2,-19.797,9.2025,28.113
12223.0,-103.2,-18.797,14.202,30.113
12232.0,-98.2,-17.797,19.202,30.113
12242.0,-97.2,-16.797,20.202,32.113
12252.0,-95.2,-16.797,25.202,33.113
12262.0,-92.2,-14.797,24.202,33.113
12272.0,-92.2,-14.797,27.202,34.113
12282.0,-89.2,-14.797,26.202,34.113
12292.0,-91.2,-14.797,29.202,34.113
12302.0,-88.2,-13.797,30.202,35.113
12312.0,-88.2,-12.797,32.202,35.113
12321.0,-89.2,-12.797,32.202,37.113
12331.0,-87.2,-13.797,35.202,38.113
12341.0,-85.2,-11.797,35.202,38.113
12351.0,-85.2,-11.797,34.202,38.113
12361.0,-86.2,-11.797,32.202,40.113
12371.0,-85.2,-10.797,29.202,38.113
12381.0,-84.2,-9.7971,29.202,37.113
12391.0,-83.2,-9.7971,27.202,37.113
12400.0,-83.2,-8.7971,27.202,38.113
12410.0,-80.2,-8.7971,24.202,35.113
12420.0,-80.2,-8.7971,27.202,37.113
12430.0,-80.2,-7.7971,27.202,36.113
12440.0,-80.2,-7.7971,26.202,37.113
12450.0,-81.2,-8.7971,26.202,36.113
12460.0,-81.2,-8.7971,25.202,36.113
12470.0,-83.2,-7.7971,24.202,38.113
12480.0,-83.2,-7.7971,25.202,37.113
12489.0,-82.2,-8.7971,25.202,38.113
12499.0,-82.2,-8.7971,27.202,38.113
12509.0,-83.2,-6.7971,27.202,38.113
12519.0,-83.2,-6.7971,29.202,40.113
12529.0,-84.2,-5.7971,28.202,39.113
12539.0,-84.2,-5.7971,26.202,40.113
12549.0,-84.2,-6.7971,25.202,38.113
12559.0,-84.2,-6.7971,23.202,39.113
12569.0,-89.2,-7.7971,24.202,38.113
12578.0,-89.2,-7.7971,22.202,38.113
12588.0,-88.2,-7.7971,21.202,38.113
12598.0,-88.2,-7.7971,20.202,35.113
12608.0,-88.2,-7.7971,18.202,37.113
12618.0,-91.2,-8.7971,14.202,34.113
12628.0,-93.2,-8.7971,14.202,36.113
12638.0,-94.2,-8.7971,14.202,37.113
12648.0,-93.2,-7.7971,13.202,37.113
12658.0,-92.2,-8.7971,13.202,38.113
12667.0,-93.2,-8.7971,14.202,38.113
12677.0,-92.2,-7.7971,15.202,40.113
12687.0,-90.2,-7.7971,20.202,41.113
12697.0,-89.2,-6.7971,21.202,40.113
12707.0,-85.2,-6.7971,25.202,43.113
12717.0,-82.2,-5.7971,30.202,44.113
12727.0,-79.2,-4.7971,37.202,45.113
12737.0,-74.2,-2.7971,42.202,48.113
12746.0,-70.2,-1.7971,48.202,49.113
12756.0,-67.2,-0.79706,53.202,49.113
12766.0,-64.2,-1.7971,58.202,51.113
12776.0,-62.2,0.20294,62.202,53.113
12786.0,-62.2,0.20294,64.202,52.113
12796.0,-59.2,1.2029,67.202,54.113
12806.0,-58.2,2.2029,70.202,53.113
12816.0,-54.2,3.2029,72.202,55.113
12826.0,-55.2,3.2029,75.202,56.113
12835.0,-55.2,3.2029,75.202,57.113
12845.0,-53.2,4.2029,73.202,56.113
12855.0,-50.2,3.2029,74.202,56.113
12865.0,-50.2,5.2029,73.202,56.113
12875.0,-51.2,5.2029,71.202,54.113
12885.0,-49.2,6.2029,70.202,53.113
12895.0,-49.2,7.2029,67.202,54.113
12905.0,-48.2,7.2029,66.202,54.113
12915.0,-49.2,8.2029,63.202,52.113
12924.0,-47.2,7.2029,63.202,52.113
12934.0,-46.2,8.2029,61.202,50.113
12944.0,-45.2,9.2029,58.202,50.113
12954.0,-45.2,8.2029,56.202,51.113
12964.0,-43.2,10.203,57.202,50.113
12974.0,-42.2,9.2029,55.202,50.113
12984.0,-44.2,9.2029,57.202,49.113
12994.0,-42.2,10.203,57.202,49.113
13004.0,-41.2,10.203,53.202,49.113
13013.0,-42.2,10.203,53.202,49.113
13023.0,-44.2,10.203,51.202,48.113
13033.0,-41.2,10.203,51.202,48.113
13043.0,-45.2,10.203,50.202,48.113
13053.0,-44.2,10.203,50.202,48.113
13063.0,-45.2,10.203,46.202,47.113
13073.0,-46.2,8.2029,46.202,47.113
13083.0,-45.2,10.203,45.202,46.113
13092.0,-48.2,9.2029,45.202,46.113
13102.0,-46.2,8.2029,43.202,46.113
13112.0,-48.2,8.2029,43.202,46.113
13122.0,-49.2,9.2029,39.202,45.113
13132.0,-49.2,9.2029,39.202,45.113
13142.0,-49.2,9.2029,32.202,41.113
13152.0,-51.2,9.2029,32.202,41.113
13162.0,-51.2,9.2029,22.202,38.113
13172.0,-53.2,8.2029,22.202,38.113
13181.0,-55.2,7.2029,11.202,32.113
13191.0,-55.2,8.2029,11.202,32.113
13201.0,-54.2,8.2029,8.2025,30.113
13211.0,-54.2,8.2029,7.2025,29.113
13221.0,-53.2,9.2029,6.2025,30.113
13231.0,-51.2,10.203,7.2025,30.113
13241.0,-50.2,9.2029,9.2025,31.113
13251.0,-45.2,10.203,14.202,33.113
13261.0,-43.2,11.203,18.202,34.113
13270.0,-43.2,11.203,25.202,38.113
13280.0,-36.2,12.203,29.202,39.113
13290.0,-36.2,12.203,33.202,39.113
13300.0,-29.2,14.203,39.202,41.113
13310.0,-29.2,14.203,45.202,43.113
13320.0,-24.2,16.203,52.202,45.113
13330.0,-24.2,16.203,57.202,47.113
13340.0,-19.2,17.203,62.202,47.113
13350.0,-19.2,17.203,67.202,50.113
13359.0,-14.2,20.203,68.202,51.113
13369.0,-14.2,20.203,71.202,51.113
13379.0,-11.2,20.203,69.202,50.113
13389.0,-11.2,20.203,69.202,49.113
13399.0,-9.1998,21.203,70.202,49.113
13409.0,-9.1998,21.203,72.202,51.113
13419.0,-8.1998,21.203,71.202,49.113
13429.0,-8.1998,21.203,70.202,51.113
13438.0,-8.1998,21.203,69.202,50.113
13448.0,-7.1998,21.203,65.202,48.113
13458.0,-9.1998,21.203,63.202,47.113
13468.0,-8.1998,21.203,62.202,47.113
13478.0,-8.1998,22.203,60.202,47.113
13488.0,-8.1998,21.203,58.202,46.113
13498.0,-7.1998,22.203,56.202,45.113
13508.0,-7.1998,21.203,55.202,47.113
13518.0,-10.2,21.203,55.202,46.113
13527.0,-9.1998,22.203,54.202,45.113
13537.0,-10.2,21.203,53.202,45.113
13547.0,-8.1998,21.203,50.202,44.113
13557.0,-11.2,22.203,52.202,43.113
13567.0,-10.2,22.203,52.202,45.113
13577.0,-10.2,21.203,53.202,45.113
13587.0,-10.2,22.203,52.202,44.113
13597.0,-13.2,22.203,52.202,44.113
13607.0,-11.2,21.203,52.202,45.113
13616.0,-13.2,21.203,53.202,46.113
13626.0,-12.2,21.203,52.202,46.113
13636.0,-16.2,21.203,53.202,46.113
13646.0,-17.2,20.203,51.202,45.113
13656.0,-16.2,21.203,52.202,46.113
13666.0,-17.2,20.203,52.202,45.113
13676.0,-17.2,20.203,51.202,47.113
13686.0,-17.2,19.203,49.202,45.113
13696.0,-18.2,21.203,48.202,44.113
13705.0,-20.2,20.203,47.202,44.113
13715.0,-20.2,19.203,43.202,44.113
13725.0,-19.2,19.203,41.202,43.113
13735.0,-22.2,19.203,39.202,41.113
13745.0,-25.2,18.203,37.202,41.113
13755.0,-25.2,17.203,35.202,40.113
13765.0,-24.2,17.203,36.202,40.113
13775.0,-23.2,17.203,35.202,40.113
13784.0,-20.2,18.203,37.202,41.113
13794.0,-17.2,19.203,42.202,43.113
13804.0,-18.2,18.203,50.202,44.113
13814.0,-13.2,18.203,53.202,46.113
13824.0,-11.2,19.203,57.202,46.113
13834.0,-8.1998,21.203,62.202,48.113
13844.0,-6.1998,21.203,67.202,51.113
13854.0,-2.1998,23.203,70.202,52.113
13864.0,-1.1998,23.203,77.202,54.113
13873.0,1.8002,23.203,80.202,53.113
13883.0,3.8002,24.203,84.202,54.113
13893.0,6.8002,24.203,84.202,54.113
13903.0,7.8002,25.203,85.202,53.113
13913.0,9.8002,25.203,85.202,52.113
13923.0,8.8002,25.203,85.202,54.113
13933.0,9.8002,25.203,83.202,51.113
13943.0,8.8002,24.203,79.202,49.113
13953.0,8.8002,25.203,77.202,50.113
13962.0,9.8002,25.203,79.202,48.113
13972.0,9.8002,24.203,73.202,47.113
13982.0,7.8002,23.203,69.202,46.113
13992.0,8.8002,24.203,67.202,45.113
14002.0,8.8002,25.203,64.202,43.113
14012.0,8.8002,24.203,63.202,44.113
14022.0,8.8002,24.203,61.202,43.113
14032.0,7.8002,24.203,59.202,42.113
14042.0,8.8002,23.203,57.202,42.113
14051.0,9.8002,24.203,54.202,40.113
14061.0,10.8,24.203,54.202,40.113
14071.0,9.8002,24.203,53.202,40.113
14081.0,8.8002,23.203,53.202,40.113
14091.0,7.8002,24.203,50.202,38.113
14101.0,7.8002,23.203,50.202,38.113
14111.0,7.8002,23.203,48.202,38.113
14121.0,5.8002,23.203,48.202,38.113
14130.0,5.8002,22.203,50.202,38.113
14140.0,5.8002,22.203,50.202,38.113
14150.0,4.8002,21.203,49.202,38.113
14160.0,4.8002,21.203,49.202,38.113
14170.0,1.8002,20.203,43.202,36.113
14180.0,1.8002,20.203,43.202,36.113
14190.0,0.80022,21.203,42.202,34.113
14200.0,0.80022,21.203,42.202,34.113
14210.0,-0.19978,19.203,37.202,34.113
14219.0,-0.19978,19.203,37.202,34.113
14229.0,-5.1998,19.203,34.202,31.113
14239.0,-5.1998,19.203,34.202,31.113
14249.0,-7.1998,18.203,36.202,33.113
14259.0,-7.1998,18.203,31.202,31.113
14269.0,-10.2,17.203,28.202,31.113
14279.0,-10.2,17.203,28.202,30.113
14289.0,-10.2,17.203,23.202,29.113
14299.0,-10.2,17.203,21.202,29.113
14308.0,-11.2,16.203,19.202,27.113
14318.0,-14.2,14.203,19.202,28.113
14328.0,-11.2,15.203,17.202,27.113
14338.0,-9.1998,15.203,17.202,27.113
14348.0,-6.1998,14.203,20.202,28.113
14358.0,-6.1998,15.203,25.202,29.113
14368.0,-2.1998,17.203,28.202,31.113
14378.0,-1.1998,17.203,33.202,32.113
14387.0,0.80022,17.203,36.202,34.113
14397.0,4.8002,18.203,44.202,35.113
14407.0,7.8002,19.203,50.202,36.113
14417.0,8.8002,19.203,56.202,37.113
14427.0,9.8002,20.203,62.202,39.113
14437.0,12.8,20.203,64.202,40.113
14447.0,15.8,20.203,65.202,38.113
14457.0,15.8,21.203,65.202,39.113
14467.0,15.8,20.203,66.202,38.113
14476.0,16.8,21.203,64.202,39.113
14486.0,16.8,21.203,63.202,38.113
14496.0,14.8,20.203,63.202,37.113
14506.0,15.8,20.203,63.202,38.113
14516.0,16.8,20.203,62.202,36.113
14526.0,14.8,19.203,60.202,36.113
14536.0,12.8,19.203,58.202,36.113
14546.0,12.8,18.203,56.202,34.113
14556.0,13.8,19.203,53.202,35.113
14565.0,13.8,18.203,51.202,33.113
14575.0,12.8,17.203,48.202,32.113
14585.0,11.8,18.203,47.202,31.113
14595.0,11.8,18.203,45.202,30.113
14605.0,11.8,18.203,44.202,30.113
14615.0,9.8002,17.203,40.202,29.113
14625.0,9.8002,17.203,41.202,29.113
14635.0,11.8,17.203,40.202,28.113
14645.0,8.8002,17.203,39.202,28.113
14654.0,7.8002,16.203,39.202,27.113
14664.0,5.8002,16.203,41.202,29.113
14674.0,2.8002,14.203,40.202,28.113
14684.0,2.8002,13.203,40.202,28.113
14694.0,2.8002,14.203,39.202,27.113
14704.0,1.8002,12.203,39.202,28.113
14714.0,-2.1998,12.203,39.202,28.113
14724.0,-4.1998,11.203,39.202,28.113
14733.0,-6.1998,10.203,38.202,28.113
14743.0,-6.1998,10.203,38.202,28.113
14753.0,-10.2,9.2029,37.202,27.113
14763.0,-11.2,9.2029,33.202,25.113
14773.0,-12.2,7.2029,29.202,25.113
14783.0,-16.2,7.2029,28.202,25.113
14793.0,-15.2,6.2029,27.202,24.113
14803.0,-18.2,6.2029,24.202,24.113
14813.0,-19.2,5.2029,23.202,22.113
14822.0,-23.2,4.2029,17.202,21.113
14832.0,-23.2,3.2029,16.202,19.113
14842.0,-23.2,4.2029,13.202,18.113
14852.0,-26.2,3.2029,12.202,18.113
14862.0,-26.2,3.2029,10.202,17.113
14872.0,-24.2,3.2029,10.202,18.113
14882.0,-22.2,3.2029,12.202,20.113
14892.0,-18.2,5.2029,14.202,20.113
14902.0,-17.2,5.2029,18.202,21.113
14911.0,-16.2,4.2029,22.202,22.113
14921.0,-11.2,5.2029,27.202,23.113
14931.0,-9.1998,7.2029,33.202,25.113
14941.0,-5.1998,9.2029,38.202,25.113
14951.0,-3.1998,10.203,40.202,26.113
14961.0,-0.19978,10.203,46.202,27.113
14971.0,2.8002,9.2029,47.202,26.113
14981.0,2.8002,10.203,52.202,28.113
14991.0,3.8002,10.203,53.202,28.113
15000.0,4.8002,11.203,52.202,29.113
15010.0,4.8002,11.203,50.202,27.113
15020.0,5.8002,11.203,52.202,27.113
15030.0,5.8002,11.203,52.202,27.113
15040.0,7.8002,11.203,54.202,26.113
15050.0,7.8002,11.203,54.202,26.113
15060.0,8.8002,12.203,53.202,28.113
15070.0,8.8002,12.203,53.202,28.113
15079.0,5.8002,8.2029,52.202,26.113
15089.0,5.8002,8.2029,52.202,26.113
15099.0,5.8002,10.203,46.202,25.113
15109.0,5.8002,10.203,46.202,25.113
15119.0,5.8002,8.2029,44.202,24.113
15129.0,5.8002,8.2029,44.202,24.113
15139.0,8.8002,9.2029,41.202,26.113
15149.0,8.8002,9.2029,41.202,26.113
15159.0,6.8002,9.2029,39.202,25.113
15168.0,6.8002,9.2029,39.202,25.113
15178.0,5.8002,9.2029,39.202,24.113
15188.0,6.8002,9.2029,39.202,24.113
15198.0,7.8002,10.203,37.202,24.113
15208.0,8.8002,8.2029,37.202,24.113
15218.0,7.8002,9.2029,34.202,23.113
15228.0,8.8002,8.2029,34.202,23.113
15238.0,5.8002,9.2029,33.202,22.113
15248.0,4.8002,9.2029,31.202,21.113
15257.0,4.8002,8.2029,32.202,21.113
15267.0,0.80022,6.2029,31.202,20.113
15277.0,-0.19978,6.2029,31.202,20.113
15287.0,-1.1998,6.2029,27.202,19.113
15297.0,-2.1998,5.2029,28.202,19.113
15307.0,-5.1998,4.2029,24.202,19.113
15317.0,-6.1998,4.2029,19.202,17.113
15327.0,-9.1998,2.2029,16.202,14.113
15337.0,-10.2,1.2029,12.202,12.113
15346.0,-12.2,1.2029,9.2025,13.113
15356.0,-12.2,1.2029,10.202,12.113
15366.0,-13.2,1.2029,8.2025,13.113
15376.0,-16.2,1.2029,4.2025,11.113
15386.0,-17.2,0.20294,3.2025,11.113
15396.0,-16.2,1.2029,3.2025,9.1132
15406.0,-19.2,0.20294,-0.79752,9.1132
15416.0,-19.2,-1.7971,0.20248,9.1132
15425.0,-20.2,-2.7971,0.20248,10.113
15435.0,-18.2,-1.7971,1.2025,11.113
15445.0,-14.2,0.20294,4.2025,12.113
15455.0,-12.2,1.2029,5.2025,13.113
15465.0,-11.2,2.2029,14.202,15.113
15475.0,-5.1998,3.2029,17.202,15.113
15485.0,-2.1998,4.2029,21.202,16.113
15495.0,1.8002,4.2029,25.202,17.113
15505.0,6.8002,6.2029,29.202,18.113
15514.0,6.8002,7.2029,32.202,19.113
15524.0,11.8,7.2029,37.202,20.113
15534.0,12.8,9.2029,41.202,22.113
15544.0,16.8,9.2029,44.202,23.113
15554.0,19.8,10.203,48.202,24.113
15564.0,22.8,11.203,49.202,24.113
15574.0,24.8,11.203,48.202,25.113
15584.0,22.8,9.2029,51.202,25.113
15594.0,22.8,10.203,51.202,25.113
15603.0,24.8,9.2029,51.202,25.113
15613.0,22.8,11.203,51.202,26.113
15623.0,23.8,10.203,51.202,25.113
15633.0,22.8,9.2029,48.202,25.113
15643.0,21.8,10.203,47.202,23.113
15653.0,20.8,8.2029,48.202,24.113
15663.0,17.8,8.2029,46.202,23.113
15673.0,18.8,7.2029,45.202,22.113
15683.0,19.8,7.2029,43.202,21.113
15692.0,19.8,7.2029,40.202,21.113
15702.0,22.8,7.2029,40.202,21.113
15712.0,21.8,6.2029,40.202,19.113
15722.0,21.8,8.2029,38.202,19.113
15732.0,21.8,8.2029,34.202,18.113
15742.0,22.8,7.2029,34.202,18.113
15752.0,23.8,6.2029,34.202,18.113
15762.0,21.8,8.2029,32.202,17.113
15771.0,19.8,6.2029,31.202,17.113
15781.0,18.8,6.2029,32.202,17.113
15791.0,18.8,5.2029,32.202,17.113
15801.0,16.8,4.2029,33.202,18.113
15811.0,16.8,4.2029,34.202,18.113
15821.0,13.8,4.2029,33.202,18.113
15831.0,10.8,3.2029,34.202,19.113
15841.0,11.8,3.2029,34.202,19.113
15851.0,10.8,2.2029,35.202,18.113
15860.0,10.8,2.2029,33.202,18.113
15870.0,7.8002,1.2029,33.202,17.113
15880.0,7.8002,1.2029,30.202,17.113
15890.0,5.8002,0.20294,27.202,16.113
15900.0,5.8002,0.20294,25.202,15.113
15910.0,2.8002,-1.7971,26.202,14.113
15920.0,2.8002,-1.7971,22.202,16.113
15930.0,1.8002,-1.7971,22.202,14.113
15940.0,1.8002,-1.7971,19.202,15.113
15949.0,0.80022,-2.7971,15.202,13.113
15959.0,0.80022,-2.7971,16.202,14.113
15969.0,-0.19978,-2.7971,17.202,15.113
15979.0,-0.19978,-2.7971,16.202,14.113
15989.0,2.8002,-1.7971,18.202,17.113
15999.0,2.8002,-1.7971,20.202,17.113
16009.0,7.8002,1.2029,25.202,19.113
16019.0,7.8002,1.2029,29.202,21.113
16029.0,12.8,1.2029,33.202,20.113
16038.0,15.8,2.2029,36.202,21.113
16048.0,18.8,3.2029,41.202,23.113
16058.0,22.8,3.2029,46.202,24.113
16068.0,25.8,4.2029,51.202,25.113
16078.0,29.8,6.2029,57.202,27.113
16088.0,31.8,7.2029,59.202,27.113
16098.0,34.8,8.2029,59.202,27.113
16108.0,36.8,9.2029,68.202,31.113
16117.0,37.8,8.2029,68.202,31.113
16127.0,40.8,9.2029,69.202,30.113
16137.0,42.8,8.2029,69.202,30.113
16147.0,40.8,7.2029,68.202,29.113
16157.0,43.8,8.2029,68.202,29.113
16167.0,40.8,9.2029,67.202,29.113
16177.0,42.8,8.2029,67.202,29.113
16187.0,41.8,8.2029,68.202,30.113
16197.0,39.8,8.2029,68.202,30.113
16206.0,41.8,7.2029,68.202,31.113
16216.0,39.8,7.2029,68.202,31.113
16226.0,40.8,7.2029,67.202,30.113
16236.0,39.8,6.2029,67.202,30.113
16246.0,41.8,8.2029,63.202,30.113
16256.0,41.8,7.2029,63.202,30.113
16266.0,42.8,7.2029,61.202,30.113
16276.0,38.8,7.2029,61.202,30.113
16286.0,41.8,7.2029,60.202,27.113
16295.0,40.8,7.2029,60.202,27.113
16305.0,39.8,7.2029,59.202,27.113
16315.0,39.8,7.2029,59.202,27.113
16325.0,39.8,8.2029,60.202,29.113
16335.0,40.8,6.2029,60.202,29.113
16345.0,37.8,6.2029,62.202,29.113
16355.0,36.8,6.2029,60.202,27.113
16365.0,37.8,5.2029,62.202,29.113
16375.0,35.8,5.2029,61.202,27.113
16384.0,36.8,5.2029,61.202,30.113
16394.0,33.8,4.2029,61.202,28.113
16404.0,33.8,5.2029,59.202,30.113
16414.0,32.8,4.2029,59.202,30.113
16424.0,31.8,4.2029,59.202,30.113
16434.0,29.8,3.2029,57.202,29.113
16444.0,29.8,2.2029,55.202,27.113
16454.0,25.8,2.2029,56.202,27.113
16463.0,23.8,2.2029,52.202,28.113
16473.0,20.8,1.2029,53.202,28.113
16483.0,21.8,-0.79706,50.202,27.113
16493.0,21.8,1.2029,52.202,28.113
16503.0,19.8,-0.79706,51.202,27.113
16513.0,16.8,-1.7971,47.202,27.113
16523.0,16.8,-0.79706,47.202,26.113
16533.0,16.8,-0.79706,45.202,27.113
16543.0,15.8,-0.79706,44.202,26.113
16552.0,14.8,-0.79706,45.202,28.113
16562.0,16.8,-1.7971,48.202,29.113
16572.0,18.8,0.20294,51.202,31.113
16582.0,21.8,0.20294,54.202,31.113
16592.0,24.8,1.2029,59.202,32.113
16602.0,26.8,2.2029,63.202,35.113
16612.0,31.8,4.2029,68.202,37.113
16622.0,35.8,5.2029,74.202,38.113
16632.0,39.8,7.2029,80.202,40.113
16641.0,43.8,8.2029,87.202,42.113
16651.0,44.8,7.2029,89.202,41.113
16661.0,47.8,9.2029,94.202,44.113
16671.0,48.8,9.2029,96.202,45.113
16681.0,50.8,8.2029,100.2,46.113
16691.0,51.8,10.203,103.2,47.113
16701.0,54.8,11.203,106.2,48.113
16711.0,53.8,11.203,106.2,49.113
16721.0,56.8,11.203,105.2,48.113
16730.0,56.8,11.203,104.2,48.113
16740.0,56.8,12.203,105.2,50.113
16750.0,56.8,12.203,103.2,48.113
16760.0,57.8,12.203,105.2,50.113
16770.0,57.8,12.203,103.2,49.113
16780.0,58.8,13.203,101.2,47.113
16790.0,58.8,13.203,99.202,47.113
16800.0,57.8,14.203,98.202,47.113
16809.0,57.8,14.203,95.202,48.113
16819.0,57.8,14.203,97.202,46.113
16829.0,57.8,14.203,96.202,48.113
16839.0,59.8,15.203,94.202,47.113
16849.0,59.8,15.203,94.202,47.113
16859.0,60.8,15.203,92.202,47.113
16869.0,60.8,15.203,92.202,48.113
16879.0,61.8,15.203,93.202,48.113
16889.0,61.8,15.203,90.202,47.113
16898.0,61.8,15.203,89.202,47.113
16908.0,59.8,14.203,92.202,47.113
16918.0,58.8,14.203,92.202,47.113
16928.0,59.8,14.203,94.202,49.113
16938.0,58.8,15.203,94.202,48.113
16948.0,58.8,15.203,94.202,49.113
16958.0,56.8,14.203,94.202,48.113
16968.0,57.8,14.203,93.202,50.113
16978.0,56.8,15.203,93.202,50.113
16987.0,55.8,14.203,91.202,50.113
16997.0,52.8,13.203,91.202,49.113
17007.0,52.8,13.203,91.202,50.113
17017.0,52.8,12.203,89.202,49.113
17027.0,47.8,12.203,87.202,49.113
17037.0,45.8,11.203,85.202,49.113
17047.0,45.8,11.203,84.202,49.113
17057.0,45.8,12.203,85.202,48.113
17067.0,45.8,12.203,80.202,48.113
17076.0,45.8,12.203,80.202,48.113
17086.0,42.8,12.203,77.202,46.113
17096.0,44.8,9.2029,74.202,47.113
17106.0,41.8,10.203,74.202,46.113
17116.0,40.8,11.203,71.202,45.113
17126.0,41.8,12.203,70.202,45.113
17136.0,43.8,12.203,71.202,47.113
17146.0,45.8,13.203,71.202,47.113
17155.0,48.8,13.203,79.202,51.113
17165.0,49.8,14.203,79.202,51.113
17175.0,55.8,16.203,91.202,53.113
17185.0,58.8,17.203,91.202,53.113
17195.0,64.8,20.203,100.2,57.113
17205.0,68.8,20.203,100.2,57.113
17215.0,71.8,21.203,112.2,60.113
17225.0,75.8,23.203,112.2,60.113
17235.0,78.8,24.203,118.2,62.113
17244.0,82.8,25.203,118.2,62.113
17254.0,84.8,25.203,123.2,61.113
17264.0,85.8,26.203,123.2,61.113
17274.0,90.8,28.203,125.2,63.113
17284.0,91.8,27.203,125.2,63.113
17294.0,92.8,28.203,127.2,63.113
17304.0,91.8,27.203,127.2,63.113
17314.0,96.8,30.203,130.2,65.113
17324.0,95.8,29.203,130.2,65.113
17333.0,97.8,29.203,129.2,66.113
17343.0,99.8,30.203,128.2,66.113
17353.0,96.8,29.203,127.2,66.113
17363.0,98.8,30.203,126.2,63.113
17373.0,96.8,31.203,125.2,65.113
17383.0,97.8,31.203,122.2,63.113
17393.0,99.8,31.203,121.2,63.113
17403.0,99.8,32.203,119.2,63.113
17413.0,100.8,32.203,117.2,62.113
17422.0,102.8,33.203,115.2,62.113
17432.0,102.8,32.203,116.2,62.113
17442.0,101.8,32.203,116.2,63.113
17452.0,101.8,33.203,116.2,63.113
17462.0,101.8,33.203,115.2,64.113
17472.0,100.8,33.203,115.2,62.113
17482.0,99.8,34.203,114.2,63.113
17492.0,98.8,32.203,113.2,62.113
17501.0,99.8,33.203,114.2,63.113
17511.0,98.8,32.203,113.2,62.113
17521.0,98.8,33.203,113.2,63.113
17531.0,98.8,32.203,115.2,64.113
17541.0,94.8,32.203,114.2,62.113
17551.0,96.8,33.203,115.2,63.113
17561.0,94.8,32.203,113.2,64.113
17571.0,92.8,31.203,113.2,63.113
17581.0,92.8,31.203,114.2,63.113
17590.0,87.8,30.203,113.2,64.113
17600.0,87.8,30.203,112.2,65.113
17610.0,87.8,29.203,110.2,65.113
17620.0,87.8,29.203,111.2,64.113
17630.0,84.8,29.203,111.2,64.113
17640.0,84.8,29.203,107.2,64.113
17650.0,82.8,28.203,105.2,63.113
17660.0,82.8,28.203,106.2,62.113
17670.0,80.8,27.203,102.2,61.113
17679.0,80.8,27.203,100.2,61.113
17689.0,78.8,28.203,99.202,61.113
17699.0,78.8,28.203,98.202,61.113
17709.0,81.8,29.203,99.202,62.113
17719.0,81.8,29.203,100.2,63.113
17729.0,88.8,31.203,103.2,66.113
17739.0,88.8,31.203,108.2,66.113
17749.0,91.8,33.203,112.2,69.113
17759.0,97.8,33.203,120.2,71.113
17768.0,101.8,35.203,127.2,73.113
17778.0,105.8,37.203,132.2,73.113
17788.0,110.8,38.203,139.2,77.113
17798.0,113.8,39.203,144.2,78.113
17808.0,118.8,41.203,146.2,79.113
17818.0,121.8,40.203,151.2,79.113
17828.0,124.8,42.203,155.2,81.113
17838.0,128.8,44.203,155.2,78.113
17847.0,129.8,44.203,154.2,79.113
17857.0,134.8,45.203,154.2,79.113
17867.0,135.8,46.203,152.2,79.113
17877.0,137.8,45.203,152.2,77.113
17887.0,138.8,46.203,149.2,78.113
17897.0,137.8,47.203,149.2,76.113
17907.0,137.8,47.203,148.2,77.113
17917.0,139.8,49.203,146.2,78.113
17927.0,139.8,47.203,146.2,77.113
17936.0,139.8,48.203,145.2,77.113
17946.0,140.8,48.203,144.2,77.113
17956.0,136.8,47.203,143.2,77.113
17966.0,139.8,48.203,140.2,77.113
17976.0,140.8,47.203,139.2,75.113
17986.0,140.8,48.203,137.2,75.113
17996.0,139.8,48.203,133.2,73.113
18006.0,139.8,47.203,132.2,73.113
18016.0,139.8,48.203,131.2,73.113
18025.0,139.8,48.203,130.2,72.113
18035.0,141.8,49.203,127.2,72.113
18045.0,142.8,48.203,128.2,71.113
18055.0,139.8,49.203,127.2,71.113
18065.0,140.8,49.203,123.2,69.113
18075.0,139.8,48.203,121.2,69.113
18085.0,139.8,49.203,120.2,69.113
18095.0,139.8,48.203,118.2,69.113
18105.0,138.8,47.203,117.2,68.113
18114.0,137.8,47.203,117.2,69.113
18124.0,136.8,47.203,117.2,69.113
18134.0,134.8,47.203,116.2,69.113
18144.0,134.8,47.203,117.2,70.113
18154.0,133.8,45.203,115.2,70.113
18164.0,131.8,46.203,113.2,68.113
18174.0,128.8,44.203,110.2,68.113
18184.0,128.8,44.203,106.2,67.113
18193.0,126.8,44.203,106.2,67.113
18203.0,126.8,44.203,104.2,65.113
18213.0,124.8,43.203,104.2,65.113
18223.0,121.8,44.203,96.202,63.113
18233.0,121.8,43.203,96.202,63.113
18243.0,119.8,42.203,88.202,60.113
18253.0,118.8,42.203,88.202,60.113
18263.0,117.8,42.203,84.202,60.113
18273.0,118.8,42.203,84.202,60.113
18282.0,118.8,42.203,80.202,58.113
18292.0,121.8,43.203,80.202,58.113
18302.0,124.8,42.203,84.202,60.113
18312.0,126.8,44.203,84.202,60.113
18322.0,131.8,45.203,95.202,63.113
18332.0,136.8,47.203,95.202,63.113
18342.0,138.8,48.203,104.2,65.113
18352.0,143.8,49.203,104.2,65.113
18362.0,147.8,50.203,111.2,66.113
18371.0,150.8,51.203,111.2,66.113
18381.0,153.8,50.203,120.2,69.113
18391.0,155.8,52.203,120.2,69.113
18401.0,157.8,54.203,120.2,68.113
18411.0,160.8,54.203,120.2,68.113
18421.0,162.8,55.203,123.2,69.113
18431.0,163.8,56.203,121.2,67.113
18441.0,165.8,55.203,122.2,67.113
18451.0,165.8,55.203,118.2,65.113
18460.0,167.8,57.203,119.2,67.113
18470.0,167.8,57.203,117.2,65.113
18480.0,169.8,56.203,117.2,67.113
18490.0,169.8,56.203,114.2,66.113
18500.0,168.8,57.203,113.2,66.113
18510.0,168.8,57.203,108.2,63.113
18520.0,168.8,55.203,107.2,64.113
18530.0,168.8,55.203,101.2,62.113
18539.0,166.8,55.203,98.202,60.113
18549.0,166.8,55.203,95.202,59.113
18559.0,167.8,57.203,90.202,57.113
18569.0,167.8,57.203,88.202,56.113
18579.0,167.8,56.203,82.202,54.113
18589.0,167.8,56.203,79.202,51.113
18599.0,163.8,55.203,74.202,49.113
18609.0,163.8,55.203,71.202,49.113
18619.0,164.8,55.203,72.202,50.113
18628.0,165.8,53.203,72.202,50.113
18638.0,162.8,54.203,69.202,48.113
18648.0,162.8,54.203,68.202,48.113
18658.0,162.8,53.203,66.202,47.113
18668.0,161.8,54.203,64.202,48.113
18678.0,160.8,54.203,63.202,47.113
18688.0,158.8,53.203,63.202,45.113
18698.0,156.8,52.203,60.202,46.113
18708.0,155.8,52.203,60.202,46.113
18717.0,151.8,51.203,57.202,46.113
18727.0,150.8,50.203,56.202,43.113
18737.0,149.8,50.203,53.202,44.113
18747.0,147.8,50.203,51.202,42.113
18757.0,143.8,48.203,51.202,42.113
18767.0,140.8,48.203,50.202,42.113
18777.0,140.8,47.203,47.202,42.113
18787.0,139.8,47.203,45.202,41.113
18797.0,138.8,47.203,43.202,40.113
18806.0,136.8,47.203,41.202,40.113
18816.0,136.8,45.203,40.202,40.113
18826.0,132.8,46.203,36.202,38.113
18836.0,132.8,45.203,33.202,36.113
18846.0,132.8,45.203,28.202,33.113
18856.0,131.8,45.203,27.202,35.113
18866.0,133.8,45.203,26.202,33.113
18876.0,134.8,45.203,27.202,34.113
18885.0,138.8,45.203,30.202,36.113
18895.0,140.8,47.203,33.202,38.113
18905.0,143.8,47.203,39.202,39.113
18915.0,146.8,48.203,43.202,40.113
18925.0,150.8,49.203,47.202,41.113
18935.0,156.8,50.203,52.202,44.113
18945.0,157.8,51.203,57.202,44.113
18955.0,162.8,52.203,62.202,46.113
18965.0,162.8,52.203,65.202,45.113
18974.0,166.8,54.203,67.202,46.113
18984.0,168.8,53.203,66.202,45.113
18994.0,171.8,55.203,68.202,45.113
19004.0,173.8,54.203,66.202,46.113
19014.0,174.8,55.203,65.202,45.113
19024.0,174.8,54.203,63.202,44.113
19034.0,176.8,55.203,64.202,44.113
19044.0,175.8,55.203,64.202,43.113
19054.0,174.8,55.203,59.202,41.113
19063.0,174.8,55.203,57.202,41.113
19073.0,172.8,54.203,56.202,40.113
19083.0,171.8,55.203,54.202,40.113
19093.0,171.8,55.203,49.202,38.113
19103.0,170.8,54.203,49.202,38.113
19113.0,167.8,54.203,47.202,38.113
19123.0,169.8,54.203,45.202,37.113
19133.0,170.8,52.203,40.202,36.113
19143.0,168.8,52.203,39.202,35.113
19152.0,168.8,52.203,34.202,33.113
19162.0,169.8,53.203,34.202,33.113
19172.0,168.8,53.203,29.202,32.113
19182.0,166.8,52.203,31.202,33.113
19192.0,166.8,52.203,27.202,30.113
19202.0,164.8,52.203,25.202,30.113
19212.0,164.8,53.203,24.202,30.113
19222.0,163.8,52.203,24.202,30.113
19231.0,163.8,52.203,21.202,29.113
19241.0,161.8,51.203,21.202,29.113
19251.0,159.8,51.203,17.202,28.113
19261.0,157.8,51.203,17.202,28.113
19271.0,154.8,49.203,16.202,26.113
19281.0,153.8,49.203,16.202,26.113
19291.0,149.8,48.203,11.202,26.113
19301.0,149.8,48.203,11.202,26.113
19311.0,146.8,46.203,7.2025,25.113
19320.0,146.8,46.203,7.2025,25.113
19330.0,142.8,44.203,3.2025,23.113
19340.0,142.8,44.203,3.2025,23.113
19350.0,137.8,44.203,-2.7975,19.113
19360.0,137.8,44.203,-2.7975,19.113
19370.0,131.8,42.203,-8.7975,19.113
19380.0,131.8,42.203,-8.7975,19.113
19390.0,127.8,41.203,-15.798,16.113
19400.0,127.8,41.203,-15.798,16.113
19409.0,123.8,41.203,-23.798,11.113
19419.0,123.8,41.203,-23.798,11.113
19429.0,119.8,39.203,-24.798,11.113
19439.0,119.8,39.203,-27.798,11.113
19449.0,121.8,40.203,-27.798,12.113
19459.0,121.8,40.203,-28.798,11.113
19469.0,122.8,39.203,-26.798,12.113
19479.0,123.8,40.203,-24.798,14.113
19488.0,128.8,39.203,-21.798,14.113
19498.0,131.8,41.203,-15.798,16.113
19508.0,133.8,43.203,-12.798,17.113
19518.0,137.8,43.203,-6.7975,17.113
19528.0,139.8,44.203,-5.7975,17.113
19538.0,140.8,44.203,-1.7975,19.113
19548.0,142.8,45.203,1.2025,20.113
19558.0,144.8,45.203,0.20248,19.113
19568.0,146.8,45.203,3.2025,19.113
19577.0,146.8,46.203,4.2025,19.113
19587.0,148.8,46.203,5.2025,19.113
19597.0,145.8,46.203,2.2025,18.113
19607.0,145.8,45.203,2.2025,18.113
19617.0,145.8,45.203,-0.79752,16.113
19627.0,146.8,46.203,-0.79752,19.113
19637.0,144.8,43.203,-2.7975,18.113
19647.0,145.8,44.203,-4.7975,16.113
19657.0,143.8,44.203,-6.7975,16.113
19666.0,141.8,44.203,-7.7975,16.113
19676.0,142.8,44.203,-10.798,16.113
19686.0,141.8,43.203,-10.798,14.113
19696.0,138.8,43.203,-12.798,14.113
19706.0,138.8,43.203,-14.798,13.113
19716.0,137.8,43.203,-16.798,12.113
19726.0,136.8,42.203,-20.798,12.113
19736.0,136.8,42.203,-20.798,11.113
19746.0,134.8,42.203,-23.798,10.113
19755.0,133.8,42.203,-26.798,10.113
19765.0,134.8,41.203,-27.798,9.1132
19775.0,132.8,42.203,-31.798,8.1132
19785.0,130.8,42.203,-30.798,8.1132
19795.0,130.8,40.203,-31.798,9.1132
19805.0,130.8,41.203,-32.798,8.1132
19815.0,128.8,41.203,-30.798,7.1132
19825.0,125.8,40.203,-30.798,9.1132
19834.0,124.8,40.203,-34.798,6.1132
19844.0,123.8,40.203,-35.798,6.1132
19854.0,120.8,39.203,-37.798,4.1132
19864.0,119.8,39.203,-38.798,5.1132
19874.0,117.8,38.203,-42.798,5.1132
19884.0,117.8,39.203,-41.798,4.1132
19894.0,114.8,38.203,-40.798,4.1132
19904.0,113.8,36.203,-44.798,3.1132
19914.0,110.8,36.203,-45.798,2.1132
19923.0,109.8,35.203,-47.798,2.1132
19933.0,106.8,35.203,-49.798,0.11317
19943.0,102.8,33.203,-53.798,1.1132
19953.0,98.8,32.203,-55.798,0.11317
19963.0,96.8,32.203,-61.798,-1.8868
19973.0,94.8,32.203,-59.798,-1.8868
19983.0,91.8,31.203,-64.798,-1.8868
19993.0,91.8,30.203,-65.798,-1.8868
20003.0,87.8,29.203,-68.798,-2.8868
20012.0,87.8,28.203,-68.798,-4.8868
20022.0,86.8,29.203,-67.798,-3.8868
20032.0,87.8,28.203,-65.798,-1.8868
20042.0,88.8,28.203,-62.798,-2.8868
20052.0,90.8,29.203,-59.798,0.11317
20062.0,92.8,30.203,-55.798,2.1132
20072.0,96.8,30.203,-50.798,3.1132
20082.0,98.8,31.203,-47.798,3.1132
20092.0,101.8,33.203,-45.798,3.1132
20101.0,104.8,32.203,-41.798,5.1132
20111.0,107.8,33.203,-35.798,8.1132
20121.0,106.8,34.203,-32.798,7.1132
20131.0,107.8,33.203,-26.798,8.1132
20141.0,108.8,34.203,-23.798,9.1132
20151.0,109.8,34.203,-23.798,11.113
20161.0,109.8,35.203,-22.798,12.113
20171.0,109.8,35.203,-20.798,10.113
20180.0,108.8,34.203,-21.798,12.113
20190.0,108.8,34.203,-19.798,13.113
20200.0,108.8,34.203,-18.798,12.113
20210.0,108.8,34.203,-21.798,12.113
20220.0,102.8,33.203,-23.798,11.113
20230.0,102.8,33.203,-23.798,11.113
20240.0,100.8,31.203,-26.798,8.1132
20250.0,100.8,31.203,-26.798,8.1132
20260.0,98.8,31.203,-30.798,9.1132
20269.0,98.8,31.203,-30.798,9.1132
20279.0,93.8,28.203,-31.798,7.1132
20289.0,93.8,28.203,-31.798,7.1132
20299.0,92.8,29.203,-34.798,8.1132
20309.0,92.8,29.203,-34.798,8.1132
20319.0,90.8,29.203,-36.798,8.1132
20329.0,90.8,29.203,-36.798,8.1132
20339.0,89.8,29.203,-35.798,9.1132
20349.0,88.8,28.203,-35.798,9.1132
20358.0,88.8,29.203,-36.798,8.1132
20368.0,86.8,29.203,-36.798,8.1132
20378.0,85.8,29.203,-36.798,8.1132
20388.0,82.8,27.203,-36.798,8.1132
20398.0,82.8,27.203,-35.798,10.113
20408.0,79.8,25.203,-35.798,10.113
20418.0,77.8,25.203,-38.798,8.1132
20428.0,76.8,26.203,-38.798,8.1132
20438.0,73.8,25.203,-38.798,8.1132
20447.0,70.8,23.203,-41.798,7.1132
20457.0,70.8,23.203,-41.798,8.1132
20467.0,66.8,22.203,-45.798,7.1132
20477.0,64.8,22.203,-45.798,6.1132
20487.0,61.8,20.203,-47.798,6.1132
20497.0,58.8,21.203,-48.798,6.1132
20507.0,57.8,18.203,-48.798,5.1132
20517.0,53.8,18.203,-50.798,6.1132
20526.0,49.8,17.203,-51.798,6.1132
20536.0,48.8,18.203,-52.798,6.1132
20546.0,46.8,17.203,-54.798,7.1132
20556.0,44.8,16.203,-54.798,4.1132
20566.0,41.8,15.203,-56.798,5.1132
20576.0,41.8,16.203,-59.798,3.1132
20586.0,39.8,16.203,-60.798,3.1132
20596.0,39.8,14.203,-61.798,4.1132
20606.0,38.8,16.203,-58.798,5.1132
20615.0,39.8,17.203,-59.798,4.1132
20625.0,39.8,17.203,-54.798,7.1132
20635.0,40.8,16.203,-48.798,8.1132
20645.0,44.8,17.203,-44.798,11.113
20655.0,45.8,17.203,-39.798,10.113
20665.0,48.8,19.203,-34.798,14.113
20675.0,51.8,19.203,-29.798,15.113
20685.0,53.8,18.203,-23.798,17.113
20695.0,57.8,20.203,-19.798,18.113
20704.0,57.8,21.203,-13.798,20.113
20714.0,60.8,21.203,-11.798,20.113
20724.0,60.8,21.203,-10.798,20.113
20734.0,60.8,22.203,-8.7975,20.113
20744.0,61.8,21.203,-6.7975,23.113
20754.0,60.8,22.203,-5.7975,24.113
20764.0,59.8,22.203,-3.7975,24.113
20774.0,59.8,22.203,-2.7975,25.113
20784.0,58.8,21.203,-2.7975,25.113
20793.0,57.8,22.203,-1.7975,26.113
20803.0,55.8,22.203,-1.7975,27.113
20813.0,56.8,22.203,-3.7975,27.113
20823.0,56.8,21.203,-3.7975,26.113
20833.0,54.8,20.203,-2.7975,27.113
20843.0,52.8,20.203,-4.7975,26.113
20853.0,49.8,20.203,-6.7975,25.113
20863.0,51.8,20.203,-4.7975,26.113
20872.0,49.8,19.203,-5.7975,26.113
20882.0,47.8,19.203,-8.7975,25.113
20892.0,46.8,19.203,-9.7975,25.113
20902.0,45.8,19.203,-10.798,26.113
20912.0,46.8,18.203,-9.7975,26.113
20922.0,44.8,18.203,-11.798,25.113
20932.0,42.8,18.203,-11.798,26.113
20942.0,42.8,18.203,-9.7975,27.113
20952.0,39.8,17.203,-10.798,27.113
20961.0,37.8,17.203,-8.7975,28.113
20971.0,34.8,16.203,-9.7975,28.113
20981.0,32.8,16.203,-6.7975,29.113
20991.0,31.8,15.203,-9.7975,27.113
21001.0,31.8,15.203,-11.798,29.113
21011.0,25.8,13.203,-8.7975,29.113
21021.0,25.8,13.203,-8.7975,28.113
21031.0,22.8,12.203,-11.798,29.113
21041.0,22.8,12.203,-11.798,30.113
21050.0,18.8,10.203,-12.798,31.113
21060.0,18.8,10.203,-12.798,29.113
21070.0,10.8,8.2029,-11.798,28.113
21080.0,10.8,8.2029,-16.798,28.113
21090.0,6.8002,8.2029,-15.798,28.113
21100.0,6.8002,8.2029,-15.798,29.113
21110.0,2.8002,7.2029,-20.798,28.113
21120.0,2.8002,7.2029,-20.798,27.113
21130.0,-3.1998,6.2029,-23.798,27.113
21139.0,-3.1998,6.2029,-24.798,26.113
21149.0,-3.1998,6.2029,-25.798,25.113
21159.0,-3.1998,6.2029,-26.798,25.113
21169.0,-4.1998,6.2029,-27.798,26.113
21179.0,-4.1998,7.2029,-27.798,26.113
21189.0,-6.1998,6.2029,-25.798,27.113
21199.0,-2.1998,7.2029,-24.798,29.113
21209.0,-1.1998,7.2029,-17.798,30.113
21218.0,-0.19978,9.2029,-15.798,31.113
21228.0,2.8002,9.2029,-12.798,32.113
21238.0,4.8002,9.2029,-6.7975,33.113
21248.0,6.8002,10.203,-1.7975,36.113
21258.0,7.8002,11.203,-1.7975,36.113
21268.0,9.8002,12.203,5.2025,38.113
21278.0,13.8,12.203,5.2025,38.113
21288.0,14.8,14.203,14.202,42.113
21298.0,13.8,12.203,14.202,42.113
21307.0,14.8,13.203,19.202,42.113
21317.0,16.8,14.203,19.202,42.113
21327.0,15.8,14.203,20.202,42.113
21337.0,16.8,14.203,20.202,42.113
21347.0,14.8,14.203,23.202,42.113
21357.0,13.8,14.203,23.202,42.113
21367.0,13.8,15.203,23.202,44.113
21377.0,12.8,14.203,23.202,44.113
21387.0,12.8,13.203,22.202,46.113
21396.0,10.8,13.203,22.202,46.113
21406.0,8.8002,13.203,17.202,43.113
21416.0,8.8002,13.203,17.202,43.113
21426.0,6.8002,14.203,13.202,43.113
21436.0,7.8002,14.203,13.202,43.113
21446.0,5.8002,13.203,8.2025,41.113
21456.0,6.8002,14.203,8.2025,41.113
21466.0,6.8002,14.203,6.2025,41.113
21476.0,6.8002,14.203,5.2025,40.113
21485.0,4.8002,13.203,4.2025,40.113
21495.0,4.8002,14.203,1.2025,39.113
21505.0,4.8002,14.203,3.2025,40.113
21515.0,3.8002,14.203,3.2025,40.113
21525.0,3.8002,14.203,4.2025,41.113
21535.0,1.8002,14.203,5.2025,40.113
21545.0,1.8002,14.203,3.2025,40.113
21555.0,-1.1998,14.203,4.2025,42.113
21564.0,-2.1998,14.203,8.2025,43.113
21574.0,-4.1998,13.203,9.2025,44.113
21584.0,-3.1998,12.203,9.2025,45.113
21594.0,-5.1998,13.203,12.202,45.113
21604.0,-6.1998,13.203,13.202,47.113
21614.0,-9.1998,12.203,13.202,48.113
21624.0,-11.2,13.203,14.202,47.113
21634.0,-11.2,12.203,12.202,48.113
21644.0,-13.2,12.203,11.202,46.113
21653.0,-15.2,12.203,13.202,48.113
21663.0,-16.2,11.203,13.202,48.113
21673.0,-19.2,10.203,14.202,50.113
21683.0,-20.2,10.203,14.202,49.113
21693.0,-24.2,10.203,14.202,50.113
21703.0,-25.2,9.2029,15.202,49.113
21713.0,-24.2,10.203,13.202,50.113
21723.0,-27.2,12.203,11.202,48.113
21733.0,-27.2,10.203,12.202,49.113
21742.0,-25.2,11.203,14.202,50.113
21752.0,-23.2,11.203,13.202,52.113
21762.0,-24.2,10.203,13.202,51.113
21772.0,-21.2,11.203,18.202,53.113
21782.0,-17.2,13.203,23.202,57.113
21792.0,-14.2,13.203,31.202,58.113
21802.0,-12.2,15.203,38.202,61.113
21812.0,-8.1998,15.203,46.202,64.113
21822.0,-7.1998,18.203,51.202,64.113
21831.0,-4.1998,18.203,55.202,65.113
21841.0,-3.1998,18.203,59.202,67.113
21851.0,-3.1998,20.203,66.202,68.113
21861.0,-2.1998,19.203,68.202,68.113
21871.0,-2.1998,19.203,70.202,68.113
21881.0,-1.1998,20.203,72.202,68.113
21891.0,-1.1998,20.203,74.202,66.113
21901.0,-1.1998,19.203,73.202,68.113
21910.0,-1.1998,19.203,72.202,66.113
21920.0,0.80022,20.203,72.202,67.113
21930.0,0.80022,20.203,71.202,67.113
21940.0,-2.1998,20.203,72.202,69.113
21950.0,-2.1998,20.203,71.202,68.113
21960.0,-2.1998,21.203,73.202,68.113
21970.0,-2.1998,21.203,71.202,70.113
21980.0,-2.1998,21.203,72.202,70.113
21990.0,-2.1998,21.203,73.202,69.113
21999.0,-4.1998,21.203,75.202,70.113
22009.0,-4.1998,21.203,73.202,70.113
22019.0,-4.1998,21.203,72.202,69.113
22029.0,-4.1998,21.203,71.202,70.113
22039.0,-2.1998,23.203,69.202,69.113
22049.0,-2.1998,22.203,68.202,70.113
22059.0,-4.1998,22.203,70.202,71.113
22069.0,-5.1998,21.203,68.202,69.113
22079.0,-4.1998,22.203,69.202,69.113
22088.0,-4.1998,22.203,68.202,70.113
22098.0,-6.1998,21.203,71.202,71.113
22108.0,-6.1998,21.203,68.202,70.113
22118.0,-5.1998,22.203,69.202,69.113
22128.0,-6.1998,23.203,68.202,70.113
22138.0,-6.1998,22.203,71.202,71.113
22148.0,-8.1998,23.203,68.202,69.113
22158.0,-8.1998,23.203,68.202,71.113
22168.0,-11.2,21.203,67.202,70.113
22177.0,-12.2,22.203,68.202,70.113
22187.0,-14.2,23.203,68.202,70.113
22197.0,-13.2,22.203,68.202,69.113
22207.0,-15.2,22.203,65.202,69.113
22217.0,-17.2,21.203,66.202,70.113
22227.0,-19.2,22.203,63.202,69.113
22237.0,-21.2,21.203,63.202,68.113
22247.0,-22.2,21.203,60.202,67.113
22256.0,-26.2,20.203,58.202,67.113
22266.0,-24.2,21.203,58.202,67.113
22276.0,-26.2,21.203,54.202,66.113
22286.0,-25.2,20.203,54.202,66.113
22296.0,-26.2,21.203,53.202,66.113
22306.0,-25.2,21.203,53.202,66.113
22316.0,-26.2,22.203,55.202,67.113
22326.0,-23.2,22.203,55.202,67.113
22336.0,-21.2,23.203,60.202,71.113
22345.0,-17.2,23.203,60.202,71.113
22355.0,-15.2,24.203,73.202,74.113
22365.0,-11.2,26.203,73.202,74.113
22375.0,-9.1998,26.203,84.202,78.113
22385.0,-7.1998,27.203,84.202,78.113
22395.0,-4.1998,28.203,95.202,81.113
22405.0,-0.19978,29.203,95.202,81.113
22415.0,4.8002,32.203,102.2,80.113
22425.0,5.8002,31.203,102.2,80.113
22434.0,8.8002,33.203,107.2,84.113
22444.0,9.8002,33.203,107.2,84.113
22454.0,11.8,33.203,110.2,84.113
22464.0,13.8,34.203,110.2,84.113
22474.0,11.8,34.203,106.2,83.113
22484.0,13.8,35.203,108.2,83.113
22494.0,13.8,35.203,110.2,85.113
22504.0,13.8,37.203,110.2,83.113
22514.0,14.8,36.203,108.2,84.113
22523.0,11.8,36.203,106.2,85.113
22533.0,12.8,36.203,105.2,83.113
22543.0,12.8,36.203,103.2,82.113
22553.0,13.8,37.203,101.2,82.113
22563.0,14.8,37.203,100.2,82.113
22573.0,13.8,37.203,98.202,80.113
22583.0,15.8,38.203,97.202,80.113
22593.0,14.8,38.203,96.202,81.113
22602.0,15.8,39.203,91.202,79.113
22612.0,15.8,38.203,90.202,78.113
22622.0,15.8,39.203,88.202,77.113
22632.0,14.8,38.203,85.202,76.113
22642.0,15.8,39.203,83.202,75.113
22652.0,14.8,39.203,83.202,76.113
22662.0,13.8,40.203,80.202,74.113
22672.0,12.8,39.203,79.202,72.113
22682.0,14.8,40.203,80.202,74.113
22691.0,11.8,39.203,80.202,73.113
22701.0,12.8,39.203,79.202,74.113
22711.0,12.8,40.203,78.202,73.113
22721.0,12.8,40.203,75.202,73.113
22731.0,6.8002,39.203,77.202,73.113
22741.0,6.8002,39.203,78.202,73.113
22751.0,4.8002,39.203,74.202,74.113
22761.0,4.8002,39.203,71.202,72.113
22771.0,4.8002,38.203,70.202,71.113
22780.0,4.8002,38.203,68.202,71.113
22790.0,1.8002,38.203,63.202,69.113
22800.0,1.8002,38.203,61.202,68.113
22810.0,-0.19978,38.203,60.202,66.113
22820.0,-0.19978,38.203,55.202,66.113
22830.0,-2.1998,37.203,54.202,65.113
22840.0,-2.1998,37.203,49.202,63.113
22850.0,-4.1998,38.203,47.202,63.113
22860.0,-4.1998,38.203,47.202,63.113
22869.0,-3.1998,39.203,46.202,63.113
22879.0,-3.1998,39.203,44.202,61.113
22889.0,-2.1998,40.203,45.202,63.113
22899.0,1.8002,39.203,50.202,63.113
22909.0,3.8002,40.203,52.202,66.113
22919.0,2.8002,39.203,56.202,65.113
22929.0,4.8002,40.203,62.202,67.113
22939.0,9.8002,42.203,69.202,69.113
22948.0,13.8,44.203,74.202,72.113
22958.0,15.8,45.203,79.202,72.113
22968.0,18.8,46.203,84.202,74.113
22978.0,21.8,46.203,84.202,72.113
22988.0,23.8,47.203,86.202,73.113
22998.0,23.8,47.203,86.202,73.113
23008.0,24.8,48.203,88.202,72.113
23018.0,27.8,49.203,87.202,72.113
23028.0,27.8,50.203,86.202,71.113
23037.0,26.8,49.203,84.202,71.113
23047.0,29.8,50.203,83.202,70.113
23057.0,29.8,50.203,83.202,71.113
23067.0,31.8,49.203,82.202,70.113
23077.0,30.8,51.203,81.202,69.113
23087.0,30.8,49.203,78.202,69.113
23097.0,31.8,51.203,75.202,68.113
23107.0,30.8,50.203,74.202,67.113
23117.0,30.8,52.203,69.202,67.113
23126.0,31.8,51.203,67.202,65.113
23136.0,30.8,52.203,64.202,64.113
23146.0,33.8,53.203,62.202,60.113
23156.0,33.8,52.203,58.202,61.113
23166.0,32.8,53.203,56.202,60.113
23176.0,32.8,53.203,56.202,61.113
23186.0,32.8,53.203,53.202,59.113
23196.0,33.8,53.203,52.202,59.113
23206.0,32.8,53.203,53.202,60.113
23215.0,32.8,52.203,51.202,59.113
23225.0,31.8,53.203,49.202,58.113
23235.0,29.8,51.203,47.202,56.113
23245.0,28.8,51.203,45.202,56.113
23255.0,28.8,50.203,45.202,56.113
23265.0,27.8,51.203,43.202,56.113
23275.0,25.8,51.203,41.202,54.113
23285.0,26.8,50.203,41.202,56.113
23294.0,25.8,50.203,41.202,54.113
23304.0,21.8,49.203,41.202,55.113
23314.0,21.8,50.203,39.202,53.113
23324.0,19.8,49.203,38.202,53.113
23334.0,19.8,50.203,37.202,52.113
23344.0,17.8,49.203,34.202,51.113
23354.0,15.8,49.203,34.202,51.113
23364.0,15.8,49.203,30.202,51.113
23374.0,14.8,48.203,30.202,51.113
23383.0,15.8,49.203,25.202,48.113
23393.0,13.8,49.203,25.202,48.113
23403.0,12.8,48.203,18.202,48.113
23413.0,11.8,48.203,18.202,48.113
23423.0,12.8,48.203,16.202,45.113
23433.0,13.8,49.203,16.202,45.113
23443.0,15.8,50.203,18.202,49.113
23453.0,18.8,50.203,18.202,49.113
23463.0,22.8,50.203,26.202,51.113
23472.0,24.8,52.203,26.202,51.113
23482.0,27.8,52.203,33.202,52.113
23492.0,32.8,54.203,33.202,52.113
23502.0,36.8,56.203,42.202,53.113
23512.0,35.8,56.203,42.202,53.113
23522.0,38.8,56.203,51.202,59.113
23532.0,40.8,56.203,51.202,59.113
23542.0,42.8,57.203,54.202,59.113
23552.0,43.8,58.203,54.202,59.113
23561.0,48.8,58.203,56.202,57.113
23571.0,48.8,58.203,58.202,57.113
23581.0,48.8,59.203,55.202,56.113
23591.0,48.8,59.203,51.202,54.113
23601.0,49.8,59.203,50.202,54.113
23611.0,49.8,59.203,47.202,52.113
23621.0,52.8,59.203,47.202,52.113
23631.0,52.8,59.203,44.202,51.113
23640.0,50.8,60.203,44.202,51.113
23650.0,50.8,60.203,42.202,50.113
23660.0,50.8,60.203,39.202,50.113
23670.0,50.8,60.203,39.202,49.113
23680.0,50.8,60.203,34.202,49.113
23690.0,50.8,60.203,34.202,48.113
23700.0,52.8,60.203,32.202,47.113
23710.0,52.8,60.203,28.202,46.113
23720.0,52.8,62.203,24.202,42.113
23729.0,52.8,62.203,23.202,42.113
23739.0,52.8,61.203,20.202,42.113
23749.0,51.8,60.203,17.202,40.113
23759.0,51.8,61.203,15.202,39.113
23769.0,54.8,62.203,13.202,39.113
23779.0,53.8,61.203,11.202,37.113
23789.0,52.8,61.203,13.202,40.113
23799.0,51.8,61.203,10.202,38.113
23809.0,51.8,61.203,8.2025,38.113
23818.0,51.8,61.203,6.2025,36.113
23828.0,48.8,60.203,5.2025,35.113
23838.0,45.8,59.203,4.2025,35.113
23848.0,44.8,59.203,3.2025,36.113
23858.0,42.8,58.203,2.2025,35.113
23868.0,38.8,58.203,0.20248,34.113
23878.0,37.8,57.203,-1.7975,34.113
23888.0,36.8,56.203,-6.7975,33.113
23898.0,33.8,56.203,-7.7975,31.113
23907.0,30.8,55.203,-11.798,29.113
23917.0,30.8,54.203,-13.798,29.113
23927.0,29.8,53.203,-18.798,27.113
23937.0,25.8,54.203,-22.798,26.113
23947.0,25.8,53.203,-22.798,26.113
23957.0,24.8,54.203,-26.798,25.113
23967.0,24.8,54.203,-27.798,24.113
23977.0,24.8,53.203,-29.798,23.113
23986.0,25.8,55.203,-31.798,22.113
23996.0,26.8,55.203,-27.798,23.113
24006.0,28.8,55.203,-24.798,25.113
24016.0,31.8,56.203,-23.798,25.113
24026.0,34.8,56.203,-20.798,26.113
24036.0,36.8,57.203,-16.798,26.113
24046.0,37.8,57.203,-11.798,27.113
24056.0,38.8,58.203,-6.7975,29.113
24066.0,43.8,59.203,0.20248,31.113
24075.0,44.8,59.203,3.2025,31.113
24085.0,47.8,60.203,6.2025,32.113
24095.0,50.8,62.203,11.202,33.113
24105.0,50.8,61.203,14.202,34.113
24115.0,52.8,62.203,14.202,33.113
24125.0,53.8,62.203,14.202,35.113
24135.0,56.8,62.203,16.202,33.113
24145.0,55.8,62.203,14.202,33.113
24155.0,53.8,62.203,14.202,34.113
24164.0,56.8,63.203,12.202,34.113
24174.0,54.8,63.203,11.202,33.113
24184.0,55.8,63.203,11.202,32.113
24194.0,54.8,62.203,9.2025,32.113
24204.0,53.8,62.203,8.2025,30.113
24214.0,54.8,62.203,6.2025,31.113
24224.0,53.8,63.203,1.2025,29.113
24234.0,55.8,63.203,-1.7975,29.113
24244.0,54.8,62.203,-0.79752,30.113
24253.0,55.8,62.203,-2.7975,28.113
24263.0,57.8,64.203,-3.7975,28.113
24273.0,57.8,62.203,-3.7975,28.113
24283.0,57.8,63.203,-4.7975,28.113
24293.0,57.8,64.203,-4.7975,28.113
24303.0,55.8,63.203,-4.7975,29.113
24313.0,56.8,63.203,-3.7975,28.113
24323.0,56.8,63.203,-4.7975,27.113
24332.0,56.8,64.203,-7.7975,28.113
24342.0,57.8,64.203,-10.798,26.113
24352.0,54.8,63.203,-9.7975,24.113
24362.0,52.8,62.203,-9.7975,24.113
24372.0,51.8,62.203,-12.798,25.113
24382.0,50.8,62.203,-12.798,25.113
24392.0,47.8,61.203,-14.798,23.113
24402.0,46.8,60.203,-14.798,23.113
24412.0,45.8,59.203,-14.798,23.113
24421.0,45.8,59.203,-14.798,23.113
24431.0,39.8,59.203,-18.798,23.113
24441.0,39.8,59.203,-18.798,23.113
24451.0,37.8,58.203,-19.798,24.113
24461.0,37.8,58.203,-19.798,24.113
24471.0,32.8,57.203,-26.798,21.113
24481.0,32.8,57.203,-26.798,21.113
24491.0,30.8,55.203,-32.798,20.113
24501.0,30.8,55.203,-32.798,20.113
24510.0,29.8,56.203,-35.798,19.113
24520.0,29.8,56.203,-35.798,19.113
24530.0,30.8,55.203,-37.798,19.113
24540.0,30.8,55.203,-37.798,19.113
24550.0,34.8,57.203,-35.798,18.113
24560.0,34.8,57.203,-35.798,18.113
24570.0,41.8,59.203,-34.798,21.113
24580.0,41.8,59.203,-29.798,21.113
24589.0,43.8,59.203,-29.798,20.113
24599.0,47.8,60.203,-26.798,21.113
24609.0,49.8,61.203,-19.798,20.113
24619.0,52.8,62.203,-19.798,21.113
24629.0,56.8,63.203,-17.798,22.113
24639.0,58.8,65.203,-15.798,22.113
24649.0,62.8,66.203,-12.798,24.113
24659.0,62.8,66.203,-9.7975,24.113
24669.0,65.8,67.203,-8.7975,23.113
24678.0,66.8,67.203,-7.7975,22.113
24688.0,67.8,67.203,-10.798,22.113
24698.0,68.8,68.203,-10.798,23.113
24708.0,68.8,67.203,-11.798,22.113
24718.0,68.8,67.203,-9.7975,22.113
24728.0,67.8,68.203,-10.798,23.113
24738.0,67.8,67.203,-11.798,23.113
24748.0,65.8,65.203,-11.798,21.113
24758.0,65.8,66.203,-13.798,22.113
24767.0,65.8,67.203,-15.798,21.113
24777.0,65.8,67.203,-18.798,20.113
24787.0,67.8,66.203,-21.798,18.113
24797.0,66.8,67.203,-20.798,18.113
24807.0,68.8,68.203,-23.798,17.113
24817.0,67.8,67.203,-26.798,17.113
24827.0,67.8,66.203,-27.798,17.113
24837.0,67.8,68.203,-27.798,17.113
24847.0,69.8,68.203,-27.798,17.113
24856.0,68.8,67.203,-27.798,17.113
24866.0,68.8,66.203,-26.798,18.113
24876.0,69.8,68.203,-24.798,18.113
24886.0,71.8,68.203,-23.798,19.113
24896.0,69.8,68.203,-22.798,20.113
24906.0,68.8,68.203,-22.798,19.113
24916.0,67.8,68.203,-22.798,20.113
24926.0,66.8,66.203,-19.798,22.113
24935.0,67.8,67.203,-18.798,23.113
24945.0,63.8,67.203,-19.798,22.113
24955.0,61.8,66.203,-19.798,23.113
24965.0,59.8,64.203,-18.798,24.113
24975.0,56.8,64.203,-18.798,22.113
24985.0,57.8,64.203,-17.798,22.113
24995.0,56.8,63.203,-17.798,23.113
25005.0,54.8,64.203,-18.798,24.113
25015.0,54.8,62.203,-18.798,24.113
25024.0,52.8,63.203,-18.798,25.113
25034.0,50.8,62.203,-20.798,25.113
25044.0,49.8,61.203,-20.798,24.113
25054.0,48.8,62.203,-20.798,25.113
25064.0,49.8,63.203,-20.798,26.113
25074.0,48.8,62.203,-20.798,25.113
25084.0,49.8,62.203,-18.798,26.113
25094.0,51.8,63.203,-17.798,28.113
25104.0,52.8,63.203,-11.798,30.113
25113.0,55.8,63.203,-9.7975,32.113
25123.0,58.8,65.203,-3.7975,33.113
25133.0,62.8,65.203,3.2025,37.113
25143.0,64.8,66.203,9.2025,38.113
25153.0,66.8,67.203,16.202,41.113
25163.0,71.8,69.203,22.202,41.113
25173.0,74.8,69.203,27.202,45.113
25183.0,75.8,70.203,33.202,45.113
25193.0,79.8,71.203,38.202,47.113
25202.0,80.8,71.203,40.202,46.113
25212.0,81.8,71.203,44.202,47.113
25222.0,84.8,72.203,47.202,48.113
25232.0,83.8,71.203,47.202,50.113
25242.0,83.8,72.203,49.202,48.113
25252.0,87.8,72.203,49.202,49.113
25262.0,85.8,73.203,50.202,49.113
25272.0,83.8,72.203,52.202,49.113
25281.0,85.8,72.203,50.202,50.113
25291.0,85.8,72.203,53.202,50.113
25301.0,84.8,72.203,53.202,52.113
25311.0,84.8,72.203,53.202,51.113
25321.0,83.8,72.203,54.202,52.113
25331.0,83.8,72.203,52.202,53.113
25341.0,84.8,72.203,50.202,52.113
25351.0,84.8,72.203,50.202,52.113
25361.0,87.8,72.203,48.202,52.113
25370.0,87.8,72.203,48.202,52.113
25380.0,87.8,73.203,49.202,50.113
25390.0,87.8,73.203,49.202,50.113
25400.0,88.8,74.203,50.202,53.113
25410.0,88.8,74.203,50.202,53.113
25420.0,88.8,74.203,51.202,53.113
25430.0,88.8,74.203,51.202,53.113
25440.0,86.8,73.203,53.202,55.113
25450.0,86.8,73.203,53.202,55.113
25459.0,85.8,73.203,55.202,55.113
25469.0,85.8,71.203,55.202,55.113
25479.0,85.8,72.203,58.202,56.113
25489.0,82.8,71.203,58.202,56.113
25499.0,82.8,71.203,58.202,58.113
25509.0,82.8,70.203,58.202,58.113
25519.0,78.8,70.203,61.202,59.113
25529.0,77.8,69.203,61.202,59.113
25539.0,76.8,69.203,62.202,59.113
25548.0,74.8,69.203,62.202,59.113
25558.0,75.8,69.203,62.202,62.113
25568.0,74.8,69.203,62.202,62.113
25578.0,71.8,69.203,62.202,63.113
25588.0,70.8,69.203,63.202,62.113
25598.0,69.8,68.203,60.202,61.113
25608.0,69.8,68.203,60.202,61.113
25618.0,68.8,68.203,60.202,62.113
25627.0,68.8,68.203,62.202,63.113
25637.0,68.8,68.203,64.202,63.113
25647.0,70.8,68.203,68.202,64.113
25657.0,72.8,68.203,69.202,67.113
25667.0,74.8,69.203,74.202,69.113
25677.0,76.8,70.203,78.202,71.113
25687.0,79.8,70.203,83.202,72.113
25697.0,83.8,71.203,89.202,74.113
25707.0,85.8,73.203,97.202,75.113
25716.0,88.8,74.203,102.2,77.113
25726.0,91.8,74.203,110.2,79.113
25736.0,95.8,75.203,114.2,81.113
25746.0,98.8,75.203,119.2,84.113
25756.0,96.8,76.203,125.2,83.113
25766.0,99.8,77.203,128.2,86.113
25776.0,103.8,78.203,129.2,86.113
25786.0,103.8,78.203,134.2,88.113
25796.0,103.8,77.203,136.2,88.113
25805.0,107.8,78.203,137.2,89.113
25815.0,107.8,79.203,136.2,88.113
25825.0,107.8,78.203,136.2,89.113
25835.0,107.8,80.203,137.2,89.113
25845.0,109.8,80.203,137.2,90.113
25855.0,109.8,79.203,138.2,90.113
25865.0,110.8,79.203,138.2,91.113
25875.0,108.8,80.203,139.2,92.113
25885.0,111.8,81.203,139.2,92.113
25894.0,111.8,80.203,136.2,91.113
25904.0,112.8,80.203,134.2,90.113
25914.0,112.8,81.203,132.2,88.113
25924.0,111.8,80.203,128.2,87.113
25934.0,115.8,80.203,128.2,88.113
25944.0,113.8,80.203,128.2,88.113
25954.0,113.8,81.203,129.2,88.113
25964.0,113.8,80.203,128.2,87.113
25973.0,113.8,81.203,128.2,87.113
25983.0,112.8,80.203,129.2,88.113
25993.0,113.8,79.203,128.2,87.113
26003.0,113.8,80.203,127.2,87.113
26013.0,114.8,80.203,123.2,86.113
26023.0,111.8,80.203,123.2,86.113
26033.0,110.8,78.203,126.2,87.113
26043.0,108.8,79.203,126.2,87.113
26053.0,108.8,79.203,126.2,88.113
26062.0,106.8,78.203,123.2,85.113
26072.0,106.8,79.203,123.2,86.113
26082.0,106.8,77.203,124.2,85.113
26092.0,104.8,78.203,123.2,87.113
26102.0,103.8,77.203,120.2,86.113
26112.0,100.8,77.203,118.2,86.113
26122.0,101.8,77.203,118.2,86.113
26132.0,99.8,76.203,116.2,84.113
26142.0,99.8,76.203,113.2,84.113
26151.0,97.8,76.203,114.2,84.113
26161.0,97.8,76.203,112.2,85.113
26171.0,96.8,75.203,113.2,84.113
26181.0,96.8,75.203,112.2,83.113
26191.0,100.8,76.203,114.2,85.113
26201.0,100.8,76.203,115.2,87.113
26211.0,103.8,76.203,119.2,87.113
26221.0,103.8,76.203,120.2,87.113
26231.0,110.8,77.203,129.2,90.113
26240.0,110.8,77.203,135.2,92.113
26250.0,116.8,80.203,142.2,95.113
26260.0,116.8,80.203,150.2,97.113
26270.0,122.8,81.203,159.2,100.11
26280.0,122.8,81.203,164.2,102.11
26290.0,127.8,83.203,169.2,102.11
26300.0,127.8,83.203,173.2,103.11
26310.0,131.8,84.203,172.2,102.11
26319.0,133.8,85.203,174.2,102.11
26329.0,136.8,85.203,173.2,102.11
26339.0,138.8,84.203,175.2,102.11
26349.0,139.8,86.203,175.2,102.11
26359.0,140.8,86.203,176.2,102.11
26369.0,141.8,86.203,175.2,103.11
26379.0,139.8,85.203,175.2,103.11
26389.0,140.8,85.203,174.2,102.11
26399.0,140.8,86.203,172.2,102.11
26408.0,141.8,86.203,171.2,100.11
26418.0,141.8,86.203,169.2,101.11
26428.0,143.8,88.203,168.2,101.11
26438.0,143.8,87.203,168.2,101.11
26448.0,142.8,88.203,162.2,98.113
26458.0,143.8,86.203,162.2,98.113
26468.0,143.8,87.203,157.2,96.113
26478.0,144.8,87.203,157.2,96.113
26488.0,144.8,86.203,153.2,94.113
26497.0,144.8,87.203,153.2,94.113
26507.0,145.8,87.203,152.2,95.113
26517.0,146.8,88.203,152.2,95.113
26527.0,144.8,87.203,154.2,96.113
26537.0,148.8,89.203,154.2,96.113
26547.0,145.8,88.203,150.2,94.113
26557.0,145.8,88.203,150.2,94.113
26567.0,145.8,87.203,148.2,93.113
26577.0,143.8,88.203,148.2,93.113
26586.0,144.8,86.203,148.2,93.113
26596.0,141.8,86.203,148.2,93.113
26606.0,139.8,85.203,142.2,90.113
26616.0,136.8,86.203,142.2,90.113
26626.0,136.8,84.203,141.2,90.113
26636.0,135.8,84.203,137.2,89.113
26646.0,133.8,83.203,133.2,89.113
26656.0,132.8,83.203,134.2,87.113
26665.0,130.8,82.203,131.2,86.113
26675.0,128.8,81.203,128.2,83.113
26685.0,126.8,81.203,124.2,82.113
26695.0,125.8,80.203,121.2,81.113
26705.0,124.8,80.203,119.2,81.113
26715.0,124.8,79.203,118.2,82.113
26725.0,123.8,79.203,117.2,82.113
26735.0,123.8,80.203,116.2,80.113
26745.0,124.8,80.203,117.2,81.113
26754.0,126.8,80.203,116.2,80.113
26764.0,128.8,81.203,117.2,81.113
26774.0,133.8,82.203,119.2,82.113
26784.0,136.8,82.203,124.2,83.113
26794.0,139.8,84.203,128.2,84.113
26804.0,143.8,85.203,135.2,86.113
26814.0,146.8,86.203,140.2,86.113
26824.0,148.8,86.203,141.2,86.113
26834.0,152.8,88.203,146.2,87.113
26843.0,155.8,87.203,147.2,87.113
26853.0,156.8,88.203,151.2,86.113
26863.0,158.8,88.203,152.2,86.113
26873.0,161.8,89.203,153.2,87.113
26883.0,163.8,89.203,156.2,86.113
26893.0,163.8,90.203,156.2,86.113
26903.0,163.8,89.203,153.2,87.113
26913.0,165.8,90.203,151.2,86.113
26923.0,165.8,90.203,149.2,84.113
26932.0,165.8,90.203,148.2,84.113
26942.0,167.8,90.203,145.2,83.113
26952.0,168.8,89.203,141.2,80.113
26962.0,167.8,89.203,141.2,81.113
26972.0,167.8,90.203,135.2,79.113
26982.0,166.8,89.203,134.2,79.113
26992.0,166.8,89.203,131.2,77.113
27002.0,167.8,90.203,129.2,76.113
27011.0,167.8,90.203,124.2,73.113
27021.0,168.8,89.203,122.2,73.113
27031.0,168.8,89.203,117.2,71.113
27041.0,170.8,89.203,117.2,71.113
27051.0,170.8,89.203,114.2,70.113
27061.0,169.8,88.203,111.2,68.113
27071.0,169.8,88.203,112.2,68.113
27081.0,168.8,89.203,110.2,68.113
27091.0,168.8,89.203,108.2,65.113
27100.0,167.8,88.203,105.2,67.113
27110.0,167.8,88.203,105.2,65.113
27120.0,166.8,88.203,102.2,65.113
27130.0,166.8,88.203,98.202,62.113
27140.0,163.8,86.203,97.202,62.113
27150.0,163.8,86.203,96.202,61.113
27160.0,160.8,86.203,94.202,60.113
27170.0,159.8,86.203,91.202,60.113
27180.0,159.8,85.203,89.202,59.113
27189.0,156.8,84.203,88.202,57.113
27199.0,156.8,84.203,85.202,57.113
27209.0,155.8,82.203,85.202,57.113
27219.0,153.8,82.203,81.202,56.113
27229.0,152.8,82.203,79.202,55.113
27239.0,152.8,82.203,74.202,53.113
27249.0,150.8,82.203,70.202,51.113
27259.0,150.8,80.203,68.202,50.113
27269.0,148.8,79.203,65.202,48.113
27278.0,145.8,80.203,63.202,47.113
27288.0,146.8,80.203,60.202,46.113
27298.0,145.8,81.203,62.202,46.113
27308.0,147.8,82.203,63.202,47.113
27318.0,151.8,81.203,67.202,48.113
27328.0,153.8,82.203,69.202,50.113
27338.0,157.8,83.203,75.202,52.113
27348.0,161.8,84.203,79.202,53.113
27357.0,164.8,85.203,83.202,53.113
27367.0,168.8,86.203,87.202,53.113
27377.0,171.8,86.203,89.202,54.113
27387.0,175.8,88.203,93.202,54.113
27397.0,179.8,89.203,97.202,55.113
27407.0,180.8,90.203,98.202,55.113
27417.0,181.8,90.203,98.202,55.113
27427.0,186.8,91.203,96.202,53.113
27437.0,187.8,91.203,96.202,52.113
27446.0,188.8,90.203,95.202,52.113
27456.0,189.8,91.203,94.202,52.113
27466.0,190.8,91.203,91.202,49.113
27476.0,190.8,90.203,89.202,48.113
27486.0,191.8,91.203,89.202,48.113
27496.0,189.8,90.203,85.202,45.113
27506.0,190.8,90.203,85.202,45.113
27516.0,189.8,91.203,77.202,44.113
27526.0,190.8,90.203,77.202,44.113
27535.0,188.8,90.203,75.202,43.113
27545.0,189.8,89.203,75.202,43.113
27555.0,188.8,89.203,70.202,39.113
27565.0,188.8,89.203,70.202,39.113
27575.0,190.8,89.203,67.202,39.113
27585.0,191.8,89.203,67.202,39.113
27595.0,189.8,89.203,66.202,39.113
27605.0,189.8,89.203,66.202,39.113
27615.0,190.8,89.203,62.202,37.113
27624.0,187.8,89.203,62.202,37.113
27634.0,188.8,88.203,62.202,37.113
27644.0,183.8,88.203,62.202,37.113
27654.0,183.8,87.203,59.202,35.113
27664.0,181.8,86.203,59.202,35.113
27674.0,181.8,87.203,56.202,32.113
27684.0,179.8,84.203,56.202,32.113
27694.0,178.8,83.203,53.202,31.113
27703.0,175.8,84.203,53.202,31.113
27713.0,176.8,82.203,50.202,32.113
27723.0,171.8,81.203,50.202,30.113
27733.0,168.8,80.203,47.202,31.113
27743.0,168.8,80.203,48.202,29.113
27753.0,165.8,79.203,46.202,30.113
27763.0,162.8,76.203,47.202,30.113
27773.0,158.8,77.203,46.202,30.113
27783.0,158.8,76.203,44.202,28.113
27792.0,155.8,74.203,40.202,28.113
27802.0,152.8,75.203,38.202,27.113
27812.0,150.8,74.203,35.202,25.113
27822.0,148.8,73.203,31.202,25.113
27832.0,146.8,72.203,29.202,25.113
27842.0,146.8,73.203,30.202,25.113
27852.0,146.8,72.203,30.202,24.113
27862.0,146.8,72.203,32.202,25.113
27872.0,148.8,72.203,35.202,27.113
27881.0,148.8,72.203,37.202,26.113
27891.0,156.8,74.203,41.202,28.113
27901.0,156.8,74.203,45.202,30.113
27911.0,162.8,76.203,47.202,30.113
27921.0,162.8,76.203,52.202,31.113
27931.0,168.8,78.203,56.202,31.113
27941.0,168.8,78.203,59.202,31.113
27951.0,172.8,79.203,60.202,30.113
27961.0,172.8,79.203,63.202,30.113
27970.0,176.8,81.203,62.202,29.113
27980.0,176.8,81.203,63.202,28.113
27990.0,178.8,81.203,63.202,27.113
28000.0,178.8,81.203,61.202,27.113
28010.0,181.8,81.203,60.202,25.113
28020.0,181.8,81.203,58.202,24.113
28030.0,183.8,81.203,55.202,23.113
28040.0,182.8,81.203,56.202,23.113
28049.0,184.8,81.203,53.202,24.113
28059.0,182.8,79.203,51.202,23.113
28069.0,182.8,80.203,49.202,22.113
28079.0,180.8,80.203,48.202,22.113
28089.0,180.8,80.203,47.202,22.113
28099.0,178.8,79.203,44.202,21.113
28109.0,179.8,79.203,43.202,19.113
28119.0,179.8,80.203,41.202,20.113
28129.0,180.8,80.203,39.202,18.113
28138.0,182.8,80.203,38.202,18.113
28148.0,181.8,81.203,34.202,18.113
28158.0,178.8,80.203,32.202,14.113
28168.0,180.8,80.203,31.202,14.113
28178.0,179.8,82.203,29.202,13.113
28188.0,179.8,82.203,29.202,14.113
28198.0,179.8,80.203,29.202,13.113
28208.0,178.8,80.203,27.202,12.113
28218.0,176.8,79.203,26.202,13.113
28227.0,174.8,77.203,24.202,12.113
28237.0,172.8,78.203,25.202,11.113
28247.0,170.8,77.203,25.202,11.113
28257.0,170.8,76.203,22.202,12.113
28267.0,168.8,75.203,21.202,11.113
28277.0,165.8,74.203,23.202,10.113
28287.0,163.8,73.203,21.202,10.113
28297.0,160.8,72.203,21.202,11.113
28307.0,159.8,73.203,22.202,13.113
28316.0,160.8,73.203,22.202,12.113
28326.0,155.8,71.203,22.202,12.113
28336.0,154.8,71.203,20.202,11.113
28346.0,151.8,72.203,16.202,12.113
28356.0,151.8,71.203,13.202,9.1132
28366.0,149.8,70.203,11.202,8.1132
28376.0,147.8,69.203,11.202,9.1132
28386.0,148.8,69.203,9.2025,6.1132
28395.0,144.8,68.203,9.2025,7.1132
28405.0,144.8,69.203,10.202,9.1132
28415.0,144.8,68.203,11.202,10.113
28425.0,148.8,69.203,13.202,10.113
28435.0,148.8,70.203,16.202,11.113
28445.0,149.8,71.203,18.202,12.113
28455.0,151.8,71.203,22.202,14.113
28465.0,155.8,72.203,29.202,15.113
28475.0,156.8,72.203,33.202,16.113
28484.0,160.8,74.203,39.202,16.113
28494.0,162.8,74.203,43.202,17.113
28504.0,164.8,75.203,51.202,20.113
28514.0,167.8,75.203,54.202,21.113
28524.0,168.8,75.203,58.202,21.113
28534.0,173.8,77.203,58.202,19.113
28544.0,173.8,77.203,57.202,19.113
28554.0,174.8,76.203,58.202,18.113
28564.0,173.8,77.203,59.202,19.113
28573.0,175.8,76.203,59.202,19.113
28583.0,176.8,76.203,58.202,19.113
28593.0,176.8,75.203,58.202,19.113
28603.0,174.8,77.203,53.202,18.113
28613.0,173.8,76.203,53.202,18.113
28623.0,174.8,76.203,51.202,15.113
28633.0,173.8,76.203,51.202,15.113
28643.0,172.8,76.203,49.202,15.113
28653.0,172.8,77.203,49.202,15.113
28662.0,172.8,77.203,43.202,13.113
28672.0,172.8,76.203,43.202,13.113
28682.0,173.8,76.203,42.202,13.113
28692.0,173.8,75.203,42.202,13.113
28702.0,170.8,75.203,39.202,12.113
28712.0,170.8,75.203,39.202,12.113
28722.0,170.8,75.203,39.202,11.113
28732.0,170.8,75.203,39.202,11.113
28741.0,170.8,75.203,36.202,10.113
28751.0,170.8,75.203,36.202,10.113
28761.0,167.8,75.203,38.202,11.113
28771.0,167.8,75.203,38.202,11.113
28781.0,164.8,73.203,39.202,12.113
28791.0,164.8,73.203,40.202,13.113
28801.0,162.8,74.203,38.202,11.113
28811.0,162.8,74.203,37.202,11.113
28821.0,159.8,71.203,37.202,10.113
28830.0,159.8,71.203,36.202,10.113
28840.0,155.8,70.203,36.202,11.113
28850.0,155.8,70.203,35.202,11.113
28860.0,151.8,68.203,35.202,11.113
28870.0,151.8,68.203,32.202,11.113
28880.0,149.8,68.203,32.202,10.113
28890.0,147.8,67.203,33.202,10.113
28900.0,144.8,65.203,31.202,11.113
28910.0,142.8,66.203,27.202,10.113
28919.0,142.8,65.203,27.202,8.1132
28929.0,139.8,65.203,25.202,8.1132
28939.0,137.8,64.203,21.202,6.1132
28949.0,135.8,63.203,21.202,8.1132
28959.0,134.8,64.203,21.202,7.1132
28969.0,134.8,64.203,20.202,6.1132
28979.0,132.8,63.203,21.202,7.1132
28989.0,132.8,63.203,21.202,9.1132
28999.0,133.8,63.203,25.202,8.1132
29008.0,136.8,64.203,29.202,12.113
29018.0,137.8,64.203,32.202,14.113
29028.0,140.8,66.203,39.202,14.113
29038.0,143.8,66.203,43.202,17.113
29048.0,146.8,67.203,48.202,19.113
29058.0,151.8,68.203,55.202,20.113
29068.0,153.8,69.203,62.202,21.113
29078.0,155.8,70.203,67.202,23.113
29087.0,156.8,71.203,72.202,24.113
29097.0,159.8,73.203,79.202,26.113
29107.0,161.8,72.203,82.202,28.113
29117.0,163.8,72.203,85.202,28.113
29127.0,164.8,74.203,89.202,29.113
29137.0,165.8,74.203,90.202,30.113
29147.0,166.8,73.203,91.202,29.113
29157.0,165.8,73.203,92.202,30.113
29167.0,165.8,73.203,92.202,30.113
29176.0,163.8,72.203,91.202,31.113
29186.0,164.8,72.203,94.202,31.113
29196.0,164.8,72.203,93.202,32.113
29206.0,163.8,71.203,91.202,29.113
29216.0,162.8,72.203,91.202,32.113
29226.0,162.8,72.203,90.202,32.113
29236.0,162.8,72.203,93.202,32.113
29246.0,160.8,71.203,92.202,32.113
29256.0,160.8,71.203,92.202,32.113
29265.0,162.8,72.203,92.202,32.113
29275.0,159.8,71.203,93.202,33.113
29285.0,158.8,71.203,92.202,33.113
29295.0,159.8,70.203,92.202,33.113
29305.0,158.8,70.203,92.202,33.113
29315.0,155.8,71.203,93.202,34.113
29325.0,155.8,70.203,94.202,34.113
29335.0,155.8,69.203,94.202,34.113
29345.0,154.8,69.203,95.202,36.113
29354.0,152.8,69.203,96.202,35.113
29364.0,150.8,68.203,96.202,37.113
29374.0,150.8,67.203,98.202,37.113
29384.0,148.8,67.203,98.202,37.113
29394.0,147.8,67.203,99.202,38.113
29404.0,147.8,66.203,102.2,39.113
29414.0,145.8,66.203,100.2,40.113
29424.0,141.8,66.203,103.2,40.113
29433.0,140.8,63.203,101.2,41.113
29443.0,136.8,64.203,102.2,40.113
29453.0,135.8,63.203,101.2,41.113
29463.0,132.8,63.203,100.2,40.113
29473.0,133.8,63.203,100.2,40.113
29483.0,131.8,63.203,101.2,41.113
29493.0,129.8,63.203,102.2,42.113
29503.0,129.8,63.203,98.202,39.113
29513.0,127.8,62.203,96.202,39.113
29522.0,123.8,61.203,96.202,38.113
29532.0,124.8,62.203,95.202,39.113
29542.0,124.8,60.203,97.202,41.113
29552.0,123.8,62.203,98.202,40.113
29562.0,125.8,61.203,97.202,41.113
29572.0,127.8,62.203,101.2,43.113
29582.0,127.8,62.203,101.2,43.113
29592.0,128.8,64.203,106.2,45.113
29602.0,128.8,64.203,106.2,45.113
29611.0,133.8,65.203,120.2,50.113
29621.0,133.8,65.203,120.2,50.113
29631.0,138.8,67.203,132.2,55.113
29641.0,138.8,67.203,132.2,55.113
29651.0,142.8,67.203,143.2,57.113
29661.0,142.8,67.203,143.2,57.113
29671.0,147.8,70.203,155.2,62.113
29681.0,147.8,70.203,155.2,62.113
29690.0,149.8,70.203,159.2,62.113
29700.0,149.8,70.203,159.2,62.113
29710.0,148.8,69.203,163.2,62.113
29720.0,148.8,69.203,163.2,62.113
29730.0,149.8,70.203,164.2,64.113
29740.0,149.8,70.203,164.2,64.113
29750.0,149.8,71.203,168.2,64.113
29760.0,149.8,70.203,168.2,64.113
29770.0,147.8,70.203,169.2,65.113
29779.0,149.8,70.203,168.2,66.113
29789.0,147.8,71.203,164.2,64.113
29799.0,149.8,70.203,166.2,65.113
29809.0,145.8,70.203,164.2,66.113
29819.0,146.8,70.203,165.2,66.113
29829.0,145.8,70.203,164.2,66.113
29839.0,147.8,69.203,164.2,67.113
29849.0,144.8,69.203,164.2,65.113
29859.0,144.8,70.203,163.2,65.113
29868.0,143.8,70.203,163.2,66.113
29878.0,143.8,70.203,165.2,66.113
29888.0,142.8,70.203,166.2,67.113
29898.0,141.8,70.203,167.2,68.113
29908.0,143.8,69.203,167.2,69.113
29918.0,140.8,69.203,168.2,69.113
29928.0,142.8,69.203,169.2,68.113
29938.0,141.8,68.203,167.2,69.113
29948.0,139.8,68.203,166.2,67.113
29957.0,135.8,69.203,167.2,69.113
29967.0,135.8,68.203,165.2,68.113
29977.0,134.8,69.203,166.2,69.113
29987.0,133.8,69.203,163.2,69.113
29997.0,132.8,68.203,164.2,69.113
