t,carotid_880nm,carotid_660nm,brachial_880nm,brachial_660nm
3.1,-86.566,-61.307,-50.87,-40.044
13.0,-91.566,-64.307,-50.87,-39.044
22.9,-92.566,-63.307,-49.87,-39.044
32.8,-96.566,-65.307,-50.87,-39.044
42.7,-99.566,-63.307,-48.87,-37.044
52.6,-96.566,-61.307,-51.87,-38.044
62.5,-92.566,-58.307,-51.87,-38.044
72.3,-89.566,-59.307,-50.87,-38.044
82.2,-87.566,-62.307,-54.87,-39.044
92.1,-82.566,-65.307,-54.87,-39.044
102.0,-77.566,-66.307,-53.87,-37.044
111.9,-76.566,-68.307,-53.87,-37.044
121.8,-75.566,-71.307,-54.87,-38.044
131.7,-75.566,-74.307,-54.87,-38.044
141.5,-73.566,-73.307,-55.87,-39.044
151.4,-74.566,-72.307,-55.87,-39.044
161.3,-74.566,-72.307,-50.87,-38.044
171.2,-73.566,-73.307,-50.87,-38.044
181.1,-73.566,-73.307,-43.87,-35.044
191.0,-72.566,-73.307,-43.87,-35.044
200.9,-72.566,-73.307,-40.87,-33.044
210.7,-76.566,-72.307,-40.87,-33.044
220.6,-76.566,-72.307,-38.87,-33.044
230.5,-80.566,-73.307,-38.87,-33.044
240.4,-80.566,-73.307,-33.87,-32.044
250.3,-81.566,-73.307,-33.87,-32.044
260.2,-81.566,-73.307,-32.87,-29.044
270.1,-86.566,-72.307,-32.87,-29.044
279.9,-86.566,-72.307,-31.87,-28.044
289.8,-85.566,-72.307,-31.87,-28.044
299.7,-85.566,-72.307,-31.87,-29.044
309.6,-89.566,-75.307,-30.87,-29.044
319.5,-89.566,-75.307,-31.87,-28.044
329.4,-91.566,-75.307,-32.87,-29.044
339.3,-92.566,-76.307,-32.87,-27.044
349.1,-95.566,-78.307,-33.87,-27.044
359.0,-97.566,-79.307,-33.87,-27.044
368.9,-100.57,-79.307,-34.87,-28.044
378.8,-101.57,-79.307,-34.87,-28.044
388.7,-102.57,-79.307,-34.87,-28.044
398.6,-105.57,-80.307,-35.87,-27.044
408.5,-105.57,-79.307,-32.87,-24.044
418.3,-105.57,-79.307,-34.87,-27.044
428.2,-108.57,-79.307,-32.87,-26.044
438.1,-110.57,-80.307,-32.87,-26.044
448.0,-113.57,-82.307,-34.87,-27.044
457.9,-119.57,-83.307,-37.87,-27.044
467.8,-121.57,-84.307,-36.87,-27.044
477.7,-120.57,-84.307,-37.87,-27.044
487.5,-121.57,-81.307,-37.87,-26.044
497.4,-121.57,-82.307,-35.87,-27.044
507.3,-123.57,-83.307,-34.87,-27.044
517.2,-124.57,-82.307,-35.87,-26.044
527.1,-128.57,-83.307,-38.87,-26.044
537.0,-131.57,-84.307,-39.87,-27.044
546.9,-134.57,-86.307,-38.87,-26.044
556.7,-138.57,-86.307,-38.87,-24.044
566.6,-140.57,-85.307,-38.87,-25.044
576.5,-135.57,-79.307,-37.87,-25.044
586.4,-127.57,-73.307,-41.87,-26.044
596.3,-121.57,-70.307,-39.87,-26.044
606.2,-115.57,-71.307,-39.87,-26.044
616.1,-113.57,-73.307,-41.87,-25.044
625.9,-110.57,-76.307,-41.87,-25.044
635.8,-105.57,-77.307,-40.87,-25.044
645.7,-104.57,-80.307,-42.87,-26.044
655.6,-102.57,-80.307,-44.87,-28.044
665.5,-97.566,-79.307,-44.87,-27.044
675.4,-95.566,-77.307,-43.87,-27.044
685.3,-92.566,-77.307,-41.87,-26.044
695.1,-92.566,-76.307,-38.87,-24.044
705.0,-89.566,-74.307,-35.87,-23.044
714.9,-90.566,-74.307,-32.87,-22.044
724.8,-90.566,-75.307,-32.87,-22.044
734.7,-92.566,-76.307,-32.87,-22.044
744.6,-92.566,-75.307,-29.87,-21.044
754.5,-92.566,-74.307,-29.87,-18.044
764.3,-92.566,-73.307,-26.87,-19.044
774.2,-89.566,-69.307,-27.87,-19.044
784.1,-90.566,-69.307,-27.87,-17.044
794.0,-89.566,-67.307,-25.87,-16.044
803.9,-90.566,-67.307,-24.87,-18.044
813.8,-89.566,-68.307,-22.87,-17.044
823.7,-92.566,-68.307,-23.87,-16.044
833.5,-93.566,-70.307,-20.87,-15.044
843.4,-95.566,-72.307,-22.87,-15.044
853.3,-98.566,-73.307,-22.87,-15.044
863.2,-101.57,-74.307,-24.87,-14.044
873.1,-103.57,-74.307,-25.87,-15.044
883.0,-104.57,-75.307,-26.87,-14.044
892.8,-103.57,-73.307,-24.87,-14.044
902.7,-104.57,-72.307,-22.87,-13.044
912.6,-103.57,-70.307,-23.87,-13.044
922.5,-102.57,-69.307,-22.87,-13.044
932.4,-102.57,-70.307,-25.87,-14.044
942.3,-105.57,-71.307,-28.87,-15.044
952.2,-108.57,-71.307,-26.87,-16.044
962.1,-109.57,-72.307,-30.87,-16.044
971.9,-112.57,-72.307,-33.87,-18.044
981.8,-112.57,-71.307,-32.87,-18.044
991.7,-113.57,-71.307,-31.87,-18.044
1001.6,-113.57,-70.307,-32.87,-18.044
1011.5,-113.57,-70.307,-31.87,-18.044
1021.4,-117.57,-72.307,-34.87,-18.044
1031.2,-117.57,-72.307,-35.87,-18.044
1041.1,-126.57,-74.307,-34.87,-18.044
1051.0,-126.57,-74.307,-35.87,-19.044
1060.9,-128.57,-74.307,-35.87,-18.044
1070.8,-128.57,-74.307,-34.87,-18.044
1080.7,-130.57,-72.307,-35.87,-17.044
1090.6,-130.57,-72.307,-36.87,-19.044
1100.4,-121.57,-61.307,-38.87,-19.044
1110.3,-121.57,-61.307,-38.87,-20.044
1120.2,-108.57,-56.307,-40.87,-18.044
1130.1,-108.57,-56.307,-41.87,-19.044
1140.0,-97.566,-60.307,-43.87,-22.044
1149.9,-97.566,-60.307,-46.87,-23.044
1159.8,-85.566,-62.307,-46.87,-24.044
1169.6,-85.566,-62.307,-46.87,-25.044
1179.5,-84.566,-65.307,-47.87,-24.044
1189.4,-84.566,-65.307,-48.87,-25.044
1199.3,-81.566,-64.307,-45.87,-26.044
1209.2,-77.566,-62.307,-44.87,-24.044
1219.1,-73.566,-59.307,-44.87,-24.044
1229.0,-71.566,-60.307,-41.87,-23.044
1238.8,-68.566,-56.307,-41.87,-23.044
1248.7,-63.566,-53.307,-41.87,-22.044
1258.6,-61.566,-50.307,-41.87,-22.044
1268.5,-58.566,-47.307,-40.87,-22.044
1278.4,-59.566,-48.307,-40.87,-22.044
1288.3,-59.566,-45.307,-40.87,-23.044
1298.2,-58.566,-45.307,-40.87,-23.044
1308.0,-56.566,-43.307,-39.87,-22.044
1317.9,-55.566,-41.307,-39.87,-22.044
1327.8,-54.566,-40.307,-39.87,-23.044
1337.7,-54.566,-39.307,-39.87,-23.044
1347.6,-55.566,-38.307,-41.87,-23.044
1357.5,-52.566,-38.307,-41.87,-23.044
1367.4,-51.566,-38.307,-41.87,-22.044
1377.2,-52.566,-38.307,-41.87,-22.044
1387.1,-51.566,-38.307,-40.87,-22.044
1397.0,-52.566,-38.307,-40.87,-22.044
1406.9,-52.566,-36.307,-41.87,-22.044
1416.8,-48.566,-34.307,-41.87,-22.044
1426.7,-47.566,-32.307,-41.87,-23.044
1436.6,-48.566,-33.307,-43.87,-24.044
1446.4,-47.566,-30.307,-43.87,-22.044
1456.3,-47.566,-30.307,-43.87,-23.044
1466.2,-47.566,-30.307,-44.87,-24.044
1476.1,-49.566,-29.307,-46.87,-24.044
1486.0,-48.566,-28.307,-47.87,-25.044
1495.9,-45.566,-26.307,-49.87,-24.044
1505.8,-46.566,-26.307,-46.87,-23.044
1515.6,-46.566,-24.307,-47.87,-24.044
1525.5,-44.566,-23.307,-49.87,-25.044
1535.4,-45.566,-22.307,-50.87,-24.044
1545.3,-48.566,-23.307,-51.87,-25.044
1555.2,-49.566,-23.307,-50.87,-26.044
1565.1,-49.566,-24.307,-50.87,-25.044
1575.0,-50.566,-23.307,-50.87,-23.044
1584.8,-49.566,-22.307,-49.87,-23.044
1594.7,-51.566,-21.307,-48.87,-24.044
1604.6,-49.566,-20.307,-50.87,-23.044
1614.5,-48.566,-15.307,-49.87,-24.044
1624.4,-43.566,-11.307,-53.87,-25.044
1634.3,-38.566,-8.3067,-54.87,-25.044
1644.2,-34.566,-7.3067,-54.87,-26.044
1654.0,-29.566,-7.3067,-54.87,-26.044
1663.9,-22.566,-10.307,-57.87,-26.044
1673.8,-14.566,-9.3067,-57.87,-27.044
1683.7,-8.5658,-9.3067,-59.87,-27.044
1693.6,-4.5658,-11.307,-60.87,-28.044
1703.5,-0.56584,-11.307,-59.87,-27.044
1713.4,1.4342,-11.307,-57.87,-26.044
1723.2,5.4342,-9.3067,-56.87,-25.044
1733.1,8.4342,-7.3067,-54.87,-26.044
1743.0,13.434,-4.3067,-53.87,-25.044
1752.9,16.434,-1.3067,-51.87,-25.044
1762.8,19.434,0.69332,-50.87,-25.044
1772.7,22.434,2.6933,-49.87,-24.044
1782.6,22.434,2.6933,-49.87,-23.044
1792.4,21.434,5.6933,-47.87,-23.044
1802.3,22.434,6.6933,-47.87,-24.044
1812.2,23.434,6.6933,-46.87,-25.044
1822.1,22.434,8.6933,-47.87,-23.044
1832.0,24.434,9.6933,-47.87,-23.044
1841.9,26.434,10.693,-46.87,-23.044
1851.8,26.434,11.693,-47.87,-23.044
1861.6,27.434,11.693,-47.87,-23.044
1871.5,27.434,14.693,-46.87,-22.044
1881.4,32.434,14.693,-49.87,-22.044
1891.3,31.434,15.693,-47.87,-22.044
1901.2,31.434,15.693,-49.87,-23.044
1911.1,33.434,17.693,-50.87,-23.044
1921.0,33.434,17.693,-50.87,-24.044
1930.8,34.434,19.693,-48.87,-22.044
1940.7,34.434,19.693,-50.87,-22.044
1950.6,31.434,19.693,-51.87,-23.044
1960.5,31.434,19.693,-52.87,-24.044
1970.4,29.434,17.693,-51.87,-23.044
1980.3,29.434,17.693,-51.87,-22.044
1990.2,30.434,18.693,-50.87,-22.044
2000.0,30.434,18.693,-50.87,-22.044
2009.9,29.434,19.693,-50.87,-22.044
2019.8,29.434,19.693,-49.87,-22.044
2029.7,23.434,17.693,-52.87,-23.044
2039.6,23.434,17.693,-54.87,-24.044
2049.5,22.434,18.693,-53.87,-22.044
2059.4,22.434,18.693,-54.87,-24.044
2069.2,19.434,16.693,-53.87,-23.044
2079.1,18.434,15.693,-54.87,-23.044
2089.0,15.434,14.693,-53.87,-22.044
2098.9,15.434,13.693,-54.87,-23.044
2108.8,11.434,15.693,-57.87,-23.044
2118.7,14.434,16.693,-56.87,-24.044
2128.6,13.434,16.693,-58.87,-22.044
2138.4,13.434,19.693,-58.87,-23.044
2148.3,14.434,21.693,-56.87,-23.044
2158.2,16.434,23.693,-57.87,-22.044
2168.1,20.434,21.693,-58.87,-23.044
2178.0,24.434,19.693,-59.87,-23.044
2187.9,32.434,17.693,-61.87,-24.044
2197.8,37.434,17.693,-63.87,-24.044
2207.6,44.434,17.693,-63.87,-24.044
2217.5,49.434,15.693,-61.87,-24.044
2227.4,53.434,16.693,-62.87,-24.044
2237.3,56.434,15.693,-61.87,-24.044
2247.2,58.434,16.693,-58.87,-24.044
2257.1,59.434,16.693,-57.87,-23.044
2267.0,56.434,13.693,-57.87,-23.044
2276.8,57.434,12.693,-57.87,-23.044
2286.7,55.434,11.693,-57.87,-23.044
2296.6,54.434,9.6933,-52.87,-22.044
2306.5,51.434,9.6933,-52.87,-22.044
2316.4,50.434,8.6933,-49.87,-20.044
2326.3,49.434,9.6933,-49.87,-20.044
2336.2,47.434,8.6933,-48.87,-19.044
2346.0,42.434,4.6933,-48.87,-19.044
2355.9,36.434,2.6933,-49.87,-21.044
2365.8,34.434,-0.30668,-49.87,-21.044
2375.7,30.434,-4.3067,-49.87,-20.044
2385.6,27.434,-8.3067,-49.87,-20.044
2395.5,25.434,-8.3067,-47.87,-19.044
2405.4,24.434,-10.307,-47.87,-19.044
2415.2,23.434,-11.307,-48.87,-18.044
2425.1,22.434,-11.307,-48.87,-18.044
2435.0,18.434,-13.307,-49.87,-18.044
2444.9,18.434,-14.307,-49.87,-18.044
2454.8,14.434,-16.307,-48.87,-18.044
2464.7,13.434,-16.307,-48.87,-18.044
2474.6,11.434,-19.307,-50.87,-18.044
2484.4,10.434,-19.307,-50.87,-18.044
2494.3,8.4342,-20.307,-49.87,-17.044
2504.2,7.4342,-20.307,-51.87,-19.044
2514.1,6.4342,-21.307,-52.87,-20.044
2524.0,4.4342,-23.307,-51.87,-18.044
2533.9,1.4342,-25.307,-53.87,-18.044
2543.8,-3.5658,-27.307,-51.87,-18.044
2553.6,-5.5658,-28.307,-53.87,-19.044
2563.5,-7.5658,-30.307,-54.87,-20.044
2573.4,-10.566,-32.307,-55.87,-20.044
2583.3,-12.566,-31.307,-55.87,-19.044
2593.2,-15.566,-35.307,-53.87,-19.044
2603.1,-18.566,-37.307,-55.87,-19.044
2613.0,-18.566,-38.307,-56.87,-19.044
2622.8,-23.566,-41.307,-55.87,-19.044
2632.7,-24.566,-40.307,-54.87,-19.044
2642.6,-23.566,-41.307,-56.87,-20.044
2652.5,-26.566,-40.307,-59.87,-20.044
2662.4,-24.566,-39.307,-62.87,-22.044
2672.3,-22.566,-39.307,-61.87,-22.044
2682.2,-16.566,-40.307,-61.87,-21.044
2692.0,-11.566,-42.307,-62.87,-23.044
2701.9,-6.5658,-45.307,-64.87,-22.044
2711.8,-3.5658,-49.307,-64.87,-23.044
2721.7,-2.5658,-53.307,-65.87,-23.044
2731.6,-2.5658,-58.307,-65.87,-25.044
2741.5,-1.5658,-59.307,-66.87,-25.044
2751.4,-1.5658,-59.307,-65.87,-25.044
2761.2,-0.56584,-63.307,-66.87,-25.044
2771.1,-0.56584,-63.307,-64.87,-24.044
2781.0,0.43416,-66.307,-64.87,-24.044
2790.9,0.43416,-66.307,-62.87,-24.044
2800.8,-4.5658,-68.307,-60.87,-24.044
2810.7,-4.5658,-68.307,-58.87,-24.044
2820.6,-7.5658,-71.307,-57.87,-24.044
2830.4,-7.5658,-71.307,-57.87,-24.044
2840.3,-16.566,-76.307,-56.87,-22.044
2850.2,-16.566,-76.307,-55.87,-22.044
2860.1,-16.566,-74.307,-55.87,-22.044
2870.0,-16.566,-74.307,-53.87,-21.044
2879.9,-15.566,-71.307,-55.87,-21.044
2889.8,-15.566,-71.307,-54.87,-22.044
2899.6,-10.566,-69.307,-57.87,-22.044
2909.5,-10.566,-69.307,-56.87,-23.044
2919.4,-13.566,-71.307,-56.87,-22.044
2929.3,-13.566,-71.307,-58.87,-23.044
2939.2,-12.566,-71.307,-58.87,-24.044
2949.1,-14.566,-72.307,-57.87,-23.044
2959.0,-18.566,-73.307,-58.87,-22.044
2968.8,-21.566,-76.307,-57.87,-24.044
2978.7,-24.566,-75.307,-60.87,-26.044
2988.6,-24.566,-76.307,-60.87,-24.044
2998.5,-25.566,-75.307,-60.87,-23.044
3008.4,-25.566,-75.307,-62.87,-25.044
3018.3,-26.566,-74.307,-62.87,-24.044
3028.2,-26.566,-74.307,-62.87,-25.044
3038.0,-25.566,-73.307,-63.87,-24.044
3047.9,-26.566,-72.307,-65.87,-25.044
3057.8,-29.566,-72.307,-65.87,-26.044
3067.7,-29.566,-73.307,-67.87,-27.044
3077.6,-31.566,-73.307,-68.87,-28.044
3087.5,-35.566,-74.307,-66.87,-27.044
3097.4,-38.566,-76.307,-65.87,-28.044
3107.2,-41.566,-77.307,-68.87,-28.044
3117.1,-45.566,-79.307,-67.87,-28.044
3127.0,-48.566,-79.307,-68.87,-28.044
3136.9,-48.566,-80.307,-69.87,-29.044
3146.8,-51.566,-79.307,-69.87,-28.044
3156.7,-52.566,-81.307,-71.87,-30.044
3166.6,-53.566,-79.307,-72.87,-31.044
3176.4,-50.566,-76.307,-72.87,-31.044
3186.3,-45.566,-71.307,-72.87,-30.044
3196.2,-37.566,-66.307,-75.87,-31.044
3206.1,-32.566,-66.307,-75.87,-31.044
3216.0,-24.566,-66.307,-74.87,-31.044
3225.9,-17.566,-66.307,-75.87,-31.044
3235.8,-11.566,-67.307,-76.87,-33.044
3245.6,-10.566,-71.307,-77.87,-32.044
3255.5,-10.566,-73.307,-79.87,-34.044
3265.4,-8.5658,-73.307,-77.87,-33.044
3275.3,-7.5658,-74.307,-77.87,-32.044
3285.2,-5.5658,-73.307,-74.87,-32.044
3295.1,-4.5658,-73.307,-72.87,-32.044
3305.0,-3.5658,-73.307,-71.87,-31.044
3314.8,-5.5658,-74.307,-69.87,-32.044
3324.7,-6.5658,-75.307,-69.87,-32.044
3334.6,-10.566,-77.307,-68.87,-31.044
3344.5,-13.566,-80.307,-68.87,-31.044
3354.4,-17.566,-80.307,-66.87,-30.044
3364.3,-17.566,-80.307,-65.87,-29.044
3374.2,-17.566,-80.307,-65.87,-29.044
3384.0,-21.566,-81.307,-62.87,-28.044
3393.9,-23.566,-80.307,-62.87,-28.044
3403.8,-23.566,-82.307,-63.87,-30.044
3413.7,-23.566,-83.307,-63.87,-30.044
3423.6,-29.566,-86.307,-64.87,-30.044
3433.5,-31.566,-87.307,-64.87,-30.044
3443.3,-33.566,-86.307,-66.87,-30.044
3453.2,-32.566,-88.307,-66.87,-30.044
3463.1,-35.566,-90.307,-66.87,-30.044
3473.0,-36.566,-91.307,-66.87,-30.044
3482.9,-39.566,-90.307,-65.87,-30.044
3492.8,-41.566,-93.307,-65.87,-30.044
3502.7,-45.566,-94.307,-67.87,-30.044
3512.6,-48.566,-97.307,-67.87,-30.044
3522.4,-53.566,-99.307,-69.87,-30.044
3532.3,-57.566,-102.31,-69.87,-30.044
3542.2,-63.566,-104.31,-68.87,-31.044
3552.1,-65.566,-107.31,-68.87,-31.044
3562.0,-68.566,-108.31,-68.87,-30.044
3571.9,-72.566,-109.31,-68.87,-30.044
3581.7,-76.566,-111.31,-71.87,-31.044
3591.6,-83.566,-114.31,-73.87,-33.044
3601.5,-85.566,-114.31,-71.87,-32.044
3611.4,-87.566,-115.31,-72.87,-33.044
3621.3,-91.566,-118.31,-73.87,-31.044
3631.2,-92.566,-119.31,-73.87,-32.044
3641.1,-92.566,-119.31,-74.87,-33.044
3651.0,-103.57,-122.31,-74.87,-33.044
3660.8,-103.57,-122.31,-73.87,-31.044
3670.7,-104.57,-120.31,-72.87,-31.044
3680.6,-104.57,-120.31,-74.87,-32.044
3690.5,-100.57,-115.31,-73.87,-32.044
3700.4,-100.57,-115.31,-76.87,-32.044
3710.3,-91.566,-109.31,-76.87,-32.044
3720.1,-91.566,-109.31,-77.87,-32.044
3730.0,-78.566,-109.31,-76.87,-31.044
3739.9,-78.566,-109.31,-80.87,-32.044
3749.8,-61.566,-108.31,-79.87,-32.044
3759.7,-61.566,-108.31,-79.87,-33.044
3769.6,-56.566,-107.31,-81.87,-33.044
3779.5,-56.566,-107.31,-80.87,-34.044
3789.3,-50.566,-104.31,-79.87,-34.044
3799.2,-50.566,-104.31,-79.87,-35.044
3809.1,-44.566,-103.31,-76.87,-34.044
3819.0,-44.566,-101.31,-73.87,-33.044
3828.9,-44.566,-99.307,-72.87,-32.044
3838.8,-42.566,-99.307,-71.87,-31.044
3848.7,-42.566,-96.307,-69.87,-31.044
3858.5,-39.566,-94.307,-65.87,-29.044
3868.4,-37.566,-93.307,-65.87,-29.044
3878.3,-36.566,-91.307,-64.87,-29.044
3888.2,-36.566,-88.307,-64.87,-29.044
3898.1,-35.566,-88.307,-63.87,-29.044
3908.0,-35.566,-85.307,-63.87,-29.044
3917.9,-34.566,-84.307,-65.87,-30.044
3927.7,-33.566,-82.307,-62.87,-28.044
3937.6,-34.566,-82.307,-63.87,-30.044
3947.5,-35.566,-82.307,-62.87,-28.044
3957.4,-36.566,-82.307,-64.87,-29.044
3967.3,-35.566,-80.307,-65.87,-29.044
3977.2,-37.566,-81.307,-64.87,-30.044
3987.1,-38.566,-82.307,-64.87,-29.044
3996.9,-39.566,-82.307,-65.87,-29.044
4006.8,-40.566,-82.307,-65.87,-29.044
4016.7,-40.566,-81.307,-63.87,-27.044
4026.6,-41.566,-79.307,-63.87,-26.044
4036.5,-41.566,-77.307,-62.87,-26.044
4046.4,-40.566,-77.307,-62.87,-26.044
4056.3,-41.566,-76.307,-61.87,-25.044
4066.1,-42.566,-74.307,-62.87,-26.044
4076.0,-41.566,-73.307,-65.87,-27.044
4085.9,-41.566,-72.307,-66.87,-29.044
4095.8,-42.566,-71.307,-68.87,-30.044
4105.7,-43.566,-70.307,-69.87,-28.044
4115.6,-44.566,-70.307,-70.87,-29.044
4125.5,-45.566,-70.307,-67.87,-29.044
4135.3,-46.566,-70.307,-68.87,-29.044
4145.2,-47.566,-69.307,-67.87,-28.044
4155.1,-49.566,-70.307,-66.87,-29.044
4165.0,-51.566,-69.307,-66.87,-28.044
4174.9,-51.566,-68.307,-68.87,-28.044
4184.8,-53.566,-67.307,-68.87,-28.044
4194.7,-53.566,-66.307,-68.87,-27.044
4204.5,-53.566,-64.307,-70.87,-27.044
4214.4,-53.566,-62.307,-68.87,-28.044
4224.3,-53.566,-60.307,-69.87,-27.044
4234.2,-49.566,-58.307,-72.87,-28.044
4244.1,-45.566,-58.307,-71.87,-29.044
4254.0,-38.566,-58.307,-74.87,-29.044
4263.9,-31.566,-58.307,-75.87,-30.044
4273.7,-27.566,-58.307,-76.87,-29.044
4283.6,-22.566,-59.307,-74.87,-30.044
4293.5,-19.566,-56.307,-74.87,-30.044
4303.4,-14.566,-55.307,-73.87,-28.044
4313.3,-12.566,-53.307,-71.87,-29.044
4323.2,-11.566,-53.307,-70.87,-28.044
4333.1,-12.566,-53.307,-68.87,-29.044
4342.9,-14.566,-53.307,-67.87,-28.044
4352.8,-12.566,-52.307,-64.87,-27.044
4362.7,-14.566,-51.307,-64.87,-27.044
4372.6,-16.566,-51.307,-60.87,-25.044
4382.5,-17.566,-52.307,-60.87,-25.044
4392.4,-19.566,-49.307,-57.87,-24.044
4402.3,-21.566,-49.307,-57.87,-24.044
4412.1,-23.566,-49.307,-56.87,-24.044
4422.0,-21.566,-48.307,-56.87,-24.044
4431.9,-25.566,-48.307,-56.87,-23.044
4441.8,-23.566,-47.307,-56.87,-23.044
4451.7,-23.566,-47.307,-56.87,-24.044
4461.6,-25.566,-47.307,-56.87,-24.044
4471.5,-24.566,-46.307,-55.87,-23.044
4481.3,-27.566,-47.307,-55.87,-23.044
4491.2,-27.566,-47.307,-57.87,-23.044
4501.1,-28.566,-46.307,-57.87,-23.044
4511.0,-28.566,-46.307,-57.87,-22.044
4520.9,-29.566,-47.307,-57.87,-22.044
4530.8,-29.566,-47.307,-57.87,-23.044
4540.7,-33.566,-46.307,-57.87,-23.044
4550.5,-33.566,-46.307,-59.87,-22.044
4560.4,-36.566,-46.307,-59.87,-22.044
4570.3,-36.566,-46.307,-59.87,-23.044
4580.2,-41.566,-46.307,-60.87,-24.044
4590.1,-41.566,-46.307,-61.87,-25.044
4600.0,-43.566,-46.307,-62.87,-25.044
4609.9,-43.566,-46.307,-64.87,-26.044
4619.7,-46.566,-46.307,-64.87,-25.044
4629.6,-46.566,-46.307,-62.87,-24.044
4639.5,-52.566,-49.307,-65.87,-25.044
4649.4,-52.566,-49.307,-64.87,-25.044
4659.3,-57.566,-49.307,-63.87,-25.044
4669.2,-60.566,-51.307,-63.87,-24.044
4679.1,-62.566,-51.307,-63.87,-25.044
4688.9,-64.566,-52.307,-64.87,-25.044
4698.8,-68.566,-53.307,-66.87,-26.044
4708.7,-70.566,-54.307,-64.87,-24.044
4718.6,-72.566,-55.307,-66.87,-26.044
4728.5,-72.566,-54.307,-67.87,-26.044
4738.4,-74.566,-52.307,-68.87,-27.044
4748.3,-72.566,-49.307,-67.87,-26.044
4758.1,-70.566,-49.307,-68.87,-26.044
4768.0,-67.566,-52.307,-71.87,-27.044
4777.9,-62.566,-53.307,-70.87,-29.044
4787.8,-59.566,-57.307,-72.87,-29.044
4797.7,-59.566,-60.307,-73.87,-29.044
4807.6,-56.566,-62.307,-73.87,-30.044
4817.5,-55.566,-62.307,-71.87,-29.044
4827.3,-53.566,-60.307,-73.87,-30.044
4837.2,-51.566,-59.307,-70.87,-30.044
4847.1,-51.566,-59.307,-69.87,-29.044
4857.0,-49.566,-57.307,-66.87,-28.044
4866.9,-47.566,-55.307,-64.87,-25.044
4876.8,-47.566,-55.307,-61.87,-26.044
4886.7,-49.566,-54.307,-59.87,-25.044
4896.5,-50.566,-55.307,-59.87,-25.044
4906.4,-52.566,-55.307,-58.87,-24.044
4916.3,-54.566,-55.307,-55.87,-24.044
4926.2,-56.566,-55.307,-56.87,-23.044
4936.1,-58.566,-56.307,-55.87,-24.044
4946.0,-56.566,-52.307,-55.87,-25.044
4955.9,-57.566,-53.307,-56.87,-24.044
4965.7,-60.566,-54.307,-56.87,-25.044
4975.6,-60.566,-56.307,-57.87,-25.044
4985.5,-61.566,-56.307,-56.87,-23.044
4995.4,-63.566,-57.307,-55.87,-25.044
5005.3,-66.566,-59.307,-58.87,-24.044
5015.2,-69.566,-59.307,-58.87,-25.044
5025.1,-68.566,-60.307,-56.87,-24.044
5034.9,-71.566,-60.307,-57.87,-25.044
5044.8,-75.566,-62.307,-59.87,-23.044
5054.7,-74.566,-61.307,-58.87,-24.044
5064.6,-79.566,-64.307,-59.87,-25.044
5074.5,-81.566,-63.307,-58.87,-23.044
5084.4,-83.566,-65.307,-60.87,-25.044
5094.3,-85.566,-67.307,-61.87,-25.044
5104.1,-89.566,-68.307,-61.87,-25.044
5114.0,-92.566,-69.307,-60.87,-24.044
5123.9,-93.566,-70.307,-61.87,-25.044
5133.8,-95.566,-71.307,-60.87,-25.044
5143.7,-97.566,-70.307,-61.87,-24.044
5153.6,-98.566,-72.307,-60.87,-24.044
5163.5,-102.57,-73.307,-61.87,-24.044
5173.3,-104.57,-72.307,-60.87,-26.044
5183.2,-102.57,-72.307,-62.87,-24.044
5193.1,-105.57,-74.307,-62.87,-25.044
5203.0,-107.57,-72.307,-63.87,-24.044
5212.9,-106.57,-71.307,-62.87,-25.044
5222.8,-106.57,-70.307,-62.87,-26.044
5232.7,-106.57,-70.307,-62.87,-25.044
5242.5,-104.57,-66.307,-66.87,-27.044
5252.4,-103.57,-63.307,-67.87,-25.044
5262.3,-99.566,-62.307,-64.87,-25.044
5272.2,-94.566,-63.307,-64.87,-23.044
5282.1,-89.566,-63.307,-64.87,-25.044
5292.0,-84.566,-66.307,-66.87,-24.044
5301.9,-84.566,-70.307,-66.87,-25.044
5311.7,-83.566,-74.307,-66.87,-25.044
5321.6,-84.566,-77.307,-66.87,-25.044
5331.5,-84.566,-80.307,-63.87,-24.044
5341.4,-84.566,-80.307,-62.87,-23.044
5351.3,-85.566,-80.307,-61.87,-24.044
5361.2,-85.566,-80.307,-59.87,-22.044
5371.1,-83.566,-82.307,-58.87,-24.044
5380.9,-83.566,-82.307,-56.87,-23.044
5390.8,-86.566,-80.307,-54.87,-20.044
5400.7,-86.566,-80.307,-54.87,-21.044
5410.6,-90.566,-80.307,-52.87,-20.044
5420.5,-90.566,-80.307,-51.87,-21.044
5430.4,-90.566,-79.307,-51.87,-21.044
5440.3,-90.566,-79.307,-48.87,-19.044
5450.1,-96.566,-80.307,-48.87,-19.044
5460.0,-96.566,-80.307,-45.87,-17.044
5469.9,-97.566,-80.307,-45.87,-17.044
5479.8,-97.566,-80.307,-46.87,-17.044
5489.7,-99.566,-80.307,-46.87,-17.044
5499.6,-99.566,-80.307,-44.87,-16.044
5509.5,-103.57,-82.307,-44.87,-16.044
5519.3,-103.57,-82.307,-44.87,-16.044
5529.2,-105.57,-83.307,-44.87,-16.044
5539.1,-107.57,-82.307,-46.87,-17.044
5549.0,-107.57,-84.307,-46.87,-17.044
5558.9,-112.57,-84.307,-46.87,-18.044
5568.8,-111.57,-85.307,-46.87,-18.044
5578.7,-113.57,-85.307,-46.87,-15.044
5588.5,-112.57,-83.307,-46.87,-15.044
5598.4,-112.57,-84.307,-45.87,-15.044
5608.3,-114.57,-83.307,-45.87,-15.044
5618.2,-115.57,-82.307,-45.87,-15.044
5628.1,-117.57,-83.307,-45.87,-15.044
5638.0,-119.57,-83.307,-46.87,-16.044
5647.9,-122.57,-84.307,-46.87,-16.044
5657.7,-126.57,-85.307,-47.87,-15.044
5667.6,-128.57,-86.307,-47.87,-15.044
5677.5,-131.57,-88.307,-46.87,-15.044
5687.4,-135.57,-89.307,-47.87,-15.044
5697.3,-137.57,-91.307,-44.87,-15.044
5707.2,-140.57,-91.307,-49.87,-15.044
5717.1,-141.57,-91.307,-47.87,-15.044
5726.9,-142.57,-89.307,-46.87,-14.044
5736.8,-142.57,-90.307,-46.87,-13.044
5746.7,-142.57,-89.307,-46.87,-13.044
5756.6,-141.57,-88.307,-45.87,-12.044
5766.5,-141.57,-85.307,-47.87,-12.044
5776.4,-141.57,-83.307,-49.87,-14.044
5786.3,-138.57,-82.307,-49.87,-14.044
5796.1,-134.57,-83.307,-49.87,-12.044
5806.0,-129.57,-85.307,-48.87,-13.044
5815.9,-125.57,-85.307,-50.87,-13.044
5825.8,-119.57,-86.307,-51.87,-13.044
5835.7,-115.57,-87.307,-51.87,-14.044
5845.6,-115.57,-91.307,-52.87,-14.044
5855.5,-114.57,-92.307,-52.87,-14.044
5865.3,-112.57,-92.307,-49.87,-14.044
5875.2,-111.57,-93.307,-46.87,-12.044
5885.1,-111.57,-94.307,-44.87,-11.044
5895.0,-110.57,-93.307,-41.87,-11.044
5904.9,-110.57,-94.307,-41.87,-10.044
5914.8,-112.57,-94.307,-39.87,-12.044
5924.7,-111.57,-94.307,-38.87,-9.0436
5934.5,-115.57,-95.307,-35.87,-8.0436
5944.4,-119.57,-97.307,-34.87,-8.0436
5954.3,-119.57,-96.307,-36.87,-8.0436
5964.2,-121.57,-97.307,-34.87,-7.0436
5974.1,-124.57,-97.307,-32.87,-7.0436
5984.0,-122.57,-97.307,-34.87,-7.0436
5993.9,-124.57,-99.307,-30.87,-7.0436
6003.7,-125.57,-99.307,-31.87,-7.0436
6013.6,-127.57,-99.307,-32.87,-7.0436
6023.5,-129.57,-101.31,-32.87,-7.0436
6033.4,-130.57,-103.31,-32.87,-8.0436
6043.3,-132.57,-105.31,-34.87,-7.0436
6053.2,-135.57,-106.31,-34.87,-7.0436
6063.1,-135.57,-105.31,-33.87,-7.0436
6072.9,-137.57,-107.31,-35.87,-7.0436
6082.8,-135.57,-105.31,-35.87,-8.0436
6092.7,-134.57,-103.31,-37.87,-10.044
6102.6,-131.57,-102.31,-39.87,-9.0436
6112.5,-130.57,-101.31,-39.87,-9.0436
6122.4,-129.57,-98.307,-36.87,-10.044
6132.2,-131.57,-98.307,-40.87,-11.044
6142.1,-134.57,-101.31,-41.87,-10.044
6152.0,-137.57,-100.31,-42.87,-13.044
6161.9,-138.57,-102.31,-44.87,-12.044
6171.8,-140.57,-100.31,-41.87,-12.044
6181.7,-138.57,-100.31,-44.87,-12.044
6191.6,-139.57,-98.307,-45.87,-12.044
6201.5,-138.57,-98.307,-42.87,-10.044
6211.3,-138.57,-98.307,-43.87,-11.044
6221.2,-145.57,-99.307,-44.87,-12.044
6231.1,-145.57,-99.307,-48.87,-13.044
6241.0,-150.57,-100.31,-45.87,-13.044
6250.9,-150.57,-100.31,-47.87,-13.044
6260.8,-155.57,-100.31,-48.87,-14.044
6270.6,-155.57,-100.31,-48.87,-13.044
6280.5,-154.57,-99.307,-50.87,-15.044
6290.4,-154.57,-99.307,-51.87,-15.044
6300.3,-142.57,-85.307,-51.87,-15.044
6310.2,-142.57,-85.307,-53.87,-16.044
6320.1,-130.57,-85.307,-52.87,-14.044
6330.0,-130.57,-85.307,-54.87,-15.044
6339.8,-123.57,-89.307,-54.87,-15.044
6349.7,-123.57,-89.307,-55.87,-16.044
6359.6,-114.57,-89.307,-54.87,-15.044
6369.5,-114.57,-89.307,-57.87,-16.044
6379.4,-111.57,-90.307,-55.87,-17.044
6389.3,-106.57,-87.307,-54.87,-17.044
6399.2,-103.57,-85.307,-53.87,-18.044
6409.0,-102.57,-86.307,-52.87,-18.044
6418.9,-100.57,-85.307,-51.87,-17.044
6428.8,-100.57,-82.307,-47.87,-16.044
6438.7,-98.566,-81.307,-46.87,-15.044
6448.6,-95.566,-78.307,-46.87,-14.044
6458.5,-92.566,-75.307,-43.87,-14.044
6468.4,-86.566,-71.307,-41.87,-12.044
6478.2,-82.566,-68.307,-40.87,-13.044
6488.1,-78.566,-63.307,-38.87,-11.044
6498.0,-77.566,-59.307,-38.87,-11.044
6507.9,-74.566,-57.307,-39.87,-12.044
6517.8,-72.566,-55.307,-39.87,-12.044
6527.7,-73.566,-54.307,-40.87,-12.044
6537.6,-75.566,-55.307,-40.87,-12.044
6547.4,-78.566,-56.307,-40.87,-14.044
6557.3,-76.566,-56.307,-40.87,-14.044
6567.2,-78.566,-54.307,-42.87,-13.044
6577.1,-75.566,-53.307,-42.87,-13.044
6587.0,-74.566,-52.307,-40.87,-13.044
6596.9,-76.566,-52.307,-40.87,-13.044
6606.8,-76.566,-51.307,-40.87,-11.044
6616.6,-77.566,-51.307,-40.87,-11.044
6626.5,-75.566,-50.307,-39.87,-12.044
6636.4,-77.566,-49.307,-39.87,-12.044
6646.3,-75.566,-49.307,-42.87,-12.044
6656.2,-77.566,-48.307,-42.87,-12.044
6666.1,-76.566,-47.307,-42.87,-11.044
6676.0,-76.566,-46.307,-42.87,-11.044
6685.8,-75.566,-44.307,-43.87,-12.044
6695.7,-76.566,-43.307,-43.87,-12.044
6705.6,-74.566,-40.307,-44.87,-11.044
6715.5,-73.566,-38.307,-44.87,-12.044
6725.4,-71.566,-37.307,-44.87,-11.044
6735.3,-71.566,-35.307,-44.87,-11.044
6745.2,-72.566,-34.307,-42.87,-11.044
6755.0,-72.566,-33.307,-45.87,-11.044
6764.9,-71.566,-31.307,-44.87,-11.044
6774.8,-71.566,-30.307,-43.87,-10.044
6784.7,-70.566,-28.307,-43.87,-10.044
6794.6,-70.566,-27.307,-45.87,-11.044
6804.5,-68.566,-23.307,-45.87,-11.044
6814.4,-65.566,-20.307,-46.87,-11.044
6824.2,-59.566,-14.307,-47.87,-12.044
6834.1,-52.566,-8.3067,-47.87,-12.044
6844.0,-45.566,-7.3067,-46.87,-11.044
6853.9,-38.566,-7.3067,-45.87,-11.044
6863.8,-32.566,-9.3067,-48.87,-11.044
6873.7,-23.566,-7.3067,-49.87,-12.044
6883.6,-20.566,-9.3067,-49.87,-14.044
6893.4,-17.566,-7.3067,-51.87,-14.044
6903.3,-11.566,-6.3067,-50.87,-13.044
6913.2,-6.5658,-4.3067,-48.87,-12.044
6923.1,-1.5658,-0.30668,-48.87,-11.044
6933.0,4.4342,1.6933,-44.87,-11.044
6942.9,8.4342,5.6933,-41.87,-10.044
6952.8,12.434,9.6933,-40.87,-9.0436
6962.6,18.434,14.693,-38.87,-8.0436
6972.5,20.434,14.693,-37.87,-8.0436
6982.4,21.434,17.693,-37.87,-9.0436
6992.3,20.434,18.693,-36.87,-9.0436
7002.2,19.434,19.693,-32.87,-7.0436
7012.1,21.434,22.693,-32.87,-6.0436
7022.0,21.434,23.693,-31.87,-6.0436
7031.8,23.434,25.693,-30.87,-5.0436
7041.7,22.434,24.693,-31.87,-5.0436
7051.6,22.434,26.693,-29.87,-4.0436
7061.5,24.434,27.693,-28.87,-3.0436
7071.4,25.434,27.693,-30.87,-4.0436
7081.3,25.434,27.693,-29.87,-4.0436
7091.2,23.434,27.693,-30.87,-3.0436
7101.0,23.434,27.693,-29.87,-3.0436
7110.9,26.434,29.693,-30.87,-4.0436
7120.8,26.434,29.693,-31.87,-4.0436
7130.7,25.434,30.693,-33.87,-4.0436
7140.6,25.434,30.693,-32.87,-4.0436
7150.5,24.434,30.693,-33.87,-5.0436
7160.4,24.434,30.693,-35.87,-5.0436
7170.2,23.434,32.693,-34.87,-5.0436
7180.1,23.434,32.693,-36.87,-5.0436
7190.0,24.434,34.693,-33.87,-5.0436
7199.9,24.434,34.693,-35.87,-5.0436
7209.8,23.434,35.693,-34.87,-5.0436
7219.7,23.434,35.693,-36.87,-5.0436
7229.6,23.434,36.693,-34.87,-4.0436
7239.4,23.434,36.693,-32.87,-5.0436
7249.3,22.434,37.693,-36.87,-4.0436
7259.2,22.434,37.693,-36.87,-5.0436
7269.1,21.434,37.693,-38.87,-6.0436
7279.0,20.434,37.693,-37.87,-6.0436
7288.9,18.434,37.693,-35.87,-4.0436
7298.8,18.434,37.693,-37.87,-4.0436
7308.6,17.434,38.693,-38.87,-3.0436
7318.5,17.434,40.693,-37.87,-4.0436
7328.4,17.434,40.693,-37.87,-2.0436
7338.3,19.434,41.693,-39.87,-3.0436
7348.2,19.434,46.693,-38.87,-3.0436
7358.1,22.434,47.693,-38.87,-4.0436
7368.0,24.434,46.693,-39.87,-3.0436
7377.8,31.434,46.693,-42.87,-5.0436
7387.7,38.434,46.693,-41.87,-3.0436
7397.6,45.434,45.693,-41.87,-5.0436
7407.5,54.434,46.693,-41.87,-4.0436
7417.4,58.434,46.693,-41.87,-4.0436
7427.3,64.434,47.693,-39.87,-4.0436
7437.2,67.434,50.693,-36.87,-3.0436
7447.0,72.434,51.693,-36.87,-3.0436
7456.9,78.434,53.693,-33.87,-2.0436
7466.8,80.434,57.693,-34.87,-2.0436
7476.7,85.434,60.693,-30.87,-1.0436
7486.6,89.434,61.693,-29.87,-0.043567
7496.5,90.434,62.693,-29.87,-1.0436
7506.4,92.434,65.693,-27.87,-1.0436
7516.2,93.434,66.693,-28.87,-1.0436
7526.1,94.434,68.693,-25.87,0.95643
7536.0,95.434,70.693,-23.87,1.9564
7545.9,97.434,73.693,-24.87,0.95643
7555.8,96.434,74.693,-23.87,1.9564
7565.7,99.434,74.693,-22.87,2.9564
7575.6,100.43,75.693,-23.87,2.9564
7585.4,98.434,73.693,-23.87,2.9564
7595.3,98.434,72.693,-22.87,1.9564
7605.2,96.434,72.693,-22.87,1.9564
7615.1,94.434,70.693,-24.87,1.9564
7625.0,93.434,69.693,-24.87,1.9564
7634.9,94.434,68.693,-22.87,4.9564
7644.8,91.434,68.693,-22.87,4.9564
7654.6,89.434,67.693,-23.87,2.9564
7664.5,87.434,66.693,-23.87,2.9564
7674.4,88.434,67.693,-24.87,1.9564
7684.3,85.434,66.693,-24.87,1.9564
7694.2,86.434,67.693,-26.87,1.9564
7704.1,84.434,66.693,-26.87,1.9564
7714.0,82.434,65.693,-25.87,4.9564
7723.8,78.434,65.693,-25.87,4.9564
7733.7,77.434,64.693,-26.87,4.9564
7743.6,77.434,63.693,-26.87,4.9564
7753.5,72.434,62.693,-25.87,3.9564
7763.4,71.434,62.693,-25.87,3.9564
7773.3,71.434,61.693,-27.87,5.9564
7783.2,68.434,61.693,-27.87,5.9564
7793.0,67.434,62.693,-22.87,5.9564
7802.9,66.434,62.693,-22.87,5.9564
7812.8,64.434,61.693,-22.87,5.9564
7822.7,63.434,58.693,-23.87,4.9564
7832.6,60.434,59.693,-24.87,5.9564
7842.5,58.434,59.693,-24.87,5.9564
7852.4,56.434,58.693,-26.87,4.9564
7862.2,54.434,59.693,-26.87,5.9564
7872.1,55.434,61.693,-26.87,4.9564
7882.0,59.434,63.693,-25.87,6.9564
7891.9,66.434,64.693,-26.87,5.9564
7901.8,74.434,63.693,-28.87,4.9564
7911.7,79.434,60.693,-29.87,4.9564
7921.6,83.434,59.693,-31.87,4.9564
7931.4,89.434,57.693,-31.87,3.9564
7941.3,92.434,57.693,-30.87,3.9564
7951.2,92.434,57.693,-29.87,4.9564
7961.1,100.43,59.693,-26.87,4.9564
7971.0,100.43,59.693,-23.87,6.9564
7980.9,107.43,63.693,-24.87,7.9564
7990.8,107.43,63.693,-20.87,7.9564
8000.6,112.43,65.693,-19.87,8.9564
8010.5,112.43,65.693,-17.87,7.9564
8020.4,115.43,67.693,-16.87,8.9564
8030.3,115.43,67.693,-11.87,10.956
8040.2,116.43,69.693,-11.87,11.956
8050.1,116.43,69.693,-11.87,10.956
8060.0,118.43,71.693,-10.87,11.956
8069.8,118.43,71.693,-8.8701,10.956
8079.7,118.43,74.693,-9.8701,11.956
8089.6,118.43,74.693,-8.8701,12.956
8099.5,116.43,71.693,-9.8701,10.956
8109.4,116.43,71.693,-8.8701,10.956
8119.3,117.43,72.693,-9.8701,11.956
8129.2,114.43,69.693,-9.8701,12.956
8139.0,114.43,69.693,-7.8701,13.956
8148.9,113.43,67.693,-9.8701,11.956
8158.8,111.43,67.693,-9.8701,12.956
8168.7,110.43,66.693,-9.8701,11.956
8178.6,108.43,66.693,-9.8701,11.956
8188.5,104.43,63.693,-11.87,12.956
8198.4,103.43,63.693,-12.87,11.956
8208.2,102.43,63.693,-9.8701,12.956
8218.1,102.43,63.693,-12.87,12.956
8228.0,102.43,64.693,-12.87,12.956
8237.9,101.43,63.693,-12.87,12.956
8247.8,98.434,63.693,-13.87,11.956
8257.7,96.434,62.693,-11.87,11.956
8267.6,94.434,62.693,-13.87,11.956
8277.4,92.434,60.693,-12.87,12.956
8287.3,88.434,59.693,-11.87,13.956
8297.2,86.434,57.693,-11.87,12.956
8307.1,83.434,55.693,-12.87,13.956
8317.0,80.434,53.693,-12.87,12.956
8326.9,78.434,54.693,-14.87,12.956
8336.8,75.434,54.693,-13.87,14.956
8346.6,74.434,52.693,-12.87,13.956
8356.5,72.434,51.693,-12.87,13.956
8366.4,68.434,50.693,-12.87,16.956
8376.3,68.434,49.693,-12.87,13.956
8386.2,65.434,50.693,-13.87,13.956
8396.1,63.434,50.693,-15.87,13.956
8406.0,64.434,52.693,-15.87,12.956
8415.8,67.434,53.693,-13.87,13.956
8425.7,73.434,52.693,-13.87,13.956
8435.6,79.434,51.693,-14.87,13.956
8445.5,84.434,49.693,-17.87,13.956
8455.4,89.434,46.693,-18.87,12.956
8465.3,92.434,44.693,-16.87,11.956
8475.2,93.434,42.693,-18.87,11.956
8485.0,97.434,43.693,-16.87,13.956
8494.9,97.434,44.693,-14.87,13.956
8504.8,100.43,45.693,-11.87,13.956
8514.7,102.43,43.693,-9.8701,14.956
8524.6,101.43,42.693,-9.8701,15.956
8534.5,102.43,42.693,-6.8701,15.956
8544.4,101.43,42.693,-6.8701,16.956
8554.2,101.43,43.693,-3.8701,15.956
8564.1,103.43,44.693,-2.8701,16.956
8574.0,101.43,45.693,-3.8701,17.956
8583.9,101.43,46.693,-2.8701,17.956
8593.8,100.43,47.693,-2.8701,16.956
8603.7,98.434,44.693,-3.8701,16.956
8613.6,96.434,45.693,-1.8701,16.956
8623.4,95.434,44.693,-1.8701,16.956
8633.3,91.434,42.693,-0.87009,17.956
8643.2,89.434,40.693,-0.87009,16.956
8653.1,85.434,38.693,0.12991,17.956
8663.0,82.434,36.693,-1.8701,18.956
8672.9,82.434,37.693,-0.87009,18.956
8682.7,78.434,33.693,-3.8701,18.956
8692.6,76.434,33.693,-3.8701,18.956
8702.5,75.434,31.693,-4.8701,17.956
8712.4,72.434,32.693,-4.8701,17.956
8722.3,70.434,30.693,-3.8701,16.956
8732.2,66.434,28.693,-3.8701,16.956
8742.1,64.434,26.693,-4.8701,16.956
8752.0,61.434,26.693,-4.8701,16.956
8761.8,59.434,25.693,-6.8701,15.956
8771.7,56.434,24.693,-6.8701,15.956
8781.6,53.434,24.693,-6.8701,15.956
8791.5,52.434,22.693,-6.8701,15.956
8801.4,48.434,21.693,-5.8701,16.956
8811.3,45.434,20.693,-5.8701,16.956
8821.1,45.434,20.693,-7.8701,17.956
8831.0,39.434,19.693,-7.8701,17.956
8840.9,39.434,19.693,-7.8701,15.956
8850.8,34.434,17.693,-7.8701,15.956
8860.7,34.434,17.693,-6.8701,15.956
8870.6,26.434,14.693,-6.8701,15.956
8880.5,26.434,14.693,-9.8701,16.956
8890.3,20.434,11.693,-7.8701,16.956
8900.2,20.434,11.693,-9.8701,16.956
8910.1,16.434,10.693,-10.87,15.956
8920.0,16.434,10.693,-9.8701,15.956
8929.9,17.434,13.693,-10.87,15.956
8939.8,17.434,13.693,-9.8701,16.956
8949.7,21.434,14.693,-10.87,17.956
8959.5,21.434,14.693,-8.8701,16.956
8969.4,31.434,11.693,-10.87,17.956
8979.3,31.434,11.693,-10.87,17.956
8989.2,36.434,10.693,-12.87,16.956
8999.1,39.434,9.6933,-13.87,15.956
9009.0,44.434,6.6933,-14.87,15.956
9018.9,45.434,7.6933,-13.87,14.956
9028.7,46.434,8.6933,-14.87,14.956
9038.6,50.434,9.6933,-12.87,14.956
9048.5,52.434,10.693,-9.8701,15.956
9058.4,54.434,11.693,-5.8701,15.956
9068.3,55.434,12.693,-4.8701,16.956
9078.2,58.434,13.693,-3.8701,17.956
9088.1,57.434,14.693,-3.8701,17.956
9097.9,58.434,15.693,-2.8701,17.956
9107.8,54.434,14.693,-0.87009,18.956
9117.7,53.434,14.693,-0.87009,17.956
9127.6,53.434,15.693,2.1299,18.956
9137.5,51.434,14.693,1.1299,19.956
9147.4,46.434,12.693,4.1299,21.956
9157.3,46.434,13.693,3.1299,20.956
9167.1,44.434,12.693,3.1299,20.956
9177.0,42.434,11.693,0.12991,19.956
9186.9,39.434,9.6933,0.12991,19.956
9196.8,37.434,7.6933,-0.87009,19.956
9206.7,34.434,5.6933,0.12991,18.956
9216.6,31.434,5.6933,1.1299,20.956
9226.5,30.434,3.6933,2.1299,21.956
9236.3,26.434,1.6933,4.1299,23.956
9246.2,24.434,1.6933,4.1299,22.956
9256.1,23.434,-0.30668,2.1299,21.956
9266.0,20.434,-1.3067,1.1299,20.956
9275.9,17.434,-2.3067,0.12991,20.956
9285.8,13.434,-4.3067,0.12991,20.956
9295.7,12.434,-3.3067,0.12991,19.956
9305.5,9.4342,-5.3067,0.12991,20.956
9315.4,7.4342,-6.3067,0.12991,21.956
9325.3,4.4342,-6.3067,0.12991,20.956
9335.2,0.43416,-8.3067,-1.8701,20.956
9345.1,-1.5658,-7.3067,0.12991,19.956
9355.0,-1.5658,-9.3067,0.12991,21.956
9364.9,-5.5658,-9.3067,-0.87009,22.956
9374.7,-8.5658,-11.307,-1.8701,21.956
9384.6,-9.5658,-10.307,0.12991,22.956
9394.5,-12.566,-11.307,0.12991,22.956
9404.4,-14.566,-12.307,1.1299,22.956
9414.3,-16.566,-14.307,-0.87009,22.956
9424.2,-19.566,-13.307,-0.87009,24.956
9434.1,-22.566,-13.307,-1.8701,22.956
9443.9,-23.566,-14.307,-1.8701,22.956
9453.8,-25.566,-12.307,-1.8701,22.956
9463.7,-22.566,-10.307,-1.8701,24.956
9473.6,-19.566,-3.3067,-0.87009,22.956
9483.5,-16.566,-1.3067,-3.8701,21.956
9493.4,-11.566,-2.3067,-2.8701,22.956
9503.3,-7.5658,-5.3067,-4.8701,22.956
9513.1,-4.5658,-9.3067,-4.8701,22.956
9523.0,-0.56584,-11.307,-4.8701,21.956
9532.9,3.4342,-12.307,-5.8701,20.956
9542.8,5.4342,-13.307,-3.8701,21.956
9552.7,7.4342,-13.307,-5.8701,20.956
9562.6,9.4342,-12.307,-4.8701,20.956
9572.5,11.434,-12.307,-1.8701,21.956
9582.3,9.4342,-12.307,-0.87009,22.956
9592.2,6.4342,-14.307,0.12991,21.956
9602.1,6.4342,-15.307,3.1299,23.956
9612.0,5.4342,-16.307,6.1299,24.956
9621.9,2.4342,-16.307,6.1299,25.956
9631.8,0.43416,-17.307,7.1299,25.956
9641.7,-0.56584,-17.307,8.1299,25.956
9651.5,-0.56584,-16.307,8.1299,25.956
9661.4,-1.5658,-15.307,9.1299,26.956
9671.3,-1.5658,-15.307,10.13,25.956
9681.2,-5.5658,-14.307,12.13,27.956
9691.1,-5.5658,-14.307,12.13,26.956
9701.0,-7.5658,-15.307,12.13,26.956
9710.9,-7.5658,-15.307,10.13,26.956
9720.7,-11.566,-20.307,11.13,27.956
9730.6,-11.566,-20.307,12.13,27.956
9740.5,-14.566,-23.307,12.13,27.956
9750.4,-14.566,-23.307,11.13,27.956
9760.3,-21.566,-26.307,11.13,27.956
9770.2,-21.566,-26.307,9.1299,27.956
9780.1,-24.566,-27.307,9.1299,27.956
9789.9,-24.566,-27.307,10.13,27.956
9799.8,-27.566,-26.307,10.13,27.956
9809.7,-27.566,-26.307,10.13,26.956
9819.6,-30.566,-28.307,10.13,26.956
9829.5,-30.566,-28.307,6.1299,26.956
9839.4,-34.566,-29.307,6.1299,26.956
9849.3,-36.566,-31.307,7.1299,26.956
9859.1,-40.566,-31.307,7.1299,26.956
9869.0,-43.566,-34.307,5.1299,27.956
9878.9,-46.566,-35.307,5.1299,27.956
9888.8,-48.566,-37.307,4.1299,26.956
9898.7,-52.566,-38.307,4.1299,26.956
9908.6,-55.566,-39.307,4.1299,26.956
9918.5,-60.566,-40.307,4.1299,26.956
9928.3,-61.566,-41.307,5.1299,25.956
9938.2,-65.566,-42.307,5.1299,25.956
9948.1,-63.566,-40.307,3.1299,26.956
9958.0,-66.566,-41.307,4.1299,26.956
9967.9,-69.566,-41.307,2.1299,25.956
9977.8,-71.566,-42.307,3.1299,25.956
9987.7,-75.566,-43.307,2.1299,25.956
9997.5,-76.566,-43.307,0.12991,24.956
10007.0,-75.566,-41.307,1.1299,24.956
10017.0,-72.566,-38.307,0.12991,24.956
10027.0,-70.566,-34.307,0.12991,24.956
10037.0,-63.566,-34.307,0.12991,26.956
10047.0,-59.566,-35.307,2.1299,26.956
10057.0,-54.566,-38.307,0.12991,26.956
10067.0,-51.566,-40.307,-0.87009,26.956
10077.0,-49.566,-42.307,-2.8701,25.956
10087.0,-48.566,-44.307,-2.8701,23.956
10096.0,-46.566,-43.307,-0.87009,24.956
10106.0,-42.566,-40.307,-1.8701,24.956
10116.0,-38.566,-39.307,-0.87009,24.956
10126.0,-37.566,-37.307,1.1299,25.956
10136.0,-35.566,-35.307,5.1299,24.956
10146.0,-34.566,-34.307,6.1299,24.956
10156.0,-30.566,-32.307,7.1299,26.956
10166.0,-27.566,-30.307,7.1299,26.956
10176.0,-27.566,-28.307,9.1299,26.956
10185.0,-25.566,-26.307,10.13,26.956
10195.0,-24.566,-22.307,11.13,26.956
10205.0,-22.566,-21.307,11.13,24.956
10215.0,-23.566,-19.307,12.13,26.956
10225.0,-24.566,-20.307,11.13,25.956
10235.0,-26.566,-19.307,13.13,26.956
10245.0,-28.566,-19.307,13.13,27.956
10255.0,-30.566,-21.307,13.13,27.956
10265.0,-29.566,-21.307,12.13,26.956
10274.0,-31.566,-21.307,11.13,26.956
10284.0,-32.566,-22.307,12.13,26.956
10294.0,-34.566,-22.307,8.1299,26.956
10304.0,-35.566,-23.307,8.1299,26.956
10314.0,-34.566,-22.307,7.1299,24.956
10324.0,-37.566,-21.307,7.1299,24.956
10334.0,-35.566,-20.307,6.1299,24.956
10344.0,-36.566,-19.307,7.1299,24.956
10353.0,-35.566,-19.307,6.1299,24.956
10363.0,-37.566,-18.307,8.1299,24.956
10373.0,-37.566,-18.307,5.1299,24.956
10383.0,-39.566,-16.307,5.1299,23.956
10393.0,-40.566,-18.307,3.1299,23.956
10403.0,-41.566,-17.307,2.1299,23.956
10413.0,-41.566,-15.307,2.1299,22.956
10423.0,-45.566,-16.307,2.1299,23.956
10433.0,-44.566,-18.307,3.1299,20.956
10442.0,-45.566,-15.307,0.12991,22.956
10452.0,-46.566,-15.307,0.12991,21.956
10462.0,-48.566,-15.307,-1.8701,21.956
10472.0,-49.566,-15.307,0.12991,20.956
10482.0,-51.566,-15.307,-0.87009,21.956
10492.0,-53.566,-14.307,0.12991,21.956
10502.0,-51.566,-14.307,-2.8701,21.956
10512.0,-53.566,-13.307,-0.87009,21.956
10522.0,-53.566,-13.307,-1.8701,21.956
10531.0,-51.566,-10.307,-2.8701,19.956
10541.0,-51.566,-10.307,-3.8701,20.956
10551.0,-51.566,-6.3067,-5.8701,19.956
10561.0,-51.566,-6.3067,-7.8701,18.956
10571.0,-40.566,-1.3067,-6.8701,20.956
10581.0,-40.566,-1.3067,-5.8701,18.956
10591.0,-29.566,-3.3067,-8.8701,17.956
10601.0,-29.566,-3.3067,-9.8701,16.956
10611.0,-21.566,-4.3067,-10.87,16.956
10620.0,-21.566,-4.3067,-11.87,16.956
10630.0,-15.566,-4.3067,-10.87,16.956
10640.0,-15.566,-4.3067,-11.87,15.956
10650.0,-9.5658,-0.30668,-8.8701,16.956
10660.0,-9.5658,-0.30668,-9.8701,15.956
10670.0,-5.5658,1.6933,-6.8701,16.956
10680.0,-5.5658,1.6933,-5.8701,16.956
10690.0,-4.5658,3.6933,-4.8701,17.956
10699.0,-4.5658,3.6933,-4.8701,16.956
10709.0,-4.5658,5.6933,-1.8701,16.956
10719.0,-4.5658,5.6933,-4.8701,16.956
10729.0,-5.5658,7.6933,-1.8701,16.956
10739.0,-5.5658,7.6933,-0.87009,15.956
10749.0,-6.5658,9.6933,-0.87009,17.956
10759.0,-4.5658,10.693,-0.87009,16.956
10769.0,-5.5658,11.693,-0.87009,16.956
10779.0,-3.5658,11.693,-2.8701,15.956
10788.0,-3.5658,13.693,-2.8701,16.956
10798.0,-4.5658,12.693,-3.8701,15.956
10808.0,-3.5658,13.693,-5.8701,16.956
10818.0,-4.5658,13.693,-5.8701,14.956
10828.0,-3.5658,14.693,-5.8701,14.956
10838.0,-6.5658,13.693,-6.8701,13.956
10848.0,-6.5658,13.693,-6.8701,13.956
10858.0,-7.5658,15.693,-8.8701,13.956
10868.0,-8.5658,13.693,-8.8701,13.956
10877.0,-7.5658,15.693,-11.87,12.956
10887.0,-8.5658,15.693,-11.87,12.956
10897.0,-9.5658,16.693,-12.87,11.956
10907.0,-6.5658,18.693,-12.87,11.956
10917.0,-8.5658,19.693,-11.87,12.956
10927.0,-6.5658,20.693,-11.87,12.956
10937.0,-7.5658,21.693,-12.87,12.956
10947.0,-10.566,20.693,-12.87,12.956
10957.0,-11.566,21.693,-13.87,11.956
10966.0,-13.566,20.693,-13.87,11.956
10976.0,-12.566,21.693,-16.87,9.9564
10986.0,-12.566,21.693,-16.87,9.9564
10996.0,-12.566,22.693,-15.87,9.9564
11006.0,-12.566,24.693,-15.87,9.9564
11016.0,-14.566,23.693,-15.87,9.9564
11026.0,-12.566,25.693,-15.87,9.9564
11036.0,-12.566,25.693,-17.87,9.9564
11045.0,-13.566,26.693,-17.87,9.9564
11055.0,-12.566,27.693,-18.87,8.9564
11065.0,-13.566,29.693,-19.87,8.9564
11075.0,-12.566,29.693,-19.87,10.956
11085.0,-13.566,31.693,-18.87,8.9564
11095.0,-12.566,33.693,-20.87,8.9564
11105.0,-8.5658,34.693,-21.87,9.9564
11115.0,-1.5658,35.693,-20.87,10.956
11125.0,3.4342,33.693,-20.87,10.956
11134.0,8.4342,31.693,-22.87,9.9564
11144.0,13.434,32.693,-23.87,7.9564
11154.0,18.434,30.693,-24.87,7.9564
11164.0,20.434,31.693,-23.87,7.9564
11174.0,24.434,31.693,-24.87,7.9564
11184.0,27.434,33.693,-21.87,8.9564
11194.0,32.434,37.693,-21.87,10.956
11204.0,33.434,37.693,-17.87,9.9564
11214.0,34.434,39.693,-17.87,9.9564
11223.0,37.434,41.693,-13.87,10.956
11233.0,36.434,41.693,-14.87,11.956
11243.0,37.434,41.693,-11.87,11.956
11253.0,33.434,41.693,-11.87,10.956
11263.0,32.434,42.693,-8.8701,13.956
11273.0,33.434,43.693,-7.8701,12.956
11283.0,31.434,42.693,-7.8701,14.956
11293.0,31.434,43.693,-8.8701,13.956
11303.0,30.434,43.693,-9.8701,13.956
11312.0,30.434,41.693,-8.8701,13.956
11322.0,28.434,40.693,-6.8701,14.956
11332.0,27.434,40.693,-6.8701,13.956
11342.0,25.434,39.693,-7.8701,14.956
11352.0,25.434,40.693,-5.8701,14.956
11362.0,24.434,38.693,-8.8701,14.956
11372.0,24.434,38.693,-7.8701,14.956
11382.0,22.434,37.693,-10.87,14.956
11391.0,22.434,37.693,-10.87,13.956
11401.0,19.434,36.693,-13.87,13.956
11411.0,19.434,36.693,-12.87,12.956
11421.0,19.434,36.693,-11.87,12.956
11431.0,19.434,36.693,-10.87,14.956
11441.0,15.434,36.693,-12.87,13.956
11451.0,15.434,36.693,-12.87,13.956
11461.0,11.434,35.693,-14.87,11.956
11471.0,11.434,35.693,-15.87,12.956
11480.0,8.4342,33.693,-14.87,13.956
11490.0,8.4342,33.693,-14.87,12.956
11500.0,3.4342,31.693,-13.87,13.956
11510.0,3.4342,31.693,-12.87,13.956
11520.0,0.43416,30.693,-14.87,13.956
11530.0,0.43416,30.693,-15.87,14.956
11540.0,0.43416,31.693,-14.87,13.956
11550.0,-0.56584,31.693,-15.87,13.956
11560.0,-3.5658,30.693,-15.87,13.956
11569.0,-3.5658,31.693,-16.87,13.956
11579.0,-3.5658,31.693,-14.87,13.956
11589.0,-4.5658,30.693,-16.87,13.956
11599.0,-5.5658,31.693,-16.87,13.956
11609.0,-7.5658,31.693,-17.87,13.956
11619.0,-8.5658,30.693,-18.87,15.956
11629.0,-9.5658,33.693,-17.87,15.956
11639.0,-7.5658,34.693,-17.87,15.956
11648.0,-1.5658,34.693,-17.87,13.956
11658.0,2.4342,32.693,-19.87,13.956
11668.0,8.4342,31.693,-21.87,12.956
11678.0,13.434,30.693,-21.87,11.956
11688.0,19.434,30.693,-20.87,12.956
11698.0,24.434,29.693,-19.87,13.956
11708.0,28.434,30.693,-16.87,14.956
11718.0,32.434,32.693,-15.87,15.956
11728.0,37.434,35.693,-11.87,16.956
11737.0,40.434,36.693,-9.8701,17.956
11747.0,43.434,38.693,-7.8701,18.956
11757.0,45.434,39.693,-6.8701,17.956
11767.0,45.434,40.693,-6.8701,17.956
11777.0,48.434,41.693,-7.8701,17.956
11787.0,47.434,42.693,-5.8701,18.956
11797.0,48.434,43.693,-2.8701,19.956
11807.0,49.434,44.693,-1.8701,19.956
11817.0,49.434,45.693,1.1299,21.956
11826.0,50.434,47.693,2.1299,22.956
11836.0,50.434,47.693,2.1299,22.956
11846.0,49.434,46.693,1.1299,22.956
11856.0,46.434,45.693,2.1299,22.956
11866.0,47.434,46.693,4.1299,22.956
11876.0,46.434,44.693,4.1299,22.956
11886.0,47.434,45.693,1.1299,22.956
11896.0,45.434,43.693,1.1299,22.956
11906.0,44.434,43.693,0.12991,23.956
11915.0,45.434,42.693,0.12991,23.956
11925.0,43.434,42.693,1.1299,23.956
11935.0,44.434,44.693,1.1299,23.956
11945.0,43.434,42.693,0.12991,22.956
11955.0,41.434,42.693,0.12991,22.956
11965.0,40.434,42.693,1.1299,24.956
11975.0,39.434,43.693,1.1299,24.956
11985.0,40.434,42.693,3.1299,25.956
11994.0,40.434,44.693,3.1299,25.956
12004.0,38.434,43.693,-0.87009,25.956
12014.0,37.434,43.693,-0.87009,25.956
12024.0,37.434,44.693,0.12991,24.956
12034.0,35.434,42.693,0.12991,24.956
12044.0,34.434,42.693,2.1299,24.956
12054.0,33.434,43.693,2.1299,24.956
12064.0,33.434,43.693,1.1299,25.956
12074.0,32.434,42.693,1.1299,25.956
12083.0,30.434,42.693,1.1299,26.956
12093.0,28.434,42.693,0.12991,24.956
12103.0,25.434,41.693,0.12991,26.956
12113.0,26.434,39.693,-1.8701,23.956
12123.0,22.434,39.693,-2.8701,23.956
12133.0,22.434,38.693,-0.87009,25.956
12143.0,20.434,38.693,-0.87009,25.956
12153.0,17.434,40.693,-2.8701,25.956
12163.0,18.434,41.693,-2.8701,25.956
12172.0,20.434,42.693,-3.8701,25.956
12182.0,26.434,43.693,-3.8701,25.956
12192.0,31.434,41.693,-4.8701,24.956
12202.0,35.434,39.693,-5.8701,24.956
12212.0,39.434,35.693,-8.8701,23.956
12222.0,42.434,31.693,-6.8701,24.956
12232.0,44.434,31.693,-6.8701,23.956
12242.0,44.434,31.693,-4.8701,24.956
12252.0,52.434,33.693,-3.8701,25.956
12261.0,52.434,33.693,-2.8701,24.956
12271.0,55.434,35.693,1.1299,27.956
12281.0,55.434,35.693,3.1299,25.956
12291.0,56.434,35.693,4.1299,26.956
12301.0,56.434,35.693,5.1299,27.956
12311.0,58.434,36.693,8.1299,26.956
12321.0,58.434,36.693,9.1299,28.956
12331.0,58.434,36.693,10.13,30.956
12340.0,58.434,36.693,12.13,29.956
12350.0,58.434,38.693,14.13,32.956
12360.0,58.434,38.693,15.13,31.956
12370.0,55.434,38.693,16.13,33.956
12380.0,55.434,38.693,15.13,33.956
12390.0,51.434,35.693,16.13,32.956
12400.0,51.434,35.693,16.13,31.956
12410.0,50.434,33.693,17.13,33.956
12420.0,51.434,33.693,17.13,33.956
12429.0,51.434,35.693,17.13,33.956
12439.0,49.434,32.693,17.13,33.956
12449.0,47.434,32.693,15.13,32.956
12459.0,44.434,29.693,17.13,32.956
12469.0,41.434,27.693,15.13,32.956
12479.0,39.434,26.693,15.13,33.956
12489.0,37.434,26.693,15.13,34.956
12499.0,35.434,25.693,15.13,33.956
12509.0,33.434,25.693,16.13,36.956
12518.0,31.434,24.693,16.13,35.956
12528.0,28.434,21.693,17.13,35.956
12538.0,27.434,21.693,18.13,35.956
12548.0,25.434,19.693,17.13,34.956
12558.0,23.434,19.693,16.13,34.956
12568.0,18.434,17.693,16.13,33.956
12578.0,16.434,16.693,16.13,35.956
12588.0,16.434,15.693,16.13,34.956
12598.0,13.434,15.693,16.13,36.956
12607.0,10.434,13.693,17.13,35.956
12617.0,8.4342,14.693,17.13,35.956
12627.0,6.4342,13.693,18.13,38.956
12637.0,5.4342,14.693,16.13,37.956
12647.0,4.4342,13.693,18.13,37.956
12657.0,1.4342,13.693,17.13,39.956
12667.0,-1.5658,13.693,18.13,38.956
12677.0,-3.5658,11.693,17.13,37.956
12686.0,-4.5658,12.693,15.13,37.956
12696.0,-4.5658,14.693,15.13,36.956
12706.0,-4.5658,15.693,13.13,36.956
12716.0,-1.5658,17.693,16.13,38.956
12726.0,2.4342,17.693,15.13,38.956
12736.0,5.4342,15.693,15.13,38.956
12746.0,9.4342,11.693,13.13,37.956
12756.0,12.434,8.6933,13.13,36.956
12766.0,16.434,7.6933,13.13,36.956
12775.0,17.434,4.6933,13.13,36.956
12785.0,19.434,5.6933,13.13,37.956
12795.0,23.434,7.6933,16.13,37.956
12805.0,25.434,7.6933,19.13,38.956
12815.0,26.434,8.6933,22.13,39.956
12825.0,23.434,6.6933,25.13,40.956
12835.0,26.434,6.6933,25.13,40.956
12845.0,25.434,6.6933,29.13,42.956
12855.0,26.434,6.6933,29.13,42.956
12864.0,23.434,6.6933,31.13,43.956
12874.0,24.434,7.6933,34.13,44.956
12884.0,23.434,8.6933,34.13,43.956
12894.0,24.434,9.6933,35.13,43.956
12904.0,23.434,8.6933,36.13,45.956
12914.0,21.434,7.6933,36.13,44.956
12924.0,19.434,6.6933,36.13,46.956
12934.0,18.434,6.6933,36.13,45.956
12944.0,16.434,3.6933,37.13,45.956
12953.0,16.434,4.6933,36.13,46.956
12963.0,15.434,3.6933,36.13,46.956
12973.0,14.434,3.6933,36.13,47.956
12983.0,12.434,2.6933,36.13,47.956
12993.0,10.434,1.6933,36.13,46.956
13003.0,5.4342,0.69332,36.13,46.956
13013.0,5.4342,-1.3067,36.13,45.956
13023.0,5.4342,0.69332,36.13,45.956
13032.0,3.4342,0.69332,34.13,46.956
13042.0,3.4342,-0.30668,34.13,46.956
13052.0,1.4342,-1.3067,33.13,46.956
13062.0,0.43416,-0.30668,33.13,46.956
13072.0,-1.5658,-1.3067,33.13,46.956
13082.0,-5.5658,-2.3067,33.13,46.956
13092.0,-5.5658,-2.3067,33.13,46.956
13102.0,-8.5658,-4.3067,33.13,46.956
13112.0,-8.5658,-4.3067,33.13,46.956
13121.0,-16.566,-8.3067,33.13,46.956
13131.0,-16.566,-8.3067,35.13,46.956
13141.0,-22.566,-10.307,35.13,46.956
13151.0,-22.566,-10.307,32.13,46.956
13161.0,-28.566,-14.307,32.13,46.956
13171.0,-28.566,-14.307,34.13,47.956
13181.0,-32.566,-15.307,32.13,46.956
13191.0,-32.566,-15.307,31.13,46.956
13201.0,-39.566,-17.307,31.13,44.956
13210.0,-39.566,-17.307,30.13,44.956
13220.0,-42.566,-19.307,31.13,43.956
13230.0,-42.566,-19.307,29.13,44.956
13240.0,-42.566,-14.307,28.13,44.956
13250.0,-42.566,-14.307,30.13,45.956
13260.0,-38.566,-11.307,27.13,44.956
13270.0,-34.566,-9.3067,29.13,44.956
13280.0,-32.566,-11.307,27.13,44.956
13290.0,-27.566,-15.307,25.13,43.956
13299.0,-24.566,-17.307,25.13,43.956
13309.0,-17.566,-19.307,23.13,42.956
13319.0,-15.566,-20.307,23.13,41.956
13329.0,-11.566,-20.307,23.13,41.956
13339.0,-9.5658,-19.307,25.13,40.956
13349.0,-4.5658,-17.307,24.13,41.956
13359.0,-0.56584,-15.307,28.13,42.956
13369.0,1.4342,-14.307,30.13,43.956
13378.0,3.4342,-13.307,31.13,43.956
13388.0,4.4342,-12.307,33.13,42.956
13398.0,2.4342,-12.307,33.13,43.956
13408.0,4.4342,-11.307,34.13,43.956
13418.0,3.4342,-12.307,34.13,43.956
13428.0,4.4342,-11.307,36.13,43.956
13438.0,6.4342,-8.3067,38.13,44.956
13448.0,4.4342,-8.3067,37.13,45.956
13458.0,4.4342,-10.307,38.13,43.956
13467.0,1.4342,-10.307,38.13,43.956
13477.0,0.43416,-10.307,37.13,43.956
13487.0,-0.56584,-11.307,39.13,42.956
13497.0,-2.5658,-14.307,38.13,42.956
13507.0,-7.5658,-15.307,37.13,43.956
13517.0,-10.566,-16.307,39.13,43.956
13527.0,-12.566,-19.307,35.13,42.956
13537.0,-16.566,-21.307,35.13,41.956
13547.0,-21.566,-23.307,36.13,42.956
13556.0,-23.566,-26.307,35.13,41.956
13566.0,-25.566,-25.307,34.13,42.956
13576.0,-27.566,-27.307,33.13,42.956
13586.0,-26.566,-27.307,34.13,41.956
13596.0,-31.566,-28.307,34.13,40.956
13606.0,-32.566,-29.307,31.13,39.956
13616.0,-34.566,-29.307,32.13,39.956
13626.0,-38.566,-32.307,32.13,38.956
13636.0,-41.566,-33.307,31.13,38.956
13645.0,-45.566,-36.307,31.13,39.956
13655.0,-49.566,-37.307,31.13,39.956
13665.0,-52.566,-40.307,30.13,39.956
13675.0,-54.566,-41.307,29.13,39.956
13685.0,-59.566,-43.307,30.13,38.956
13695.0,-66.566,-46.307,29.13,38.956
13705.0,-68.566,-48.307,29.13,38.956
13715.0,-72.566,-51.307,27.13,38.956
13724.0,-76.566,-51.307,26.13,37.956
13734.0,-80.566,-54.307,26.13,37.956
13744.0,-83.566,-56.307,26.13,37.956
13754.0,-87.566,-57.307,26.13,38.956
13764.0,-89.566,-57.307,26.13,36.956
13774.0,-91.566,-59.307,24.13,36.956
13784.0,-91.566,-56.307,22.13,35.956
13794.0,-88.566,-54.307,21.13,34.956
13804.0,-83.566,-51.307,20.13,33.956
13813.0,-81.566,-50.307,20.13,35.956
13823.0,-79.566,-54.307,19.13,33.956
13833.0,-75.566,-57.307,19.13,35.956
13843.0,-73.566,-62.307,18.13,33.956
13853.0,-69.566,-63.307,17.13,33.956
13863.0,-68.566,-66.307,17.13,31.956
13873.0,-67.566,-69.307,17.13,32.956
13883.0,-68.566,-70.307,19.13,31.956
13893.0,-69.566,-71.307,19.13,32.956
13902.0,-66.566,-71.307,20.13,32.956
13912.0,-65.566,-69.307,21.13,32.956
13922.0,-63.566,-69.307,23.13,33.956
13932.0,-64.566,-70.307,27.13,34.956
13942.0,-64.566,-70.307,27.13,33.956
13952.0,-65.566,-70.307,27.13,34.956
13962.0,-65.566,-70.307,30.13,34.956
13972.0,-66.566,-71.307,31.13,35.956
13982.0,-66.566,-71.307,32.13,34.956
13991.0,-68.566,-69.307,32.13,34.956
14001.0,-68.566,-69.307,34.13,35.956
14011.0,-71.566,-70.307,34.13,35.956
14021.0,-71.566,-70.307,33.13,34.956
14031.0,-67.566,-68.307,33.13,34.956
14041.0,-67.566,-68.307,30.13,34.956
14051.0,-66.566,-68.307,30.13,34.956
14061.0,-66.566,-68.307,32.13,33.956
14070.0,-71.566,-71.307,32.13,33.956
14080.0,-71.566,-71.307,29.13,33.956
14090.0,-77.566,-75.307,29.13,33.956
14100.0,-77.566,-75.307,29.13,34.956
14110.0,-78.566,-76.307,29.13,34.956
14120.0,-81.566,-75.307,28.13,34.956
14130.0,-83.566,-78.307,28.13,34.956
14140.0,-84.566,-78.307,27.13,32.956
14150.0,-84.566,-78.307,27.13,32.956
14159.0,-87.566,-79.307,28.13,33.956
14169.0,-90.566,-80.307,28.13,33.956
14179.0,-91.566,-81.307,25.13,31.956
14189.0,-96.566,-84.307,25.13,31.956
14199.0,-100.57,-85.307,24.13,30.956
14209.0,-102.57,-87.307,24.13,30.956
14219.0,-104.57,-88.307,21.13,29.956
14229.0,-108.57,-89.307,21.13,29.956
14239.0,-109.57,-89.307,21.13,28.956
14248.0,-110.57,-90.307,19.13,30.956
14258.0,-112.57,-92.307,21.13,30.956
14268.0,-116.57,-93.307,20.13,30.956
14278.0,-116.57,-93.307,22.13,30.956
14288.0,-118.57,-93.307,20.13,29.956
14298.0,-122.57,-95.307,18.13,28.956
14308.0,-125.57,-97.307,17.13,28.956
14318.0,-129.57,-100.31,16.13,27.956
14328.0,-131.57,-97.307,16.13,27.956
14337.0,-125.57,-96.307,12.13,26.956
14347.0,-120.57,-89.307,12.13,26.956
14357.0,-117.57,-86.307,14.13,25.956
14367.0,-113.57,-86.307,13.13,25.956
14377.0,-109.57,-88.307,13.13,25.956
14387.0,-103.57,-90.307,12.13,25.956
14397.0,-97.566,-91.307,9.1299,24.956
14407.0,-90.566,-92.307,8.1299,21.956
14416.0,-88.566,-93.307,5.1299,21.956
14426.0,-87.566,-92.307,4.1299,20.956
14436.0,-82.566,-91.307,6.1299,21.956
14446.0,-78.566,-88.307,8.1299,21.956
14456.0,-76.566,-87.307,10.13,21.956
14466.0,-73.566,-87.307,13.13,23.956
14476.0,-71.566,-85.307,14.13,23.956
14486.0,-69.566,-83.307,16.13,24.956
14496.0,-65.566,-81.307,17.13,25.956
14505.0,-64.566,-79.307,17.13,24.956
14515.0,-62.566,-76.307,17.13,23.956
14525.0,-61.566,-73.307,19.13,23.956
14535.0,-58.566,-72.307,17.13,22.956
14545.0,-58.566,-69.307,19.13,22.956
14555.0,-58.566,-69.307,18.13,22.956
14565.0,-57.566,-68.307,18.13,20.956
14575.0,-56.566,-66.307,17.13,20.956
14585.0,-56.566,-66.307,18.13,21.956
14594.0,-57.566,-66.307,17.13,21.956
14604.0,-59.566,-67.307,15.13,20.956
14614.0,-57.566,-67.307,18.13,20.956
14624.0,-58.566,-66.307,15.13,19.956
14634.0,-59.566,-66.307,15.13,20.956
14644.0,-59.566,-65.307,15.13,20.956
14654.0,-55.566,-63.307,15.13,20.956
14664.0,-55.566,-62.307,14.13,19.956
14674.0,-53.566,-58.307,13.13,19.956
14683.0,-51.566,-56.307,13.13,19.956
14693.0,-50.566,-55.307,12.13,18.956
14703.0,-51.566,-54.307,11.13,19.956
14713.0,-48.566,-51.307,14.13,18.956
14723.0,-48.566,-50.307,12.13,19.956
14733.0,-47.566,-48.307,10.13,19.956
14743.0,-44.566,-47.307,10.13,17.956
14753.0,-45.566,-46.307,9.1299,18.956
14762.0,-45.566,-44.307,8.1299,17.956
14772.0,-46.566,-42.307,7.1299,17.956
14782.0,-46.566,-42.307,8.1299,18.956
14792.0,-46.566,-41.307,8.1299,17.956
14802.0,-46.566,-40.307,7.1299,18.956
14812.0,-46.566,-40.307,11.13,17.956
14822.0,-45.566,-37.307,8.1299,17.956
14832.0,-45.566,-37.307,8.1299,16.956
14842.0,-44.566,-33.307,6.1299,16.956
14851.0,-44.566,-33.307,5.1299,16.956
14861.0,-45.566,-32.307,4.1299,16.956
14871.0,-45.566,-32.307,4.1299,16.956
14881.0,-43.566,-26.307,2.1299,15.956
14891.0,-43.566,-26.307,1.1299,15.956
14901.0,-36.566,-21.307,1.1299,14.956
14911.0,-36.566,-21.307,1.1299,13.956
14921.0,-24.566,-18.307,0.12991,14.956
14931.0,-24.566,-18.307,-2.8701,12.956
14940.0,-11.566,-20.307,-2.8701,14.956
14950.0,-11.566,-20.307,-2.8701,13.956
14960.0,-5.5658,-20.307,-2.8701,11.956
14970.0,-5.5658,-20.307,-3.8701,11.956
14980.0,-0.56584,-18.307,-2.8701,11.956
14990.0,3.4342,-18.307,-2.8701,11.956
15000.0,5.4342,-14.307,0.12991,12.956
15010.0,8.4342,-14.307,1.1299,12.956
15020.0,9.4342,-13.307,1.1299,11.956
15029.0,13.434,-10.307,6.1299,12.956
15039.0,15.434,-7.3067,6.1299,12.956
15049.0,14.434,-4.3067,4.1299,11.956
15059.0,19.434,-1.3067,4.1299,11.956
15069.0,19.434,-1.3067,4.1299,10.956
15079.0,21.434,0.69332,6.1299,10.956
15089.0,20.434,2.6933,9.1299,11.956
15099.0,18.434,2.6933,7.1299,11.956
15108.0,20.434,4.6933,7.1299,10.956
15118.0,19.434,4.6933,7.1299,10.956
15128.0,19.434,5.6933,8.1299,11.956
15138.0,19.434,4.6933,8.1299,11.956
15148.0,19.434,4.6933,4.1299,10.956
15158.0,17.434,5.6933,4.1299,10.956
15168.0,15.434,3.6933,3.1299,9.9564
15178.0,14.434,3.6933,3.1299,9.9564
15188.0,14.434,2.6933,1.1299,7.9564
15197.0,12.434,2.6933,1.1299,7.9564
15207.0,12.434,3.6933,3.1299,9.9564
15217.0,10.434,2.6933,3.1299,9.9564
15227.0,9.4342,4.6933,1.1299,8.9564
15237.0,7.4342,4.6933,1.1299,8.9564
15247.0,6.4342,4.6933,-2.8701,6.9564
15257.0,4.4342,5.6933,-2.8701,6.9564
15267.0,4.4342,4.6933,-4.8701,6.9564
15277.0,6.4342,5.6933,-4.8701,6.9564
15286.0,3.4342,4.6933,-5.8701,4.9564
15296.0,0.43416,5.6933,-5.8701,4.9564
15306.0,3.4342,6.6933,-6.8701,4.9564
15316.0,1.4342,6.6933,-6.8701,4.9564
15326.0,-0.56584,7.6933,-5.8701,4.9564
15336.0,-0.56584,7.6933,-7.8701,3.9564
15346.0,-2.5658,7.6933,-7.8701,3.9564
15356.0,-3.5658,8.6933,-8.8701,3.9564
15366.0,-4.5658,8.6933,-10.87,3.9564
15375.0,-6.5658,8.6933,-9.8701,2.9564
15385.0,-9.5658,7.6933,-9.8701,3.9564
15395.0,-9.5658,7.6933,-9.8701,2.9564
15405.0,-11.566,7.6933,-9.8701,1.9564
15415.0,-11.566,8.6933,-11.87,1.9564
15425.0,-14.566,10.693,-11.87,2.9564
15435.0,-13.566,10.693,-12.87,1.9564
15445.0,-11.566,13.693,-12.87,2.9564
15454.0,-8.5658,14.693,-12.87,2.9564
15464.0,-1.5658,12.693,-12.87,1.9564
15474.0,3.4342,11.693,-13.87,0.95643
15484.0,9.4342,11.693,-16.87,0.95643
15494.0,13.434,10.693,-14.87,-1.0436
15504.0,19.434,11.693,-16.87,-0.043567
15514.0,23.434,12.693,-15.87,0.95643
15524.0,26.434,14.693,-13.87,0.95643
15534.0,32.434,15.693,-13.87,-0.043567
15543.0,34.434,18.693,-10.87,0.95643
15553.0,37.434,21.693,-9.8701,1.9564
15563.0,39.434,21.693,-9.8701,0.95643
15573.0,38.434,23.693,-9.8701,0.95643
15583.0,39.434,22.693,-6.8701,-0.043567
15593.0,41.434,24.693,-3.8701,2.9564
15603.0,36.434,24.693,-3.8701,1.9564
15613.0,39.434,26.693,-1.8701,3.9564
15623.0,38.434,28.693,0.12991,3.9564
15632.0,39.434,29.693,1.1299,5.9564
15642.0,40.434,30.693,0.12991,3.9564
15652.0,40.434,31.693,1.1299,6.9564
15662.0,43.434,33.693,1.1299,4.9564
15672.0,46.434,34.693,1.1299,3.9564
15682.0,46.434,34.693,-0.87009,3.9564
15692.0,45.434,35.693,-1.8701,2.9564
15702.0,45.434,35.693,-0.87009,2.9564
15712.0,45.434,34.693,-1.8701,2.9564
15721.0,45.434,34.693,-0.87009,2.9564
15731.0,45.434,36.693,-0.87009,3.9564
15741.0,45.434,36.693,-0.87009,2.9564
15751.0,44.434,36.693,-2.8701,3.9564
15761.0,44.434,36.693,-0.87009,3.9564
15771.0,42.434,37.693,-2.8701,3.9564
15781.0,42.434,37.693,-3.8701,2.9564
15791.0,39.434,36.693,-2.8701,2.9564
15800.0,39.434,36.693,-3.8701,2.9564
15810.0,37.434,36.693,-4.8701,2.9564
15820.0,37.434,36.693,-3.8701,3.9564
15830.0,31.434,34.693,-2.8701,3.9564
15840.0,31.434,34.693,-3.8701,2.9564
15850.0,30.434,33.693,-3.8701,4.9564
15860.0,29.434,32.693,-3.8701,3.9564
15870.0,25.434,31.693,-3.8701,4.9564
15880.0,23.434,30.693,-3.8701,4.9564
15889.0,22.434,31.693,-3.8701,3.9564
15899.0,19.434,30.693,-5.8701,3.9564
15909.0,16.434,29.693,-4.8701,1.9564
15919.0,14.434,28.693,-6.8701,2.9564
15929.0,13.434,28.693,-4.8701,2.9564
15939.0,11.434,29.693,-6.8701,2.9564
15949.0,11.434,28.693,-8.8701,1.9564
15959.0,9.4342,28.693,-8.8701,2.9564
15969.0,7.4342,29.693,-7.8701,0.95643
15978.0,8.4342,30.693,-9.8701,0.95643
15988.0,11.434,33.693,-8.8701,0.95643
15998.0,14.434,33.693,-9.8701,-0.043567
16008.0,19.434,32.693,-11.87,1.9564
16018.0,26.434,32.693,-11.87,-0.043567
16028.0,32.434,29.693,-11.87,0.95643
16038.0,35.434,28.693,-9.8701,0.95643
16048.0,35.434,27.693,-9.8701,0.95643
16058.0,39.434,25.693,-9.8701,2.9564
16067.0,41.434,27.693,-8.8701,1.9564
16077.0,43.434,29.693,-5.8701,0.95643
16087.0,45.434,28.693,-2.8701,1.9564
16097.0,46.434,28.693,-2.8701,3.9564
16107.0,48.434,30.693,0.12991,3.9564
16117.0,51.434,31.693,1.1299,3.9564
16127.0,54.434,32.693,3.1299,3.9564
16137.0,54.434,34.693,5.1299,4.9564
16146.0,55.434,34.693,6.1299,5.9564
16156.0,55.434,36.693,6.1299,5.9564
16166.0,54.434,38.693,6.1299,5.9564
16176.0,56.434,39.693,6.1299,5.9564
16186.0,56.434,39.693,9.1299,7.9564
16196.0,56.434,39.693,11.13,7.9564
16206.0,54.434,39.693,11.13,7.9564
16216.0,53.434,38.693,12.13,8.9564
16226.0,53.434,38.693,12.13,8.9564
16235.0,52.434,37.693,12.13,8.9564
16245.0,49.434,36.693,12.13,8.9564
16255.0,49.434,36.693,10.13,8.9564
16265.0,48.434,34.693,10.13,8.9564
16275.0,46.434,34.693,11.13,9.9564
16285.0,45.434,35.693,11.13,9.9564
16295.0,46.434,35.693,10.13,9.9564
16305.0,45.434,33.693,10.13,9.9564
16315.0,43.434,33.693,11.13,10.956
16324.0,42.434,34.693,11.13,10.956
16334.0,43.434,34.693,10.13,11.956
16344.0,41.434,35.693,10.13,11.956
16354.0,40.434,35.693,11.13,11.956
16364.0,38.434,33.693,11.13,11.956
16374.0,37.434,34.693,10.13,10.956
16384.0,37.434,33.693,10.13,10.956
16394.0,34.434,34.693,11.13,11.956
16404.0,32.434,31.693,11.13,11.956
16413.0,31.434,33.693,10.13,11.956
16423.0,30.434,32.693,11.13,10.956
16433.0,26.434,30.693,10.13,10.956
16443.0,24.434,29.693,8.1299,9.9564
16453.0,21.434,30.693,7.1299,10.956
16463.0,20.434,28.693,8.1299,8.9564
16473.0,17.434,27.693,7.1299,10.956
16483.0,14.434,27.693,8.1299,10.956
16492.0,13.434,26.693,8.1299,10.956
16502.0,11.434,27.693,8.1299,10.956
16512.0,10.434,27.693,6.1299,9.9564
16522.0,12.434,28.693,5.1299,9.9564
16532.0,13.434,27.693,6.1299,10.956
16542.0,18.434,25.693,6.1299,11.956
16552.0,18.434,25.693,5.1299,10.956
16562.0,24.434,20.693,3.1299,9.9564
16572.0,24.434,20.693,4.1299,10.956
16581.0,27.434,14.693,4.1299,10.956
16591.0,27.434,14.693,3.1299,10.956
16601.0,31.434,14.693,3.1299,9.9564
16611.0,31.434,14.693,5.1299,10.956
16621.0,34.434,13.693,6.1299,9.9564
16631.0,34.434,13.693,8.1299,11.956
16641.0,35.434,13.693,13.13,12.956
16651.0,35.434,13.693,15.13,13.956
16661.0,34.434,13.693,16.13,13.956
16670.0,34.434,13.693,20.13,13.956
16680.0,30.434,10.693,20.13,14.956
16690.0,30.434,10.693,21.13,15.956
16700.0,27.434,11.693,21.13,14.956
16710.0,27.434,11.693,23.13,15.956
16720.0,27.434,11.693,24.13,15.956
16730.0,24.434,10.693,27.13,17.956
16740.0,24.434,11.693,26.13,17.956
16749.0,19.434,7.6933,27.13,17.956
16759.0,19.434,8.6933,25.13,17.956
16769.0,16.434,4.6933,26.13,16.956
16779.0,13.434,4.6933,25.13,17.956
16789.0,11.434,2.6933,27.13,16.956
16799.0,9.4342,2.6933,24.13,17.956
16809.0,6.4342,0.69332,26.13,18.956
16819.0,4.4342,-1.3067,27.13,19.956
16829.0,3.4342,-1.3067,27.13,19.956
16838.0,0.43416,-1.3067,26.13,18.956
16848.0,-0.56584,-2.3067,29.13,20.956
16858.0,-2.5658,-4.3067,29.13,20.956
16868.0,-6.5658,-4.3067,26.13,20.956
16878.0,-9.5658,-7.3067,28.13,21.956
16888.0,-11.566,-9.3067,28.13,20.956
16898.0,-16.566,-9.3067,27.13,20.956
16908.0,-18.566,-9.3067,26.13,20.956
16918.0,-20.566,-10.307,27.13,19.956
16927.0,-22.566,-10.307,27.13,20.956
16937.0,-24.566,-12.307,25.13,20.956
16947.0,-25.566,-12.307,27.13,20.956
16957.0,-28.566,-13.307,26.13,19.956
16967.0,-31.566,-14.307,27.13,20.956
16977.0,-34.566,-15.307,27.13,21.956
16987.0,-37.566,-17.307,27.13,21.956
16997.0,-39.566,-18.307,28.13,22.956
17007.0,-43.566,-20.307,30.13,22.956
17016.0,-47.566,-19.307,29.13,23.956
17026.0,-52.566,-21.307,30.13,22.956
17036.0,-56.566,-24.307,28.13,23.956
17046.0,-59.566,-27.307,28.13,23.956
17056.0,-61.566,-25.307,30.13,22.956
17066.0,-57.566,-23.307,26.13,21.956
17076.0,-56.566,-21.307,25.13,22.956
17086.0,-51.566,-23.307,26.13,22.956
17095.0,-49.566,-23.307,26.13,22.956
17105.0,-46.566,-26.307,26.13,22.956
17115.0,-41.566,-28.307,25.13,22.956
17125.0,-39.566,-31.307,24.13,23.956
17135.0,-39.566,-34.307,26.13,23.956
17145.0,-37.566,-34.307,28.13,23.956
17155.0,-37.566,-32.307,27.13,23.956
17165.0,-35.566,-32.307,29.13,22.956
17175.0,-34.566,-33.307,32.13,24.956
17184.0,-32.566,-32.307,36.13,24.956
17194.0,-34.566,-33.307,35.13,25.956
17204.0,-35.566,-34.307,38.13,26.956
17214.0,-36.566,-34.307,40.13,26.956
17224.0,-36.566,-34.307,46.13,28.956
17234.0,-35.566,-34.307,43.13,29.956
17244.0,-36.566,-31.307,45.13,29.956
17254.0,-33.566,-31.307,46.13,28.956
17264.0,-36.566,-29.307,47.13,30.956
17273.0,-38.566,-30.307,49.13,31.956
17283.0,-40.566,-31.307,48.13,30.956
17293.0,-41.566,-32.307,48.13,30.956
17303.0,-42.566,-33.307,49.13,31.956
17313.0,-44.566,-34.307,49.13,31.956
17323.0,-47.566,-36.307,48.13,30.956
17333.0,-48.566,-38.307,48.13,30.956
17343.0,-50.566,-38.307,48.13,31.956
17353.0,-54.566,-40.307,48.13,31.956
17362.0,-56.566,-42.307,48.13,31.956
17372.0,-60.566,-43.307,48.13,31.956
17382.0,-61.566,-46.307,47.13,29.956
17392.0,-63.566,-45.307,47.13,29.956
17402.0,-63.566,-45.307,45.13,30.956
17412.0,-69.566,-48.307,45.13,30.956
17422.0,-69.566,-48.307,45.13,30.956
17432.0,-74.566,-49.307,45.13,30.956
17441.0,-74.566,-49.307,45.13,29.956
17451.0,-79.566,-52.307,45.13,29.956
17461.0,-79.566,-52.307,44.13,29.956
17471.0,-85.566,-56.307,44.13,29.956
17481.0,-85.566,-56.307,42.13,28.956
17491.0,-91.566,-56.307,42.13,28.956
17501.0,-91.566,-56.307,43.13,28.956
17511.0,-95.566,-59.307,44.13,30.956
17521.0,-95.566,-59.307,41.13,28.956
17530.0,-99.566,-61.307,42.13,27.956
17540.0,-99.566,-61.307,41.13,27.956
17550.0,-103.57,-64.307,41.13,26.956
17560.0,-103.57,-64.307,39.13,28.956
17570.0,-108.57,-64.307,41.13,27.956
17580.0,-109.57,-64.307,41.13,28.956
17590.0,-111.57,-65.307,38.13,27.956
17600.0,-114.57,-67.307,37.13,25.956
17610.0,-114.57,-64.307,37.13,26.956
17619.0,-111.57,-61.307,38.13,26.956
17629.0,-106.57,-58.307,39.13,26.956
17639.0,-100.57,-57.307,39.13,26.956
17649.0,-96.566,-60.307,39.13,27.956
17659.0,-90.566,-62.307,36.13,25.956
17669.0,-87.566,-60.307,34.13,24.956
17679.0,-83.566,-64.307,32.13,23.956
17689.0,-83.566,-66.307,31.13,23.956
17699.0,-82.566,-66.307,31.13,22.956
17708.0,-81.566,-67.307,35.13,22.956
17718.0,-79.566,-66.307,34.13,22.956
17728.0,-80.566,-67.307,39.13,24.956
17738.0,-78.566,-67.307,41.13,24.956
17748.0,-78.566,-68.307,41.13,24.956
17758.0,-79.566,-67.307,43.13,24.956
17768.0,-80.566,-69.307,44.13,25.956
17778.0,-80.566,-68.307,44.13,25.956
17787.0,-80.566,-69.307,46.13,26.956
17797.0,-83.566,-69.307,47.13,27.956
17807.0,-85.566,-68.307,49.13,27.956
17817.0,-85.566,-68.307,49.13,27.956
17827.0,-85.566,-68.307,50.13,27.956
17837.0,-86.566,-68.307,49.13,28.956
17847.0,-87.566,-68.307,51.13,27.956
17857.0,-89.566,-68.307,50.13,26.956
17867.0,-89.566,-71.307,50.13,27.956
17876.0,-93.566,-71.307,49.13,25.956
17886.0,-94.566,-74.307,47.13,26.956
17896.0,-97.566,-75.307,49.13,26.956
17906.0,-102.57,-76.307,48.13,26.956
17916.0,-104.57,-78.307,49.13,26.956
17926.0,-102.57,-78.307,48.13,26.956
17936.0,-102.57,-78.307,47.13,26.956
17946.0,-102.57,-76.307,46.13,25.956
17956.0,-104.57,-77.307,46.13,26.956
17965.0,-105.57,-76.307,47.13,26.956
17975.0,-107.57,-77.307,44.13,25.956
17985.0,-108.57,-76.307,46.13,24.956
17995.0,-108.57,-76.307,45.13,24.956
18005.0,-108.57,-76.307,43.13,23.956
18015.0,-110.57,-77.307,42.13,23.956
18025.0,-111.57,-75.307,43.13,23.956
18035.0,-110.57,-74.307,43.13,21.956
18045.0,-111.57,-73.307,41.13,23.956
18054.0,-111.57,-73.307,38.13,22.956
18064.0,-113.57,-72.307,38.13,20.956
18074.0,-113.57,-72.307,39.13,21.956
18084.0,-113.57,-73.307,40.13,20.956
18094.0,-114.57,-71.307,38.13,19.956
18104.0,-112.57,-70.307,37.13,21.956
18114.0,-111.57,-69.307,39.13,20.956
18124.0,-112.57,-67.307,37.13,20.956
18133.0,-110.57,-65.307,37.13,19.956
18143.0,-110.57,-62.307,34.13,18.956
18153.0,-106.57,-59.307,32.13,17.956
18163.0,-103.57,-55.307,33.13,17.956
18173.0,-97.566,-52.307,32.13,17.956
18183.0,-92.566,-49.307,31.13,19.956
18193.0,-87.566,-49.307,29.13,16.956
18203.0,-80.566,-49.307,27.13,16.956
18213.0,-70.566,-47.307,27.13,15.956
18222.0,-64.566,-46.307,28.13,14.956
18232.0,-61.566,-45.307,27.13,14.956
18242.0,-55.566,-43.307,26.13,14.956
18252.0,-55.566,-43.307,30.13,14.956
18262.0,-45.566,-37.307,30.13,14.956
18272.0,-45.566,-37.307,32.13,16.956
18282.0,-39.566,-32.307,33.13,16.956
18292.0,-39.566,-32.307,36.13,16.956
18302.0,-32.566,-28.307,36.13,17.956
18311.0,-32.566,-28.307,38.13,17.956
18321.0,-26.566,-22.307,41.13,16.956
18331.0,-26.566,-22.307,39.13,18.956
18341.0,-20.566,-14.307,39.13,18.956
18351.0,-20.566,-14.307,42.13,17.956
18361.0,-16.566,-9.3067,42.13,17.956
18371.0,-16.566,-9.3067,43.13,18.956
18381.0,-14.566,-8.3067,43.13,18.956
18391.0,-14.566,-8.3067,46.13,18.956
18400.0,-13.566,-5.3067,46.13,18.956
18410.0,-13.566,-5.3067,43.13,18.956
18420.0,-10.566,-4.3067,43.13,18.956
18430.0,-10.566,-3.3067,42.13,18.956
18440.0,-9.5658,-0.30668,42.13,18.956
18450.0,-10.566,-3.3067,40.13,17.956
18460.0,-10.566,-2.3067,40.13,17.956
18470.0,-9.5658,-1.3067,39.13,16.956
18479.0,-9.5658,0.69332,39.13,16.956
18489.0,-8.5658,1.6933,38.13,18.956
18499.0,-8.5658,2.6933,38.13,18.956
18509.0,-10.566,1.6933,39.13,16.956
18519.0,-9.5658,3.6933,39.13,16.956
18529.0,-9.5658,4.6933,36.13,15.956
18539.0,-9.5658,5.6933,36.13,15.956
18549.0,-9.5658,7.6933,37.13,15.956
18559.0,-7.5658,7.6933,37.13,15.956
18568.0,-10.566,8.6933,35.13,14.956
18578.0,-9.5658,9.6933,36.13,14.956
18588.0,-8.5658,10.693,35.13,14.956
18598.0,-9.5658,12.693,33.13,13.956
18608.0,-8.5658,11.693,33.13,13.956
18618.0,-10.566,12.693,32.13,13.956
18628.0,-11.566,12.693,32.13,14.956
18638.0,-11.566,12.693,33.13,15.956
18648.0,-14.566,12.693,36.13,14.956
18657.0,-14.566,12.693,33.13,13.956
18667.0,-15.566,14.693,33.13,15.956
18677.0,-18.566,14.693,33.13,14.956
18687.0,-17.566,14.693,32.13,12.956
18697.0,-19.566,15.693,31.13,13.956
18707.0,-20.566,15.693,29.13,12.956
18717.0,-19.566,18.693,28.13,12.956
18727.0,-16.566,20.693,28.13,12.956
18737.0,-11.566,22.693,28.13,12.956
18746.0,-4.5658,24.693,28.13,11.956
18756.0,1.4342,23.693,27.13,11.956
18766.0,7.4342,20.693,24.13,9.9564
18776.0,12.434,20.693,23.13,9.9564
18786.0,16.434,21.693,22.13,9.9564
18796.0,18.434,20.693,23.13,9.9564
18806.0,23.434,22.693,23.13,8.9564
18816.0,25.434,24.693,26.13,8.9564
18825.0,28.434,25.693,28.13,12.956
18835.0,30.434,26.693,29.13,10.956
18845.0,34.434,30.693,30.13,11.956
18855.0,35.434,31.693,31.13,10.956
18865.0,35.434,31.693,31.13,11.956
18875.0,36.434,32.693,33.13,10.956
18885.0,37.434,33.693,32.13,10.956
18895.0,34.434,34.693,33.13,11.956
18905.0,35.434,35.693,35.13,11.956
18914.0,36.434,35.693,35.13,11.956
18924.0,36.434,36.693,35.13,11.956
18934.0,36.434,37.693,35.13,12.956
18944.0,36.434,38.693,37.13,13.956
18954.0,37.434,37.693,37.13,13.956
18964.0,36.434,38.693,36.13,12.956
18974.0,37.434,38.693,35.13,11.956
18984.0,38.434,38.693,35.13,10.956
18994.0,37.434,38.693,35.13,11.956
19003.0,38.434,39.693,34.13,12.956
19013.0,37.434,38.693,34.13,11.956
19023.0,38.434,39.693,31.13,10.956
19033.0,35.434,39.693,32.13,10.956
19043.0,34.434,38.693,31.13,10.956
19053.0,33.434,40.693,30.13,10.956
19063.0,36.434,41.693,29.13,9.9564
19073.0,35.434,41.693,29.13,8.9564
19083.0,35.434,41.693,28.13,9.9564
19092.0,36.434,43.693,28.13,10.956
19102.0,34.434,42.693,27.13,9.9564
19112.0,32.434,42.693,31.13,9.9564
19122.0,32.434,42.693,30.13,10.956
19132.0,32.434,44.693,29.13,9.9564
19142.0,32.434,44.693,29.13,8.9564
19152.0,32.434,45.693,26.13,8.9564
19162.0,32.434,45.693,27.13,7.9564
19171.0,34.434,49.693,25.13,8.9564
19181.0,34.434,49.693,25.13,7.9564
19191.0,32.434,48.693,25.13,8.9564
19201.0,32.434,48.693,23.13,9.9564
19211.0,32.434,50.693,25.13,9.9564
19221.0,32.434,50.693,24.13,7.9564
19231.0,31.434,51.693,23.13,7.9564
19241.0,31.434,51.693,23.13,7.9564
19251.0,29.434,51.693,22.13,5.9564
19260.0,29.434,51.693,19.13,6.9564
19270.0,34.434,55.693,22.13,5.9564
19280.0,34.434,55.693,20.13,6.9564
19290.0,39.434,55.693,20.13,5.9564
19300.0,44.434,52.693,19.13,6.9564
19310.0,47.434,49.693,18.13,4.9564
19320.0,52.434,46.693,18.13,3.9564
19330.0,56.434,47.693,16.13,3.9564
19340.0,61.434,46.693,19.13,5.9564
19349.0,65.434,48.693,21.13,5.9564
19359.0,70.434,51.693,20.13,5.9564
19369.0,73.434,50.693,24.13,6.9564
19379.0,75.434,52.693,26.13,6.9564
19389.0,78.434,54.693,27.13,7.9564
19399.0,80.434,54.693,28.13,6.9564
19409.0,82.434,57.693,28.13,6.9564
19419.0,82.434,56.693,28.13,8.9564
19429.0,84.434,58.693,28.13,8.9564
19438.0,84.434,59.693,33.13,8.9564
19448.0,84.434,59.693,33.13,8.9564
19458.0,83.434,60.693,34.13,9.9564
19468.0,85.434,60.693,34.13,9.9564
19478.0,85.434,61.693,34.13,8.9564
19488.0,86.434,61.693,34.13,8.9564
19498.0,87.434,62.693,34.13,9.9564
19508.0,86.434,63.693,34.13,9.9564
19517.0,88.434,62.693,32.13,9.9564
19527.0,89.434,63.693,32.13,9.9564
19537.0,88.434,61.693,30.13,8.9564
19547.0,87.434,61.693,30.13,8.9564
19557.0,86.434,62.693,28.13,6.9564
19567.0,87.434,60.693,28.13,6.9564
19577.0,86.434,60.693,28.13,7.9564
19587.0,86.434,62.693,28.13,7.9564
19597.0,86.434,61.693,27.13,7.9564
19606.0,84.434,61.693,27.13,7.9564
19616.0,85.434,63.693,28.13,6.9564
19626.0,84.434,61.693,28.13,6.9564
19636.0,83.434,61.693,27.13,6.9564
19646.0,82.434,62.693,25.13,7.9564
19656.0,79.434,60.693,25.13,6.9564
19666.0,80.434,62.693,28.13,6.9564
19676.0,81.434,62.693,27.13,7.9564
19686.0,79.434,62.693,26.13,6.9564
19695.0,77.434,61.693,24.13,4.9564
19705.0,73.434,61.693,22.13,5.9564
19715.0,75.434,59.693,24.13,6.9564
19725.0,75.434,60.693,23.13,5.9564
19735.0,72.434,60.693,24.13,6.9564
19745.0,69.434,59.693,26.13,7.9564
19755.0,67.434,58.693,25.13,7.9564
19765.0,66.434,58.693,24.13,6.9564
19775.0,65.434,58.693,26.13,6.9564
19784.0,66.434,59.693,24.13,6.9564
19794.0,64.434,59.693,22.13,6.9564
19804.0,63.434,61.693,21.13,5.9564
19814.0,68.434,61.693,22.13,6.9564
19824.0,73.434,61.693,23.13,6.9564
19834.0,80.434,61.693,21.13,6.9564
19844.0,84.434,60.693,21.13,4.9564
19854.0,90.434,60.693,19.13,3.9564
19863.0,96.434,58.693,17.13,4.9564
19873.0,98.434,58.693,18.13,3.9564
19883.0,103.43,59.693,17.13,4.9564
19893.0,107.43,60.693,19.13,3.9564
19903.0,114.43,61.693,21.13,4.9564
19913.0,113.43,62.693,23.13,5.9564
19923.0,117.43,63.693,25.13,6.9564
19933.0,118.43,64.693,27.13,6.9564
19943.0,122.43,65.693,28.13,6.9564
19952.0,125.43,67.693,29.13,9.9564
19962.0,123.43,67.693,30.13,8.9564
19972.0,123.43,67.693,32.13,9.9564
19982.0,125.43,70.693,35.13,9.9564
19992.0,125.43,70.693,36.13,9.9564
20002.0,124.43,70.693,34.13,10.956
20012.0,124.43,70.693,34.13,10.956
20022.0,124.43,71.693,36.13,9.9564
20032.0,124.43,71.693,36.13,9.9564
20041.0,122.43,69.693,36.13,10.956
20051.0,122.43,69.693,35.13,10.956
20061.0,120.43,67.693,33.13,9.9564
20071.0,120.43,67.693,34.13,9.9564
20081.0,116.43,64.693,35.13,8.9564
20091.0,116.43,64.693,33.13,10.956
20101.0,108.43,60.693,33.13,10.956
20111.0,108.43,60.693,35.13,11.956
20121.0,100.43,55.693,34.13,10.956
20130.0,100.43,55.693,35.13,10.956
20140.0,98.434,52.693,33.13,10.956
20150.0,95.434,51.693,35.13,11.956
20160.0,92.434,50.693,33.13,10.956
20170.0,90.434,48.693,33.13,10.956
20180.0,88.434,49.693,32.13,9.9564
20190.0,86.434,47.693,32.13,10.956
20200.0,83.434,47.693,30.13,8.9564
20209.0,80.434,46.693,33.13,9.9564
20219.0,79.434,45.693,29.13,9.9564
20229.0,77.434,46.693,31.13,10.956
20239.0,75.434,44.693,31.13,10.956
20249.0,70.434,43.693,31.13,10.956
20259.0,68.434,42.693,28.13,10.956
20269.0,67.434,40.693,29.13,10.956
20279.0,60.434,38.693,31.13,10.956
20289.0,58.434,38.693,29.13,9.9564
20298.0,56.434,36.693,29.13,10.956
20308.0,52.434,34.693,29.13,10.956
20318.0,49.434,33.693,29.13,9.9564
20328.0,48.434,34.693,28.13,10.956
20338.0,47.434,34.693,26.13,9.9564
20348.0,48.434,37.693,26.13,10.956
20358.0,51.434,38.693,26.13,10.956
20368.0,54.434,38.693,26.13,9.9564
20378.0,59.434,37.693,27.13,10.956
20387.0,63.434,35.693,25.13,9.9564
20397.0,69.434,34.693,25.13,8.9564
20407.0,74.434,33.693,23.13,9.9564
20417.0,78.434,33.693,23.13,8.9564
20427.0,81.434,33.693,22.13,7.9564
20437.0,85.434,35.693,24.13,8.9564
20447.0,88.434,35.693,26.13,8.9564
20457.0,89.434,36.693,26.13,8.9564
20467.0,92.434,36.693,34.13,11.956
20476.0,92.434,37.693,34.13,11.956
20486.0,91.434,35.693,36.13,12.956
20496.0,92.434,36.693,36.13,12.956
20506.0,91.434,35.693,38.13,12.956
20516.0,90.434,36.693,38.13,12.956
20526.0,92.434,37.693,39.13,13.956
20536.0,91.434,38.693,39.13,13.956
20546.0,90.434,39.693,41.13,13.956
20555.0,87.434,38.693,41.13,13.956
20565.0,85.434,37.693,43.13,13.956
20575.0,84.434,37.693,43.13,13.956
20585.0,83.434,36.693,42.13,13.956
20595.0,80.434,33.693,42.13,13.956
20605.0,78.434,32.693,41.13,13.956
20615.0,77.434,31.693,41.13,13.956
20625.0,74.434,30.693,43.13,13.956
20635.0,72.434,27.693,43.13,13.956
20644.0,68.434,26.693,40.13,14.956
20654.0,65.434,25.693,40.13,14.956
20664.0,65.434,23.693,39.13,13.956
20674.0,63.434,21.693,39.13,13.956
20684.0,60.434,23.693,38.13,12.956
20694.0,58.434,21.693,38.13,12.956
20704.0,55.434,22.693,38.13,12.956
20714.0,53.434,21.693,38.13,10.956
20724.0,49.434,20.693,37.13,12.956
20733.0,47.434,16.693,37.13,12.956
20743.0,43.434,16.693,36.13,12.956
20753.0,40.434,13.693,36.13,11.956
20763.0,37.434,12.693,35.13,12.956
20773.0,31.434,10.693,35.13,12.956
20783.0,26.434,8.6933,35.13,12.956
20793.0,21.434,5.6933,35.13,12.956
20803.0,16.434,2.6933,35.13,11.956
20813.0,12.434,0.69332,37.13,13.956
20822.0,12.434,0.69332,36.13,13.956
20832.0,5.4342,-3.3067,35.13,13.956
20842.0,5.4342,-3.3067,34.13,11.956
20852.0,-0.56584,-4.3067,33.13,11.956
20862.0,-0.56584,-4.3067,32.13,11.956
20872.0,0.43416,-3.3067,31.13,10.956
20882.0,0.43416,-3.3067,32.13,10.956
20892.0,5.4342,4.6933,29.13,9.9564
20901.0,5.4342,4.6933,32.13,10.956
20911.0,13.434,2.6933,31.13,11.956
20921.0,13.434,2.6933,30.13,10.956
20931.0,26.434,1.6933,30.13,12.956
20941.0,26.434,1.6933,27.13,9.9564
20951.0,35.434,-0.30668,26.13,9.9564
20961.0,35.434,-0.30668,26.13,9.9564
20971.0,44.434,3.6933,28.13,9.9564
20981.0,44.434,3.6933,28.13,9.9564
20990.0,46.434,5.6933,30.13,8.9564
21000.0,48.434,4.6933,34.13,10.956
21010.0,48.434,3.6933,35.13,10.956
21020.0,48.434,1.6933,40.13,12.956
21030.0,48.434,2.6933,41.13,13.956
21040.0,49.434,2.6933,42.13,13.956
21050.0,48.434,2.6933,41.13,13.956
21060.0,46.434,1.6933,44.13,14.956
21070.0,44.434,0.69332,44.13,14.956
21079.0,45.434,3.6933,45.13,14.956
21089.0,46.434,5.6933,46.13,14.956
21099.0,47.434,5.6933,46.13,14.956
21109.0,44.434,5.6933,48.13,15.956
21119.0,43.434,5.6933,46.13,15.956
21129.0,44.434,4.6933,50.13,15.956
21139.0,42.434,4.6933,46.13,15.956
21149.0,40.434,3.6933,48.13,14.956
21159.0,39.434,1.6933,47.13,15.956
21168.0,37.434,-0.30668,45.13,14.956
21178.0,35.434,-0.30668,45.13,15.956
21188.0,33.434,-0.30668,48.13,15.956
21198.0,31.434,-1.3067,46.13,15.956
21208.0,29.434,-2.3067,45.13,15.956
21218.0,29.434,-2.3067,44.13,14.956
21228.0,27.434,-3.3067,42.13,13.956
21238.0,25.434,-3.3067,42.13,13.956
21247.0,22.434,-4.3067,42.13,14.956
21257.0,19.434,-5.3067,44.13,14.956
21267.0,16.434,-7.3067,41.13,13.956
21277.0,14.434,-6.3067,43.13,13.956
21287.0,9.4342,-7.3067,41.13,13.956
21297.0,9.4342,-8.3067,40.13,13.956
21307.0,7.4342,-9.3067,41.13,13.956
21317.0,7.4342,-9.3067,41.13,13.956
21327.0,2.4342,-10.307,39.13,13.956
21336.0,1.4342,-10.307,39.13,11.956
21346.0,-0.56584,-12.307,38.13,12.956
21356.0,-1.5658,-13.307,40.13,12.956
21366.0,-4.5658,-12.307,40.13,12.956
21376.0,-5.5658,-12.307,41.13,13.956
21386.0,-9.5658,-14.307,38.13,11.956
21396.0,-10.566,-15.307,38.13,12.956
21406.0,-15.566,-16.307,35.13,10.956
21416.0,-15.566,-15.307,35.13,10.956
21425.0,-17.566,-14.307,35.13,10.956
21435.0,-14.566,-11.307,32.13,9.9564
21445.0,-13.566,-10.307,34.13,10.956
21455.0,-8.5658,-9.3067,33.13,10.956
21465.0,-3.5658,-11.307,33.13,9.9564
21475.0,1.4342,-10.307,32.13,8.9564
21485.0,4.4342,-12.307,29.13,7.9564
21495.0,8.4342,-15.307,29.13,6.9564
21505.0,8.4342,-17.307,29.13,6.9564
21514.0,10.434,-16.307,31.13,7.9564
21524.0,16.434,-16.307,31.13,7.9564
21534.0,18.434,-12.307,32.13,6.9564
21544.0,22.434,-9.3067,32.13,6.9564
21554.0,24.434,-9.3067,35.13,7.9564
21564.0,24.434,-8.3067,35.13,7.9564
21574.0,27.434,-7.3067,38.13,8.9564
21584.0,28.434,-5.3067,38.13,8.9564
21593.0,30.434,-4.3067,43.13,9.9564
21603.0,31.434,-2.3067,43.13,9.9564
21613.0,31.434,-0.30668,42.13,10.956
21623.0,31.434,0.69332,42.13,10.956
21633.0,33.434,2.6933,42.13,9.9564
21643.0,31.434,2.6933,42.13,9.9564
21653.0,34.434,4.6933,43.13,8.9564
21663.0,33.434,5.6933,43.13,8.9564
21673.0,33.434,5.6933,41.13,10.956
21682.0,33.434,5.6933,41.13,10.956
21692.0,33.434,5.6933,43.13,11.956
21702.0,31.434,6.6933,43.13,11.956
21712.0,31.434,6.6933,42.13,9.9564
21722.0,30.434,5.6933,42.13,9.9564
21732.0,30.434,5.6933,41.13,9.9564
21742.0,30.434,6.6933,41.13,9.9564
21752.0,30.434,6.6933,42.13,9.9564
21762.0,30.434,8.6933,39.13,8.9564
21771.0,30.434,8.6933,41.13,7.9564
21781.0,32.434,11.693,40.13,7.9564
21791.0,32.434,11.693,40.13,7.9564
21801.0,30.434,12.693,39.13,6.9564
21811.0,30.434,12.693,38.13,7.9564
21821.0,28.434,13.693,37.13,6.9564
21831.0,28.434,13.693,35.13,6.9564
21841.0,27.434,15.693,36.13,6.9564
21850.0,27.434,15.693,35.13,4.9564
21860.0,27.434,17.693,35.13,4.9564
21870.0,27.434,18.693,34.13,4.9564
21880.0,29.434,20.693,33.13,4.9564
21890.0,26.434,20.693,34.13,4.9564
21900.0,26.434,20.693,34.13,4.9564
21910.0,29.434,22.693,33.13,5.9564
21920.0,26.434,22.693,33.13,4.9564
21930.0,24.434,23.693,32.13,4.9564
21939.0,25.434,24.693,33.13,5.9564
21949.0,25.434,26.693,31.13,4.9564
21959.0,22.434,26.693,29.13,2.9564
21969.0,21.434,26.693,28.13,3.9564
21979.0,19.434,28.693,28.13,2.9564
21989.0,19.434,29.693,27.13,2.9564
21999.0,21.434,31.693,27.13,0.95643
22009.0,29.434,31.693,26.13,0.95643
22019.0,32.434,30.693,26.13,0.95643
22028.0,37.434,30.693,23.13,0.95643
22038.0,43.434,28.693,23.13,0.95643
22048.0,45.434,29.693,22.13,0.95643
22058.0,49.434,29.693,23.13,-0.043567
22068.0,52.434,31.693,22.13,0.95643
22078.0,56.434,32.693,27.13,1.9564
22088.0,59.434,34.693,28.13,0.95643
22098.0,62.434,35.693,28.13,0.95643
22108.0,61.434,36.693,31.13,2.9564
22117.0,63.434,37.693,32.13,1.9564
22127.0,63.434,38.693,34.13,3.9564
22137.0,63.434,37.693,33.13,2.9564
22147.0,61.434,39.693,32.13,3.9564
22157.0,59.434,39.693,35.13,2.9564
22167.0,60.434,42.693,35.13,1.9564
22177.0,60.434,43.693,35.13,2.9564
22187.0,60.434,43.693,36.13,2.9564
22196.0,61.434,43.693,35.13,3.9564
22206.0,60.434,43.693,37.13,3.9564
22216.0,57.434,43.693,36.13,1.9564
22226.0,56.434,44.693,35.13,3.9564
22236.0,55.434,43.693,35.13,3.9564
22246.0,54.434,42.693,33.13,1.9564
22256.0,54.434,41.693,34.13,1.9564
22266.0,53.434,42.693,33.13,1.9564
22276.0,52.434,40.693,31.13,1.9564
22285.0,49.434,40.693,32.13,1.9564
22295.0,49.434,40.693,31.13,0.95643
22305.0,48.434,41.693,30.13,1.9564
22315.0,50.434,43.693,29.13,0.95643
22325.0,49.434,43.693,28.13,0.95643
22335.0,48.434,45.693,30.13,-0.043567
22345.0,48.434,45.693,27.13,0.95643
22355.0,47.434,46.693,29.13,-0.043567
22365.0,45.434,46.693,29.13,0.95643
22374.0,44.434,44.693,27.13,-0.043567
22384.0,43.434,45.693,28.13,-0.043567
22394.0,40.434,45.693,28.13,0.95643
22404.0,39.434,45.693,27.13,-0.043567
22414.0,39.434,45.693,28.13,-0.043567
22424.0,39.434,45.693,29.13,-1.0436
22434.0,36.434,45.693,26.13,-1.0436
22444.0,34.434,45.693,25.13,-1.0436
22454.0,32.434,45.693,26.13,-0.043567
22463.0,30.434,46.693,24.13,-1.0436
22473.0,29.434,46.693,25.13,-0.043567
22483.0,30.434,47.693,26.13,-0.043567
22493.0,28.434,47.693,23.13,-1.0436
22503.0,27.434,48.693,22.13,-1.0436
22513.0,27.434,48.693,22.13,-1.0436
22523.0,27.434,50.693,22.13,-1.0436
22533.0,30.434,51.693,20.13,-1.0436
22542.0,30.434,51.693,21.13,-2.0436
22552.0,36.434,49.693,19.13,-2.0436
22562.0,36.434,49.693,19.13,-3.0436
22572.0,49.434,50.693,19.13,-2.0436
22582.0,49.434,50.693,19.13,-3.0436
22592.0,60.434,51.693,19.13,-3.0436
22602.0,60.434,51.693,21.13,-1.0436
22612.0,69.434,56.693,21.13,-1.0436
22622.0,69.434,56.693,20.13,-2.0436
22631.0,75.434,59.693,20.13,-2.0436
22641.0,75.434,59.693,23.13,-2.0436
22651.0,79.434,62.693,23.13,-2.0436
22661.0,79.434,62.693,29.13,0.95643
22671.0,81.434,64.693,29.13,0.95643
22681.0,81.434,64.693,30.13,-0.043567
22691.0,79.434,66.693,30.13,-0.043567
22701.0,79.434,66.693,33.13,1.9564
22711.0,79.434,66.693,33.13,1.9564
22720.0,79.434,68.693,34.13,2.9564
22730.0,76.434,67.693,34.13,2.9564
22740.0,76.434,67.693,35.13,3.9564
22750.0,76.434,66.693,35.13,3.9564
22760.0,76.434,66.693,35.13,0.95643
22770.0,75.434,66.693,35.13,0.95643
22780.0,76.434,67.693,34.13,3.9564
22790.0,74.434,67.693,34.13,3.9564
22800.0,74.434,67.693,34.13,3.9564
22809.0,73.434,65.693,33.13,3.9564
22819.0,71.434,64.693,33.13,2.9564
22829.0,70.434,63.693,33.13,3.9564
22839.0,65.434,62.693,35.13,2.9564
22849.0,66.434,64.693,31.13,2.9564
22859.0,66.434,62.693,33.13,3.9564
22869.0,64.434,62.693,32.13,2.9564
22879.0,62.434,62.693,32.13,3.9564
22888.0,61.434,63.693,33.13,2.9564
22898.0,57.434,62.693,32.13,3.9564
22908.0,55.434,61.693,31.13,2.9564
22918.0,55.434,59.693,31.13,3.9564
22928.0,53.434,59.693,30.13,3.9564
22938.0,52.434,61.693,32.13,2.9564
22948.0,50.434,60.693,29.13,2.9564
22958.0,51.434,60.693,29.13,2.9564
22968.0,50.434,59.693,28.13,2.9564
22977.0,47.434,59.693,29.13,2.9564
22987.0,46.434,59.693,30.13,2.9564
22997.0,41.434,59.693,29.13,1.9564
23007.0,40.434,58.693,28.13,1.9564
23017.0,38.434,57.693,27.13,1.9564
23027.0,35.434,55.693,26.13,2.9564
23037.0,33.434,55.693,27.13,0.95643
23047.0,30.434,54.693,23.13,0.95643
23057.0,28.434,54.693,26.13,0.95643
23066.0,28.434,56.693,25.13,0.95643
23076.0,31.434,55.693,25.13,-0.043567
23086.0,37.434,57.693,24.13,-0.043567
23096.0,41.434,56.693,23.13,-0.043567
23106.0,47.434,54.693,21.13,-0.043567
23116.0,49.434,53.693,19.13,-1.0436
23126.0,53.434,51.693,18.13,-1.0436
23136.0,54.434,50.693,18.13,-3.0436
23146.0,57.434,51.693,19.13,-3.0436
23155.0,60.434,53.693,20.13,-3.0436
23165.0,63.434,54.693,21.13,-2.0436
23175.0,65.434,54.693,25.13,-1.0436
23185.0,67.434,57.693,26.13,-0.043567
23195.0,68.434,56.693,28.13,-0.043567
23205.0,68.434,59.693,27.13,-1.0436
23215.0,71.434,59.693,28.13,-1.0436
23225.0,72.434,61.693,29.13,-0.043567
23234.0,72.434,61.693,30.13,0.95643
23244.0,72.434,63.693,29.13,-1.0436
23254.0,72.434,64.693,34.13,0.95643
23264.0,69.434,64.693,34.13,1.9564
23274.0,69.434,62.693,35.13,1.9564
23284.0,69.434,63.693,34.13,1.9564
23294.0,66.434,60.693,31.13,0.95643
23304.0,64.434,58.693,33.13,2.9564
23314.0,63.434,60.693,32.13,1.9564
23323.0,62.434,59.693,33.13,0.95643
23333.0,60.434,57.693,32.13,1.9564
23343.0,59.434,55.693,32.13,1.9564
23353.0,57.434,55.693,30.13,0.95643
23363.0,53.434,55.693,30.13,-1.0436
23373.0,54.434,54.693,30.13,0.95643
23383.0,52.434,53.693,30.13,-0.043567
23393.0,52.434,53.693,28.13,-0.043567
23403.0,51.434,53.693,28.13,-0.043567
23412.0,51.434,53.693,26.13,-1.0436
23422.0,49.434,54.693,26.13,-1.0436
23432.0,49.434,54.693,26.13,-1.0436
23442.0,48.434,55.693,26.13,-1.0436
23452.0,48.434,55.693,26.13,-1.0436
23462.0,48.434,55.693,26.13,-2.0436
23472.0,48.434,55.693,23.13,-3.0436
23482.0,43.434,53.693,24.13,-2.0436
23492.0,43.434,53.693,26.13,-1.0436
23501.0,42.434,54.693,24.13,-2.0436
23511.0,42.434,54.693,23.13,-2.0436
23521.0,39.434,53.693,23.13,-1.0436
23531.0,39.434,53.693,23.13,-1.0436
23541.0,34.434,52.693,23.13,-2.0436
23551.0,34.434,52.693,23.13,-3.0436
23561.0,33.434,50.693,22.13,-2.0436
23571.0,30.434,50.693,22.13,-3.0436
23580.0,28.434,48.693,21.13,-3.0436
23590.0,25.434,47.693,21.13,-2.0436
23600.0,24.434,49.693,20.13,-4.0436
23610.0,22.434,47.693,22.13,-1.0436
23620.0,26.434,51.693,20.13,-2.0436
23630.0,32.434,51.693,20.13,-2.0436
23640.0,35.434,47.693,17.13,-5.0436
23650.0,40.434,46.693,19.13,-4.0436
23660.0,45.434,44.693,17.13,-4.0436
23669.0,45.434,42.693,18.13,-3.0436
23679.0,46.434,41.693,19.13,-5.0436
23689.0,49.434,41.693,19.13,-3.0436
23699.0,53.434,43.693,19.13,-3.0436
23709.0,55.434,44.693,22.13,-3.0436
23719.0,57.434,45.693,22.13,-3.0436
23729.0,60.434,46.693,26.13,-0.043567
23739.0,62.434,47.693,26.13,-0.043567
23749.0,62.434,48.693,26.13,-1.0436
23758.0,62.434,45.693,26.13,-1.0436
23768.0,65.434,48.693,30.13,-0.043567
23778.0,62.434,49.693,30.13,-0.043567
23788.0,61.434,49.693,33.13,0.95643
23798.0,60.434,49.693,33.13,0.95643
23808.0,57.434,47.693,33.13,0.95643
23818.0,55.434,45.693,33.13,0.95643
23828.0,55.434,46.693,30.13,0.95643
23838.0,54.434,44.693,30.13,0.95643
23847.0,51.434,43.693,33.13,1.9564
23857.0,51.434,43.693,33.13,1.9564
23867.0,48.434,42.693,35.13,1.9564
23877.0,48.434,41.693,35.13,1.9564
23887.0,47.434,40.693,35.13,1.9564
23897.0,44.434,40.693,35.13,1.9564
23907.0,44.434,40.693,33.13,1.9564
23917.0,42.434,39.693,33.13,1.9564
23926.0,40.434,37.693,34.13,2.9564
23936.0,39.434,39.693,34.13,2.9564
23946.0,37.434,35.693,36.13,2.9564
23956.0,32.434,34.693,35.13,3.9564
23966.0,29.434,34.693,36.13,5.9564
23976.0,27.434,34.693,37.13,4.9564
23986.0,28.434,34.693,36.13,6.9564
23996.0,27.434,33.693,37.13,4.9564
24006.0,23.434,33.693,37.13,5.9564
24015.0,22.434,34.693,36.13,4.9564
24025.0,22.434,34.693,36.13,5.9564
24035.0,21.434,34.693,33.13,5.9564
24045.0,19.434,34.693,36.13,5.9564
24055.0,18.434,33.693,36.13,6.9564
24065.0,15.434,33.693,37.13,7.9564
24075.0,14.434,33.693,37.13,5.9564
24085.0,12.434,32.693,36.13,7.9564
24095.0,10.434,31.693,36.13,8.9564
24104.0,9.4342,31.693,36.13,8.9564
24114.0,7.4342,31.693,34.13,5.9564
24124.0,7.4342,33.693,35.13,6.9564
24134.0,8.4342,36.693,33.13,6.9564
24144.0,10.434,38.693,34.13,6.9564
24154.0,11.434,38.693,36.13,8.9564
24164.0,14.434,36.693,37.13,7.9564
24174.0,17.434,33.693,35.13,7.9564
24184.0,20.434,30.693,33.13,7.9564
24193.0,25.434,28.693,31.13,6.9564
24203.0,28.434,27.693,32.13,5.9564
24213.0,30.434,26.693,31.13,7.9564
24223.0,33.434,28.693,32.13,6.9564
24233.0,34.434,28.693,33.13,7.9564
24243.0,34.434,28.693,35.13,6.9564
24253.0,36.434,28.693,37.13,7.9564
24263.0,36.434,28.693,39.13,7.9564
24272.0,36.434,27.693,39.13,7.9564
24282.0,36.434,27.693,41.13,8.9564
24292.0,37.434,28.693,41.13,9.9564
24302.0,37.434,28.693,45.13,9.9564
24312.0,38.434,30.693,44.13,11.956
24322.0,38.434,30.693,46.13,10.956
24332.0,38.434,34.693,47.13,11.956
24342.0,38.434,34.693,50.13,11.956
24352.0,37.434,32.693,50.13,11.956
24361.0,37.434,32.693,51.13,12.956
24371.0,35.434,33.693,50.13,11.956
24381.0,35.434,33.693,50.13,13.956
24391.0,34.434,32.693,48.13,13.956
24401.0,34.434,32.693,48.13,11.956
24411.0,31.434,30.693,47.13,10.956
24421.0,30.434,30.693,47.13,12.956
24431.0,28.434,29.693,48.13,11.956
24441.0,26.434,27.693,48.13,13.956
24450.0,24.434,27.693,46.13,12.956
24460.0,21.434,24.693,48.13,12.956
24470.0,20.434,25.693,47.13,13.956
24480.0,18.434,23.693,46.13,12.956
24490.0,16.434,22.693,45.13,11.956
24500.0,15.434,23.693,46.13,11.956
24510.0,13.434,22.693,47.13,11.956
24520.0,10.434,22.693,45.13,11.956
24530.0,8.4342,21.693,45.13,11.956
24539.0,5.4342,19.693,43.13,10.956
24549.0,4.4342,19.693,44.13,9.9564
24559.0,3.4342,18.693,44.13,10.956
24569.0,-1.5658,17.693,43.13,10.956
24579.0,0.43416,17.693,41.13,10.956
24589.0,-1.5658,17.693,43.13,10.956
24599.0,-2.5658,16.693,42.13,9.9564
24609.0,-3.5658,16.693,42.13,11.956
24618.0,-6.5658,14.693,43.13,10.956
24628.0,-7.5658,15.693,42.13,10.956
24638.0,-10.566,14.693,40.13,8.9564
24648.0,-13.566,13.693,41.13,9.9564
24658.0,-14.566,14.693,40.13,9.9564
24668.0,-15.566,16.693,39.13,8.9564
24678.0,-11.566,20.693,39.13,8.9564
24688.0,-8.5658,23.693,39.13,7.9564
24698.0,-3.5658,24.693,38.13,8.9564
24707.0,1.4342,25.693,37.13,7.9564
24717.0,4.4342,23.693,35.13,7.9564
24727.0,12.434,22.693,35.13,5.9564
24737.0,15.434,21.693,35.13,6.9564
24747.0,19.434,20.693,34.13,5.9564
24757.0,23.434,21.693,32.13,4.9564
24767.0,28.434,22.693,34.13,4.9564
24777.0,31.434,23.693,34.13,3.9564
24787.0,36.434,26.693,36.13,5.9564
24796.0,39.434,28.693,39.13,4.9564
24806.0,36.434,27.693,40.13,5.9564
24816.0,41.434,28.693,40.13,5.9564
24826.0,42.434,29.693,40.13,5.9564
24836.0,41.434,28.693,42.13,6.9564
24846.0,40.434,27.693,42.13,6.9564
24856.0,38.434,28.693,45.13,7.9564
24866.0,39.434,30.693,45.13,7.9564
24876.0,39.434,31.693,47.13,6.9564
24885.0,38.434,32.693,47.13,6.9564
24895.0,38.434,32.693,48.13,7.9564
24905.0,37.434,31.693,48.13,7.9564
24915.0,34.434,31.693,47.13,6.9564
24925.0,30.434,26.693,47.13,6.9564
24935.0,27.434,23.693,47.13,6.9564
24945.0,24.434,22.693,47.13,6.9564
24955.0,19.434,18.693,47.13,6.9564
24964.0,16.434,16.693,47.13,6.9564
24974.0,14.434,16.693,44.13,6.9564
24984.0,14.434,16.693,44.13,6.9564
24994.0,12.434,16.693,46.13,5.9564
25004.0,13.434,15.693,46.13,6.9564
25014.0,12.434,16.693,45.13,5.9564
25024.0,10.434,14.693,44.13,4.9564
25034.0,8.4342,16.693,44.13,5.9564
25044.0,7.4342,15.693,41.13,3.9564
25053.0,8.4342,16.693,40.13,4.9564
25063.0,4.4342,15.693,39.13,3.9564
25073.0,4.4342,15.693,39.13,3.9564
25083.0,3.4342,13.693,38.13,2.9564
25093.0,3.4342,13.693,38.13,3.9564
25103.0,1.4342,14.693,38.13,2.9564
25113.0,1.4342,14.693,37.13,2.9564
25123.0,-1.5658,16.693,37.13,3.9564
25133.0,-1.5658,16.693,38.13,1.9564
25142.0,-4.5658,15.693,37.13,1.9564
25152.0,-4.5658,15.693,36.13,1.9564
25162.0,-6.5658,15.693,35.13,0.95643
25172.0,-6.5658,15.693,35.13,0.95643
25182.0,-9.5658,14.693,34.13,-0.043567
25192.0,-9.5658,14.693,34.13,-0.043567
25202.0,-8.5658,17.693,31.13,-1.0436
25212.0,-8.5658,17.693,32.13,-1.0436
25222.0,-4.5658,21.693,30.13,-2.0436
25231.0,-4.5658,21.693,30.13,-2.0436
25241.0,2.4342,21.693,31.13,-2.0436
25251.0,2.4342,21.693,30.13,-4.0436
25261.0,5.4342,19.693,27.13,-3.0436
25271.0,9.4342,16.693,25.13,-4.0436
25281.0,12.434,15.693,24.13,-6.0436
25291.0,13.434,13.693,22.13,-7.0436
25301.0,17.434,12.693,23.13,-7.0436
25310.0,21.434,13.693,22.13,-7.0436
25320.0,23.434,14.693,24.13,-7.0436
25330.0,25.434,15.693,27.13,-7.0436
25340.0,27.434,16.693,27.13,-6.0436
25350.0,31.434,18.693,29.13,-6.0436
25360.0,31.434,17.693,29.13,-7.0436
25370.0,33.434,18.693,30.13,-7.0436
25380.0,32.434,18.693,29.13,-7.0436
25390.0,34.434,20.693,33.13,-7.0436
25399.0,36.434,21.693,31.13,-7.0436
25409.0,38.434,24.693,33.13,-7.0436
25419.0,41.434,27.693,32.13,-7.0436
25429.0,41.434,27.693,33.13,-8.0436
25439.0,43.434,28.693,35.13,-8.0436
25449.0,44.434,29.693,33.13,-8.0436
25459.0,42.434,28.693,32.13,-9.0436
25469.0,40.434,27.693,31.13,-8.0436
25479.0,40.434,27.693,32.13,-8.0436
25488.0,38.434,28.693,32.13,-8.0436
25498.0,39.434,27.693,30.13,-9.0436
25508.0,36.434,26.693,29.13,-10.044
25518.0,35.434,23.693,28.13,-9.0436
25528.0,36.434,26.693,28.13,-9.0436
25538.0,37.434,25.693,28.13,-10.044
25548.0,37.434,27.693,29.13,-9.0436
25558.0,37.434,28.693,28.13,-9.0436
25568.0,37.434,29.693,27.13,-11.044
25577.0,38.434,29.693,25.13,-11.044
25587.0,37.434,31.693,26.13,-12.044
25597.0,36.434,31.693,24.13,-13.044
25607.0,38.434,32.693,23.13,-12.044
25617.0,38.434,34.693,23.13,-12.044
25627.0,37.434,34.693,23.13,-14.044
25637.0,37.434,36.693,23.13,-14.044
25647.0,37.434,36.693,20.13,-16.044
25656.0,37.434,37.693,21.13,-14.044
25666.0,40.434,39.693,21.13,-15.044
25676.0,38.434,39.693,18.13,-15.044
25686.0,38.434,41.693,20.13,-15.044
25696.0,36.434,43.693,19.13,-16.044
25706.0,41.434,46.693,16.13,-16.044
25716.0,42.434,47.693,18.13,-16.044
25726.0,42.434,50.693,17.13,-16.044
25736.0,42.434,51.693,14.13,-17.044
25745.0,42.434,52.693,16.13,-16.044
25755.0,46.434,56.693,15.13,-17.044
25765.0,48.434,56.693,15.13,-17.044
25775.0,51.434,57.693,15.13,-18.044
25785.0,55.434,56.693,14.13,-17.044
25795.0,58.434,56.693,13.13,-18.044
25805.0,67.434,56.693,13.13,-19.044
25815.0,73.434,54.693,9.1299,-20.044
25825.0,76.434,57.693,9.1299,-21.044
25834.0,79.434,58.693,9.1299,-20.044
25844.0,86.434,60.693,12.13,-21.044
25854.0,88.434,59.693,12.13,-21.044
25864.0,88.434,60.693,15.13,-20.044
25874.0,93.434,62.693,15.13,-20.044
25884.0,93.434,64.693,16.13,-20.044
25894.0,95.434,65.693,16.13,-20.044
25904.0,97.434,67.693,15.13,-20.044
25914.0,98.434,68.693,15.13,-20.044
25923.0,98.434,69.693,20.13,-21.044
25933.0,97.434,71.693,20.13,-21.044
25943.0,97.434,71.693,18.13,-21.044
25953.0,98.434,73.693,18.13,-21.044
25963.0,98.434,73.693,19.13,-19.044
25973.0,96.434,73.693,19.13,-19.044
25983.0,96.434,73.693,20.13,-18.044
25993.0,96.434,72.693,20.13,-18.044
26002.0,96.434,72.693,20.13,-21.044
26012.0,93.434,71.693,20.13,-21.044
26022.0,93.434,71.693,17.13,-20.044
26032.0,91.434,70.693,17.13,-20.044
26042.0,91.434,70.693,15.13,-22.044
26052.0,90.434,70.693,15.13,-22.044
26062.0,90.434,70.693,15.13,-23.044
26072.0,90.434,72.693,14.13,-24.044
26082.0,90.434,72.693,13.13,-23.044
26091.0,91.434,74.693,13.13,-24.044
26101.0,91.434,74.693,12.13,-24.044
26111.0,88.434,74.693,11.13,-23.044
26121.0,89.434,73.693,10.13,-24.044
26131.0,86.434,74.693,11.13,-24.044
26141.0,84.434,72.693,8.1299,-24.044
26151.0,84.434,73.693,8.1299,-25.044
26161.0,82.434,73.693,9.1299,-25.044
26171.0,80.434,72.693,8.1299,-26.044
26180.0,81.434,72.693,8.1299,-26.044
26190.0,79.434,72.693,6.1299,-26.044
26200.0,78.434,73.693,6.1299,-26.044
26210.0,76.434,72.693,5.1299,-28.044
26220.0,77.434,74.693,4.1299,-28.044
26230.0,77.434,73.693,4.1299,-28.044
26240.0,76.434,74.693,5.1299,-27.044
26250.0,75.434,73.693,4.1299,-29.044
26260.0,73.434,75.693,3.1299,-29.044
26269.0,72.434,76.693,3.1299,-30.044
26279.0,74.434,76.693,1.1299,-30.044
26289.0,73.434,77.693,-0.87009,-30.044
26299.0,73.434,79.693,0.12991,-29.044
26309.0,79.434,79.693,0.12991,-29.044
26319.0,85.434,79.693,-1.8701,-30.044
26329.0,90.434,79.693,-1.8701,-31.044
26339.0,97.434,79.693,-2.8701,-32.044
26348.0,105.43,78.693,-4.8701,-33.044
26358.0,110.43,80.693,-5.8701,-34.044
26368.0,117.43,84.693,-5.8701,-32.044
26378.0,120.43,85.693,-5.8701,-34.044
26388.0,124.43,88.693,-3.8701,-33.044
26398.0,129.43,89.693,-1.8701,-34.044
26408.0,130.43,92.693,0.12991,-34.044
26418.0,134.43,93.693,0.12991,-33.044
26428.0,135.43,95.693,1.1299,-33.044
26437.0,135.43,96.693,0.12991,-35.044
26447.0,135.43,97.693,2.1299,-33.044
26457.0,134.43,95.693,3.1299,-33.044
26467.0,135.43,97.693,5.1299,-33.044
26477.0,133.43,96.693,1.1299,-34.044
26487.0,132.43,96.693,6.1299,-33.044
26497.0,131.43,98.693,6.1299,-33.044
26507.0,132.43,97.693,5.1299,-34.044
26517.0,129.43,94.693,5.1299,-31.044
26526.0,126.43,93.693,5.1299,-33.044
26536.0,125.43,92.693,5.1299,-32.044
26546.0,126.43,93.693,6.1299,-32.044
26556.0,127.43,93.693,5.1299,-33.044
26566.0,126.43,93.693,3.1299,-33.044
26576.0,123.43,93.693,3.1299,-33.044
26586.0,124.43,93.693,4.1299,-32.044
26596.0,122.43,92.693,3.1299,-33.044
26606.0,122.43,93.693,4.1299,-33.044
26615.0,121.43,93.693,4.1299,-33.044
26625.0,121.43,91.693,2.1299,-34.044
26635.0,118.43,92.693,3.1299,-34.044
26645.0,116.43,92.693,2.1299,-35.044
26655.0,115.43,91.693,1.1299,-33.044
26665.0,116.43,90.693,1.1299,-35.044
26675.0,112.43,91.693,0.12991,-34.044
26685.0,113.43,91.693,1.1299,-34.044
26694.0,111.43,90.693,-0.87009,-37.044
26704.0,108.43,90.693,1.1299,-34.044
26714.0,106.43,88.693,1.1299,-35.044
26724.0,105.43,89.693,-0.87009,-36.044
26734.0,103.43,88.693,-0.87009,-36.044
26744.0,101.43,87.693,0.12991,-35.044
26754.0,99.434,88.693,-0.87009,-35.044
26764.0,96.434,88.693,-1.8701,-36.044
26774.0,95.434,87.693,-0.87009,-37.044
26783.0,93.434,86.693,-2.8701,-37.044
26793.0,93.434,86.693,-5.8701,-37.044
26803.0,88.434,87.693,-5.8701,-38.044
26813.0,88.434,87.693,-5.8701,-37.044
26823.0,94.434,89.693,-4.8701,-38.044
26833.0,94.434,89.693,-4.8701,-37.044
26843.0,102.43,88.693,-7.8701,-38.044
26853.0,102.43,88.693,-8.8701,-39.044
26863.0,110.43,85.693,-8.8701,-38.044
26872.0,110.43,85.693,-7.8701,-39.044
26882.0,115.43,84.693,-9.8701,-40.044
26892.0,115.43,84.693,-9.8701,-40.044
26902.0,119.43,85.693,-8.8701,-38.044
26912.0,119.43,85.693,-5.8701,-39.044
26922.0,124.43,85.693,-5.8701,-39.044
26932.0,124.43,85.693,-3.8701,-39.044
26942.0,128.43,88.693,-3.8701,-39.044
26951.0,128.43,88.693,0.12991,-37.044
26961.0,129.43,89.693,0.12991,-37.044
26971.0,129.43,91.693,2.1299,-37.044
26981.0,129.43,90.693,2.1299,-37.044
26991.0,128.43,89.693,5.1299,-36.044
27001.0,125.43,89.693,5.1299,-36.044
27011.0,123.43,90.693,8.1299,-34.044
27021.0,124.43,91.693,8.1299,-34.044
27031.0,122.43,89.693,8.1299,-33.044
27040.0,121.43,89.693,8.1299,-33.044
27050.0,120.43,90.693,9.1299,-35.044
27060.0,118.43,89.693,9.1299,-35.044
27070.0,117.43,87.693,8.1299,-35.044
27080.0,117.43,87.693,8.1299,-35.044
27090.0,115.43,86.693,7.1299,-33.044
27100.0,113.43,85.693,7.1299,-33.044
27110.0,110.43,84.693,9.1299,-33.044
27120.0,108.43,82.693,9.1299,-33.044
27129.0,108.43,83.693,7.1299,-34.044
27139.0,108.43,82.693,7.1299,-34.044
27149.0,104.43,82.693,6.1299,-34.044
27159.0,103.43,82.693,5.1299,-34.044
27169.0,101.43,81.693,5.1299,-34.044
27179.0,99.434,80.693,6.1299,-33.044
27189.0,98.434,80.693,8.1299,-33.044
27199.0,99.434,81.693,7.1299,-34.044
27209.0,98.434,82.693,8.1299,-34.044
27218.0,95.434,80.693,7.1299,-34.044
27228.0,94.434,81.693,7.1299,-33.044
27238.0,93.434,80.693,7.1299,-34.044
27248.0,88.434,78.693,7.1299,-34.044
27258.0,88.434,78.693,7.1299,-33.044
27268.0,84.434,78.693,7.1299,-33.044
27278.0,84.434,77.693,5.1299,-32.044
27288.0,81.434,74.693,5.1299,-33.044
27297.0,79.434,76.693,5.1299,-33.044
27307.0,77.434,75.693,5.1299,-32.044
27317.0,75.434,74.693,4.1299,-32.044
27327.0,74.434,74.693,3.1299,-33.044
27337.0,73.434,74.693,2.1299,-34.044
27347.0,71.434,76.693,2.1299,-35.044
27357.0,74.434,76.693,2.1299,-34.044
27367.0,79.434,76.693,2.1299,-35.044
27377.0,83.434,74.693,2.1299,-34.044
27386.0,87.434,73.693,-0.87009,-34.044
27396.0,89.434,71.693,-0.87009,-35.044
27406.0,89.434,69.693,0.12991,-34.044
27416.0,91.434,68.693,-0.87009,-35.044
27426.0,94.434,68.693,0.12991,-35.044
27436.0,93.434,67.693,2.1299,-35.044
27446.0,96.434,70.693,5.1299,-34.044
27456.0,95.434,68.693,6.1299,-33.044
27466.0,96.434,69.693,9.1299,-33.044
27475.0,98.434,69.693,9.1299,-33.044
27485.0,97.434,70.693,10.13,-33.044
27495.0,97.434,68.693,10.13,-32.044
27505.0,95.434,69.693,11.13,-33.044
27515.0,93.434,68.693,12.13,-32.044
27525.0,93.434,68.693,14.13,-32.044
27535.0,93.434,69.693,16.13,-31.044
27545.0,92.434,68.693,16.13,-30.044
27555.0,88.434,67.693,16.13,-31.044
27564.0,88.434,67.693,16.13,-31.044
27574.0,84.434,65.693,18.13,-31.044
27584.0,79.434,63.693,15.13,-31.044
27594.0,76.434,59.693,17.13,-32.044
27604.0,72.434,58.693,17.13,-31.044
27614.0,70.434,55.693,17.13,-30.044
27624.0,64.434,51.693,16.13,-30.044
27634.0,62.434,51.693,16.13,-30.044
27643.0,58.434,49.693,15.13,-30.044
27653.0,57.434,49.693,15.13,-30.044
27663.0,57.434,49.693,15.13,-30.044
27673.0,50.434,48.693,15.13,-30.044
27683.0,50.434,48.693,14.13,-31.044
27693.0,44.434,45.693,14.13,-31.044
27703.0,44.434,45.693,15.13,-30.044
27713.0,39.434,45.693,15.13,-31.044
27723.0,39.434,45.693,15.13,-30.044
27732.0,35.434,41.693,15.13,-30.044
27742.0,35.434,41.693,17.13,-28.044
27752.0,30.434,41.693,16.13,-28.044
27762.0,30.434,41.693,15.13,-29.044
27772.0,24.434,39.693,14.13,-28.044
27782.0,24.434,39.693,15.13,-29.044
27792.0,19.434,37.693,15.13,-28.044
27802.0,19.434,37.693,17.13,-27.044
27812.0,14.434,34.693,17.13,-28.044
27821.0,14.434,34.693,16.13,-27.044
27831.0,11.434,35.693,16.13,-27.044
27841.0,9.4342,34.693,15.13,-28.044
27851.0,6.4342,33.693,14.13,-28.044
27861.0,2.4342,31.693,14.13,-26.044
27871.0,3.4342,33.693,15.13,-26.044
27881.0,2.4342,35.693,15.13,-26.044
27891.0,3.4342,35.693,15.13,-27.044
27901.0,5.4342,33.693,12.13,-27.044
27910.0,7.4342,32.693,11.13,-27.044
27920.0,10.434,29.693,13.13,-27.044
27930.0,13.434,28.693,11.13,-27.044
27940.0,15.434,25.693,10.13,-27.044
27950.0,17.434,23.693,11.13,-27.044
27960.0,16.434,22.693,12.13,-28.044
27970.0,19.434,24.693,12.13,-28.044
27980.0,19.434,23.693,16.13,-25.044
27989.0,19.434,24.693,16.13,-25.044
27999.0,20.434,23.693,22.13,-25.044
28009.0,19.434,23.693,22.13,-25.044
28019.0,20.434,24.693,24.13,-22.044
28029.0,18.434,22.693,24.13,-22.044
28039.0,18.434,23.693,26.13,-22.044
28049.0,17.434,24.693,26.13,-22.044
28059.0,15.434,23.693,27.13,-21.044
28069.0,16.434,26.693,27.13,-21.044
28078.0,16.434,27.693,31.13,-20.044
28088.0,15.434,25.693,31.13,-20.044
28098.0,13.434,27.693,32.13,-18.044
28108.0,11.434,25.693,32.13,-18.044
28118.0,10.434,26.693,33.13,-17.044
28128.0,10.434,25.693,33.13,-17.044
28138.0,7.4342,24.693,32.13,-17.044
28148.0,4.4342,21.693,32.13,-17.044
28158.0,2.4342,22.693,30.13,-18.044
28167.0,1.4342,22.693,30.13,-18.044
28177.0,-0.56584,21.693,32.13,-18.044
28187.0,-0.56584,21.693,32.13,-18.044
28197.0,-3.5658,19.693,32.13,-18.044
28207.0,-6.5658,19.693,33.13,-17.044
28217.0,-6.5658,19.693,30.13,-17.044
28227.0,-6.5658,20.693,31.13,-18.044
28237.0,-7.5658,19.693,31.13,-16.044
28247.0,-11.566,17.693,31.13,-18.044
28256.0,-12.566,17.693,30.13,-17.044
28266.0,-16.566,17.693,29.13,-17.044
28276.0,-18.566,16.693,29.13,-17.044
28286.0,-20.566,14.693,29.13,-17.044
28296.0,-24.566,12.693,29.13,-15.044
28306.0,-27.566,11.693,31.13,-17.044
28316.0,-30.566,10.693,31.13,-16.044
28326.0,-32.566,10.693,32.13,-15.044
28335.0,-35.566,9.6933,31.13,-15.044
28345.0,-38.566,8.6933,32.13,-16.044
28355.0,-40.566,9.6933,31.13,-15.044
28365.0,-43.566,7.6933,29.13,-17.044
28375.0,-45.566,8.6933,29.13,-15.044
28385.0,-45.566,8.6933,28.13,-15.044
28395.0,-44.566,9.6933,29.13,-15.044
28405.0,-45.566,11.693,26.13,-16.044
28415.0,-42.566,13.693,28.13,-17.044
28424.0,-38.566,14.693,27.13,-16.044
28434.0,-35.566,12.693,27.13,-15.044
28444.0,-31.566,11.693,27.13,-15.044
28454.0,-28.566,10.693,27.13,-17.044
28464.0,-25.566,8.6933,23.13,-17.044
28474.0,-21.566,8.6933,23.13,-16.044
28484.0,-23.566,7.6933,22.13,-17.044
28494.0,-21.566,7.6933,22.13,-19.044
28504.0,-21.566,6.6933,23.13,-18.044
28513.0,-19.566,6.6933,24.13,-18.044
28523.0,-19.566,6.6933,26.13,-17.044
28533.0,-19.566,6.6933,29.13,-16.044
28543.0,-21.566,4.6933,29.13,-15.044
28553.0,-21.566,4.6933,32.13,-15.044
28563.0,-23.566,5.6933,33.13,-14.044
28573.0,-23.566,5.6933,34.13,-15.044
28583.0,-27.566,3.6933,35.13,-14.044
28593.0,-27.566,3.6933,37.13,-13.044
28602.0,-28.566,3.6933,37.13,-12.044
28612.0,-28.566,3.6933,39.13,-13.044
28622.0,-33.566,3.6933,40.13,-14.044
28632.0,-33.566,3.6933,40.13,-13.044
28642.0,-33.566,4.6933,40.13,-13.044
28652.0,-33.566,4.6933,39.13,-12.044
28662.0,-37.566,1.6933,39.13,-12.044
28672.0,-37.566,1.6933,38.13,-12.044
28681.0,-39.566,0.69332,37.13,-13.044
28691.0,-39.566,0.69332,38.13,-12.044
28701.0,-42.566,-0.30668,39.13,-13.044
28711.0,-46.566,-2.3067,37.13,-12.044
28721.0,-48.566,-3.3067,35.13,-13.044
28731.0,-50.566,-3.3067,35.13,-13.044
28741.0,-50.566,-3.3067,35.13,-13.044
28751.0,-53.566,-4.3067,35.13,-13.044
28761.0,-53.566,-6.3067,34.13,-13.044
28770.0,-55.566,-7.3067,33.13,-14.044
28780.0,-61.566,-10.307,32.13,-15.044
28790.0,-61.566,-10.307,32.13,-15.044
28800.0,-68.566,-12.307,32.13,-15.044
28810.0,-71.566,-14.307,32.13,-14.044
28820.0,-73.566,-15.307,31.13,-15.044
28830.0,-76.566,-16.307,32.13,-14.044
28840.0,-80.566,-19.307,31.13,-15.044
28850.0,-85.566,-20.307,33.13,-14.044
28859.0,-88.566,-23.307,32.13,-15.044
28869.0,-91.566,-23.307,31.13,-14.044
28879.0,-94.566,-24.307,30.13,-14.044
28889.0,-97.566,-26.307,31.13,-15.044
28899.0,-98.566,-27.307,29.13,-16.044
28909.0,-101.57,-27.307,31.13,-17.044
28919.0,-106.57,-29.307,27.13,-17.044
28929.0,-106.57,-29.307,27.13,-16.044
28939.0,-107.57,-29.307,26.13,-16.044
28948.0,-105.57,-26.307,26.13,-16.044
28958.0,-103.57,-23.307,25.13,-17.044
28968.0,-98.566,-23.307,26.13,-17.044
28978.0,-96.566,-24.307,26.13,-18.044
28988.0,-93.566,-28.307,22.13,-20.044
28998.0,-89.566,-29.307,20.13,-19.044
29008.0,-86.566,-30.307,20.13,-20.044
29018.0,-85.566,-34.307,17.13,-20.044
29027.0,-85.566,-33.307,22.13,-20.044
29037.0,-84.566,-34.307,19.13,-21.044
29047.0,-83.566,-34.307,22.13,-20.044
29057.0,-81.566,-34.307,25.13,-19.044
29067.0,-81.566,-34.307,27.13,-19.044
29077.0,-81.566,-35.307,27.13,-19.044
29087.0,-81.566,-37.307,29.13,-19.044
29097.0,-82.566,-37.307,29.13,-19.044
29107.0,-81.566,-36.307,30.13,-18.044
29116.0,-81.566,-36.307,30.13,-18.044
29126.0,-80.566,-35.307,30.13,-19.044
29136.0,-83.566,-34.307,30.13,-19.044
29146.0,-82.566,-33.307,32.13,-18.044
29156.0,-82.566,-32.307,32.13,-18.044
29166.0,-79.566,-32.307,33.13,-18.044
29176.0,-77.566,-29.307,33.13,-18.044
29186.0,-77.566,-29.307,33.13,-17.044
29196.0,-79.566,-30.307,33.13,-17.044
29205.0,-79.566,-31.307,30.13,-18.044
29215.0,-78.566,-30.307,30.13,-18.044
29225.0,-77.566,-30.307,28.13,-19.044
29235.0,-78.566,-29.307,28.13,-19.044
29245.0,-76.566,-30.307,28.13,-19.044
29255.0,-80.566,-31.307,28.13,-19.044
29265.0,-78.566,-31.307,27.13,-19.044
29275.0,-79.566,-30.307,27.13,-19.044
29285.0,-76.566,-29.307,26.13,-19.044
29294.0,-76.566,-29.307,26.13,-19.044
29304.0,-78.566,-27.307,26.13,-20.044
29314.0,-77.566,-27.307,27.13,-21.044
29324.0,-80.566,-28.307,24.13,-22.044
29334.0,-79.566,-26.307,22.13,-23.044
29344.0,-76.566,-26.307,22.13,-21.044
29354.0,-80.566,-27.307,23.13,-21.044
29364.0,-84.566,-28.307,21.13,-21.044
29373.0,-85.566,-30.307,20.13,-21.044
29383.0,-86.566,-30.307,21.13,-22.044
29393.0,-89.566,-30.307,21.13,-23.044
29403.0,-89.566,-30.307,21.13,-23.044
29413.0,-91.566,-32.307,21.13,-23.044
29423.0,-91.566,-32.307,19.13,-24.044
29433.0,-90.566,-30.307,21.13,-23.044
29443.0,-90.566,-30.307,18.13,-23.044
29453.0,-92.566,-28.307,18.13,-24.044
29462.0,-92.566,-28.307,15.13,-26.044
29472.0,-90.566,-25.307,14.13,-27.044
29482.0,-90.566,-25.307,14.13,-27.044
29492.0,-86.566,-19.307,13.13,-27.044
29502.0,-86.566,-19.307,13.13,-27.044
29512.0,-73.566,-16.307,9.1299,-29.044
29522.0,-73.566,-16.307,10.13,-29.044
29532.0,-63.566,-17.307,9.1299,-29.044
29542.0,-63.566,-17.307,7.1299,-29.044
29551.0,-54.566,-18.307,5.1299,-30.044
29561.0,-54.566,-18.307,8.1299,-29.044
29571.0,-50.566,-18.307,5.1299,-32.044
29581.0,-43.566,-15.307,6.1299,-32.044
29591.0,-39.566,-14.307,4.1299,-32.044
29601.0,-33.566,-10.307,6.1299,-31.044
29611.0,-28.566,-7.3067,8.1299,-31.044
29621.0,-24.566,-4.3067,9.1299,-31.044
29631.0,-20.566,-2.3067,9.1299,-32.044
29640.0,-15.566,0.69332,10.13,-30.044
29650.0,-12.566,3.6933,11.13,-31.044
29660.0,-8.5658,4.6933,11.13,-32.044
29670.0,-8.5658,6.6933,11.13,-32.044
29680.0,-4.5658,10.693,11.13,-29.044
29690.0,-5.5658,11.693,14.13,-30.044
29700.0,-4.5658,13.693,14.13,-29.044
29710.0,-3.5658,13.693,14.13,-31.044
29719.0,-0.56584,14.693,14.13,-30.044
29729.0,-0.56584,15.693,11.13,-33.044
29739.0,0.43416,16.693,12.13,-31.044
29749.0,2.4342,16.693,13.13,-32.044
29759.0,2.4342,17.693,11.13,-33.044
29769.0,3.4342,17.693,9.1299,-33.044
29779.0,5.4342,19.693,9.1299,-33.044
29789.0,6.4342,20.693,7.1299,-35.044
29799.0,8.4342,21.693,7.1299,-34.044
29808.0,7.4342,21.693,6.1299,-34.044
29818.0,9.4342,21.693,6.1299,-35.044
29828.0,8.4342,24.693,4.1299,-36.044
29838.0,9.4342,24.693,3.1299,-35.044
29848.0,9.4342,24.693,2.1299,-35.044
29858.0,11.434,25.693,2.1299,-36.044
29868.0,12.434,27.693,1.1299,-37.044
29878.0,11.434,28.693,2.1299,-38.044
29888.0,10.434,28.693,-0.87009,-37.044
29897.0,11.434,29.693,0.12991,-38.044
29907.0,10.434,30.693,-0.87009,-37.044
29917.0,11.434,30.693,-0.87009,-39.044
29927.0,10.434,31.693,-0.87009,-38.044
29937.0,10.434,31.693,-1.8701,-38.044
29947.0,9.4342,30.693,-2.8701,-39.044
29957.0,8.4342,32.693,-2.8701,-39.044
29967.0,6.4342,31.693,-3.8701,-40.044
29977.0,6.4342,32.693,-5.8701,-41.044
29986.0,5.4342,33.693,-5.8701,-42.044
29996.0,4.4342,33.693,-7.8701,-42.044
