t,lead_I,lead_II,v3,v4
1.0,-1334,79699,-75059,-85453
3.0,-1196,79891,-75113,-85527
5.0,-1384,79153,-75133,-85634
7.0,-1401,78797,-75306,-85878
9.0,-998,79345,-75545,-86129
11.0,-433,79789,-75626,-86197
13.0,-105,79944,-75566,-86124
15.0,-129,80441,-75426,-85952
17.0,-295,80918,-75171,-85636
19.0,-438,80756,-74906,-85308
21.0,-622,80435,-74782,-85158
23.0,-975,80289,-74841,-85258
25.0,-1418,79793,-75125,-85624
27.0,-1541,79164,-75484,-86027
29.0,-1083,79226,-75589,-86113
31.0,-497,79578,-75503,-86021
33.0,-274,79546,-75506,-86080
35.0,-115,79741,-75389,-86036
37.0,150,80315,-74929,-85642
39.0,-90,80132,-74539,-85354
41.0,-879,79257,-74488,-85449
43.0,-1235,79049,-74459,-85566
45.0,-917,79383,-74379,-85612
47.0,-792,79145,-74484,-85800
49.0,-1037,78720,-74564,-85879
50.9,-821,79109,-74328,-85533
52.9,104,80056,-73995,-84934
54.9,978,80854,-73776,-84233
56.9,1204,81424,-73542,-83361
58.9,1015,81938,-73297,-82456
60.9,862,82485,-73177,-81692
62.9,689,82936,-73149,-81033
64.9,285,83016,-73248,-80512
66.9,6,83023,-73624,-80114
68.9,408,83681,-74203,-79566
70.9,1297,84793,-74867,-78910
72.9,1909,85454,-75743,-78737
74.9,1756,85444,-76858,-79467
76.9,776,84861,-77975,-81094
78.9,-788,83424,-79000,-83440
80.9,-2321,81520,-79972,-85903
82.9,-3248,80292,-80753,-87592
84.9,-3538,79898,-81203,-88343
86.9,-3387,79542,-81397,-88784
88.9,-2935,79133,-81377,-89190
90.9,-2544,79026,-81069,-89299
92.9,-2458,78967,-80538,-89091
94.9,-2291,78794,-79903,-88774
96.9,-1838,78902,-79167,-88328
98.9,-1709,79243,-78391,-87750
100.9,-2100,79318,-77776,-87277
102.9,-2156,79182,-77381,-87028
104.9,-1536,79172,-77100,-86897
106.9,-1079,79194,-76876,-86823
108.9,-1209,79162,-76684,-86768
110.9,-1240,79331,-76447,-86637
112.9,-706,79729,-76170,-86440
114.9,-123,80032,-75915,-86248
116.9,-131,80128,-75625,-85970
118.9,-609,80216,-75225,-85524
120.9,-946,80333,-74849,-85135
122.9,-975,80176,-74739,-85108
124.9,-1066,79608,-74944,-85428
126.9,-1216,79122,-75252,-85799
128.9,-949,79269,-75413,-85985
130.9,-285,79830,-75362,-85973
132.9,262,80247,-75194,-85836
134.9,454,80488,-74992,-85618
136.9,237,80652,-74831,-85413
138.9,-378,80476,-74825,-85371
140.9,-876,80029,-74935,-85461
142.9,-775,79917,-74946,-85480
144.9,-453,80201,-74871,-85450
146.9,-341,80224,-74991,-85618
148.9,-264,79808,-75293,-85939
150.9,-315,79484,-75410,-86059
152.9,-886,79532,-75239,-85897
154.9,-1481,79787,-75047,-85695
156.9,-1181,80184,-74927,-85529
158.9,-210,80670,-74765,-85308
160.9,288,80875,-74603,-85114
162.88,-213,80491,-74594,-85109
164.85,-1059,79781,-74760,-85307
166.83,-1226,79378,-75018,-85608
168.8,-540,79600,-75222,-85849
170.8,130,80103,-75242,-85886
172.8,188,80388,-75162,-85805
174.8,61,80489,-75136,-85770
176.8,109,80633,-75048,-85671
178.8,-156,80532,-74769,-85365
180.8,-990,79913,-74556,-85109
182.8,-1650,79381,-74652,-85180
184.8,-1437,79626,-74845,-85398
186.8,-728,80182,-74906,-85512
188.8,-351,80149,-74977,-85624
190.8,-438,79666,-75140,-85809
192.8,-469,79556,-75156,-85840
194.8,-191,79960,-74941,-85618
196.8,101,80348,-74752,-85384
198.8,142,80516,-74717,-85280
200.8,-35,80575,-74693,-85207
202.8,-318,80313,-74685,-85210
204.8,-532,79638,-74844,-85429
206.8,-485,79234,-75016,-85672
208.8,-293,79660,-74901,-85620
210.8,-240,80317,-74636,-85407
212.8,-317,80402,-74602,-85400
214.8,-392,80120,-74763,-85548
216.8,-476,80044,-74787,-85530
218.8,-429,80221,-74645,-85337
220.8,-134,80456,-74572,-85220
222.8,-11,80574,-74635,-85265
224.8,-346,80355,-74722,-85356
226.8,-588,79959,-74775,-85426
228.8,-360,79874,-74807,-85482
230.8,-196,80057,-74799,-85506
232.8,-381,80072,-74718,-85438
234.8,-427,80041,-74572,-85258
236.8,-247,80279,-74459,-85077
238.8,-342,80429,-74491,-85055
240.8,-598,80188,-74608,-85155
242.8,-392,80087,-74594,-85152
244.8,104,80414,-74428,-85023
246.8,62,80448,-74395,-85046
248.8,-540,79877,-74600,-85303
250.8,-778,79656,-74707,-85445
252.8,-318,80332,-74490,-85249
254.8,87,80950,-74238,-84997
256.8,7,80760,-74242,-84962
258.8,-71,80434,-74345,-85006
260.8,35,80527,-74350,-84983
262.8,-150,80482,-74377,-85020
264.8,-582,80026,-74520,-85170
266.8,-617,79838,-74604,-85256
268.8,-128,80222,-74522,-85201
270.8,474,80661,-74394,-85110
272.8,898,80832,-74306,-85023
274.8,966,80865,-74218,-84906
276.8,683,80803,-74171,-84832
278.8,399,80600,-74261,-84875
280.7,242,80338,-74383,-84916
282.7,-48,80180,-74328,-84805
284.7,-339,80293,-74134,-84631
286.7,-236,80562,-74060,-84602
288.7,1,80527,-74189,-84735
290.7,-37,80170,-74344,-84872
292.7,19,80172,-74354,-84891
294.7,545,80758,-74184,-84735
296.7,1044,81258,-73920,-84443
298.7,1086,81293,-73762,-84233
300.7,987,81141,-73864,-84297
302.7,940,80887,-74086,-84500
304.7,731,80533,-74180,-84577
306.7,511,80500,-74171,-84557
308.7,580,80877,-74233,-84624
310.7,637,81072,-74307,-84705
312.7,443,80949,-74221,-84608
314.7,509,81000,-74067,-84417
316.7,986,81162,-74034,-84330
318.7,1145,80996,-74032,-84278
320.7,818,80802,-73886,-84110
322.7,691,81013,-73730,-83968
324.7,775,81166,-73779,-84057
326.7,546,80838,-73960,-84282
328.7,374,80585,-74107,-84457
330.7,688,80836,-74226,-84601
332.7,737,81116,-74261,-84675
334.7,132,81136,-74051,-84487
336.7,-47,81306,-73731,-84141
338.7,683,81676,-73672,-84049
340.7,1163,81725,-73861,-84251
342.7,689,81369,-73935,-84360
344.7,35,81017,-73856,-84303
346.7,-154,80821,-73907,-84375
348.7,-77,80777,-74059,-84559
350.7,163,81013,-74055,-84571
352.7,612,81331,-73980,-84488
354.7,820,81295,-74063,-84575
356.7,407,81042,-74180,-84715
358.7,-147,81028,-74144,-84701
360.7,-219,81117,-74121,-84697
362.7,10,80989,-74256,-84849
364.7,92,80945,-74333,-84931
366.7,84,81224,-74221,-84833
368.7,61,81311,-74167,-84826
370.7,-241,80865,-74338,-85044
372.7,-695,80423,-74538,-85251
374.7,-762,80461,-74580,-85283
376.7,-520,80677,-74542,-85252
378.7,-495,80677,-74551,-85259
380.7,-566,80530,-74612,-85298
382.7,-388,80395,-74678,-85364
384.7,-336,80228,-74712,-85433
386.7,-685,80054,-74704,-85454
388.7,-775,80086,-74687,-85443
390.7,-224,80379,-74691,-85445
392.68,233,80637,-74701,-85438
394.65,61,80569,-74729,-85425
396.63,-345,80259,-74811,-85475
398.6,-699,79967,-74890,-85555
400.6,-1051,79859,-74873,-85556
402.6,-1039,80032,-74822,-85541
404.6,-504,80395,-74856,-85634
406.6,-241,80558,-74905,-85733
408.6,-633,80324,-74841,-85682
410.6,-817,80042,-74793,-85627
412.6,-373,80007,-74978,-85798
414.6,-96,80021,-75268,-86054
416.6,-311,79997,-75304,-86044
418.6,-393,80218,-75027,-85745
420.6,-278,80596,-74754,-85482
422.6,-478,80578,-74713,-85471
424.6,-762,80154,-74799,-85595
426.6,-604,79956,-74846,-85669
428.6,-390,80124,-74852,-85683
430.6,-648,80121,-74886,-85715
432.6,-961,79814,-74944,-85766
434.6,-825,79671,-74969,-85765
436.6,-527,79877,-74912,-85675
438.6,-393,80147,-74797,-85552
440.6,-350,80255,-74756,-85534
442.6,-451,80165,-74869,-85673
444.6,-691,79971,-75019,-85836
446.6,-683,79965,-75037,-85868
448.6,-475,80267,-74945,-85797
450.6,-648,80499,-74893,-85748
452.6,-986,80387,-74936,-85774
454.6,-642,80285,-74992,-85808
456.6,118,80550,-74950,-85749
458.6,167,80825,-74840,-85614
460.6,-565,80536,-74841,-85605
462.6,-1097,79796,-75014,-85799
464.6,-984,79357,-75103,-85919
466.6,-678,79605,-74905,-85738
468.6,-650,80040,-74667,-85513
470.6,-849,80106,-74692,-85564
472.6,-876,80036,-74840,-85729
474.6,-591,80216,-74864,-85746
476.6,-380,80377,-74852,-85712
478.6,-472,80272,-74902,-85725
480.6,-493,80273,-74870,-85644
482.6,-307,80514,-74780,-85518
484.6,-418,80468,-74860,-85606
486.6,-858,79999,-75055,-85838
488.6,-886,79666,-75110,-85927
490.6,-370,79760,-75025,-85866
492.6,-122,80092,-74901,-85768
494.6,-441,80485,-74756,-85623
496.6,-705,80700,-74737,-85551
498.6,-551,80531,-74942,-85691
500.6,-239,80343,-75083,-85807
502.6,-27,80514,-74943,-85679
504.6,-96,80602,-74787,-85541
506.6,-547,80213,-74809,-85581
508.6,-953,79935,-74825,-85604
510.5,-740,80268,-74792,-85554
512.5,-196,80702,-74842,-85581
514.5,-94,80699,-74853,-85591
516.5,-428,80461,-74720,-85468
518.5,-595,80276,-74685,-85426
520.5,-542,80124,-74841,-85561
522.5,-612,80029,-74927,-85630
524.5,-638,80092,-74921,-85620
526.5,-294,80254,-75069,-85767
528.5,34,80363,-75246,-85946
530.5,-224,80348,-75132,-85838
532.5,-807,80268,-74880,-85590
534.5,-1020,80262,-74865,-85570
536.5,-788,80340,-75022,-85708
538.5,-542,80338,-75029,-85689
540.5,-478,80247,-74875,-85510
542.5,-474,80283,-74787,-85410
544.5,-427,80483,-74854,-85495
546.5,-327,80627,-74979,-85665
548.5,-228,80588,-75061,-85791
550.5,-251,80422,-75088,-85830
552.5,-411,80265,-75088,-85801
554.5,-521,80293,-75040,-85702
556.5,-474,80442,-74940,-85552
558.5,-436,80327,-74891,-85486
560.5,-551,79950,-74963,-85570
562.5,-680,79871,-75044,-85667
564.5,-685,80168,-75060,-85695
566.5,-627,80281,-75086,-85751
568.5,-467,80239,-75079,-85788
570.5,-89,80552,-74928,-85655
572.5,211,80853,-74814,-85519
574.5,-2,80492,-74956,-85623
576.5,-483,80015,-75128,-85764
578.5,-630,80167,-75064,-85674
580.5,-476,80401,-74968,-85557
582.5,-440,80125,-75047,-85632
584.5,-519,79939,-75101,-85697
586.5,-559,80257,-75002,-85616
588.5,-685,80484,-74926,-85565
590.5,-842,80410,-74935,-85598
592.5,-694,80489,-74945,-85617
594.5,-319,80589,-75012,-85679
596.5,-244,80289,-75141,-85797
598.5,-593,79989,-75170,-85805
600.5,-845,80166,-75125,-85728
602.5,-653,80396,-75187,-85771
604.5,-385,80226,-75286,-85883
606.5,-468,79964,-75265,-85889
608.5,-566,79972,-75249,-85896
610.5,-207,80165,-75329,-85985
612.5,136,80368,-75271,-85920
614.5,-248,80494,-74990,-85611
616.5,-944,80489,-74790,-85375
618.5,-1028,80461,-74813,-85374
620.5,-465,80566,-74837,-85400
622.48,125,80686,-74802,-85392
624.45,280,80562,-74893,-85531
626.43,-168,80235,-75062,-85756
628.4,-868,80047,-75079,-85809
630.4,-1105,80156,-74952,-85702
632.4,-841,80370,-74839,-85610
634.4,-649,80565,-74750,-85534
636.4,-495,80799,-74698,-85453
638.4,-110,80958,-74760,-85456
640.4,-49,80868,-74828,-85478
642.4,-724,80694,-74726,-85359
644.4,-1317,80598,-74572,-85198
646.4,-1064,80462,-74587,-85218
648.4,-442,80445,-74695,-85361
650.4,-162,80935,-74695,-85414
652.4,-155,81639,-74597,-85346
654.4,-104,81827,-74500,-85238
656.4,-57,81532,-74380,-85089
658.4,-146,81379,-74222,-84913
660.4,-230,81502,-74142,-84834
662.4,-162,81580,-74186,-84880
664.4,-95,81547,-74225,-84908
666.4,-186,81584,-74203,-84867
668.4,-280,81685,-74249,-84910
670.4,-220,81646,-74395,-85082
672.4,-109,81433,-74487,-85202
674.4,-29,81323,-74467,-85162
676.4,-1,81478,-74419,-85042
678.4,-214,81522,-74377,-84935
680.4,-695,81125,-74366,-84902
682.4,-924,80805,-74400,-84936
684.4,-472,81226,-74380,-84922
686.4,144,81841,-74346,-84901
688.4,86,81528,-74592,-85169
690.4,-444,80516,-75100,-85700
692.4,-542,80061,-75373,-85981
694.4,-245,80311,-75249,-85833
696.4,-394,80350,-75147,-85683
698.4,-925,80088,-75240,-85743
700.4,-1018,80099,-75278,-85777
702.4,-655,80168,-75255,-85763
704.4,-447,79877,-75357,-85879
706.4,-491,79670,-75439,-85993
708.4,-548,79870,-75347,-85947
710.4,-565,79962,-75333,-85966
712.4,-527,79766,-75519,-86151
714.4,-451,79813,-75599,-86196
716.4,-380,80178,-75491,-86037
718.4,-236,80342,-75495,-85987
720.4,-193,80166,-75592,-86036
722.4,-591,79982,-75487,-85910
724.4,-1047,79988,-75314,-85765
726.4,-885,80127,-75356,-85867
728.4,-477,80230,-75415,-85964
730.4,-584,80128,-75312,-85859
732.4,-939,79863,-75357,-85894
734.4,-901,79698,-75605,-86148
736.4,-511,79787,-75609,-86146
738.4,-109,79963,-75352,-85865
740.3,-15,79916,-75325,-85827
742.3,-538,79600,-75529,-86045
744.3,-1292,79370,-75544,-86074
746.3,-1353,79509,-75403,-85940
748.3,-749,79788,-75408,-85969
750.3,-402,79887,-75487,-86087
752.3,-455,79958,-75461,-86068
754.3,-373,80180,-75424,-85978
756.3,-291,80209,-75487,-85963
758.3,-515,79845,-75610,-86036
760.3,-584,79657,-75721,-86135
762.3,-320,80023,-75714,-86136
764.3,-397,80275,-75586,-86026
766.3,-892,79811,-75563,-86030
768.3,-1084,79228,-75694,-86187
770.3,-940,79321,-75656,-86162
772.3,-836,79820,-75402,-85912
774.3,-482,80026,-75373,-85857
776.3,31,79874,-75657,-86071
778.3,-237,79687,-75770,-86109
780.3,-1116,79581,-75557,-85871
782.3,-1184,79599,-75415,-85752
784.3,-325,79867,-75503,-85870
786.3,171,80251,-75569,-85976
788.3,-38,80307,-75519,-86017
790.3,-271,79926,-75454,-86103
792.3,-367,79622,-75326,-86136
794.3,-545,79720,-75109,-86035
796.3,-701,79770,-74978,-85974
798.3,-724,79423,-74974,-86049
800.3,-609,79189,-74920,-86103
802.3,-281,79483,-74800,-86047
804.3,55,79800,-74715,-85963
806.3,65,79721,-74561,-85801
808.3,-43,79698,-74221,-85397
810.3,111,80005,-73928,-84817
812.3,351,80236,-73931,-84287
814.3,447,80432,-74031,-83749
816.3,605,81197,-73887,-82917
818.3,904,82385,-73583,-81850
820.3,1116,83229,-73457,-80964
822.3,1143,83677,-73558,-80301
824.3,957,84188,-73733,-79463
826.3,625,84691,-74114,-78468
828.3,650,84935,-74997,-77928
830.3,1208,85030,-76316,-78234
832.3,1299,84829,-77720,-79378
834.3,111,83880,-79025,-81418
836.3,-1486,82409,-80180,-84142
838.3,-2288,81217,-81049,-86616
840.3,-2468,80573,-81581,-88060
842.3,-2640,80158,-81905,-88714
844.3,-2659,79792,-82037,-89155
846.3,-2414,79438,-81862,-89443
848.3,-2357,79019,-81423,-89450
850.3,-2549,78648,-80874,-89280
852.28,-2478,78526,-80229,-89001
854.25,-2007,78610,-79502,-88581
856.23,-1468,78849,-78854,-88142
858.2,-1093,79341,-78336,-87801
860.2,-1010,79843,-77785,-87434
862.2,-1214,79836,-77209,-87011
864.2,-1282,79431,-76837,-86740
866.2,-912,79346,-76654,-86633
868.2,-566,79753,-76386,-86443
870.2,-743,80083,-76008,-86143
872.2,-1102,80074,-75721,-85918
874.2,-1098,80056,-75529,-85747
876.2,-800,80187,-75343,-85559
878.2,-466,80238,-75292,-85523
880.2,-81,80139,-75440,-85718
882.2,276,80116,-75556,-85902
884.2,271,80229,-75514,-85948
886.2,-204,80191,-75495,-86024
888.2,-751,79856,-75580,-86183
890.2,-895,79588,-75595,-86244
892.2,-732,79673,-75467,-86129
894.2,-777,79764,-75326,-85949
896.2,-954,79684,-75240,-85779
898.2,-581,80013,-75165,-85629
900.2,186,80792,-75123,-85567
902.2,230,80940,-75162,-85625
904.2,-563,80132,-75220,-85700
906.2,-956,79565,-75248,-85733
908.2,-549,79864,-75313,-85808
910.2,-281,80248,-75390,-85925
912.2,-426,80310,-75339,-85932
914.2,-277,80460,-75203,-85817
916.2,113,80549,-75183,-85753
918.2,-67,80080,-75275,-85783
920.2,-776,79452,-75305,-85792
922.2,-1156,79384,-75268,-85757
924.2,-907,79769,-75259,-85737
926.2,-463,80149,-75229,-85698
928.2,-195,80416,-75134,-85625
930.2,-243,80407,-75093,-85631
932.2,-603,79936,-75194,-85767
934.2,-878,79494,-75320,-85893
936.2,-588,79748,-75317,-85869
938.2,-20,80343,-75194,-85728
940.2,58,80470,-75077,-85602
942.2,-367,80239,-75069,-85582
944.2,-583,80210,-75147,-85660
946.2,-323,80267,-75211,-85751
948.2,82,80187,-75205,-85779
950.2,364,80277,-75156,-85746
952.2,267,80483,-75108,-85703
954.2,-350,80289,-75075,-85655
956.2,-868,79956,-75049,-85579
958.2,-555,80171,-75019,-85501
960.2,85,80577,-75006,-85488
962.2,83,80441,-75065,-85567
964.2,-396,80065,-75198,-85699
966.2,-664,79979,-75296,-85802
968.2,-753,79945,-75262,-85814
970.1,-765,79867,-75134,-85740
972.1,-382,80127,-75011,-85632
974.1,69,80461,-74939,-85539
976.1,-233,80231,-74944,-85515
978.1,-911,79826,-75006,-85545
980.1,-784,80047,-75000,-85509
982.1,-30,80513,-74871,-85379
984.1,120,80395,-74790,-85330
986.1,-348,80010,-74869,-85444
988.1,-420,80056,-74977,-85574
990.1,-61,80221,-75035,-85649
992.1,-11,80053,-75092,-85717
994.1,-190,80012,-75060,-85675
996.1,-163,80318,-74895,-85478
998.1,-248,80313,-74833,-85383
1000.1,-625,79986,-74930,-85466
1002.1,-606,80184,-74875,-85425
1004.1,2,80758,-74674,-85250
1006.1,330,80769,-74682,-85272
1008.1,6,80456,-74779,-85372
1010.1,-299,80632,-74576,-85190
1012.1,-215,80880,-74338,-84981
1014.1,-70,80522,-74542,-85179
1016.1,-7,80107,-74886,-85481
1018.1,131,80249,-74861,-85418
1020.1,308,80526,-74690,-85232
1022.1,357,80528,-74746,-85301
1024.1,246,80487,-74810,-85401
1026.1,17,80486,-74636,-85264
1028.1,-238,80328,-74484,-85116
1030.1,-308,80175,-74525,-85139
1032.1,53,80421,-74502,-85107
1034.1,813,81015,-74310,-84898
1036.1,1341,81391,-74192,-84728
1038.1,909,81096,-74232,-84700
1040.1,-171,80396,-74300,-84713
1042.1,-707,80020,-74391,-84778
1044.1,-313,80200,-74494,-84900
1046.1,158,80421,-74430,-84893
1048.1,188,80383,-74241,-84749
1050.1,277,80478,-74222,-84731
1052.1,714,80896,-74351,-84839
1054.1,956,81113,-74323,-84785
1056.1,632,80863,-74186,-84593
1058.1,215,80669,-74231,-84569
1060.1,304,80871,-74379,-84691
1062.1,830,81128,-74342,-84671
1064.1,1278,81265,-74169,-84510
1066.1,1351,81471,-74108,-84430
1068.1,1153,81540,-74144,-84456
1070.1,907,81121,-74133,-84450
1072.1,711,80563,-74120,-84413
1074.1,525,80453,-74182,-84411
1076.1,383,80715,-74223,-84400
1078.1,522,80965,-74176,-84362
1080.1,972,81135,-74145,-84368
1082.08,1167,81231,-74159,-84399
1084.05,694,81154,-74127,-84371
1086.03,116,81044,-74059,-84334
1088.0,190,81226,-74018,-84342
1090.0,705,81663,-73969,-84320
1092.0,1009,81901,-73959,-84307
1094.0,1008,81675,-74115,-84451
1096.0,896,81280,-74305,-84626
1098.0,656,81103,-74290,-84593
1100.0,391,81116,-74192,-84489
1102.0,350,81126,-74276,-84583
1104.0,418,81170,-74439,-84765
1106.0,264,81323,-74428,-84791
1108.0,-54,81474,-74287,-84711
1110.0,-230,81516,-74207,-84688
1112.0,-170,81480,-74229,-84734
1114.0,20,81392,-74298,-84807
1116.0,125,81198,-74385,-84895
1118.0,-147,80847,-74479,-84981
1120.0,-659,80454,-74564,-85054
1122.0,-701,80385,-74583,-85083
1124.0,-58,80847,-74492,-85026
1126.0,466,81398,-74416,-84993
1128.0,287,81417,-74539,-85159
1130.0,-152,80968,-74778,-85426
1132.0,-413,80568,-74890,-85539
1134.0,-682,80415,-74856,-85484
1136.0,-894,80490,-74801,-85405
1138.0,-591,80828,-74745,-85329
1140.0,8,81111,-74760,-85335
1142.0,106,80824,-74975,-85560
1144.0,-387,80233,-75206,-85817
1146.0,-737,80141,-75156,-85797
1148.0,-549,80506,-75001,-85671
1150.0,-242,80551,-75095,-85784
1152.0,-379,80178,-75278,-85975
1154.0,-905,80010,-75205,-85910
1156.0,-1118,80252,-75009,-85717
1158.0,-588,80569,-74985,-85667
1160.0,54,80705,-75079,-85716
1162.0,48,80604,-75155,-85764
1164.0,-190,80412,-75238,-85842
1166.0,12,80408,-75281,-85889
1168.0,59,80460,-75227,-85851
1170.0,-722,80173,-75216,-85857
1172.0,-1374,79855,-75286,-85915
1174.0,-878,80139,-75256,-85847
1176.0,-159,80626,-75178,-85751
1178.0,-377,80487,-75308,-85898
1180.0,-825,80051,-75529,-86145
1182.0,-558,80057,-75496,-86131
1184.0,-202,80219,-75277,-85929
1186.0,-450,80038,-75192,-85863
1188.0,-721,79871,-75259,-85948
1190.0,-557,80025,-75305,-86004
1192.0,-436,80165,-75289,-85983
1194.0,-597,80157,-75242,-85925
1196.0,-690,80222,-75182,-85868
1198.0,-614,80339,-75151,-85845
1200.0,-487,80447,-75136,-85815
1201.98,-274,80634,-75117,-85770
1203.95,-114,80712,-75191,-85839
1205.93,-232,80498,-75351,-86017
1207.9,-437,80317,-75367,-86054
1209.9,-531,80322,-75222,-85930
1211.9,-801,80133,-75203,-85925
1213.9,-1281,79792,-75349,-86055
1215.9,-1336,79853,-75387,-86058
1217.9,-761,80232,-75283,-85940
1219.9,-325,80346,-75220,-85902
1221.9,-487,80241,-75177,-85893
1223.9,-629,80321,-75078,-85820
1225.9,-238,80476,-75080,-85841
1227.9,111,80423,-75252,-86014
1229.9,-287,80248,-75367,-86109
1231.9,-1080,80121,-75317,-86042
1233.9,-1308,80083,-75280,-86004
1235.9,-716,80211,-75322,-86040
1237.9,-41,80493,-75273,-85968
1239.9,9,80728,-75098,-85778
1241.9,-364,80809,-75008,-85698
1243.9,-553,80810,-75123,-85839
1245.9,-482,80740,-75304,-86049
1247.9,-468,80546,-75373,-86143
1249.9,-519,80366,-75301,-86083
1251.9,-396,80405,-75174,-85945
1253.9,-90,80544,-75127,-85865
1255.9,138,80399,-75253,-85948
1257.9,-5,79955,-75425,-86087
1259.9,-511,79788,-75372,-86022
1261.9,-890,80189,-75114,-85772
1263.9,-794,80563,-75025,-85705
1265.9,-529,80413,-75226,-85930
1267.9,-399,80223,-75343,-86059
1269.9,-273,80441,-75163,-85876
1271.9,-207,80597,-75004,-85700
1273.9,-404,80398,-75110,-85776
1275.9,-484,80461,-75242,-85881
1277.9,-88,81039,-75164,-85802
1279.9,237,81370,-75030,-85678
1281.9,-55,80988,-75038,-85682
1283.9,-573,80415,-75105,-85739
1285.9,-834,80158,-75100,-85731
1287.9,-953,80122,-75115,-85736
1289.9,-982,80103,-75276,-85890
1291.9,-762,80089,-75452,-86079
1293.9,-527,80113,-75405,-86035
1295.9,-563,80216,-75181,-85781
1297.9,-571,80392,-75080,-85651
1299.9,-277,80474,-75220,-85802
1301.9,-114,80349,-75413,-86024
1303.9,-425,80171,-75498,-86137
1305.9,-689,80129,-75518,-86188
1307.9,-396,80180,-75509,-86209
1309.9,29,80242,-75398,-86117
1311.88,-13,80390,-75207,-85933
1313.85,-316,80636,-75103,-85820
1315.83,-390,80759,-75153,-85832
1317.8,-289,80598,-75249,-85881
1319.8,-310,80366,-75315,-85926
1321.8,-445,80402,-75345,-85964
1323.8,-549,80654,-75299,-85927
1325.8,-660,80649,-75208,-85849
1327.8,-845,80182,-75224,-85894
1329.8,-882,79806,-75337,-86027
1331.8,-447,80152,-75344,-86015
1333.8,213,80904,-75250,-85869
1335.8,361,81185,-75273,-85841
1337.8,-118,80836,-75408,-85946
1339.8,-509,80442,-75430,-85963
1341.8,-475,80323,-75316,-85868
1343.8,-361,80361,-75247,-85834
1345.8,-274,80512,-75261,-85886
1347.8,-163,80730,-75234,-85891
1349.8,-340,80778,-75168,-85836
1351.8,-757,80534,-75213,-85869
1353.8,-804,80214,-75369,-86002
1355.8,-513,80150,-75372,-85993
1357.8,-476,80524,-75094,-85712
1359.8,-579,81073,-74847,-85462
1361.8,-478,81157,-74955,-85577
1363.8,-555,80594,-75235,-85887
1365.8,-899,80138,-75314,-86015
1367.8,-798,80450,-75213,-85958
1369.8,-259,81047,-75178,-85942
1371.8,-173,81085,-75195,-85942
1373.8,-555,80740,-75078,-85773
1375.8,-578,80852,-74860,-85484
1377.8,-281,81378,-74767,-85332
1379.8,-374,81384,-74861,-85410
1381.8,-702,80727,-74927,-85518
1383.8,-620,80403,-74815,-85483
1385.8,-357,80761,-74690,-85420
1387.8,-460,80997,-74737,-85489
1389.8,-523,80896,-74811,-85561
1391.8,-81,81176,-74716,-85462
1393.8,135,81750,-74551,-85301
1395.8,-439,81771,-74489,-85238
1397.8,-859,81435,-74498,-85226
1399.8,-396,81605,-74515,-85211
1401.8,68,82062,-74548,-85217
1403.8,-169,82031,-74564,-85211
1405.8,-485,81627,-74599,-85226
1407.8,-429,81406,-74769,-85397
1409.8,-266,81532,-74905,-85547
1411.8,120,82040,-74686,-85316
1413.8,841,82711,-74329,-84917
1415.8,1058,82769,-74379,-84939
1417.8,189,81904,-74751,-85300
1419.8,-854,80995,-74890,-85410
1421.8,-976,80838,-74781,-85271
1423.8,-467,81090,-74828,-85324
1425.8,-277,81164,-74988,-85514
1427.8,-500,81091,-74993,-85548
1429.8,-567,81015,-75014,-85592
1431.78,-422,80773,-75285,-85861
1433.75,-502,80308,-75568,-86100
1435.73,-780,79864,-75607,-86094
1437.7,-872,79654,-75543,-86034
1439.7,-783,79728,-75527,-86042
1441.7,-652,80091,-75506,-86025
1443.7,-369,80583,-75522,-86043
1445.7,-105,80840,-75636,-86184
1447.7,-302,80643,-75681,-86259
1449.7,-823,80195,-75558,-86156
1451.7,-1072,79874,-75502,-86109
1453.7,-886,79875,-75650,-86239
1455.7,-548,80119,-75785,-86327
1457.7,-284,80356,-75764,-86267
1459.7,-221,80401,-75705,-86209
1461.7,-351,80346,-75659,-86185
1463.7,-424,80385,-75555,-86107
1465.7,-325,80442,-75491,-86075
1467.7,-333,80269,-75617,-86223
1469.7,-588,79954,-75815,-86415
1471.7,-770,79895,-75860,-86435
1473.7,-660,80130,-75789,-86331
1475.7,-485,80202,-75789,-86286
1477.7,-436,79980,-75838,-86305
1479.7,-404,79915,-75784,-86276
1481.7,-413,80123,-75692,-86244
1483.7,-677,80085,-75766,-86353
1485.7,-1063,79709,-75928,-86530
1487.7,-1125,79603,-75901,-86543
1489.7,-855,79876,-75730,-86412
1491.7,-745,79917,-75706,-86357
1493.7,-868,79697,-75790,-86344
1495.7,-711,79854,-75731,-86191
1497.7,-236,80331,-75634,-86039
1499.7,-137,80428,-75729,-86125
1501.7,-567,80144,-75861,-86301
1503.7,-803,80011,-75826,-86332
1505.7,-646,79976,-75777,-86327
1507.7,-708,79790,-75834,-86404
1509.7,-1017,79781,-75815,-86402
1511.7,-950,80132,-75686,-86255
1513.7,-614,80344,-75643,-86137
1515.7,-625,80187,-75692,-86106
1517.7,-761,80050,-75705,-86097
1519.7,-468,80073,-75745,-86144
1521.7,-195,80011,-75840,-86241
1523.7,-614,79891,-75833,-86269
1525.7,-1146,79922,-75715,-86249
1527.7,-843,80084,-75614,-86280
1529.7,-117,80227,-75460,-86264
1531.7,41,80182,-75237,-86186
1533.7,-222,79865,-75219,-86309
1535.7,-302,79528,-75390,-86609
1537.7,-497,79455,-75291,-86642
1539.7,-1032,79484,-74882,-86346
1541.68,-1079,79477,-74612,-86133
1543.65,-279,79728,-74487,-86021
1545.63,390,80237,-74198,-85679
1547.6,393,80477,-73991,-85238
1549.6,365,80436,-74181,-84960
1551.6,551,80749,-74364,-84522
1553.6,471,81497,-74193,-83617
1555.6,199,82140,-74034,-82594
1557.6,208,82687,-74091,-81729
1559.6,372,83537,-74097,-80792
1561.6,448,84444,-74197,-79735
1563.6,657,84919,-74815,-78836
1565.6,962,85151,-75770,-78170
1567.6,933,85439,-76742,-77873
1569.6,677,85438,-77931,-78534
1571.6,546,84759,-79348,-80479
1573.6,133,83539,-80491,-83182
1575.6,-1011,82190,-81244,-85810
1577.6,-2206,81190,-81928,-87800
1579.6,-2619,80733,-82467,-88949
1581.6,-2578,80279,-82602,-89497
1583.6,-2653,79379,-82479,-89874
1585.6,-2622,78669,-82221,-90104
1587.6,-2347,78738,-81653,-89963
1589.6,-2256,78970,-80853,-89572
1591.6,-2270,78902,-80111,-89164
1593.6,-1825,79148,-79392,-88649
1595.6,-1143,79800,-78628,-88030
1597.6,-946,79996,-78064,-87619
1599.6,-1165,79705,-77729,-87439
1601.6,-1271,79726,-77299,-87164
1603.6,-1193,80003,-76783,-86816
1605.6,-967,80047,-76503,-86706
1607.6,-559,80150,-76373,-86736
1609.6,-428,80485,-76093,-86571
1611.6,-951,80458,-75786,-86284
1613.6,-1417,80045,-75700,-86144
1615.6,-1056,79958,-75706,-86112
1617.6,-462,80129,-75649,-86072
1619.6,-499,80020,-75626,-86081
1621.6,-726,79994,-75644,-86134
1623.6,-466,80447,-75582,-86139
1625.6,-260,80608,-75526,-86162
1627.6,-693,79991,-75606,-86290
1629.6,-1033,79533,-75709,-86407
1631.6,-593,79953,-75684,-86366
1633.6,-108,80647,-75525,-86147
1635.6,-318,80968,-75288,-85842
1637.6,-648,80946,-75152,-85688
1639.6,-465,80642,-75299,-85863
1641.6,-181,80204,-75550,-86135
1643.6,-235,80103,-75577,-86179
1645.6,-363,80408,-75443,-86093
1647.6,-378,80654,-75387,-86096
1649.6,-501,80666,-75375,-86111
1651.6,-735,80555,-75373,-86086
1653.6,-738,80333,-75494,-86151
1655.6,-438,80209,-75604,-86195
1657.6,-244,80372,-75473,-86026
1659.6,-469,80419,-75337,-85896
1661.58,-839,80113,-75507,-86093
1663.55,-891,80024,-75697,-86305
1665.53,-647,80364,-75528,-86163
1667.5,-464,80453,-75258,-85933
1669.5,-462,80100,-75293,-85998
1671.5,-520,79974,-75471,-86168
1673.5,-543,80255,-75441,-86092
1675.5,-488,80419,-75301,-85901
1677.5,-404,80268,-75334,-85914
1679.5,-394,80114,-75489,-86085
1681.5,-396,80209,-75524,-86149
1683.5,-333,80484,-75450,-86097
1685.5,-382,80594,-75455,-86125
1687.5,-597,80372,-75497,-86196
1689.5,-676,80272,-75347,-86064
1691.5,-605,80667,-75048,-85749
1693.5,-730,81033,-74954,-85609
1695.5,-880,80805,-75186,-85795
1697.5,-549,80393,-75429,-86023
1699.5,-37,80351,-75415,-86024
1701.5,-60,80448,-75278,-85917
1703.5,-431,80370,-75273,-85952
1705.5,-522,80331,-75385,-86114
1707.5,-425,80468,-75428,-86199
1709.5,-393,80563,-75365,-86147
1711.5,-174,80536,-75293,-86048
1713.5,97,80472,-75210,-85911
1715.5,-167,80372,-75089,-85728
1717.5,-630,80358,-75062,-85663
1719.5,-403,80570,-75213,-85815
1721.5,51,80652,-75366,-86000
1723.5,-392,80224,-75358,-86039
1725.5,-1220,79866,-75255,-85975
1727.5,-1023,80389,-75133,-85872
1729.5,-8,81276,-75001,-85742
1731.5,431,81338,-74957,-85689
1733.5,5,80674,-75035,-85744
1735.5,-456,80403,-75064,-85741
1737.5,-506,80804,-74963,-85622
1739.5,-303,81173,-74908,-85572
1741.5,-72,81114,-74970,-85655
1743.5,-5,80833,-74991,-85705
1745.5,-128,80552,-74938,-85682
1747.5,-205,80370,-74967,-85733
1749.5,-172,80351,-75059,-85838
1751.5,-275,80421,-75022,-85805
1753.5,-529,80450,-74882,-85651
1755.5,-619,80503,-74812,-85549
1757.5,-408,80737,-74760,-85472
1759.5,-90,81043,-74611,-85325
1761.5,117,81161,-74528,-85261
1763.5,183,81131,-74655,-85405
1765.5,214,81180,-74781,-85537
1767.5,209,81231,-74712,-85468
1769.5,42,81083,-74609,-85357
1771.48,-130,80922,-74649,-85367
1773.45,15,80961,-74707,-85374
1775.43,276,80953,-74620,-85245
1777.4,184,80723,-74463,-85078
1779.4,-60,80598,-74405,-85032
1781.4,-9,80756,-74456,-85090
1783.4,117,80896,-74475,-85108
1785.4,89,80905,-74417,-85051
1787.4,302,81032,-74384,-85019
1789.4,765,81277,-74400,-85016
1791.4,817,81410,-74357,-84921
1793.4,434,81428,-74262,-84765
1795.4,170,81378,-74258,-84733
1797.4,6,81201,-74353,-84831
1799.4,-77,81125,-74401,-84883
1801.4,478,81438,-74369,-84845
1803.4,1350,81795,-74331,-84798
1805.4,1231,81718,-74270,-84733
1807.4,230,81477,-74179,-84636
1809.4,-140,81465,-74203,-84647
1811.4,279,81395,-74391,-84807
1813.4,361,81084,-74500,-84880
1815.4,165,81083,-74348,-84703
1817.4,559,81656,-74112,-84457
1819.4,1180,82161,-74026,-84366
1821.4,1157,82078,-74073,-84412
1823.4,825,81789,-74152,-84503
1825.4,879,81883,-74222,-84588
1827.4,1010,82296,-74221,-84589
1829.4,713,82475,-74145,-84508
1831.4,302,82167,-74146,-84513
1833.4,211,81695,-74292,-84671
1835.4,280,81440,-74423,-84801
1837.4,235,81373,-74416,-84790
1839.4,58,81305,-74367,-84762
1841.4,-193,81278,-74378,-84825
1843.4,-282,81483,-74432,-84930
1845.4,89,81886,-74493,-85021
1847.4,592,82081,-74561,-85108
1849.4,543,81792,-74615,-85174
1851.4,72,81455,-74598,-85159
1853.4,-158,81599,-74530,-85086
1855.4,-225,81767,-74566,-85130
1857.4,-535,81286,-74797,-85383
1859.4,-724,80779,-74988,-85592
1861.4,-392,81178,-74876,-85486
1863.4,-54,81826,-74687,-85306
1865.4,-225,81523,-74838,-85471
1867.4,-594,80701,-75185,-85827
1869.4,-736,80578,-75252,-85898
1871.4,-628,81067,-75082,-85723
1873.4,-367,81255,-75097,-85720
1875.4,-163,81051,-75311,-85915
1877.4,-260,80958,-75401,-86003
1879.4,-497,80984,-75337,-85953
1881.4,-576,80830,-75331,-85958
1883.4,-665,80580,-75393,-86025
1885.4,-907,80521,-75412,-86052
1887.4,-897,80648,-75430,-86080
1889.4,-482,80743,-75503,-86155
1891.38,-276,80697,-75552,-86193
1893.35,-562,80613,-75532,-86157
1895.33,-701,80671,-75523,-86132
1897.3,-361,80850,-75585,-86176
1899.3,-216,80850,-75661,-86241
1901.3,-653,80593,-75645,-86241
1903.3,-942,80521,-75512,-86144
1905.3,-506,80869,-75387,-86046
1907.3,24,81160,-75408,-86067
1909.3,-140,81027,-75514,-86149
1911.3,-719,80814,-75560,-86158
1913.3,-934,80798,-75581,-86148
1915.3,-693,80725,-75673,-86229
1917.3,-504,80530,-75744,-86307
1919.3,-571,80549,-75716,-86294
1921.3,-615,80776,-75703,-86303
1923.3,-534,80823,-75732,-86358
1925.3,-598,80622,-75654,-86293
1927.3,-821,80485,-75487,-86118
1929.3,-792,80524,-75450,-86060
1931.3,-469,80529,-75594,-86192
1933.3,-374,80416,-75728,-86326
1935.3,-716,80403,-75686,-86287
1937.3,-1101,80557,-75522,-86121
1939.3,-1238,80598,-75448,-86047
1941.3,-1141,80520,-75536,-86138
1943.3,-822,80718,-75577,-86178
1945.3,-448,81084,-75486,-86088
1947.3,-362,80992,-75538,-86142
1949.3,-495,80525,-75797,-86388
1951.3,-454,80424,-75876,-86447
1953.3,-262,80719,-75680,-86236
1955.3,-214,80814,-75614,-86160
1957.3,-287,80706,-75791,-86324
1959.3,-396,80768,-75860,-86400
1961.3,-660,80840,-75749,-86324
1963.3,-972,80631,-75691,-86295
1965.3,-1010,80403,-75672,-86276
1967.3,-749,80526,-75566,-86158
1969.3,-370,80898,-75499,-86082
1971.3,-62,81123,-75566,-86132
1973.3,-195,80971,-75641,-86178
1975.3,-849,80623,-75679,-86196
1977.3,-1298,80481,-75728,-86248
1979.3,-989,80618,-75706,-86237
1981.3,-506,80667,-75619,-86153
1983.3,-524,80467,-75669,-86207
1985.3,-755,80336,-75824,-86375
1987.3,-815,80482,-75773,-86330
1989.3,-899,80698,-75522,-86061
1991.3,-992,80806,-75440,-85958
1993.3,-743,80877,-75646,-86161
1995.3,-365,80941,-75833,-86359
1997.3,-377,80969,-75757,-86282
1999.3,-635,80997,-75529,-86040
2001.28,-684,80965,-75407,-85914
2003.25,-505,80796,-75465,-85987
2005.23,-273,80702,-75564,-86103
2007.2,-163,80791,-75603,-86141
2009.2,-475,80744,-75622,-86145
2011.2,-974,80552,-75612,-86114
2013.2,-779,80748,-75511,-85993
2015.2,16,81201,-75442,-85918
2017.2,94,81082,-75587,-86077
2019.2,-735,80530,-75811,-86326
2021.2,-1067,80558,-75826,-86356
2023.2,-527,81103,-75640,-86175
2025.2,-309,81167,-75488,-86020
2027.2,-802,80653,-75479,-85992
2029.2,-1229,80208,-75605,-86089
2031.2,-1283,80020,-75805,-86266
2033.2,-1013,80188,-75844,-86293
2035.2,-210,80938,-75564,-86009
2037.2,592,81689,-75269,-85717
2039.2,333,81602,-75302,-85763
2041.2,-652,81085,-75478,-85956
2043.2,-1046,80996,-75505,-85996
2045.2,-749,81106,-75512,-86005
2047.2,-594,80901,-75637,-86122
2049.2,-666,80638,-75740,-86209
2051.2,-641,80565,-75799,-86242
2053.2,-616,80529,-75891,-86310
2055.2,-584,80645,-75864,-86274
2057.2,-354,80990,-75657,-86073
2059.2,-191,81113,-75564,-85990
2061.2,-330,80874,-75689,-86127
2063.2,-419,80788,-75764,-86220
2065.2,-359,80928,-75708,-86171
2067.2,-618,80801,-75691,-86136
2069.2,-1091,80478,-75699,-86116
2071.2,-1052,80481,-75643,-86038
2073.2,-544,80745,-75633,-86008
2075.2,-352,80855,-75724,-86086
2077.2,-555,80878,-75761,-86144
2079.2,-550,81040,-75681,-86121
2081.2,-344,81138,-75618,-86108
2083.2,-442,80993,-75645,-86147
2085.2,-668,80916,-75705,-86194
2087.2,-424,81177,-75739,-86205
2089.2,51,81506,-75699,-86139
2091.2,-54,81494,-75574,-85995
2093.2,-703,81150,-75453,-85872
2095.2,-1009,80839,-75422,-85861
2097.2,-704,80878,-75411,-85878
2099.2,-412,81219,-75316,-85806
2101.2,-476,81461,-75223,-85729
2103.2,-633,81309,-75267,-85789
2105.2,-723,81037,-75344,-85881
2107.2,-715,81142,-75268,-85803
2109.2,-467,81586,-75119,-85628
2111.2,-156,81882,-75074,-85552
2113.2,-232,81864,-75078,-85538
2115.2,-574,81786,-75020,-85486
2117.2,-627,81769,-74982,-85466
2119.2,-392,81736,-74997,-85496
2121.18,-304,81750,-74936,-85450
2123.15,-440,81865,-74810,-85345
2125.13,-644,81913,-74788,-85339
2127.1,-865,81840,-74872,-85408
2129.1,-915,81878,-74898,-85398
2131.1,-613,82089,-74833,-85304
2133.1,-341,82170,-74804,-85246
2135.1,-535,82001,-74896,-85283
2137.1,-785,81908,-75053,-85381
2139.1,-519,82049,-75167,-85476
2141.1,-173,82092,-75217,-85547
2143.1,-379,81915,-75233,-85585
2145.1,-620,82019,-75155,-85507
2147.1,-162,82584,-74984,-85312
2149.1,446,82874,-74946,-85232
2151.1,302,82412,-75166,-85409
2153.1,-306,81825,-75380,-85599
2155.1,-549,81689,-75371,-85592
2157.1,-381,81655,-75314,-85555
2159.1,-252,81474,-75371,-85629
2161.1,-267,81522,-75441,-85711
2163.1,-322,81720,-75520,-85799
2165.1,-499,81414,-75723,-86014
2167.1,-802,80706,-75949,-86241
2169.1,-911,80473,-76027,-86296
2171.1,-681,80842,-76032,-86270
2173.1,-504,81015,-76064,-86295
2175.1,-612,80725,-76047,-86283
2177.1,-627,80520,-75979,-86205
2179.1,-402,80570,-75996,-86225
2181.1,-378,80496,-76099,-86380
2183.1,-614,80308,-76164,-86506
2185.1,-698,80307,-76179,-86530
2187.1,-709,80372,-76193,-86500
2189.1,-871,80393,-76158,-86406
2191.1,-802,80654,-76065,-86263
2193.1,-412,80988,-76043,-86224
2195.1,-383,80805,-76148,-86351
2197.1,-831,80330,-76250,-86484
2199.1,-1064,80260,-76259,-86517
2201.1,-980,80372,-76245,-86528
2203.1,-962,80194,-76236,-86542
2205.1,-799,80226,-76181,-86483
2207.1,-335,80779,-76106,-86376
2209.1,-199,81022,-76072,-86296
2211.1,-609,80597,-76034,-86206
2213.1,-804,80394,-75984,-86126
2215.1,-499,80758,-76039,-86196
2217.1,-383,80881,-76207,-86402
2219.1,-755,80481,-76321,-86543
2221.1,-1133,80214,-76303,-86556
2223.1,-1235,80312,-76234,-86536
2225.1,-1159,80384,-76197,-86516
2227.1,-897,80376,-76218,-86485
2229.1,-514,80518,-76258,-86445
2231.08,-319,80688,-76243,-86377
2233.05,-380,80656,-76218,-86333
2235.03,-455,80530,-76312,-86429
2237.0,-463,80461,-76475,-86612
2239.0,-472,80370,-76553,-86727
2241.0,-448,80260,-76550,-86770
2243.0,-438,80344,-76492,-86762
2245.0,-576,80637,-76288,-86582
2247.0,-784,80816,-76032,-86285
2249.0,-917,80671,-76024,-86178
2251.0,-1002,80371,-76256,-86321
2253.0,-988,80197,-76364,-86404
2255.0,-775,80252,-76219,-86283
2257.0,-552,80466,-76075,-86176
2259.0,-512,80669,-76110,-86256
2261.0,-512,80666,-76217,-86436
2263.0,-470,80388,-76266,-86601
2265.0,-549,79976,-76221,-86724
2267.0,-738,79637,-76058,-86751
2269.0,-872,79467,-75815,-86659
2271.0,-936,79484,-75613,-86565
2273.0,-887,79747,-75457,-86534
2275.0,-582,80289,-75207,-86444
2277.0,-115,80922,-74847,-86215
2279.0,217,81261,-74538,-85937
2281.0,258,81075,-74362,-85649
2283.0,102,80570,-74342,-85325
2285.0,25,80319,-74529,-84966
2287.0,232,80802,-74740,-84403
2289.0,552,81933,-74644,-83367
2291.0,726,83133,-74422,-82040
2293.0,853,84024,-74692,-80958
2295.0,1053,84761,-75523,-80177
2297.0,1095,85518,-76328,-79262
2299.0,838,86160,-76896,-78155
2301.0,556,86654,-77608,-77332
2303.0,455,87072,-78639,-77245
2305.0,370,87020,-79785,-78213
2307.0,66,86013,-80908,-80408
2309.0,-548,84451,-81937,-83391
2311.0,-1451,83218,-82726,-86175
2313.0,-2375,82465,-83282,-88147
2315.0,-2860,81711,-83705,-89414
2317.0,-2758,80742,-83865,-90184
2319.0,-2435,79761,-83583,-90471
2321.0,-2245,79113,-82956,-90364
2323.0,-2170,79079,-82168,-90041
2325.0,-2107,79444,-81309,-89605
2327.0,-1952,79655,-80495,-89113
2329.0,-1538,79732,-79776,-88591
2331.0,-1049,80108,-79027,-87999
2333.0,-1000,80548,-78231,-87394
2335.0,-1296,80552,-77586,-86949
2337.0,-1281,80471,-77169,-86701
2339.0,-933,80755,-76877,-86565
2341.0,-711,80953,-76690,-86544
2343.0,-558,80740,-76566,-86569
2345.0,-415,80661,-76320,-86407
2347.0,-603,80906,-76003,-86088
2349.0,-746,80906,-75968,-85998
2350.98,-266,80574,-76205,-86193
2352.95,-67,80379,-76230,-86228
2354.93,-1055,80351,-75928,-85978
2356.9,-1916,80327,-75763,-85873
2358.9,-1368,80458,-75932,-86105
2360.9,-570,80656,-76108,-86355
2362.9,-625,80656,-76092,-86400
2364.9,-679,80708,-76003,-86320
2366.9,-356,80950,-75926,-86187
2368.9,-520,80844,-75912,-86093
2370.9,-867,80408,-76022,-86148
2372.9,-414,80494,-76079,-86198
2374.9,90,80983,-75892,-86040
2376.9,-412,80870,-75691,-85878
2378.9,-947,80457,-75730,-85958
2380.9,-467,80814,-75795,-86065
2382.9,-27,81350,-75732,-86037
2384.9,-631,80845,-75829,-86137
2386.9,-1261,80053,-76126,-86388
2388.9,-938,80344,-76163,-86356
2390.9,-413,81092,-75866,-86015
2392.9,-379,81059,-75749,-85893
2394.9,-321,80677,-75945,-86102
2396.9,-120,80722,-76025,-86196
2398.9,-505,80682,-75880,-86078
2400.9,-1243,80186,-75855,-86092
2402.9,-1149,80021,-76004,-86271
2404.9,-312,80523,-76042,-86314
2406.9,-92,80882,-75942,-86183
2408.9,-697,80772,-75873,-86057
2410.9,-911,80823,-75787,-85924
2412.9,-353,81172,-75624,-85747
2414.9,-1,81219,-75565,-85703
2416.9,-306,80890,-75715,-85882
2418.9,-577,80752,-75888,-86096
2420.9,-429,80962,-75922,-86173
2422.9,-293,81116,-75880,-86152
2424.9,-386,81013,-75839,-86106
2426.9,-456,80857,-75781,-86025
2428.9,-529,80781,-75717,-85922
2430.9,-833,80642,-75739,-85890
2432.9,-1132,80416,-75850,-85961
2434.9,-1029,80376,-75911,-86025
2436.9,-621,80652,-75821,-85973
2438.9,-253,81020,-75669,-85862
2440.9,-105,81277,-75584,-85812
2442.9,-280,81317,-75608,-85865
2444.9,-655,81028,-75726,-85994
2446.9,-763,80725,-75794,-86041
2448.9,-496,81003,-75593,-85791
2450.9,-369,81611,-75234,-85392
2452.9,-514,81651,-75171,-85327
2454.9,-489,81135,-75504,-85683
2456.9,-343,80818,-75813,-86000
2458.9,-455,80757,-75857,-86036
2460.88,-525,80653,-75774,-85976
2462.85,-219,80803,-75641,-85898
2464.83,-41,81277,-75483,-85774
2466.8,-316,81428,-75494,-85764
2468.8,-480,81174,-75671,-85896
2470.8,-221,81182,-75696,-85877
2472.8,9,81413,-75503,-85655
2474.8,-45,81232,-75405,-85564
2476.8,-218,80796,-75517,-85712
2478.8,-454,80696,-75607,-85831
2480.8,-708,80799,-75530,-85761
2482.8,-730,80803,-75362,-85603
2484.8,-477,80957,-75232,-85488
2486.8,-223,81284,-75229,-85475
2488.8,-139,81324,-75325,-85539
2490.8,-151,81130,-75379,-85562
2492.8,-151,81175,-75347,-85504
2494.8,-92,81341,-75325,-85469
2496.8,-35,81288,-75283,-85447
2498.8,-99,81258,-75121,-85319
2500.8,-222,81428,-74992,-85198
2502.8,-190,81433,-75079,-85272
2504.8,20,81251,-75167,-85354
2506.8,165,81323,-75023,-85201
2508.8,48,81541,-74886,-85026
2510.8,-237,81482,-74956,-85047
2512.8,-352,81366,-74970,-85032
2514.8,-54,81564,-74808,-84856
2516.8,388,81810,-74747,-84776
2518.8,452,81818,-74809,-84825
2520.8,180,81773,-74748,-84774
2522.8,99,81754,-74660,-84693
2524.8,227,81667,-74717,-84733
2526.8,132,81704,-74753,-84735
2528.8,-45,81950,-74725,-84669
2530.8,119,82030,-74843,-84743
2532.8,287,81823,-74934,-84798
2534.8,6,81746,-74683,-84531
2536.8,-174,81942,-74373,-84213
2538.8,327,82062,-74417,-84245
2540.8,937,81999,-74592,-84413
2542.8,982,82030,-74548,-84361
2544.8,853,82271,-74431,-84217
2546.8,1020,82527,-74436,-84189
2548.8,1087,82540,-74465,-84192
2550.8,693,82218,-74474,-84179
2552.8,279,81847,-74548,-84228
2554.8,333,81886,-74605,-84274
2556.8,718,82293,-74533,-84222
2558.8,1047,82531,-74478,-84203
2560.8,1096,82452,-74571,-84331
2562.8,805,82459,-74626,-84411
2564.8,350,82650,-74489,-84281
2566.8,101,82649,-74378,-84162
2568.8,174,82402,-74502,-84282
2570.8,267,82289,-74666,-84452
2572.8,106,82394,-74628,-84428
2574.8,-188,82409,-74536,-84358
2576.8,-235,82269,-74626,-84473
2578.8,168,82286,-74771,-84643
2580.78,678,82593,-74733,-84633
2582.75,652,82789,-74636,-84566
2584.73,7,82379,-74788,-84747
2586.7,-557,81550,-75150,-85130
2588.7,-516,81095,-75358,-85343
2590.7,-176,81349,-75285,-85251
2592.7,-61,81731,-75166,-85116
2594.7,-199,81708,-75168,-85134
2596.7,-305,81555,-75231,-85233
2598.7,-307,81674,-75290,-85316
2600.7,-438,81813,-75333,-85374
2602.7,-737,81591,-75376,-85433
2604.7,-831,81269,-75511,-85578
2606.7,-627,81306,-75701,-85767
2608.7,-616,81553,-75696,-85761
2610.7,-829,81583,-75517,-85574
2612.7,-621,81403,-75566,-85604
2614.7,-179,81238,-75856,-85878
2616.7,-492,81102,-75877,-85902
2618.7,-1315,81014,-75577,-85618
2620.7,-1422,81011,-75519,-85573
2622.7,-907,80908,-75812,-85878
2624.7,-696,80725,-75950,-86026
2626.7,-534,80860,-75819,-85892
2628.7,64,81227,-75815,-85873
2630.7,315,81248,-75982,-86030
2632.7,-250,81033,-75992,-86036
2634.7,-683,81173,-75862,-85897
2636.7,-517,81401,-75870,-85902
2638.7,-538,81072,-75980,-86022
2640.7,-949,80547,-76008,-86060
2642.7,-982,80569,-76053,-86103
2644.7,-534,80966,-76191,-86239
2646.7,-289,81219,-76170,-86219
2648.7,-416,81328,-75912,-85950
2650.7,-548,81341,-75803,-85816
2652.7,-526,81150,-76012,-86014
2654.7,-313,81082,-76156,-86162
2656.7,39,81447,-76016,-86021
2658.7,34,81661,-75920,-85924
2660.7,-601,81175,-76068,-86090
2662.7,-1091,80669,-76153,-86201
2664.7,-745,80870,-75990,-86047
2666.7,-248,81190,-75852,-85906
2668.7,-486,80936,-75927,-85976
2670.7,-1060,80624,-75993,-86035
2672.7,-1159,80847,-75894,-85927
2674.7,-842,81156,-75851,-85877
2676.7,-633,81013,-76047,-86066
2678.7,-724,80688,-76274,-86284
2680.7,-867,80687,-76249,-86259
2682.7,-710,81028,-76042,-86071
2684.7,-411,81242,-75943,-85998
2686.7,-598,80907,-76047,-86107
2688.7,-1185,80334,-76179,-86216
2690.68,-1192,80330,-76184,-86196
2692.65,-451,80962,-76082,-86088
2694.63,-56,81414,-75958,-85964
2696.6,-466,81323,-75853,-85860
2698.6,-815,81140,-75836,-85854
2700.6,-565,81084,-75980,-86021
2702.6,-304,80971,-76168,-86223
2704.6,-545,80888,-76154,-86209
2706.6,-963,80989,-75953,-86003
2708.6,-1044,81054,-75848,-85885
2710.6,-813,80947,-75913,-85925
2712.6,-708,80842,-75963,-85945
2714.6,-862,80788,-75983,-85942
2716.6,-794,80800,-76070,-86023
2718.6,-272,81063,-76086,-86051
2720.6,6,81368,-75934,-85918
2722.6,-523,81163,-75863,-85855
2724.6,-1175,80618,-76006,-85993
2726.6,-1058,80530,-76093,-86073
2728.6,-520,80998,-75986,-85964
2730.6,-339,81428,-75902,-85877
2732.6,-406,81633,-75905,-85867
2734.6,-352,81723,-75859,-85804
2736.6,-408,81503,-75875,-85810
2738.6,-647,81020,-76096,-86034
2740.6,-588,80861,-76272,-86220
2742.6,-279,81157,-76166,-86130
2744.6,-409,81289,-76019,-85998
2746.6,-908,81034,-76068,-86053
2748.6,-932,80882,-76130,-86103
2750.6,-433,81044,-76034,-85997
2752.6,-195,81188,-75936,-85896
2754.6,-413,81131,-75941,-85892
2756.6,-644,80997,-75944,-85875
2758.6,-746,80917,-75885,-85811
2760.6,-776,80993,-75812,-85755
2762.6,-610,81201,-75776,-85740
2764.6,-345,81312,-75838,-85810
2766.6,-340,81275,-75957,-85928
2768.6,-580,81293,-75964,-85924
2770.6,-716,81313,-75882,-85816
2772.6,-665,81095,-75952,-85850
2774.6,-642,80829,-76142,-86009
2776.6,-744,80892,-76161,-86013
2778.6,-845,81143,-76039,-85891
2780.6,-831,81172,-76062,-85925
2782.6,-764,80987,-76150,-86040
2784.6,-664,80931,-76032,-85954
2786.6,-386,81148,-75836,-85769
2788.6,-114,81401,-75839,-85751
2790.6,-372,81370,-75921,-85807
2792.6,-965,81124,-75879,-85745
2794.6,-955,81052,-75829,-85676
2796.6,-311,81205,-75901,-85733
2798.6,-103,81225,-75982,-85811
2800.6,-508,81123,-75994,-85823
2802.6,-515,81274,-75977,-85805
2804.6,-32,81525,-75939,-85774
2806.6,-125,81353,-75905,-85758
2808.6,-865,80890,-75935,-85800
2810.58,-1138,80694,-75977,-85836
2812.55,-757,80731,-75988,-85824
2814.53,-626,80694,-76061,-85866
2816.5,-785,80799,-76164,-85944
2818.5,-482,81217,-76109,-85875
2820.5,-4,81434,-75921,-85693
2822.5,-276,81126,-75836,-85632
2824.5,-951,80805,-75904,-85726
2826.5,-976,80892,-76011,-85847
2828.5,-498,81073,-76139,-85973
2830.5,-338,81045,-76292,-86106
2832.5,-434,80982,-76362,-86140
2834.5,-374,81027,-76291,-86036
2836.5,-413,81041,-76178,-85910
2838.5,-772,80970,-76138,-85865
2840.5,-1004,80940,-76162,-85880
2842.5,-781,81006,-76186,-85909
2844.5,-388,81100,-76209,-85951
2846.5,-220,81172,-76233,-85989
2848.5,-394,81202,-76189,-85957
2850.5,-753,81167,-76038,-85817
2852.5,-883,81151,-75862,-85634
2854.5,-531,81347,-75752,-85494
2856.5,-95,81716,-75708,-85431
2858.5,-168,81871,-75718,-85456
2860.5,-633,81590,-75800,-85568
2862.5,-866,81214,-75901,-85683
2864.5,-778,81136,-75897,-85677
2866.5,-834,81210,-75780,-85563
2868.5,-1044,81190,-75700,-85495
2870.5,-883,81339,-75742,-85540
2872.5,-335,81873,-75811,-85589
2874.5,-76,82246,-75815,-85575
2876.5,-405,81918,-75764,-85533
2878.5,-800,81383,-75647,-85436
2880.5,-741,81458,-75463,-85259
2882.5,-337,82032,-75337,-85130
2884.5,-27,82431,-75333,-85134
2886.5,-32,82440,-75329,-85152
2888.5,-243,82258,-75291,-85126
2890.5,-480,82029,-75341,-85158
2892.5,-692,81863,-75432,-85219
2894.5,-801,81849,-75401,-85155
2896.5,-637,81923,-75321,-85027
2898.5,-273,82062,-75356,-85004
2900.5,-59,82339,-75408,-85021
2902.5,-89,82565,-75352,-84974
2904.5,-142,82408,-75343,-84989
2906.5,-211,82027,-75469,-85132
2908.5,-418,81952,-75531,-85197
2910.5,-542,82210,-75480,-85120
2912.5,-334,82308,-75559,-85143
2914.5,5,82177,-75756,-85284
2916.5,192,82268,-75743,-85247
2918.5,179,82513,-75561,-85065
2920.48,-83,82250,-75641,-85153
2922.45,-559,81522,-75977,-85509
2924.43,-901,81253,-76086,-85649
2926.4,-880,81634,-75910,-85505
2928.4,-685,81705,-75906,-85526
2930.4,-502,81075,-76159,-85783
2932.4,-361,80588,-76291,-85886
2934.4,-381,80759,-76242,-85782
2936.4,-539,81069,-76271,-85762
2938.4,-588,81103,-76348,-85832
2940.4,-629,80960,-76328,-85842
2942.4,-950,80669,-76389,-85937
2944.4,-1157,80376,-76621,-86185
2946.4,-740,80516,-76686,-86259
2948.4,-193,80997,-76455,-86035
2950.4,-148,81201,-76312,-85884
2952.4,-274,81018,-76456,-85998
2954.4,-318,80718,-76616,-86111
2956.4,-652,80283,-76639,-86088
2958.4,-958,79929,-76665,-86094
2960.4,-654,80081,-76723,-86170
2962.4,-599,80298,-76727,-86215
2964.4,-1554,79938,-76707,-86241
2966.4,-2102,79706,-76671,-86241
2968.4,-1115,80442,-76549,-86126
2970.4,-94,81283,-76399,-85945
2972.4,-313,81154,-76369,-85860
2974.4,-704,80618,-76472,-85909
2976.4,-514,80492,-76624,-86028
2978.4,-536,80487,-76740,-86146
2980.4,-759,80412,-76745,-86174
2982.4,-390,80631,-76683,-86129
2984.4,-26,80865,-76690,-86153
2986.4,-557,80549,-76743,-86244
2988.4,-1104,80152,-76719,-86263
2990.4,-753,80353,-76668,-86210
2992.4,-393,80755,-76660,-86145
2994.4,-743,80778,-76617,-86024
2996.4,-896,80652,-76569,-85929
2998.4,-350,80641,-76647,-86016
3000.4,-84,80562,-76715,-86131
3002.4,-624,80368,-76594,-86048
3004.4,-1165,80201,-76481,-85947
3006.4,-1103,80128,-76548,-86032
3008.4,-803,80291,-76569,-86089
3010.4,-715,80664,-76448,-85977
3012.4,-806,80785,-76458,-85929
3014.4,-790,80519,-76615,-85992
3016.4,-502,80400,-76615,-85931
3018.4,-170,80584,-76479,-85798
3020.4,-167,80626,-76453,-85799
3022.4,-403,80524,-76465,-85825
3024.4,-503,80606,-76414,-85804
3026.4,-542,80638,-76497,-85975
3028.4,-795,80318,-76671,-86292
3030.38,-982,79985,-76563,-86353
3032.35,-740,79864,-76227,-86177
3034.33,-490,79689,-76047,-86127
3036.3,-749,79560,-75928,-86124
3038.3,-1097,79855,-75602,-85935
3040.3,-888,80218,-75361,-85830
3042.3,-379,80100,-75439,-85980
3044.3,-94,79955,-75410,-85917
3046.3,157,80370,-75046,-85403
3048.3,628,80824,-74843,-84884
3050.3,862,80785,-75031,-84534
3052.3,514,80895,-75160,-83934
3054.3,117,81761,-75027,-82959
3056.3,255,82907,-75016,-81958
3058.3,720,83831,-75375,-81058
3060.3,1055,84732,-75961,-80135
3062.3,1223,85727,-76616,-79219
3064.3,1287,86554,-77339,-78437
3066.3,1113,87048,-78243,-77954
3068.3,715,87141,-79405,-78174
3070.3,247,86659,-80646,-79481
3072.3,-365,85587,-81656,-81757
3074.3,-1162,84242,-82405,-84409
3076.3,-1875,82993,-83076,-86768
3078.3,-2401,81924,-83667,-88444
3080.3,-2787,80962,-83966,-89419
3082.3,-2648,80335,-83766,-89786
3084.3,-1846,80317,-83074,-89627
3086.3,-1372,80402,-82268,-89284
3088.3,-1950,79838,-81767,-89192
3090.3,-2585,79069,-81437,-89223
3092.3,-2190,79126,-80814,-88870
3094.3,-1464,79753,-79901,-88123
3096.3,-1495,79914,-79068,-87427
3098.3,-1837,79722,-78398,-86920
3100.3,-1559,79969,-77774,-86466
3102.3,-970,80448,-77304,-86142
3104.3,-877,80473,-77088,-86065
3106.3,-1117,80250,-76927,-86052
3108.3,-1078,80293,-76681,-85932
3110.3,-871,80383,-76516,-85824
3112.3,-860,80266,-76514,-85804
3114.3,-761,80360,-76501,-85745
3116.3,-286,80807,-76434,-85654
3118.3,72,80988,-76448,-85689
3120.3,-170,80712,-76496,-85790
3122.3,-651,80561,-76434,-85786
3124.3,-783,80713,-76364,-85759
3126.3,-507,80783,-76409,-85838
3128.3,-159,80767,-76431,-85892
3130.3,-110,80844,-76323,-85793
3132.3,-448,80788,-76201,-85629
3134.3,-769,80536,-76162,-85519
3136.3,-714,80441,-76199,-85509
3138.3,-487,80563,-76267,-85576
3140.3,-329,80680,-76253,-85584
3142.3,-184,80790,-76146,-85496
3144.3,-203,80828,-76148,-85529
3146.3,-501,80622,-76282,-85720
3148.3,-599,80432,-76265,-85755
3150.28,-328,80573,-76050,-85537
3152.25,-318,80770,-75957,-85382
3154.23,-598,80774,-76080,-85430
3156.2,-419,80795,-76204,-85512
3158.2,-25,80811,-76265,-85578
3160.2,-284,80636,-76320,-85665
3162.2,-684,80614,-76291,-85664
3164.2,-261,81002,-76169,-85560
3166.2,319,81258,-76147,-85563
3168.2,74,81030,-76263,-85712
3170.2,-376,80785,-76301,-85756
3172.2,-243,80775,-76186,-85606
3174.2,-100,80670,-76106,-85485
3176.2,-502,80477,-76135,-85494
3178.2,-941,80518,-76112,-85469
3180.2,-937,80702,-76010,-85373
3182.2,-658,80836,-76021,-85404
3184.2,-383,80996,-76158,-85569
3186.2,-365,81015,-76210,-85645
3188.2,-637,80663,-76155,-85618
3190.2,-673,80390,-76143,-85632
3192.2,-250,80640,-76112,-85582
3194.2,-103,80909,-75935,-85346
3196.2,-526,80728,-75795,-85163
3198.2,-665,80564,-75889,-85251
3200.2,-281,80740,-76053,-85422
3202.2,-210,80813,-76088,-85479
3204.2,-408,80697,-76076,-85506
3206.2,-62,80814,-76087,-85548
3208.2,319,81012,-76020,-85487
3210.2,-265,80913,-75869,-85335
3212.2,-1035,80889,-75778,-85233
3214.2,-744,81211,-75816,-85231
3216.2,-90,81233,-75935,-85300
3218.2,-273,80649,-76047,-85401
3220.2,-741,80268,-76047,-85432
3222.2,-512,80578,-75927,-85349
3224.2,-24,80971,-75836,-85281
3226.2,35,81026,-75842,-85306
3228.2,38,81104,-75812,-85296
3230.2,243,81282,-75717,-85205
3232.2,-11,81077,-75739,-85200
3234.2,-799,80548,-75899,-85315
3236.2,-901,80518,-75947,-85335
3238.2,104,81253,-75772,-85161
3240.2,666,81829,-75537,-84942
3242.2,-243,81482,-75402,-84824
3244.2,-1177,80836,-75411,-84847
3246.2,-678,80845,-75551,-85004
3248.2,233,81223,-75742,-85210
3250.2,230,81148,-75885,-85351
3252.2,49,80854,-75958,-85392
3254.2,441,81024,-75902,-85287
3256.2,430,81354,-75631,-84983
3258.2,-333,81265,-75287,-84635
3260.18,-454,81128,-75170,-84526
3262.15,356,81343,-75345,-84713
3264.13,567,81387,-75605,-84998
3266.1,-65,81016,-75739,-85161
3268.1,-128,80927,-75660,-85084
3270.1,395,81314,-75447,-84833
3272.1,258,81490,-75281,-84620
3274.1,-240,81387,-75224,-84527
3276.1,41,81553,-75204,-84472
3278.1,560,81762,-75236,-84474
3280.1,315,81513,-75330,-84555
3282.1,-13,81239,-75329,-84544
3284.1,300,81389,-75195,-84393
3286.1,435,81489,-75124,-84320
3288.1,-13,81338,-75113,-84325
3290.1,-18,81500,-74990,-84199
3292.1,687,81961,-74916,-84081
3294.1,1061,82082,-75090,-84197
3296.1,831,81963,-75201,-84254
3298.1,659,82063,-75003,-84015
3300.1,574,82073,-74905,-83895
3302.1,349,81712,-75149,-84139
3304.1,426,81556,-75269,-84268
3306.1,919,81913,-75032,-84036
3308.1,1102,82211,-74866,-83866
3310.1,765,82136,-74928,-83909
3312.1,582,82052,-74882,-83837
3314.1,809,82125,-74728,-83661
3316.1,970,82151,-74757,-83666
3318.1,779,82076,-74875,-83769
3320.1,460,82003,-74874,-83776
3322.1,334,81991,-74877,-83811
3324.1,455,82026,-74977,-83935
3326.1,527,81968,-75006,-83959
3328.1,389,81826,-74920,-83865
3330.1,466,82002,-74848,-83819
3332.1,1009,82585,-74824,-83835
3334.1,1259,82861,-74838,-83858
3336.1,546,82405,-74895,-83899
3338.1,-351,81879,-74921,-83926
3340.1,-265,81887,-74894,-83921
3342.1,601,82133,-74923,-83973
3344.1,1137,82275,-74994,-84074
3346.1,837,82365,-74955,-84087
3348.1,113,82282,-74873,-84052
3350.1,-322,81901,-74962,-84154
3352.1,-131,81600,-75202,-84388
3354.1,233,81647,-75392,-84581
3356.1,162,81742,-75469,-84675
3358.1,-113,81707,-75495,-84722
3360.1,-81,81690,-75518,-84760
3362.1,-45,81583,-75567,-84812
3364.1,-337,81298,-75615,-84871
3366.1,-329,81255,-75611,-84906
3368.1,310,81597,-75608,-84943
3370.1,587,81715,-75678,-85012
3372.1,-151,81323,-75740,-85051
3374.1,-909,80966,-75754,-85052
3376.1,-666,81020,-75843,-85134
3378.1,42,81226,-75990,-85262
3380.08,221,81336,-75972,-85236
3382.05,-155,81333,-75805,-85090
3384.03,-566,81181,-75749,-85056
3386.0,-849,80902,-75835,-85146
3388.0,-1049,80642,-75912,-85225
3390.0,-988,80512,-76014,-85334
3392.0,-583,80597,-76169,-85486
3394.0,-230,80903,-76191,-85488
3396.0,-291,81169,-76047,-85322
3398.0,-440,81166,-75999,-85265
3400.0,-208,81090,-76130,-85398
3402.0,76,81164,-76193,-85462
3404.0,-148,81201,-76095,-85365
3406.0,-551,81017,-76073,-85354
3408.0,-507,80829,-76247,-85546
3410.0,-345,80851,-76391,-85699
3412.0,-698,80934,-76286,-85582
3414.0,-1173,80888,-76059,-85333
3416.0,-1033,80787,-75996,-85247
3418.0,-547,80753,-76124,-85361
3420.0,-413,80763,-76197,-85428
3422.0,-518,80775,-76080,-85316
3424.0,-372,80826,-75951,-85202
3426.0,-102,80905,-76005,-85273
3428.0,-108,80920,-76160,-85440
3430.0,-284,80856,-76234,-85517
3432.0,-262,80791,-76241,-85520
3434.0,-53,80758,-76273,-85547
3436.0,19,80759,-76270,-85541
3438.0,-198,80821,-76166,-85433
3440.0,-527,80890,-76105,-85365
3442.0,-712,80817,-76212,-85468
3444.0,-664,80659,-76321,-85584
3446.0,-473,80715,-76226,-85507
3448.0,-307,81047,-76029,-85331
3450.0,-304,81275,-75959,-85274
3452.0,-426,81120,-76033,-85339
3454.0,-471,80837,-76121,-85402
3456.0,-373,80779,-76166,-85430
3458.0,-310,80864,-76183,-85445
3460.0,-367,80845,-76206,-85468
3462.0,-390,80791,-76247,-85513
3464.0,-344,80874,-76251,-85537
3466.0,-439,80930,-76174,-85485
3468.0,-733,80731,-76085,-85411
3470.0,-877,80560,-76040,-85368
3472.0,-541,80886,-75989,-85311
3474.0,-9,81443,-75968,-85273
3476.0,53,81428,-76096,-85385
3478.0,-437,80792,-76282,-85566
3480.0,-819,80398,-76312,-85593
3482.0,-704,80629,-76224,-85502
3484.0,-399,80944,-76210,-85493
3486.0,-167,81004,-76242,-85534
3488.0,-15,81034,-76195,-85485
3490.0,-135,81020,-76125,-85415
3492.0,-539,80771,-76132,-85438
3494.0,-718,80548,-76176,-85491
3496.0,-533,80589,-76214,-85512
3497.9,-548,80617,-76273,-85544
3499.9,-845,80585,-76280,-85547
3501.9,-839,80893,-76096,-85377
3503.9,-531,81398,-75783,-85070
3505.9,-417,81442,-75646,-84929
3507.9,-339,81038,-75887,-85174
3509.9,-24,80773,-76294,-85593
3511.9,-41,80755,-76441,-85740
3513.9,-647,80766,-76235,-85520
3515.9,-877,80918,-76027,-85301
3517.9,-223,81210,-76054,-85315
3519.9,292,81236,-76105,-85347
3521.9,-74,80962,-76001,-85234
3523.9,-604,80879,-75939,-85188
3525.9,-615,81076,-76075,-85340
3527.9,-444,81146,-76205,-85466
3529.9,-428,81040,-76165,-85415
3531.9,-435,81033,-76100,-85351
3533.9,-432,81063,-76139,-85393
3535.9,-401,81030,-76159,-85401
3537.9,-146,81208,-76030,-85250
3539.9,142,81551,-75870,-85076
3541.9,-34,81408,-75908,-85116
3543.9,-540,80696,-76137,-85355
3545.9,-715,80336,-76252,-85486
3547.9,-456,80804,-76127,-85370
3549.9,-248,81344,-76035,-85270
3551.9,-341,81270,-76135,-85358
3553.9,-542,80930,-76193,-85407
3555.9,-551,80870,-76107,-85310
3557.9,-241,81052,-76119,-85303
3559.9,83,81194,-76232,-85410
3561.9,-67,81143,-76163,-85351
3563.9,-589,80899,-75978,-85177
3565.9,-812,80720,-76004,-85205
3567.9,-557,80886,-76149,-85359
3569.9,-352,81173,-76095,-85319
3571.9,-429,81148,-75971,-85191
3573.9,-533,80869,-76103,-85295
3575.9,-643,80702,-76344,-85512
3577.9,-807,80763,-76323,-85494
3579.9,-620,80981,-76117,-85296
3581.9,15,81220,-76066,-85236
3583.9,298,81211,-76169,-85330
3585.9,-226,80953,-76194,-85368
3587.9,-785,80830,-76171,-85363
3589.9,-700,80898,-76262,-85454
3591.9,-338,80856,-76348,-85541
3593.9,-122,80845,-76237,-85444
3595.9,27,81119,-76077,-85278
3597.9,17,81255,-76107,-85269
3599.9,-290,80962,-76232,-85362
3601.9,-516,80786,-76260,-85393
3603.9,-424,80973,-76277,-85420
3605.9,-386,81012,-76381,-85521
3607.9,-517,80859,-76408,-85559
3609.88,-442,80956,-76289,-85462
3611.85,-209,81122,-76213,-85385
3613.83,-182,81044,-76215,-85367
3615.8,-241,81073,-76133,-85283
3617.8,-195,81254,-76037,-85197
3619.8,-356,81016,-76140,-85285
3621.8,-743,80559,-76341,-85457
3623.8,-748,80677,-76396,-85507
3625.8,-295,81110,-76341,-85468
3627.8,-78,81085,-76319,-85452
3629.8,-251,80932,-76307,-85440
3631.8,-297,81205,-76277,-85422
3633.8,-252,81310,-76283,-85437
3635.8,-510,80813,-76320,-85444
3637.8,-735,80557,-76342,-85417
3639.8,-459,81026,-76358,-85413
3641.8,-89,81394,-76392,-85462
3643.8,-94,81169,-76470,-85554
3645.8,-239,80923,-76555,-85646
3647.8,-371,80935,-76488,-85601
3649.8,-693,80860,-76245,-85386
3651.8,-1002,80721,-76096,-85237
3653.8,-910,80825,-76162,-85281
3655.8,-597,81111,-76191,-85302
3657.8,-354,81398,-76092,-85211
3659.8,-92,81614,-76091,-85208
3661.8,129,81594,-76165,-85273
3663.8,27,81351,-76052,-85172
3665.8,-241,81237,-75857,-85005
3667.8,-338,81320,-75885,-85050
3669.8,-407,81295,-76031,-85213
3671.8,-583,81235,-75998,-85212
3673.8,-496,81459,-75852,-85086
3675.8,-134,81723,-75823,-85042
3677.8,-183,81581,-75890,-85088
3679.8,-722,81313,-75898,-85097
3681.8,-849,81491,-75823,-85027
3683.8,-277,81966,-75728,-84928
3685.8,185,82186,-75654,-84858
3687.8,160,82126,-75622,-84835
3689.8,77,82127,-75621,-84832
3691.8,4,82185,-75650,-84864
3693.8,-289,82131,-75715,-84946
3695.8,-470,82110,-75733,-84961
3697.8,-290,82236,-75601,-84779
3699.8,-223,82269,-75403,-84522
3701.8,-419,82162,-75308,-84400
3703.8,-363,82204,-75315,-84404
3705.8,-123,82320,-75356,-84450
3707.8,-209,82213,-75451,-84558
3709.8,-250,82211,-75536,-84664
3711.8,261,82685,-75487,-84623
3713.8,643,83030,-75418,-84534
3715.8,279,82641,-75524,-84601
3717.8,-130,82083,-75698,-84726
3719.8,-17,82007,-75752,-84738
3721.8,118,82061,-75803,-84771
3723.8,-12,81843,-75981,-84958
3725.8,-173,81614,-76104,-85101
3727.8,-431,81513,-76037,-85058
3729.78,-693,81344,-75996,-85055
3731.75,-462,81139,-76180,-85275
3733.73,-120,80995,-76409,-85510
3735.7,-542,80822,-76438,-85511
3737.7,-1139,80749,-76351,-85378
3739.7,-771,80976,-76382,-85367
3741.7,-113,81155,-76522,-85488
3743.7,-403,80905,-76577,-85561
3745.7,-965,80601,-76531,-85551
3747.7,-599,80714,-76537,-85583
3749.7,122,80949,-76617,-85679
3751.7,177,80918,-76655,-85731
3753.7,-43,80880,-76651,-85725
3755.7,93,81041,-76685,-85726
3757.7,116,81001,-76706,-85696
3759.7,-449,80581,-76623,-85576
3761.7,-995,80328,-76522,-85465
3763.7,-784,80613,-76540,-85494
3765.7,-161,81010,-76630,-85603
3767.7,-41,81037,-76671,-85672
3769.7,-459,80833,-76681,-85715
3771.7,-569,80715,-76738,-85786
3773.7,-297,80614,-76781,-85815
3775.7,-579,80382,-76706,-85709
3777.7,-1319,80233,-76595,-85560
3779.7,-1202,80381,-76651,-85574
3781.7,-288,80552,-76863,-85768
3783.7,-99,80462,-76970,-85892
3785.7,-716,80380,-76844,-85797
3787.7,-798,80574,-76692,-85670
3789.7,-281,80788,-76708,-85714
3791.7,-73,80855,-76792,-85828
3793.7,-94,80965,-76782,-85831
3795.7,-29,81003,-76739,-85764
3797.7,-270,80739,-76766,-85736
3799.7,-654,80537,-76800,-85716
3801.7,-508,80736,-76768,-85675
3803.7,-161,80934,-76748,-85686
3805.7,-217,80837,-76805,-85769
3807.7,-301,80740,-76868,-85836
3809.7,-290,80694,-76833,-85818
3811.7,-757,80562,-76665,-85696
3813.7,-1255,80658,-76457,-85511
3815.7,-839,80988,-76389,-85402
3817.7,-175,80880,-76531,-85466
3819.7,-274,80422,-76701,-85578
3821.7,-389,80552,-76723,-85578
3823.7,182,81124,-76696,-85548
3825.7,407,81065,-76779,-85643
3827.7,-243,80511,-76857,-85760
3829.7,-628,80457,-76748,-85722
3831.7,-295,80746,-76562,-85644
3833.7,-107,80573,-76520,-85745
3835.7,-224,80141,-76561,-85937
3837.7,-146,80063,-76468,-85971
3839.68,-144,80156,-76246,-85861
3841.65,-530,80067,-76043,-85782
3843.63,-679,80030,-75836,-85709
3845.6,-226,80272,-75554,-85525
3847.6,201,80560,-75304,-85286
3849.6,178,80635,-75205,-85078
3851.6,64,80513,-75199,-84825
3853.6,206,80475,-75231,-84447
3855.6,579,80972,-75314,-83944
3857.6,1072,82100,-75339,-83238
3859.6,1507,83287,-75216,-82289
3861.6,1641,84062,-75230,-81333
3863.6,1468,84697,-75708,-80595
3865.6,1241,85473,-76458,-79928
3867.6,1134,86088,-77123,-79158
3869.6,1056,86368,-77826,-78542
3871.6,823,86608,-78836,-78505
3873.6,457,86737,-79984,-79291
3875.6,119,86196,-81015,-81048
3877.6,-313,84951,-81985,-83608
3879.6,-1208,83650,-82875,-86129
3881.6,-2421,82640,-83428,-87757
3883.6,-3157,81684,-83633,-88593
3885.6,-3015,80662,-83719,-89222
3887.6,-2536,79810,-83623,-89666
3889.6,-2342,79296,-83123,-89626
3891.6,-2351,79090,-82348,-89253
3893.6,-2124,79230,-81601,-88886
3895.6,-1520,79772,-80892,-88486
3897.6,-892,80398,-80095,-87888
3899.6,-764,80580,-79304,-87243
3901.6,-1164,80320,-78718,-86807
3903.6,-1427,80248,-78308,-86557
3905.6,-1037,80715,-77856,-86256
3907.6,-340,81322,-77311,-85847
3909.6,0,81555,-76911,-85569
3911.6,-144,81382,-76802,-85575
3913.6,-414,81081,-76770,-85635
3915.6,-566,80894,-76609,-85508
3917.6,-602,80866,-76489,-85361
3919.6,-469,80873,-76634,-85465
3921.6,-91,80831,-76877,-85707
3923.6,201,80777,-76904,-85775
3925.6,-72,80721,-76706,-85633
3927.6,-606,80687,-76520,-85499
3929.6,-582,80801,-76481,-85509
3931.6,-84,81026,-76500,-85569
3933.6,-3,81135,-76438,-85523
3935.6,-406,81120,-76325,-85381
3937.6,-546,81143,-76330,-85318
3939.6,-353,81145,-76456,-85396
3941.6,-331,81071,-76487,-85438
3943.6,-383,81083,-76357,-85349
3945.6,-237,81128,-76270,-85279
3947.6,-210,80979,-76294,-85304
3949.6,-419,80833,-76270,-85306
3951.6,-370,80945,-76208,-85285
3953.6,-90,80978,-76282,-85371
3955.6,-229,80701,-76411,-85470
3957.6,-668,80638,-76376,-85390
3959.58,-598,81101,-76264,-85242
3961.55,-26,81542,-76276,-85243
3963.53,241,81530,-76338,-85319
3965.5,8,81338,-76330,-85331
3967.5,-123,81238,-76347,-85358
3969.5,181,81223,-76406,-85435
3971.5,490,81344,-76361,-85426
3973.5,213,81499,-76269,-85354
3975.5,-495,81355,-76328,-85385
3977.5,-753,81028,-76426,-85432
3979.5,-219,81026,-76292,-85272
3981.5,301,81297,-76012,-85011
3983.5,201,81372,-75917,-84958
3985.5,-33,81289,-76066,-85145
3987.5,-87,81278,-76247,-85349
3989.5,-464,81069,-76341,-85457
3991.5,-1061,80629,-76341,-85464
3993.5,-908,80648,-76208,-85329
3995.5,-13,81299,-76009,-85112
3997.5,464,81702,-75985,-85056
3999.5,199,81406,-76207,-85247
4001.5,-57,81050,-76375,-85406
4003.5,-56,81059,-76278,-85323
4005.5,-90,81111,-76145,-85211
4007.5,-37,81045,-76208,-85295
4009.5,206,81065,-76303,-85422
4011.5,229,81142,-76243,-85398
4013.5,-58,81142,-76160,-85319
4015.5,-204,81177,-76137,-85266
4017.5,-125,81290,-76031,-85123
4019.5,-76,81359,-75853,-84916
4021.5,35,81410,-75837,-84877
4023.5,229,81441,-75998,-85042
4025.5,68,81271,-76095,-85174
4027.5,-408,81055,-76044,-85152
4029.5,-500,81198,-75979,-85087
4031.5,-137,81506,-75954,-85064
4033.5,64,81470,-75913,-85044
4035.5,96,81282,-75892,-85027
4037.5,279,81346,-75962,-85062
4039.5,206,81367,-76040,-85100
4041.5,-342,81180,-75964,-85011
4043.5,-553,81339,-75742,-84799
4045.5,-130,81835,-75586,-84667
4047.5,44,81844,-75650,-84761
4049.5,-211,81396,-75826,-84961
4051.5,-86,81306,-75921,-85068
4053.5,374,81464,-75935,-85075
4055.5,485,81350,-75934,-85036
4057.5,464,81456,-75831,-84876
4059.5,666,82077,-75620,-84627
4061.5,593,82272,-75543,-84542
4063.5,210,81709,-75689,-84696
4065.5,292,81426,-75793,-84815
4067.5,675,81721,-75695,-84737
4069.5,460,81754,-75566,-84622
4071.5,-61,81470,-75548,-84599
4073.5,-23,81481,-75591,-84623
4075.5,264,81570,-75644,-84650
4077.5,257,81387,-75697,-84669
4079.48,446,81397,-75694,-84635
4081.45,949,81721,-75598,-84524
4083.43,845,81761,-75442,-84361
4085.4,128,81601,-75298,-84207
4087.4,-53,81827,-75246,-84150
4089.4,363,82118,-75303,-84214
4091.4,514,81938,-75393,-84305
4093.4,602,81774,-75441,-84332
4095.4,1071,82058,-75438,-84291
4097.4,1120,82226,-75393,-84205
4099.4,468,82021,-75329,-84099
4101.4,376,82010,-75299,-84036
4103.4,1117,82242,-75342,-84065
4105.4,1297,82206,-75419,-84145
4107.4,708,82069,-75423,-84151
4109.4,645,82322,-75301,-84030
4111.4,1182,82692,-75176,-83907
4113.4,1223,82695,-75204,-83930
4115.4,835,82508,-75321,-84014
4117.4,907,82515,-75314,-83961
4119.4,1232,82686,-75179,-83797
4121.4,1036,82769,-75113,-83720
4123.4,601,82674,-75156,-83760
4125.4,738,82601,-75148,-83769
4127.4,1295,82746,-75078,-83739
4129.4,1519,82967,-75077,-83778
4131.4,1395,83102,-75083,-83799
4133.4,1400,83260,-74965,-83676
4135.4,1344,83288,-74917,-83621
4137.4,795,82821,-75165,-83871
4139.4,207,82265,-75435,-84149
4141.4,223,82357,-75364,-84101
4143.4,453,82701,-75171,-83943
4145.4,363,82508,-75211,-84021
4147.4,397,82208,-75333,-84175
4149.4,820,82398,-75324,-84189
4151.4,844,82463,-75377,-84258
4153.4,262,82089,-75562,-84460
4155.4,115,82192,-75566,-84484
4157.4,625,82857,-75351,-84280
4159.4,670,82852,-75292,-84215
4161.4,58,82085,-75461,-84379
4163.4,-121,81814,-75545,-84478
4165.4,251,82161,-75497,-84462
4167.4,253,82131,-75576,-84563
4169.4,-107,81734,-75792,-84786
4171.4,-153,81678,-75896,-84901
4173.4,-71,81818,-75839,-84858
4175.4,-199,81746,-75794,-84811
4177.4,-75,81753,-75829,-84832
4179.4,344,81951,-75870,-84866
4181.4,277,81863,-75928,-84919
4183.4,-251,81520,-76049,-85035
4185.4,-423,81480,-76129,-85122
4187.4,-313,81656,-76060,-85077
4189.4,-455,81586,-75977,-85018
4191.4,-480,81465,-76048,-85102
4193.4,-58,81636,-76178,-85233
4195.4,193,81788,-76217,-85260
4197.3,-18,81647,-76225,-85245
4199.3,-189,81514,-76268,-85283
4201.3,-158,81595,-76281,-85315
4203.3,-96,81736,-76274,-85325
4205.3,75,81847,-76323,-85377
4207.3,146,81800,-76357,-85413
4209.3,-258,81430,-76287,-85345
4211.3,-717,81061,-76203,-85258
4213.3,-722,81163,-76190,-85240
4215.3,-684,81448,-76186,-85240
4217.3,-823,81360,-76197,-85257
4219.3,-546,81134,-76288,-85347
4221.3,55,81243,-76362,-85415
4223.3,63,81408,-76321,-85374
4225.3,-439,81264,-76307,-85371
4227.3,-446,81187,-76434,-85511
4229.3,85,81476,-76542,-85626
4231.3,286,81676,-76485,-85564
4233.3,-42,81537,-76336,-85405
4235.3,-375,81500,-76202,-85269
4237.3,-473,81687,-76166,-85235
4239.3,-444,81665,-76282,-85351
4241.3,-311,81474,-76403,-85476
4243.3,-99,81543,-76336,-85424
4245.3,81,81764,-76223,-85320
4247.3,191,81830,-76292,-85386
4249.3,148,81889,-76393,-85484
4251.3,-143,81953,-76325,-85420
4253.3,-427,81662,-76261,-85356
4255.3,-371,81176,-76337,-85420
4257.3,-203,81117,-76344,-85416
4259.3,-260,81491,-76217,-85296
4261.3,-324,81761,-76203,-85302
4263.3,-270,81726,-76340,-85445
4265.3,-509,81543,-76366,-85460
4267.3,-983,81343,-76232,-85316
4269.3,-968,81212,-76176,-85260
4271.3,-398,81148,-76305,-85392
4273.3,32,81101,-76471,-85558
4275.3,118,81214,-76497,-85583
4277.3,115,81581,-76353,-85435
4279.3,-57,81857,-76183,-85262
4281.3,-404,81743,-76177,-85263
4283.3,-482,81503,-76327,-85432
4285.3,-198,81438,-76450,-85564
4287.3,-10,81459,-76466,-85572
4289.3,-74,81493,-76434,-85528
4291.3,-165,81615,-76352,-85445
4293.3,-298,81688,-76241,-85328
4295.3,-582,81580,-76215,-85281
4297.3,-780,81500,-76252,-85305
4299.3,-628,81565,-76201,-85270
4301.3,-230,81565,-76121,-85220
4303.3,106,81504,-76178,-85287
4305.3,115,81565,-76279,-85381
4307.3,-240,81558,-76303,-85405
4309.28,-532,81351,-76352,-85460
4311.25,-296,81445,-76393,-85496
4313.23,128,82047,-76231,-85329
4315.2,81,82406,-76047,-85155
4317.2,-185,82085,-76193,-85303
4319.2,-52,81705,-76461,-85546
4321.2,107,81687,-76423,-85487
4323.2,-247,81668,-76245,-85318
4325.2,-462,81537,-76303,-85395
4327.2,66,81598,-76424,-85518
4329.2,490,81774,-76271,-85351
4331.2,46,81784,-76027,-85085
4333.2,-528,81694,-76033,-85068
4335.2,-450,81640,-76171,-85204
4337.2,-140,81617,-76171,-85218
4339.2,-109,81673,-76143,-85188
4341.2,-173,81752,-76283,-85311
4343.2,-195,81651,-76415,-85439
4345.2,-344,81443,-76345,-85374
4347.2,-569,81388,-76279,-85291
4349.2,-645,81467,-76394,-85375
4351.2,-531,81525,-76490,-85465
4353.2,-233,81587,-76438,-85427
4355.2,215,81723,-76366,-85355
4357.2,466,81913,-76238,-85210
4359.2,203,82010,-75995,-84960
4361.2,-213,81794,-75947,-84924
4363.2,-194,81400,-76248,-85239
4365.2,81,81330,-76450,-85446
4367.2,-39,81628,-76272,-85272
4369.2,-519,81798,-76096,-85102
4371.2,-714,81737,-76169,-85174
4373.2,-479,81739,-76228,-85218
4375.2,-218,81763,-76185,-85158
4377.2,-57,81696,-76264,-85234
4379.2,127,81729,-76412,-85400
4381.2,211,81801,-76402,-85409
4383.2,61,81631,-76333,-85341
4385.2,-119,81436,-76383,-85382
4387.2,-152,81587,-76422,-85417
4389.2,-87,81851,-76341,-85335
4391.2,10,81876,-76326,-85308
4393.2,3,81736,-76463,-85436
4395.2,-275,81516,-76545,-85527
4397.2,-601,81197,-76484,-85469
4399.2,-560,81044,-76445,-85413
4401.2,-263,81304,-76466,-85430
4403.2,-89,81716,-76398,-85397
4405.2,-22,81883,-76278,-85313
4407.2,31,81787,-76326,-85366
4409.2,-39,81640,-76522,-85552
4411.2,-40,81605,-76587,-85604
4413.2,246,81677,-76439,-85427
4415.2,261,81633,-76320,-85272
4417.2,-391,81357,-76372,-85317
4419.2,-797,81196,-76443,-85408
4421.2,-295,81419,-76401,-85376
4423.2,-3,81599,-76334,-85299
4425.2,-717,81351,-76324,-85281
4427.2,-1130,81151,-76324,-85280
4429.18,-266,81473,-76323,-85274
4431.15,571,81879,-76377,-85314
4433.13,246,81869,-76471,-85390
4435.1,-302,81686,-76547,-85453
4437.1,-158,81612,-76582,-85494
4439.1,90,81521,-76560,-85496
4441.1,-70,81450,-76507,-85459
4443.1,-250,81618,-76498,-85457
4445.1,-262,81893,-76485,-85450
4447.1,-364,81971,-76332,-85305
4449.1,-536,81757,-76187,-85155
4451.1,-535,81359,-76335,-85279
4453.1,-292,81140,-76609,-85525
4455.1,26,81366,-76617,-85523
4457.1,38,81561,-76475,-85396
4459.1,-410,81209,-76516,-85467
4461.1,-726,80903,-76577,-85552
4463.1,-340,81383,-76407,-85402
4465.1,273,82075,-76263,-85287
4467.1,296,82098,-76357,-85401
4469.1,-214,81714,-76409,-85440
4471.1,-565,81572,-76283,-85286
4473.1,-360,81734,-76235,-85224
4475.1,168,82030,-76295,-85275
4477.1,389,82259,-76258,-85235
4479.1,21,82151,-76219,-85215
4481.1,-358,81903,-76294,-85318
4483.1,-223,82026,-76220,-85254
4485.1,-3,82341,-75907,-84944
4487.1,-125,82265,-75769,-84821
4489.1,-158,81975,-75980,-85042
4491.1,86,82047,-76139,-85195
4493.1,-38,82345,-76002,-85053
4495.1,-653,82353,-75846,-84896
4497.1,-928,82103,-75871,-84917
4499.1,-599,81997,-75896,-84947
4501.1,-343,82135,-75795,-84876
4503.1,-408,82277,-75734,-84850
4505.1,-303,82281,-75813,-84952
4507.1,49,82343,-75832,-84980
4509.1,125,82668,-75636,-84768
4511.1,-191,83029,-75430,-84510
4513.1,-358,83094,-75443,-84460
4515.1,-13,83089,-75550,-84528
4517.1,552,83394,-75554,-84512
4519.1,828,83693,-75556,-84509
4521.1,599,83422,-75669,-84647
4523.1,16,82829,-75719,-84736
4525.1,-436,82666,-75579,-84602
4527.1,-190,83077,-75432,-84425
4529.1,636,83518,-75441,-84399
4531.1,1010,83485,-75526,-84451
4533.1,347,82928,-75642,-84532
4535.1,-389,82283,-75847,-84722
4537.1,-152,82144,-76047,-84937
4539.1,402,82477,-76084,-84990
4541.1,103,82514,-76053,-84966
4543.1,-664,81909,-76161,-85096
4545.1,-798,81344,-76369,-85341
4547.1,-435,81413,-76483,-85473
4549.08,-367,81702,-76488,-85460
4551.05,-481,81640,-76515,-85447
4553.03,-254,81448,-76561,-85457
4555.0,98,81571,-76519,-85402
4557.0,134,81826,-76438,-85334
4559.0,-22,81776,-76494,-85412
4561.0,-70,81513,-76666,-85609
4563.0,-44,81394,-76751,-85727
4565.0,-141,81335,-76733,-85733
4567.0,-420,81082,-76770,-85755
4569.0,-668,80929,-76804,-85744
4571.0,-597,81270,-76671,-85568
4573.0,-352,81684,-76513,-85384
4575.0,-364,81540,-76563,-85436
4577.0,-514,81142,-76703,-85611
4579.0,-305,81160,-76728,-85670
4581.0,58,81453,-76708,-85645
4583.0,-36,81517,-76734,-85661
4585.0,-349,81407,-76737,-85688
4587.0,-203,81343,-76762,-85731
4589.0,178,81206,-76905,-85833
4591.0,89,81002,-76980,-85850
4593.0,-416,80960,-76808,-85656
4595.0,-832,80971,-76646,-85496
4597.0,-1048,80812,-76748,-85599
4599.0,-1024,80801,-76870,-85737
4601.0,-511,81298,-76750,-85646
4603.0,302,81926,-76604,-85527
4605.0,669,82107,-76660,-85606
4607.0,189,81837,-76750,-85703
4609.0,-700,81379,-76752,-85666
4611.0,-1195,80925,-76829,-85678
4613.0,-921,80790,-76986,-85804
4615.0,-338,81069,-76996,-85832
4617.0,-115,81312,-76852,-85710
4619.0,-144,81279,-76743,-85609
4621.0,42,81338,-76699,-85584
4623.0,199,81562,-76672,-85606
4625.0,-92,81592,-76686,-85672
4627.0,-397,81543,-76685,-85674
4629.0,-242,81686,-76634,-85560
4631.0,-52,81624,-76694,-85541
4633.0,-219,81106,-76903,-85703
4635.0,-385,80784,-76963,-85750
4637.0,-352,81036,-76743,-85532
4639.0,-492,81280,-76514,-85328
4641.0,-832,81200,-76469,-85337
4643.0,-782,81227,-76542,-85478
4645.0,-153,81418,-76671,-85694
4647.0,322,81332,-76729,-85880
4649.0,57,81095,-76482,-85781
4651.0,-391,81168,-76037,-85466
4653.0,-237,81322,-75852,-85396
4655.0,165,81108,-75990,-85647
4657.0,90,80828,-76004,-85763
4658.98,-95,80926,-75732,-85562
4660.95,306,81161,-75462,-85299
4662.93,891,81203,-75317,-85026
4664.9,876,81217,-75196,-84598
4666.9,480,81408,-75159,-84093
4668.9,419,81847,-75233,-83553
4670.9,746,82657,-75191,-82772
4672.9,1056,83709,-75032,-81825
4674.9,1232,84603,-75130,-81082
4676.9,1341,85305,-75570,-80459
4678.9,1306,86078,-76018,-79551
4680.9,1183,86836,-76441,-78538
4682.9,1227,87289,-77187,-78039
4684.9,1286,87369,-78306,-78324
4686.9,874,87007,-79482,-79436
4688.9,34,86079,-80567,-81494
4690.9,-750,84814,-81630,-84154
4692.9,-1419,83685,-82594,-86452
4694.9,-2153,82854,-83218,-87760
4696.9,-2749,82113,-83414,-88343
4698.9,-2985,81273,-83360,-88752
4700.9,-2946,80499,-83213,-89123
4702.9,-2600,80236,-82814,-89200
4704.9,-1913,80559,-82010,-88848
4706.9,-1308,80846,-81118,-88357
4708.9,-1200,80665,-80487,-88017
4710.9,-1429,80467,-79901,-87641
4712.9,-1628,80684,-79085,-87014
4714.9,-1566,80958,-78369,-86467
4716.9,-1103,81058,-78100,-86340
4718.9,-452,81382,-78005,-86385
4720.9,-129,81845,-77743,-86265
4722.9,-234,81723,-77399,-86047
4724.9,-362,81145,-77076,-85823
4726.9,-258,81109,-76744,-85531
4728.9,-1,81713,-76535,-85291
4730.9,154,82027,-76538,-85246
4732.9,-94,81769,-76521,-85230
4734.9,-536,81517,-76398,-85152
4736.9,-462,81513,-76432,-85244
4738.9,0,81529,-76613,-85485
4740.9,-216,81485,-76570,-85491
4742.9,-1102,81390,-76341,-85296
4744.9,-1297,81248,-76346,-85330
4746.9,-499,81270,-76543,-85551
4748.9,54,81524,-76542,-85536
4750.9,-70,81685,-76389,-85332
4752.9,36,81651,-76395,-85300
4754.9,590,81708,-76511,-85417
4756.9,690,81828,-76500,-85423
4758.9,162,81771,-76361,-85302
4760.9,-68,81749,-76223,-85180
4762.9,285,81976,-76165,-85135
4764.9,404,82049,-76227,-85224
4766.9,-74,81697,-76347,-85380
4768.9,-508,81379,-76399,-85424
4770.9,-512,81407,-76382,-85339
4772.9,-441,81476,-76382,-85283
4774.9,-450,81510,-76394,-85301
4776.9,-231,81846,-76382,-85316
4778.88,212,82290,-76376,-85320
4780.85,412,82170,-76383,-85346
4782.83,92,81530,-76366,-85366
4784.8,-475,81163,-76329,-85347
4786.8,-802,81364,-76307,-85300
4788.8,-690,81632,-76317,-85260
4790.8,-287,81664,-76349,-85245
4792.8,188,81722,-76337,-85212
4794.8,477,81936,-76228,-85124
4796.8,311,82013,-76130,-85069
4798.8,-163,81815,-76180,-85159
4800.8,-413,81648,-76279,-85296
4802.8,-257,81757,-76239,-85296
4804.8,47,81988,-76111,-85190
4806.8,333,82057,-76088,-85152
4808.8,407,81855,-76197,-85227
4810.8,61,81541,-76314,-85311
4812.8,-235,81507,-76328,-85299
4814.8,140,81906,-76201,-85164
4816.8,600,82251,-76025,-85007
4818.8,210,82078,-75964,-84977
4820.8,-488,81723,-76065,-85097
4822.8,-455,81675,-76221,-85255
4824.8,-28,81765,-76302,-85335
4826.8,-77,81682,-76250,-85288
4828.8,-423,81545,-76150,-85186
4830.8,-369,81567,-76140,-85160
4832.8,214,81862,-76146,-85159
4834.8,866,82397,-75991,-85032
4836.8,956,82646,-75824,-84909
4838.8,330,82099,-75939,-85046
4840.8,-297,81322,-76195,-85295
4842.8,-271,81284,-76229,-85316
4844.8,59,81811,-76084,-85167
4846.8,155,82066,-76018,-85098
4848.8,192,81987,-76021,-85084
4850.8,342,82000,-76000,-85029
4852.8,292,82085,-76011,-85011
4854.8,105,82099,-76010,-85014
4856.8,283,82189,-75877,-84902
4858.8,683,82319,-75742,-84786
4860.8,668,82246,-75812,-84878
4862.8,308,82087,-75974,-85067
4864.8,172,82084,-76000,-85100
4866.8,196,82067,-75914,-84987
4868.8,-10,81906,-75825,-84866
4870.8,-204,81933,-75733,-84763
4872.8,-36,82186,-75683,-84717
4874.8,114,82108,-75760,-84793
4876.8,-75,81668,-75860,-84885
4878.8,-44,81684,-75821,-84844
4880.8,614,82387,-75706,-84738
4882.8,1152,82855,-75667,-84714
4884.8,807,82514,-75687,-84744
4886.8,148,82052,-75675,-84728
4888.8,159,82216,-75629,-84663
4890.8,721,82711,-75590,-84583
4892.8,1076,82928,-75564,-84498
4894.8,1085,82874,-75528,-84417
4896.8,1032,82772,-75457,-84340
4898.78,854,82500,-75404,-84298
4900.75,483,82042,-75471,-84364
4902.73,324,81823,-75611,-84505
4904.7,647,82060,-75650,-84552
4906.7,1058,82418,-75569,-84461
4908.7,1124,82629,-75499,-84355
4910.7,931,82731,-75454,-84273
4912.7,641,82627,-75386,-84186
4914.7,256,82286,-75387,-84178
4916.7,112,82220,-75468,-84261
4918.7,656,82805,-75424,-84226
4920.7,1476,83406,-75241,-84043
4922.7,1664,83262,-75204,-83991
4924.7,1313,82748,-75378,-84145
4926.7,1338,82668,-75493,-84231
4928.7,1786,82917,-75438,-84137
4930.7,1772,82949,-75345,-84015
4932.7,1114,82877,-75265,-83925
4934.7,642,83047,-75184,-83849
4936.7,804,83230,-75171,-83858
4938.7,1130,83129,-75223,-83948
4940.7,1154,82992,-75233,-83991
4942.7,988,83071,-75202,-83974
4944.7,842,83131,-75196,-83971
4946.7,743,83001,-75166,-83941
4948.7,802,82988,-75060,-83831
4950.7,1044,83250,-74984,-83754
4952.7,1077,83338,-75064,-83851
4954.7,695,82947,-75247,-84070
4956.7,389,82568,-75359,-84224
4958.7,461,82618,-75364,-84258
4960.7,504,82700,-75407,-84310
4962.7,464,82621,-75483,-84396
4964.7,824,82983,-75367,-84307
4966.7,1308,83739,-75092,-84052
4968.7,1116,83765,-75065,-84020
4970.7,449,82831,-75406,-84355
4972.7,110,82163,-75709,-84667
4974.7,129,82359,-75719,-84685
4976.7,156,82682,-75639,-84616
4978.7,227,82671,-75614,-84627
4980.7,289,82636,-75557,-84612
4982.7,129,82653,-75525,-84595
4984.7,-93,82478,-75694,-84758
4986.7,-165,82186,-75966,-85023
4988.7,-155,82057,-76077,-85122
4990.7,6,82170,-75990,-85025
4992.7,341,82374,-75857,-84903
4994.7,401,82415,-75793,-84860
4996.7,0,82165,-75850,-84928
4998.7,-324,81882,-76001,-85086
5000.7,-247,81929,-76091,-85190
5002.7,-47,82218,-76062,-85170
5004.7,73,82281,-76090,-85193
5006.7,24,81962,-76230,-85326
5008.68,-310,81691,-76249,-85338
5010.65,-542,81850,-76088,-85167
5012.63,-166,82181,-76024,-85093
5014.6,350,82239,-76141,-85208
5016.6,315,82096,-76222,-85294
5018.6,154,82067,-76245,-85332
5020.6,415,82087,-76338,-85441
5022.6,560,81949,-76380,-85484
5024.6,250,81811,-76272,-85371
5026.6,157,81934,-76247,-85357
5028.6,358,82199,-76354,-85479
5030.6,67,82247,-76286,-85402
5032.6,-496,81975,-76072,-85174
5034.6,-375,81630,-76125,-85228
5036.6,80,81498,-76393,-85490
5038.6,-78,81630,-76411,-85494
5040.6,-432,81886,-76191,-85284
5042.6,-232,82107,-76121,-85249
5044.6,-55,82200,-76193,-85340
5046.6,-423,82170,-76169,-85320
5048.6,-563,82140,-76152,-85310
5050.6,-11,82239,-76283,-85429
5052.6,447,82377,-76355,-85466
5054.6,262,82253,-76263,-85356
5056.6,-147,81812,-76243,-85349
5058.6,-301,81502,-76355,-85468
5060.6,-141,81715,-76345,-85452
5062.6,61,82152,-76183,-85296
5064.6,-93,82257,-76112,-85233
5066.6,-425,82042,-76162,-85273
5068.6,-240,81881,-76196,-85289
5070.6,263,81779,-76268,-85361
5072.6,177,81612,-76440,-85543
5074.6,-198,81690,-76491,-85601
5076.6,169,82204,-76281,-85399
5078.6,723,82558,-76055,-85184
5080.6,171,82204,-76044,-85181
5082.6,-846,81664,-76147,-85295
5084.6,-770,81725,-76198,-85357
5086.6,71,82156,-76170,-85319
5088.6,253,82209,-76090,-85215
5090.6,-242,81885,-76057,-85174
5092.6,-430,81768,-76155,-85288
5094.6,-127,82006,-76245,-85393
5096.6,45,82158,-76172,-85327
5098.6,-305,81903,-76110,-85276
5100.6,-790,81534,-76233,-85407
5102.6,-540,81632,-76321,-85481
5104.6,470,82192,-76197,-85325
5106.6,971,82491,-76104,-85203
5108.6,402,82209,-76224,-85310
5110.6,-38,81940,-76348,-85431
5112.6,223,82044,-76312,-85397
5114.6,70,82072,-76230,-85329
5116.6,-615,81911,-76178,-85304
5118.6,-398,82095,-76126,-85269
5120.6,508,82501,-76123,-85260
5122.6,283,82334,-76183,-85316
5124.6,-770,81753,-76182,-85328
5126.6,-664,81727,-76086,-85242
5128.58,317,82170,-76041,-85183
5130.55,300,82125,-76103,-85222
5132.53,-415,81677,-76160,-85267
5134.5,-243,81749,-76140,-85248
5136.5,413,82256,-76104,-85218
5138.5,255,82347,-76135,-85251
5140.5,-299,82054,-76237,-85343
5142.5,-242,82042,-76323,-85416
5144.5,129,82238,-76321,-85412
5146.5,154,82120,-76276,-85371
5148.5,-43,81795,-76246,-85340
5150.5,-137,81744,-76196,-85288
5152.5,-61,81983,-76130,-85232
5154.5,163,82191,-76132,-85250
5156.5,382,82273,-76151,-85274
5158.5,410,82342,-76079,-85196
5160.5,265,82333,-76045,-85151
5162.5,-8,82080,-76204,-85286
5164.5,-325,81781,-76357,-85400
5166.5,-360,81914,-76270,-85287
5168.5,-55,82444,-76105,-85126
5170.5,59,82674,-76085,-85117
5172.5,-269,82256,-76122,-85156
5174.5,-498,81729,-76122,-85161
5176.5,-191,81675,-76178,-85228
5178.5,293,81955,-76252,-85308
5180.5,374,82092,-76182,-85231
5182.5,21,81921,-76047,-85087
5184.5,-237,81670,-76097,-85125
5186.5,-12,81673,-76308,-85323
5188.5,408,81986,-76398,-85401
5190.5,562,82242,-76259,-85273
5192.5,535,82154,-76114,-85169
5194.5,496,81941,-76172,-85270
5196.5,159,81875,-76337,-85436
5198.5,-402,81881,-76365,-85442
5200.5,-408,81944,-76214,-85288
5202.5,166,82180,-76081,-85163
5204.5,196,82284,-76134,-85202
5206.5,-557,81904,-76319,-85359
5208.5,-829,81510,-76458,-85486
5210.5,-135,81705,-76470,-85491
5212.5,387,82091,-76415,-85427
5214.5,95,81984,-76372,-85389
5216.5,-244,81648,-76345,-85381
5218.5,-94,81689,-76303,-85343
5220.5,148,81984,-76263,-85290
5222.5,163,82080,-76319,-85337
5224.5,73,81981,-76464,-85481
5226.5,-17,81934,-76501,-85508
5228.5,-65,81987,-76307,-85306
5230.5,-37,82037,-76086,-85087
5232.5,-40,82045,-76051,-85057
5234.5,-126,82049,-76085,-85092
5236.5,-197,82033,-76046,-85057
5238.48,-287,81875,-76090,-85102
5240.45,-412,81624,-76319,-85325
5242.43,-344,81602,-76482,-85475
5244.4,-139,81811,-76384,-85365
5246.4,-259,81743,-76247,-85215
5248.4,-547,81395,-76286,-85244
5250.4,-232,81560,-76315,-85281
5252.4,499,82318,-76173,-85161
5254.4,482,82564,-76121,-85134
5256.4,-357,81948,-76360,-85397
5258.4,-738,81592,-76577,-85647
5260.4,-245,81997,-76480,-85569
5262.4,138,82204,-76303,-85364
5264.4,26,81808,-76310,-85311
5266.4,172,81695,-76333,-85303
5268.4,686,82168,-76234,-85220
5270.4,631,82368,-76193,-85206
5272.4,-163,81985,-76236,-85256
5274.4,-657,81705,-76133,-85156
5276.4,-413,81781,-75934,-84977
5278.4,-99,81826,-75916,-84994
5280.4,48,81909,-76006,-85113
5282.4,412,82391,-75929,-85044
5284.4,640,82906,-75780,-84887
5286.4,169,82839,-75813,-84910
5288.4,-320,82457,-75924,-85027
5290.4,-24,82459,-75862,-84977
5292.4,395,82839,-75669,-84783
5294.4,161,83045,-75562,-84673
5296.4,-195,82883,-75614,-84746
5298.4,-159,82653,-75702,-84857
5300.4,-174,82607,-75683,-84820
5302.4,-391,82671,-75578,-84669
5304.4,-302,82720,-75526,-84598
5306.4,97,82843,-75514,-84593
5308.4,234,83093,-75401,-84476
5310.4,31,83272,-75242,-84304
5312.4,51,83346,-75239,-84291
5314.4,583,83590,-75368,-84399
5316.4,1101,83907,-75442,-84453
5318.4,903,83784,-75449,-84473
5320.4,126,83214,-75483,-84525
5322.4,-478,82782,-75502,-84518
5324.4,-594,82763,-75436,-84397
5326.4,-361,82945,-75360,-84285
5328.4,138,83102,-75416,-84314
5330.4,611,83038,-75654,-84524
5332.4,571,82701,-75944,-84821
5334.4,144,82399,-76077,-85006
5336.4,-163,82266,-76082,-85063
5338.4,-353,81984,-76230,-85232
5340.4,-478,81677,-76486,-85482
5342.4,-166,81946,-76429,-85394
5344.4,399,82526,-76047,-84961
5346.4,403,82464,-75915,-84786
5348.4,-137,81784,-76249,-85111
5350.4,-437,81307,-76574,-85457
5352.4,-441,81190,-76594,-85510
5354.4,-557,81195,-76562,-85504
5356.4,-509,81475,-76633,-85584
5358.38,-44,81885,-76653,-85599
5360.35,312,81847,-76627,-85559
5362.33,312,81541,-76683,-85592
5364.3,392,81686,-76692,-85582
5366.3,494,82084,-76536,-85427
5368.3,114,81961,-76467,-85370
5370.3,-443,81433,-76663,-85563
5372.3,-492,81225,-76844,-85725
5374.3,-236,81425,-76783,-85655
5376.3,-180,81640,-76665,-85555
5378.3,-138,81747,-76628,-85553
5380.3,78,81730,-76564,-85508
5382.3,62,81467,-76514,-85438
5384.3,-324,81094,-76633,-85512
5386.3,-633,80954,-76780,-85633
5388.3,-584,81117,-76735,-85596
5390.3,-269,81418,-76619,-85488
5392.3,82,81668,-76647,-85505
5394.3,101,81635,-76728,-85588
5396.3,-246,81374,-76660,-85552
5398.3,-411,81302,-76490,-85418
5400.3,-303,81418,-76444,-85376
5402.3,-456,81303,-76580,-85486
5404.3,-678,81110,-76719,-85578
5406.3,-408,81245,-76719,-85533
5408.3,-180,81379,-76658,-85452
5410.3,-454,81235,-76644,-85456
5412.3,-343,81317,-76679,-85530
5414.3,400,81695,-76721,-85613
5416.3,514,81716,-76705,-85638
5418.3,-165,81462,-76580,-85547
5420.3,-321,81547,-76467,-85434
5422.3,155,81728,-76544,-85459
5424.3,239,81573,-76702,-85538
5426.3,-8,81490,-76698,-85483
5428.3,75,81761,-76604,-85381
5430.3,299,81925,-76642,-85423
5432.3,272,81777,-76718,-85508
5434.3,81,81628,-76627,-85459
5436.3,-170,81562,-76504,-85415
5438.3,-354,81457,-76546,-85549
5440.3,-282,81304,-76575,-85692
5442.3,-202,81091,-76375,-85634
5444.3,-415,80892,-76083,-85489
5446.3,-589,80929,-75876,-85407
5448.3,-431,81091,-75720,-85344
5450.3,-258,81014,-75628,-85305
5452.3,-172,80875,-75640,-85333
5454.3,218,81146,-75554,-85234
5456.3,841,81627,-75259,-84817
5458.3,1137,81821,-75069,-84283
5460.3,1089,81973,-75154,-83819
5462.3,1135,82565,-75168,-83188
5464.3,1238,83314,-74930,-82256
5466.3,1127,83784,-74755,-81378
5468.3,1085,84300,-74765,-80736
5470.3,1380,85182,-74737,-79993
5472.3,1522,85920,-74813,-79034
5474.3,1174,86096,-75426,-78315
5476.3,934,86164,-76514,-78164
5478.28,1076,86411,-77676,-78590
5480.25,802,86169,-78854,-79832
5482.23,-160,85007,-80120,-82101
5484.2,-907,83703,-81223,-84774
5486.2,-1162,83089,-81946,-86783
5488.2,-1755,82796,-82408,-87791
5490.2,-2714,82058,-82697,-88270
5492.2,-3009,81034,-82729,-88641
5494.2,-2441,80411,-82532,-88898
5496.2,-1877,80256,-82179,-88916
5498.2,-1671,80158,-81638,-88708
5500.2,-1458,80095,-80976,-88398
5502.2,-1245,80312,-80356,-88035
5504.2,-1292,80689,-79747,-87559
5506.2,-1295,80971,-79084,-87016
5508.2,-876,81199,-78537,-86618
5510.2,-443,81464,-78203,-86413
5512.2,-433,81685,-77894,-86221
5514.2,-454,81802,-77534,-86003
5516.2,-251,81720,-77273,-85897
5518.2,-339,81432,-77053,-85820
5520.2,-716,81377,-76671,-85539
5522.2,-602,81853,-76311,-85195
5524.2,-51,82229,-76339,-85168
5526.2,127,81932,-76620,-85417
5528.2,45,81521,-76719,-85548
5530.2,217,81519,-76603,-85480
5532.2,179,81451,-76551,-85465
5534.2,-411,81098,-76581,-85532
5536.2,-662,81118,-76517,-85502
5538.2,-31,81697,-76378,-85391
5540.2,645,82165,-76303,-85341
5542.2,753,82160,-76320,-85344
5544.2,700,81917,-76386,-85348
5546.2,670,81614,-76462,-85386
5548.2,349,81364,-76488,-85442
5550.2,-92,81396,-76414,-85416
5552.2,-213,81675,-76266,-85285
5554.2,-152,81828,-76159,-85191
5556.2,-226,81699,-76199,-85257
5558.2,-316,81526,-76318,-85385
5560.2,-304,81483,-76348,-85396
5562.2,-330,81477,-76324,-85341
5564.2,-346,81454,-76385,-85362
5566.2,-160,81545,-76420,-85354
5568.2,104,81777,-76268,-85195
5570.2,187,81933,-76125,-85085
5572.2,110,81858,-76196,-85191
5574.2,47,81698,-76280,-85296
5576.2,83,81691,-76203,-85247
5578.2,261,81859,-76175,-85245
5580.2,525,82034,-76288,-85354
5582.2,591,82034,-76302,-85339
5584.2,269,81786,-76191,-85208
5586.2,-60,81472,-76234,-85242
5588.2,104,81455,-76395,-85395
5590.2,463,81780,-76341,-85337
5592.2,306,82017,-76103,-85115
5594.2,-211,81923,-76026,-85083
5596.1,-353,81765,-76143,-85256
5598.1,-115,81755,-76193,-85331
5600.1,62,81839,-76113,-85226
5602.1,266,82046,-76044,-85116
5604.1,548,82239,-76054,-85102
5606.1,370,81961,-76145,-85172
5608.1,-309,81343,-76280,-85279
5610.1,-591,81292,-76327,-85310
5612.1,-60,81981,-76247,-85227
5614.1,536,82400,-76195,-85170
5616.1,554,82026,-76230,-85216
5618.1,274,81510,-76216,-85256
5620.1,183,81388,-76121,-85212
5622.1,292,81490,-76061,-85141
5624.1,373,81642,-76039,-85064
5626.1,289,81822,-75979,-84966
5628.1,41,81867,-75926,-84912
5630.1,-144,81786,-75986,-84994
5632.1,9,81857,-76126,-85173
5634.1,327,82086,-76183,-85274
5636.1,369,82211,-76040,-85165
5638.1,275,82272,-75793,-84937
5640.1,534,82428,-75686,-84817
5642.1,875,82402,-75830,-84909
5644.1,674,81946,-76072,-85103
5646.1,255,81540,-76182,-85221
5648.1,280,81666,-76115,-85188
5650.1,465,81908,-76019,-85091
5652.1,401,81801,-75992,-85052
5654.1,477,81765,-75956,-85044
5656.1,717,82138,-75846,-84974
5658.1,476,82402,-75759,-84881
5660.1,-3,82268,-75740,-84827
5662.1,108,82175,-75687,-84755
5664.1,418,82187,-75603,-84653
5666.1,124,81933,-75616,-84632
5668.1,-187,81684,-75697,-84701
5670.1,220,81926,-75695,-84728
5672.1,690,82328,-75615,-84684
5674.1,643,82414,-75587,-84675
5676.1,633,82368,-75656,-84759
5678.1,779,82307,-75750,-84866
5680.1,421,81986,-75756,-84864
5682.1,-146,81671,-75614,-84688
5684.1,64,81889,-75436,-84454
5686.1,889,82310,-75424,-84391
5688.1,1459,82328,-75594,-84538
5690.1,1683,82258,-75715,-84660
5692.1,1694,82493,-75648,-84600
5694.1,1275,82530,-75559,-84517
5696.1,803,82174,-75579,-84548
5698.1,937,82193,-75529,-84502
5700.1,1202,82680,-75284,-84238
5702.1,885,82758,-75089,-83997
5704.1,634,82496,-75118,-83958
5706.1,1172,82744,-75184,-83953
5708.08,1744,83119,-75194,-83930
5710.05,1559,82685,-75320,-84072
5712.03,1101,81977,-75523,-84307
5714.0,928,82038,-75535,-84339
5716.0,932,82559,-75367,-84183
5718.0,1059,82703,-75302,-84120
5720.0,1245,82496,-75422,-84209
5722.0,1134,82381,-75524,-84252
5724.0,910,82525,-75449,-84120
5726.0,1186,82894,-75282,-83922
5728.0,1654,83260,-75225,-83859
5730.0,1531,83258,-75310,-83959
5732.0,1124,82872,-75395,-84073
5734.0,1194,82557,-75414,-84128
5736.0,1480,82660,-75408,-84166
5738.0,1333,82959,-75359,-84150
5740.0,893,83015,-75235,-84025
5742.0,660,82903,-75120,-83886
5744.0,801,83092,-75096,-83854
5746.0,1115,83498,-75134,-83902
5748.0,1145,83483,-75198,-83967
5750.0,784,83018,-75270,-84050
5752.0,694,82798,-75302,-84145
5754.0,1149,82968,-75309,-84235
5756.0,1254,82905,-75386,-84346
5758.0,586,82463,-75529,-84477
5760.0,97,82252,-75596,-84548
5762.0,312,82537,-75558,-84533
5764.0,633,82949,-75542,-84518
5766.0,865,83250,-75564,-84530
5768.0,1156,83386,-75506,-84491
5770.0,877,83111,-75419,-84439
5772.0,-167,82475,-75482,-84512
5774.0,-696,82147,-75626,-84653
5776.0,-14,82472,-75623,-84666
5778.0,695,82856,-75539,-84605
5780.0,465,82684,-75632,-84704
5782.0,-54,82179,-75859,-84928
5784.0,-110,81919,-75972,-85034
5786.0,5,82017,-75932,-84986
5788.0,-98,82193,-75869,-84926
5790.0,-60,82326,-75836,-84917
5792.0,440,82470,-75894,-84984
5794.0,792,82428,-76094,-85163
5796.0,299,82002,-76283,-85337
5798.0,-474,81628,-76276,-85335
5800.0,-483,81894,-76164,-85220
5802.0,106,82467,-76137,-85177
5804.0,394,82551,-76178,-85224
5806.0,272,82187,-76204,-85273
5808.0,181,81988,-76244,-85308
5810.0,142,82009,-76302,-85351
5812.0,17,81923,-76316,-85390
5814.0,-91,81811,-76285,-85399
5816.0,-150,81884,-76253,-85367
5818.0,-181,81999,-76238,-85328
5820.0,-47,82034,-76235,-85327
5822.0,188,82160,-76189,-85300
5824.0,181,82374,-76060,-85174
5826.0,-57,82385,-75970,-85078
5827.98,-116,82168,-76051,-85165
5829.95,41,82010,-76206,-85330
5831.93,51,81951,-76296,-85433
5833.9,-44,81783,-76357,-85529
5835.9,61,81586,-76400,-85616
5837.9,156,81642,-76336,-85566
5839.9,-57,81958,-76219,-85424
5841.9,-203,82265,-76172,-85345
5843.9,-83,82278,-76156,-85314
5845.9,-249,81893,-76156,-85313
5847.9,-642,81507,-76293,-85459
5849.9,-369,81767,-76473,-85657
5851.9,405,82533,-76426,-85619
5853.9,530,82850,-76207,-85386
5855.9,5,82395,-76094,-85257
5857.9,-217,81897,-76102,-85278
5859.9,10,81864,-76129,-85330
5861.9,307,82054,-76230,-85433
5863.9,603,82220,-76355,-85541
5865.9,650,82319,-76317,-85501
5867.9,187,82201,-76217,-85414
5869.9,-315,81887,-76269,-85478
5871.9,-378,81765,-76328,-85545
5873.9,-256,82040,-76210,-85425
5875.9,-162,82408,-76107,-85309
5877.9,43,82508,-76151,-85343
5879.9,159,82315,-76146,-85331
5881.9,-123,82010,-76079,-85241
5883.9,-481,81779,-76170,-85312
5885.9,-435,81781,-76307,-85473
5887.9,-200,81973,-76212,-85423
5889.9,-290,82030,-76050,-85271
5891.9,-549,81858,-76118,-85322
5893.9,-328,81940,-76228,-85433
5895.9,327,82526,-76109,-85331
5897.9,618,82985,-75964,-85189
5899.9,375,82774,-76048,-85269
5901.9,306,82340,-76215,-85425
5903.9,547,82243,-76273,-85445
5905.9,493,82323,-76256,-85378
5907.9,167,82351,-76201,-85299
5909.9,116,82429,-76101,-85202
5911.9,183,82446,-76036,-85142
5913.9,-59,82188,-76044,-85161
5915.9,-249,81937,-76068,-85213
5917.9,58,82057,-76153,-85331
5919.9,431,82294,-76358,-85559
5921.9,323,82241,-76500,-85707
5923.9,-75,82035,-76384,-85579
5925.9,-368,82018,-76181,-85355
5927.9,-461,82120,-76176,-85340
5929.9,-309,82126,-76297,-85462
5931.9,101,82160,-76272,-85437
5933.9,460,82381,-76121,-85297
5935.9,462,82532,-76108,-85304
5937.88,293,82396,-76258,-85445
5939.85,268,82256,-76324,-85457
5941.83,255,82359,-76232,-85320
5943.8,5,82469,-76176,-85261
5945.8,-231,82406,-76221,-85308
5947.8,-59,82342,-76251,-85322
5949.8,303,82307,-76268,-85338
5951.8,295,82142,-76323,-85426
5953.8,-65,81954,-76331,-85465
5955.8,-245,81973,-76281,-85425
5957.8,-96,82137,-76296,-85438
5959.8,30,82244,-76302,-85441
5961.8,34,82233,-76168,-85309
5963.8,132,82141,-76100,-85241
5965.8,263,82061,-76286,-85406
5967.8,143,82077,-76462,-85548
5969.8,-187,82088,-76407,-85479
5971.8,-474,81951,-76334,-85425
5973.8,-577,81832,-76384,-85511
5975.8,-332,82033,-76364,-85520
5977.8,262,82426,-76228,-85385
5979.8,625,82538,-76210,-85329
5981.8,327,82290,-76369,-85440
5983.8,-31,82152,-76487,-85539
5985.8,182,82339,-76419,-85480
5987.8,548,82466,-76282,-85362
5989.8,609,82318,-76279,-85383
5991.8,667,82196,-76436,-85570
5993.8,679,82224,-76564,-85715
5995.8,126,82163,-76493,-85637
5997.8,-579,82023,-76294,-85418
5999.8,-552,81999,-76198,-85302
6001.8,-119,81991,-76305,-85386
6003.8,-104,81901,-76469,-85529
6005.8,-240,81909,-76540,-85588
6007.8,-14,82030,-76544,-85605
6009.8,185,82110,-76514,-85616
6011.8,135,82286,-76393,-85542
6013.8,341,82594,-76284,-85449
6015.8,710,82561,-76386,-85528
6017.8,535,82095,-76557,-85675
6019.8,71,81947,-76462,-85571
6021.8,129,82387,-76197,-85289
6023.8,376,82553,-76183,-85243
6025.8,113,82071,-76448,-85491
6027.8,-132,81888,-76572,-85619
6029.8,190,82502,-76338,-85396
6031.8,290,82900,-76012,-85084
6033.8,-350,82377,-75926,-85019
6035.8,-755,81789,-76080,-85193
6037.8,-248,81949,-76257,-85395
6039.8,362,82370,-76321,-85492
6041.8,272,82471,-76236,-85425
6043.8,-205,82499,-76018,-85185
6045.8,-380,82648,-75804,-84945
6047.8,-58,82670,-75768,-84921
6049.8,388,82616,-75887,-85066
6051.8,495,82774,-76004,-85195
6053.8,300,82968,-76035,-85248
6055.8,229,82952,-75938,-85199
6057.78,353,83011,-75716,-85002
6059.75,317,83290,-75548,-84801
6061.73,65,83357,-75583,-84784
6063.7,65,83176,-75670,-84843
6065.7,556,83350,-75631,-84783
6067.7,989,83825,-75540,-84664
6069.7,718,83809,-75489,-84596
6071.7,24,83329,-75440,-84552
6073.7,-301,83197,-75459,-84591
6075.7,-150,83423,-75637,-84791
6077.7,45,83409,-75786,-84936
6079.7,226,83295,-75676,-84774
6081.7,536,83471,-75494,-84522
6083.7,762,83584,-75563,-84564
6085.7,673,83382,-75781,-84786
6087.7,422,83321,-75837,-84830
6089.7,331,83463,-75806,-84787
6091.7,571,83260,-75975,-84984
6093.7,881,82740,-76247,-85298
6095.7,680,82397,-76342,-85399
6097.7,-54,82160,-76335,-85376
6099.7,-505,81868,-76418,-85431
6101.7,-226,81909,-76460,-85421
6103.7,151,82290,-76363,-85272
6105.7,1,82285,-76367,-85266
6107.7,-367,81739,-76593,-85511
6109.7,-389,81378,-76806,-85741
6111.7,-100,81572,-76841,-85800
6113.7,154,82007,-76754,-85756
6115.7,323,82351,-76620,-85648
6117.7,427,82350,-76529,-85536
6119.7,212,81907,-76554,-85519
6121.7,-309,81468,-76611,-85548
6123.7,-489,81481,-76636,-85564
6125.7,-48,81631,-76732,-85663
6127.7,239,81541,-76863,-85807
6129.7,-153,81548,-76810,-85770
6131.7,-528,81894,-76621,-85592
6133.7,-236,82137,-76589,-85576
6135.7,232,82015,-76752,-85758
6137.7,249,81858,-76873,-85885
6139.7,27,81841,-76880,-85878
6141.7,29,81830,-76896,-85877
6143.7,230,81847,-76918,-85890
6145.7,301,81935,-76835,-85793
6147.7,94,81935,-76708,-85658
6149.7,-204,81785,-76731,-85693
6151.7,-383,81611,-76887,-85864
6153.7,-443,81495,-76929,-85908
6155.7,-347,81511,-76789,-85776
6157.7,-14,81666,-76687,-85680
6159.7,264,81750,-76727,-85684
6161.7,161,81707,-76742,-85626
6163.7,-82,81792,-76651,-85481
6165.7,-197,81928,-76600,-85426
6167.7,-372,81730,-76694,-85543
6169.7,-456,81443,-76846,-85723
6171.7,-17,81608,-76934,-85840
6173.7,416,81854,-76915,-85855
6175.7,12,81566,-76810,-85799
6177.68,-595,81266,-76704,-85719
6179.65,-308,81666,-76696,-85659
6181.63,351,82169,-76785,-85656
6183.6,295,81979,-76866,-85704
6185.6,-134,81582,-76863,-85726
6187.6,-96,81695,-76807,-85673
6189.6,195,81953,-76777,-85631
6191.6,252,81806,-76799,-85691
6193.6,207,81515,-76793,-85770
6195.6,140,81484,-76655,-85736
6197.6,-78,81602,-76426,-85643
6199.6,-136,81648,-76269,-85630
6201.6,183,81608,-76198,-85643
6203.6,261,81508,-76059,-85547
6205.6,-251,81420,-75881,-85445
6207.6,-532,81479,-75864,-85520
6209.6,-56,81680,-75896,-85591
6211.6,399,81870,-75641,-85309
6213.6,289,81969,-75236,-84756
6215.6,257,82040,-75140,-84286
6217.6,743,82275,-75290,-83865
6219.6,1245,82844,-75241,-83179
6221.6,1380,83539,-75043,-82296
6223.6,1339,83968,-75050,-81565
6225.6,1384,84330,-75150,-80962
6227.6,1673,85213,-75071,-80141
6229.6,2078,86423,-75073,-79059
6231.6,2021,87076,-75595,-78126
6233.6,1323,86999,-76659,-77803
6235.6,668,86776,-78022,-78340
6237.6,432,86414,-79460,-79825
6239.6,104,85348,-80724,-82146
6241.6,-566,83764,-81662,-84789
6243.6,-1210,82597,-82340,-86928
6245.6,-1753,82183,-82796,-88048
6247.6,-2358,81951,-82945,-88408
6249.6,-2736,81433,-82852,-88628
6251.6,-2581,80839,-82678,-88924
6253.6,-2135,80564,-82363,-89055
6255.6,-1715,80582,-81800,-88891
6257.6,-1383,80566,-81159,-88621
6259.6,-1162,80546,-80622,-88352
6261.6,-985,80955,-80043,-87913
6263.6,-693,81720,-79304,-87260
6265.6,-387,82073,-78655,-86702
6267.6,-298,81797,-78304,-86458
6269.6,-350,81609,-78062,-86341
6271.6,-334,81825,-77741,-86160
6273.6,-310,81919,-77460,-86023
6275.6,-403,81755,-77275,-85972
6277.6,-478,81849,-77045,-85823
6279.6,-308,82251,-76806,-85583
6281.6,26,82433,-76767,-85498
6283.6,146,82250,-76854,-85570
6285.6,-77,81981,-76812,-85561
6287.58,-230,81741,-76661,-85465
6289.55,23,81584,-76602,-85463
6291.53,394,81782,-76625,-85539
6293.5,491,82340,-76584,-85545
6295.5,398,82676,-76496,-85501
6297.5,236,82333,-76467,-85492
6299.5,-165,81636,-76479,-85474
6301.5,-629,81241,-76474,-85405
6303.5,-474,81389,-76466,-85359
6305.5,305,81834,-76462,-85365
6307.5,617,82090,-76442,-85380
6309.5,-45,81850,-76477,-85459
6311.5,-554,81484,-76615,-85646
6313.5,17,81654,-76673,-85750
6315.5,784,82241,-76502,-85610
6317.5,689,82545,-76320,-85427
6319.5,232,82428,-76375,-85425
6321.5,155,82243,-76526,-85476
6323.5,96,82059,-76531,-85415
6325.5,-210,81905,-76447,-85341
6327.5,-184,82005,-76425,-85363
6329.5,280,82215,-76447,-85405
6331.5,410,82163,-76433,-85406
6333.5,4,81966,-76400,-85412
6335.5,-242,81886,-76408,-85466
6337.5,-115,81805,-76463,-85536
6339.5,-150,81714,-76470,-85522
6341.5,-400,81879,-76364,-85387
6343.5,-264,82192,-76264,-85275
6345.5,295,82276,-76305,-85321
6347.5,628,82169,-76394,-85417
6349.5,556,82129,-76395,-85429
6351.5,442,82095,-76381,-85441
6353.5,288,81962,-76422,-85517
6355.5,14,81969,-76397,-85515
6357.5,63,82274,-76261,-85374
6359.5,517,82511,-76212,-85283
6361.5,680,82327,-76343,-85353
6363.5,401,82074,-76436,-85417
6365.5,277,82178,-76341,-85349
6367.5,200,82286,-76252,-85303
6369.5,-309,82003,-76324,-85396
6371.5,-607,81808,-76367,-85448
6373.5,90,82161,-76242,-85350
6375.5,1028,82620,-76152,-85289
6377.5,1095,82701,-76229,-85364
6379.5,488,82530,-76299,-85403
6381.5,2,82297,-76299,-85369
6383.5,-32,82089,-76367,-85407
6385.5,299,82098,-76443,-85443
6387.5,599,82269,-76309,-85281
6389.5,503,82281,-76079,-85057
6391.5,299,82104,-76078,-85074
6393.5,353,81968,-76283,-85281
6395.5,322,81964,-76343,-85341
6397.5,0,82058,-76183,-85194
6399.5,-60,82174,-76108,-85120
6401.5,313,82227,-76219,-85214
6403.5,473,82345,-76209,-85198
6405.5,166,82626,-75943,-84942
6407.48,-60,82733,-75743,-84745
6409.45,107,82406,-75845,-84855
6411.43,339,82059,-76024,-85071
6413.4,316,82083,-76025,-85125
6415.4,160,82158,-75952,-85083
6417.4,174,81979,-75975,-85105
6419.4,382,81888,-76022,-85128
6421.4,477,82140,-75972,-85047
6423.4,360,82374,-75896,-84950
6425.4,450,82353,-75917,-84958
6427.4,975,82402,-75998,-85025
6429.4,1345,82682,-75978,-85010
6431.4,1018,82869,-75777,-84854
6433.4,504,82824,-75529,-84658
6435.4,518,82740,-75476,-84627
6437.4,758,82613,-75673,-84814
6439.4,693,82399,-75866,-84961
6441.4,703,82407,-75810,-84821
6443.4,1181,82737,-75616,-84550
6445.4,1519,82871,-75561,-84488
6447.4,1159,82543,-75663,-84638
6449.4,629,82265,-75709,-84720
6451.4,627,82448,-75611,-84615
6453.4,1017,82745,-75492,-84465
6455.4,1267,82682,-75493,-84431
6457.4,1216,82410,-75622,-84517
6459.4,1137,82448,-75703,-84545
6461.4,1260,82887,-75584,-84372
6463.4,1386,83180,-75443,-84190
6465.4,1243,82995,-75546,-84283
6467.4,1015,82832,-75684,-84435
6469.4,957,83099,-75476,-84241
6471.4,899,83225,-75184,-83954
6473.4,746,82739,-75335,-84112
6475.4,780,82328,-75691,-84473
6477.4,1061,82658,-75660,-84424
6479.4,1333,83176,-75396,-84127
6481.4,1479,83188,-75411,-84121
6483.4,1428,82961,-75567,-84265
6485.4,1204,82990,-75477,-84162
6487.4,1202,83203,-75340,-84026
6489.4,1479,83290,-75482,-84198
6491.4,1404,83176,-75678,-84427
6493.4,956,83050,-75591,-84354
6495.4,889,83117,-75365,-84130
6497.4,1072,83261,-75277,-84047
6499.4,832,83263,-75296,-84079
6501.4,682,83325,-75305,-84107
6503.4,1196,83629,-75354,-84173
6505.4,1391,83736,-75465,-84301
6507.4,678,83350,-75539,-84399
6509.4,321,83025,-75535,-84425
6511.4,934,83173,-75539,-84457
6513.4,1246,83329,-75624,-84580
6515.4,732,83209,-75746,-84745
6517.38,509,83307,-75733,-84744
6519.35,927,83843,-75512,-84493
6521.33,1065,84192,-75355,-84321
6523.3,725,83869,-75566,-84548
6525.3,599,83186,-75935,-84914
6527.3,705,82659,-76060,-85000
6529.3,489,82423,-75976,-84916
6531.3,3,82395,-75942,-84956
6533.3,-272,82502,-75953,-85044
6535.3,-245,82650,-75942,-85048
6537.3,-55,82755,-75991,-85081
6539.3,205,82807,-76073,-85156
6541.3,281,82775,-76066,-85134
6543.3,-18,82662,-76027,-85071
6545.3,-324,82625,-76076,-85123
6547.3,-190,82731,-76178,-85258
6549.3,204,82763,-76287,-85392
6551.3,407,82567,-76416,-85530
6553.3,293,82337,-76487,-85612
6555.3,16,82317,-76397,-85533
6557.3,-157,82454,-76248,-85392
6559.3,-18,82472,-76256,-85416
6561.3,237,82210,-76413,-85586
6563.3,216,81894,-76495,-85660
6565.3,39,81889,-76452,-85603
6567.3,176,82158,-76465,-85614
6569.3,535,82361,-76545,-85693
6571.3,508,82424,-76479,-85617
6573.3,61,82536,-76270,-85399
6575.3,-67,82707,-76180,-85307
6577.3,327,82739,-76308,-85441
6579.3,396,82513,-76501,-85638
6581.3,-234,82175,-76587,-85719
6583.3,-606,82029,-76528,-85648
6585.3,-121,82135,-76452,-85574
6587.3,391,82224,-76511,-85652
6589.3,317,82235,-76604,-85759
6591.3,220,82351,-76547,-85701
6593.3,374,82413,-76466,-85611
6595.3,253,82170,-76536,-85678
6597.3,-145,81938,-76602,-85744
6599.3,-226,82058,-76528,-85662
6601.3,-4,82209,-76475,-85600
6603.3,3,82107,-76502,-85639
6605.3,-245,82043,-76470,-85638
6607.3,-368,82228,-76413,-85610
6609.3,-195,82476,-76454,-85664
6611.3,66,82654,-76497,-85707
6613.3,96,82707,-76454,-85662
6615.3,-89,82556,-76446,-85656
6617.3,-44,82424,-76514,-85735
6619.3,361,82581,-76536,-85768
6621.3,523,82726,-76476,-85710
6623.3,96,82466,-76400,-85623
6625.3,-277,82119,-76325,-85532
6627.3,-90,82144,-76277,-85467
6629.3,171,82351,-76326,-85510
6631.3,107,82439,-76476,-85665
6633.3,71,82512,-76627,-85822
6635.3,134,82535,-76659,-85844
6637.28,-123,82294,-76523,-85688
6639.25,-489,82077,-76326,-85492
6641.23,-331,82312,-76273,-85470
6643.2,192,82672,-76423,-85657
6645.2,422,82597,-76625,-85881
6647.2,184,82294,-76716,-85998
6649.2,-239,82307,-76646,-85957
6651.2,-385,82634,-76429,-85725
6653.2,108,82871,-76192,-85413
6655.2,789,82761,-76177,-85318
6657.2,711,82357,-76442,-85534
6659.2,21,82018,-76679,-85733
6661.2,-156,82083,-76636,-85665
6663.2,323,82370,-76484,-85535
6665.2,482,82459,-76441,-85551
6667.2,40,82404,-76385,-85538
6669.2,-301,82473,-76236,-85392
6671.2,-202,82494,-76256,-85404
6673.2,38,82309,-76542,-85692
6675.2,153,82283,-76723,-85878
6677.2,66,82575,-76555,-85704
6679.2,-77,82709,-76317,-85444
6681.2,93,82480,-76298,-85399
6683.2,566,82323,-76418,-85511
6685.2,768,82434,-76515,-85616
6687.2,456,82507,-76564,-85677
6689.2,53,82421,-76566,-85693
6691.2,-85,82384,-76531,-85671
6693.2,0,82499,-76496,-85620
6695.2,155,82686,-76434,-85508
6697.2,238,82824,-76329,-85358
6699.2,225,82805,-76290,-85322
6701.2,247,82673,-76386,-85450
6703.2,318,82603,-76504,-85593
6705.2,351,82625,-76546,-85649
6707.2,376,82572,-76557,-85668
6709.2,356,82394,-76566,-85663
6711.2,179,82252,-76547,-85613
6713.2,-8,82255,-76518,-85565
6715.2,-52,82318,-76498,-85547
6717.2,-106,82371,-76466,-85520
6719.2,-219,82425,-76492,-85549
6721.2,-300,82338,-76676,-85739
6723.2,-469,82018,-76867,-85943
6725.2,-486,81915,-76785,-85886
6727.2,254,82486,-76502,-85633
6729.2,1231,83148,-76370,-85505
6731.2,1091,83008,-76450,-85551
6733.2,158,82429,-76511,-85573
6735.2,110,82397,-76540,-85583
6737.2,872,82754,-76683,-85712
6739.2,869,82697,-76817,-85829
6741.2,137,82344,-76759,-85773
6743.2,-58,82243,-76641,-85683
6745.2,62,82218,-76620,-85689
6747.2,-308,82005,-76614,-85694
6749.2,-427,81992,-76588,-85669
6751.2,271,82374,-76596,-85674
6753.2,514,82677,-76538,-85608
6755.1,-218,82652,-76388,-85441
6757.1,-424,82583,-76371,-85398
6759.1,305,82619,-76501,-85506
6761.1,552,82731,-76478,-85488
6763.1,155,82988,-76283,-85327
6765.1,207,83237,-76192,-85273
6767.1,470,83163,-76207,-85308
6769.1,205,82958,-76168,-85280
6771.1,-66,83006,-76174,-85292
6773.1,31,83099,-76311,-85430
6775.1,-14,82929,-76381,-85502
6777.1,-73,82793,-76265,-85394
6779.1,267,82945,-76103,-85236
6781.1,368,83062,-76011,-85143
6783.1,-193,82907,-76012,-85148
6785.1,-597,82690,-76100,-85249
6787.1,-341,82658,-76136,-85295
6789.1,146,82933,-75999,-85160
6791.1,637,83440,-75870,-85020
6793.1,1015,83749,-75937,-85061
6795.1,857,83648,-76020,-85119
6797.1,349,83571,-75945,-85042
6799.1,242,83718,-75905,-85021
6801.1,475,83623,-76030,-85158
6803.1,411,83320,-76063,-85173
6805.1,130,83540,-75846,-84915
6807.1,85,84181,-75642,-84683
6809.1,188,84331,-75674,-84712
6811.1,245,84010,-75774,-84805
6813.1,437,84008,-75770,-84759
6815.1,800,84244,-75792,-84723
6817.1,992,84112,-75905,-84813
6819.1,801,83803,-75908,-84834
6821.1,456,83697,-75812,-84766
6823.1,305,83478,-75967,-84936
6825.1,331,83011,-76363,-85344
6827.1,207,82814,-76508,-85514
6829.1,-43,82973,-76327,-85359
6831.1,-4,82919,-76319,-85353
6833.1,261,82527,-76592,-85587
6835.1,224,82263,-76688,-85630
6837.1,-11,82296,-76544,-85459
6839.1,65,82335,-76614,-85545
6841.1,138,82192,-76946,-85909
6843.1,-291,82067,-77066,-86043
6845.1,-601,82257,-76831,-85806
6847.1,-212,82599,-76644,-85621
6849.1,137,82580,-76762,-85736
6851.1,-57,82234,-76964,-85911
6853.1,-69,82153,-76988,-85888
6855.1,293,82371,-76877,-85743
6857.1,244,82331,-76836,-85687
6859.1,-164,82046,-76928,-85780
6861.1,-190,82044,-77009,-85881
6863.1,61,82375,-76943,-85853
6865.1,247,82689,-76842,-85793
6867.08,540,82747,-76923,-85910
6869.05,633,82408,-77121,-86128
6871.03,65,81873,-77163,-86150
6873.0,-380,81777,-77051,-85979
6875.0,22,82202,-77033,-85900
6877.0,351,82382,-77118,-85948
6879.0,-112,82064,-77116,-85932
6881.0,-413,81929,-77043,-85866
6883.0,25,82218,-77036,-85892
6885.0,313,82338,-77099,-86003
6887.0,16,82067,-77150,-86106
6889.0,-193,81911,-77071,-86077
6891.0,15,82167,-76805,-85813
6893.0,332,82465,-76618,-85552
6895.0,522,82347,-76844,-85687
6897.0,407,81902,-77247,-86058
6899.0,-22,81678,-77292,-86122
6901.0,-320,81928,-77025,-85877
6903.0,-332,82193,-76905,-85795
6905.0,-494,82074,-77003,-85951
6907.0,-687,81945,-77055,-86040
6909.0,-376,82152,-77029,-86004
6911.0,-55,82207,-77065,-85989
6913.0,-415,81851,-77120,-85969
6915.0,-596,81843,-77046,-85833
6917.0,298,82472,-76894,-85659
6919.0,1222,82758,-76868,-85632
6921.0,1065,82373,-76968,-85730
6923.0,573,82328,-76950,-85732
6925.0,493,82761,-76791,-85642
6927.0,183,82523,-76787,-85751
6929.0,-595,81618,-76937,-86056
6931.0,-903,81315,-76843,-86131
6933.0,-406,81673,-76458,-85870
6935.0,45,81675,-76194,-85687
6937.0,-73,81436,-76153,-85748
6939.0,-284,81746,-76043,-85755
6941.0,-100,82220,-75848,-85625
6943.0,239,82092,-75772,-85558
6945.0,414,81872,-75721,-85455
6947.0,739,82358,-75555,-85050
6949.0,1394,83074,-75466,-84461
6951.0,1683,83309,-75529,-83879
6953.0,1272,83556,-75453,-83103
6955.0,1051,84416,-75208,-82065
6957.0,1442,85295,-75190,-81176
6959.0,1585,85674,-75452,-80521
6961.0,1285,86246,-75633,-79561
6963.0,1381,87360,-75807,-78223
6965.0,1696,88035,-76507,-77314
6967.0,1381,87748,-77820,-77438
6969.0,916,87248,-79301,-78527
6971.0,1008,86731,-80646,-80502
6973.0,783,85494,-81803,-83239
6975.0,-509,83816,-82700,-85966
6977.0,-1834,82881,-83315,-87783
6979.0,-2198,82772,-83687,-88625
6981.0,-2077,82541,-83765,-89028
6983.0,-2066,81885,-83552,-89310
6985.0,-1991,81262,-83180,-89422
6986.98,-1725,80927,-82645,-89271
6988.95,-1486,80829,-81894,-88912
6990.93,-1354,80955,-81120,-88500
6992.9,-1234,81306,-80478,-88074
6994.9,-1070,81777,-79820,-87548
6996.9,-850,82148,-79115,-87005
6998.9,-552,82277,-78597,-86654
7000.9,-160,82315,-78308,-86489
7002.9,154,82369,-78079,-86378
7004.9,38,82249,-77867,-86313
7006.9,-370,82018,-77658,-86237
7008.9,-304,82129,-77375,-86029
7010.9,350,82499,-77127,-85807
7012.9,564,82473,-77065,-85747
7014.9,-106,82042,-77061,-85743
7016.9,-629,81876,-76976,-85675
7018.9,-299,82102,-76921,-85659
7020.9,167,82287,-76930,-85713
7022.9,199,82429,-76866,-85698
7024.9,208,82737,-76751,-85640
7026.9,303,82883,-76698,-85654
7028.9,112,82590,-76660,-85668
7030.9,-56,82337,-76594,-85594
7032.9,250,82510,-76612,-85532
7034.9,491,82655,-76716,-85546
7036.9,183,82425,-76733,-85532
7038.9,-88,82257,-76620,-85440
7040.9,81,82434,-76518,-85362
7042.9,278,82603,-76496,-85358
7044.9,366,82601,-76508,-85403
7046.9,481,82629,-76535,-85473
7048.9,274,82606,-76577,-85545
7050.9,-251,82378,-76634,-85591
7052.9,-285,82230,-76744,-85648
7054.9,283,82382,-76872,-85721
7056.9,512,82547,-76843,-85675
7058.9,123,82509,-76635,-85479
7060.9,-131,82462,-76519,-85380
7062.9,71,82485,-76632,-85519
7064.9,241,82350,-76736,-85668
7066.9,70,82074,-76641,-85616
7068.9,-88,82125,-76466,-85460
7070.9,200,82719,-76340,-85322
7072.9,725,83314,-76268,-85202
7074.9,881,83300,-76303,-85168
7076.9,657,82866,-76495,-85321
7078.9,511,82559,-76728,-85574
7080.9,337,82413,-76844,-85731
7082.9,-145,82241,-76799,-85720
7084.9,-397,82193,-76634,-85601
7086.9,28,82331,-76459,-85479
7088.9,419,82353,-76424,-85458
7090.9,193,82219,-76526,-85521
7092.9,-35,82293,-76566,-85513
7094.9,201,82587,-76477,-85396
7096.9,302,82611,-76471,-85379
7098.9,-155,82208,-76630,-85540
7100.9,-521,81978,-76669,-85597
7102.9,-110,82465,-76441,-85393
7104.8,662,83202,-76260,-85237
7106.8,813,83251,-76322,-85331
7108.8,233,82653,-76339,-85372
7110.8,-162,82353,-76148,-85168
7112.8,115,82608,-76055,-85032
7114.8,510,82763,-76228,-85165
7116.8,610,82659,-76387,-85301
7118.8,735,82783,-76330,-85246
7120.8,971,83093,-76203,-85145
7122.8,892,83065,-76165,-85142
7124.8,463,82703,-76227,-85234
7126.8,119,82409,-76342,-85369
7128.8,16,82293,-76401,-85424
7130.8,34,82305,-76323,-85317
7132.8,156,82459,-76210,-85182
7134.8,316,82658,-76165,-85135
7136.8,376,82839,-76092,-85061
7138.8,375,82996,-75995,-84958
7140.8,285,82848,-76087,-85062
7142.8,59,82367,-76281,-85277
7144.8,238,82466,-76120,-85123
7146.8,1236,83595,-75600,-84615
7148.8,1958,84361,-75356,-84400
7150.8,1145,83521,-75678,-84737
7152.8,-220,82208,-76084,-85123
7154.8,-323,82053,-76154,-85161
7156.8,455,82612,-76054,-85045
7158.8,625,82717,-76050,-85028
7160.8,393,82626,-76052,-85017
7162.8,700,82984,-75890,-84856
7164.8,1088,83305,-75703,-84683
7166.8,929,83041,-75773,-84761
7168.8,876,82730,-76006,-84991
7170.8,1230,82907,-76002,-84979
7172.8,1023,83088,-75709,-84667
7174.8,121,82818,-75497,-84428
7176.8,-130,82581,-75515,-84428
7178.8,668,82825,-75566,-84476
7180.8,1269,83121,-75565,-84482
7182.8,1028,83020,-75559,-84488
7184.8,677,82840,-75495,-84434
7186.8,683,82995,-75372,-84305
7188.8,736,83266,-75332,-84234
7190.8,750,83265,-75409,-84256
7192.8,1001,83108,-75484,-84267
7194.8,1438,83141,-75501,-84234
7196.8,1645,83234,-75492,-84205
7198.8,1406,83057,-75475,-84179
7200.8,1064,82894,-75412,-84102
7202.8,1100,83211,-75286,-83977
7204.8,1347,83602,-75211,-83924
7206.8,1262,83444,-75288,-84016
7208.8,1018,83164,-75377,-84102
7210.8,1261,83426,-75323,-84040
7212.8,1794,83829,-75265,-83959
7214.8,1817,83791,-75318,-83969
7216.78,1349,83638,-75287,-83924
7218.75,1184,83793,-75087,-83764
7220.73,1558,84023,-74964,-83688
7222.7,1842,84015,-75056,-83795
7224.7,1532,83741,-75211,-83964
7226.7,976,83348,-75305,-84089
7228.7,903,83210,-75329,-84126
7230.7,1347,83518,-75307,-84083
7232.7,1512,83749,-75340,-84090
7234.7,983,83417,-75489,-84231
7236.7,468,83005,-75578,-84331
7238.7,616,83131,-75449,-84228
7240.7,852,83346,-75313,-84129
7242.7,459,82962,-75475,-84329
7244.7,25,82426,-75808,-84691
7246.7,397,82589,-75904,-84808
7248.7,1081,83186,-75729,-84647
7250.7,1219,83372,-75663,-84582
7252.7,1008,83123,-75838,-84748
7254.7,829,82892,-75982,-84886
7256.7,552,82730,-75975,-84882
7258.7,464,82651,-75994,-84910
7260.7,956,82754,-76108,-85048
7262.7,1290,82675,-76213,-85196
7264.7,785,82199,-76261,-85277
7266.7,257,81964,-76245,-85265
7268.7,376,82333,-76179,-85187
7270.7,484,82656,-76175,-85174
7272.7,387,82546,-76310,-85288
7274.7,738,82398,-76471,-85411
7276.7,1120,82311,-76508,-85423
7278.7,619,82091,-76403,-85331
7280.7,-54,82007,-76260,-85222
7282.7,215,82262,-76223,-85213
7284.7,793,82500,-76316,-85324
7286.7,723,82559,-76415,-85434
7288.7,492,82618,-76490,-85496
7290.7,572,82493,-76640,-85608
7292.7,422,82083,-76787,-85713
7294.7,128,82052,-76701,-85601
7296.7,577,82741,-76442,-85318
7298.7,1398,83186,-76335,-85190
7300.7,1267,82565,-76476,-85338
7302.7,392,81673,-76632,-85537
7304.7,223,81582,-76672,-85618
7306.7,864,81927,-76749,-85701
7308.7,1089,81904,-76911,-85852
7310.7,540,81803,-76869,-85798
7312.7,-93,82083,-76479,-85384
7314.7,-456,82214,-76161,-85029
7316.7,-504,81828,-76330,-85188
7318.7,-20,81608,-76730,-85625
7320.7,701,81943,-76856,-85798
7322.7,853,82214,-76674,-85631
7324.7,455,82105,-76483,-85431
7326.7,337,82043,-76467,-85406
7328.7,583,82124,-76602,-85527
7330.7,570,82104,-76684,-85581
7332.7,405,82176,-76541,-85413
7334.6,609,82487,-76368,-85233
7336.6,808,82570,-76449,-85321
7338.6,380,82214,-76640,-85528
7340.6,-199,81941,-76675,-85590
7342.6,-152,82029,-76670,-85611
7344.6,221,82102,-76750,-85703
7346.6,269,81993,-76718,-85671
7348.6,190,82003,-76532,-85471
7350.6,387,82184,-76455,-85362
7352.6,608,82270,-76543,-85414
7354.6,558,82229,-76590,-85453
7356.6,390,82195,-76549,-85436
7358.6,232,82140,-76496,-85408
7360.6,148,82113,-76416,-85340
7362.6,327,82300,-76343,-85284
7364.6,547,82552,-76367,-85331
7366.6,301,82566,-76382,-85349
7368.6,-106,82490,-76281,-85220
7370.6,89,82557,-76263,-85172
7372.6,650,82532,-76477,-85374
7374.6,748,82265,-76648,-85549
7376.6,430,82072,-76533,-85440
7378.6,297,82071,-76354,-85264
7380.6,445,82041,-76398,-85318
7382.6,630,82056,-76560,-85509
7384.6,665,82318,-76587,-85563
7386.6,405,82590,-76456,-85428
7388.6,31,82552,-76333,-85280
7390.6,-7,82332,-76314,-85247
7392.6,221,82231,-76315,-85250
7394.6,179,82274,-76260,-85191
7396.6,-127,82276,-76267,-85190
7398.6,-97,82202,-76420,-85359
7400.6,363,82232,-76528,-85497
7402.6,614,82362,-76453,-85436
7404.6,357,82323,-76395,-85377
7406.6,90,82148,-76458,-85436
7408.6,162,82216,-76415,-85382
7410.6,253,82442,-76261,-85202
7412.6,191,82377,-76305,-85219
7414.6,297,82198,-76513,-85420
7416.6,550,82441,-76536,-85455
7418.6,477,82859,-76411,-85348
7420.6,91,82766,-76425,-85381
7422.6,-72,82278,-76510,-85486
7424.6,158,82132,-76457,-85447
7426.6,431,82487,-76371,-85359
7428.6,427,82752,-76390,-85355
7430.6,152,82542,-76401,-85334
7432.6,-130,82201,-76335,-85243
7434.6,-129,82191,-76301,-85191
7436.6,185,82453,-76332,-85216
7438.6,566,82700,-76347,-85239
7440.6,740,82898,-76295,-85214
7442.6,668,83041,-76204,-85160
7444.6,553,82903,-76186,-85176
7446.58,507,82452,-76363,-85370
7448.55,391,82091,-76623,-85615
7450.53,193,82155,-76692,-85638
7452.5,147,82479,-76527,-85428
7454.5,241,82660,-76367,-85259
7456.5,232,82538,-76356,-85268
7458.5,197,82357,-76406,-85341
7460.5,329,82464,-76416,-85379
7462.5,445,82788,-76400,-85397
7464.5,348,82827,-76406,-85418
7466.5,183,82442,-76403,-85399
7468.5,33,82190,-76298,-85269
7470.5,-214,82336,-76117,-85068
7472.5,-426,82360,-76043,-84972
7474.5,-249,82138,-76119,-85032
7476.5,294,82389,-76127,-85054
7478.5,678,83103,-76017,-84982
7480.5,498,83196,-76067,-85066
7482.5,1,82569,-76306,-85333
7484.5,-284,82425,-76313,-85369
7486.5,-247,82956,-75957,-85029
7488.5,-116,83121,-75712,-84765
7490.5,44,82898,-75828,-84850
7492.5,254,83138,-75960,-84975
7494.5,337,83508,-75916,-84940
7496.5,169,83171,-75929,-84954
7498.5,-54,82689,-76002,-85039
7500.5,-53,82930,-75895,-84963
7502.5,205,83381,-75726,-84818
7504.5,479,83366,-75750,-84847
7506.5,478,83313,-75776,-84882
7508.5,188,83591,-75565,-84676
7510.5,-61,83810,-75356,-84443
7512.5,39,83829,-75408,-84450
7514.5,440,83923,-75541,-84552
7516.5,820,84017,-75572,-84562
7518.5,901,83942,-75611,-84575
7520.5,616,83833,-75715,-84657
7522.5,131,83680,-75745,-84688
7524.5,-172,83383,-75707,-84665
7526.5,39,83296,-75761,-84718
7528.5,618,83689,-75873,-84801
7530.5,960,84092,-75863,-84750
7532.5,741,84048,-75762,-84617
7534.5,347,83814,-75759,-84603
7536.5,282,83714,-75859,-84707
7538.5,410,83596,-75900,-84767
7540.5,235,83338,-75869,-84763
7542.5,-209,83135,-75926,-84847
7544.5,-372,83045,-76162,-85102
7546.5,-157,82833,-76496,-85441
7548.5,-88,82476,-76732,-85654
7550.5,-237,82333,-76717,-85600
7552.5,5,82556,-76532,-85393
7554.5,640,82766,-76403,-85269
7556.5,731,82620,-76387,-85258
7558.5,-13,82277,-76398,-85266
7560.5,-586,82048,-76486,-85373
7562.5,-297,81985,-76707,-85639
7564.5,181,81991,-76866,-85829
7566.48,111,82023,-76803,-85757
7568.45,-147,82075,-76705,-85625
7570.43,-54,82148,-76777,-85653
7572.4,104,82235,-76896,-85728
7574.4,-117,82266,-76895,-85700
7576.4,-523,82070,-76876,-85697
7578.4,-679,81651,-76989,-85854
7580.4,-379,81534,-77086,-85987
7582.4,371,82240,-76893,-85820
7584.4,1155,83227,-76503,-85462
7586.4,1267,83345,-76350,-85327
7588.4,644,82540,-76602,-85545
7590.4,-16,81812,-76957,-85827
7592.4,-301,81597,-77113,-85926
7594.4,-328,81672,-77053,-85849
7596.4,-138,82039,-76891,-85701
7598.4,151,82455,-76781,-85634
7600.4,116,82239,-76842,-85757
7602.4,-253,81577,-76995,-85961
7604.4,-434,81467,-77097,-86078
7606.4,-325,81913,-77135,-86093
7608.4,-278,82031,-77086,-85988
7610.4,-210,81794,-76922,-85755
7612.4,107,81828,-76826,-85616
7614.4,248,82019,-76921,-85720
