t,carotid_880nm,carotid_660nm,brachial_880nm,brachial_660nm
3.6,98.282,46.105,-80.956,-1.9023
13.5,104.28,50.105,-80.956,-0.90225
23.4,103.28,52.105,-82.956,-0.90225
33.3,106.28,52.105,-85.956,-0.90225
43.2,107.28,52.105,-86.956,-0.90225
53.1,108.28,52.105,-87.956,-0.90225
62.9,109.28,53.105,-87.956,-1.9023
72.8,108.28,53.105,-87.956,0.097746
82.7,105.28,52.105,-87.956,-1.9023
92.6,103.28,51.105,-87.956,-1.9023
102.5,100.28,50.105,-88.956,-0.90225
112.4,97.282,47.105,-88.956,-2.9023
122.3,93.282,46.105,-86.956,-2.9023
132.1,90.282,44.105,-89.956,-1.9023
142.0,86.282,42.105,-86.956,-1.9023
151.9,83.282,42.105,-88.956,-2.9023
161.8,79.282,40.105,-87.956,-2.9023
171.7,74.282,38.105,-85.956,-1.9023
181.6,72.282,35.105,-85.956,-1.9023
191.5,66.282,33.105,-85.956,-2.9023
201.3,63.282,33.105,-85.956,-2.9023
211.2,58.282,31.105,-87.956,-2.9023
221.1,58.282,30.105,-87.956,-2.9023
231.0,58.282,29.105,-84.956,-1.9023
240.9,59.282,30.105,-84.956,-1.9023
250.8,61.282,33.105,-85.956,-1.9023
260.7,61.282,32.105,-85.956,-1.9023
270.5,60.282,33.105,-84.956,-1.9023
280.4,61.282,33.105,-84.956,-1.9023
290.3,62.282,32.105,-86.956,-1.9023
300.2,61.282,31.105,-86.956,-1.9023
310.1,58.282,31.105,-83.956,-0.90225
320.0,58.282,29.105,-83.956,-0.90225
329.9,54.282,29.105,-84.956,-0.90225
339.7,54.282,29.105,-84.956,-0.90225
349.6,43.282,23.105,-86.956,-1.9023
359.5,43.282,23.105,-86.956,-1.9023
369.4,31.282,19.105,-87.956,-2.9023
379.3,31.282,19.105,-87.956,-2.9023
389.2,19.282,14.105,-88.956,-2.9023
399.1,19.282,14.105,-88.956,-1.9023
408.9,23.282,18.105,-86.956,-1.9023
418.8,23.282,18.105,-87.956,-1.9023
428.7,34.282,28.105,-88.956,-2.9023
438.6,34.282,28.105,-89.956,-2.9023
448.5,70.282,48.105,-88.956,-2.9023
458.4,70.282,48.105,-88.956,-3.9023
468.3,100.28,60.105,-91.956,-1.9023
478.1,100.28,60.105,-90.956,-2.9023
488.0,119.28,68.105,-91.956,-2.9023
497.9,119.28,68.105,-89.956,-1.9023
507.8,125.28,67.105,-86.956,1.0977
517.7,126.28,68.105,-85.956,3.0977
527.6,126.28,66.105,-83.956,6.0977
537.5,129.28,64.105,-78.956,8.0977
547.3,128.28,65.105,-74.956,10.098
557.2,126.28,64.105,-67.956,11.098
567.1,126.28,62.105,-66.956,12.098
577.0,125.28,62.105,-63.956,11.098
586.9,121.28,60.105,-56.956,12.098
596.8,120.28,58.105,-55.956,14.098
606.7,116.28,58.105,-50.956,15.098
616.5,116.28,57.105,-47.956,15.098
626.4,110.28,54.105,-44.956,16.098
636.3,101.28,49.105,-44.956,15.098
646.2,104.28,51.105,-43.956,15.098
656.1,101.28,49.105,-42.956,16.098
666.0,96.282,48.105,-40.956,16.098
675.9,98.282,49.105,-42.956,17.098
685.7,97.282,49.105,-42.956,16.098
695.6,96.282,50.105,-45.956,14.098
705.5,97.282,51.105,-46.956,15.098
715.4,100.28,52.105,-47.956,15.098
725.3,101.28,53.105,-49.956,16.098
735.2,98.282,53.105,-48.956,15.098
745.1,96.282,50.105,-52.956,15.098
754.9,93.282,49.105,-48.956,15.098
764.8,90.282,47.105,-51.956,16.098
774.7,85.282,45.105,-52.956,14.098
784.6,82.282,42.105,-52.956,15.098
794.5,78.282,42.105,-52.956,15.098
804.4,76.282,39.105,-50.956,14.098
814.3,73.282,37.105,-52.956,13.098
824.1,66.282,35.105,-50.956,13.098
834.0,63.282,34.105,-52.956,14.098
843.9,62.282,34.105,-51.956,14.098
853.8,62.282,33.105,-52.956,14.098
863.7,62.282,34.105,-52.956,14.098
873.6,63.282,35.105,-51.956,15.098
883.5,63.282,36.105,-51.956,15.098
893.3,66.282,38.105,-50.956,15.098
903.2,66.282,40.105,-49.956,15.098
913.1,66.282,40.105,-49.956,16.098
923.0,65.282,40.105,-51.956,16.098
932.9,62.282,41.105,-50.956,15.098
942.8,62.282,41.105,-50.956,17.098
952.7,60.282,41.105,-49.956,16.098
962.5,57.282,39.105,-51.956,16.098
972.4,55.282,39.105,-51.956,17.098
982.3,51.282,38.105,-53.956,15.098
992.2,46.282,37.105,-53.956,16.098
1002.1,43.282,35.105,-52.956,16.098
1012.0,37.282,32.105,-53.956,16.098
1021.9,31.282,30.105,-54.956,15.098
1031.7,24.282,26.105,-54.956,15.098
1041.6,19.282,25.105,-56.956,14.098
1051.5,15.282,23.105,-56.956,12.098
1061.4,15.282,25.105,-59.956,14.098
1071.3,19.282,29.105,-59.956,12.098
1081.2,27.282,33.105,-60.956,13.098
1091.1,38.282,41.105,-62.956,12.098
1100.9,59.282,54.105,-61.956,13.098
1110.8,79.282,64.105,-64.956,11.098
1120.7,94.282,70.105,-64.956,11.098
1130.6,110.28,75.105,-66.956,11.098
1140.5,118.28,79.105,-66.956,12.098
1150.4,124.28,79.105,-62.956,14.098
1160.3,126.28,78.105,-63.956,16.098
1170.1,124.28,77.105,-58.956,18.098
1180.0,124.28,75.105,-58.956,20.098
1189.9,122.28,73.105,-55.956,20.098
1199.8,117.28,70.105,-52.956,22.098
1209.7,117.28,70.105,-48.956,24.098
1219.6,104.28,65.105,-44.956,23.098
1229.5,104.28,65.105,-38.956,24.098
1239.3,90.282,56.105,-35.956,24.098
1249.2,90.282,56.105,-35.956,24.098
1259.1,70.282,47.105,-28.956,28.098
1269.0,70.282,47.105,-28.956,28.098
1278.9,44.282,32.105,-24.956,27.098
1288.8,44.282,32.105,-24.956,27.098
1298.7,23.282,24.105,-21.956,29.098
1308.5,23.282,24.105,-21.956,29.098
1318.4,2.2817,13.105,-22.956,28.098
1328.3,2.2817,13.105,-22.956,28.098
1338.2,-7.7183,10.105,-21.956,30.098
1348.1,-7.7183,10.105,-21.956,30.098
1358.0,-18.718,6.105,-23.956,29.098
1367.9,-18.718,6.105,-23.956,29.098
1377.7,-25.718,2.105,-26.956,29.098
1387.6,-25.718,2.105,-26.956,29.098
1397.5,-31.718,-0.895,-31.956,27.098
1407.4,-36.718,-4.895,-31.956,27.098
1417.3,-42.718,-7.895,-37.956,26.098
1427.2,-46.718,-9.895,-37.956,26.098
1437.0,-52.718,-12.895,-38.956,24.098
1446.9,-54.718,-13.895,-38.956,24.098
1456.8,-59.718,-15.895,-42.956,23.098
1466.7,-63.718,-17.895,-43.956,22.098
1476.6,-67.718,-19.895,-43.956,21.098
1486.5,-73.718,-22.895,-44.956,21.098
1496.4,-78.718,-24.895,-45.956,20.098
1506.3,-82.718,-27.895,-45.956,19.098
1516.1,-87.718,-28.895,-46.956,19.098
1526.0,-90.718,-31.895,-45.956,19.098
1535.9,-95.718,-32.895,-48.956,18.098
1545.8,-100.72,-35.895,-50.956,19.098
1555.7,-103.72,-37.895,-50.956,16.098
1565.6,-106.72,-38.895,-53.956,17.098
1575.4,-112.72,-40.895,-54.956,16.098
1585.3,-116.72,-41.895,-56.956,15.098
1595.2,-122.72,-46.895,-55.956,15.098
1605.1,-127.72,-47.895,-58.956,14.098
1615.0,-133.72,-49.895,-58.956,13.098
1624.9,-135.72,-52.895,-61.956,14.098
1634.8,-140.72,-53.895,-62.956,13.098
1644.6,-147.72,-57.895,-62.956,12.098
1654.5,-151.72,-57.895,-64.956,11.098
1664.4,-157.72,-61.895,-65.956,11.098
1674.3,-164.72,-64.895,-67.956,10.098
1684.2,-171.72,-66.895,-71.956,7.0977
1694.1,-177.72,-69.895,-74.956,7.0977
1704.0,-177.72,-68.895,-76.956,6.0977
1713.8,-173.72,-64.895,-77.956,7.0977
1723.7,-166.72,-61.895,-80.956,4.0977
1733.6,-160.72,-56.895,-85.956,3.0977
1743.5,-146.72,-46.895,-86.956,1.0977
1753.4,-128.72,-36.895,-88.956,1.0977
1763.3,-113.72,-30.895,-90.956,-1.9023
1773.2,-99.718,-24.895,-94.956,-0.90225
1783.0,-88.718,-21.895,-96.956,-0.90225
1792.9,-78.718,-17.895,-96.956,-1.9023
1802.8,-70.718,-15.895,-96.956,-0.90225
1812.7,-68.718,-14.895,-96.956,0.097746
1822.6,-66.718,-16.895,-96.956,4.0977
1832.5,-67.718,-16.895,-93.956,5.0977
1842.4,-69.718,-18.895,-92.956,5.0977
1852.2,-70.718,-20.895,-91.956,5.0977
1862.1,-74.718,-22.895,-89.956,5.0977
1872.0,-74.718,-23.895,-88.956,5.0977
1881.9,-77.718,-25.895,-85.956,5.0977
1891.8,-81.718,-26.895,-83.956,7.0977
1901.7,-83.718,-27.895,-83.956,6.0977
1911.6,-86.718,-28.895,-82.956,4.0977
1921.4,-87.718,-31.895,-82.956,4.0977
1931.3,-97.718,-35.895,-81.956,3.0977
1941.2,-95.718,-35.895,-81.956,4.0977
1951.1,-96.718,-35.895,-78.956,3.0977
1961.0,-103.72,-36.895,-81.956,2.0977
1970.9,-100.72,-34.895,-83.956,2.0977
1980.8,-97.718,-33.895,-82.956,3.0977
1990.6,-99.718,-33.895,-85.956,3.0977
2000.5,-96.718,-33.895,-88.956,0.097746
2010.4,-92.718,-29.895,-90.956,-0.90225
2020.3,-91.718,-28.895,-91.956,0.097746
2030.2,-88.718,-26.895,-93.956,0.097746
2040.1,-89.718,-27.895,-95.956,-0.90225
2050.0,-90.718,-27.895,-95.956,0.097746
2059.8,-90.718,-27.895,-96.956,0.097746
2069.7,-90.718,-28.895,-97.956,-1.9023
2079.6,-92.718,-30.895,-96.956,-1.9023
2089.5,-94.718,-32.895,-98.956,-2.9023
2099.4,-94.718,-32.895,-99.956,-4.9023
2109.3,-97.718,-31.895,-97.956,-3.9023
2119.2,-97.718,-31.895,-98.956,-3.9023
2129.0,-103.72,-34.895,-99.956,-3.9023
2138.9,-103.72,-34.895,-96.956,-4.9023
2148.8,-106.72,-35.895,-97.956,-3.9023
2158.7,-106.72,-35.895,-98.956,-4.9023
2168.6,-111.72,-37.895,-98.956,-3.9023
2178.5,-111.72,-37.895,-97.956,-5.9023
2188.4,-119.72,-41.895,-98.956,-5.9023
2198.2,-119.72,-41.895,-99.956,-4.9023
2208.1,-123.72,-43.895,-101.96,-4.9023
2218.0,-123.72,-43.895,-100.96,-3.9023
2227.9,-129.72,-44.895,-100.96,-5.9023
2237.8,-129.72,-44.895,-100.96,-2.9023
2247.7,-135.72,-47.895,-100.96,-4.9023
2257.6,-135.72,-47.895,-100.96,-4.9023
2267.4,-139.72,-49.895,-102.96,-4.9023
2277.3,-140.72,-50.895,-102.96,-5.9023
2287.2,-146.72,-53.895,-101.96,-4.9023
2297.1,-150.72,-55.895,-104.96,-4.9023
2307.0,-156.72,-58.895,-105.96,-5.9023
2316.9,-160.72,-58.895,-107.96,-5.9023
2326.8,-166.72,-61.895,-107.96,-5.9023
2336.6,-165.72,-61.895,-106.96,-6.9023
2346.5,-161.72,-56.895,-105.96,-6.9023
2356.4,-156.72,-51.895,-105.96,-6.9023
2366.3,-144.72,-46.895,-107.96,-6.9023
2376.2,-127.72,-36.895,-107.96,-6.9023
2386.1,-109.72,-26.895,-109.96,-6.9023
2396.0,-92.718,-17.895,-109.96,-6.9023
2405.8,-77.718,-10.895,-111.96,-5.9023
2415.7,-63.718,-5.895,-111.96,-5.9023
2425.6,-50.718,-1.895,-106.96,-4.9023
2435.5,-40.718,2.105,-106.96,-4.9023
2445.4,-37.718,1.105,-103.96,0.097746
2455.3,-36.718,1.105,-103.96,0.097746
2465.2,-38.718,-0.895,-97.956,4.0977
2475.0,-40.718,-0.895,-97.956,4.0977
2484.9,-42.718,-4.895,-89.956,6.0977
2494.8,-44.718,-6.895,-89.956,6.0977
2504.7,-47.718,-8.895,-80.956,8.0977
2514.6,-50.718,-10.895,-80.956,8.0977
2524.5,-53.718,-10.895,-75.956,11.098
2534.4,-54.718,-12.895,-75.956,11.098
2544.2,-56.718,-11.895,-69.956,11.098
2554.1,-55.718,-13.895,-69.956,11.098
2564.0,-64.718,-17.895,-66.956,12.098
2573.9,-68.718,-18.895,-60.956,13.098
2583.8,-68.718,-20.895,-60.956,12.098
2593.7,-74.718,-21.895,-57.956,13.098
2603.6,-76.718,-22.895,-58.956,14.098
2613.4,-74.718,-21.895,-57.956,14.098
2623.3,-78.718,-22.895,-55.956,14.098
2633.2,-76.718,-21.895,-55.956,15.098
2643.1,-73.718,-18.895,-56.956,15.098
2653.0,-71.718,-18.895,-55.956,16.098
2662.9,-72.718,-17.895,-57.956,15.098
2672.8,-74.718,-19.895,-58.956,16.098
2682.6,-73.718,-18.895,-59.956,16.098
2692.5,-75.718,-19.895,-61.956,16.098
2702.4,-77.718,-21.895,-60.956,15.098
2712.3,-81.718,-23.895,-59.956,15.098
2722.2,-83.718,-24.895,-61.956,15.098
2732.1,-85.718,-26.895,-62.956,15.098
2742.0,-88.718,-27.895,-60.956,15.098
2751.8,-94.718,-30.895,-58.956,15.098
2761.7,-97.718,-31.895,-57.956,14.098
2771.6,-101.72,-33.895,-59.956,15.098
2781.5,-108.72,-36.895,-56.956,15.098
2791.4,-110.72,-36.895,-56.956,15.098
2801.3,-112.72,-38.895,-55.956,16.098
2811.2,-113.72,-39.895,-54.956,16.098
2821.0,-117.72,-41.895,-54.956,17.098
2830.9,-120.72,-42.895,-53.956,17.098
2840.8,-124.72,-44.895,-54.956,18.098
2850.7,-126.72,-45.895,-53.956,18.098
2860.6,-130.72,-46.895,-53.956,18.098
2870.5,-134.72,-47.895,-52.956,21.098
2880.4,-135.72,-47.895,-53.956,19.098
2890.2,-139.72,-50.895,-52.956,20.098
2900.1,-143.72,-52.895,-51.956,20.098
2910.0,-152.72,-56.895,-52.956,20.098
2919.9,-157.72,-58.895,-53.956,20.098
2929.8,-162.72,-60.895,-54.956,18.098
2939.7,-166.72,-62.895,-53.956,19.098
2949.6,-164.72,-61.895,-54.956,19.098
2959.4,-163.72,-57.895,-58.956,18.098
2969.3,-163.72,-57.895,-58.956,19.098
2979.2,-144.72,-46.895,-57.956,19.098
2989.1,-144.72,-46.895,-57.956,19.098
2999.0,-111.72,-26.895,-55.956,18.098
3008.9,-111.72,-26.895,-57.956,19.098
3018.8,-82.718,-13.895,-58.956,18.098
3028.6,-82.718,-13.895,-59.956,19.098
3038.5,-64.718,-8.895,-55.956,21.098
3048.4,-64.718,-8.895,-54.956,21.098
3058.3,-55.718,-6.895,-53.956,23.098
3068.2,-55.718,-6.895,-51.956,27.098
3078.1,-56.718,-10.895,-46.956,29.098
3088.0,-56.718,-10.895,-46.956,31.098
3097.8,-58.718,-11.895,-40.956,31.098
3107.7,-58.718,-11.895,-35.956,34.098
3117.6,-63.718,-15.895,-32.956,35.098
3127.5,-63.718,-15.895,-28.956,36.098
3137.4,-66.718,-17.895,-25.956,37.098
3147.3,-66.718,-17.895,-21.956,39.098
3157.2,-66.718,-16.895,-15.956,41.098
3167.0,-67.718,-17.895,-10.956,41.098
3176.9,-70.718,-19.895,-7.956,43.098
3186.8,-72.718,-20.895,-1.956,44.098
3196.7,-79.718,-24.895,2.044,45.098
3206.6,-80.718,-25.895,5.044,47.098
3216.5,-82.718,-25.895,9.044,48.098
3226.4,-84.718,-26.895,9.044,48.098
3236.2,-81.718,-24.895,11.044,51.098
3246.1,-83.718,-26.895,12.044,50.098
3256.0,-82.718,-23.895,10.044,49.098
3265.9,-77.718,-21.895,6.044,49.098
3275.8,-74.718,-21.895,7.044,49.098
3285.7,-73.718,-19.895,4.044,49.098
3295.6,-74.718,-19.895,3.044,49.098
3305.4,-73.718,-19.895,3.044,49.098
3315.3,-75.718,-20.895,3.044,49.098
3325.2,-77.718,-21.895,3.044,50.098
3335.1,-79.718,-24.895,5.044,49.098
3345.0,-84.718,-23.895,5.044,50.098
3354.9,-85.718,-27.895,7.044,51.098
3364.8,-90.718,-28.895,10.044,52.098
3374.6,-93.718,-30.895,10.044,52.098
3384.5,-97.718,-31.895,13.044,53.098
3394.4,-99.718,-34.895,13.044,53.098
3404.3,-103.72,-36.895,13.044,53.098
3414.2,-107.72,-35.895,14.044,53.098
3424.1,-108.72,-37.895,14.044,53.098
3434.0,-112.72,-40.895,13.044,53.098
3443.8,-116.72,-42.895,13.044,53.098
3453.7,-118.72,-43.895,13.044,53.098
3463.6,-124.72,-44.895,13.044,53.098
3473.5,-128.72,-48.895,9.044,53.098
3483.4,-135.72,-50.895,9.044,53.098
3493.3,-143.72,-54.895,9.044,54.098
3503.2,-149.72,-57.895,9.044,54.098
3513.0,-159.72,-61.895,6.044,52.098
3522.9,-167.72,-66.895,6.044,52.098
3532.8,-171.72,-68.895,4.044,53.098
3542.7,-180.72,-69.895,4.044,53.098
3552.6,-181.72,-70.895,4.044,51.098
3562.5,-181.72,-71.895,4.044,51.098
3572.4,-178.72,-67.895,1.044,51.098
3582.2,-172.72,-64.895,1.044,51.098
3592.1,-162.72,-56.895,0.043963,52.098
3602.0,-146.72,-47.895,0.043963,52.098
3611.9,-129.72,-37.895,1.044,50.098
3621.8,-115.72,-30.895,-1.956,50.098
3631.7,-101.72,-25.895,-3.956,49.098
3641.6,-92.718,-22.895,-3.956,51.098
3651.4,-84.718,-19.895,-2.956,51.098
3661.3,-76.718,-17.895,2.044,54.098
3671.2,-73.718,-18.895,1.044,57.098
3681.1,-71.718,-16.895,5.044,59.098
3691.0,-68.718,-17.895,9.044,60.098
3700.9,-69.718,-18.895,14.044,63.098
3710.8,-68.718,-19.895,16.044,63.098
3720.6,-69.718,-19.895,19.044,65.098
3730.5,-67.718,-18.895,25.044,67.098
3740.4,-67.718,-19.895,28.044,69.098
3750.3,-63.718,-16.895,32.044,68.098
3760.2,-61.718,-15.895,35.044,69.098
3770.1,-59.718,-13.895,40.044,70.098
3780.0,-60.718,-15.895,41.044,70.098
3789.8,-64.718,-17.895,44.044,71.098
3799.7,-68.718,-19.895,46.044,72.098
3809.6,-69.718,-20.895,50.044,72.098
3819.5,-67.718,-19.895,53.044,74.098
3829.4,-71.718,-20.895,55.044,75.098
3839.3,-71.718,-19.895,56.044,76.098
3849.2,-67.718,-18.895,58.044,76.098
3859.0,-67.718,-18.895,59.044,77.098
3868.9,-64.718,-16.895,57.044,77.098
3878.8,-64.718,-16.895,55.044,75.098
3888.7,-56.718,-13.895,51.044,75.098
3898.6,-56.718,-13.895,49.044,74.098
3908.5,-56.718,-12.895,46.044,73.098
3918.4,-56.718,-12.895,45.044,71.098
3928.2,-56.718,-13.895,40.044,71.098
3938.1,-56.718,-13.895,43.044,71.098
3948.0,-57.718,-14.895,41.044,70.098
3957.9,-57.718,-14.895,44.044,72.098
3967.8,-62.718,-16.895,45.044,72.098
3977.7,-62.718,-16.895,47.044,71.098
3987.5,-66.718,-19.895,48.044,73.098
3997.4,-66.718,-19.895,49.044,72.098
4007.3,-68.718,-21.895,49.044,72.098
4017.2,-68.718,-21.895,49.044,73.098
4027.1,-68.718,-22.895,47.044,72.098
4037.0,-70.718,-22.895,46.044,72.098
4046.9,-69.718,-21.895,45.044,72.098
4056.8,-67.718,-21.895,45.044,71.098
4066.6,-68.718,-20.895,41.044,69.098
4076.5,-67.718,-20.895,39.044,69.098
4086.4,-65.718,-19.895,37.044,69.098
4096.3,-63.718,-19.895,38.044,68.098
4106.2,-63.718,-19.895,35.044,67.098
4116.1,-64.718,-17.895,33.044,67.098
4125.9,-66.718,-19.895,31.044,65.098
4135.8,-68.718,-21.895,26.044,63.098
4145.7,-68.718,-21.895,28.044,63.098
4155.6,-70.718,-21.895,24.044,63.098
4165.5,-71.718,-20.895,22.044,62.098
4175.4,-65.718,-14.895,19.044,61.098
4185.3,-53.718,-9.895,20.044,61.098
4195.2,-38.718,-0.895,21.044,61.098
4205.0,-20.718,12.105,19.044,61.098
4214.9,1.2817,24.105,19.044,60.098
4224.8,21.282,32.105,17.044,60.098
4234.7,36.282,38.105,19.044,59.098
4244.6,48.282,45.105,21.044,63.098
4254.5,58.282,49.105,25.044,64.098
4264.3,64.282,50.105,24.044,66.098
4274.2,67.282,51.105,25.044,68.098
4284.1,70.282,53.105,26.044,71.098
4294.0,74.282,51.105,28.044,72.098
4303.9,78.282,54.105,30.044,72.098
4313.8,81.282,56.105,33.044,73.098
4323.7,85.282,56.105,38.044,74.098
4333.5,92.282,59.105,42.044,73.098
4343.4,93.282,61.105,45.044,77.098
4353.3,99.282,62.105,49.044,79.098
4363.2,103.28,63.105,52.044,80.098
4373.1,108.28,67.105,54.044,80.098
4383.0,111.28,68.105,59.044,81.098
4392.9,114.28,68.105,61.044,82.098
4402.7,111.28,67.105,64.044,83.098
4412.6,110.28,65.105,64.044,83.098
4422.5,111.28,65.105,67.044,84.098
4432.4,115.28,68.105,67.044,84.098
4442.3,115.28,66.105,66.044,84.098
4452.2,116.28,69.105,65.044,83.098
4462.1,121.28,71.105,63.044,83.098
4471.9,121.28,71.105,61.044,84.098
4481.8,123.28,73.105,60.044,83.098
4491.7,128.28,74.105,58.044,84.098
4501.6,130.28,76.105,58.044,84.098
4511.5,132.28,76.105,58.044,84.098
4521.4,135.28,77.105,56.044,84.098
4531.3,133.28,77.105,56.044,84.098
4541.1,133.28,77.105,54.044,82.098
4551.0,133.28,78.105,54.044,82.098
4560.9,134.28,77.105,53.044,83.098
4570.8,133.28,76.105,53.044,83.098
4580.7,129.28,76.105,50.044,81.098
4590.6,128.28,75.105,50.044,81.098
4600.5,127.28,72.105,48.044,83.098
4610.3,123.28,71.105,48.044,83.098
4620.2,120.28,70.105,47.044,83.098
4630.1,119.28,71.105,47.044,83.098
4640.0,116.28,69.105,45.044,81.098
4649.9,115.28,68.105,45.044,81.098
4659.8,111.28,66.105,41.044,81.098
4669.7,109.28,64.105,41.044,81.098
4679.5,108.28,64.105,37.044,83.098
4689.4,108.28,64.105,37.044,83.098
4699.3,108.28,63.105,35.044,81.098
4709.2,103.28,61.105,35.044,81.098
4719.1,102.28,60.105,31.044,80.098
4729.0,102.28,60.105,29.044,81.098
4738.9,93.282,54.105,26.044,79.098
4748.7,93.282,54.105,25.044,79.098
4758.6,88.282,53.105,23.044,78.098
4768.5,88.282,53.105,21.044,79.098
4778.4,90.282,57.105,22.044,80.098
4788.3,90.282,57.105,16.044,80.098
4798.2,112.28,70.105,19.044,79.098
4808.1,112.28,70.105,14.044,78.098
4817.9,147.28,89.105,15.044,79.098
4827.8,147.28,89.105,12.044,78.098
4837.7,172.28,101.1,12.044,78.098
4847.6,172.28,101.1,10.044,77.098
4857.5,184.28,105.1,13.044,80.098
4867.4,184.28,105.1,14.044,82.098
4877.3,191.28,105.1,13.044,85.098
4887.1,191.28,105.1,12.044,86.098
4897.0,193.28,106.1,13.044,88.098
4906.9,194.28,106.1,16.044,88.098
4916.8,196.28,106.1,19.044,90.098
4926.7,198.28,106.1,22.044,91.098
4936.6,203.28,107.1,25.044,93.098
4946.5,204.28,109.1,29.044,95.098
4956.3,210.28,110.1,34.044,95.098
4966.2,210.28,110.1,39.044,98.098
4976.1,213.28,113.1,44.044,99.098
4986.0,217.28,113.1,47.044,100.1
4995.9,217.28,113.1,49.044,103.1
5005.8,218.28,110.1,52.044,105.1
5015.7,217.28,111.1,55.044,105.1
5025.5,213.28,109.1,55.044,106.1
5035.4,214.28,109.1,55.044,106.1
5045.3,216.28,110.1,53.044,107.1
5055.2,212.28,109.1,52.044,107.1
5065.1,218.28,112.1,48.044,107.1
5075.0,220.28,111.1,47.044,106.1
5084.9,219.28,110.1,47.044,107.1
5094.7,221.28,112.1,48.044,109.1
5104.6,223.28,113.1,46.044,108.1
5114.5,226.28,113.1,45.044,108.1
5124.4,225.28,114.1,43.044,107.1
5134.3,225.28,113.1,40.044,110.1
5144.2,225.28,113.1,41.044,110.1
5154.1,224.28,113.1,41.044,108.1
5163.9,224.28,113.1,39.044,108.1
5173.8,220.28,111.1,38.044,108.1
5183.7,222.28,110.1,37.044,108.1
5193.6,219.28,109.1,36.044,110.1
5203.5,216.28,107.1,33.044,108.1
5213.4,213.28,106.1,36.044,109.1
5223.3,209.28,105.1,34.044,109.1
5233.1,206.28,103.1,32.044,108.1
5243.0,205.28,103.1,28.044,107.1
5252.9,203.28,101.1,29.044,107.1
5262.8,202.28,101.1,28.044,106.1
5272.7,201.28,101.1,26.044,107.1
5282.6,200.28,99.105,25.044,106.1
5292.5,198.28,100.1,21.044,107.1
5302.3,195.28,98.105,21.044,106.1
5312.2,195.28,98.105,19.044,106.1
5322.1,194.28,97.105,17.044,104.1
5332.0,193.28,96.105,15.044,104.1
5341.9,189.28,95.105,14.044,103.1
5351.8,187.28,94.105,10.044,103.1
5361.7,182.28,91.105,10.044,102.1
5371.5,178.28,90.105,7.044,100.1
5381.4,175.28,88.105,3.044,101.1
5391.3,171.28,87.105,3.044,98.098
5401.2,170.28,87.105,2.044,98.098
5411.1,174.28,90.105,-0.95604,96.098
5421.0,179.28,93.105,-1.956,94.098
5430.9,189.28,99.105,-5.956,94.098
5440.7,203.28,107.1,-5.956,93.098
5450.6,219.28,116.1,-6.956,93.098
5460.5,233.28,123.1,-9.956,93.098
5470.4,242.28,127.1,-10.956,92.098
5480.3,251.28,130.1,-10.956,91.098
5490.2,254.28,130.1,-8.956,92.098
5500.1,256.28,130.1,-6.956,94.098
5509.9,257.28,128.1,-8.956,95.098
5519.8,256.28,129.1,-7.956,96.098
5529.7,254.28,127.1,-7.956,98.098
5539.6,254.28,125.1,-7.956,98.098
5549.5,253.28,124.1,-1.956,97.098
5559.4,254.28,125.1,-1.956,97.098
5569.3,255.28,125.1,3.044,99.098
5579.1,255.28,125.1,3.044,99.098
5589.0,255.28,125.1,9.044,98.098
5598.9,255.28,125.1,9.044,98.098
5608.8,256.28,124.1,17.044,100.1
5618.7,256.28,124.1,17.044,100.1
5628.6,253.28,122.1,21.044,102.1
5638.5,253.28,122.1,21.044,102.1
5648.3,245.28,116.1,27.044,100.1
5658.2,245.28,116.1,27.044,100.1
5668.1,245.28,117.1,27.044,99.098
5678.0,245.28,117.1,27.044,99.098
5687.9,239.28,115.1,27.044,98.098
5697.8,239.28,115.1,27.044,98.098
5707.7,237.28,114.1,20.044,96.098
5717.5,237.28,114.1,20.044,96.098
5727.4,235.28,112.1,19.044,95.098
5737.3,235.28,112.1,19.044,95.098
5747.2,235.28,111.1,16.044,92.098
5757.1,235.28,111.1,16.044,92.098
5767.0,234.28,110.1,15.044,92.098
5776.9,229.28,108.1,15.044,92.098
5786.7,230.28,108.1,16.044,90.098
5796.6,226.28,106.1,17.044,92.098
5806.5,224.28,104.1,17.044,89.098
5816.4,221.28,102.1,16.044,90.098
5826.3,217.28,99.105,13.044,87.098
5836.2,214.28,98.105,12.044,87.098
5846.1,211.28,96.105,11.044,87.098
5855.9,207.28,94.105,10.044,86.098
5865.8,203.28,93.105,9.044,85.098
5875.7,202.28,92.105,7.044,82.098
5885.6,199.28,91.105,6.044,83.098
5895.5,196.28,90.105,5.044,82.098
5905.4,195.28,88.105,5.044,83.098
5915.3,192.28,86.105,5.044,81.098
5925.1,190.28,86.105,2.044,80.098
5935.0,186.28,84.105,3.044,81.098
5944.9,182.28,82.105,2.044,79.098
5954.8,178.28,81.105,1.044,78.098
5964.7,174.28,78.105,-0.95604,78.098
5974.6,171.28,76.105,0.043963,76.098
5984.5,168.28,75.105,-4.956,75.098
5994.3,163.28,73.105,-4.956,74.098
6004.2,159.28,70.105,-5.956,72.098
6014.1,155.28,68.105,-5.956,72.098
6024.0,152.28,66.105,-6.956,72.098
6033.9,144.28,62.105,-5.956,71.098
6043.8,139.28,59.105,-10.956,69.098
6053.7,134.28,57.105,-10.956,68.098
6063.5,126.28,53.105,-12.956,67.098
6073.4,119.28,48.105,-13.956,67.098
6083.3,114.28,45.105,-13.956,68.098
6093.2,109.28,44.105,-12.956,66.098
6103.1,104.28,42.105,-12.956,67.098
6113.0,104.28,43.105,-14.956,66.098
6122.9,111.28,46.105,-17.956,66.098
6132.7,117.28,50.105,-17.956,65.098
6142.6,129.28,59.105,-18.956,65.098
6152.5,139.28,64.105,-16.956,64.098
6162.4,147.28,66.105,-16.956,63.098
6172.3,153.28,68.105,-17.956,63.098
6182.2,161.28,72.105,-15.956,65.098
6192.1,166.28,72.105,-11.956,66.098
6201.9,168.28,73.105,-11.956,69.098
6211.8,167.28,71.105,-8.956,72.098
6221.7,168.28,72.105,-6.956,73.098
6231.6,169.28,72.105,-1.956,76.098
6241.5,173.28,74.105,2.044,76.098
6251.4,176.28,74.105,6.044,79.098
6261.3,179.28,75.105,9.044,79.098
6271.1,182.28,78.105,16.044,79.098
6281.0,182.28,77.105,19.044,81.098
6290.9,186.28,79.105,24.044,82.098
6300.8,186.28,77.105,28.044,84.098
6310.7,184.28,76.105,34.044,84.098
6320.6,178.28,73.105,36.044,85.098
6330.5,175.28,71.105,38.044,87.098
6340.3,169.28,67.105,40.044,87.098
6350.2,164.28,66.105,44.044,87.098
6360.1,168.28,67.105,46.044,88.098
6370.0,163.28,64.105,48.044,88.098
6379.9,160.28,62.105,48.044,87.098
6389.8,164.28,63.105,46.044,88.098
6399.7,163.28,64.105,48.044,87.098
6409.5,164.28,64.105,48.044,87.098
6419.4,164.28,64.105,48.044,87.098
6429.3,167.28,63.105,47.044,86.098
6439.2,169.28,65.105,48.044,87.098
6449.1,168.28,63.105,46.044,85.098
6459.0,168.28,62.105,45.044,85.098
6468.9,168.28,62.105,44.044,84.098
6478.7,165.28,62.105,46.044,84.098
6488.6,165.28,62.105,43.044,83.098
6498.5,162.28,60.105,47.044,83.098
6508.4,162.28,60.105,45.044,83.098
6518.3,157.28,57.105,44.044,83.098
6528.2,157.28,57.105,43.044,82.098
6538.1,151.28,52.105,43.044,82.098
6547.9,151.28,52.105,44.044,80.098
6557.8,148.28,53.105,44.044,79.098
6567.7,148.28,53.105,42.044,79.098
6577.6,143.28,50.105,41.044,78.098
6587.5,143.28,50.105,40.044,78.098
6597.4,139.28,48.105,38.044,77.098
6607.3,139.28,48.105,39.044,78.098
6617.1,134.28,45.105,39.044,78.098
6627.0,134.28,45.105,39.044,78.098
6636.9,130.28,45.105,40.044,76.098
6646.8,128.28,43.105,40.044,76.098
6656.7,126.28,41.105,41.044,75.098
6666.6,122.28,40.105,41.044,75.098
6676.4,120.28,39.105,40.044,75.098
6686.3,115.28,36.105,40.044,75.098
6696.2,114.28,37.105,41.044,75.098
6706.1,110.28,35.105,41.044,75.098
6716.0,110.28,35.105,41.044,73.098
6725.9,106.28,34.105,41.044,73.098
6735.8,103.28,31.105,39.044,74.098
6745.7,98.282,30.105,39.044,74.098
6755.5,95.282,28.105,40.044,73.098
6765.4,90.282,26.105,40.044,73.098
6775.3,86.282,25.105,39.044,71.098
6785.2,82.282,21.105,39.044,71.098
6795.1,77.282,18.105,36.044,70.098
6805.0,72.282,18.105,36.044,70.098
6814.8,69.282,16.105,33.044,68.098
6824.7,68.282,15.105,33.044,68.098
6834.6,67.282,16.105,31.044,67.098
6844.5,71.282,19.105,31.044,67.098
6854.4,81.282,26.105,31.044,66.098
6864.3,92.282,33.105,28.044,65.098
6874.2,106.28,41.105,29.044,63.098
6884.0,119.28,48.105,30.044,64.098
6893.9,130.28,53.105,30.044,62.098
6903.8,137.28,55.105,27.044,63.098
6913.7,141.28,58.105,29.044,63.098
6923.6,147.28,58.105,33.044,66.098
6933.5,149.28,59.105,35.044,68.098
6943.4,149.28,59.105,35.044,70.098
6953.2,149.28,56.105,39.044,73.098
6963.1,148.28,56.105,43.044,73.098
6973.0,145.28,55.105,45.044,73.098
6982.9,144.28,54.105,52.044,75.098
6992.8,142.28,52.105,58.044,78.098
7002.7,145.28,52.105,62.044,79.098
7012.6,143.28,52.105,67.044,80.098
7022.4,143.28,52.105,72.044,81.098
7032.3,144.28,52.105,77.044,83.098
7042.2,144.28,51.105,84.044,85.098
7052.1,142.28,51.105,89.044,85.098
7062.0,137.28,47.105,93.044,87.098
7071.9,134.28,46.105,97.044,90.098
7081.8,136.28,49.105,99.044,90.098
7091.6,141.28,51.105,101.04,89.098
7101.5,137.28,50.105,101.04,90.098
7111.4,143.28,54.105,102.04,89.098
7121.3,149.28,55.105,103.04,89.098
7131.2,152.28,57.105,101.04,89.098
7141.1,156.28,58.105,99.044,89.098
7151.0,158.28,60.105,102.04,90.098
7160.8,161.28,62.105,103.04,89.098
7170.7,160.28,61.105,101.04,89.098
7180.6,160.28,61.105,100.04,88.098
7190.5,161.28,61.105,100.04,87.098
7200.4,161.28,60.105,99.044,88.098
7210.3,160.28,59.105,98.044,86.098
7220.2,156.28,59.105,98.044,85.098
7230.0,155.28,57.105,98.044,86.098
7239.9,152.28,57.105,98.044,84.098
7249.8,148.28,55.105,98.044,84.098
7259.7,146.28,53.105,100.04,85.098
7269.6,144.28,51.105,100.04,83.098
7279.5,138.28,51.105,98.044,84.098
7289.4,136.28,50.105,99.044,81.098
7299.2,134.28,48.105,98.044,84.098
7309.1,133.28,48.105,98.044,84.098
7319.0,130.28,45.105,99.044,84.098
7328.9,127.28,46.105,101.04,84.098
7338.8,127.28,46.105,100.04,85.098
7348.7,122.28,43.105,101.04,85.098
7358.6,122.28,43.105,100.04,85.098
7368.4,115.28,40.105,103.04,85.098
7378.3,115.28,40.105,101.04,85.098
7388.2,107.28,36.105,103.04,84.098
7398.1,107.28,36.105,102.04,84.098
7408.0,98.282,33.105,103.04,83.098
7417.9,98.282,33.105,101.04,84.098
7427.8,90.282,29.105,100.04,83.098
7437.6,90.282,29.105,103.04,84.098
7447.5,80.282,23.105,101.04,83.098
7457.4,80.282,23.105,102.04,83.098
7467.3,63.282,16.105,100.04,83.098
7477.2,63.282,16.105,99.044,83.098
7487.1,44.282,8.105,98.044,82.098
7497.0,44.282,8.105,98.044,81.098
7506.8,30.282,2.105,95.044,82.098
7516.7,18.282,-5.895,96.044,82.098
7526.6,3.2817,-10.895,96.044,80.098
7536.5,-5.7183,-15.895,93.044,79.098
7546.4,-16.718,-19.895,94.044,80.098
7556.3,-22.718,-21.895,93.044,77.098
7566.2,-23.718,-20.895,92.044,80.098
7576.0,-19.718,-18.895,94.044,78.098
7585.9,-15.718,-12.895,93.044,80.098
7595.8,-5.7183,-7.895,94.044,80.098
7605.7,3.2817,-3.895,94.044,79.098
7615.6,12.282,0.105,94.044,79.098
7625.5,17.282,1.105,95.044,80.098
7635.4,21.282,2.105,96.044,81.098
7645.2,22.282,1.105,100.04,83.098
7655.1,22.282,1.105,103.04,86.098
7665.0,24.282,0.105,102.04,88.098
7674.9,23.282,-0.895,102.04,88.098
7684.8,23.282,-1.895,107.04,87.098
7694.7,22.282,-3.895,107.04,87.098
7704.6,21.282,-2.895,113.04,87.098
7714.4,20.282,-3.895,113.04,87.098
7724.3,21.282,-3.895,121.04,89.098
7734.2,22.282,-3.895,121.04,89.098
7744.1,22.282,-4.895,129.04,89.098
7754.0,21.282,-4.895,129.04,89.098
7763.9,23.282,-5.895,132.04,89.098
7773.8,19.282,-6.895,132.04,89.098
7783.6,15.282,-9.895,136.04,90.098
7793.5,7.2817,-12.895,136.04,90.098
7803.4,9.2817,-12.895,134.04,88.098
7813.3,10.282,-11.895,134.04,88.098
7823.2,3.2817,-14.895,133.04,86.098
7833.1,8.2817,-11.895,133.04,86.098
7843.0,9.2817,-11.895,128.04,84.098
7852.8,8.2817,-12.895,128.04,84.098
7862.7,10.282,-11.895,124.04,81.098
7872.6,10.282,-10.895,124.04,81.098
7882.5,9.2817,-11.895,121.04,80.098
7892.4,8.2817,-12.895,121.04,80.098
7902.3,5.2817,-13.895,120.04,79.098
7912.2,3.2817,-15.895,117.04,78.098
7922.0,-0.7183,-16.895,116.04,77.098
7931.9,-5.7183,-19.895,115.04,77.098
7941.8,-8.7183,-20.895,113.04,74.098
7951.7,-12.718,-21.895,113.04,74.098
7961.6,-13.718,-22.895,111.04,73.098
7971.5,-16.718,-24.895,111.04,72.098
7981.4,-21.718,-25.895,109.04,72.098
7991.2,-24.718,-28.895,108.04,70.098
8001.1,-27.718,-29.895,108.04,70.098
8011.0,-29.718,-31.895,105.04,69.098
8020.9,-31.718,-32.895,102.04,68.098
8030.8,-35.718,-33.895,99.044,68.098
8040.7,-38.718,-35.895,98.044,66.098
8050.6,-41.718,-36.895,96.044,66.098
8060.4,-43.718,-35.895,94.044,64.098
8070.3,-45.718,-38.895,91.044,64.098
8080.2,-50.718,-39.895,90.044,62.098
8090.1,-53.718,-42.895,89.044,61.098
8100.0,-57.718,-42.895,87.044,59.098
8109.9,-57.718,-44.895,82.044,57.098
8119.8,-61.718,-45.895,80.044,55.098
8129.6,-63.718,-45.895,77.044,54.098
8139.5,-65.718,-47.895,74.044,53.098
8149.4,-68.718,-48.895,74.044,50.098
8159.3,-72.718,-50.895,71.044,50.098
8169.2,-75.718,-51.895,69.044,48.098
8179.1,-81.718,-53.895,66.044,47.098
8189.0,-87.718,-56.895,65.044,44.098
8198.8,-93.718,-59.895,59.044,41.098
8208.7,-93.718,-59.895,60.044,39.098
8218.6,-100.72,-63.895,54.044,38.098
8228.5,-100.72,-63.895,52.044,37.098
8238.4,-106.72,-64.895,48.044,35.098
8248.3,-106.72,-64.895,46.044,33.098
8258.2,-99.718,-58.895,42.044,32.098
8268.0,-99.718,-58.895,40.044,30.098
8277.9,-76.718,-43.895,37.044,28.098
8287.8,-76.718,-43.895,37.044,27.098
8297.7,-45.718,-28.895,31.044,26.098
8307.6,-45.718,-28.895,29.044,25.098
8317.5,-22.718,-18.895,25.044,22.098
8327.4,-22.718,-18.895,23.044,21.098
8337.2,-6.7183,-13.895,24.044,22.098
8347.1,-6.7183,-13.895,26.044,22.098
8357.0,-2.7183,-12.895,28.044,25.098
8366.9,-2.7183,-12.895,28.044,27.098
8376.8,-2.7183,-13.895,27.044,28.098
8386.7,-3.7183,-14.895,32.044,28.098
8396.6,-0.7183,-13.895,34.044,30.098
8406.4,-1.7183,-15.895,36.044,28.098
8416.3,-2.7183,-14.895,40.044,28.098
8426.2,-1.7183,-15.895,41.044,29.098
8436.1,0.2817,-14.895,44.044,31.098
8446.0,0.2817,-13.895,48.044,29.098
8455.9,2.2817,-15.895,50.044,30.098
8465.8,3.2817,-12.895,52.044,30.098
8475.6,-1.7183,-15.895,50.044,29.098
8485.5,-6.7183,-19.895,53.044,29.098
8495.4,-11.718,-21.895,52.044,29.098
8505.3,-7.7183,-20.895,52.044,28.098
8515.2,-11.718,-22.895,51.044,27.098
8525.1,-14.718,-23.895,52.044,28.098
8535.0,-8.7183,-19.895,49.044,27.098
8544.8,-12.718,-20.895,49.044,28.098
8554.7,-9.7183,-19.895,49.044,26.098
8564.6,-7.7183,-19.895,47.044,28.098
8574.5,-5.7183,-17.895,45.044,26.098
8584.4,-5.7183,-16.895,43.044,26.098
8594.3,-5.7183,-17.895,42.044,26.098
8604.2,-6.7183,-16.895,43.044,25.098
8614.0,-8.7183,-18.895,43.044,23.098
8623.9,-9.7183,-19.895,41.044,22.098
8633.8,-12.718,-20.895,42.044,23.098
8643.7,-13.718,-21.895,43.044,22.098
8653.6,-16.718,-23.895,41.044,22.098
8663.5,-20.718,-24.895,41.044,21.098
8673.4,-25.718,-27.895,43.044,21.098
8683.2,-28.718,-30.895,43.044,20.098
8693.1,-33.718,-31.895,43.044,21.098
8703.0,-36.718,-32.895,44.044,21.098
8712.9,-41.718,-34.895,43.044,20.098
8722.8,-44.718,-37.895,43.044,21.098
8732.7,-49.718,-38.895,41.044,19.098
8742.6,-54.718,-40.895,41.044,20.098
8752.4,-56.718,-41.895,40.044,20.098
8762.3,-59.718,-43.895,39.044,19.098
8772.2,-63.718,-45.895,39.044,19.098
8782.1,-64.718,-46.895,37.044,18.098
8792.0,-66.718,-46.895,39.044,18.098
8801.9,-71.718,-48.895,34.044,16.098
8811.8,-73.718,-49.895,35.044,16.098
8821.6,-76.718,-51.895,35.044,15.098
8831.5,-80.718,-52.895,33.044,15.098
8841.4,-82.718,-54.895,33.044,15.098
8851.3,-86.718,-57.895,32.044,14.098
8861.2,-94.718,-60.895,32.044,14.098
8871.1,-101.72,-63.895,28.044,12.098
8881.0,-107.72,-64.895,28.044,12.098
8890.8,-111.72,-68.895,28.044,9.0977
8900.7,-116.72,-69.895,28.044,9.0977
8910.6,-121.72,-71.895,25.044,10.098
8920.5,-119.72,-70.895,25.044,10.098
8930.4,-116.72,-67.895,23.044,9.0977
8940.3,-107.72,-61.895,23.044,9.0977
8950.2,-96.718,-55.895,23.044,8.0977
8960.0,-79.718,-44.895,23.044,8.0977
8969.9,-63.718,-35.895,20.044,6.0977
8979.8,-50.718,-30.895,20.044,6.0977
8989.7,-35.718,-23.895,17.044,5.0977
8999.6,-27.718,-20.895,17.044,5.0977
9009.5,-18.718,-18.895,20.044,7.0977
9019.4,-11.718,-16.895,20.044,7.0977
9029.2,-9.7183,-15.895,25.044,13.098
9039.1,-6.7183,-16.895,25.044,13.098
9049.0,-7.7183,-17.895,27.044,13.098
9058.9,-6.7183,-16.895,30.044,15.098
9068.8,-7.7183,-17.895,33.044,15.098
9078.7,-7.7183,-17.895,35.044,15.098
9088.6,-10.718,-19.895,38.044,16.098
9098.4,-10.718,-19.895,40.044,17.098
9108.3,-9.7183,-19.895,45.044,14.098
9118.2,-9.7183,-19.895,47.044,16.098
9128.1,-7.7183,-18.895,49.044,15.098
9138.0,-7.7183,-18.895,53.044,18.098
9147.9,-10.718,-21.895,54.044,17.098
9157.8,-10.718,-21.895,56.044,17.098
9167.6,-21.718,-27.895,60.044,19.098
9177.5,-21.718,-27.895,59.044,19.098
9187.4,-26.718,-29.895,59.044,19.098
9197.3,-26.718,-29.895,60.044,18.098
9207.2,-28.718,-30.895,61.044,18.098
9217.1,-28.718,-30.895,59.044,18.098
9226.9,-33.718,-31.895,59.044,18.098
9236.8,-33.718,-31.895,57.044,17.098
9246.7,-32.718,-30.895,56.044,18.098
9256.6,-30.718,-29.895,54.044,17.098
9266.5,-30.718,-30.895,54.044,18.098
9276.4,-33.718,-32.895,51.044,17.098
9286.3,-35.718,-31.895,54.044,17.098
9296.2,-39.718,-33.895,52.044,16.098
9306.0,-42.718,-36.895,51.044,17.098
9315.9,-47.718,-37.895,52.044,16.098
9325.8,-50.718,-39.895,54.044,16.098
9335.7,-55.718,-41.895,52.044,17.098
9345.6,-59.718,-44.895,54.044,17.098
9355.5,-64.718,-46.895,54.044,17.098
9365.3,-67.718,-47.895,52.044,17.098
9375.2,-74.718,-50.895,53.044,18.098
9385.1,-78.718,-52.895,52.044,17.098
9395.0,-84.718,-55.895,52.044,16.098
9404.9,-89.718,-58.895,54.044,17.098
9414.8,-94.718,-59.895,50.044,16.098
9424.7,-98.718,-61.895,49.044,16.098
9434.6,-100.72,-63.895,51.044,16.098
9444.4,-107.72,-65.895,48.044,15.098
9454.3,-108.72,-65.895,49.044,15.098
9464.2,-114.72,-67.895,47.044,14.098
9474.1,-118.72,-69.895,49.044,14.098
9484.0,-123.72,-71.895,46.044,14.098
9493.9,-126.72,-73.895,45.044,13.098
9503.7,-132.72,-75.895,42.044,13.098
9513.6,-138.72,-78.895,42.044,13.098
9523.5,-142.72,-81.895,39.044,11.098
9533.4,-149.72,-84.895,39.044,12.098
9543.3,-154.72,-86.895,35.044,11.098
9553.2,-160.72,-88.895,34.044,10.098
9563.1,-166.72,-91.895,35.044,9.0977
9572.9,-170.72,-92.895,32.044,8.0977
9582.8,-170.72,-91.895,33.044,7.0977
9592.7,-164.72,-87.895,31.044,7.0977
9602.6,-155.72,-82.895,30.044,6.0977
9612.5,-142.72,-74.895,33.044,6.0977
9622.4,-128.72,-62.895,34.044,7.0977
9632.3,-109.72,-55.895,31.044,6.0977
9642.1,-94.718,-47.895,32.044,5.0977
9652.0,-83.718,-44.895,30.044,5.0977
9661.9,-72.718,-40.895,31.044,6.0977
9671.8,-66.718,-37.895,35.044,7.0977
9681.7,-61.718,-37.895,38.044,9.0977
9691.6,-60.718,-37.895,35.044,11.098
9701.5,-62.718,-39.895,40.044,13.098
9711.3,-61.718,-41.895,39.044,14.098
9721.2,-60.718,-40.895,43.044,15.098
9731.1,-61.718,-41.895,47.044,16.098
9741.0,-60.718,-41.895,50.044,17.098
9750.9,-61.718,-41.895,55.044,19.098
9760.8,-61.718,-42.895,59.044,18.098
9770.7,-56.718,-40.895,64.044,20.098
9780.5,-56.718,-42.895,69.044,23.098
9790.4,-56.718,-41.895,73.044,22.098
9800.3,-58.718,-43.895,73.044,22.098
9810.2,-60.718,-43.895,76.044,22.098
9820.1,-66.718,-46.895,74.044,22.098
9830.0,-71.718,-50.895,76.044,23.098
9839.9,-71.718,-50.895,81.044,23.098
9849.7,-74.718,-52.895,78.044,23.098
9859.6,-76.718,-52.895,78.044,22.098
9869.5,-72.718,-48.895,77.044,22.098
9879.4,-75.718,-50.895,74.044,22.098
9889.3,-72.718,-48.895,74.044,22.098
9899.2,-72.718,-47.895,68.044,18.098
9909.1,-72.718,-48.895,68.044,18.098
9918.9,-71.718,-48.895,63.044,16.098
9928.8,-71.718,-48.895,63.044,16.098
9938.7,-72.718,-47.895,59.044,15.098
9948.6,-72.718,-47.895,59.044,15.098
9958.5,-77.718,-48.895,54.044,12.098
9968.4,-77.718,-48.895,54.044,12.098
9978.3,-81.718,-52.895,53.044,12.098
9988.1,-81.718,-52.895,53.044,12.098
9998.0,-89.718,-55.895,54.044,10.098
10008.0,-89.718,-55.895,54.044,10.098
10018.0,-95.718,-58.895,53.044,8.0977
10028.0,-95.718,-58.895,53.044,8.0977
10038.0,-101.72,-62.895,51.044,7.0977
10048.0,-101.72,-62.895,51.044,7.0977
10057.0,-105.72,-63.895,46.044,6.0977
10067.0,-105.72,-63.895,46.044,6.0977
10077.0,-110.72,-65.895,42.044,5.0977
10087.0,-110.72,-65.895,42.044,5.0977
10097.0,-112.72,-65.895,43.044,4.0977
10107.0,-116.72,-67.895,41.044,4.0977
10117.0,-120.72,-69.895,40.044,2.0977
10127.0,-124.72,-70.895,38.044,4.0977
10136.0,-127.72,-71.895,36.044,2.0977
10146.0,-130.72,-75.895,36.044,2.0977
10156.0,-136.72,-77.895,34.044,2.0977
10166.0,-142.72,-80.895,32.044,0.097746
10176.0,-145.72,-83.895,31.044,-0.90225
10186.0,-149.72,-85.895,29.044,-0.90225
10196.0,-154.72,-87.895,26.044,-2.9023
10206.0,-155.72,-88.895,24.044,-5.9023
10216.0,-152.72,-86.895,20.044,-5.9023
10225.0,-149.72,-84.895,19.044,-5.9023
10235.0,-138.72,-79.895,16.044,-7.9023
10245.0,-123.72,-69.895,12.044,-8.9023
10255.0,-105.72,-58.895,13.044,-7.9023
10265.0,-82.718,-45.895,13.044,-8.9023
10275.0,-55.718,-29.895,10.044,-10.902
10285.0,-27.718,-16.895,8.044,-11.902
10295.0,-1.7183,-3.895,7.044,-12.902
10305.0,20.282,5.105,5.044,-13.902
10314.0,36.282,12.105,4.044,-13.902
10324.0,50.282,19.105,7.044,-13.902
10334.0,61.282,23.105,7.044,-10.902
10344.0,71.282,28.105,5.044,-10.902
10354.0,79.282,32.105,7.044,-6.9023
10364.0,87.282,34.105,9.044,-7.9023
10374.0,92.282,36.105,9.044,-6.9023
10384.0,96.282,37.105,15.044,-7.9023
10394.0,102.28,40.105,16.044,-4.9023
10403.0,108.28,44.105,20.044,-4.9023
10413.0,113.28,45.105,25.044,-3.9023
10423.0,119.28,48.105,27.044,-2.9023
10433.0,122.28,50.105,33.044,-2.9023
10443.0,127.28,52.105,35.044,-2.9023
10453.0,128.28,52.105,39.044,-0.90225
10463.0,126.28,52.105,42.044,0.097746
10473.0,126.28,51.105,41.044,-0.90225
10482.0,124.28,48.105,43.044,0.097746
10492.0,125.28,50.105,44.044,-1.9023
10502.0,125.28,50.105,43.044,-0.90225
10512.0,125.28,49.105,44.044,1.0977
10522.0,130.28,55.105,42.044,0.097746
10532.0,130.28,53.105,39.044,-1.9023
10542.0,133.28,55.105,35.044,-2.9023
10552.0,138.28,58.105,34.044,-2.9023
10562.0,143.28,60.105,32.044,-2.9023
10571.0,145.28,62.105,32.044,-2.9023
10581.0,147.28,63.105,29.044,-2.9023
10591.0,149.28,63.105,27.044,-3.9023
10601.0,151.28,63.105,25.044,-5.9023
10611.0,150.28,63.105,25.044,-5.9023
10621.0,150.28,62.105,23.044,-6.9023
10631.0,150.28,61.105,24.044,-7.9023
10641.0,149.28,63.105,23.044,-6.9023
10651.0,148.28,61.105,23.044,-6.9023
10660.0,146.28,61.105,24.044,-6.9023
10670.0,143.28,59.105,21.044,-7.9023
10680.0,141.28,59.105,20.044,-7.9023
10690.0,139.28,58.105,21.044,-6.9023
10700.0,139.28,59.105,19.044,-7.9023
10710.0,135.28,56.105,17.044,-6.9023
10720.0,131.28,55.105,17.044,-6.9023
10730.0,129.28,55.105,17.044,-8.9023
10740.0,128.28,54.105,15.044,-8.9023
10749.0,125.28,53.105,11.044,-8.9023
10759.0,123.28,52.105,10.044,-8.9023
10769.0,121.28,50.105,9.044,-9.9023
10779.0,118.28,48.105,5.044,-11.902
10789.0,115.28,48.105,4.044,-11.902
10799.0,115.28,48.105,0.043963,-13.902
10809.0,108.28,45.105,-0.95604,-12.902
10819.0,108.28,45.105,-3.956,-13.902
10828.0,97.282,41.105,-4.956,-14.902
10838.0,97.282,41.105,-8.956,-14.902
10848.0,87.282,37.105,-11.956,-17.902
10858.0,87.282,37.105,-14.956,-16.902
10868.0,83.282,36.105,-17.956,-18.902
10878.0,83.282,36.105,-19.956,-20.902
10888.0,95.282,45.105,-22.956,-21.902
10898.0,95.282,45.105,-25.956,-22.902
10908.0,128.28,65.105,-24.956,-22.902
10917.0,128.28,65.105,-27.956,-24.902
10927.0,159.28,80.105,-29.956,-24.902
10937.0,159.28,80.105,-33.956,-24.902
10947.0,180.28,88.105,-31.956,-26.902
10957.0,180.28,88.105,-31.956,-26.902
10967.0,187.28,90.105,-32.956,-23.902
10977.0,190.28,91.105,-32.956,-23.902
10987.0,192.28,91.105,-32.956,-21.902
10997.0,192.28,90.105,-32.956,-21.902
11006.0,195.28,91.105,-27.956,-19.902
11016.0,196.28,90.105,-27.956,-19.902
11026.0,198.28,91.105,-20.956,-19.902
11036.0,199.28,92.105,-20.956,-19.902
11046.0,201.28,91.105,-14.956,-17.902
11056.0,201.28,92.105,-14.956,-17.902
11066.0,204.28,92.105,-7.956,-15.902
11076.0,205.28,93.105,-7.956,-15.902
11086.0,203.28,93.105,-3.956,-13.902
11095.0,205.28,92.105,-3.956,-13.902
11105.0,202.28,91.105,1.044,-13.902
11115.0,200.28,89.105,1.044,-13.902
11125.0,197.28,87.105,0.043963,-13.902
11135.0,194.28,87.105,0.043963,-13.902
11145.0,194.28,87.105,2.044,-13.902
11155.0,187.28,83.105,2.044,-13.902
11165.0,191.28,85.105,-1.956,-14.902
11174.0,189.28,86.105,-1.956,-14.902
11184.0,190.28,85.105,-4.956,-14.902
11194.0,192.28,88.105,-4.956,-14.902
11204.0,191.28,86.105,-7.956,-13.902
11214.0,192.28,87.105,-7.956,-15.902
11224.0,190.28,86.105,-9.956,-15.902
11234.0,187.28,84.105,-11.956,-15.902
11244.0,187.28,84.105,-13.956,-16.902
11254.0,184.28,83.105,-14.956,-17.902
11263.0,185.28,82.105,-16.956,-18.902
11273.0,179.28,81.105,-19.956,-19.902
11283.0,177.28,79.105,-19.956,-19.902
11293.0,172.28,78.105,-19.956,-20.902
11303.0,168.28,75.105,-22.956,-20.902
11313.0,165.28,75.105,-22.956,-20.902
11323.0,161.28,73.105,-21.956,-22.902
11333.0,157.28,70.105,-23.956,-22.902
11343.0,154.28,69.105,-25.956,-22.902
11352.0,151.28,68.105,-24.956,-22.902
11362.0,149.28,67.105,-30.956,-24.902
11372.0,147.28,66.105,-26.956,-24.902
11382.0,144.28,66.105,-29.956,-24.902
11392.0,140.28,65.105,-31.956,-26.902
11402.0,137.28,64.105,-34.956,-26.902
11412.0,134.28,62.105,-36.956,-27.902
11422.0,131.28,61.105,-36.956,-27.902
11432.0,126.28,60.105,-38.956,-30.902
11441.0,124.28,58.105,-42.956,-30.902
11451.0,120.28,56.105,-44.956,-31.902
11461.0,116.28,54.105,-46.956,-31.902
11471.0,109.28,51.105,-49.956,-33.902
11481.0,103.28,47.105,-54.956,-34.902
11491.0,98.282,46.105,-54.956,-36.902
11501.0,96.282,45.105,-57.956,-36.902
11511.0,91.282,43.105,-59.956,-37.902
11520.0,92.282,45.105,-60.956,-37.902
11530.0,96.282,49.105,-63.956,-37.902
11540.0,105.28,53.105,-67.956,-39.902
11550.0,118.28,63.105,-67.956,-39.902
11560.0,135.28,71.105,-69.956,-40.902
11570.0,149.28,79.105,-69.956,-41.902
11580.0,163.28,82.105,-69.956,-41.902
11590.0,170.28,85.105,-72.956,-41.902
11600.0,177.28,88.105,-71.956,-41.902
11609.0,180.28,87.105,-70.956,-40.902
11619.0,181.28,87.105,-68.956,-39.902
11629.0,180.28,85.105,-69.956,-36.902
11639.0,181.28,85.105,-69.956,-37.902
11649.0,181.28,83.105,-66.956,-35.902
11659.0,180.28,83.105,-63.956,-35.902
11669.0,180.28,83.105,-62.956,-35.902
11679.0,177.28,81.105,-59.956,-35.902
11689.0,177.28,81.105,-56.956,-35.902
11698.0,179.28,81.105,-54.956,-33.902
11708.0,179.28,81.105,-51.956,-34.902
11718.0,178.28,80.105,-49.956,-33.902
11728.0,178.28,80.105,-48.956,-34.902
11738.0,174.28,79.105,-45.956,-33.902
11748.0,174.28,79.105,-44.956,-34.902
11758.0,163.28,72.105,-43.956,-34.902
11768.0,163.28,72.105,-41.956,-33.902
11777.0,162.28,71.105,-41.956,-33.902
11787.0,162.28,71.105,-42.956,-33.902
11797.0,162.28,72.105,-44.956,-34.902
11807.0,162.28,72.105,-47.956,-37.902
11817.0,159.28,71.105,-48.956,-37.902
11827.0,159.28,71.105,-50.956,-38.902
11837.0,161.28,73.105,-52.956,-37.902
11847.0,162.28,73.105,-54.956,-39.902
11857.0,160.28,73.105,-58.956,-39.902
11866.0,160.28,73.105,-57.956,-40.902
11876.0,158.28,71.105,-60.956,-41.902
11886.0,156.28,70.105,-60.956,-41.902
11896.0,152.28,69.105,-62.956,-41.902
11906.0,152.28,67.105,-64.956,-43.902
11916.0,147.28,64.105,-64.956,-43.902
11926.0,144.28,64.105,-65.956,-44.902
11936.0,141.28,64.105,-64.956,-44.902
11946.0,140.28,61.105,-66.956,-45.902
11955.0,134.28,59.105,-65.956,-45.902
11965.0,131.28,58.105,-66.956,-47.902
11975.0,126.28,56.105,-71.956,-46.902
11985.0,122.28,56.105,-72.956,-49.902
11995.0,119.28,53.105,-75.956,-50.902
12005.0,112.28,50.105,-75.956,-50.902
12015.0,110.28,49.105,-78.956,-51.902
12025.0,108.28,47.105,-78.956,-51.902
12035.0,105.28,45.105,-79.956,-54.902
12044.0,101.28,45.105,-79.956,-54.902
12054.0,98.282,42.105,-85.956,-54.902
12064.0,93.282,42.105,-85.956,-54.902
12074.0,89.282,40.105,-89.956,-56.902
12084.0,86.282,39.105,-89.956,-56.902
12094.0,82.282,36.105,-93.956,-56.902
12104.0,79.282,36.105,-93.956,-56.902
12114.0,73.282,33.105,-95.956,-59.902
12123.0,67.282,29.105,-95.956,-59.902
12133.0,60.282,25.105,-95.956,-60.902
12143.0,55.282,25.105,-95.956,-60.902
12153.0,49.282,22.105,-100.96,-60.902
12163.0,44.282,20.105,-100.96,-60.902
12173.0,44.282,19.105,-104.96,-63.902
12183.0,48.282,24.105,-104.96,-63.902
12193.0,55.282,29.105,-106.96,-63.902
12203.0,69.282,39.105,-106.96,-63.902
12212.0,85.282,48.105,-107.96,-64.902
12222.0,99.282,53.105,-108.96,-64.902
12232.0,108.28,57.105,-109.96,-65.902
12242.0,120.28,60.105,-110.96,-66.902
12252.0,126.28,64.105,-109.96,-67.902
12262.0,133.28,66.105,-107.96,-64.902
12272.0,135.28,65.105,-104.96,-63.902
12282.0,134.28,63.105,-105.96,-59.902
12292.0,136.28,64.105,-103.96,-58.902
12301.0,134.28,62.105,-102.96,-57.902
12311.0,133.28,61.105,-98.956,-57.902
12321.0,133.28,61.105,-96.956,-56.902
12331.0,132.28,60.105,-91.956,-56.902
12341.0,129.28,59.105,-85.956,-54.902
12351.0,129.28,59.105,-82.956,-53.902
12361.0,128.28,59.105,-78.956,-52.902
12371.0,128.28,58.105,-76.956,-52.902
12381.0,127.28,57.105,-71.956,-51.902
12390.0,122.28,54.105,-69.956,-50.902
12400.0,115.28,50.105,-67.956,-51.902
12410.0,114.28,49.105,-67.956,-51.902
12420.0,113.28,49.105,-68.956,-50.902
12430.0,103.28,44.105,-67.956,-50.902
12440.0,103.28,47.105,-66.956,-51.902
12450.0,105.28,47.105,-68.956,-51.902
12460.0,102.28,45.105,-67.956,-52.902
12469.0,103.28,46.105,-72.956,-52.902
12479.0,103.28,46.105,-71.956,-53.902
12489.0,100.28,45.105,-70.956,-51.902
12499.0,101.28,45.105,-71.956,-51.902
12509.0,100.28,46.105,-70.956,-51.902
12519.0,100.28,46.105,-73.956,-51.902
12529.0,99.282,45.105,-73.956,-52.902
12539.0,99.282,45.105,-72.956,-52.902
12549.0,94.282,45.105,-72.956,-51.902
12558.0,94.282,45.105,-72.956,-51.902
12568.0,88.282,41.105,-71.956,-52.902
12578.0,88.282,41.105,-73.956,-53.902
12588.0,76.282,35.105,-73.956,-53.902
12598.0,76.282,35.105,-72.956,-52.902
12608.0,60.282,28.105,-75.956,-52.902
12618.0,60.282,28.105,-75.956,-51.902
12628.0,48.282,21.105,-74.956,-52.902
12638.0,48.282,21.105,-75.956,-52.902
12647.0,40.282,18.105,-75.956,-52.902
12657.0,40.282,18.105,-73.956,-51.902
12667.0,33.282,13.105,-73.956,-52.902
12677.0,33.282,13.105,-74.956,-52.902
12687.0,24.282,9.105,-73.956,-52.902
12697.0,24.282,9.105,-74.956,-50.902
12707.0,20.282,7.105,-75.956,-51.902
12717.0,13.282,4.105,-76.956,-51.902
12727.0,5.2817,-0.895,-74.956,-51.902
12736.0,-1.7183,-2.895,-75.956,-52.902
12746.0,-10.718,-6.895,-76.956,-51.902
12756.0,-18.718,-10.895,-77.956,-51.902
12766.0,-23.718,-12.895,-77.956,-50.902
12776.0,-29.718,-15.895,-80.956,-51.902
12786.0,-32.718,-16.895,-80.956,-52.902
12796.0,-40.718,-18.895,-81.956,-53.902
12806.0,-40.718,-18.895,-80.956,-53.902
12815.0,-42.718,-17.895,-84.956,-54.902
12825.0,-39.718,-14.895,-84.956,-54.902
12835.0,-30.718,-9.895,-85.956,-54.902
12845.0,-19.718,-1.895,-85.956,-56.902
12855.0,-6.7183,7.105,-86.956,-55.902
12865.0,11.282,18.105,-85.956,-55.902
12875.0,31.282,29.105,-88.956,-55.902
12885.0,44.282,37.105,-89.956,-56.902
12895.0,57.282,42.105,-91.956,-55.902
12904.0,66.282,44.105,-88.956,-55.902
12914.0,72.282,47.105,-88.956,-56.902
12924.0,80.282,48.105,-85.956,-53.902
12934.0,80.282,47.105,-84.956,-51.902
12944.0,79.282,46.105,-82.956,-49.902
12954.0,77.282,44.105,-81.956,-48.902
12964.0,75.282,42.105,-76.956,-47.902
12974.0,72.282,41.105,-74.956,-47.902
12984.0,71.282,40.105,-72.956,-46.902
12993.0,70.282,40.105,-68.956,-47.902
13003.0,68.282,37.105,-66.956,-45.902
13013.0,65.282,36.105,-61.956,-44.902
13023.0,59.282,34.105,-57.956,-43.902
13033.0,57.282,32.105,-56.956,-43.902
13043.0,52.282,30.105,-53.956,-42.902
13053.0,41.282,24.105,-52.956,-43.902
13063.0,36.282,22.105,-50.956,-43.902
13073.0,37.282,21.105,-49.956,-43.902
13082.0,30.282,18.105,-49.956,-43.902
13092.0,27.282,17.105,-49.956,-43.902
13102.0,27.282,18.105,-47.956,-41.902
13112.0,24.282,16.105,-47.956,-41.902
13122.0,22.282,17.105,-48.956,-42.902
13132.0,22.282,15.105,-48.956,-42.902
13142.0,19.282,15.105,-51.956,-42.902
13152.0,17.282,14.105,-51.956,-42.902
13161.0,12.282,12.105,-52.956,-43.902
13171.0,4.2817,8.105,-52.956,-43.902
13181.0,1.2817,6.105,-53.956,-43.902
13191.0,-7.7183,2.105,-53.956,-43.902
13201.0,-14.718,-2.895,-54.956,-43.902
13211.0,-22.718,-5.895,-54.956,-43.902
13221.0,-31.718,-9.895,-56.956,-44.902
13231.0,-41.718,-16.895,-56.956,-44.902
13241.0,-50.718,-19.895,-56.956,-44.902
13250.0,-57.718,-24.895,-56.956,-44.902
13260.0,-65.718,-27.895,-57.956,-44.902
13270.0,-73.718,-30.895,-57.956,-44.902
13280.0,-82.718,-36.895,-55.956,-44.902
13290.0,-89.718,-39.895,-55.956,-44.902
13300.0,-95.718,-42.895,-55.956,-42.902
13310.0,-103.72,-44.895,-55.956,-42.902
13320.0,-112.72,-48.895,-55.956,-44.902
13330.0,-116.72,-50.895,-54.956,-44.902
13339.0,-119.72,-53.895,-54.956,-44.902
13349.0,-124.72,-54.895,-54.956,-43.902
13359.0,-128.72,-56.895,-54.956,-44.902
13369.0,-132.72,-56.895,-54.956,-43.902
13379.0,-136.72,-58.895,-54.956,-44.902
13389.0,-139.72,-60.895,-54.956,-44.902
13399.0,-147.72,-63.895,-53.956,-45.902
13409.0,-147.72,-63.895,-56.956,-43.902
13419.0,-160.72,-69.895,-56.956,-44.902
13428.0,-160.72,-69.895,-55.956,-45.902
13438.0,-170.72,-73.895,-57.956,-47.902
13448.0,-170.72,-73.895,-59.956,-47.902
13458.0,-184.72,-79.895,-62.956,-47.902
13468.0,-184.72,-79.895,-64.956,-48.902
13478.0,-185.72,-77.895,-67.956,-49.902
13488.0,-185.72,-77.895,-68.956,-49.902
13498.0,-172.72,-69.895,-70.956,-51.902
13507.0,-172.72,-69.895,-73.956,-52.902
13517.0,-144.72,-52.895,-76.956,-53.902
13527.0,-144.72,-52.895,-78.956,-53.902
13537.0,-116.72,-40.895,-79.956,-54.902
13547.0,-116.72,-40.895,-81.956,-55.902
13557.0,-97.718,-34.895,-82.956,-55.902
13567.0,-97.718,-34.895,-83.956,-55.902
13577.0,-87.718,-31.895,-81.956,-54.902
13587.0,-84.718,-29.895,-83.956,-53.902
13596.0,-82.718,-30.895,-82.956,-53.902
13606.0,-83.718,-33.895,-82.956,-51.902
13616.0,-84.718,-33.895,-81.956,-49.902
13626.0,-87.718,-35.895,-80.956,-48.902
13636.0,-90.718,-38.895,-77.956,-49.902
13646.0,-93.718,-39.895,-74.956,-51.902
13656.0,-93.718,-39.895,-73.956,-49.902
13666.0,-95.718,-41.895,-69.956,-48.902
13676.0,-96.718,-42.895,-68.956,-47.902
13685.0,-97.718,-42.895,-64.956,-48.902
13695.0,-98.718,-41.895,-60.956,-48.902
13705.0,-102.72,-46.895,-57.956,-48.902
13715.0,-104.72,-45.895,-57.956,-47.902
13725.0,-100.72,-43.895,-56.956,-48.902
13735.0,-105.72,-44.895,-55.956,-47.902
13745.0,-101.72,-43.895,-56.956,-48.902
13755.0,-97.718,-41.895,-58.956,-46.902
13765.0,-100.72,-43.895,-59.956,-48.902
13774.0,-103.72,-44.895,-61.956,-47.902
13784.0,-101.72,-41.895,-60.956,-47.902
13794.0,-99.718,-40.895,-61.956,-47.902
13804.0,-100.72,-41.895,-62.956,-49.902
13814.0,-103.72,-40.895,-65.956,-47.902
13824.0,-102.72,-42.895,-63.956,-47.902
13834.0,-105.72,-42.895,-65.956,-49.902
13844.0,-108.72,-43.895,-65.956,-49.902
13853.0,-111.72,-45.895,-67.956,-50.902
13863.0,-115.72,-46.895,-65.956,-50.902
13873.0,-119.72,-48.895,-68.956,-51.902
13883.0,-123.72,-51.895,-66.956,-49.902
13893.0,-128.72,-53.895,-65.956,-50.902
13903.0,-132.72,-55.895,-67.956,-50.902
13913.0,-138.72,-58.895,-64.956,-51.902
13923.0,-144.72,-62.895,-66.956,-50.902
13933.0,-149.72,-63.895,-65.956,-50.902
13942.0,-154.72,-66.895,-65.956,-49.902
13952.0,-160.72,-69.895,-66.956,-49.902
13962.0,-164.72,-71.895,-66.956,-49.902
13972.0,-171.72,-75.895,-68.956,-50.902
13982.0,-174.72,-75.895,-70.956,-51.902
13992.0,-180.72,-77.895,-71.956,-49.902
14002.0,-183.72,-79.895,-68.956,-50.902
14012.0,-183.72,-79.895,-69.956,-50.902
14022.0,-187.72,-81.895,-71.956,-51.902
14031.0,-188.72,-81.895,-71.956,-49.902
14041.0,-191.72,-82.895,-70.956,-50.902
14051.0,-197.72,-85.895,-71.956,-49.902
14061.0,-204.72,-87.895,-72.956,-50.902
14071.0,-212.72,-91.895,-72.956,-50.902
14081.0,-219.72,-95.895,-69.956,-49.902
14091.0,-226.72,-98.895,-70.956,-49.902
14101.0,-230.72,-99.895,-69.956,-48.902
14111.0,-232.72,-100.9,-70.956,-48.902
14120.0,-231.72,-97.895,-70.956,-50.902
14130.0,-224.72,-94.895,-73.956,-50.902
14140.0,-215.72,-87.895,-74.956,-49.902
14150.0,-203.72,-79.895,-73.956,-49.902
14160.0,-185.72,-68.895,-75.956,-50.902
14170.0,-166.72,-59.895,-76.956,-50.902
14180.0,-147.72,-51.895,-77.956,-50.902
14190.0,-135.72,-46.895,-79.956,-50.902
14199.0,-120.72,-39.895,-78.956,-49.902
14209.0,-112.72,-36.895,-76.956,-48.902
14219.0,-107.72,-36.895,-76.956,-48.902
14229.0,-106.72,-37.895,-73.956,-46.902
14239.0,-107.72,-38.895,-73.956,-46.902
14249.0,-108.72,-40.895,-69.956,-41.902
14259.0,-113.72,-42.895,-69.956,-41.902
14269.0,-114.72,-42.895,-64.956,-40.902
14279.0,-114.72,-42.895,-64.956,-40.902
14288.0,-120.72,-46.895,-55.956,-37.902
14298.0,-120.72,-46.895,-55.956,-37.902
14308.0,-125.72,-49.895,-46.956,-34.902
14318.0,-125.72,-49.895,-46.956,-34.902
14328.0,-132.72,-54.895,-39.956,-34.902
14338.0,-132.72,-54.895,-39.956,-34.902
14348.0,-145.72,-61.895,-37.956,-33.902
14358.0,-145.72,-61.895,-37.956,-33.902
14368.0,-150.72,-64.895,-30.956,-33.902
14377.0,-150.72,-64.895,-30.956,-33.902
14387.0,-153.72,-63.895,-30.956,-32.902
14397.0,-153.72,-63.895,-30.956,-32.902
14407.0,-155.72,-63.895,-30.956,-31.902
14417.0,-155.72,-63.895,-30.956,-32.902
14427.0,-148.72,-59.895,-28.956,-30.902
14437.0,-148.72,-59.895,-29.956,-29.902
14447.0,-146.72,-58.895,-27.956,-30.902
14457.0,-147.72,-59.895,-30.956,-27.902
14466.0,-146.72,-58.895,-32.956,-30.902
14476.0,-147.72,-59.895,-32.956,-28.902
14486.0,-148.72,-60.895,-31.956,-29.902
14496.0,-149.72,-62.895,-30.956,-30.902
14506.0,-152.72,-62.895,-32.956,-31.902
14516.0,-157.72,-64.895,-32.956,-32.902
14526.0,-159.72,-65.895,-34.956,-32.902
14536.0,-163.72,-67.895,-32.956,-30.902
14545.0,-168.72,-69.895,-33.956,-31.902
14555.0,-172.72,-71.895,-33.956,-32.902
14565.0,-176.72,-74.895,-33.956,-31.902
14575.0,-180.72,-75.895,-31.956,-32.902
14585.0,-184.72,-76.895,-30.956,-30.902
14595.0,-190.72,-79.895,-29.956,-31.902
14605.0,-192.72,-81.895,-28.956,-30.902
14615.0,-197.72,-82.895,-26.956,-29.902
14625.0,-200.72,-83.895,-25.956,-30.902
14634.0,-201.72,-83.895,-27.956,-29.902
14644.0,-202.72,-85.895,-23.956,-28.902
14654.0,-203.72,-85.895,-24.956,-29.902
14664.0,-205.72,-86.895,-26.956,-28.902
14674.0,-205.72,-85.895,-25.956,-29.902
14684.0,-207.72,-86.895,-27.956,-29.902
14694.0,-211.72,-87.895,-27.956,-29.902
14704.0,-214.72,-86.895,-28.956,-29.902
14714.0,-216.72,-89.895,-28.956,-29.902
14723.0,-219.72,-90.895,-30.956,-29.902
14733.0,-220.72,-91.895,-33.956,-29.902
14743.0,-219.72,-90.895,-34.956,-30.902
14753.0,-216.72,-86.895,-33.956,-31.902
14763.0,-209.72,-82.895,-34.956,-31.902
14773.0,-200.72,-76.895,-35.956,-31.902
14783.0,-188.72,-67.895,-36.956,-32.902
14793.0,-168.72,-55.895,-38.956,-33.902
14803.0,-152.72,-47.895,-38.956,-33.902
14812.0,-138.72,-41.895,-39.956,-34.902
14822.0,-123.72,-36.895,-41.956,-33.902
14832.0,-114.72,-33.895,-42.956,-33.902
14842.0,-105.72,-31.895,-39.956,-33.902
14852.0,-103.72,-30.895,-36.956,-30.902
14862.0,-101.72,-30.895,-35.956,-27.902
14872.0,-103.72,-33.895,-32.956,-25.902
14882.0,-104.72,-35.895,-30.956,-23.902
14891.0,-107.72,-37.895,-28.956,-23.902
14901.0,-112.72,-39.895,-25.956,-22.902
14911.0,-116.72,-42.895,-20.956,-21.902
14921.0,-119.72,-44.895,-17.956,-20.902
14931.0,-123.72,-45.895,-14.956,-17.902
14941.0,-123.72,-46.895,-12.956,-18.902
14951.0,-125.72,-48.895,-8.956,-15.902
14961.0,-128.72,-51.895,-3.956,-17.902
14971.0,-136.72,-54.895,-1.956,-15.902
14980.0,-146.72,-59.895,1.044,-14.902
14990.0,-146.72,-59.895,4.044,-15.902
15000.0,-147.72,-62.895,5.044,-15.902
15010.0,-152.72,-63.895,8.044,-14.902
15020.0,-151.72,-61.895,5.044,-13.902
15030.0,-154.72,-62.895,9.044,-15.902
15040.0,-153.72,-62.895,7.044,-14.902
15050.0,-151.72,-60.895,4.044,-15.902
15060.0,-149.72,-57.895,3.044,-13.902
15069.0,-148.72,-58.895,2.044,-14.902
15079.0,-149.72,-58.895,0.043963,-14.902
15089.0,-149.72,-57.895,1.044,-14.902
15099.0,-149.72,-59.895,0.043963,-15.902
15109.0,-149.72,-60.895,-0.95604,-15.902
15119.0,-154.72,-60.895,-1.956,-15.902
15129.0,-159.72,-63.895,-2.956,-15.902
15139.0,-162.72,-66.895,-0.95604,-16.902
15149.0,-162.72,-66.895,-0.95604,-15.902
15158.0,-174.72,-71.895,-1.956,-15.902
15168.0,-174.72,-71.895,-2.956,-16.902
15178.0,-182.72,-76.895,-3.956,-17.902
15188.0,-182.72,-76.895,-3.956,-17.902
15198.0,-190.72,-79.895,-3.956,-18.902
15208.0,-190.72,-79.895,-2.956,-17.902
15218.0,-201.72,-84.895,-4.956,-18.902
15228.0,-201.72,-84.895,-5.956,-18.902
15237.0,-213.72,-89.895,-7.956,-19.902
15247.0,-213.72,-89.895,-7.956,-19.902
15257.0,-221.72,-94.895,-6.956,-19.902
15267.0,-221.72,-94.895,-6.956,-19.902
15277.0,-231.72,-99.895,-7.956,-19.902
15287.0,-231.72,-99.895,-7.956,-19.902
15297.0,-239.72,-102.9,-10.956,-19.902
15307.0,-239.72,-102.9,-10.956,-19.902
15317.0,-243.72,-103.9,-12.956,-21.902
15326.0,-249.72,-106.9,-12.956,-21.902
15336.0,-251.72,-109.9,-15.956,-20.902
15346.0,-255.72,-109.9,-15.956,-20.902
15356.0,-258.72,-110.9,-17.956,-23.902
15366.0,-260.72,-109.9,-17.956,-23.902
15376.0,-255.72,-106.9,-20.956,-23.902
15386.0,-245.72,-102.9,-20.956,-23.902
15396.0,-235.72,-95.895,-23.956,-25.902
15406.0,-219.72,-84.895,-23.956,-25.902
15415.0,-200.72,-73.895,-26.956,-27.902
15425.0,-181.72,-64.895,-26.956,-27.902
15435.0,-164.72,-55.895,-30.956,-27.902
15445.0,-148.72,-48.895,-30.956,-27.902
15455.0,-139.72,-45.895,-30.956,-28.902
15465.0,-131.72,-42.895,-27.956,-27.902
15475.0,-125.72,-42.895,-26.956,-24.902
15485.0,-122.72,-40.895,-26.956,-22.902
15495.0,-118.72,-41.895,-24.956,-21.902
15504.0,-117.72,-42.895,-22.956,-20.902
15514.0,-117.72,-42.895,-18.956,-18.902
15524.0,-118.72,-42.895,-14.956,-17.902
15534.0,-117.72,-42.895,-9.956,-16.902
15544.0,-118.72,-42.895,-5.956,-15.902
15554.0,-116.72,-42.895,-0.95604,-15.902
15564.0,-115.72,-43.895,3.044,-11.902
15574.0,-115.72,-42.895,7.044,-13.902
15583.0,-114.72,-40.895,8.044,-10.902
15593.0,-116.72,-43.895,11.044,-10.902
15603.0,-120.72,-45.895,16.044,-11.902
15613.0,-123.72,-48.895,17.044,-10.902
15623.0,-127.72,-46.895,18.044,-9.9023
15633.0,-128.72,-48.895,20.044,-8.9023
15643.0,-130.72,-47.895,22.044,-8.9023
15653.0,-125.72,-45.895,20.044,-7.9023
15663.0,-127.72,-45.895,19.044,-8.9023
15672.0,-124.72,-43.895,19.044,-8.9023
15682.0,-121.72,-42.895,17.044,-8.9023
15692.0,-120.72,-41.895,14.044,-8.9023
15702.0,-122.72,-41.895,14.044,-9.9023
15712.0,-123.72,-41.895,14.044,-9.9023
15722.0,-126.72,-42.895,11.044,-8.9023
15732.0,-126.72,-42.895,9.044,-8.9023
15742.0,-128.72,-44.895,11.044,-9.9023
15752.0,-131.72,-45.895,11.044,-8.9023
15761.0,-134.72,-47.895,11.044,-10.902
15771.0,-136.72,-49.895,11.044,-8.9023
15781.0,-138.72,-50.895,12.044,-8.9023
15791.0,-139.72,-51.895,12.044,-9.9023
15801.0,-142.72,-52.895,14.044,-9.9023
15811.0,-145.72,-54.895,14.044,-8.9023
15821.0,-147.72,-56.895,14.044,-9.9023
15831.0,-150.72,-56.895,15.044,-8.9023
15841.0,-153.72,-57.895,14.044,-7.9023
15850.0,-156.72,-59.895,13.044,-8.9023
15860.0,-157.72,-60.895,12.044,-8.9023
15870.0,-159.72,-60.895,12.044,-9.9023
15880.0,-162.72,-62.895,10.044,-9.9023
15890.0,-164.72,-62.895,10.044,-9.9023
15900.0,-166.72,-63.895,10.044,-8.9023
15910.0,-170.72,-65.895,7.044,-10.902
15920.0,-177.72,-68.895,6.044,-9.9023
15929.0,-182.72,-71.895,6.044,-11.902
15939.0,-190.72,-76.895,4.044,-10.902
15949.0,-198.72,-79.895,3.044,-11.902
15959.0,-204.72,-81.895,-1.956,-12.902
15969.0,-209.72,-84.895,-0.95604,-12.902
15979.0,-209.72,-83.895,-4.956,-13.902
15989.0,-203.72,-78.895,-5.956,-14.902
15999.0,-193.72,-71.895,-4.956,-13.902
16009.0,-179.72,-63.895,-7.956,-16.902
16018.0,-179.72,-63.895,-7.956,-15.902
16028.0,-140.72,-40.895,-10.956,-16.902
16038.0,-140.72,-40.895,-10.956,-17.902
16048.0,-105.72,-27.895,-11.956,-16.902
16058.0,-105.72,-27.895,-12.956,-16.902
16068.0,-86.718,-19.895,-11.956,-15.902
16078.0,-86.718,-19.895,-8.956,-14.902
16088.0,-76.718,-17.895,-7.956,-11.902
16098.0,-76.718,-17.895,-8.956,-11.902
16107.0,-66.718,-14.895,-3.956,-9.9023
16117.0,-66.718,-14.895,-3.956,-8.9023
16127.0,-58.718,-12.895,0.043963,-8.9023
16137.0,-58.718,-12.895,3.044,-6.9023
16147.0,-50.718,-8.895,7.044,-6.9023
16157.0,-50.718,-8.895,10.044,-5.9023
16167.0,-43.718,-6.895,15.044,-4.9023
16177.0,-43.718,-6.895,18.044,-4.9023
16187.0,-40.718,-3.895,22.044,-3.9023
16196.0,-37.718,-3.895,24.044,-4.9023
16206.0,-36.718,-3.895,26.044,-2.9023
16216.0,-42.718,-6.895,30.044,-3.9023
16226.0,-44.718,-7.895,31.044,-2.9023
16236.0,-46.718,-8.895,32.044,-1.9023
16246.0,-41.718,-6.895,32.044,-3.9023
16256.0,-40.718,-6.895,31.044,-2.9023
16266.0,-34.718,-4.895,30.044,-3.9023
16275.0,-28.718,0.105,27.044,-4.9023
16285.0,-26.718,0.105,27.044,-4.9023
16295.0,-20.718,6.105,23.044,-6.9023
16305.0,-12.718,9.105,17.044,-6.9023
16315.0,-6.7183,12.105,17.044,-8.9023
16325.0,-5.7183,13.105,14.044,-8.9023
16335.0,-1.7183,15.105,14.044,-8.9023
16345.0,-1.7183,14.105,11.044,-9.9023
16355.0,0.2817,13.105,10.044,-8.9023
16364.0,-0.7183,15.105,9.044,-10.902
16374.0,1.2817,15.105,9.044,-10.902
16384.0,2.2817,15.105,9.044,-10.902
16394.0,6.2817,17.105,9.044,-10.902
16404.0,8.2817,17.105,9.044,-11.902
16414.0,8.2817,18.105,9.044,-11.902
16424.0,8.2817,18.105,11.044,-9.9023
16434.0,10.282,19.105,11.044,-9.9023
16444.0,11.282,19.105,10.044,-10.902
16453.0,11.282,19.105,10.044,-10.902
16463.0,10.282,19.105,6.044,-11.902
16473.0,9.2817,19.105,6.044,-11.902
16483.0,8.2817,18.105,1.044,-12.902
16493.0,10.282,19.105,1.044,-12.902
16503.0,10.282,18.105,0.043963,-12.902
16513.0,10.282,17.105,0.043963,-12.902
16523.0,9.2817,19.105,-6.956,-14.902
16533.0,8.2817,18.105,-6.956,-14.902
16542.0,5.2817,15.105,-10.956,-14.902
16552.0,2.2817,14.105,-10.956,-14.902
16562.0,1.2817,14.105,-11.956,-15.902
16572.0,0.2817,14.105,-14.956,-16.902
16582.0,0.2817,15.105,-14.956,-16.902
16592.0,1.2817,15.105,-17.956,-18.902
16602.0,9.2817,21.105,-21.956,-20.902
16612.0,18.282,28.105,-24.956,-20.902
16621.0,35.282,37.105,-25.956,-23.902
16631.0,54.282,49.105,-28.956,-21.902
16641.0,69.282,56.105,-29.956,-23.902
16651.0,83.282,61.105,-30.956,-23.902
16661.0,94.282,66.105,-32.956,-25.902
16671.0,102.28,69.105,-31.956,-23.902
16681.0,110.28,71.105,-29.956,-22.902
16691.0,113.28,72.105,-30.956,-18.902
16701.0,118.28,73.105,-29.956,-18.902
16710.0,119.28,75.105,-29.956,-15.902
16720.0,121.28,73.105,-28.956,-16.902
16730.0,125.28,75.105,-28.956,-15.902
16740.0,129.28,77.105,-24.956,-16.902
16750.0,134.28,78.105,-22.956,-14.902
16760.0,139.28,80.105,-18.956,-14.902
16770.0,143.28,84.105,-13.956,-12.902
16780.0,148.28,84.105,-8.956,-9.9023
16790.0,149.28,86.105,-6.956,-10.902
16799.0,155.28,88.105,-2.956,-9.9023
16809.0,154.28,87.105,0.043963,-8.9023
16819.0,152.28,86.105,3.044,-7.9023
16829.0,148.28,83.105,3.044,-7.9023
16839.0,144.28,82.105,6.044,-7.9023
16849.0,146.28,83.105,4.044,-6.9023
16859.0,145.28,81.105,7.044,-7.9023
16869.0,146.28,82.105,6.044,-7.9023
16879.0,153.28,86.105,9.044,-6.9023
16888.0,153.28,86.105,4.044,-7.9023
16898.0,151.28,85.105,1.044,-7.9023
16908.0,151.28,85.105,0.043963,-8.9023
16918.0,153.28,85.105,-1.956,-9.9023
16928.0,153.28,85.105,-1.956,-7.9023
16938.0,151.28,85.105,-3.956,-7.9023
16948.0,151.28,85.105,-4.956,-10.902
16958.0,152.28,85.105,-6.956,-8.9023
16967.0,152.28,85.105,-5.956,-8.9023
16977.0,153.28,86.105,-7.956,-8.9023
16987.0,153.28,86.105,-7.956,-9.9023
16997.0,153.28,86.105,-5.956,-8.9023
17007.0,153.28,86.105,-5.956,-8.9023
17017.0,149.28,82.105,-5.956,-11.902
17027.0,149.28,82.105,-5.956,-10.902
17037.0,141.28,79.105,-8.956,-11.902
17047.0,141.28,79.105,-13.956,-12.902
17056.0,140.28,78.105,-14.956,-14.902
17066.0,138.28,78.105,-15.956,-14.902
17076.0,137.28,76.105,-16.956,-14.902
17086.0,136.28,76.105,-18.956,-15.902
17096.0,134.28,75.105,-19.956,-15.902
17106.0,131.28,74.105,-17.956,-13.902
17116.0,126.28,72.105,-19.956,-14.902
17126.0,123.28,71.105,-21.956,-15.902
17136.0,121.28,69.105,-23.956,-16.902
17145.0,117.28,66.105,-23.956,-16.902
17155.0,111.28,64.105,-26.956,-16.902
17165.0,104.28,61.105,-29.956,-17.902
17175.0,96.282,56.105,-32.956,-19.902
17185.0,93.282,56.105,-34.956,-20.902
17195.0,91.282,55.105,-36.956,-20.902
17205.0,92.282,57.105,-39.956,-21.902
17215.0,99.282,60.105,-43.956,-22.902
17224.0,109.28,65.105,-43.956,-22.902
17234.0,121.28,73.105,-45.956,-23.902
17244.0,135.28,82.105,-45.956,-24.902
17254.0,149.28,88.105,-46.956,-24.902
17264.0,160.28,93.105,-49.956,-26.902
17274.0,167.28,95.105,-51.956,-25.902
17284.0,173.28,96.105,-46.956,-23.902
17294.0,177.28,96.105,-49.956,-21.902
17304.0,177.28,96.105,-48.956,-19.902
17313.0,177.28,95.105,-49.956,-19.902
17323.0,177.28,94.105,-48.956,-18.902
17333.0,178.28,95.105,-46.956,-17.902
17343.0,179.28,95.105,-46.956,-16.902
17353.0,182.28,94.105,-42.956,-16.902
17363.0,182.28,96.105,-37.956,-15.902
17373.0,182.28,94.105,-34.956,-15.902
17383.0,183.28,94.105,-33.956,-13.902
17393.0,185.28,94.105,-27.956,-12.902
17402.0,185.28,94.105,-26.956,-11.902
17412.0,182.28,93.105,-22.956,-11.902
17422.0,182.28,92.105,-20.956,-10.902
17432.0,180.28,91.105,-16.956,-9.9023
17442.0,176.28,87.105,-16.956,-9.9023
17452.0,176.28,86.105,-14.956,-8.9023
17462.0,176.28,88.105,-14.956,-8.9023
17472.0,171.28,85.105,-14.956,-9.9023
17482.0,173.28,86.105,-14.956,-9.9023
17491.0,173.28,88.105,-19.956,-13.902
17501.0,168.28,85.105,-19.956,-13.902
17511.0,171.28,85.105,-21.956,-12.902
17521.0,171.28,85.105,-21.956,-12.902
17531.0,170.28,85.105,-23.956,-12.902
17541.0,168.28,84.105,-23.956,-12.902
17551.0,167.28,83.105,-25.956,-13.902
17561.0,166.28,82.105,-25.956,-13.902
17570.0,165.28,82.105,-28.956,-13.902
17580.0,163.28,80.105,-28.956,-13.902
17590.0,163.28,79.105,-28.956,-16.902
17600.0,161.28,78.105,-28.956,-16.902
17610.0,155.28,77.105,-32.956,-16.902
17620.0,152.28,74.105,-32.956,-16.902
17630.0,148.28,72.105,-31.956,-16.902
17640.0,145.28,72.105,-31.956,-16.902
17650.0,145.28,70.105,-33.956,-16.902
17659.0,141.28,68.105,-33.956,-16.902
17669.0,140.28,69.105,-35.956,-17.902
17679.0,137.28,69.105,-36.956,-18.902
17689.0,136.28,67.105,-37.956,-19.902
17699.0,132.28,66.105,-38.956,-18.902
17709.0,131.28,65.105,-41.956,-20.902
17719.0,127.28,63.105,-43.956,-19.902
17729.0,125.28,61.105,-43.956,-21.902
17739.0,124.28,61.105,-45.956,-21.902
17748.0,120.28,60.105,-47.956,-21.902
17758.0,120.28,60.105,-50.956,-21.902
17768.0,115.28,57.105,-47.956,-23.902
17778.0,115.28,57.105,-52.956,-24.902
17788.0,107.28,53.105,-51.956,-23.902
17798.0,107.28,53.105,-52.956,-23.902
17808.0,99.282,50.105,-55.956,-23.902
17818.0,99.282,50.105,-56.956,-26.902
17828.0,95.282,48.105,-56.956,-26.902
17837.0,95.282,48.105,-57.956,-25.902
17847.0,109.28,56.105,-59.956,-25.902
17857.0,109.28,56.105,-59.956,-26.902
17867.0,135.28,74.105,-61.956,-27.902
17877.0,135.28,74.105,-61.956,-27.902
17887.0,166.28,90.105,-61.956,-29.902
17897.0,166.28,90.105,-61.956,-30.902
17907.0,182.28,96.105,-63.956,-28.902
17916.0,182.28,96.105,-59.956,-28.902
17926.0,187.28,96.105,-55.956,-25.902
17936.0,189.28,94.105,-56.956,-24.902
17946.0,189.28,93.105,-55.956,-21.902
17956.0,186.28,91.105,-54.956,-20.902
17966.0,187.28,92.105,-52.956,-18.902
17976.0,186.28,90.105,-48.956,-19.902
17986.0,187.28,91.105,-44.956,-18.902
17996.0,189.28,90.105,-38.956,-16.902
18005.0,187.28,89.105,-34.956,-13.902
18015.0,189.28,89.105,-29.956,-13.902
18025.0,189.28,91.105,-25.956,-12.902
18035.0,189.28,89.105,-19.956,-10.902
18045.0,189.28,89.105,-14.956,-9.9023
18055.0,188.28,88.105,-10.956,-8.9023
18065.0,187.28,87.105,-7.956,-6.9023
18075.0,181.28,84.105,-3.956,-5.9023
18085.0,179.28,82.105,-1.956,-5.9023
18094.0,183.28,84.105,3.044,-3.9023
18104.0,181.28,81.105,1.044,-4.9023
18114.0,180.28,82.105,2.044,-3.9023
18124.0,185.28,84.105,0.043963,-4.9023
18134.0,183.28,83.105,0.043963,-6.9023
18144.0,181.28,82.105,-1.956,-5.9023
18154.0,181.28,84.105,1.044,-3.9023
18164.0,181.28,82.105,1.044,-5.9023
18174.0,179.28,82.105,0.043963,-5.9023
18183.0,179.28,80.105,2.044,-4.9023
18193.0,174.28,78.105,1.044,-4.9023
18203.0,172.28,77.105,3.044,-2.9023
18213.0,171.28,76.105,5.044,-2.9023
18223.0,168.28,75.105,6.044,-3.9023
18233.0,168.28,74.105,8.044,-2.9023
18243.0,165.28,74.105,6.044,-3.9023
18253.0,161.28,72.105,8.044,-2.9023
18262.0,157.28,69.105,7.044,-2.9023
18272.0,153.28,66.105,7.044,-2.9023
18282.0,148.28,64.105,8.044,-3.9023
18292.0,145.28,61.105,7.044,-2.9023
18302.0,140.28,61.105,8.044,-3.9023
18312.0,137.28,59.105,5.044,-2.9023
18322.0,133.28,58.105,7.044,-1.9023
18332.0,129.28,55.105,9.044,-1.9023
18342.0,126.28,54.105,11.044,-0.90225
18351.0,122.28,52.105,11.044,0.097746
18361.0,120.28,51.105,10.044,-0.90225
18371.0,118.28,50.105,10.044,-2.9023
18381.0,116.28,50.105,13.044,-0.90225
18391.0,112.28,47.105,14.044,-1.9023
18401.0,111.28,46.105,11.044,-0.90225
18411.0,110.28,46.105,12.044,-0.90225
18421.0,114.28,46.105,13.044,-0.90225
18431.0,112.28,46.105,12.044,0.097746
18440.0,113.28,46.105,14.044,-0.90225
18450.0,114.28,47.105,13.044,-0.90225
18460.0,111.28,44.105,13.044,-0.90225
18470.0,111.28,43.105,13.044,-0.90225
18480.0,110.28,44.105,12.044,-0.90225
18490.0,109.28,43.105,12.044,0.097746
18500.0,109.28,43.105,12.044,-0.90225
18510.0,113.28,46.105,10.044,-0.90225
18520.0,124.28,54.105,8.044,-2.9023
18529.0,134.28,60.105,10.044,-1.9023
18539.0,150.28,69.105,9.044,-2.9023
18549.0,164.28,76.105,9.044,-2.9023
18559.0,174.28,81.105,6.044,-3.9023
18569.0,181.28,83.105,6.044,-3.9023
18579.0,189.28,85.105,10.044,-1.9023
18589.0,193.28,87.105,10.044,-1.9023
18599.0,197.28,85.105,13.044,3.0977
18608.0,196.28,85.105,13.044,3.0977
18618.0,197.28,84.105,16.044,5.0977
18628.0,197.28,84.105,16.044,5.0977
18638.0,197.28,83.105,22.044,8.0977
18648.0,197.28,83.105,22.044,8.0977
18658.0,193.28,82.105,34.044,11.098
18668.0,193.28,82.105,34.044,11.098
18678.0,196.28,82.105,42.044,13.098
18688.0,196.28,82.105,42.044,13.098
18697.0,191.28,82.105,53.044,15.098
18707.0,191.28,82.105,53.044,15.098
18717.0,186.28,78.105,60.044,16.098
18727.0,186.28,78.105,60.044,16.098
18737.0,177.28,73.105,65.044,18.098
18747.0,177.28,73.105,65.044,18.098
18757.0,175.28,71.105,68.044,19.098
18767.0,175.28,71.105,69.044,19.098
18777.0,178.28,73.105,68.044,18.098
18786.0,178.28,73.105,69.044,19.098
18796.0,177.28,72.105,68.044,18.098
18806.0,177.28,73.105,68.044,19.098
18816.0,179.28,73.105,69.044,19.098
18826.0,182.28,74.105,68.044,18.098
18836.0,180.28,74.105,68.044,20.098
18846.0,177.28,71.105,68.044,19.098
18856.0,174.28,71.105,69.044,19.098
18866.0,172.28,69.105,70.044,19.098
18875.0,169.28,69.105,68.044,18.098
18885.0,167.28,66.105,68.044,18.098
18895.0,162.28,63.105,67.044,18.098
18905.0,160.28,62.105,69.044,18.098
18915.0,157.28,61.105,72.044,17.098
18925.0,152.28,60.105,70.044,18.098
18935.0,147.28,58.105,71.044,18.098
18945.0,144.28,56.105,71.044,17.098
18954.0,143.28,56.105,73.044,17.098
18964.0,141.28,56.105,73.044,17.098
18974.0,138.28,55.105,72.044,18.098
18984.0,136.28,55.105,75.044,18.098
18994.0,134.28,55.105,76.044,20.098
19004.0,129.28,53.105,76.044,20.098
19014.0,127.28,51.105,75.044,19.098
19024.0,122.28,50.105,78.044,20.098
19034.0,118.28,48.105,77.044,20.098
19043.0,113.28,47.105,79.044,21.098
19053.0,108.28,45.105,79.044,20.098
19063.0,106.28,42.105,81.044,21.098
19073.0,101.28,40.105,82.044,21.098
19083.0,95.282,37.105,81.044,20.098
19093.0,91.282,35.105,81.044,21.098
19103.0,88.282,34.105,82.044,21.098
19113.0,82.282,32.105,83.044,22.098
19123.0,77.282,29.105,81.044,21.098
19132.0,70.282,25.105,84.044,21.098
19142.0,63.282,23.105,83.044,20.098
19152.0,58.282,18.105,84.044,21.098
19162.0,51.282,16.105,83.044,21.098
19172.0,45.282,14.105,83.044,20.098
19182.0,42.282,12.105,85.044,21.098
19192.0,44.282,14.105,84.044,21.098
19202.0,48.282,17.105,86.044,20.098
19212.0,58.282,23.105,86.044,21.098
19221.0,70.282,31.105,86.044,21.098
19231.0,82.282,38.105,86.044,22.098
19241.0,91.282,42.105,83.044,21.098
19251.0,97.282,43.105,82.044,20.098
19261.0,100.28,45.105,80.044,20.098
19271.0,102.28,43.105,84.044,21.098
19281.0,102.28,42.105,82.044,24.098
19291.0,99.282,39.105,84.044,26.098
19300.0,92.282,35.105,84.044,27.098
19310.0,88.282,31.105,86.044,28.098
19320.0,82.282,28.105,88.044,28.098
19330.0,75.282,25.105,93.044,30.098
19340.0,70.282,22.105,95.044,30.098
19350.0,64.282,19.105,100.04,31.098
19360.0,58.282,16.105,104.04,32.098
19370.0,52.282,13.105,110.04,33.098
19380.0,50.282,11.105,114.04,32.098
19389.0,47.282,9.105,118.04,35.098
19399.0,39.282,4.105,121.04,34.098
19409.0,30.282,-1.895,123.04,34.098
19419.0,19.282,-6.895,123.04,36.098
19429.0,17.282,-6.895,124.04,36.098
19439.0,14.282,-8.895,123.04,36.098
19449.0,5.2817,-12.895,123.04,35.098
19459.0,8.2817,-10.895,122.04,35.098
19469.0,8.2817,-11.895,121.04,35.098
19478.0,6.2817,-13.895,121.04,35.098
19488.0,7.2817,-12.895,119.04,35.098
19498.0,7.2817,-12.895,119.04,35.098
19508.0,4.2817,-12.895,118.04,34.098
19518.0,4.2817,-12.895,116.04,32.098
19528.0,-1.7183,-16.895,114.04,31.098
19538.0,-1.7183,-16.895,114.04,32.098
19548.0,-6.7183,-19.895,113.04,31.098
19558.0,-6.7183,-19.895,113.04,31.098
19567.0,-13.718,-23.895,111.04,31.098
19577.0,-13.718,-23.895,111.04,31.098
19587.0,-19.718,-25.895,109.04,28.098
19597.0,-19.718,-25.895,109.04,28.098
19607.0,-27.718,-31.895,108.04,28.098
19617.0,-27.718,-31.895,108.04,28.098
19627.0,-33.718,-32.895,103.04,25.098
19637.0,-33.718,-32.895,103.04,25.098
19646.0,-37.718,-36.895,99.044,25.098
19656.0,-37.718,-36.895,99.044,25.098
19666.0,-41.718,-37.895,99.044,24.098
19676.0,-42.718,-38.895,99.044,24.098
19686.0,-44.718,-38.895,96.044,24.098
19696.0,-44.718,-39.895,96.044,24.098
19706.0,-46.718,-41.895,91.044,21.098
19716.0,-44.718,-41.895,91.044,21.098
19726.0,-46.718,-41.895,86.044,20.098
19735.0,-48.718,-42.895,86.044,20.098
19745.0,-49.718,-41.895,80.044,18.098
19755.0,-51.718,-43.895,80.044,18.098
19765.0,-54.718,-44.895,79.044,17.098
19775.0,-54.718,-45.895,77.044,15.098
19785.0,-55.718,-45.895,74.044,14.098
19795.0,-54.718,-44.895,72.044,11.098
19805.0,-56.718,-46.895,68.044,10.098
19815.0,-56.718,-46.895,65.044,9.0977
19824.0,-59.718,-46.895,63.044,7.0977
19834.0,-61.718,-46.895,59.044,6.0977
19844.0,-61.718,-48.895,54.044,3.0977
19854.0,-65.718,-49.895,52.044,3.0977
19864.0,-64.718,-46.895,49.044,1.0977
19874.0,-58.718,-42.895,47.044,-0.90225
19884.0,-47.718,-36.895,43.044,-1.9023
19894.0,-34.718,-27.895,41.044,-2.9023
19904.0,-17.718,-16.895,40.044,-4.9023
19913.0,-0.7183,-7.895,36.044,-6.9023
19923.0,11.282,-3.895,32.044,-6.9023
19933.0,20.282,1.105,29.044,-8.9023
19943.0,29.282,5.105,27.044,-8.9023
19953.0,37.282,7.105,29.044,-7.9023
19963.0,42.282,9.105,30.044,-7.9023
19973.0,44.282,8.105,26.044,-5.9023
19983.0,43.282,6.105,27.044,-5.9023
19992.0,43.282,5.105,27.044,-4.9023
20002.0,42.282,5.105,28.044,-3.9023
20012.0,43.282,5.105,31.044,-4.9023
20022.0,45.282,5.105,33.044,-3.9023
20032.0,46.282,6.105,35.044,-1.9023
20042.0,47.282,6.105,37.044,-1.9023
20052.0,50.282,8.105,39.044,-1.9023
20062.0,52.282,9.105,42.044,-1.9023
20072.0,52.282,8.105,43.044,-1.9023
20081.0,52.282,9.105,46.044,-1.9023
20091.0,49.282,6.105,47.044,-2.9023
20101.0,47.282,5.105,48.044,-1.9023
20111.0,51.282,8.105,46.044,-1.9023
20121.0,49.282,7.105,47.044,-3.9023
20131.0,49.282,8.105,46.044,-1.9023
20141.0,56.282,12.105,44.044,-3.9023
20151.0,55.282,11.105,42.044,-4.9023
20161.0,58.282,14.105,41.044,-5.9023
20170.0,63.282,15.105,37.044,-4.9023
20180.0,63.282,18.105,39.044,-5.9023
20190.0,66.282,17.105,36.044,-4.9023
20200.0,66.282,16.105,37.044,-4.9023
20210.0,66.282,19.105,38.044,-5.9023
20220.0,67.282,18.105,37.044,-7.9023
20230.0,67.282,19.105,35.044,-8.9023
20240.0,65.282,17.105,36.044,-7.9023
20250.0,64.282,17.105,37.044,-7.9023
20259.0,63.282,17.105,37.044,-8.9023
20269.0,62.282,15.105,38.044,-8.9023
20279.0,57.282,14.105,36.044,-9.9023
20289.0,56.282,13.105,38.044,-9.9023
20299.0,55.282,13.105,36.044,-9.9023
20309.0,53.282,12.105,38.044,-9.9023
20319.0,52.282,11.105,36.044,-10.902
20329.0,49.282,10.105,37.044,-8.9023
20338.0,48.282,10.105,37.044,-8.9023
20348.0,46.282,8.105,36.044,-9.9023
20358.0,45.282,9.105,35.044,-9.9023
20368.0,45.282,9.105,35.044,-10.902
20378.0,44.282,8.105,36.044,-9.9023
20388.0,44.282,8.105,36.044,-8.9023
20398.0,39.282,8.105,33.044,-10.902
20408.0,39.282,8.105,34.044,-11.902
20418.0,32.282,4.105,29.044,-10.902
20427.0,32.282,4.105,33.044,-12.902
20437.0,21.282,0.105,31.044,-11.902
20447.0,21.282,0.105,30.044,-12.902
20457.0,5.2817,-8.895,31.044,-12.902
20467.0,5.2817,-8.895,27.044,-15.902
20477.0,-20.718,-20.895,26.044,-13.902
20487.0,-20.718,-20.895,27.044,-14.902
20497.0,-42.718,-31.895,23.044,-13.902
20507.0,-42.718,-31.895,23.044,-15.902
20516.0,-57.718,-38.895,21.044,-16.902
20526.0,-57.718,-38.895,20.044,-15.902
20536.0,-59.718,-40.895,18.044,-16.902
20546.0,-60.718,-39.895,16.044,-17.902
20556.0,-54.718,-35.895,16.044,-19.902
20566.0,-48.718,-29.895,14.044,-18.902
20576.0,-35.718,-22.895,14.044,-18.902
20586.0,-25.718,-18.895,15.044,-19.902
20596.0,-17.718,-14.895,11.044,-20.902
20605.0,-10.718,-12.895,9.044,-19.902
20615.0,-7.7183,-12.895,13.044,-19.902
20625.0,-5.7183,-12.895,13.044,-18.902
20635.0,-5.7183,-14.895,13.044,-16.902
20645.0,-8.7183,-16.895,13.044,-16.902
20655.0,-12.718,-20.895,18.044,-12.902
20665.0,-16.718,-22.895,18.044,-12.902
20675.0,-19.718,-26.895,21.044,-11.902
20684.0,-22.718,-27.895,21.044,-11.902
20694.0,-23.718,-30.895,29.044,-12.902
20704.0,-28.718,-32.895,29.044,-12.902
20714.0,-31.718,-34.895,35.044,-8.9023
20724.0,-31.718,-34.895,35.044,-8.9023
20734.0,-33.718,-35.895,41.044,-7.9023
20744.0,-37.718,-36.895,41.044,-7.9023
20754.0,-39.718,-39.895,47.044,-7.9023
20764.0,-45.718,-43.895,47.044,-7.9023
20773.0,-50.718,-46.895,48.044,-7.9023
20783.0,-50.718,-44.895,48.044,-7.9023
20793.0,-53.718,-47.895,47.044,-7.9023
20803.0,-55.718,-47.895,47.044,-7.9023
20813.0,-53.718,-44.895,45.044,-9.9023
20823.0,-55.718,-45.895,45.044,-9.9023
20833.0,-54.718,-46.895,45.044,-7.9023
20843.0,-52.718,-45.895,45.044,-7.9023
20853.0,-52.718,-44.895,43.044,-7.9023
20862.0,-52.718,-43.895,43.044,-7.9023
20872.0,-55.718,-46.895,42.044,-7.9023
20882.0,-54.718,-46.895,41.044,-7.9023
20892.0,-57.718,-46.895,41.044,-8.9023
20902.0,-60.718,-50.895,42.044,-9.9023
20912.0,-61.718,-50.895,38.044,-11.902
20922.0,-64.718,-51.895,38.044,-9.9023
20932.0,-66.718,-51.895,41.044,-9.9023
20942.0,-69.718,-53.895,41.044,-10.902
20951.0,-72.718,-54.895,43.044,-8.9023
20961.0,-77.718,-56.895,42.044,-9.9023
20971.0,-81.718,-58.895,43.044,-8.9023
20981.0,-84.718,-60.895,42.044,-9.9023
20991.0,-86.718,-62.895,43.044,-9.9023
21001.0,-91.718,-64.895,43.044,-10.902
21011.0,-92.718,-64.895,42.044,-9.9023
21021.0,-94.718,-66.895,42.044,-10.902
21030.0,-99.718,-66.895,40.044,-9.9023
21040.0,-101.72,-66.895,42.044,-9.9023
21050.0,-103.72,-69.895,41.044,-10.902
21060.0,-107.72,-69.895,41.044,-10.902
21070.0,-111.72,-72.895,40.044,-11.902
21080.0,-113.72,-74.895,40.044,-11.902
21090.0,-117.72,-74.895,40.044,-9.9023
21100.0,-122.72,-76.895,39.044,-10.902
21110.0,-125.72,-78.895,39.044,-10.902
21119.0,-129.72,-80.895,39.044,-10.902
21129.0,-135.72,-83.895,38.044,-11.902
21139.0,-141.72,-87.895,37.044,-12.902
21149.0,-148.72,-89.895,37.044,-11.902
21159.0,-154.72,-92.895,36.044,-13.902
21169.0,-159.72,-94.895,34.044,-13.902
21179.0,-161.72,-94.895,33.044,-13.902
21189.0,-157.72,-91.895,33.044,-13.902
21199.0,-151.72,-86.895,33.044,-14.902
21208.0,-141.72,-78.895,32.044,-14.902
21218.0,-141.72,-78.895,33.044,-15.902
21228.0,-107.72,-59.895,31.044,-14.902
21238.0,-107.72,-59.895,31.044,-15.902
21248.0,-80.718,-47.895,30.044,-15.902
21258.0,-80.718,-47.895,28.044,-15.902
21268.0,-59.718,-40.895,28.044,-16.902
21278.0,-59.718,-40.895,30.044,-14.902
21288.0,-51.718,-37.895,32.044,-12.902
21297.0,-51.718,-37.895,32.044,-11.902
21307.0,-50.718,-40.895,36.044,-8.9023
21317.0,-50.718,-40.895,38.044,-6.9023
21327.0,-53.718,-42.895,40.044,-5.9023
21337.0,-53.718,-42.895,44.044,-5.9023
21347.0,-53.718,-43.895,45.044,-3.9023
21357.0,-53.718,-43.895,51.044,-3.9023
21367.0,-52.718,-42.895,56.044,-0.90225
21376.0,-52.718,-42.895,59.044,-0.90225
21386.0,-53.718,-45.895,64.044,0.097746
21396.0,-53.718,-45.895,63.044,0.097746
21406.0,-55.718,-45.895,69.044,0.097746
21416.0,-57.718,-46.895,73.044,1.0977
21426.0,-64.718,-49.895,71.044,2.0977
21436.0,-70.718,-54.895,73.044,0.097746
21446.0,-72.718,-55.895,75.044,3.0977
21456.0,-76.718,-57.895,76.044,2.0977
21465.0,-80.718,-59.895,73.044,1.0977
21475.0,-77.718,-55.895,71.044,2.0977
21485.0,-79.718,-57.895,70.044,0.097746
21495.0,-79.718,-56.895,68.044,0.097746
21505.0,-76.718,-54.895,68.044,1.0977
21515.0,-76.718,-55.895,67.044,-0.90225
21525.0,-78.718,-56.895,63.044,0.097746
21535.0,-82.718,-56.895,66.044,-0.90225
21545.0,-81.718,-56.895,63.044,0.097746
21554.0,-84.718,-57.895,61.044,0.097746
21564.0,-85.718,-60.895,62.044,0.097746
21574.0,-87.718,-60.895,63.044,-1.9023
21584.0,-91.718,-61.895,65.044,0.097746
21594.0,-95.718,-64.895,62.044,-1.9023
21604.0,-101.72,-67.895,62.044,-0.90225
21614.0,-105.72,-69.895,61.044,-0.90225
21624.0,-109.72,-70.895,62.044,-1.9023
21634.0,-114.72,-71.895,63.044,-0.90225
21643.0,-117.72,-75.895,62.044,-1.9023
21653.0,-122.72,-75.895,62.044,-2.9023
21663.0,-123.72,-75.895,60.044,-2.9023
21673.0,-126.72,-77.895,59.044,-3.9023
21683.0,-131.72,-79.895,58.044,-2.9023
21693.0,-133.72,-80.895,58.044,-2.9023
21703.0,-139.72,-82.895,58.044,-3.9023
21713.0,-143.72,-84.895,58.044,-3.9023
21722.0,-146.72,-86.895,56.044,-4.9023
21732.0,-149.72,-86.895,56.044,-4.9023
21742.0,-150.72,-88.895,53.044,-4.9023
21752.0,-155.72,-91.895,53.044,-4.9023
21762.0,-161.72,-92.895,51.044,-5.9023
21772.0,-165.72,-96.895,51.044,-5.9023
21782.0,-172.72,-98.895,50.044,-5.9023
21792.0,-178.72,-100.9,50.044,-5.9023
21802.0,-182.72,-102.9,44.044,-9.9023
21811.0,-185.72,-104.9,44.044,-9.9023
21821.0,-190.72,-104.9,38.044,-9.9023
21831.0,-191.72,-105.9,38.044,-9.9023
21841.0,-188.72,-102.9,33.044,-11.902
21851.0,-181.72,-98.895,33.044,-11.902
21861.0,-170.72,-90.895,33.044,-12.902
21871.0,-153.72,-79.895,33.044,-12.902
21881.0,-135.72,-71.895,31.044,-13.902
21891.0,-120.72,-62.895,31.044,-13.902
21900.0,-106.72,-57.895,28.044,-14.902
21910.0,-94.718,-53.895,28.044,-14.902
21920.0,-86.718,-50.895,27.044,-13.902
21930.0,-82.718,-49.895,27.044,-13.902
21940.0,-77.718,-49.895,29.044,-12.902
21950.0,-76.718,-49.895,30.044,-10.902
21960.0,-75.718,-48.895,31.044,-7.9023
21970.0,-73.718,-49.895,32.044,-6.9023
21980.0,-72.718,-50.895,35.044,-7.9023
21989.0,-73.718,-49.895,39.044,-5.9023
21999.0,-69.718,-47.895,45.044,-2.9023
22009.0,-70.718,-48.895,46.044,-3.9023
22019.0,-66.718,-46.895,49.044,-2.9023
22029.0,-64.718,-45.895,53.044,-2.9023
22039.0,-62.718,-46.895,57.044,-1.9023
22049.0,-63.718,-45.895,61.044,-0.90225
22059.0,-64.718,-46.895,64.044,0.097746
22068.0,-68.718,-49.895,65.044,-0.90225
22078.0,-77.718,-53.895,69.044,0.097746
22088.0,-77.718,-53.895,71.044,1.0977
22098.0,-81.718,-55.895,72.044,2.0977
22108.0,-81.718,-55.895,73.044,1.0977
22118.0,-81.718,-53.895,70.044,2.0977
22128.0,-81.718,-53.895,69.044,1.0977
22138.0,-81.718,-54.895,69.044,1.0977
22148.0,-81.718,-54.895,65.044,0.097746
22157.0,-76.718,-51.895,63.044,0.097746
22167.0,-76.718,-51.895,62.044,0.097746
22177.0,-71.718,-48.895,61.044,-0.90225
22187.0,-71.718,-48.895,61.044,-2.9023
22197.0,-70.718,-46.895,57.044,-1.9023
22207.0,-70.718,-46.895,57.044,-0.90225
22217.0,-67.718,-47.895,58.044,-1.9023
22227.0,-67.718,-47.895,55.044,-2.9023
22237.0,-70.718,-47.895,56.044,-2.9023
22246.0,-70.718,-47.895,56.044,-4.9023
22256.0,-71.718,-47.895,55.044,-3.9023
22266.0,-71.718,-47.895,54.044,-4.9023
22276.0,-69.718,-48.895,54.044,-5.9023
22286.0,-69.718,-46.895,54.044,-4.9023
22296.0,-68.718,-43.895,54.044,-5.9023
22306.0,-65.718,-43.895,52.044,-5.9023
22316.0,-62.718,-42.895,52.044,-7.9023
22326.0,-61.718,-40.895,51.044,-6.9023
22335.0,-55.718,-37.895,47.044,-7.9023
22345.0,-55.718,-36.895,46.044,-8.9023
22355.0,-50.718,-33.895,46.044,-9.9023
22365.0,-48.718,-33.895,44.044,-9.9023
22375.0,-47.718,-30.895,42.044,-9.9023
22385.0,-44.718,-29.895,40.044,-10.902
22395.0,-40.718,-27.895,39.044,-10.902
22405.0,-38.718,-26.895,35.044,-12.902
22414.0,-35.718,-23.895,34.044,-13.902
22424.0,-33.718,-23.895,31.044,-14.902
22434.0,-34.718,-23.895,29.044,-15.902
22444.0,-36.718,-25.895,28.044,-16.902
22454.0,-37.718,-25.895,24.044,-18.902
22464.0,-38.718,-25.895,21.044,-20.902
22474.0,-38.718,-25.895,18.044,-21.902
22484.0,-35.718,-20.895,15.044,-21.902
22494.0,-26.718,-15.895,13.044,-22.902
22503.0,-15.718,-9.895,12.044,-23.902
22513.0,2.2817,2.105,9.044,-26.902
22523.0,22.282,14.105,8.044,-26.902
22533.0,41.282,23.105,5.044,-28.902
22543.0,58.282,31.105,3.044,-27.902
22553.0,73.282,38.105,3.044,-28.902
22563.0,87.282,42.105,1.044,-29.902
22573.0,95.282,44.105,2.044,-27.902
22583.0,101.28,45.105,0.043963,-26.902
22592.0,104.28,47.105,-0.95604,-24.902
22602.0,107.28,48.105,0.043963,-24.902
22612.0,111.28,49.105,-1.956,-24.902
22622.0,113.28,49.105,2.044,-23.902
22632.0,114.28,50.105,4.044,-23.902
22642.0,118.28,49.105,6.044,-23.902
22652.0,116.28,49.105,12.044,-21.902
22662.0,118.28,50.105,13.044,-22.902
22671.0,120.28,51.105,18.044,-20.902
22681.0,121.28,51.105,20.044,-21.902
22691.0,125.28,53.105,23.044,-21.902
22701.0,127.28,54.105,24.044,-21.902
22711.0,125.28,53.105,27.044,-19.902
22721.0,121.28,51.105,27.044,-20.902
22731.0,120.28,50.105,26.044,-21.902
22741.0,119.28,51.105,27.044,-21.902
22751.0,118.28,50.105,26.044,-21.902
22760.0,115.28,48.105,26.044,-22.902
22770.0,123.28,53.105,23.044,-22.902
22780.0,121.28,53.105,22.044,-23.902
22790.0,125.28,55.105,20.044,-22.902
22800.0,132.28,57.105,20.044,-24.902
22810.0,135.28,59.105,17.044,-25.902
22820.0,139.28,61.105,17.044,-25.902
22830.0,138.28,61.105,14.044,-25.902
22840.0,139.28,62.105,14.044,-25.902
22849.0,142.28,64.105,8.044,-29.902
22859.0,141.28,64.105,8.044,-29.902
22869.0,141.28,62.105,7.044,-30.902
22879.0,138.28,61.105,7.044,-30.902
22889.0,137.28,61.105,5.044,-30.902
22899.0,135.28,60.105,5.044,-30.902
22909.0,133.28,58.105,5.044,-31.902
22919.0,127.28,57.105,5.044,-31.902
22929.0,126.28,57.105,2.044,-33.902
22938.0,124.28,56.105,2.044,-33.902
22948.0,123.28,55.105,-0.95604,-33.902
22958.0,123.28,55.105,-0.95604,-33.902
22968.0,119.28,53.105,-2.956,-35.902
22978.0,119.28,53.105,-2.956,-35.902
22988.0,115.28,53.105,-6.956,-35.902
22998.0,115.28,53.105,-6.956,-35.902
23008.0,113.28,52.105,-9.956,-38.902
23017.0,113.28,52.105,-9.956,-38.902
23027.0,110.28,51.105,-12.956,-38.902
23037.0,110.28,51.105,-12.956,-38.902
23047.0,103.28,50.105,-16.956,-39.902
23057.0,103.28,50.105,-19.956,-40.902
23067.0,99.282,47.105,-20.956,-40.902
23077.0,99.282,47.105,-20.956,-41.902
23087.0,91.282,44.105,-22.956,-43.902
23097.0,91.282,44.105,-25.956,-45.902
23106.0,84.282,41.105,-26.956,-44.902
23116.0,84.282,41.105,-28.956,-45.902
23126.0,81.282,41.105,-30.956,-47.902
23136.0,86.282,44.105,-32.956,-46.902
23146.0,93.282,49.105,-34.956,-47.902
23156.0,106.28,57.105,-36.956,-48.902
23166.0,125.28,68.105,-38.956,-49.902
23176.0,147.28,80.105,-39.956,-50.902
23186.0,164.28,87.105,-45.956,-51.902
23195.0,176.28,91.105,-45.956,-52.902
23205.0,187.28,97.105,-49.956,-53.902
23215.0,196.28,99.105,-48.956,-53.902
23225.0,199.28,100.1,-47.956,-53.902
23235.0,203.28,100.1,-51.956,-51.902
23245.0,203.28,99.105,-48.956,-48.902
23255.0,206.28,100.1,-48.956,-48.902
23265.0,206.28,100.1,-45.956,-47.902
23275.0,206.28,99.105,-43.956,-47.902
23284.0,207.28,100.1,-43.956,-47.902
23294.0,209.28,101.1,-38.956,-47.902
23304.0,210.28,101.1,-33.956,-45.902
23314.0,212.28,101.1,-32.956,-44.902
23324.0,214.28,101.1,-28.956,-44.902
23334.0,214.28,102.1,-24.956,-42.902
23344.0,216.28,101.1,-23.956,-43.902
23354.0,214.28,102.1,-20.956,-43.902
23363.0,214.28,100.1,-19.956,-42.902
23373.0,207.28,99.105,-21.956,-42.902
23383.0,208.28,98.105,-19.956,-43.902
23393.0,208.28,98.105,-23.956,-43.902
23403.0,205.28,96.105,-21.956,-43.902
23413.0,209.28,99.105,-23.956,-43.902
23423.0,208.28,99.105,-23.956,-44.902
23433.0,207.28,100.1,-27.956,-45.902
23443.0,207.28,100.1,-28.956,-45.902
23452.0,210.28,101.1,-29.956,-43.902
23462.0,211.28,102.1,-29.956,-44.902
23472.0,211.28,102.1,-34.956,-44.902
23482.0,210.28,102.1,-34.956,-45.902
23492.0,210.28,100.1,-36.956,-45.902
23502.0,210.28,100.1,-35.956,-46.902
23512.0,208.28,99.105,-37.956,-45.902
23522.0,205.28,98.105,-38.956,-45.902
23532.0,206.28,98.105,-38.956,-46.902
23541.0,204.28,97.105,-41.956,-48.902
23551.0,200.28,96.105,-42.956,-48.902
23561.0,197.28,95.105,-43.956,-48.902
23571.0,193.28,94.105,-45.956,-49.902
23581.0,190.28,92.105,-45.956,-49.902
23591.0,185.28,90.105,-47.956,-50.902
23601.0,180.28,89.105,-49.956,-50.902
23611.0,177.28,87.105,-53.956,-52.902
23621.0,174.28,86.105,-55.956,-52.902
23630.0,171.28,84.105,-57.956,-52.902
23640.0,167.28,83.105,-58.956,-52.902
23650.0,164.28,81.105,-60.956,-53.902
23660.0,160.28,80.105,-63.956,-54.902
23670.0,158.28,78.105,-63.956,-55.902
23680.0,154.28,75.105,-64.956,-54.902
23690.0,149.28,75.105,-67.956,-57.902
23700.0,144.28,73.105,-70.956,-56.902
23709.0,140.28,72.105,-71.956,-58.902
23719.0,138.28,70.105,-75.956,-58.902
23729.0,132.28,68.105,-77.956,-59.902
23739.0,128.28,66.105,-80.956,-60.902
23749.0,122.28,64.105,-81.956,-61.902
23759.0,118.28,62.105,-82.956,-60.902
23769.0,112.28,61.105,-86.956,-62.902
23779.0,114.28,62.105,-87.956,-63.902
23789.0,118.28,65.105,-89.956,-63.902
23798.0,124.28,70.105,-90.956,-64.902
23808.0,142.28,81.105,-92.956,-65.902
23818.0,160.28,91.105,-95.956,-65.902
23828.0,160.28,91.105,-98.956,-66.902
23838.0,188.28,103.1,-99.956,-66.902
23848.0,188.28,103.1,-101.96,-65.902
23858.0,204.28,108.1,-101.96,-66.902
23868.0,204.28,108.1,-101.96,-66.902
23878.0,210.28,109.1,-103.96,-64.902
23887.0,210.28,109.1,-103.96,-64.902
23897.0,212.28,106.1,-102.96,-61.902
23907.0,212.28,106.1,-102.96,-61.902
23917.0,212.28,106.1,-98.956,-62.902
23927.0,212.28,106.1,-98.956,-62.902
23937.0,210.28,104.1,-94.956,-59.902
23947.0,210.28,104.1,-94.956,-59.902
23957.0,211.28,104.1,-87.956,-58.902
23967.0,211.28,104.1,-87.956,-58.902
23976.0,214.28,104.1,-80.956,-55.902
23986.0,214.28,104.1,-80.956,-55.902
23996.0,211.28,103.1,-77.956,-55.902
24006.0,210.28,101.1,-77.956,-55.902
24016.0,205.28,98.105,-73.956,-53.902
24026.0,201.28,97.105,-73.956,-53.902
24036.0,200.28,97.105,-73.956,-53.902
24046.0,195.28,96.105,-73.956,-53.902
24055.0,190.28,93.105,-74.956,-54.902
24065.0,194.28,95.105,-74.956,-54.902
24075.0,193.28,94.105,-78.956,-54.902
24085.0,191.28,93.105,-78.956,-54.902
24095.0,190.28,92.105,-79.956,-55.902
24105.0,188.28,94.105,-82.956,-53.902
24115.0,187.28,91.105,-83.956,-55.902
24125.0,183.28,91.105,-83.956,-56.902
24135.0,178.28,89.105,-83.956,-55.902
24144.0,172.28,84.105,-84.956,-57.902
24154.0,168.28,82.105,-84.956,-58.902
24164.0,163.28,80.105,-83.956,-55.902
24174.0,157.28,77.105,-85.956,-57.902
24184.0,151.28,74.105,-85.956,-58.902
24194.0,144.28,70.105,-84.956,-58.902
24204.0,139.28,68.105,-86.956,-58.902
24214.0,133.28,65.105,-85.956,-58.902
24224.0,130.28,63.105,-85.956,-59.902
24233.0,127.28,61.105,-87.956,-58.902
24243.0,123.28,60.105,-86.956,-58.902
24253.0,117.28,57.105,-86.956,-59.902
24263.0,111.28,54.105,-88.956,-59.902
24273.0,109.28,53.105,-89.956,-60.902
24283.0,105.28,52.105,-90.956,-59.902
24293.0,101.28,51.105,-91.956,-61.902
24303.0,96.282,49.105,-93.956,-61.902
24313.0,94.282,45.105,-94.956,-64.902
24322.0,91.282,46.105,-93.956,-61.902
24332.0,88.282,44.105,-91.956,-62.902
24342.0,83.282,43.105,-93.956,-62.902
24352.0,81.282,41.105,-93.956,-63.902
24362.0,77.282,38.105,-94.956,-63.902
24372.0,72.282,35.105,-92.956,-63.902
24382.0,67.282,32.105,-96.956,-62.902
24392.0,60.282,29.105,-94.956,-63.902
24401.0,52.282,26.105,-96.956,-65.902
24411.0,46.282,24.105,-96.956,-65.902
24421.0,41.282,22.105,-96.956,-66.902
24431.0,38.282,20.105,-97.956,-67.902
24441.0,40.282,22.105,-99.956,-67.902
24451.0,46.282,27.105,-99.956,-67.902
24461.0,57.282,34.105,-102.96,-68.902
24471.0,73.282,43.105,-102.96,-70.902
24481.0,89.282,52.105,-103.96,-69.902
24490.0,103.28,58.105,-104.96,-70.902
24500.0,113.28,61.105,-102.96,-70.902
24510.0,122.28,66.105,-103.96,-69.902
24520.0,129.28,66.105,-104.96,-70.902
24530.0,134.28,69.105,-101.96,-68.902
24540.0,135.28,67.105,-100.96,-66.902
24550.0,135.28,66.105,-99.956,-64.902
24560.0,137.28,67.105,-94.956,-62.902
24570.0,135.28,64.105,-93.956,-60.902
24579.0,134.28,62.105,-87.956,-61.902
24589.0,131.28,62.105,-87.956,-61.902
24599.0,130.28,61.105,-81.956,-60.902
24609.0,130.28,61.105,-76.956,-59.902
24619.0,127.28,60.105,-72.956,-57.902
24629.0,128.28,59.105,-68.956,-57.902
24639.0,126.28,59.105,-64.956,-57.902
24649.0,123.28,56.105,-62.956,-55.902
24659.0,116.28,53.105,-58.956,-54.902
24668.0,112.28,51.105,-55.956,-54.902
24678.0,113.28,52.105,-52.956,-54.902
24688.0,108.28,50.105,-54.956,-54.902
24698.0,108.28,50.105,-54.956,-55.902
24708.0,109.28,51.105,-54.956,-55.902
24718.0,109.28,51.105,-55.956,-55.902
24728.0,108.28,52.105,-55.956,-56.902
24738.0,108.28,52.105,-55.956,-57.902
24747.0,116.28,55.105,-55.956,-56.902
24757.0,116.28,55.105,-56.956,-55.902
24767.0,117.28,55.105,-57.956,-56.902
24777.0,117.28,55.105,-58.956,-56.902
24787.0,113.28,53.105,-60.956,-58.902
24797.0,113.28,53.105,-59.956,-58.902
24807.0,109.28,51.105,-60.956,-56.902
24817.0,109.28,51.105,-59.956,-58.902
24827.0,102.28,46.105,-59.956,-57.902
24836.0,102.28,46.105,-58.956,-58.902
24846.0,93.282,42.105,-57.956,-58.902
24856.0,93.282,42.105,-58.956,-58.902
24866.0,85.282,39.105,-57.956,-58.902
24876.0,85.282,39.105,-60.956,-58.902
24886.0,83.282,37.105,-57.956,-58.902
24896.0,78.282,35.105,-58.956,-59.902
24906.0,74.282,33.105,-58.956,-59.902
24916.0,71.282,33.105,-60.956,-60.902
24925.0,67.282,30.105,-60.956,-59.902
24935.0,61.282,27.105,-60.956,-59.902
24945.0,59.282,25.105,-61.956,-59.902
24955.0,55.282,24.105,-60.956,-60.902
24965.0,50.282,24.105,-61.956,-59.902
24975.0,47.282,22.105,-60.956,-59.902
24985.0,46.282,19.105,-60.956,-60.902
24995.0,41.282,18.105,-60.956,-60.902
25005.0,37.282,18.105,-62.956,-60.902
25014.0,34.282,15.105,-62.956,-60.902
25024.0,29.282,13.105,-60.956,-61.902
25034.0,23.282,10.105,-60.956,-61.902
25044.0,18.282,7.105,-59.956,-61.902
25054.0,11.282,5.105,-59.956,-61.902
25064.0,5.2817,1.105,-61.956,-61.902
25074.0,1.2817,-0.895,-61.956,-61.902
25084.0,-2.7183,-2.895,-61.956,-61.902
25093.0,-0.7183,0.105,-61.956,-61.902
25103.0,6.2817,5.105,-61.956,-60.902
25113.0,15.282,11.105,-61.956,-60.902
25123.0,26.282,18.105,-61.956,-61.902
25133.0,43.282,29.105,-61.956,-61.902
25143.0,62.282,38.105,-61.956,-61.902
25153.0,74.282,44.105,-61.956,-61.902
25163.0,86.282,48.105,-65.956,-61.902
25173.0,95.282,51.105,-65.956,-61.902
25182.0,101.28,51.105,-61.956,-61.902
25192.0,105.28,53.105,-61.956,-61.902
25202.0,106.28,52.105,-59.956,-57.902
25212.0,110.28,52.105,-59.956,-57.902
25222.0,110.28,51.105,-58.956,-55.902
25232.0,108.28,51.105,-56.956,-54.902
25242.0,108.28,49.105,-49.956,-53.902
25252.0,106.28,48.105,-45.956,-53.902
25262.0,104.28,46.105,-43.956,-53.902
25271.0,103.28,46.105,-39.956,-52.902
25281.0,100.28,45.105,-35.956,-51.902
25291.0,99.282,45.105,-34.956,-51.902
25301.0,96.282,43.105,-29.956,-49.902
25311.0,90.282,41.105,-25.956,-50.902
25321.0,84.282,39.105,-24.956,-50.902
25331.0,89.282,40.105,-20.956,-48.902
25341.0,87.282,40.105,-21.956,-47.902
25351.0,86.282,40.105,-18.956,-47.902
25360.0,90.282,41.105,-19.956,-48.902
25370.0,90.282,42.105,-19.956,-47.902
25380.0,95.282,46.105,-19.956,-49.902
25390.0,98.282,49.105,-21.956,-48.902
25400.0,102.28,50.105,-21.956,-47.902
25410.0,105.28,52.105,-22.956,-48.902
25420.0,109.28,53.105,-21.956,-47.902
25430.0,112.28,57.105,-25.956,-48.902
25439.0,114.28,58.105,-24.956,-47.902
25449.0,115.28,60.105,-25.956,-48.902
25459.0,116.28,59.105,-26.956,-49.902
25469.0,117.28,60.105,-26.956,-50.902
25479.0,117.28,61.105,-25.956,-50.902
25489.0,118.28,62.105,-25.956,-51.902
25499.0,120.28,63.105,-24.956,-50.902
25509.0,120.28,63.105,-23.956,-51.902
25519.0,120.28,62.105,-23.956,-51.902
25528.0,120.28,59.105,-22.956,-50.902
25538.0,115.28,55.105,-21.956,-50.902
25548.0,113.28,54.105,-22.956,-50.902
25558.0,118.28,54.105,-21.956,-50.902
25568.0,120.28,54.105,-22.956,-50.902
25578.0,124.28,53.105,-21.956,-49.902
25588.0,124.28,53.105,-19.956,-48.902
25598.0,117.28,44.105,-19.956,-48.902
25608.0,117.28,44.105,-17.956,-48.902
25617.0,107.28,35.105,-18.956,-47.902
25627.0,107.28,35.105,-17.956,-47.902
25637.0,103.28,29.105,-16.956,-47.902
25647.0,103.28,29.105,-17.956,-47.902
25657.0,95.282,23.105,-15.956,-48.902
25667.0,95.282,23.105,-17.956,-46.902
25677.0,82.282,17.105,-15.956,-47.902
25687.0,82.282,17.105,-13.956,-46.902
25697.0,62.282,7.105,-15.956,-46.902
25706.0,62.282,7.105,-13.956,-46.902
25716.0,34.282,-4.895,-15.956,-46.902
25726.0,34.282,-4.895,-17.956,-46.902
25736.0,21.282,-9.895,-16.956,-46.902
25746.0,21.282,-9.895,-16.956,-47.902
25756.0,19.282,-9.895,-16.956,-48.902
25766.0,18.282,-8.895,-16.956,-47.902
25776.0,20.282,-5.895,-16.956,-46.902
25785.0,24.282,-3.895,-16.956,-47.902
25795.0,26.282,-4.895,-18.956,-47.902
25805.0,24.282,-5.895,-18.956,-46.902
25815.0,16.282,-11.895,-19.956,-47.902
25825.0,4.2817,-19.895,-17.956,-46.902
25835.0,-18.718,-34.895,-17.956,-44.902
25845.0,-45.718,-51.895,-16.956,-44.902
25855.0,-62.718,-59.895,-15.956,-42.902
25865.0,-79.718,-71.895,-13.956,-41.902
25874.0,-102.72,-84.895,-10.956,-41.902
25884.0,-127.72,-97.895,-6.956,-39.902
25894.0,-142.72,-106.9,-2.956,-36.902
25904.0,-158.72,-117.9,3.044,-36.902
25914.0,-168.72,-125.9,7.044,-34.902
25924.0,-179.72,-130.9,11.044,-35.902
25934.0,-183.72,-134.9,12.044,-34.902
25944.0,-182.72,-130.9,18.044,-33.902
25954.0,-188.72,-135.9,20.044,-32.902
25963.0,-170.72,-124.9,22.044,-31.902
25973.0,-185.72,-131.9,26.044,-30.902
25983.0,-178.72,-127.9,27.044,-29.902
25993.0,-184.72,-131.9,26.044,-29.902
26003.0,-183.72,-128.9,27.044,-29.902
26013.0,-168.72,-122.9,26.044,-29.902
26023.0,-155.72,-113.9,24.044,-29.902
26033.0,-129.72,-98.895,23.044,-29.902
26043.0,-105.72,-87.895,23.044,-29.902
26052.0,-90.718,-77.895,20.044,-30.902
26062.0,-59.718,-61.895,20.044,-30.902
26072.0,-38.718,-50.895,14.044,-32.902
26082.0,-20.718,-41.895,14.044,-32.902
26092.0,-5.7183,-33.895,12.044,-32.902
26102.0,13.282,-22.895,12.044,-32.902
26112.0,36.282,-11.895,14.044,-34.902
26122.0,53.282,-2.895,14.044,-34.902
26131.0,65.282,4.105,14.044,-34.902
26141.0,76.282,9.105,14.044,-34.902
26151.0,78.282,11.105,16.044,-33.902
26161.0,76.282,9.105,16.044,-33.902
26171.0,75.282,8.105,17.044,-33.902
26181.0,73.282,5.105,17.044,-33.902
26191.0,68.282,4.105,16.044,-34.902
26201.0,62.282,2.105,16.044,-34.902
26211.0,53.282,-2.895,18.044,-31.902
26220.0,44.282,-2.895,18.044,-31.902
26230.0,38.282,-5.895,20.044,-30.902
26240.0,27.282,-11.895,20.044,-30.902
26250.0,17.282,-13.895,22.044,-30.902
26260.0,8.2817,-17.895,22.044,-30.902
26270.0,2.2817,-20.895,24.044,-30.902
26280.0,-3.7183,-22.895,25.044,-28.902
26290.0,-11.718,-25.895,25.044,-29.902
26300.0,-19.718,-27.895,25.044,-27.902
26309.0,-35.718,-34.895,25.044,-27.902
26319.0,-43.718,-34.895,28.044,-26.902
26329.0,-49.718,-35.895,28.044,-26.902
26339.0,-59.718,-36.895,30.044,-27.902
26349.0,-63.718,-36.895,27.044,-27.902
26359.0,-67.718,-36.895,28.044,-25.902
26369.0,-69.718,-35.895,26.044,-26.902
26379.0,-65.718,-30.895,24.044,-27.902
26389.0,-58.718,-26.895,26.044,-27.902
26398.0,-49.718,-16.895,24.044,-27.902
26408.0,-34.718,-9.895,21.044,-27.902
26418.0,-23.718,-3.895,19.044,-28.902
26428.0,-12.718,0.105,14.044,-30.902
26438.0,-6.7183,2.105,13.044,-30.902
26448.0,-1.7183,4.105,10.044,-32.902
26458.0,-1.7183,4.105,8.044,-32.902
26468.0,2.2817,4.105,8.044,-30.902
26477.0,2.2817,4.105,12.044,-28.902
26487.0,5.2817,3.105,11.044,-26.902
26497.0,5.2817,3.105,15.044,-25.902
26507.0,4.2817,2.105,16.044,-25.902
26517.0,4.2817,2.105,18.044,-24.902
26527.0,-0.7183,0.105,23.044,-22.902
26537.0,-0.7183,0.105,24.044,-23.902
26547.0,-4.7183,-3.895,28.044,-22.902
26557.0,-4.7183,-3.895,31.044,-21.902
26566.0,-10.718,-5.895,34.044,-21.902
26576.0,-10.718,-5.895,37.044,-21.902
26586.0,-24.718,-13.895,37.044,-21.902
26596.0,-24.718,-13.895,39.044,-21.902
26606.0,-24.718,-11.895,39.044,-20.902
26616.0,-24.718,-11.895,41.044,-20.902
26626.0,-30.718,-15.895,41.044,-21.902
26636.0,-33.718,-15.895,39.044,-20.902
26646.0,-30.718,-13.895,39.044,-19.902
26655.0,-30.718,-14.895,38.044,-20.902
26665.0,-30.718,-12.895,37.044,-20.902
26675.0,-28.718,-11.895,33.044,-19.902
26685.0,-28.718,-11.895,33.044,-22.902
26695.0,-27.718,-12.895,31.044,-23.902
26705.0,-30.718,-11.895,28.044,-23.902
26715.0,-32.718,-13.895,26.044,-24.902
26725.0,-35.718,-14.895,23.044,-26.902
26735.0,-36.718,-14.895,23.044,-25.902
26744.0,-41.718,-16.895,23.044,-27.902
26754.0,-44.718,-16.895,22.044,-26.902
26764.0,-46.718,-18.895,23.044,-26.902
26774.0,-51.718,-21.895,24.044,-27.902
26784.0,-53.718,-22.895,23.044,-28.902
26794.0,-58.718,-24.895,24.044,-27.902
26804.0,-61.718,-27.895,22.044,-27.902
26814.0,-67.718,-27.895,21.044,-28.902
26823.0,-73.718,-31.895,22.044,-28.902
26833.0,-77.718,-32.895,21.044,-28.902
26843.0,-85.718,-34.895,20.044,-28.902
26853.0,-91.718,-38.895,18.044,-28.902
26863.0,-99.718,-41.895,17.044,-29.902
26873.0,-105.72,-43.895,19.044,-28.902
26883.0,-114.72,-47.895,17.044,-28.902
26893.0,-124.72,-51.895,17.044,-29.902
26903.0,-135.72,-56.895,15.044,-29.902
26912.0,-145.72,-61.895,14.044,-28.902
26922.0,-155.72,-66.895,11.044,-29.902
26932.0,-171.72,-74.895,12.044,-30.902
26942.0,-184.72,-79.895,12.044,-31.902
26952.0,-194.72,-84.895,10.044,-31.902
26962.0,-206.72,-89.895,8.044,-31.902
26972.0,-213.72,-91.895,8.044,-31.902
26982.0,-213.72,-90.895,6.044,-31.902
26992.0,-208.72,-88.895,7.044,-32.902
27001.0,-205.72,-84.895,3.044,-32.902
27011.0,-195.72,-77.895,3.044,-33.902
27021.0,-180.72,-68.895,2.044,-34.902
27031.0,-165.72,-62.895,0.043963,-34.902
27041.0,-157.72,-60.895,-1.956,-35.902
27051.0,-151.72,-59.895,-4.956,-35.902
27061.0,-146.72,-58.895,-5.956,-35.902
27071.0,-144.72,-57.895,-5.956,-35.902
27081.0,-142.72,-59.895,-6.956,-34.902
27090.0,-143.72,-61.895,-7.956,-32.902
27100.0,-147.72,-63.895,-7.956,-33.902
27110.0,-151.72,-66.895,-7.956,-32.902
27120.0,-157.72,-69.895,-4.956,-30.902
27130.0,-163.72,-73.895,-4.956,-30.902
27140.0,-169.72,-77.895,-0.95604,-30.902
27150.0,-176.72,-79.895,-0.95604,-30.902
27160.0,-179.72,-82.895,5.044,-29.902
27169.0,-185.72,-84.895,5.044,-29.902
27179.0,-189.72,-87.895,11.044,-30.902
27189.0,-195.72,-91.895,11.044,-30.902
27199.0,-205.72,-97.895,13.044,-29.902
27209.0,-213.72,-100.9,13.044,-29.902
27219.0,-214.72,-100.9,12.044,-29.902
27229.0,-220.72,-103.9,12.044,-29.902
27239.0,-227.72,-106.9,10.044,-30.902
27249.0,-226.72,-106.9,10.044,-30.902
27258.0,-230.72,-108.9,7.044,-29.902
27268.0,-233.72,-109.9,7.044,-29.902
27278.0,-236.72,-111.9,5.044,-31.902
27288.0,-235.72,-108.9,5.044,-31.902
27298.0,-235.72,-110.9,0.043963,-31.902
27308.0,-237.72,-110.9,0.043963,-31.902
27318.0,-239.72,-111.9,-3.956,-32.902
27328.0,-239.72,-111.9,-3.956,-32.902
27338.0,-248.72,-117.9,-7.956,-34.902
27347.0,-248.72,-117.9,-7.956,-34.902
27357.0,-257.72,-121.9,-8.956,-34.902
27367.0,-257.72,-121.9,-11.956,-35.902
27377.0,-265.72,-124.9,-11.956,-35.902
27387.0,-265.72,-124.9,-12.956,-36.902
27397.0,-277.72,-129.9,-14.956,-38.902
27407.0,-277.72,-129.9,-16.956,-37.902
27417.0,-290.72,-135.9,-19.956,-38.902
27427.0,-290.72,-135.9,-19.956,-39.902
27436.0,-299.72,-139.9,-20.956,-40.902
27446.0,-299.72,-139.9,-23.956,-40.902
27456.0,-309.72,-144.9,-27.956,-42.902
27466.0,-309.72,-144.9,-25.956,-42.902
27476.0,-320.72,-148.9,-28.956,-44.902
27486.0,-320.72,-148.9,-29.956,-43.902
27496.0,-326.72,-151.9,-31.956,-42.902
27506.0,-327.72,-153.9,-33.956,-45.902
27515.0,-333.72,-155.9,-35.956,-44.902
27525.0,-339.72,-158.9,-38.956,-44.902
27535.0,-343.72,-161.9,-39.956,-45.902
27545.0,-348.72,-164.9,-42.956,-45.902
27555.0,-353.72,-165.9,-43.956,-47.902
27565.0,-358.72,-167.9,-42.956,-47.902
27575.0,-362.72,-167.9,-46.956,-48.902
27585.0,-360.72,-166.9,-50.956,-49.902
27595.0,-353.72,-163.9,-51.956,-49.902
27604.0,-345.72,-156.9,-53.956,-52.902
27614.0,-334.72,-150.9,-54.956,-51.902
27624.0,-317.72,-139.9,-58.956,-52.902
27634.0,-298.72,-129.9,-57.956,-52.902
27644.0,-283.72,-122.9,-58.956,-53.902
27654.0,-270.72,-117.9,-63.956,-54.902
27664.0,-259.72,-112.9,-61.956,-54.902
27674.0,-247.72,-110.9,-61.956,-53.902
27684.0,-244.72,-109.9,-61.956,-53.902
27693.0,-245.72,-110.9,-62.956,-52.902
27703.0,-244.72,-112.9,-64.956,-51.902
27713.0,-247.72,-113.9,-63.956,-50.902
27723.0,-248.72,-115.9,-60.956,-49.902
27733.0,-247.72,-114.9,-59.956,-50.902
27743.0,-248.72,-116.9,-55.956,-48.902
27753.0,-247.72,-115.9,-54.956,-48.902
27763.0,-247.72,-115.9,-51.956,-48.902
27772.0,-248.72,-114.9,-46.956,-48.902
27782.0,-248.72,-115.9,-45.956,-46.902
27792.0,-249.72,-116.9,-42.956,-48.902
27802.0,-253.72,-121.9,-39.956,-45.902
27812.0,-261.72,-122.9,-37.956,-46.902
27822.0,-258.72,-121.9,-36.956,-45.902
27832.0,-259.72,-123.9,-37.956,-45.902
27842.0,-262.72,-123.9,-35.956,-45.902
27852.0,-258.72,-120.9,-33.956,-44.902
27861.0,-256.72,-119.9,-34.956,-45.902
27871.0,-256.72,-120.9,-34.956,-44.902
27881.0,-252.72,-117.9,-34.956,-43.902
27891.0,-249.72,-115.9,-36.956,-43.902
27901.0,-244.72,-113.9,-38.956,-44.902
27911.0,-247.72,-113.9,-38.956,-44.902
27921.0,-248.72,-114.9,-37.956,-43.902
27931.0,-249.72,-115.9,-38.956,-42.902
27941.0,-251.72,-117.9,-37.956,-43.902
27950.0,-254.72,-119.9,-38.956,-43.902
27960.0,-255.72,-119.9,-36.956,-43.902
27970.0,-259.72,-120.9,-36.956,-42.902
27980.0,-262.72,-122.9,-34.956,-43.902
27990.0,-265.72,-124.9,-37.956,-43.902
28000.0,-272.72,-127.9,-36.956,-43.902
28010.0,-275.72,-128.9,-34.956,-43.902
28020.0,-280.72,-131.9,-33.956,-44.902
28030.0,-284.72,-133.9,-33.956,-42.902
28039.0,-290.72,-135.9,-34.956,-43.902
28049.0,-292.72,-136.9,-34.956,-42.902
28059.0,-293.72,-138.9,-33.956,-43.902
28069.0,-296.72,-137.9,-35.956,-42.902
28079.0,-301.72,-140.9,-35.956,-42.902
28089.0,-305.72,-143.9,-35.956,-42.902
28099.0,-310.72,-144.9,-35.956,-42.902
28109.0,-315.72,-146.9,-35.956,-41.902
28118.0,-321.72,-150.9,-36.956,-42.902
28128.0,-326.72,-151.9,-37.956,-42.902
28138.0,-331.72,-153.9,-37.956,-42.902
28148.0,-336.72,-155.9,-40.956,-43.902
28158.0,-340.72,-157.9,-41.956,-41.902
28168.0,-341.72,-157.9,-39.956,-42.902
28178.0,-338.72,-154.9,-43.956,-42.902
28188.0,-333.72,-152.9,-44.956,-44.902
28198.0,-333.72,-152.9,-44.956,-44.902
28207.0,-309.72,-138.9,-43.956,-43.902
28217.0,-309.72,-138.9,-43.956,-43.902
28227.0,-279.72,-121.9,-45.956,-44.902
28237.0,-279.72,-121.9,-45.956,-44.902
28247.0,-262.72,-115.9,-46.956,-44.902
28257.0,-262.72,-115.9,-46.956,-44.902
28267.0,-252.72,-113.9,-43.956,-41.902
28277.0,-252.72,-113.9,-43.956,-41.902
28287.0,-253.72,-117.9,-40.956,-37.902
28296.0,-253.72,-117.9,-40.956,-37.902
28306.0,-257.72,-120.9,-33.956,-32.902
28316.0,-257.72,-120.9,-33.956,-32.902
28326.0,-260.72,-122.9,-26.956,-30.902
28336.0,-260.72,-122.9,-26.956,-30.902
28346.0,-264.72,-125.9,-19.956,-29.902
28356.0,-264.72,-125.9,-19.956,-29.902
28366.0,-264.72,-125.9,-13.956,-27.902
28376.0,-264.72,-125.9,-13.956,-27.902
28385.0,-264.72,-126.9,-9.956,-26.902
28395.0,-266.72,-127.9,-6.956,-26.902
28405.0,-274.72,-132.9,-1.956,-24.902
28415.0,-276.72,-132.9,1.044,-23.902
28425.0,-276.72,-133.9,1.044,-24.902
28435.0,-277.72,-133.9,3.044,-22.902
28445.0,-277.72,-131.9,6.044,-21.902
28455.0,-275.72,-130.9,7.044,-21.902
28464.0,-275.72,-131.9,8.044,-20.902
28474.0,-274.72,-131.9,7.044,-21.902
28484.0,-272.72,-128.9,8.044,-20.902
28494.0,-269.72,-125.9,6.044,-18.902
28504.0,-266.72,-123.9,6.044,-19.902
28514.0,-267.72,-125.9,5.044,-18.902
28524.0,-266.72,-125.9,6.044,-17.902
28534.0,-267.72,-125.9,6.044,-19.902
28544.0,-268.72,-125.9,5.044,-18.902
28553.0,-269.72,-126.9,5.044,-18.902
28563.0,-272.72,-128.9,6.044,-18.902
28573.0,-275.72,-130.9,6.044,-18.902
28583.0,-280.72,-132.9,7.044,-18.902
28593.0,-283.72,-133.9,8.044,-17.902
28603.0,-286.72,-135.9,11.044,-18.902
28613.0,-288.72,-136.9,11.044,-17.902
28623.0,-292.72,-138.9,11.044,-17.902
28633.0,-296.72,-139.9,12.044,-18.902
28642.0,-300.72,-142.9,12.044,-16.902
28652.0,-302.72,-143.9,11.044,-19.902
28662.0,-306.72,-144.9,10.044,-17.902
28672.0,-311.72,-146.9,10.044,-17.902
28682.0,-312.72,-148.9,9.044,-16.902
28692.0,-317.72,-148.9,9.044,-17.902
28702.0,-321.72,-150.9,8.044,-16.902
28712.0,-326.72,-153.9,6.044,-16.902
28722.0,-329.72,-155.9,6.044,-17.902
28731.0,-331.72,-156.9,5.044,-17.902
28741.0,-336.72,-157.9,2.044,-16.902
28751.0,-339.72,-158.9,5.044,-17.902
28761.0,-338.72,-156.9,2.044,-18.902
28771.0,-334.72,-154.9,1.044,-17.902
28781.0,-326.72,-148.9,1.044,-17.902
28791.0,-314.72,-143.9,1.044,-19.902
28801.0,-299.72,-132.9,4.044,-18.902
28810.0,-284.72,-123.9,1.044,-18.902
28820.0,-270.72,-115.9,1.044,-17.902
28830.0,-258.72,-111.9,0.043963,-18.902
28840.0,-248.72,-108.9,1.044,-16.902
28850.0,-241.72,-105.9,4.044,-16.902
28860.0,-238.72,-105.9,4.044,-16.902
28870.0,-236.72,-105.9,8.044,-11.902
28880.0,-237.72,-106.9,10.044,-11.902
28890.0,-237.72,-108.9,14.044,-6.9023
28899.0,-237.72,-108.9,19.044,-5.9023
28909.0,-235.72,-107.9,24.044,-4.9023
28919.0,-235.72,-107.9,30.044,-3.9023
28929.0,-235.72,-108.9,37.044,-0.90225
28939.0,-235.72,-106.9,44.044,2.0977
28949.0,-235.72,-109.9,52.044,3.0977
28959.0,-236.72,-109.9,59.044,6.0977
28969.0,-236.72,-109.9,67.044,8.0977
28979.0,-240.72,-110.9,72.044,9.0977
28988.0,-245.72,-114.9,79.044,10.098
28998.0,-250.72,-116.9,85.044,12.098
29008.0,-251.72,-117.9,91.044,14.098
29018.0,-255.72,-118.9,96.044,16.098
29028.0,-254.72,-118.9,98.044,18.098
29038.0,-251.72,-115.9,104.04,21.098
29048.0,-255.72,-118.9,109.04,22.098
29058.0,-253.72,-117.9,110.04,22.098
29068.0,-251.72,-115.9,112.04,23.098
29077.0,-251.72,-115.9,112.04,24.098
29087.0,-251.72,-115.9,111.04,22.098
29097.0,-250.72,-115.9,112.04,24.098
29107.0,-250.72,-115.9,113.04,23.098
29117.0,-253.72,-116.9,116.04,26.098
29127.0,-253.72,-116.9,116.04,25.098
29137.0,-255.72,-118.9,116.04,25.098
29147.0,-255.72,-118.9,116.04,25.098
29156.0,-264.72,-122.9,120.04,27.098
29166.0,-264.72,-122.9,119.04,25.098
29176.0,-269.72,-125.9,121.04,28.098
29186.0,-269.72,-125.9,122.04,27.098
29196.0,-275.72,-127.9,124.04,28.098
29206.0,-275.72,-127.9,125.04,28.098
29216.0,-281.72,-130.9,126.04,29.098
29226.0,-281.72,-130.9,126.04,28.098
29236.0,-283.72,-131.9,125.04,29.098
29245.0,-283.72,-131.9,124.04,29.098
29255.0,-287.72,-134.9,127.04,30.098
29265.0,-289.72,-134.9,127.04,29.098
29275.0,-292.72,-136.9,126.04,30.098
29285.0,-295.72,-138.9,126.04,30.098
29295.0,-299.72,-139.9,123.04,28.098
29305.0,-302.72,-141.9,123.04,28.098
29315.0,-308.72,-143.9,121.04,28.098
29325.0,-311.72,-145.9,121.04,28.098
29334.0,-313.72,-145.9,121.04,28.098
29344.0,-315.72,-146.9,121.04,28.098
29354.0,-313.72,-144.9,117.04,28.098
29364.0,-302.72,-138.9,117.04,28.098
29374.0,-292.72,-132.9,117.04,28.098
29384.0,-275.72,-120.9,117.04,28.098
29394.0,-255.72,-109.9,115.04,27.098
29404.0,-236.72,-99.895,115.04,27.098
29414.0,-220.72,-91.895,108.04,25.098
29423.0,-206.72,-85.895,108.04,25.098
29433.0,-193.72,-80.895,114.04,27.098
29443.0,-180.72,-75.895,114.04,27.098
29453.0,-174.72,-73.895,109.04,30.098
29463.0,-165.72,-68.895,109.04,30.098
29473.0,-156.72,-63.895,112.04,32.098
29483.0,-148.72,-60.895,112.04,32.098
29493.0,-140.72,-56.895,115.04,34.098
29502.0,-132.72,-53.895,118.04,33.098
29512.0,-122.72,-48.895,122.04,35.098
29522.0,-114.72,-44.895,127.04,37.098
29532.0,-106.72,-39.895,129.04,37.098
29542.0,-96.718,-34.895,132.04,38.098
29552.0,-87.718,-30.895,136.04,38.098
29562.0,-79.718,-26.895,139.04,39.098
29572.0,-73.718,-23.895,138.04,39.098
29582.0,-70.718,-21.895,140.04,40.098
29591.0,-65.718,-18.895,143.04,40.098
29601.0,-62.718,-16.895,145.04,40.098
29611.0,-56.718,-14.895,145.04,41.098
29621.0,-52.718,-11.895,145.04,39.098
29631.0,-44.718,-7.895,142.04,41.098
29641.0,-41.718,-5.895,141.04,39.098
29651.0,-35.718,-3.895,138.04,39.098
29661.0,-30.718,0.105,135.04,36.098
29671.0,-25.718,2.105,133.04,38.098
29680.0,-19.718,5.105,132.04,37.098
29690.0,-15.718,6.105,130.04,36.098
29700.0,-14.718,7.105,129.04,35.098
29710.0,-13.718,9.105,127.04,33.098
29720.0,-11.718,10.105,125.04,33.098
29730.0,-7.7183,11.105,125.04,32.098
29740.0,-4.7183,12.105,122.04,32.098
29750.0,-5.7183,11.105,123.04,31.098
29760.0,-6.7183,11.105,121.04,29.098
29769.0,-5.7183,11.105,122.04,31.098
29779.0,-4.7183,13.105,122.04,29.098
29789.0,-0.7183,14.105,119.04,29.098
29799.0,1.2817,16.105,118.04,29.098
29809.0,3.2817,16.105,114.04,28.098
29819.0,6.2817,18.105,112.04,26.098
29829.0,7.2817,18.105,111.04,27.098
29839.0,8.2817,18.105,111.04,25.098
29848.0,7.2817,18.105,109.04,25.098
29858.0,3.2817,18.105,108.04,26.098
29868.0,1.2817,16.105,107.04,24.098
29878.0,0.2817,15.105,105.04,24.098
29888.0,-4.7183,13.105,103.04,23.098
29898.0,-7.7183,11.105,103.04,23.098
29908.0,-12.718,10.105,98.044,20.098
29918.0,-12.718,9.105,96.044,20.098
29928.0,-13.718,8.105,94.044,19.098
29937.0,-13.718,8.105,93.044,19.098
29947.0,-4.7183,14.105,88.044,17.098
29957.0,-4.7183,14.105,88.044,18.098
29967.0,21.282,31.105,86.044,16.098
29977.0,21.282,31.105,85.044,17.098
29987.0,58.282,51.105,84.044,15.098
29997.0,58.282,51.105,84.044,16.098
