time,ecg,ppg
0.0,0.3312410687284472,0.46526349871785283
0.00390625,-0.5982387960566303,1.5768401237375518
0.0078125,-1.0462366399056315,-0.31509910296476434
0.01171875,-1.576019641147317,-0.07581974573307615
0.015625,1.8319330734847756,-0.3832380360894903
0.01953125,-0.3277423427608598,1.0212064307427473
0.0234375,-0.3760222369295803,-1.5452338661381801
0.02734375,-0.812573955658347,-0.1579227853751935
0.03125,-0.7910425837250169,-0.8511964579156501
0.03515625,1.6927606027391031,1.2589197077524568
0.0390625,0.18764089824258326,0.7513241903731064
0.04296875,0.1384458785093026,1.9204364419252744
0.046875,-0.781116047042648,1.5456377855722334
0.05078125,-1.060474662410973,-1.1260942943323469
0.0546875,-1.3499302270133677,-0.5670189333135511
0.05859375,1.2292178553284114,-0.31351443772322196
0.0625,0.5750192858853957,-0.019630520575972643
0.06640625,-0.6517171377598551,-0.789682629489606
0.0703125,-0.05717556154569873,1.0430606427602933
0.07421875,-1.150465499027362,-0.20933547864396332
0.078125,-0.42250314714882226,-0.6824348061545575
0.08203125,1.6619168070142372,-0.8603985002145745
0.0859375,0.017571880634516965,0.509470522698113
0.08984375,-0.15716947925682548,0.4481638545300525
0.09375,-1.075296223725094,1.1581576496964645
0.09765625,0.6346267728155766,0.6347798307246292
0.1015625,0.055720556647698316,-0.7537675345805591
0.10546875,-0.045172483593477704,0.5763839164064147
0.109375,-0.7815519668560916,1.6532851139051044
0.11328125,1.3230595155218523,1.0534322508233849
0.1171875,1.2683699585967818,0.553479902828508
0.12109375,0.6249604815840658,-0.17242191746599939
0.125,-0.7902271515855318,1.017558090762303
0.12890625,1.0076155918348453,-0.9781624725981536
0.1328125,1.5022700679786547,-1.1100287902035302
0.13671875,-0.30634235135671367,-0.5724220940148477
0.140625,-0.6579843318781488,1.027435227139703
0.14453125,0.13619401077960286,-0.7069611070149594
0.1484375,-1.5110047588817148,0.15578786153633886
0.15234375,1.132148031810014,-0.3599006838140184
0.15625,0.23849733151058364,-0.4018812552370131
0.16015625,-0.6123420987462062,0.845129794650857
0.1640625,-1.0861445890048005,-0.12161396935419959
0.16796875,-0.9535382427832402,0.9700520563993279
0.171875,-0.26530848954798203,-0.6285008363275407
0.17578125,0.9169275994340177,-0.39332776133057895
0.1796875,1.4195815895967574,0.4195234357320319
0.18359375,-2.8045181824573238,-1.3267218643366305
0.1875,-1.034182970120806,1.4970823754618772
0.19140625,1.1792074730040778,-0.42555993117058644
0.1953125,0.10602297757380036,-0.5191309361256146
0.19921875,-0.3636817101524843,0.9344234219683989
0.203125,-0.807751726462202,1.2043411772778623
0.20703125,-0.04390170004669387,-1.245930397645052
0.2109375,-0.10279981083128742,-0.227162870874976
0.21484375,-0.533031698662597,0.4591252643215441
0.21875,0.6467002278810589,-0.20805144247278656
0.22265625,-0.7776352240349647,0.1085525049853057
0.2265625,0.8014643508721573,-1.1443698688175639
0.23046875,2.7598852296301173,-0.39883929459935213
0.234375,1.3504268967015476,-0.18168503593805335
0.23828125,-0.811575731397314,0.08979490274707877
0.2421875,-1.16894553657712,0.3562645244630122
0.24609375,0.154319136279975,-0.7132551216557648
0.25,-1.2149867473191984,-0.28794956646914627
0.25390625,-0.4320864472409379,0.45869508229857914
0.2578125,0.6247617535022454,0.9113319689543422
0.26171875,0.10200577472497288,1.123415940943381
0.265625,2.2635623587377776,0.8264285143627058
0.26953125,0.9419790972105987,0.01639807645469599
0.2734375,-0.0731465126139785,-0.35630164102465645
0.27734375,0.21154531661334236,-0.3392501714442873
0.28125,0.5257662362136726,-0.0035333631751376807
0.28515625,1.9307329772222899,0.12142229834032943
0.2890625,1.6888769798442949,0.5980633559463583
0.29296875,-1.060551147334691,-0.5777600018301782
0.296875,-1.1553853814612036,0.89686436015095
0.30078125,-1.490157620496888,-0.55769458663707
0.3046875,-1.6489020371486782,1.5021995252340787
0.30859375,-1.3848751981671852,0.7943171576035156
0.3125,-0.9675083490205264,0.6759151464890831
0.31640625,0.7152922444382351,0.8213296825172558
0.3203125,0.701051833078911,0.43634185861320546
0.32421875,0.15000285925849885,0.8832382470987237
0.328125,0.6622482594768716,-1.981090906612851
0.33203125,-0.19863424452552447,-0.9173620915785349
0.3359375,0.5649384657970599,-0.0668518997124298
0.33984375,0.5039428346222219,-1.1555257384219766
0.34375,-0.13770522887484124,0.7438396150650011
0.34765625,-0.30431424733552154,-1.2140673661681822
0.3515625,0.28586447427896305,-0.4486814691952992
0.35546875,-0.7941074353727304,0.21980271235710497
0.359375,-0.43471394552714404,0.5041817044545743
0.36328125,1.4628276906348692,-0.5631213514045093
0.3671875,0.8402899864390616,-1.3359381782635302
0.37109375,1.2068083871931115,-1.016715465323382
0.375,0.5843062204414284,1.3864183645854107
0.37890625,-0.7757962749902516,-0.5762555006170834
0.3828125,2.5922160312843703,1.541459754349412
0.38671875,-0.8504297860585046,0.6609193673249381
0.390625,1.274022924687391,0.6946787246622134
0.39453125,-0.7045316996195764,-0.47011446217926045
0.3984375,0.5473519105666019,2.3005428818604208
0.40234375,1.0092906073654346,0.04552483698340191
0.40625,-0.7896900292902945,-1.8393453579171113
0.41015625,-0.37058603996029943,-0.5699542262333234
0.4140625,0.6951806948702195,0.4594108267576724
0.41796875,0.7599680476135859,-0.7382584999437951
0.421875,-0.7954397514076085,-0.9578746191521835
0.42578125,1.1407188463394702,-1.7489030173722317
0.4296875,-0.7965187365296736,-0.19392052541622962
0.43359375,-0.8298113190578641,1.1841170760374577
0.4375,-1.3515928654621903,-0.35398015943660566
0.44140625,-1.8355444330020996,0.9254767667112401
0.4453125,-0.17731277145556967,0.8627494061627505
0.44921875,2.6167310859509323,-0.9624855201914578
0.453125,0.9633104707716086,2.1243638243886105
0.45703125,-2.1126350022284472,-0.2571279714832544
0.4609375,-0.38571192748484495,-0.3045852332536612
0.46484375,-1.1190535935720443,-1.1167239085317133
0.46875,-0.3274054173788132,2.5050441913745605
0.47265625,0.06520428710159404,0.6288100850801146
0.4765625,-1.0913939616080721,-0.39428791992582174
0.48046875,-2.0230726601929985,1.4819750447585596
0.484375,-0.1070785740304631,-0.20974188819622983
0.48828125,-1.139967789163688,-0.46296146901538876
0.4921875,-0.4451035985561479,-0.45061295628769427
0.49609375,1.7267828782487586,0.014087485519447834
0.5,0.23458689600577615,-1.0124985421894894
0.50390625,0.24859827815859345,0.9675494435279465
0.5078125,0.5129561460178876,0.3079398804573567
0.51171875,-1.3026402224845424,1.2043457567094764
0.515625,1.1498511439043113,0.4935082826285782
0.51953125,0.8485319965510789,-0.467039683749708
0.5234375,-1.5089077332084222,0.6814508010300058
0.52734375,-0.06642219151307258,-0.10001838209825756
0.53125,-1.4766597506316201,0.2284367526093455
0.53515625,0.20145455489011224,0.27417722566960506
0.5390625,0.8845741737813627,0.8466773608325915
0.54296875,-0.49619580963887555,1.6161585023338871
0.546875,-0.1776173638510831,0.4333286071170398
0.55078125,-0.3639622652768227,-0.1995530997276753
0.5546875,-0.8271970044029759,-1.5379550414518484
0.55859375,1.3250252091652615,-1.5293263569900524
0.5625,-1.8540579845491396,-1.5373445743451968
0.56640625,0.8704562956610971,0.4165962275511856
0.5703125,0.3584405538507317,0.536335362120833
0.57421875,0.9103485653317155,0.4826560777243009
0.578125,0.19209992207630186,0.015420470898755936
0.58203125,0.35180891323263885,-0.013799212902167799
0.5859375,0.3731097196446279,0.5270348514866403
0.58984375,1.212254042526607,0.9629483432271373
0.59375,1.939314139695193,0.009726607285864823
0.59765625,-0.476851342104084,-0.22157281157803252
0.6015625,-0.45563635963912713,0.9434962453561818
0.60546875,-0.2776208284572662,-0.12244091433475966
0.609375,-0.8294009454502594,1.185711394931801
0.61328125,0.19882820231567405,-0.44558593132498264
0.6171875,-1.7624458677435042,-1.2521534547596644
0.62109375,-1.484311306144508,-1.0309660075067315
0.625,0.6967042416606044,0.1071456368311199
0.62890625,-1.0623875823778808,-0.9596682623507535
0.6328125,-0.612810358785772,-1.2259252626474282
0.63671875,-1.1129971232458238,1.6929375463635299
0.640625,-0.0417397660943046,0.8546725556387261
0.64453125,1.452587424337501,0.6360660528834902
0.6484375,-1.179222792491259,-0.3902815328748632
0.65234375,0.5489623849619152,1.7091762388123928
0.65625,-0.9692250346876599,-1.1551573970163875
0.66015625,-0.8761642375943202,-0.03448823260572087
0.6640625,0.9408877328898103,-0.09538669311747257
0.66796875,-1.3683010205491473,-1.4199747847883377
0.671875,-1.4174933652010664,-0.686922852061792
0.67578125,0.8084710637010669,-1.4317040323760108
0.6796875,0.13487041070469538,1.7458286676288364
0.68359375,1.250639971350448,-1.4316329536552355
0.6875,-0.9864975794651182,1.2624184547174346
0.69140625,-0.8309790495309946,0.20807442953989802
0.6953125,-0.5805316251659722,-1.942402583437313
0.69921875,-1.2463155006640656,0.5025242574044936
0.703125,0.5537066553207829,-1.6923412628209
0.70703125,1.2906548012254095,-1.6304797804201523
0.7109375,-0.9812565363259749,-2.681316144006489
0.71484375,0.6545705135948817,1.6353007154656893
0.71875,0.9877124065747847,-1.5008165240601645
0.72265625,-1.3545432566292297,0.5789427322259773
0.7265625,-1.078366002466566,-0.5549700487657607
0.73046875,1.2516674541499477,-0.40823328961052896
0.734375,-0.443418421526539,-0.5286842532335129
0.73828125,-0.9089309529936831,-0.5192416434934706
0.7421875,0.35688637897456743,-2.4572068259778175
0.74609375,-0.26244669637855583,-1.6825901212195513
0.75,1.5208678671238092,1.6128143334345735
0.75390625,-0.2710459539690854,0.5189428532992141
0.7578125,0.22186550303475003,-0.7771728796284131
0.76171875,-0.14092722031060956,0.21768486659350594
0.765625,0.14656314744062704,0.10270229779580482
0.76953125,1.2156424943513664,-1.1471434727554295
0.7734375,-0.5364891274448997,-0.585576700554949
0.77734375,-0.18827112943321406,-0.9713076207858212
0.78125,-0.5285684105572962,-0.14392946297714204
0.78515625,-1.3391331094746277,1.9636005429071046
0.7890625,0.7373292932743527,0.4103677585359393
0.79296875,-0.048638289341490684,-0.3518309666196883
0.796875,-1.1002229721767742,0.4434974368528603
0.80078125,0.3707230437648485,-0.4736718211816471
0.8046875,-0.3684788144140311,-0.3768415628717581
0.80859375,2.060453740553381,1.7623520291008206
0.8125,-1.0771426361323073,0.43955502695161563
0.81640625,-1.7500753521293493,-1.5491081042007109
0.8203125,-1.2579201019990576,-0.22357761352517214
0.82421875,-1.6358680362046596,-0.40473716348026106
0.828125,-0.711071318032517,-0.7336703381730515
0.83203125,-1.1164351847938843,0.002742412368049125
0.8359375,1.5684917194241077,-0.8006440182878576
0.83984375,-1.6058315066306275,-0.6306826372199015
0.84375,1.7765242457433437,-0.3870225350002783
0.84765625,-2.447935896412178,0.7095905593590592
0.8515625,1.5670041989152712,0.14844217743991334
0.85546875,2.231572399617388,-2.1036116679245156
0.859375,-0.9126697480520215,-0.4728374511345835
0.86328125,-0.271912163177439,0.9004789734093135
0.8671875,0.008036201364780875,-0.017936276251023335
0.87109375,-0.8510289167555732,0.6268637465131085
0.875,0.004534133333238972,-0.5590184595839838
0.87890625,-0.9522174199309706,0.9129666690032308
0.8828125,-1.4372868134681767,-0.8989193399564684
0.88671875,0.692959258479917,0.5524794005643208
0.890625,-0.04817330057040115,0.7375851871776554
0.89453125,-0.9911364073455226,0.5021404403529585
0.8984375,-0.14830088252878496,0.3097243454740225
0.90234375,-1.880391078283673,1.8025776062967565
0.90625,0.1928202357600805,-1.7304700923345764
0.91015625,1.712835107815422,-0.7117670124601362
0.9140625,1.9406740799330042,1.479725707277343
0.91796875,-0.8850312431209164,-1.6613073604135453
0.921875,-0.7315601284436494,1.971790489542049
0.92578125,1.2011788958100853,1.6633188413397877
0.9296875,-1.8216276567471157,-0.8435144387685226
0.93359375,-0.4212710706434017,0.7429450026848811
0.9375,1.2396804551040495,0.3555207761891447
0.94140625,-1.6131057388018746,0.46348624115423337
0.9453125,0.36234048056336543,-0.8303258826371177
0.94921875,-2.2772365472872687,-0.675545773147241
0.953125,0.7254868744283324,1.0155997909365737
0.95703125,-0.08971388776638069,0.18289361747057303
0.9609375,0.5232194031441593,0.9798952492796615
0.96484375,1.1128000139551064,0.1177226838126491
0.96875,-0.5216120072095328,0.43115129725820023
0.97265625,-0.7292865654200414,0.5319429129785117
0.9765625,2.428335345813443,1.0166181020276444
0.98046875,-0.11897246633182212,0.1964478335698074
0.984375,1.1739065645898195,-0.9129579766918794
0.98828125,-2.35720569969014,-0.48003606977073127
0.9921875,1.5942146099699712,0.4020626511487272
0.99609375,1.1280422620356352,1.7984009811602548
1.0,1.474503246791427,0.6662368146953453
1.00390625,0.2987873367300735,-1.143519119788417
1.0078125,-1.1277753179640164,-1.2984672365601717
1.01171875,-1.585113323252124,-1.0749552850053101
1.015625,-0.7774186279983473,1.0632959096842638
1.01953125,-0.9937360524797102,2.1371944116697064
1.0234375,-1.2581820335836362,-0.32211352681713495
1.02734375,-1.9491748951490324,-0.16508757384234474
1.03125,0.746752961079268,-0.339653402321121
1.03515625,-0.07227230359125318,-0.441876090808862
1.0390625,1.9170847919695098,-1.259811874859226
1.04296875,0.7881488931580239,0.6400444866554513
1.046875,0.48746287841172165,-1.570095885165817
1.05078125,-2.0545178331039162,1.2153313340453247
1.0546875,-1.4378632596536345,2.1355645359983315
1.05859375,0.05650287722211313,-1.4034929136092056
1.0625,0.9746855894378667,-1.6088230566712756
1.06640625,-0.0746033293788783,1.1010904733169964
1.0703125,0.514399810134778,0.07623531392732358
1.07421875,-0.03578489669826296,-2.3423829346128877
1.078125,0.6861255638903407,-1.5343634261500485
1.08203125,1.2946443623040986,-1.36519445022598
1.0859375,1.741941953861141,0.8012139822671579
1.08984375,0.06935332943869098,0.6820902187891202
1.09375,0.15546120299254104,1.1700128149525195
1.09765625,-0.23227234600739363,0.21390177286408654
1.1015625,-0.49218357251036904,0.19324074629995122
1.10546875,-0.004891332735797848,-0.0978509150556472
1.109375,-1.703642512610034,0.062183314906495125
1.11328125,-1.5835003246424086,0.6486956836556277
1.1171875,-0.4913511486210425,-1.7099766468539876
1.12109375,-0.9757922322319719,0.3003116388242382
1.125,0.5887176390056448,1.043312060476907
1.12890625,-1.7028130478382761,-0.4298621001198304
1.1328125,-0.5927998157112452,-2.024230364522259
1.13671875,-0.2306579226236587,-0.6218333783133714
1.140625,0.05438779647987721,0.49598260129439975
1.14453125,0.8413572790733735,1.3268451396637773
1.1484375,0.584131202098649,3.8535690754598737
1.15234375,0.14862433431684613,-0.24884951268018848
1.15625,-1.4813855689135944,1.1311038353377045
1.16015625,-0.23239595718138537,-0.1626222229615575
1.1640625,-0.8019660971496746,0.4953957505090975
1.16796875,0.13111773079038724,1.2677568440027644
1.171875,-0.9362306466643251,-1.1243726260220468
1.17578125,-0.3954847444540689,0.35677570506128864
1.1796875,0.11329506251794358,1.0831626639714536
1.18359375,1.5133761847510496,0.03943688288902459
1.1875,0.022772698456659503,0.3053407287199103
1.19140625,2.2135886911086624,-1.2646219564640067
1.1953125,2.199922386436715,-0.7011319590371379
1.19921875,-1.3948753525526665,-0.18977034815526833
1.203125,-0.12500928055423785,0.25542704768347313
1.20703125,-0.09815512094559552,-0.777811239908861
1.2109375,0.7095945199408976,0.9652901295730069
1.21484375,-0.2307908252569001,-0.9844406556503502
1.21875,0.8563081994700467,-0.8214391323171867
1.22265625,-0.5928567240008487,0.03107291598778516
1.2265625,-1.9041965079529795,-0.09852382623434185
1.23046875,1.6814379881990353,-1.3084253295227173
1.234375,2.162266112543109,1.5242590367598876
1.23828125,0.48488156942471367,-2.0969050126426145
1.2421875,-1.3698464800143315,-0.7324810202573876
1.24609375,-0.6097654195230456,0.17504469018466112
1.25,0.9855444687528488,-1.0147068250956346
1.25390625,-1.2576423586369534,0.011001050668733066
1.2578125,0.3944999526350778,-1.4428544036358752
1.26171875,0.120968502754449,-0.2360420075185361
1.265625,-1.3741963838135653,2.0473650058878214
1.26953125,2.03059302360314,-2.4233796767423326
1.2734375,-2.034793063594715,0.2072515585373771
1.27734375,0.24395837289706024,-1.1068435076752026
1.28125,0.8828997687237657,-0.13712052312869896
1.28515625,-0.28574303936773937,-0.9357505589258591
1.2890625,-0.8720934901519918,1.4260257054022505
1.29296875,0.4624202101089569,0.25902874021972677
1.296875,1.5552976694841734,0.07058381871009718
1.30078125,2.557209391496883,-0.18883889196269502
1.3046875,-0.33117984052486876,0.49460311272007007
1.30859375,0.19298942359656093,2.0211173849123356
1.3125,-0.004760198115430374,0.7851641333336118
1.31640625,1.3988978091161284,1.0528486703749824
1.3203125,0.008153975451031414,0.14640960416388993
1.32421875,0.22861404060732216,-0.6519111124162138
1.328125,2.2708233885274036,2.026624081622933
1.33203125,0.5490694034309468,0.3679587115912538
1.3359375,0.04690056390256745,0.861835657488062
1.33984375,-0.4756257777690118,0.7147802704351293
1.34375,1.8328698171029292,2.7328737611909864
1.34765625,0.49658046775558734,-1.8926470253685466
1.3515625,-1.07385555393439,-0.36622548892257134
1.35546875,2.6816790430464605,-1.3351609847827635
1.359375,-0.41636053915702304,1.559426542502241
1.36328125,0.06052998679258832,0.4477965880049887
1.3671875,-1.9336848667731754,-0.2247094776733788
1.37109375,-0.20257837839952386,0.7360088345965767
1.375,1.4759820094854676,0.3131212948920036
1.37890625,-0.6459160427371737,-0.12697617278562703
1.3828125,-0.5188185450117366,-0.7396779957484946
1.38671875,0.1911533791791236,-0.3153478974984295
1.390625,0.35043860691269246,1.978514905657286
1.39453125,-1.1331263663459046,0.4155513454804106
1.3984375,0.5485901594629212,0.6164993842447839
1.40234375,0.1824118297060678,-0.060507355665588715
1.40625,-0.6451878402467072,-1.4367505748987384
1.41015625,0.14750709008064375,0.5896726508820795
1.4140625,0.7065788841539359,-0.3128388844950695
1.41796875,-1.3708080664498399,-0.6990863505468005
1.421875,-0.7196631537723522,-0.047943833091060824
1.42578125,-0.36766942098459143,-0.6748698722820543
1.4296875,-0.7245191486815431,0.3600823619646611
1.43359375,-1.89157033544226,-1.9656201698514661
1.4375,0.7048879607748861,-1.5641161437731466
1.44140625,-2.0965405021527337,0.005215493176539864
1.4453125,-1.418884527061067,-1.17460188043428
1.44921875,1.9255884635433373,0.5273459149400945
1.453125,-0.17631940484923214,1.4784047698008262
1.45703125,1.5245004406994436,1.961177470308944
1.4609375,0.7893727673941248,-0.22323578264145663
1.46484375,-0.8790521881543689,0.421449841586401
1.46875,-0.27795529864951923,1.2531431379990898
1.47265625,-0.1257189792339492,0.6745515976047701
1.4765625,-2.7523127003143193,-1.6380064795181581
1.48046875,1.9639334811650604,0.1414938470660935
1.484375,0.5962046136393322,-0.6630043418514485
1.48828125,-0.15171737128682292,-1.6499203063107564
1.4921875,-1.2835798313871827,0.7966688656621471
1.49609375,0.6936825316087666,-0.44292274794006103
1.5,-0.16942802632485443,0.9805913994991715
1.50390625,0.7295994917726951,0.13043663136682399
1.5078125,0.5067718681224721,-0.15103738341997155
1.51171875,0.1434478303892926,-0.24554665216545637
1.515625,0.06068029462052665,1.1696036469382918
1.51953125,-0.3868215213063612,0.049888730932971526
1.5234375,-0.24458364046273465,1.159548893657057
1.52734375,-0.609139544136844,0.7350317100779339
1.53125,0.7176500715875659,0.7630851045911755
1.53515625,-0.8863233266865707,-0.09025891307048263
1.5390625,-1.0564185821968155,0.7402506633288337
1.54296875,-0.716897744682009,0.6724552555124347
1.546875,-1.6915165180000429,0.20413952478755135
1.55078125,-1.2763325721235477,0.29841564725748015
1.5546875,-0.716923278295212,-1.0852849212429911
1.55859375,1.1948276927114412,-1.028542753086994
1.5625,-0.025105554561665386,-0.23432585567771616
1.56640625,-1.3276011643571848,-0.17463209086247108
1.5703125,0.14076875960066107,1.158669481682217
1.57421875,1.5244730680044327,-0.2698133952723197
1.578125,-0.295479668314303,1.324273230118361
1.58203125,0.6330257925320706,-2.0934367450702682
1.5859375,1.3286751813037587,0.528667342141545
1.58984375,2.114353976117476,-0.9645432377550467
1.59375,-0.06027315508667628,0.4146108082573321
1.59765625,1.1587950384783792,-0.9860447512173517
1.6015625,1.2612745280824695,0.3500956720670332
1.60546875,2.4233109288286,1.661011539335808
1.609375,0.037894730016431635,-0.5505161509127959
1.61328125,-1.1590420495621911,1.1984430733440254
1.6171875,-0.579893985450132,0.38561834537330103
1.62109375,-0.7780404846640585,-0.930826487054471
1.625,-0.4876855352043288,1.528861049485826
1.62890625,-0.13823566106241478,0.24747917184662685
1.6328125,0.1460558681061385,-1.4460105436390007
1.63671875,0.7311211235297189,-0.8283900206252406
1.640625,1.6702664902619595,1.3224224532885678
1.64453125,1.0267232973096687,0.5575299058100928
1.6484375,-0.23341902635937828,1.91861197156298
1.65234375,-1.0588523016376425,-0.20035115788788133
1.65625,0.13953426415998718,-0.4468373145711036
1.66015625,1.7545807480969138,-1.4588464867964115
1.6640625,1.280684011829348,0.33364744085895487
1.66796875,-1.8092607929210076,0.21682657231383826
1.671875,1.017170115297477,2.7347135801933606
1.67578125,-0.11002723053625997,0.7206184716432191
1.6796875,0.19854760680371017,-1.2247899228222507
1.68359375,1.1344925396184218,-1.6827469997257234
1.6875,0.30919716120794205,-1.0053611192408187
1.69140625,-0.7356335638512307,0.2352997063393105
1.6953125,0.09607226627222855,0.33154371153548384
1.69921875,0.1967150136720268,0.5281226796568345
1.703125,-0.40835822063769356,-0.4082543214682817
1.70703125,-1.815011574091327,1.6680851010167628
1.7109375,-0.321554010886149,-0.5354126834951681
1.71484375,0.5875876758180678,0.15911568537125848
1.71875,1.7236820682518414,0.7445133216369262
1.72265625,1.087208637197496,-0.28081544079202814
1.7265625,-0.6110186298492642,-1.162263455542856
1.73046875,-0.046316952920405205,1.2514361336521258
1.734375,-0.6083706298976974,0.5700300973081528
1.73828125,0.19159342041919697,-0.9572594626990867
1.7421875,1.0452593837384374,2.542689910827071
1.74609375,0.29417710953560466,0.03821538852326886
1.75,-0.8022892692326227,0.7264793339119808
1.75390625,0.6432351217757323,-1.0360128433683218
1.7578125,-0.7493528802135986,-0.7956035923959163
1.76171875,-1.1713968081632549,-1.0206023265171613
1.765625,-0.6258554242429464,-1.4051086616392432
1.76953125,-1.5319158986874917,-0.2616749535882002
1.7734375,-0.27977330620014734,-0.5075386369975946
1.77734375,0.8760663133952015,0.12348419777422764
1.78125,-1.2292829225873467,0.29447093472976144
1.78515625,0.2632859471840378,0.26951605207117746
1.7890625,0.7952256665586577,-0.8795290641505219
1.79296875,-1.7173543227857613,-1.4155653118270732
1.796875,1.0226360882994694,-0.338272303621179
1.80078125,-2.202539353505543,-1.7912922468892483
1.8046875,1.714338241397497,-1.203665751192919
1.80859375,0.5377934869112638,1.1968559514408996
1.8125,-1.180455196462249,-0.1565413618460653
1.81640625,0.18321351414090034,-0.05384239469786287
1.8203125,1.118739653338287,-0.2943024709744415
1.82421875,0.7683856852447768,-1.1918023801780555
1.828125,0.723722712442737,-2.8379150686161885
1.83203125,0.14759643206671327,-0.09805380963936561
1.8359375,0.9192393386585873,-1.5513479180931304
1.83984375,-1.27530184614161,-0.8502544804376775
1.84375,0.8923133687287604,0.32139526447227473
1.84765625,-0.759621854689836,-0.8412339695365519
1.8515625,0.4523469856319874,0.7052414027410877
1.85546875,-2.8816343017676673,-0.06261400884994058
1.859375,-1.1215712449347248,-0.21387503381109002
1.86328125,0.07251070973057497,-1.7626325762244097
1.8671875,-0.7523007268544383,-1.3521130932198686
1.87109375,2.1081999113669383,-0.1468814030543171
1.875,-0.8063134702217973,0.6701189219044823
1.87890625,0.262760654762816,0.7410685196836715
1.8828125,2.1924543009966646,-0.40618098921043577
1.88671875,0.9725952202778794,-0.6777869159952127
1.890625,-0.7263268723793566,-0.09595308235831485
1.89453125,-2.5884208242189666,1.2970766258825766
1.8984375,0.1982626891098696,-1.165992787178456
1.90234375,-0.8877573828166504,2.213739640711907
1.90625,0.36384857137151067,0.40898214515067577
1.91015625,-0.011613196772142216,-0.8160515586413389
1.9140625,0.9251720178163927,0.20423101419556527
1.91796875,-0.04946231704821769,-0.029981104441277287
1.921875,0.3338135265090199,-0.2632046653825449
1.92578125,0.38286062450785924,-0.22499606382713078
1.9296875,0.12518816667644597,0.3676231977793703
1.93359375,0.18498167623442457,0.4036181950876398
1.9375,-0.36294160997300884,0.915284524514938
1.94140625,-0.06911420363142214,1.3756722731736024
1.9453125,-1.411404074693433,0.4880591609189707
1.94921875,0.5568597430004361,0.6445298566336986
1.953125,0.38162863986421663,0.06083096127867058
1.95703125,-0.9317005595500468,-2.6528719909022644
1.9609375,0.16237562631601976,-0.9261470563594402
1.96484375,-0.46685483125277655,-1.0987614970207469
1.96875,-0.3360749090022015,0.8915434537685367
1.97265625,1.5136902995027972,0.39320144371349675
1.9765625,1.3051111406584943,-0.6638224957014204
1.98046875,0.20356231625351395,0.6596555534373126
1.984375,-1.6352869179908314,-0.09720576275028131
1.98828125,-0.7152278391514874,-0.14489751200602963
1.9921875,0.29327958021079303,0.5173645000663112
1.99609375,0.09124452509498432,-0.08675884823745436
2.0,0.8775120471702721,-0.5602111515368072
2.00390625,2.662502350451647,-0.7273837188928232
2.0078125,0.5129993024985565,-1.975822641046664
2.01171875,-0.5144804262566475,0.7595014033583034
2.015625,0.8777684893803297,0.6931580502908522
2.01953125,0.7046049327034442,-0.6903167932138227
2.0234375,0.7652096189016532,-1.1946622708251704
2.02734375,0.12008247766545833,-1.8808957858074913
2.03125,-1.2841675935534598,0.6592190098293772
2.03515625,-0.3764010334557996,0.7548075635456041
2.0390625,-0.34538846546629703,1.2496873181030168
2.04296875,0.5426226531099713,-1.8112534207247561
2.046875,-0.1668391930304698,-0.3807983377616184
2.05078125,1.608694432969954,0.18304803225604735
2.0546875,-2.218081664128183,1.3083175676626624
2.05859375,1.2541825825029094,0.14736753200069638
2.0625,1.6156442406650255,1.0733609476704868
2.06640625,-1.1707702308621493,-0.44441323130233534
2.0703125,0.9932760783776383,-0.8167587131890787
2.07421875,1.073201285405929,-0.5513687629714227
2.078125,-1.5077102032231215,-0.6742469758335854
2.08203125,-0.12225196471839042,-1.3008399935200696
2.0859375,1.2002551959189336,1.2426462412745192
2.08984375,-0.9282254754495202,-0.43883895548960195
2.09375,-0.5027977778757876,1.5106427472932218
2.09765625,-1.183463333091596,0.7751823737770831
2.1015625,0.3756444264831904,-1.0450000397918104
2.10546875,0.6237270161097793,0.18292811180426008
2.109375,-0.40284278487635955,-0.7541998264243444
2.11328125,-0.3113955458326854,0.5313573156825467
2.1171875,0.7522470657277274,1.0328915057918688
2.12109375,0.9071780702506592,0.44226445779225015
2.125,1.5487338203933838,1.0764721440576441
2.12890625,-0.7293672792259397,-0.9379231434651627
2.1328125,0.29912786635363897,-0.36017320416784676
2.13671875,0.6437422119763735,2.350730791619101
2.140625,0.7427589602139476,0.3609510125191392
2.14453125,-0.7374867360639916,-0.49382574548549757
2.1484375,0.07237516275692961,0.44542130436595656
2.15234375,0.7193156482765869,-1.647348675287562
2.15625,1.202365399888722,1.54246581812088
2.16015625,-0.8533597217309934,-1.7188025810378402
2.1640625,1.1397403348336421,-1.0859454702941707
2.16796875,0.27934150147352615,-0.06566704992647984
2.171875,0.7856970864944025,0.6103941417094843
2.17578125,0.41558020207555485,1.6092455376088994
2.1796875,1.4000153027540216,0.08010604441754152
2.18359375,0.41299455390560713,-0.4780642944417425
2.1875,-1.954252848244665,1.269651129918312
2.19140625,0.3136274683445757,0.1165700104732376
2.1953125,-1.69090694133807,-1.7991624981455714
2.19921875,0.6325423560844637,-0.34643812941207125
2.203125,1.4110794088419454,-0.34859541514575165
2.20703125,1.23380906235141,-0.311167884969363
2.2109375,-0.605669124634595,0.7491846829486684
2.21484375,-0.9446866318742164,-1.1147735508649494
2.21875,0.1775138393551138,-0.5642755785166871
2.22265625,0.7449503674017169,-0.44051559972762533
2.2265625,0.7622984683369668,0.16480421867289233
2.23046875,-1.0549587896667962,0.9769525975202689
2.234375,-0.10315779139423446,0.5812735633540629
2.23828125,-0.7244667172186977,0.09361931542206242
2.2421875,2.685845168152025,-0.20807145651922965
2.24609375,-1.4015629792463018,-1.0908024322275365
2.25,0.33190001185159085,1.401474864786185
2.25390625,1.1145272845340164,0.19367295384735925
2.2578125,0.30728510881205273,-0.5870230478272861
2.26171875,-0.6492624649356576,0.5826412378299166
2.265625,1.9809676491880037,-1.8323477748972057
2.26953125,0.6219301760445012,0.6309377991322498
2.2734375,-2.10096175404818,-0.994769790075412
2.27734375,-0.008904255038882609,-1.6023551371716118
2.28125,-1.7310859280387991,0.7294830844807425
2.28515625,0.9643089612752016,0.45478378800394814
2.2890625,-1.9230557990579342,-0.1647233591920948
2.29296875,0.6547026667205431,0.8587237152999265
2.296875,1.2857491467247881,-0.1495739634167289
2.30078125,0.5513613376666007,-1.495003487540752
2.3046875,0.00176176026951298,-0.6413785114787486
2.30859375,0.905630499609809,-1.0956104415184533
2.3125,0.33513079570232884,1.1370667231696188
2.31640625,-0.034627364623522124,0.018873442701374768
2.3203125,0.9369334527172944,0.8624946278094002
2.32421875,0.9583931467479236,-0.9588290022576579
2.328125,-0.6601223171094778,0.10104166662742409
2.33203125,-0.2456205051730662,0.0017199959704672079
2.3359375,0.2357339302394451,0.8473423301835716
2.33984375,0.03477697211389266,1.1138777522915113
2.34375,0.20340649345850093,0.41223702053582106
2.34765625,1.892368130711861,0.0967492795083578
2.3515625,-0.019912256168233815,-1.7215165615459138
2.35546875,1.0065102768911838,-0.13838748333478038
2.359375,-1.8116145566732265,-0.5388856354540502
2.36328125,-0.26401364785833314,1.5489149979430534
2.3671875,-0.6796153760903866,-0.9238448900764105
2.37109375,-1.6038010005491308,-0.015485354966833464
2.375,-0.1838809397275115,1.0829728648170065
2.37890625,0.7982222714671924,0.2236888655171146
2.3828125,-0.6335963245303775,0.4810130879326422
2.38671875,0.10604468373464035,-0.24445850842244018
2.390625,-0.3494665608244941,-0.9156153997813802
2.39453125,-0.5490115967602535,1.0876877722997762
2.3984375,0.11462195113095028,1.6011211863562116
2.40234375,-0.7964509415624345,2.086283395275307
2.40625,0.29093208331328047,-1.3749152091089165
2.41015625,0.6573631366770661,0.3248227601322788
2.4140625,1.0719306609682235,-0.3741826407320514
2.41796875,0.22451679313778503,0.17783977495031703
2.421875,-0.5573040603597367,-0.8896214184153658
2.42578125,-0.40214524350066616,1.272890224165984
2.4296875,0.6367777604754857,0.5156295345745547
2.43359375,0.293060337490213,0.5033937330753993
2.4375,-2.174786029612136,0.7817740593980331
2.44140625,1.4941162692423267,-0.14004497878816233
2.4453125,1.3088890392275585,-0.8891323019751026
2.44921875,-1.223497545705317,-0.3156933043538173
2.453125,0.3686633683096126,-0.07349572534400202
2.45703125,0.25760320759187877,-0.8658218048426412
2.4609375,-0.4768638965774848,-0.1633733625840279
2.46484375,-0.557967951741655,1.2830932503310006
2.46875,-0.5538559538684859,-0.16118975344092742
2.47265625,-1.1147078674555218,0.39606539961457854
2.4765625,-0.08970151211132434,-0.5210906915451682
2.48046875,-1.1378975054625728,0.04028967074221821
2.484375,-1.7654391659161577,0.6478275706893346
2.48828125,-1.0644937658706337,0.4570636243569914
2.4921875,-0.8611700091439656,0.45390549500911714
2.49609375,-0.013330897437189834,0.3173945064482926
2.5,2.347452962144286,-0.12489828228278416
2.50390625,-0.49271970955603384,-0.27246477329826896
2.5078125,0.05309040326485517,-1.086463317689569
2.51171875,-0.749452702045069,-0.1283416401699571
2.515625,1.1554762774881784,0.8586120603592778
2.51953125,-2.434070817108638,1.584913128570183
2.5234375,-1.3864028273916054,0.1433383321561056
2.52734375,-1.8051519922764743,-1.0618124685521704
2.53125,-1.1043926595028124,-0.5866545913058134
2.53515625,-0.24467837919961388,-0.6936937799440582
2.5390625,0.0345561598475567,0.6471999035204119
2.54296875,-0.5387830543403554,0.6882945289519568
2.546875,-0.14749308955267687,-1.8163734126818323
2.55078125,0.1256217958019235,-1.3704337895117589
2.5546875,-1.432517849025201,-1.19274426759426
2.55859375,-0.265834809335973,0.9289508473940639
2.5625,-0.5957136098454687,1.0166961840030306
2.56640625,0.46808451484136326,0.35480009559576464
2.5703125,0.10027572498736073,-1.3212147474299245
2.57421875,-1.846346228123081,0.051882687231770495
2.578125,-0.7780913188343146,-0.16826029169106219
2.58203125,1.4708167460178092,-1.2847801764470785
2.5859375,-0.6321586247056454,-0.5501620288313828
2.58984375,0.6334889539402269,-1.3024740223143123
2.59375,0.21763986296371174,-1.0703539275288108
2.59765625,-1.2873308391595915,-0.5363984394729696
2.6015625,-0.8545739536124658,-0.14351374014812268
2.60546875,0.4531790426410549,0.07845889859994246
2.609375,-0.23128965502174362,0.09169420236745891
2.61328125,0.29772773091372806,-0.7719419094020608
2.6171875,-0.015781094523602383,-1.5193151009450794
2.62109375,-0.0677760854268684,-0.29124597906064686
2.625,-1.0514335895340705,0.05030588102352296
2.62890625,0.6133913119824574,0.35464247935170556
2.6328125,-0.10074049230004432,-0.6325097684581997
2.63671875,0.5106375196479971,0.5040097849095847
2.640625,0.1208390945381478,-0.30766771469259047
2.64453125,0.8795025808514159,-0.5272320007328907
2.6484375,0.32015989222093844,0.7386426457776313
2.65234375,1.539963184441038,0.7965382993053273
2.65625,0.5465020510040747,0.3828275967773848
2.66015625,0.803136618291041,-1.5097246478239559
2.6640625,0.0746059884126035,0.7801915155366517
2.66796875,-0.5337943441845991,-1.9284161939115823
2.671875,1.1540463488152761,1.655617899576936
2.67578125,-0.7767705307528817,0.5902366084066274
2.6796875,-0.6135790934974411,-1.1265232500865372
2.68359375,-1.0126559090432163,-1.572255531357354
2.6875,-0.40093944494320977,0.013383015344444435
2.69140625,-1.1971562309194195,-0.1983033812992458
2.6953125,-0.32750790157618526,-0.9780909769435757
2.69921875,-0.025877254139278126,-0.40205703706919116
2.703125,-0.08341346261026782,-0.24443112669650435
2.70703125,-1.347797370355274,0.6034695539702694
2.7109375,-1.374150776965258,-0.9656913295565415
2.71484375,0.986319941356817,0.3112814389886061
2.71875,0.6465791804696991,1.7014783098835546
2.72265625,0.44261006578887185,0.5354302882063716
2.7265625,-0.14643292725193519,-0.8353063832488123
2.73046875,0.749878155074838,0.5355106101859234
2.734375,-0.3551116033458234,0.6462886745803721
2.73828125,-0.16417947166246702,0.3757285065156567
2.7421875,-0.8365088637437726,0.1145340897625464
2.74609375,0.5452475089895557,-0.696184635213366
2.75,-0.019873661051333723,-2.1506489908704385
2.75390625,0.6575115651746859,0.32511027695090855
2.7578125,-1.5094894152726517,0.39843775563640765
2.76171875,1.8031750655998116,-0.4677761989636838
2.765625,1.308120058124542,-1.0217659956743668
2.76953125,-0.22849355687371195,-0.8697035777115184
2.7734375,-0.2796375306235884,-0.49714975091259395
2.77734375,-0.27138652148492204,0.23240406741198621
2.78125,0.0911408631642695,-1.1436327065174918
2.78515625,-0.6401858758177671,1.1228087825540327
2.7890625,0.6102096613036094,1.3107388204316206
2.79296875,0.7427816294006101,-0.1259370247054938
2.796875,-0.16814214885635492,-0.6267748655970268
2.80078125,0.677212911467408,-0.35457632568283126
2.8046875,-0.7583163575644403,-1.9408038833385868
2.80859375,0.35032640994437714,-0.8976853828271584
2.8125,-2.0002783106597533,0.24666170130627116
2.81640625,1.4500083233363934,0.34849945886088635
2.8203125,1.3755909832327549,1.9014050280476409
2.82421875,-0.3621581033050694,0.36867081220123576
2.828125,-0.27799416306073826,-0.17548860554530554
2.83203125,0.5195041305793011,-0.017385168041806454
2.8359375,-0.17399016172298457,-1.3698357031679407
2.83984375,-1.7362524288683363,-1.1847456611501195
2.84375,-0.9622999873516336,-1.2032020257597527
2.84765625,0.5713709037507207,0.6280164899732027
2.8515625,-0.5516105805572831,-3.979103663643368
2.85546875,0.12166831182406328,-1.7956569637037811
2.859375,-1.3618106234836465,0.8412016703132746
2.86328125,0.3973296224388964,1.0187096323215445
2.8671875,-0.4987789297947142,0.5066053539717463
2.87109375,1.9293975066970603,0.33861840924550096
2.875,0.2539263111361408,1.3589465716807267
2.87890625,-0.4398442085918614,-0.06614742071155871
2.8828125,1.0312343574366878,-0.18868589917499903
2.88671875,-0.09510297145947158,0.9815946176185222
2.890625,-0.22720262642410652,0.27215137373221676
2.89453125,-1.2701444212051147,0.06825075769846664
2.8984375,-0.777120025457061,-0.4063311670873131
2.90234375,1.5658867960712097,-1.1443874167036978
2.90625,0.8257791483685799,-2.9395820369510783
2.91015625,-1.2970377306187648,-0.641509185607678
2.9140625,-1.161566555803614,-1.2520125240510578
2.91796875,1.5331700076568782,-1.0497220819931248
2.921875,1.1371070904097187,-0.1737565643446253
2.92578125,1.006063694052705,0.10467808248548985
2.9296875,0.9512442005389665,-1.5918011611806397
2.93359375,-0.5716733792447345,0.31394451013087615
2.9375,-0.21395695524988365,0.5617515337504574
2.94140625,0.5775630060676548,-0.31657317772348803
2.9453125,0.4381035336241274,-0.20575177581573995
2.94921875,-1.2103755553585205,0.6701592331007449
2.953125,1.9359724732512071,-1.061112231437179
2.95703125,0.3870844009640506,-0.4896242753968549
2.9609375,1.9068699042463038,0.14116680856073352
2.96484375,-0.14346270142983064,-0.32360303286933645
2.96875,-0.3728461840052996,-1.095877965667181
2.97265625,-0.4624010192897137,0.2809009360286198
2.9765625,-0.7811264384178924,-2.385883211757509
2.98046875,-0.2914010744401731,0.9140733724479673
2.984375,-1.177446579982901,-0.28389371962682547
2.98828125,-0.1962359965429338,-0.6552620105446709
2.9921875,-0.6677343808453916,2.0931501058130593
2.99609375,0.11939761938721936,-1.2479770744415504
3.0,-0.410447482652788,1.203495433982375
3.00390625,-1.1998569889516915,-0.8592733126413521
3.0078125,-0.3279362939791894,-1.1296305359162493
3.01171875,-2.1012194102288535,-0.5946760918210958
3.015625,-0.6880709541714394,0.06857921274476526
3.01953125,-1.021189431085647,0.9593566020958189
3.0234375,-0.34039293136006954,-0.4569016535516737
3.02734375,-1.52578683295506,0.42438070887221396
3.03125,1.0484061766626596,0.6853603046753325
3.03515625,1.325848532436761,0.2258124772990529
3.0390625,0.7272361109752028,2.399383563484332
3.04296875,-0.013275871852792113,1.8082251362840194
3.046875,0.2845667059158608,1.2203676952710507
3.05078125,0.7347330868626999,-0.7769006973101951
3.0546875,0.2785296449948091,0.510033883957163
3.05859375,-1.7428632123813663,-0.7750386544378585
3.0625,0.9989397135254717,-1.0721461588766639
3.06640625,-1.0279373992501322,-1.0263293984898423
3.0703125,-0.45394833972885434,0.9423741084313425
3.07421875,0.24907573738391955,-0.8513488724635393
3.078125,0.9540451283806183,-1.0738932727456698
3.08203125,0.9591185459228905,0.3025578300827222
3.0859375,-0.3307719814209837,-0.22790751917560007
3.08984375,-1.0407794132701162,-0.4262251828411869
3.09375,-1.0055424557699657,1.4432512275922957
3.09765625,0.24558025223020025,-0.27602085077887356
3.1015625,1.6880314245251467,-1.6552219734483082
3.10546875,0.49916485047910786,-1.7805704983451045
3.109375,-0.4415831931402349,-0.8759067551308036
3.11328125,1.1183114995666765,1.1678412720668518
3.1171875,2.0915078079350895,-0.24611726594307184
3.12109375,-1.7027236028281534,1.5410262521227303
3.125,-2.3134290614095967,-0.7078020164942302
3.12890625,-0.7786647410639097,1.114234242273608
3.1328125,-0.11991776009205979,-1.2984925248443668
3.13671875,0.10421440940836053,0.9502233065072145
3.140625,0.5483697303399532,0.44986820676793504
3.14453125,-0.9661677550007232,-0.41476897391284845
3.1484375,0.019331563156576193,-0.09625820266492753
3.15234375,0.7524366940774807,-0.7099383163449349
3.15625,-0.7762345149224694,0.9134389210373658
3.16015625,0.7959288832786554,0.9701519518518259
3.1640625,1.0716584191681202,1.810534210576017
3.16796875,0.024921760793561284,1.1804498887427475
3.171875,-0.9068865988774705,-0.03834037468300883
3.17578125,-0.33789076993804446,-1.02231155773404
3.1796875,0.20103805938692684,0.17803944810251676
3.18359375,0.5951919903201721,-0.44306299598855237
3.1875,-0.754391909453628,-0.022778135417386713
3.19140625,-0.03338929134939134,1.3137560468440457
3.1953125,-0.2023556702321819,0.1842285066098984
3.19921875,-0.7303394504510289,2.7580829810133336
3.203125,-0.3686138514485296,-1.758737684209469
3.20703125,0.7802391680860908,-0.6785841892646716
3.2109375,-0.2663509864383582,-0.4301781641143547
3.21484375,-1.141808677107253,-1.5133278123093141
3.21875,0.13096276724753414,-1.8538172713752277
3.22265625,1.6361795662606697,-0.3391565218372048
3.2265625,-0.22227436170554327,-0.3623149906874303
3.23046875,-0.9105296143812657,-0.23747261490584076
3.234375,0.8810684979964188,-0.10912185810894018
3.23828125,0.15612102565828145,-0.5881862013927743
3.2421875,-1.1144606787898268,0.32188883066741286
3.24609375,1.520357415880694,0.7888054336281869
3.25,-1.550318441217643,0.568700984392397
3.25390625,0.8882794618964844,1.602253153423889
3.2578125,-1.5639677050415741,-2.0774081060244445
3.26171875,-0.2592444332954165,0.2601312437091968
3.265625,-1.285256696274695,1.0857400281402456
3.26953125,0.16043722250444253,0.6981764409995391
3.2734375,-0.6378032922134553,-0.12666312984806372
3.27734375,0.037062128041086904,2.039984648479387
3.28125,0.2800269070570746,-1.7346013875384867
3.28515625,0.8344756952158188,0.7995148574015885
3.2890625,0.9733486815082404,-1.350430650259005
3.29296875,1.0063864949115433,0.5984338073478259
3.296875,1.174900461947205,0.575082729997429
3.30078125,0.6737167218409182,2.4147145863535995
3.3046875,0.5284888483314806,0.32491573740667273
3.30859375,-1.4529664328513472,0.2750355811153834
3.3125,-1.1652488363404292,-0.0925026966612746
3.31640625,-0.07152459971355256,-0.9501835897896086
3.3203125,0.673671460455354,0.5924415078625164
3.32421875,-0.44601500450390735,1.3690211316680656
3.328125,-2.0004751390633437,-0.8979615767955874
3.33203125,0.06832634657576979,0.022701980660043624
3.3359375,1.2806705591936243,-0.6580226888848352
3.33984375,-0.9758217088816645,-0.04760334017536095
3.34375,-0.7550325507411709,0.5560321364654351
3.34765625,1.1565428500266823,0.36872871536998014
3.3515625,1.5463603643555346,-0.07235077995576841
3.35546875,-0.8786409250038814,0.8533182798394889
3.359375,0.7650043038584651,-0.21379689484885203
3.36328125,0.20054673754381142,0.19265351765063984
3.3671875,-1.8689717207355365,0.21736115899282019
3.37109375,-0.8212291135691429,1.192051130033849
3.375,-1.2684425450283638,-0.9757024479571823
3.37890625,0.33742954639531214,-0.6284186797505361
3.3828125,0.2536808910661816,-1.3903014350325726
3.38671875,-0.05468945707800161,-0.6980457299512601
3.390625,1.0390020076707243,-0.3783699238902616
3.39453125,-1.6027209251856298,0.2510213662475307
3.3984375,-1.4521977880402457,-0.380719806922563
3.40234375,0.8387693986172486,-0.3717797508779479
3.40625,0.5736743321780272,0.6878891259158315
3.41015625,-1.1871926921282283,0.6454389502069168
3.4140625,-0.8323987071195498,0.12210313935157514
3.41796875,0.1381555699960988,-0.10614351334319885
3.421875,0.018694115632485186,0.6566077467049147
3.42578125,1.62718367578292,0.7582169112096062
3.4296875,-1.3010601385620992,-1.6680085277082646
3.43359375,-0.05202239001261685,1.4716506525484472
3.4375,-0.2516251941450874,0.0664038881904138
3.44140625,-0.42201110714064005,1.2314281405162493
3.4453125,-1.4030259842760935,-0.4083496935945351
3.44921875,-1.4089635220501437,0.7417659242743702
3.453125,-0.8099185905214554,1.0469304218821562
3.45703125,-0.05403394792481933,-0.6489266918220286
3.4609375,0.5598239717226718,0.5809576389691998
3.46484375,-0.8602542512363586,0.1453718638255219
3.46875,-0.07250085227554869,-0.28804351733449796
3.47265625,-1.1692088245990504,-1.6677767960473586
3.4765625,1.8715900624220074,-0.20999165047161195
3.48046875,0.23683020816012917,-0.18591094732803284
3.484375,-0.9195496277877768,-1.1045784937427985
3.48828125,-0.5932779265453378,-0.37282037761861125
3.4921875,0.10802101797212864,-1.585718366615671
3.49609375,0.8528387630172946,-1.1993946916215599
3.5,-0.6232537599883456,-0.10255466305376305
3.50390625,0.006345348004473257,-0.8229456091925987
3.5078125,1.482575173668407,0.3256701091920106
3.51171875,0.9971211491985645,-1.5833673184116797
3.515625,-0.9844101637666702,-1.0736003289868419
3.51953125,1.1646397944731832,-0.7769329745141929
3.5234375,0.19311561618146428,1.4997974560806415
3.52734375,-0.987947358557231,1.2364651169196386
3.53125,-0.12158191710748574,-1.329890964138448
3.53515625,0.19013442931333555,-1.590924417560942
3.5390625,0.00528588183556582,1.9083191466003115
3.54296875,0.6966080536182528,0.639018764120983
3.546875,1.2447230407589365,-1.808596253784384
3.55078125,-0.30107130959390893,-0.25466304747609103
3.5546875,0.5463717553347415,-1.08774185863523
3.55859375,-0.5197527223696401,0.779597010642537
3.5625,-1.1358732973675847,-0.6804373036036466
3.56640625,-1.6503241482501951,-0.9768622335659173
3.5703125,-0.6621391013403858,-0.9948564504359099
3.57421875,-1.1384712863393165,0.02984878528294792
3.578125,1.4546654933321235,1.1849963819459748
3.58203125,0.98506029801914,-0.16632236900827055
3.5859375,-0.6702888284071554,-0.8464236370158978
3.58984375,-1.4765451047346392,-0.4015478017879964
3.59375,-1.431304910325601,-1.0948881580738028
3.59765625,-0.09676264356220815,-0.4132656009528896
3.6015625,-0.8748654183969837,0.18760601185683368
3.60546875,-1.0444242167842195,-1.6785423407642932
3.609375,0.16069151545775304,1.5240241567587098
3.61328125,0.8020591901035803,-1.409623449045057
3.6171875,0.6147187664609672,0.07899181386569551
3.62109375,-1.4422822176533259,-0.31654123331366435
3.625,0.021868464353582983,-1.1520831285678337
3.62890625,-1.4522758853343896,-0.010497758598100771
3.6328125,0.3505662675383607,1.662609046797348
3.63671875,1.7761683730110898,-0.6814279438824306
3.640625,2.2975323946572246,2.5996571394966783
3.64453125,-0.14536702991613454,-1.5569061146753187
3.6484375,-0.773903276318576,1.1185981382792243
3.65234375,-0.023954173535100882,1.6562306058122642
3.65625,-0.4565396325201384,1.8700064512225316
3.66015625,0.09141808933082836,0.06408167942161665
3.6640625,2.4363340198701144,-0.5017345747845258
3.66796875,-0.6589810293050777,-0.9359073744403547
3.671875,0.401306230008479,-0.8791220408873622
3.67578125,1.1624123663399664,-0.7112154724427341
3.6796875,0.9069283767387524,-0.4166768527065788
3.68359375,0.3316932584098531,1.7984789045713263
3.6875,-1.1961093437112458,1.0692859267512724
3.69140625,-0.8962317431898625,2.25747912004083
3.6953125,-1.01940933933905,-0.3700095495825008
3.69921875,-0.01964565436571874,-0.9736486623739034
3.703125,-0.9270754642874705,-0.3863589531602744
3.70703125,1.5846220365877342,-1.24237598549466
3.7109375,0.5913118180219986,-0.3253159651492604
3.71484375,-0.322685286244391,-1.9834411795663482
3.71875,0.2429133146698968,-1.6164256052261898
3.72265625,-0.5531594954453655,1.3009228336725063
3.7265625,0.006848003017965894,-1.6739635736958847
3.73046875,0.9362951495975557,-0.19234439240384804
3.734375,-0.5481742716782589,-0.20323249201172053
3.73828125,-0.45891322925303024,-1.697265792214833
3.7421875,-1.7251465323111388,-0.08170023677554382
3.74609375,-0.33275572821178595,0.07753278092352153
3.75,-0.04326220314641457,-0.25639795941590465
3.75390625,-0.2153318837392337,2.286172432437152
3.7578125,0.0674601214188648,-0.5810138841645969
3.76171875,0.4750442267560861,0.31316275003527494
3.765625,-0.6958415617534668,0.35368691647906303
3.76953125,-0.5759649880679912,0.25289696561799324
3.7734375,-0.036316539081855746,0.058329436519371995
3.77734375,-1.1039978744120966,1.5135057080608298
3.78125,0.5088754980227003,-1.5924820661748815
3.78515625,1.5581617212648387,-0.6340104224664143
3.7890625,-0.46258798342328616,0.10215952965769172
3.79296875,-0.12880778389863243,1.0502893653200271
3.796875,1.241052964097627,1.1172770010622162
3.80078125,0.6369970902921145,-1.320171291682804
3.8046875,1.37779488412364,1.08666923730315
3.80859375,-2.281190101045242,-0.4685232432305352
3.8125,-0.8544835218076202,-0.9674190836011993
3.81640625,-0.7792945250735048,-1.3858517174556055
3.8203125,0.5298847439455909,1.160796132520969
3.82421875,-0.13824311105081688,0.9521211423237688
3.828125,-1.0644159679064102,-1.9792506509932644
3.83203125,0.6535769376586062,-0.40082249802968095
3.8359375,0.3417141116523258,-1.1916608045599255
3.83984375,1.9875217854070681,1.1023519125672547
3.84375,-1.9829155972864903,1.4104139500865258
3.84765625,1.533105988430086,0.584654498874412
3.8515625,0.7065811317043986,-0.6102631613873076
3.85546875,0.4346798048900778,-0.45934297724700784
3.859375,2.1704586184913923,0.47423581942868237
3.86328125,-1.6726359714388601,-1.509909888255471
3.8671875,-1.2721785237601873,-0.12193498166235009
3.87109375,0.5114438205228218,0.07505142910928796
3.875,-0.8296032080904968,-0.14995830301578464
3.87890625,-0.36361892698973186,-1.4013286915695182
3.8828125,-0.6238877605310106,1.2939766773084334
3.88671875,1.4627138172886929,1.7873858020033282
3.890625,0.4772283617965515,0.017670727774031846
3.89453125,-1.0709107435437057,-1.2207272871441648
3.8984375,0.8330005823729245,-0.8136421958833844
3.90234375,0.880243318586226,0.7319078472862706
3.90625,1.0109155457317545,0.35240210925229193
3.91015625,-0.8817429049429598,-0.44026057458750645
3.9140625,-2.0278031759764183,0.5804273968788284
3.91796875,0.9559881987824173,-0.17119532728743833
3.921875,0.3032197199722307,0.5672624787113384
3.92578125,0.0015086630922544306,0.7962515049025692
3.9296875,0.7334216600592708,-0.6331646164450621
3.93359375,0.2762951494550389,-0.12824470245735092
3.9375,-1.2778025208742545,2.177553755667937
3.94140625,-0.12179029170697882,0.17905586749897362
3.9453125,0.7402747173856168,-0.03787600165005553
3.94921875,0.14592633387329088,-0.8173313292753895
3.953125,-0.35217069723909694,-0.853327470530146
3.95703125,0.08164181358764938,1.8660735976278806
3.9609375,-0.4911471851479849,-0.4738684742400569
3.96484375,0.591373753986291,0.2592020319417246
3.96875,-0.16968763667328518,1.5332282078754802
3.97265625,0.9903444092375584,1.3524457887561578
3.9765625,-0.1521705303204106,-0.17945159036792374
3.98046875,-1.1379657875769174,-0.1515055633471366
3.984375,0.001988060864114283,1.4110995400560533
3.98828125,-0.2629941189052303,-0.8449831067120464
3.9921875,-1.2031852400554712,0.30122316450712266
3.99609375,0.40602388946400286,-1.0161533224594985
4.0,0.3418518893206739,1.005625176007409
4.00390625,-1.4184505205591207,-0.5741572344949665
4.0078125,0.9900101827283697,-0.1631991387051187
4.01171875,-0.10786331729647997,-1.3483624575157176
4.015625,1.7510680934282843,1.659239583792019
4.01953125,0.5201477550289583,-2.1340660816654413
4.0234375,-0.5030664076758309,0.9865813044958659
4.02734375,-0.41800831419380186,0.17730325858746548
4.03125,-1.0614829309624894,1.0992027964480147
4.03515625,0.052810322792220435,-0.801665447318852
4.0390625,-0.053187264181085124,-0.42579087639878466
4.04296875,0.2917727358190824,-0.47656759369438856
4.046875,-0.15814637975601784,0.6078508790901255
4.05078125,0.7093612101443386,0.14527430359531252
4.0546875,0.7830545522269377,0.5932079985410902
4.05859375,1.0469568058140841,-0.007665357826404718
4.0625,0.7641669504016539,-1.668193421490838
4.06640625,-1.1334457395350606,-1.1343152540801829
4.0703125,-0.08374345911611943,0.3631093668277962
4.07421875,-0.2548472407043842,-0.2331422704427965
4.078125,-0.01281441123904147,1.384853196858086
4.08203125,1.6612928797956503,0.8576011280418653
4.0859375,0.792024573512842,-0.1454132413593398
4.08984375,-0.07068236276610641,-0.22291405080441554
4.09375,-1.3865713248508575,-0.7399446847540935
4.09765625,0.7341090257729121,1.3411754862269063
4.1015625,-0.24338209358935883,2.149966068198183
4.10546875,-0.8780687464168418,-0.17991019130573277
4.109375,0.26232386590737305,0.5723755132054196
4.11328125,-1.5474463089545043,0.5241110196994443
4.1171875,0.17309120542092593,1.157607702553106
4.12109375,0.9024413726843419,0.506912061998893
4.125,0.6903685656288218,0.7990899619337477
4.12890625,-0.1938996321642172,-0.032529189686352766
4.1328125,2.305239209905322,-0.5768366295508542
4.13671875,0.4631779114862207,-0.6615992567811858
4.140625,-0.584023346428451,-0.6213186939986666
4.14453125,1.3685398571532623,0.9256539417287514
4.1484375,-0.8774854716526351,-1.2629366130665416
4.15234375,0.9844445852693142,-0.3830324358629764
4.15625,-0.628125617970306,-0.17003575490065478
4.16015625,-0.22804385257782947,-0.29758308078157775
4.1640625,2.2397033029825866,-0.3313691575881604
4.16796875,-0.6732334667347241,-0.7862564997449839
4.171875,-0.7550548817465946,0.9681513069768187
4.17578125,0.3527081285255895,-0.7273076586601026
4.1796875,-0.11950197732797525,2.015330542782948
4.18359375,-1.1274537835930953,1.7228974050190757
4.1875,-0.2716544062439752,-1.415500422464275
4.19140625,-1.3822771505489073,-1.71627968410373
4.1953125,-0.005898936728693978,-0.38279104362019867
4.19921875,-0.624748680824774,-0.760441498553257
4.203125,-0.5342100745616352,0.9686418988438884
4.20703125,-1.278597104900212,-0.7609736805765734
4.2109375,1.5988875019105147,-0.16425195011762453
4.21484375,0.7774077791665928,-0.9685651663889256
4.21875,0.575232646780473,-1.6711905704599779
4.22265625,0.26496870756019597,0.3754753467805414
4.2265625,-0.25550539703566744,0.9616407388674024
4.23046875,-0.7563031149915269,-0.47265397544058085
4.234375,-0.12273689544069298,0.2536547058701752
4.23828125,0.14357545488869505,0.7156003432227306
4.2421875,0.16254355958683597,1.1598066513384384
4.24609375,0.47958879567676316,-0.4910834379574279
4.25,0.618974446354662,1.9007830561198573
4.25390625,0.6843946133379529,0.047915983051573637
4.2578125,1.4973517931522198,-0.1578834374231782
4.26171875,0.09601913319652597,-0.3876487615609555
4.265625,-1.4803698493391027,-0.9049512345414006
4.26953125,0.5192494623842302,-1.4018271007228091
4.2734375,0.21340170236478492,0.5233695157577914
4.27734375,-0.4674476541520001,0.21769693286637307
4.28125,-1.4417491147529344,-1.861349572156279
4.28515625,-0.6627129534358683,0.7657261041522369
4.2890625,2.7069047293345663,-0.5459645685627856
4.29296875,1.7896947825563734,-0.14589116747253353
4.296875,1.2594969008700312,-0.27996581204626975
4.30078125,-0.5772982858029538,2.1912038111292804
4.3046875,0.10035803092150172,-0.1601289974989059
4.30859375,-0.12909694770531058,-2.4216940501603057
4.3125,-1.2741154186173838,-0.27030545950715035
4.31640625,0.18891800366904554,-0.7630430740191965
4.3203125,0.2553061494434067,1.4177447154002822
4.32421875,-1.037664761127463,1.3072917849137415
4.328125,0.7315461579471982,-0.6429381600441937
4.33203125,-1.5271387469308317,0.6781597877531389
4.3359375,1.42179752880657,-2.653985397216477
4.33984375,0.4027392302794825,-0.16201015370014538
4.34375,-0.29877101525359473,1.1970058694592904
4.34765625,-0.7437931602545618,0.15217808348963188
4.3515625,1.1092685987115907,0.2991834673563872
4.35546875,2.0350239649522455,0.7791267483455544
4.359375,0.2041024835827823,0.08119904392799443
4.36328125,0.13233355922652987,-1.4369141032466253
4.3671875,-0.6027342417080584,-0.9573324936798916
4.37109375,-1.8531619115945652,-1.5715156796124576
4.375,-0.5685207656469247,-1.506200530317763
4.37890625,-0.5158489880322492,-0.705575916880987
4.3828125,0.21422665769181568,-1.1518968622594425
4.38671875,0.08662607704661845,-0.7720315531930998
4.390625,1.199149653123908,1.2339162475273164
4.39453125,-0.26199147016680563,-0.3894414628073155
4.3984375,0.19075014571501497,-0.04493010593107679
4.40234375,-0.6216099650769671,-1.2365191403473395
4.40625,1.272465622239664,0.45763679311387234
4.41015625,-0.12810133228272838,-0.7209714808290582
4.4140625,0.0341714201619351,-1.0112884346313704
4.41796875,-0.4199345680939152,-1.7466934662597724
4.421875,1.6818943358504401,-0.8428823994198744
4.42578125,1.3167627061804126,-0.8129363133698522
4.4296875,-1.1694230902137366,-2.058879773420021
4.43359375,-0.48372967495179736,-0.6361169839734964
4.4375,0.9957628869855523,-1.248153738656523
4.44140625,1.5215748145512578,0.16823931614046828
4.4453125,-0.84171981411668,-1.2349101445539288
4.44921875,1.2375115553656404,0.9479200702486029
4.453125,2.682923797950052,0.7468123165939996
4.45703125,-0.5858322420389809,-0.09044744008964453
4.4609375,-0.589859851627661,-0.3818490875065416
4.46484375,0.6376222464015071,0.10659100873100134
4.46875,-0.6975351264316246,1.3697812393460922
4.47265625,-2.2249266235123364,-0.2756023320731084
4.4765625,1.5182757973285512,-0.545192263439973
4.48046875,-1.7631762173517949,-0.10625961156377754
4.484375,-0.13457449060758103,0.34624284148705364
4.48828125,0.1511876351809819,1.0338929399673529
4.4921875,-1.1399730483465285,-0.34220170461673344
4.49609375,0.015973877624620474,-0.43408459434806596
4.5,0.027018019863812876,0.03633892369691249
4.50390625,-0.5717620749324593,-0.6831948954534496
4.5078125,-1.1695321798422016,0.3684324186288611
4.51171875,-0.27473638453133115,1.0987681548594768
4.515625,-0.3810292894357635,-2.7831652385150227
4.51953125,0.4073574327297453,-1.1896619338579881
4.5234375,-0.10244493936511881,0.05668495667444007
4.52734375,0.49244589017066803,1.3000836412785148
4.53125,-0.5380965672519125,0.5984114707627955
4.53515625,-0.6214662177826971,-1.5902772952912547
4.5390625,1.9475142025573002,-0.786690462750643
4.54296875,-0.040328467969961285,0.5808860959338448
4.546875,-1.770734569842672,-1.3804845912308406
4.55078125,-0.05839472477243699,-0.45771168092837167
4.5546875,-1.0087616532655173,-0.040965404717446086
4.55859375,1.5209160885902187,-0.41138353329752725
4.5625,-1.7053265307271408,0.17728502318097622
4.56640625,0.23662756393209303,-1.583884070915999
4.5703125,1.6162726704543546,-0.44864134552361046
4.57421875,-0.9776124564440543,-0.21895995063038443
4.578125,-0.8217940372246004,1.145345553707388
4.58203125,-1.083498536259547,-2.4840987746985883
4.5859375,-1.1944927931194056,0.5292724816937928
4.58984375,-0.23425150928754243,-0.5575590284897699
4.59375,-0.5895208577005803,-0.528277927257807
4.59765625,0.3825721580235931,1.7426360662475606
4.6015625,0.026628581042828673,0.49839871356440507
4.60546875,1.7525247807948536,1.5145342707800593
4.609375,-1.059513326626463,0.47141080729477103
4.61328125,-0.3563874921260782,-0.5238848926074343
4.6171875,-1.9007568017008083,-0.5679108130741324
4.62109375,-0.08571193189094042,-0.6412115391532833
4.625,-1.078818732883705,1.014396815193616
4.62890625,0.11505098821758723,-0.35933405505331656
4.6328125,-0.8804677898507037,-0.8918419686918087
4.63671875,-0.49558418755638667,-0.07785513953966162
4.640625,-0.20476804953500685,-2.068302044794976
4.64453125,1.023614034386799,1.6613039654593853
4.6484375,-2.672983882584006,-1.0642517331557897
4.65234375,-1.0330835668821425,0.2791167451499308
4.65625,-0.1276104622735472,0.6645767298795817
4.66015625,1.361103765074129,0.6998103690153511
4.6640625,-0.3359000582737267,-0.11363422638060218
4.66796875,1.955222154907751,0.3687293954370215
4.671875,0.08075127322326531,1.073685755879229
4.67578125,-0.3858686635776871,-0.1561611979280335
4.6796875,0.1246064750816598,-0.44224501374080327
4.68359375,-1.0269133403444952,-0.9039908820756611
4.6875,0.5016808701695229,1.567515406359987
4.69140625,-0.5204521812151814,-1.294586129085527
4.6953125,0.0512699335686754,-0.14597756938756487
4.69921875,-2.037286913463013,0.910741511650517
4.703125,-0.9586095042075053,1.331114705761648
4.70703125,0.2923378134117064,-0.8101505435080302
4.7109375,-0.6721863311245827,1.6871233494683358
4.71484375,-0.9441626702124095,-0.14136264009798216
4.71875,0.695478037895146,0.524815984702738
4.72265625,0.5249108505585437,-0.8291407154380784
4.7265625,-0.33414586602737895,-0.30478985296985195
4.73046875,0.38817254629975073,-1.5909950045427455
4.734375,0.44375455143599885,-0.7499238490865507
4.73828125,0.25760779983674786,0.21944561464335585
4.7421875,1.036173856452639,1.0943360753119304
4.74609375,1.085851403135652,-1.1614742617282487
4.75,0.07836237741561881,0.42977937182338943
4.75390625,0.32488601787487914,-1.2607526295186007
4.7578125,0.5272194451803125,0.1366616325817413
4.76171875,0.6577721027092706,1.7949028370028912
4.765625,-0.5675346410958052,1.2461772451625488
4.76953125,-1.0400546136525204,-0.3998247011184188
4.7734375,0.14294693308515227,0.025169051409991077
4.77734375,1.584053270028182,-0.6244427038978947
4.78125,0.09456926767760614,-0.4864619585447238
4.78515625,-0.25527914606937524,2.4044916011377055
4.7890625,0.3601550332954928,0.653773370824948
4.79296875,-0.44285438985559294,-0.056447091449474414
4.796875,0.32693119906649454,0.32794036897408424
4.80078125,-1.3187482988799943,0.5036248257361641
4.8046875,2.842136961766162,-1.4148807765311675
4.80859375,-0.04853958265081204,-1.0200141434292933
4.8125,-0.441422849412492,-1.092767703563639
4.81640625,-0.7946182047542931,0.17359837973930584
4.8203125,0.8400461183295029,0.6889613048657939
4.82421875,-0.5818739308441312,0.9283971961990674
4.828125,2.1749512943439293,1.0284268631050648
4.83203125,0.20096868385421712,-1.171205822948399
4.8359375,0.9762620397072618,1.0129430621892814
4.83984375,-0.14695892377216366,-0.35934659227699556
4.84375,-1.077296408461191,-0.15311433523996507
4.84765625,1.224341059282054,2.134882072464476
4.8515625,0.4161697547470878,-0.20939686458532406
4.85546875,0.6634144419972741,0.38132071992531497
4.859375,0.986121589541552,-0.369859968856767
4.86328125,0.25972553639555657,-2.7656852717586897
4.8671875,0.3606827115336295,-0.20639003113787302
4.87109375,2.1037397769270285,1.0654727322799675
4.875,-1.276319569672006,-0.19858972655228813
4.87890625,-0.38885090289234503,-2.176504711876617
4.8828125,-0.18531438719019316,-0.35577161589386663
4.88671875,-0.570018248464309,-1.0218054558436658
4.890625,-0.49734451790338324,1.6818405957854834
4.89453125,0.6215029419791165,-0.11075620170129001
4.8984375,-1.116928567544006,-0.3485306030142205
4.90234375,-1.392445566749814,-0.9138363763796192
4.90625,-0.44348374668171553,0.14007400823455526
4.91015625,-0.32459059034998133,-0.9583908381414782
4.9140625,1.758355993561769,0.642915491961258
4.91796875,1.2974221287968,0.32812807991520243
4.921875,0.7604717320832887,-0.5452040613852064
4.92578125,-0.12484288973357957,0.8769686291519889
4.9296875,1.7149243671435725,-0.5742964817373525
4.93359375,-0.400526031094849,-0.3353578465293225
4.9375,0.8055891693155529,-0.44435710364896014
4.94140625,1.8149467940156117,0.06500217112916577
4.9453125,1.168127332768833,-1.427853488555593
4.94921875,0.5187781766811443,-1.2061623752347386
4.953125,-0.2761011165901048,-0.5254158829669711
4.95703125,-0.6633597010283355,0.25980199126136333
4.9609375,1.125299720633264,2.422267249330529
4.96484375,-0.0022980438771500835,0.9263126992201756
4.96875,-0.3619155060842105,-0.3395714894589689
4.97265625,1.0019048565327213,1.0073291378758478
4.9765625,2.3776420147734596,-1.257616648267342
4.98046875,-1.1390995250425175,-0.09491259536604602
4.984375,-0.12761022389192989,0.9464011418338975
4.98828125,-1.371595408843393,1.1012897208887633
4.9921875,-1.9463950442058497,-0.6989327361335541
4.99609375,1.030749586750172,0.3368747164272268
5.0,0.8571534913200822,-0.7440071551284867
5.00390625,-0.669750744204135,0.6639840421598642
5.0078125,-1.2970677252360405,0.16380613728229534
5.01171875,0.6927009742257826,-0.7695250997111472
5.015625,-0.8631878270297478,0.5431981556377716
5.01953125,-1.5979817283285946,-0.313231667632698
5.0234375,1.6232992040192824,-1.0193706061067471
5.02734375,-1.8610938204873513,-1.0095161882899215
5.03125,0.35777739704540074,0.014012256882131187
5.03515625,-1.9130807254432887,-0.7391047968014129
5.0390625,-1.9476637559943335,-0.5268239795389107
5.04296875,1.1334297546046326,1.3524208382031646
5.046875,1.409806355746435,-1.6105726885280232
5.05078125,2.6169794656963234,-0.8193395498539939
5.0546875,1.372645772608827,0.6842720103101348
5.05859375,0.1917782227462134,0.5898140738530698
5.0625,1.0851591697713372,2.5544319947855136
5.06640625,-1.598828689946786,-0.8518984451835548
5.0703125,1.294189825496417,-1.0306350873219123
5.07421875,-0.3694406271624713,1.4859173823724146
5.078125,0.08394649794596379,0.2598111216443892
5.08203125,-0.5156003441135227,0.18200852934933007
5.0859375,0.8874316750165031,0.2684529155070456
5.08984375,0.13841343410770712,0.18844053089996907
5.09375,-0.2016637338290099,-0.5235079822583182
5.09765625,0.8555807994575128,0.6345170599228638
5.1015625,0.4159385630116467,-0.6638919194808194
5.10546875,0.14641611222162773,0.3083923394707325
5.109375,1.1478734161744197,-0.43060638169132015
5.11328125,2.3732752066368286,-0.31499707336524835
5.1171875,-0.7090950047030579,0.007435456823690462
5.12109375,0.10610264644084823,1.192697454611116
5.125,-0.9904280246895988,-0.7376367088635697
5.12890625,0.11913821540090559,1.2073585453372555
5.1328125,1.9451676446463406,0.37600101985194206
5.13671875,-0.7723102349724573,0.271419875446941
5.140625,1.550708726290859,-2.6541654708661704
5.14453125,-0.3160622739769967,-0.2932283241062553
5.1484375,-0.2906110892535196,0.22432439823255598
5.15234375,-0.8869644990398036,-1.5874675829821137
5.15625,-1.1611423957074691,0.7970836580049299
5.16015625,0.20272874910107214,0.0925175565855587
5.1640625,1.1613551961429234,0.10423740326281468
5.16796875,0.2807125875093612,-1.2633995828067588
5.171875,1.3735123095202286,0.5596720282250546
5.17578125,-0.5208697975201425,0.47519685367829717
5.1796875,0.6047369176883861,-0.2939054775287535
5.18359375,-0.4320456054140276,-1.4163006268380316
5.1875,1.1535268167572788,2.076378047445148
5.19140625,0.3469337152283236,0.5853711043649834
5.1953125,-0.28398501274338145,0.5147831260571943
5.19921875,-0.5600427805180949,-0.7643223165877019
5.203125,-1.0821561374353974,-1.0306566269569155
5.20703125,-0.706790436356661,1.0013960960027894
5.2109375,-0.38229431730093333,-0.6175329936254745
5.21484375,0.6359049329718679,-1.1804796444390584
5.21875,0.5385695491794865,-0.628866549895429
5.22265625,0.22969611495870818,-1.596060766827645
5.2265625,0.3042727657187822,0.41651675167403324
5.23046875,0.372763078418933,0.23124816113340646
5.234375,0.38735097879443736,-0.1364912110892498
5.23828125,-0.059962414860436915,0.27933711796790683
5.2421875,-0.10721363253471138,0.5969218871857948
5.24609375,0.8904717824318874,0.31343243948919575
5.25,0.8159908022014691,-0.5084679033906965
5.25390625,1.3275980179227627,-0.056560727553607366
5.2578125,-0.029908895062494976,2.5369814805130892
5.26171875,-0.26441053711708407,-0.3876838103394972
5.265625,0.45794354930551184,0.15561425225253284
5.26953125,1.221169209691052,0.871415892323932
5.2734375,-0.2409867953086532,0.13898001000058355
5.27734375,-0.9984452170294442,0.5933058929235244
5.28125,1.6902903126242192,-1.7769164439760905
5.28515625,0.6850305773567644,-0.004107926932290013
5.2890625,-1.87762898424226,-0.061246204601210316
5.29296875,1.3401486476384,0.1743143754932184
5.296875,0.05124553889101399,1.4869218229370895
5.30078125,1.0449125940296293,0.7662479721821823
5.3046875,-0.17340959978361503,1.011902335098886
5.30859375,0.06167497697073809,0.038229454496014455
5.3125,-0.89043601022567,0.04370305444454414
5.31640625,1.6465266392485707,-0.5495642573746494
5.3203125,-1.8368700197931411,0.3704975101600882
5.32421875,1.6542529019762935,0.5216226642599424
5.328125,-0.6872340897473765,0.238621467331534
5.33203125,-1.6538442835142455,1.1315885888792225
5.3359375,-1.1895959520812036,0.06967031849826222
5.33984375,-0.2836165382598227,-0.05100317309841385
5.34375,-1.59695967544586,-0.3015056710109457
5.34765625,-0.353906541967664,-0.5338593933806596
5.3515625,-0.31458898474001523,0.5915011888476764
5.35546875,-1.4901201601487013,-0.02948056864987761
5.359375,1.2003726373329542,-2.333977349620705
5.36328125,1.4215464133870035,0.6762726526187187
5.3671875,-0.11008456863868415,-0.21802645790460462
5.37109375,1.0691477625686807,-1.1530916293833036
5.375,-0.2988820705964682,-0.7242092815129139
5.37890625,1.0530919577851656,-0.0866024926713623
5.3828125,0.314454231778523,-0.8087104523987919
5.38671875,0.5946849296605983,0.09131367361952053
5.390625,0.608029130123893,2.2576882634027537
5.39453125,-1.529127588027133,0.8891770757774421
5.3984375,0.17287540118578507,0.9988081384936388
5.40234375,-0.6417052449717005,-0.4415310527075755
5.40625,-0.30130883727357055,0.4376936744462512
5.41015625,1.0869813431562336,-0.7242505651038306
5.4140625,0.5292322593029644,0.1664176907680972
5.41796875,-0.8203073518390821,-0.997629932141084
5.421875,-0.5978501879720733,0.7182676441291173
5.42578125,1.1714731325614363,0.5931573195810776
5.4296875,0.5180087292906703,1.48146088209238
5.43359375,-0.5222716051946118,0.30584799003549007
5.4375,1.3476761596090776,-0.625549567066822
5.44140625,0.5092948012517481,0.14215591013865034
5.4453125,-0.36191028857500596,0.02951314879318867
5.44921875,-0.5595663771907017,0.8912344577210136
5.453125,1.8504139311303158,0.5328517010751262
5.45703125,0.05590355884581684,-1.674892820017771
5.4609375,0.48886850572580864,-1.700785978310544
5.46484375,-0.4967767968030409,0.5094340601691204
5.46875,-0.3575669306099142,-0.33662677753091447
5.47265625,1.0107303844098598,-0.701112938828375
5.4765625,-1.3915585599582352,-0.6162942439018655
5.48046875,-0.8698986262891132,-1.8401012699295949
5.484375,0.08864564195918924,2.577917944288405
5.48828125,-0.09788662392601699,-1.3478130667511894
5.4921875,-0.4608969982447637,-1.1950368978723296
5.49609375,-0.7830885624985418,1.753490225803767
5.5,-1.0743349584874269,0.9659974660024127
5.50390625,-0.272725453986057,-0.4470894191142989
5.5078125,-0.6560698614354472,-1.1957310864216997
5.51171875,1.6079601483038968,-0.04397202474165455
5.515625,-0.31667989793990986,1.8444452729435317
5.51953125,-0.8279453248404224,-1.1043151156380215
5.5234375,0.6352238200903972,-0.3623847299005439
5.52734375,0.7657082150967405,-1.5494390311103672
5.53125,1.0301227817524512,1.246878645893522
5.53515625,0.18985658359405755,1.244596596315725
5.5390625,-0.43932289010227826,0.6849945121531218
5.54296875,-0.24271998649140036,-1.1820197052539996
5.546875,-0.6467638207415743,-1.0325045875099164
5.55078125,-0.521541295742252,-0.1375488944793235
5.5546875,-0.9455313442988477,0.7200122509196006
5.55859375,-0.39226945595031987,-1.3181296927469335
5.5625,0.39786427247907286,0.15647424185964173
5.56640625,0.24581949211594853,-0.20598119855306857
5.5703125,-0.8949992039819901,-0.7970845766043411
5.57421875,2.1792609901586246,-0.9399520971833998
5.578125,-0.25511377747533587,-0.20755104269758506
5.58203125,1.3854784861600289,0.07700824920626233
5.5859375,1.1208541826322724,-1.005317737975173
5.58984375,-1.003506106564334,0.7571495298859762
5.59375,-0.15998756384713242,-2.242871976965041
5.59765625,0.19258926375339422,1.4778909167768584
5.6015625,-0.20253213717731303,0.688181883960336
5.60546875,-2.205703658273895,-0.8932918582531607
5.609375,-1.2300851745788604,-0.5516879247623618
5.61328125,0.3103911739481776,0.12050537811814765
5.6171875,0.06919382194981552,-0.07067454629475468
5.62109375,-1.6004058617314236,-0.5251430600142586
5.625,0.48253476826848296,-0.18856568357678308
5.62890625,-0.9060391755224946,0.03826630988436214
5.6328125,0.6333075010732591,-1.0003364704478546
5.63671875,-0.3843937452770361,0.517314837730225
5.640625,1.069851578317118,1.3225373567187773
5.64453125,0.7681953917071291,0.7227591746838744
5.6484375,2.651549031290681,-2.255906378884292
5.65234375,0.632278826910138,-0.6024961982762759
5.65625,1.6805372467935595,-1.240100171256529
5.66015625,-0.44547612982193374,0.37010419033331043
5.6640625,1.3337353730392683,-1.3658179200330272
5.66796875,0.8880928661602593,0.13724994558966866
5.671875,-0.43761466871560717,-0.10264889082222747
5.67578125,-0.07252876335342161,1.250886782557623
5.6796875,0.6877850393372028,-2.2030814681335857
5.68359375,0.2988638066127693,-0.30409091193608556
5.6875,0.2911845614365555,0.3430362170442299
5.69140625,-2.7267358391711074,0.9489945541089407
5.6953125,-0.826767880846958,0.7335542772215153
5.69921875,-0.668918106195557,-0.6457883642262474
5.703125,0.033989566273836855,0.637683069501764
5.70703125,0.22168625975624373,-1.3988580344500212
5.7109375,0.7867916862688498,0.0955793694022541
5.71484375,0.6486247417038066,0.6909182514122776
5.71875,-1.886020450295651,-0.012657820172056454
5.72265625,-1.1678930993432486,-0.2679526251277691
5.7265625,1.3488732310311586,0.24631791573830492
5.73046875,0.7386688277940175,0.09814184263988615
5.734375,0.645884287816907,-0.42969053326755874
5.73828125,0.5325445102022899,0.2155263320697657
5.7421875,-0.8533489267097447,-0.10249424844697162
5.74609375,-0.30187484847906476,-1.8858679767908333
5.75,0.8146148455074194,-0.25568587162731865
5.75390625,0.6952708170206091,-0.13206102628044597
5.7578125,-0.9488044494519967,0.2205328603535755
5.76171875,-0.36349850639630626,1.1337525045930579
5.765625,-0.5185447903170624,0.2834246414168574
5.76953125,-1.5733487391962102,-0.6070490346275998
5.7734375,1.019836379386617,-1.1962548511235112
5.77734375,0.7917153685705082,-0.06168006779713616
5.78125,1.2817450485176864,-1.1648318545858147
5.78515625,1.615954006540041,-1.6492731980315687
5.7890625,1.983115601282936,0.2915726724848893
5.79296875,0.8867279582998375,0.8162642147414803
5.796875,-1.4165450978295704,-0.20131687243561863
5.80078125,-0.4196956031805504,-0.21232883735969388
5.8046875,1.371378119678102,-0.24864281184636736
5.80859375,-0.08511232552116287,-0.8435173228422419
5.8125,0.17613155061105673,0.655268266095743
5.81640625,1.3002969200667536,0.6498962669341513
5.8203125,0.6927766825866073,1.190116527671129
5.82421875,1.0310296040914888,-1.2128131595776235
5.828125,-0.3016937113226298,0.9586346336004663
5.83203125,0.963269344164659,0.4781092105173533
5.8359375,0.5697603259994277,0.3869669540790281
5.83984375,-1.1446201691699376,-1.5570495970953926
5.84375,-0.5070620615537715,0.6014418275865516
5.84765625,1.7984097528930347,-0.06364847555950694
5.8515625,-1.332469786270453,-0.04604590905652394
5.85546875,0.17310801290199013,-0.4250152422118517
5.859375,0.2575771109796831,0.12688470251276615
5.86328125,0.6526587052610227,0.2776962982627568
5.8671875,-1.1991065723350145,3.3279885934236075
5.87109375,-0.3378675919644472,1.1286502900822704
5.875,0.7559238931231068,0.24437017018011892
5.87890625,-1.7108944204358796,-1.7127359231594566
5.8828125,0.06180257399377388,-0.6946022803806637
5.88671875,-1.274674696302619,1.5928597570361465
5.890625,-1.5514551179057425,0.6937028644643853
5.89453125,-0.2785836536548336,0.494389037667728
5.8984375,2.0262605838293073,-0.33906947664475096
5.90234375,0.2626020861083321,-2.1293482631925875
5.90625,0.6921724401432339,-1.6873181969244362
5.91015625,0.7977682230409371,0.309646315028628
5.9140625,0.8512770230483074,-0.3444626018295525
5.91796875,0.5283305525159663,0.7033463917503093
5.921875,-1.2000001159707652,-0.06828307234026611
5.92578125,0.9746643136657664,-0.18663617263835183
5.9296875,0.04810119274922393,1.0164017167168446
5.93359375,-1.4667149616600386,0.7666680953229112
5.9375,2.007006091616731,-1.1479865748462406
5.94140625,-1.5586348482137928,-0.7479469194626492
5.9453125,-0.2222614945393352,-0.0084978095633545
5.94921875,-0.5615910576385236,-0.4300647015094601
5.953125,-0.3427882153558412,-0.2587975565702105
5.95703125,1.0425902734238932,0.8598147254578457
5.9609375,2.337905947941954,-0.4692399536119138
5.96484375,0.20432110335210726,0.5471580572440519
5.96875,0.46282894397949265,-0.015940852332691352
5.97265625,-0.43931885603592574,-0.3089740439565419
5.9765625,-0.25235461386342023,-2.3292193445575378
5.98046875,-2.071331671621289,1.6626793039504264
5.984375,-0.1984768769140651,-1.1254988747593857
5.98828125,-0.6379251931525555,0.41202778695640113
5.9921875,0.6593684762886186,1.2596290410394175
5.99609375,-0.4204118653409503,1.2357933549849498
6.0,-0.01907067373551149,1.529652822825275
6.00390625,0.599533713094728,0.05950804785865306
6.0078125,0.9646628293992954,-1.2261955668762852
6.01171875,0.7835153364361156,2.4588917447731475
6.015625,-0.3371655494099766,-1.5333863655756368
6.01953125,-1.1378099317148989,1.0351451503552982
6.0234375,-0.8017629984654588,0.22340426495583376
6.02734375,-0.7292473813698154,0.1984116316011381
6.03125,1.0466065977223498,-0.3042825086917178
6.03515625,0.30535950510088117,-0.6623663282160621
6.0390625,1.301932310879614,-1.5469461913237956
6.04296875,-1.2982760304390357,0.28506569420349936
6.046875,0.16283927875758566,2.2310401150004067
6.05078125,-0.4572096812624719,0.6528259991402586
6.0546875,-2.0722467465705283,-2.6404199942682234
6.05859375,-1.7965335324867135,0.12511837467780398
6.0625,-0.3958110300225298,0.647935469415765
6.06640625,-0.4549043504603458,0.30270602697943433
6.0703125,1.031387179597719,0.5817129352017271
6.07421875,0.9339918377909605,-0.7119903975612512
6.078125,-0.959534318930679,-0.3456724623636265
6.08203125,0.8069827137084935,0.673659175361427
6.0859375,-0.11146405403899368,-0.7764429717991312
6.08984375,1.5754775825014136,-1.2988143525152154
6.09375,0.19800601619974753,0.8693787870235002
6.09765625,0.6144979974467529,0.7580961458234445
6.1015625,-0.7944923148814119,0.152628414141341
6.10546875,-0.48376309290042585,2.1637294538430822
6.109375,-1.2646969087003406,0.42388355387207033
6.11328125,1.5361776047209326,-1.7250726629127688
6.1171875,-0.5835185965431985,1.6458019306464238
6.12109375,0.4644813839906712,-2.1209122456177276
6.125,-1.9576268254563316,0.8061910515035253
6.12890625,-1.0972119117138424,-0.4946035731946
6.1328125,1.330221209059294,-0.9337068005069193
6.13671875,0.4696375854681432,-0.872088822747285
6.140625,0.9226943910946617,1.1167048880684354
6.14453125,1.6911158310806866,0.2477062934349938
6.1484375,0.9177985418140951,1.501860632252023
6.15234375,1.0506662392619295,-1.159721373986326
6.15625,1.635261723233031,-1.535596921228301
6.16015625,-0.04852983599876222,-0.19974191362149807
6.1640625,0.8431078812952215,1.0639754535006969
6.16796875,-0.3844009759896005,1.0135483452346017
6.171875,-0.7850437455319299,-0.02802800990172962
6.17578125,0.5997109081234366,-0.8951129720567796
6.1796875,0.30766688517305996,0.3796294474614889
6.18359375,-2.1577161183392866,1.0534964817162222
6.1875,-1.6033374750065954,-0.0387578638214147
6.19140625,-0.05884107068976135,0.09219451339886542
6.1953125,-1.075632978359445,-0.016309665188785225
6.19921875,-0.04846226428621693,-0.12463313792297048
6.203125,0.7520218482432999,1.2596875539820367
6.20703125,-0.34869273282178037,1.4477484787581185
6.2109375,1.1341912144791977,0.34131900984475394
6.21484375,-0.8720838313146402,0.2814436369968501
6.21875,0.026439989976073053,-0.37485192565410896
6.22265625,-0.256029873452476,-0.5920147715315577
6.2265625,1.2444879312961927,-0.029652526780686483
6.23046875,0.64597935079885,0.29816554474470863
6.234375,0.4576354006076006,-1.6540733141084905
6.23828125,-0.2627586513018831,-0.5667252036212647
6.2421875,0.6669217038983223,-1.4821796603031994
6.24609375,0.34775100248830837,-1.429333606205853
6.25,0.29078797301188836,0.7824288675173108
6.25390625,0.015592321045840787,0.5526568035078605
6.2578125,-0.2509398437681298,1.6195987990828578
6.26171875,1.4229417837474623,-0.05961193490132413
6.265625,-0.4560114482270865,-1.2422929303288277
6.26953125,-0.43282850497002434,0.5443262225193009
6.2734375,0.20620703986307942,0.5095828433891753
6.27734375,-0.38417458668086973,-1.1716928972422225
6.28125,-2.7674322521928305,0.2615313514419738
6.28515625,1.213329180360782,0.16369383053245629
6.2890625,-0.5442662550776834,1.3900007742695184
6.29296875,-0.2615900365137144,-0.7463444832878513
6.296875,0.629379461865047,1.32647286301525
6.30078125,-0.584841935684482,-0.08423397297441523
6.3046875,-0.984061036538748,-0.405784445031879
6.30859375,-0.06747761758502088,0.36553922925254806
6.3125,1.0584261530296009,-0.23006439990884697
6.31640625,-2.099344049011524,0.2193831031740882
6.3203125,0.32480392640443434,-0.22357346405251874
6.32421875,-0.8607542374603401,-1.0331268898902037
6.328125,-0.6876136283004574,-1.603438688650455
6.33203125,0.39971584308953967,-0.3777614696492902
6.3359375,0.6175738558577555,1.2114074871487788
6.33984375,1.0334451576698156,0.5647857256228055
6.34375,-0.14018842997380887,1.5151783863701378
6.34765625,-0.6634604445052844,0.7760906071333147
6.3515625,-1.7129034961556673,-0.27640503899994545
6.35546875,-1.0544809001731315,0.06678293348004015
6.359375,-1.2061312156941757,1.4739496078141172
6.36328125,-2.169160878713488,-0.16584337396637663
6.3671875,0.12777146950615775,-0.7117264366542314
6.37109375,-0.2958547960119478,-2.45518414715129
6.375,-1.7996339629224836,0.8028928657542869
6.37890625,0.13568725187526814,-0.49068462877609226
6.3828125,1.1319506731830122,1.2251750521593239
6.38671875,0.6769876061207686,0.3536454926308886
6.390625,1.4197022197289062,-0.7943473020087113
6.39453125,-0.38468388271675436,1.0000728318384688
6.3984375,0.17758532409549913,-0.5975879135373917
6.40234375,1.2758726550626793,-1.070647307352097
6.40625,1.180086751904379,-0.3592257045166308
6.41015625,1.5326204017951233,2.399806291214067
6.4140625,0.4023201270427143,-0.7548652558314566
6.41796875,-0.37107234004836825,-0.10863514134393704
6.421875,0.6186251146729668,0.5895812013671238
6.42578125,1.5384820052522528,0.44707497448917377
6.4296875,-1.587755752564842,-1.3473692952110274
6.43359375,-1.1643826168989573,-1.5041149076986828
6.4375,-0.7042084298556154,-0.1815540435386257
6.44140625,0.4010780510549896,0.561428464910765
6.4453125,1.2037817231167307,-1.8105996929776635
6.44921875,-1.9049480384698356,-0.20399555641825617
6.453125,0.6778491325456373,-0.9027764692550105
6.45703125,-0.14522931551634127,0.36966869060581253
6.4609375,-0.44017551735426697,0.5604046766942175
6.46484375,-0.2204417414762697,1.5377632384395357
6.46875,-0.329205133736268,-0.5181737318438963
6.47265625,0.885766756622196,0.3487243475909522
6.4765625,-1.1085620216411516,-0.12674219091754926
6.48046875,0.3424325828818527,-0.23925449713130417
6.484375,0.9948727042332239,0.322411310055863
6.48828125,1.2161070223945387,-1.5068963964055673
6.4921875,-1.21806653902731,3.5977792570204357
6.49609375,0.7690335639099469,-0.0562684082720306
6.5,-1.1920943449474444,0.7870111662591823
6.50390625,-0.35324304781659777,-0.9528151287028409
6.5078125,-0.32418863635892986,0.02028992638777437
6.51171875,0.026713364134268818,-0.771811549326745
6.515625,-1.411326101156091,1.8619865463170473
6.51953125,-0.13912419984268803,-0.1534131026496153
6.5234375,0.08985704854918977,0.5893710386196924
6.52734375,-1.0998804514289258,0.37791192470195495
6.53125,-0.2262656293878592,-0.10047370004832375
6.53515625,-1.2445879151763382,1.1230175463832084
6.5390625,-0.08906474034300653,1.680451743232735
6.54296875,-0.10498437091008371,0.14022518970246486
6.546875,-0.6380877008029239,-1.6159691456634122
6.55078125,-0.17133189919388897,-1.0575243402332588
6.5546875,-2.269599063325632,-0.9103386734175324
6.55859375,-1.4487291381422385,0.8208897781205504
6.5625,1.0395005739593253,-0.8053294783271084
6.56640625,-1.2112707516674668,-0.05748437784641565
6.5703125,0.5362958778993272,0.6615275669295044
6.57421875,1.0447720386389485,-0.06890912782211027
6.578125,-2.5053941977224694,0.526531309452188
6.58203125,0.7835917439928384,0.08884221723783833
6.5859375,0.34391945044827216,-0.7843516070393152
6.58984375,0.25312851246225987,-0.5136405507799773
6.59375,0.07143488825432094,0.07027495771881084
6.59765625,0.24220162937106593,-0.8766831000063245
6.6015625,-0.523286569779046,1.1582210042304193
6.60546875,0.27659940219065493,-1.4525853886451248
6.609375,-0.4349013809675224,1.016925901449404
6.61328125,-0.2243054313458176,-1.2290913932211645
6.6171875,-0.8242507963246318,0.9608083515548511
6.62109375,-0.5123916268354367,-0.38007997812899674
6.625,1.2754203773579067,-0.8688592876345271
6.62890625,0.4263811635128667,0.047666981453288695
6.6328125,0.06852820436519005,-0.3144017506350657
6.63671875,2.2366960369906552,2.378948394681888
6.640625,-0.6393987644747825,-1.6552372722572382
6.64453125,-1.554448709523545,-1.2275450178425125
6.6484375,-0.17045324336791393,-0.4547927800239791
6.65234375,-1.1604930631498642,0.014443387206994453
6.65625,0.7491955822507209,-1.357107593770538
6.66015625,0.18663205499629812,0.8397331661607823
6.6640625,0.9663210133477962,-0.23111865378168503
6.66796875,-0.4825377460444134,0.27305374393734955
6.671875,-0.10377076109030188,-1.229257518143229
6.67578125,0.30689673735506223,2.2045172916525972
6.6796875,-0.6871579379558697,0.03621662529147051
6.68359375,1.1890248256098217,0.4178894311844251
6.6875,1.4692351450720844,-0.4132868399412165
6.69140625,1.1430984841151917,1.2863232241530003
6.6953125,-0.19131645599903527,-1.6175095096822865
6.69921875,0.7240306984448888,0.3258804653071517
6.703125,-0.17700103568014228,-1.3597537947988279
6.70703125,0.8982612253902805,-1.471305934627696
6.7109375,-1.6962965409546196,0.4632779728867301
6.71484375,-1.3224354769828226,-0.027127353488712695
6.71875,0.651334429156084,0.5066681243616517
6.72265625,1.3422946704296865,-1.8546183328678518
6.7265625,-0.0005166476681821404,-0.6930833658560179
6.73046875,1.0418917686026374,-0.3035095750109483
6.734375,-1.6700950885369146,-0.6484200753265893
6.73828125,-0.2253433449695939,0.6667663931919902
6.7421875,0.26479835089477,1.1584743127273858
6.74609375,0.7885822419118139,0.1113392437845484
6.75,1.2863305532715288,-1.0213006395096274
6.75390625,-1.1938699427459916,-0.9805304489936187
6.7578125,-1.4401064434369155,0.22239218642103736
6.76171875,0.3942768079008928,1.3652258420667511
6.765625,-1.3223978017934066,0.5138103503111503
6.76953125,1.821010958003955,0.5565232567275574
6.7734375,-0.3132260368136131,1.6257665712016076
6.77734375,-0.07970351143750265,-2.011037087902928
6.78125,0.28770961257853184,1.6259015569616408
6.78515625,-0.09051457123818821,-1.0723320368387104
6.7890625,0.9431358303066013,1.1178410005123793
6.79296875,2.6430473572001154,1.1956341740614425
6.796875,1.503021349598855,1.5644736521814888
6.80078125,1.3585865487966933,0.628073856207475
6.8046875,0.6982367047130127,2.0760287828956843
6.80859375,1.195450618025891,-0.4734438088845517
6.8125,-0.1233168681465726,1.4483815386261827
6.81640625,-1.6152259245236507,0.3994951561829715
6.8203125,-0.11223913417073944,1.8734084256673889
6.82421875,0.21251860451168145,0.2956435346209836
6.828125,-0.31741302083421324,-0.13831787583430566
6.83203125,0.5815933418113997,-0.04118626736226394
6.8359375,1.4222690447383899,-0.6061859015720011
6.83984375,-1.1443271898874858,-0.07531430393087055
6.84375,-0.4758897841173388,-0.5263656114725707
6.84765625,0.10749951734605855,2.4275256158209206
6.8515625,0.4893172992192922,0.9943811471881955
6.85546875,2.1182672596182117,0.23969906715473538
6.859375,1.409728746689412,-0.43997986580676446
6.86328125,-1.234188654839951,0.1309969132649572
6.8671875,0.17697750672814255,-0.38031377704239455
6.87109375,-0.5777255479422692,1.3367489340653136
6.875,0.2836579314980783,1.45363601635561
6.87890625,-0.6413156403962703,-0.714134631680196
6.8828125,-0.7333416532550295,0.43232656973924305
6.88671875,-1.9477704903065007,0.9110399252700933
6.890625,0.550706673121992,0.5508526650312792
6.89453125,-0.8585186391964651,-1.2794119784698765
6.8984375,0.24550713174683497,0.21485360300984369
6.90234375,1.1138187558882806,-1.5487862608091758
6.90625,-0.36602083794972207,0.4005100708971524
6.91015625,-0.82691103916417,2.2180448962491806
6.9140625,1.5244956188954584,-0.1601637792093879
6.91796875,2.5084695004942534,1.6008655090747568
6.921875,1.0870208637720682,-0.7911316054754206
6.92578125,0.5168594827060714,0.07587014395611008
6.9296875,0.6435195802361369,0.3978727243092736
6.93359375,-0.28485670429233895,1.5360549706070317
6.9375,0.014272983013853017,-0.48766261193624266
6.94140625,-0.026249877166729434,-1.4313419348006047
6.9453125,2.2820870835909663,0.6947082727359988
6.94921875,-0.3356982548455418,0.7642066077634263
6.953125,1.1744485277673617,-0.8896788568448736
6.95703125,-0.7059135816237224,-0.6445885527929753
6.9609375,-0.14345061694647016,0.8480722165659214
6.96484375,-0.8872054531942988,0.07940717532613827
6.96875,-0.5752306420582143,-1.162395511042919
6.97265625,1.0223535217162212,0.3205137284268434
6.9765625,2.0431083690943233,-0.8269089949698458
6.98046875,1.416476254338122,-1.683894698312235
6.984375,0.6607583315618436,0.3799239044392145
6.98828125,0.2647125289717311,-0.34871880703662433
6.9921875,1.5123384737423666,0.4631062518512088
6.99609375,-0.018066110914291483,-0.7607297992926718
7.0,1.748488183155626,1.5327403642197266
7.00390625,-1.0378461992526031,0.9198776220156969
7.0078125,-3.1328412186568912,0.7538912960702034
7.01171875,0.011990720238396584,1.4812119019667433
7.015625,1.8159643311204725,0.7728710142820827
7.01953125,-0.18365200853093427,-0.646942829170465
7.0234375,-0.6167305345147033,-0.37949719582142616
7.02734375,-0.4958112252392188,0.15694118793846923
7.03125,-0.010270557176461522,-0.9754866235046037
7.03515625,0.24091614705375694,0.33906153541897555
7.0390625,1.4480495287921695,0.11082149200298325
7.04296875,0.4680286299803284,-0.016754527081134847
7.046875,0.6584215941474464,-0.8514928446848252
7.05078125,-0.43759226005995383,-0.18667602193793048
7.0546875,0.12761774932210684,1.9256039662709443
7.05859375,0.8180169324125515,1.364742466719302
7.0625,-0.5197911823216861,-1.9074353228469947
7.06640625,1.598063908168517,-0.7746943543539664
7.0703125,-1.3519164012935547,1.2679407473900917
7.07421875,0.28771726029490763,1.74630844455996
7.078125,1.1346763384547345,-1.041387535560451
7.08203125,-1.8279969932214308,1.6345668796970585
7.0859375,-1.003399261624565,1.5542060184250035
7.08984375,-0.5958169525549719,-0.2780638687626564
7.09375,-1.641169464811166,0.2319939636647362
7.09765625,-0.46898236843576274,1.5455640706107379
7.1015625,-1.1356685054974032,0.36896954080788397
7.10546875,1.1631439807268358,1.8644130854254581
7.109375,-2.0696204327096304,-1.3219965447387096
7.11328125,0.20638790224941445,-0.0543137547985429
7.1171875,0.7052495074002862,0.02904640978272735
7.12109375,0.03857852489193524,-0.7904281668100935
7.125,-0.30177111435691945,-0.784479793467439
7.12890625,-1.1720186516172928,1.3661444551531785
7.1328125,1.6200725810530052,-0.3173984329866282
7.13671875,-0.027671355670872234,-0.276330547282982
7.140625,0.8933095923856482,0.9597638646294587
7.14453125,0.015631598221048357,1.6577365662291417
7.1484375,0.061582769736030114,0.8908817585747861
7.15234375,-1.4321265070608171,-0.5220730761617021
7.15625,0.8275451789250299,-1.3105459160952615
7.16015625,-1.198263511069378,-1.7454162274114988
7.1640625,-0.038641060122475854,-1.0589470352965848
7.16796875,1.0356829459263392,0.35350545548496426
7.171875,0.692092286201407,-0.23335329245460648
7.17578125,0.6841943056746639,-0.017228870925936824
7.1796875,-0.910998980441596,-0.4113687589040599
7.18359375,0.23931825807637666,0.5094010444810928
7.1875,-0.07851979858476862,-1.0897174000828065
7.19140625,0.30865456349238796,0.7287274305867146
7.1953125,0.09794767841392409,1.2762896524815361
7.19921875,0.41365231749951836,-1.335283108571778
7.203125,-0.9202908916633227,-1.0617614380689853
7.20703125,0.9615563614291502,1.6409300545194958
7.2109375,0.044536985039226075,-0.7400475810316145
7.21484375,1.5162811895568313,-1.0629581205492982
7.21875,0.7297381060606587,-0.6720839610263634
7.22265625,-0.0648413442631942,1.5624322306981966
7.2265625,0.3587273904460331,-1.0825305494285522
7.23046875,-0.29693899606959057,-1.5909327154633495
7.234375,-1.4942137696367515,1.2541994202279672
7.23828125,0.8200118152684699,-0.7309314521860185
7.2421875,-0.16100202887925333,0.6450376211200317
7.24609375,-0.35340454225112844,0.41861700852891265
7.25,1.5997540622500246,0.18275959555361654
7.25390625,-1.2358099081806642,0.16502108965653406
7.2578125,-1.5725823735499436,-1.3307930527562217
7.26171875,-1.34752617004076,0.04421386170488115
7.265625,-1.8316583500569745,-0.40871463831491983
7.26953125,-0.25761719530567856,-1.359852463402832
7.2734375,0.9687475488506401,1.5777455397493394
7.27734375,-1.1690387531745252,0.8837772254235101
7.28125,-0.15011312966727192,0.7729253988158947
7.28515625,0.8751105191006464,0.8500303009579296
7.2890625,0.5532081825891818,-0.2684061664142435
7.29296875,-1.2474753764123374,-1.0444915235473913
7.296875,1.055616229482667,-1.5621333059816072
7.30078125,0.955946052458589,-2.438858302012909
7.3046875,-0.3358199029780674,-0.058747782843088875
7.30859375,-0.8081382791336045,1.1151086443270755
7.3125,0.9227610083622306,-0.05770538643968245
7.31640625,0.5149378720269457,0.33606371919447775
7.3203125,-0.43750994923728714,-0.018908015914344645
7.32421875,-0.00900918158685283,-0.47514465442911985
7.328125,0.5682092942724615,2.69237066720506
7.33203125,0.7719326636094276,1.2414293233536273
7.3359375,-1.140111452931131,-2.2018468978391326
7.33984375,0.4519344930125739,-0.6180058505771249
7.34375,-0.06581018691046261,1.4666451667355498
7.34765625,0.28591271208514246,0.7744498583699453
7.3515625,-0.2926244262700416,1.082624524929888
7.35546875,-0.3909775776552855,-0.09743460549251204
7.359375,1.162340760869219,0.467453728050671
7.36328125,-1.3152669172276874,-0.8005377078990151
7.3671875,-2.138554713860928,0.00020248930419451052
7.37109375,1.5879203592229378,-0.10179995576372758
7.375,1.6367397289092498,-0.7269169762386434
7.37890625,1.0103174237015171,-1.1169060153260224
7.3828125,0.9826258310728222,-0.1286892925768601
7.38671875,-1.0585146699340846,1.1444147411525523
7.390625,0.3112588469404894,0.257635817652684
7.39453125,-1.4901329951943052,-0.7900866426856719
7.3984375,1.2671191288543802,2.8181565691695005
7.40234375,0.4291891557607271,0.06671280974744066
7.40625,0.27852045425649385,0.6218315669255051
7.41015625,0.22910437795801045,0.7568835772862661
7.4140625,1.3999961226248656,-0.5119594306531203
7.41796875,-0.5212854907665341,-1.6019622914995195
7.421875,0.5526339292905008,1.6366882335878643
7.42578125,-0.20432200117725716,-2.319003028052496
7.4296875,0.3404856376719191,-0.5253596401595563
7.43359375,-1.1308394229002996,-0.83267925777728
7.4375,0.8547915960795861,0.7346439779052495
7.44140625,1.6046115481192935,-1.5416234361195598
7.4453125,-0.6977999840839864,0.8534982389495456
7.44921875,-0.09497629125535281,-0.5249331320960293
7.453125,0.16331679462925955,0.8033149954830924
7.45703125,-1.674845695389771,0.055863159658109486
7.4609375,-0.0995758758006417,-0.8164753036437866
7.46484375,1.8520637426922548,0.9599802895804654
7.46875,0.7274733768980203,0.516115917219905
7.47265625,-1.2978459442008818,0.934675629995764
7.4765625,0.2630939245558867,0.6706596969838444
7.48046875,-0.1704389966186066,-0.7864347846053975
7.484375,-0.832569673989694,-0.13825631496809546
7.48828125,-0.0988852682888184,0.23021722121955418
7.4921875,0.21056658863227656,-1.189062362298557
7.49609375,0.06321675339895845,-0.2348355576763538
7.5,-1.4116352919876534,0.3230865050090041
7.50390625,-2.343577161609714,0.5339344677673047
7.5078125,-0.014028355866037928,-0.6137190248849791
7.51171875,0.23360703749812664,1.0360303947738934
7.515625,-0.5979420907601941,0.5124185197512403
7.51953125,-0.2997642928241614,0.23747691651885436
7.5234375,0.03826864583140613,-0.056964853774636816
7.52734375,-0.30777130704030226,-0.5857630296730876
7.53125,0.02967127439415346,-0.7830055907558083
7.53515625,0.4142106815814177,0.2583423740312332
7.5390625,-0.6059303661683246,-0.07059680854911639
7.54296875,0.1254199974094277,-1.4386494337604991
7.546875,0.046582310238125826,0.3270408971157352
7.55078125,-1.4080820254367983,0.19887725103520448
7.5546875,0.8486092460760185,0.06544895139144434
7.55859375,-0.34964792926504745,0.013169613101260177
7.5625,0.31491888767537013,-0.2749774468116354
7.56640625,-0.5801827430792724,-0.6178196272405736
7.5703125,-0.4756980232227969,-0.3955213053507319
7.57421875,0.11688525298180301,2.540872252919098
7.578125,-0.05772957021102585,0.1252972002275143
7.58203125,0.900833201334007,-0.7379136256460778
7.5859375,0.18410629066625972,-0.04802171582733298
7.58984375,-0.9285162078695447,0.04851895895067685
7.59375,1.0227188563107559,-0.3256160048168362
7.59765625,0.22987443148336892,-1.4034724885338172
7.6015625,-0.8541693465980391,0.13212435597337863
7.60546875,-1.7492983132202469,-0.32933599127177987
7.609375,-0.23367327155529977,-0.05905110359970972
7.61328125,-1.1207453992706857,0.14131111149323894
7.6171875,-1.343808117912644,0.9766368966999045
7.62109375,0.28433933481937856,-0.174202089213783
7.625,2.223211750443475,-0.5198297128655724
7.62890625,-0.5828145349338943,0.2817731827831118
7.6328125,-0.4684166847348594,-0.9504479942845461
7.63671875,-1.228765499247425,0.1659203967550788
7.640625,-0.3958858528698232,-0.8521457948036378
7.64453125,0.328685779865495,0.8388253104600448
7.6484375,-0.5364567299094932,0.6024413245702787
7.65234375,-2.2109366754850788,0.7962002905864205
7.65625,0.16359371972147727,-0.2553207251237658
7.66015625,1.1847158991076285,0.2814926164854917
7.6640625,-0.7000326432285505,-0.7943832584403806
7.66796875,0.4380462493895743,0.7242138755655492
7.671875,1.4090713283282479,0.13260234469563076
7.67578125,-0.7268578219991316,-0.4879865753540269
7.6796875,0.7435608512759312,0.03992240269463177
7.68359375,0.8136678676211421,-1.9245107403416837
7.6875,0.022996561309749718,1.572630038907606
7.69140625,0.44271902325542517,-2.1757460670877777
7.6953125,0.804392100976692,-0.8848514037984985
7.69921875,1.5095637267122386,2.43168523394098
7.703125,0.7370001415271937,0.3334068213206186
7.70703125,-0.8217047312067983,-0.11317901683273723
7.7109375,-0.5067109090930809,-1.193210814655569
7.71484375,-0.982127624809561,-0.6467983197685244
7.71875,-0.03558935510545845,-0.18378454392370946
7.72265625,-1.230702832878049,-0.15784256733579238
7.7265625,-1.1409650440109143,0.006212571392840596
7.73046875,0.8676412533926686,-1.3055972557777211
7.734375,2.0459805764309156,1.471191416425884
7.73828125,0.2426663967291919,-0.8743961791878943
7.7421875,-0.2979280954713855,-0.9952103520547757
7.74609375,1.5356334504639175,0.8130663688342373
7.75,-0.3381724098840285,-0.435097657801687
7.75390625,-1.132201400857965,1.1515925043360846
7.7578125,-1.1852370199867377,-1.6776117800791475
7.76171875,-1.2688392958634391,-0.4062740498508996
7.765625,0.044926597644049715,3.459707371025569
7.76953125,0.9078731152152769,-0.48099219085085
7.7734375,-0.22455860540104253,-0.5145185186786845
7.77734375,-0.4113312371510754,0.7126163426430362
7.78125,0.24067778592013064,-0.5911820238075814
7.78515625,0.22427987213719847,1.5261302363645504
7.7890625,-1.0968271069094888,-1.1322567523787768
7.79296875,0.6683896735314511,-0.7292261425360522
7.796875,0.39138911110951297,1.2012279292337986
7.80078125,-0.8164137397239396,-0.49156737698915803
7.8046875,1.597969560392036,2.050476170282652
7.80859375,0.7860289468832826,1.069896931934733
7.8125,2.8778274155889134,-1.155629311709324
7.81640625,0.5866107640257682,0.8727374597165308
7.8203125,1.0349836303657634,-0.07071224766026032
7.82421875,-0.5118937159932363,-1.3906792562211023
7.828125,0.7550226107276957,-0.6917492554879421
7.83203125,-1.8095566850495706,-1.341416083806919
7.8359375,-0.4593150926188453,-0.09519994848593323
7.83984375,-0.19928781443126864,-0.529918339969641
7.84375,-0.09639678509440842,0.7558905856181286
7.84765625,1.745765901303392,-0.4431828397361062
7.8515625,-0.6676115257647514,0.8975617616379568
7.85546875,1.5848873092913378,-1.649987557642129
7.859375,-2.2713695623806656,-0.10419555918517909
7.86328125,-0.10765006948984153,1.1321762977884602
7.8671875,0.4141051357724395,1.2899115299602877
7.87109375,0.6726037889881075,-0.11541305612199677
7.875,0.6879939844536667,1.26697208708233
7.87890625,-1.057308396285529,0.9879632927106777
7.8828125,-0.2141874594913,-2.4235194152883905
7.88671875,-0.9488495320395205,0.005443472215136524
7.890625,0.07857908170747334,-1.1205654552616007
7.89453125,-0.6020629750585359,-0.36271236347878677
7.8984375,-0.7423797849448537,-0.09497171361170242
7.90234375,-0.1752613395685714,-1.6094302496330355
7.90625,0.9827687345268606,0.4038056879303737
7.91015625,-0.7998917797481172,2.00408985541434
7.9140625,-0.6109824288530827,1.1954964618554884
7.91796875,-0.4902429533833569,-0.5198492302213611
7.921875,0.27291882500707293,-0.5545842915645147
7.92578125,-0.8461167297195463,-0.6338714530295676
7.9296875,0.1004287117099027,0.6487214555697851
7.93359375,-0.7205759402252846,0.8299881560792034
7.9375,-0.10819375076047316,-0.6044336544216847
7.94140625,1.7497235747411193,1.5259666506652658
7.9453125,-0.7779302532606126,1.144401438298542
7.94921875,-2.9416006625000533,-0.6983628619930728
7.953125,1.9264226571337086,1.7622611499894267
7.95703125,0.47450091630052676,-0.32921336042569077
7.9609375,0.7105545837359697,-0.7718668472342299
7.96484375,0.5471960568903331,-1.0873351398019195
7.96875,1.1419168388393106,-2.258784974429346
7.97265625,0.3354632627421785,1.0035212506249855
7.9765625,0.4904963839730948,1.2364341199020445
7.98046875,0.4497582273851758,-0.4458095188890637
7.984375,0.8690495506195017,-0.48985159728388994
7.98828125,-0.07152787811446878,0.4111921983312455
7.9921875,0.06225994777005974,2.2351746579591323
7.99609375,-0.5597669041758938,0.016073909997742542
8.0,0.04849852839073291,0.22311137769152226
8.00390625,-2.6274561398340017,-1.718074975623156
8.0078125,0.6907448177586516,0.9457408916201988
8.01171875,0.38754886591777277,0.06402242489378322
8.015625,1.4419777703326333,-2.047031265946688
8.01953125,2.0092943241723034,-0.45459522255006585
8.0234375,-0.27480900708955086,0.8362065036694154
8.02734375,0.7868098362419824,1.0671355346781695
8.03125,-0.20982834634033545,-0.7176328039072026
8.03515625,-0.03557096117262772,-1.9398721017383513
8.0390625,0.6824178250355726,-0.4220183292428965
8.04296875,-0.039422207706298534,-1.9037678505858697
8.046875,-0.3440066076176412,1.2227116086449141
8.05078125,0.10206270225845261,1.5939806194848378
8.0546875,0.6305722203883063,-3.1271456777940765
8.05859375,-1.5798206254824108,0.41687160845517535
8.0625,1.33070019785524,2.4767224163488297
8.06640625,-0.03380488003806999,1.0461073394540235
8.0703125,-0.22926102138394225,0.02368284896588678
8.07421875,-0.9928075729588608,-0.5961234938956631
8.078125,-0.7914910416638523,0.4859149673458622
8.08203125,0.4317357207769711,0.9903676029677269
8.0859375,-0.4979476066070134,0.2097789970578498
8.08984375,-0.4421735630310869,0.3837851988869755
8.09375,-0.4109252177353714,-0.3234190078603351
8.09765625,-1.1033527942162509,0.17502684971159832
8.1015625,0.38522967736458613,1.247296885772762
8.10546875,-0.7692452032876592,-2.5631610596071783
8.109375,0.21936546548736,-3.0783037069309143
8.11328125,1.529615916709786,-0.8988312890847889
8.1171875,1.0867339553135056,1.3226145307264074
8.12109375,0.6806570445897387,-0.60564828275043
8.125,-0.17496232425294833,-0.8144104481612369
8.12890625,-2.2565758709253476,-1.0961804194640057
8.1328125,-0.0021799817546780367,-0.4893629354209961
8.13671875,-0.347897382561096,0.6331413550770797
8.140625,0.6667653401387214,1.3421901604290398
8.14453125,-0.11693142983086494,-1.4467542897265142
8.1484375,-0.9808556760418307,-0.4281849745677668
8.15234375,1.1407042329599235,-2.271751783899018
8.15625,0.19391483194855627,-0.248839864589922
8.16015625,2.0941467685013975,-1.83025795612486
8.1640625,1.0135108464278726,-0.2959196789351728
8.16796875,-0.29669048404746295,-0.3568851925517381
8.171875,1.0818464632650502,-0.31052897816914277
8.17578125,-0.6224788971460048,-0.37557647635477825
8.1796875,-0.15336633855767198,-0.1467337861748076
8.18359375,0.6687458430588853,0.492260451389329
8.1875,0.9969749867966692,0.6044345174260256
8.19140625,0.741278992287645,-1.8236932365584402
8.1953125,0.6544252492637201,-0.8882383417354723
8.19921875,1.7591509245654284,0.2591286649599945
8.203125,0.4412181653516471,-0.35210639518075587
8.20703125,-0.27802413719992186,-0.22029108676367934
8.2109375,-0.86857203101436,0.15756612935253178
8.21484375,-0.08270606071958778,0.029290551987184395
8.21875,-1.9385819313643622,0.2308599638174732
8.22265625,0.4022205477577645,1.0898627636913485
8.2265625,1.038463998158886,-0.30700895291367225
8.23046875,0.7005822181110409,0.4412118355045299
8.234375,1.3242687179906312,0.19596662076824167
8.23828125,1.33782664326592,-0.3230876712874923
8.2421875,-0.8207288943550082,-0.08476983915437498
8.24609375,1.4833551756839314,-0.46048328300516367
8.25,-0.47407927429799845,0.08416316448181617
8.25390625,2.2207677527125025,-0.31398197247947246
8.2578125,-1.4945704770161308,-0.4952498648105093
8.26171875,-0.5319604423888985,-0.8193806385996912
8.265625,-0.3409866094864772,1.2093885266139017
8.26953125,-0.07058378929723441,0.23760024395742996
8.2734375,-0.5717196281446717,-1.1487412718029568
8.27734375,-0.3790996411398741,-0.8683930729738428
8.28125,-0.3237113638357955,0.34347553709028905
8.28515625,-0.34099872750829413,-1.0185128156377408
8.2890625,0.072421259444293,0.14256567864358385
8.29296875,-0.15330583943701193,-1.0560280855403228
8.296875,0.9651235659112397,-1.1353609530901119
8.30078125,0.8466620333218062,-0.1387785851312436
8.3046875,-0.6428363754416642,0.3965167509858782
8.30859375,0.7281068697678869,0.6557362192048223
8.3125,0.7779402212244161,-1.097834173099916
8.31640625,-0.6687206216304393,0.33332647428105977
8.3203125,0.02466559751178708,-0.8658940521844204
8.32421875,-0.6805241923060679,-1.8558855983779958
8.328125,0.22684963904570965,0.9844260889574568
8.33203125,0.15167275729353621,-0.36173096705297614
8.3359375,-0.2119330583998311,-1.6539084646411824
8.33984375,-0.7094891618382975,0.6210663324658272
8.34375,0.04927320164510621,-0.1110224814579248
8.34765625,-1.3298045415654987,0.3729260676009397
8.3515625,-1.9877952323757995,-0.7649179874538937
8.35546875,0.8575046301501046,-1.6688028120164378
8.359375,0.16328788229714672,-0.03671854797813979
8.36328125,-1.462912107844313,1.921648622430763
8.3671875,-0.9734607288655569,0.5338969738291652
8.37109375,1.024149894469219,0.16407826537332365
8.375,0.39246218037602604,0.9570188746868865
8.37890625,-2.2439398506869503,0.4505570147638219
8.3828125,2.523925439977687,1.1072032355348875
8.38671875,-0.5139427964030969,0.2925133665893288
8.390625,0.101860998118968,-3.48508959941223
8.39453125,-0.5152062813043157,0.8393140095228305
8.3984375,-0.5631391031402196,0.732363964628485
8.40234375,-0.09415900825240116,-0.6780006390887046
8.40625,0.32325087891750925,0.11588133430804895
8.41015625,-0.3832884352441626,0.6684705161426024
8.4140625,-0.3307183385542923,0.6738015799565638
8.41796875,0.6154562786444432,1.4190831503940147
8.421875,0.09225058473006752,2.004677656595431
8.42578125,0.5073207226035767,-0.29425859862677345
8.4296875,0.31525346995263404,-0.34562926212903977
8.43359375,-1.3788359074354357,0.48075529837011927
8.4375,-0.9015429034268997,0.3845843982426843
8.44140625,-1.7996269255721722,0.9175355050435297
8.4453125,1.2705741695763453,0.463819042005558
8.44921875,1.5175309843583538,-0.3472979469369768
8.453125,-0.6308564716677013,0.5836841053972788
8.45703125,-1.4366165742361665,-0.743588000488654
8.4609375,-1.267882499816435,1.0628801406321462
8.46484375,-0.7329350363708074,-0.5131057702825813
8.46875,-0.25651860393598647,-0.966572075325211
8.47265625,-1.5982902863132085,-0.02512710351081572
8.4765625,-0.3811846457697071,-0.859445001784016
8.48046875,-1.176877016845339,-1.3391819927669355
8.484375,0.03070329462889807,1.0410450391403852
8.48828125,-2.1312028456329317,-0.7755205852501716
8.4921875,2.0155535665685753,-0.4329055442670874
8.49609375,0.2063878516952853,-0.20344826223238238
8.5,-1.2330030248525847,0.968453872203215
8.50390625,0.26510414049083586,0.2512256575730814
8.5078125,1.49043556393301,0.10541581539257638
8.51171875,0.30670117103238237,1.8604791726477765
8.515625,1.1088227941987068,-1.545756753277185
8.51953125,1.4018565242475922,1.5042164133313676
8.5234375,-0.7491322010711678,0.4259209754573954
8.52734375,-0.6928382170812185,-0.9993371054331328
8.53125,1.0868628693018874,1.7885416853888434
8.53515625,-0.4978263192884737,0.16018831796353017
8.5390625,0.29594906255303494,-1.13488388293628
8.54296875,0.4574906376343279,0.27948194642870305
8.546875,-1.5477485244529978,-1.24566121334014
8.55078125,0.7371794641557922,-0.35697454666155154
8.5546875,0.8083029737033206,1.4436140181376373
8.55859375,-0.3855181671644978,0.28087527699846476
8.5625,-1.302162422198181,2.0589545567012175
8.56640625,0.30103878272878276,-0.20260223157149343
8.5703125,1.2421987456623305,0.414997112705128
8.57421875,0.6229797753121875,-0.7877821434286185
8.578125,-0.8237610939801874,0.8940538676814842
8.58203125,0.1411908251067541,-0.1596810075090695
8.5859375,0.12005250116490149,-0.6008726149836284
8.58984375,1.0362382973796265,0.5085062618870256
8.59375,-0.11140632644655857,-1.3001680077283024
8.59765625,-1.0990465881029232,1.0886180465466506
8.6015625,-1.7841015353188083,-0.3681635736871414
8.60546875,0.1655490866288694,0.9292006531100855
8.609375,-0.362378873068215,1.2468518036621221
8.61328125,-0.47608039105217254,-1.4762253697054843
8.6171875,1.0526262494214507,0.7042442442058431
8.62109375,1.4222757831671153,-1.492867982508975
8.625,-0.7991752350058766,-0.2675111488780292
8.62890625,1.4724283637079685,-0.47248643086118447
8.6328125,0.019840323265419253,2.366569749909207
8.63671875,1.35204030717432,-0.3321527916505488
8.640625,-0.33781219594365425,-0.02934940315874435
8.64453125,-0.5121984627558748,-0.2736735283290338
8.6484375,0.88474675689274,0.6326396357079631
8.65234375,0.5402741135960033,1.5041910180769842
8.65625,1.0419854770422834,-0.19412368423682574
8.66015625,0.8725088659960797,0.8427465979515538
8.6640625,-1.079133716465195,-1.9045045345151157
8.66796875,1.9055803897410508,0.567662789793671
8.671875,1.080159402562787,1.4001784982112135
8.67578125,-1.6971200824086945,-0.9502162978689777
8.6796875,0.05721280193358081,0.32403920653673274
8.68359375,0.4837317704231081,1.017450409726786
8.6875,0.3340090525534518,-1.0590138515732654
8.69140625,-0.4127770970485583,-0.37175823346485715
8.6953125,1.3416604994933998,0.06939375013953394
8.69921875,1.7702929264063594,-0.28743565785235503
8.703125,-1.1987589927120612,1.1884228527659833
8.70703125,1.6706124568504663,-0.9454006690454019
8.7109375,0.18066905831047778,1.0701043923551037
8.71484375,-2.209286301872698,-0.6230546643988222
8.71875,-0.2551213211150754,0.5532899990785554
8.72265625,-1.3709731817989332,0.7657881419824563
8.7265625,1.6340122054379551,0.49957488103489794
8.73046875,-1.176873498934382,0.21364593320642686
8.734375,-0.9845704893528089,-0.850093650681873
8.73828125,1.012185447002674,1.2021825808856632
8.7421875,-1.2327084928286776,-0.061931037952009764
8.74609375,-1.2466803260111678,-1.3433699182765486
8.75,-0.4335495036966591,-0.8141995028185198
8.75390625,-0.5305001464101871,-1.1592703711654693
8.7578125,0.8666467351046289,0.6129087255558039
8.76171875,-1.7234506357385104,0.47316954465276917
8.765625,-1.3739558100409772,-0.23796291062681296
8.76953125,-0.004711345929348955,-0.08858187582692223
8.7734375,0.2909488565649965,0.015588187967663298
8.77734375,0.012121789594651702,0.008938027061401815
8.78125,-1.1280839446911937,1.613450724042824
8.78515625,-0.8466045534242628,-0.6748206913003829
8.7890625,0.28975399020393067,-0.3581311518239864
8.79296875,-0.3874833461031345,-0.22377284579070064
8.796875,1.3248371412801447,-0.5885437211127175
8.80078125,2.2560911703690767,-0.12423209054643258
8.8046875,1.2503452877616024,0.42959826880647084
8.80859375,0.003831731985709398,-0.7105728372979233
8.8125,0.554618880595415,0.5345982533746668
8.81640625,1.0036322931153936,0.18389130297448902
8.8203125,0.881388286972218,0.8746420748571553
8.82421875,-0.7018989859040335,-0.5196681153945811
8.828125,-0.6531552401066979,-1.291328855905843
8.83203125,-1.6212759030336452,-0.9156165762691726
8.8359375,0.7321582917771661,0.4732344668865733
8.83984375,0.4358587310620748,-0.29344062193234854
8.84375,-0.6949441004615285,-0.8095080414794498
8.84765625,0.12187958909838248,1.301815267869124
8.8515625,-0.8262460462878358,-0.3544694670217472
8.85546875,-1.921212379201102,0.37107153617835714
8.859375,0.5091176671821067,0.10130838272441679
8.86328125,0.6838585126179836,0.529193462763609
8.8671875,-0.5747666747312223,1.306711818533232
8.87109375,1.9399879191682616,-0.7988986887728938
8.875,-0.8045149221630412,0.449207042815034
8.87890625,-0.8988792609715064,0.9285484756052618
8.8828125,-1.4043016849746073,-1.4705151202579956
8.88671875,1.7751991743458815,0.23121684267566653
8.890625,0.5666980073498955,0.5572540372829657
8.89453125,0.20506604966156006,-0.03698682002118544
8.8984375,0.5365164830553253,-0.464051291970582
8.90234375,-0.7746053744483689,-0.07887687779183039
8.90625,-1.506323517731323,-0.03724151069073529
8.91015625,-1.1537881476611322,-2.1321892805262137
8.9140625,-0.6033620687019857,-0.14608166151249075
8.91796875,-0.3926084485274227,0.16855047268656673
8.921875,-0.08667840953232586,-0.2044952276648799
8.92578125,1.0155783129282254,1.6419153008236549
8.9296875,0.2131644549907318,-0.33989879058913125
8.93359375,0.7636582552814785,-0.057791796691781736
8.9375,0.6449118897733991,1.02970258518088
8.94140625,-0.23897564495486093,0.3013337485788933
8.9453125,0.2003432151972879,-0.30226455211296693
8.94921875,-0.3864288618670568,1.2028590385585112
8.953125,-0.5835330277200452,-0.7569039147107597
8.95703125,-1.1283604438700912,-0.16274423072103844
8.9609375,3.6144143285653603,-0.07049177994558951
8.96484375,0.6088369033006356,-1.4513839802310038
8.96875,-0.0051115706399204415,0.46207688347345116
8.97265625,0.5320974554544101,-0.800178915206363
8.9765625,-0.9832360608411382,-0.3433741843138363
8.98046875,2.2512557404468465,1.3684339997446682
8.984375,1.141869359523942,-0.29062860827480946
8.98828125,0.17398224055909522,-1.0296619331380543
8.9921875,0.1509389899239556,0.42267002010168453
8.99609375,0.9192891939884026,0.2615231841593501
9.0,-1.1213872888857714,0.6841522674930216
9.00390625,0.7116394531287407,1.285684019406469
9.0078125,0.6420103908422112,0.9306821453767449
9.01171875,2.386928811585979,-0.9760724921392271
9.015625,-0.46964071974656885,0.0014740058765660012
9.01953125,-0.4754446409579042,0.5114888634185546
9.0234375,1.1271735614727543,-1.5987804203579077
9.02734375,-0.5656075331694018,-0.5230447946787165
9.03125,-0.026433517668183918,-1.406134086959675
9.03515625,1.5807646054246907,-0.6833251537639234
9.0390625,-0.3711524969525187,0.8897764370694691
9.04296875,0.5594890707446636,-0.5936000562823706
9.046875,0.4625871491134931,-0.24309216934048114
9.05078125,-0.9422070934075818,1.2686264906989029
9.0546875,0.95499495678835,0.5823244692831988
9.05859375,-1.4807131372084892,0.894701543161168
9.0625,1.6109206554731408,2.4996488224231075
9.06640625,-0.25582871786843536,1.2171205662320292
9.0703125,1.4153498434421836,-0.5448431089312523
9.07421875,0.831935455302397,0.24292721174066884
9.078125,0.6152526346457291,-1.2089421874324107
9.08203125,1.987939199170017,-0.4402279431208313
9.0859375,0.7906820003715427,-0.9886184855986934
9.08984375,0.9285338419588521,-0.14075091443666413
9.09375,-0.10946157744619898,0.9725806721665602
9.09765625,0.836259604345962,0.7608529731527415
9.1015625,0.9983372455846009,2.0226264434173165
9.10546875,-0.21062700382549163,-1.647151893688524
9.109375,-0.32835455312306305,0.16657357174049403
9.11328125,0.5286902284673464,0.11571054682870979
9.1171875,-0.012995117986039261,-1.114470199953472
9.12109375,-0.13172498601984356,0.4128841695815628
9.125,0.6581523900890284,0.6221985422220095
9.12890625,-0.5290903519697486,-1.820965296081981
9.1328125,1.2638569228053451,-0.2660800380026938
9.13671875,1.9872938029791023,-1.305912856021568
9.140625,0.32914571603822007,0.46778789145518684
9.14453125,0.15677289287482912,-0.1328660533643351
9.1484375,0.11026601927330497,-0.8456861026335899
9.15234375,-0.8132110025591516,-0.11531176674173763
9.15625,-1.015504278256224,0.5810921411948449
9.16015625,0.871849626490237,-0.24181030875822984
9.1640625,1.7701278808286813,-0.10878861777383247
9.16796875,-0.11892851710001995,2.0015123738317535
9.171875,0.05119932516405566,-1.2873697282926948
9.17578125,-1.8091880662301443,-1.7547891024441744
9.1796875,0.534306585456178,1.337738839130579
9.18359375,1.039764189548024,-1.4784866355057036
9.1875,-1.6878747930424576,-0.7540451253626161
9.19140625,1.6439422933566796,-1.7824362807731746
9.1953125,-0.16391576314969708,-0.1611213915407514
9.19921875,1.1931000107877037,-0.09998164074233583
9.203125,1.5011472841285975,-1.7566104378954026
9.20703125,1.7733840365557856,-0.186247519212204
9.2109375,0.013749122861718796,0.4982428174105771
9.21484375,-1.1807159587548381,1.0115062000559016
9.21875,2.104380518485589,-0.0942795658901487
9.22265625,-2.8538304421037344,-1.6901503127645403
9.2265625,0.7507310165071879,-0.5471252866931536
9.23046875,-1.054174642587701,-0.6838464236806401
9.234375,0.32141605167485826,-1.705956813463885
9.23828125,-0.17582938071254076,0.8777037441757478
9.2421875,-0.20858317854392064,-0.3828746620940771
9.24609375,-0.42089553450471984,0.10300846148238928
9.25,1.566593977719721,1.8435184517787095
9.25390625,0.5649005171078115,0.5396846248137127
9.2578125,1.5553430735876017,-0.3097706716907167
9.26171875,1.7847290777996108,-0.15247138595440637
9.265625,-1.4405431288329873,-0.5757842411622357
9.26953125,-0.9132500364631209,-0.2859850321262916
9.2734375,-0.139273150113882,0.14352331087474432
9.27734375,-0.12019244477818103,0.8227257112416979
9.28125,0.7888196956049897,-1.8317185561265084
9.28515625,0.7445607047995323,-1.2076489713308427
9.2890625,-1.4815369706354853,1.2870231224440476
9.29296875,-2.709290036403992,0.8318771683056323
9.296875,1.5653648220254384,1.3194954264988368
9.30078125,-1.4624681138209388,2.183313256365509
9.3046875,-0.1670432572120137,0.26294565094991795
9.30859375,-0.8276736194256908,0.5730129429009391
9.3125,-2.162306899065928,-0.6971007328692261
9.31640625,1.136089797368542,-1.2626328071448727
9.3203125,0.29912505620744667,0.5615714160627411
9.32421875,-0.866578959779365,1.1555620058177327
9.328125,0.6788941393961226,-0.3960161834449692
9.33203125,1.164590056802721,1.2114613268946794
9.3359375,-0.921690128813554,0.6446803947978627
9.33984375,0.08001024452965672,0.3771031167789313
9.34375,-1.552121372238169,1.1544056158108422
9.34765625,-0.6952748654242504,-3.0318998185463752
9.3515625,0.3568881605260485,-0.1289441810595346
9.35546875,-0.9237535486720182,0.5927524458190473
9.359375,1.2455657048037507,0.0638558907565471
9.36328125,0.7630994989062693,1.7808509782717155
9.3671875,-0.049057074743024065,0.782322776921742
9.37109375,-0.04404144893008789,-1.855822576160891
9.375,0.7174689154910686,-0.5924718439511475
9.37890625,-0.5421789647414773,0.45544266074281764
9.3828125,0.473113000035666,0.8499207777027209
9.38671875,-1.353054040142137,1.2168605827287364
9.390625,0.5259885384301145,0.20199986477656873
9.39453125,0.6283765345185256,-0.31022073552544854
9.3984375,-0.2904068184764853,-0.22897866175092213
9.40234375,0.08340163742107644,-1.125492439811141
9.40625,0.25751526014881504,-0.12958143411053158
9.41015625,-1.280898599778231,-1.0001825257251433
9.4140625,0.5602128190928046,2.0508071414997953
9.41796875,1.5991510176297241,0.8342438689242729
9.421875,1.3134619989449217,1.1069736153162426
9.42578125,-0.6978284839992703,0.12672336335720968
9.4296875,0.38958541688051906,-1.1335994262649718
9.43359375,-0.14590090526863514,0.31477854448275105
9.4375,1.1797957918258621,-0.3225372007695453
9.44140625,-0.7060542958250698,0.006492756640713685
9.4453125,0.2259091263143152,0.8327561707837854
9.44921875,1.043975532655908,-0.3383401963948072
9.453125,0.700832036074764,-0.7146525577552
9.45703125,-0.4489482316890715,-0.3612194897874774
9.4609375,0.8856525903001934,0.7213403798622788
9.46484375,0.3567224561828391,-0.06579907466159739
9.46875,0.7652194456288446,1.0111725937427223
9.47265625,2.1584693410637232,-1.3783981972709167
9.4765625,0.5590624220518466,0.6830640026811365
9.48046875,0.6646559560101963,0.056002888650104145
9.484375,-1.7245232407244124,-0.18613280089942666
9.48828125,0.20599841376578545,-0.8545161041771374
9.4921875,0.25296945309038515,0.14866837147288994
9.49609375,1.192994446814288,-0.43054488666498614
9.5,0.3362951320840621,-1.1303428647177887
9.50390625,1.5534305869989031,1.2697734272759311
9.5078125,2.529817240462772,0.29451317508769387
