time,ecg,ppg
0.0,1.2452797334620338,1.5418472231836842
0.00390625,-0.1446115134100924,1.8925976649275051
0.0078125,-3.1342723543422184,-0.5611300706299842
0.01171875,0.7207575334373922,1.311393908191624
0.015625,-0.8160696455826469,0.9140419375390851
0.01953125,0.4992230955686836,1.0312607062516226
0.0234375,-0.8818013391678627,0.47455656204915825
0.02734375,0.18806138664010583,0.9406574097858416
0.03125,-0.34182851078444293,-0.42399069958419566
0.03515625,-0.8520230908926594,0.4465577523200115
0.0390625,0.6718311690027267,1.8178643270981854
0.04296875,0.7336522435316178,-2.0444771463610945
0.046875,-1.410347412673807,0.26190292898678724
0.05078125,-0.820447922179621,0.18077916329111693
0.0546875,-1.5607011744791115,-0.3016105220697337
0.05859375,-0.47746363976197453,0.5353325995652907
0.0625,1.1722208124335063,0.04026547661205214
0.06640625,0.3564087510401736,0.8118367369063529
0.0703125,1.7777999860091747,0.8111596911263558
0.07421875,-0.5484390572563652,-0.6158554696011488
0.078125,-1.2689512018048485,0.9860199496567711
0.08203125,0.5922204094305884,1.2423362916438028
0.0859375,0.3840078099813882,0.7521372898713092
0.08984375,-1.2439473961882404,-1.5995345578572708
0.09375,-1.4707247272567567,0.0684598353846129
0.09765625,1.680359388185754,-0.5874287931032179
0.1015625,0.4904414559158657,0.2080036975625794
0.10546875,-0.31190192980002135,-1.0095404834029775
0.109375,-0.9822280569829634,0.7774876658193561
0.11328125,-0.1815095761006173,-1.202257895540204
0.1171875,-1.0545389446190627,-1.5183052037970508
0.12109375,1.058293890731111,0.6804976720509883
0.125,-0.03126718755715614,0.04024042899981006
0.12890625,-0.30487698813696684,-0.5983531790590294
0.1328125,-0.32476831745029655,1.8806431436995767
0.13671875,-0.3953083292335584,0.379836377780363
0.140625,-1.087197435546458,-0.7673570836291347
0.14453125,-0.7539545225862517,1.4416752438621907
0.1484375,0.7081824445369087,0.1616564887775538
0.15234375,0.5446408280209899,0.13274812420111307
0.15625,-0.3197906240715949,1.7884855621671376
0.16015625,-1.527912830720787,1.7538405919710929
0.1640625,0.20384561920614633,-0.020712072254702528
0.16796875,0.9766162343066096,1.594148497550989
0.171875,-0.40915047362413276,-1.4499615308243419
0.17578125,1.139404491342471,-1.0754823741089268
0.1796875,-1.5749708216634222,-0.04401046976227259
0.18359375,0.7972573616177859,-0.2471055160930136
0.1875,1.3593750955717043,0.8256562953549959
0.19140625,0.26555327545270846,0.2652162189230864
0.1953125,0.2590864984715851,-0.40718718069556437
0.19921875,-0.3016709559238435,-2.066016621032371
0.203125,-0.4475034247159122,-0.5827337977326025
0.20703125,0.6886327208891223,0.7673886885604242
0.2109375,-2.4744145810013944,0.24724929594110506
0.21484375,0.00022301940542413654,3.048023959737796
0.21875,1.891948113246019,0.6900405685117932
0.22265625,0.5227236745699816,-0.7634600887426337
0.2265625,-0.882899094090106,-0.7323029789581792
0.23046875,-1.6530775675157368,2.227839018183945
0.234375,-1.2279580323560155,1.9715356784385978
0.23828125,1.194629330750712,-0.24269220493631802
0.2421875,0.4983486842582699,0.5460493928925259
0.24609375,-0.3580123647217932,-0.06661211455873178
0.25,0.8864240707835662,-0.17977758974961522
0.25390625,0.6164784874663736,-0.012883812553982828
0.2578125,-0.4352145469266917,-0.2793701095524607
0.26171875,-0.6578557279828103,0.04954658917136752
0.265625,2.0160820425831862,-0.8013712146780615
0.26953125,-0.7406197073661522,-0.0011435209416848125
0.2734375,-1.195849462878657,2.1336771951778912
0.27734375,-0.398571885366377,-0.32565375966521953
0.28125,0.04590272945248177,0.46803294803175965
0.28515625,1.099390711130315,0.687251979845197
0.2890625,-0.5872116356853351,-0.23438011247509902
0.29296875,-0.1615774864810217,-1.1148893526044898
0.296875,1.1175828769395015,0.17050102961031277
0.30078125,-0.573340961531097,-0.39862099927964734
0.3046875,0.1473855830842043,0.6170275649582353
0.30859375,1.00145191322272,0.6948043841068685
0.3125,0.7011990541340553,0.24244427157953852
0.31640625,-0.19450990797358636,0.02996573185906428
0.3203125,0.007516547627444127,0.8227332621786138
0.32421875,0.8245723503530124,-0.9225375110583097
0.328125,-0.1928366295825345,-1.2701806411805596
0.33203125,0.430709862639363,0.17871616827796283
0.3359375,3.8880219532782383,0.4595297116267004
0.33984375,-0.3129682048655731,-1.0045820635463576
0.34375,-0.30131457824333663,0.04809819994394442
0.34765625,2.0885840744254445,0.38328032968390624
0.3515625,-0.6525473698800177,0.11178893962073233
0.35546875,-0.7577968059321422,-1.3422928189676353
0.359375,0.27218916321236636,-1.4730444321807892
0.36328125,-2.5523648998914297,-0.7451572486295557
0.3671875,-1.1993629959827798,0.66914897736711
0.37109375,4.209137413808353,0.9101242070078333
0.375,0.44706181779419396,1.6374988307633704
0.37890625,0.10142562640061603,-1.7162410867450815
0.3828125,1.1502864573555678,-0.02319408741744999
0.38671875,0.27835678374424233,1.1311583198181185
0.390625,-0.7803804743716192,1.5184022627992364
0.39453125,-1.3270276814024295,-0.40044195780095315
0.3984375,1.0637762494539407,2.6657263503178994
0.40234375,-1.695662839795058,0.9250171597615005
0.40625,-0.28389299239698,0.9105794681281579
0.41015625,-1.3929458002250596,-0.6325246797932536
0.4140625,-0.05842238706856688,0.5934755729781672
0.41796875,-1.707714876389959,0.9660533868363119
0.421875,-1.6558590395641315,-1.0853466378786394
0.42578125,0.49930555794664927,0.7412274357768925
0.4296875,-1.3156869524203108,0.006474703250252009
0.43359375,-0.3014356231879481,0.6923885989713335
0.4375,-0.3485740724601867,-0.7566767344398824
0.44140625,2.7182954385661047,1.3819681913914394
0.4453125,0.17998241572855114,0.8449897837059134
0.44921875,-0.2159096890386422,0.011973448211066131
0.453125,-2.669133526805506,-0.9979726907545191
0.45703125,0.7566545759316129,-0.8149430478306421
0.4609375,-0.9693483940444918,-1.4941542161460757
0.46484375,-2.079244506079126,0.4750623199601543
0.46875,0.28359167326303564,-0.6866433792381521
0.47265625,0.5692249221636592,-0.33622066820495233
0.4765625,-0.6593358716281443,-0.2962661228127639
0.48046875,0.7649959650709245,0.2260493857367687
0.484375,-2.035603776588485,-0.21059881537049996
0.48828125,0.5830686620760271,-0.6327900035572624
0.4921875,0.28357263750608225,-0.019832164674628786
0.49609375,-0.6277459257542797,-0.20712815808240806
0.5,-0.4711547168511298,-0.642554252132033
0.50390625,0.5641539570248467,0.9036749429820641
0.5078125,0.2680879910886639,-0.30575525440399354
0.51171875,-1.4047623611028066,-2.1544477637794186
0.515625,-0.4028942232929825,0.27766626541961226
0.51953125,0.44005312736328805,-0.25247669888189256
0.5234375,0.665643143255518,1.3770586204790842
0.52734375,-0.7762945257996284,-0.8736719974557992
0.53125,-0.6024034611271292,1.2840010815134375
0.53515625,0.5749168758044331,0.9551931981137851
0.5390625,-0.26018907142455205,-0.6612072394204142
0.54296875,-1.145886397215938,-0.13451700439473788
0.546875,1.5875842721243842,0.8520652266135007
0.55078125,0.6648733838819326,0.47283259954247736
0.5546875,0.7277477276086258,1.8240607391254906
0.55859375,-0.5247337973155948,0.05179947248207064
0.5625,1.2567183091660303,-0.8044598429143764
0.56640625,0.32635700319096167,-0.3453985858394836
0.5703125,1.7557522266359797,-1.3403361728404235
0.57421875,-0.18781900901384263,-1.2007248498971406
0.578125,0.095343643290642,-0.01609612312135416
0.58203125,0.4269379185492506,-1.4906191171834875
0.5859375,0.2178392541881985,-0.0768321803476297
0.58984375,-0.3215257643044258,0.3725192948495399
0.59375,-0.6906964775349894,-0.5651259195361023
0.59765625,0.6218435855409506,-0.710638144556532
0.6015625,0.31556911394260656,-1.052982486456566
0.60546875,0.9017473709095652,-0.6310271455411456
0.609375,0.05833576335160739,1.2316401364378415
0.61328125,0.38923245121938926,0.3992938173174341
0.6171875,-0.1167833367015912,0.08827940892318241
0.62109375,0.42928680715280304,0.03408835225075504
0.625,-1.9516211983511824,-1.4358022876447463
0.62890625,-1.4457169084327146,-0.4869877227567017
0.6328125,-1.4233226362202933,-1.2860018037220107
0.63671875,-1.2748364181641882,0.1604036323733314
0.640625,-0.3814607723744928,0.30465882178508286
0.64453125,-0.1130560160121185,-0.6723846968017686
0.6484375,-2.1569291331989167,2.1303489407751566
0.65234375,-2.103957271786111,-0.9062950205133237
0.65625,0.07993395864390439,0.4121465899504133
0.66015625,-1.41662852544291,0.5359079138318562
0.6640625,-0.8633941946330083,0.9382256828526775
0.66796875,-1.0398531804811963,0.09637271821709968
0.671875,1.4296003132014408,-0.8856810588319325
0.67578125,-0.5879672937232,-0.8426785851505804
0.6796875,-1.3850946936169013,-1.3726442996153259
0.68359375,-0.6495102830060753,1.1283137282274935
0.6875,2.2814541681661575,-1.3649437128643829
0.69140625,-0.03852880626485009,-0.24943972676140103
0.6953125,-0.6853051894513997,1.077077238003119
0.69921875,-0.5449185853686469,0.04729963165270659
0.703125,1.143073154857084,-0.7119202909772819
0.70703125,-0.6805692529562145,-0.5476066670871953
0.7109375,1.1767341298180831,-1.8106008728572254
0.71484375,-0.5781549235484004,-0.940087349076391
0.71875,-1.2093855158046372,1.1424835449872504
0.72265625,0.12206874674164846,-0.5418507353334273
0.7265625,2.5473430842804805,-0.3091252232930229
0.73046875,0.5987097305992598,1.2551950523355417
0.734375,-1.3803273126672015,-0.5456699913825811
0.73828125,0.4959278309560321,0.5242296890308826
0.7421875,-0.7570632759346919,-0.1472139433869152
0.74609375,0.40726392915289716,0.18907132636514987
0.75,0.3068398618902144,0.64145642914853
0.75390625,-0.8257370675873115,0.3847965266517692
0.7578125,0.7531208553075619,0.6924404625471048
0.76171875,0.40617113719258385,-0.1847226148032232
0.765625,-0.41905306575895446,0.7031140057915184
0.76953125,0.33869775207695907,-0.83002823732823
0.7734375,0.2327668311676216,1.12972984963813
0.77734375,0.35905287789506374,-0.4503377622479924
0.78125,0.20180990942362467,0.45939903168955615
0.78515625,0.4420661801641016,1.4777161236759286
0.7890625,-0.7044316958013497,0.9077601486121563
0.79296875,0.38147764322305855,0.04737662884839659
0.796875,-0.6377973547246751,-2.4759487723032745
0.80078125,1.12098202669758,1.0985337896288083
0.8046875,1.1270592099440637,0.6330440143320091
0.80859375,1.0588179982071244,0.4208568117437459
0.8125,-0.12824419854713445,-0.09771585205490617
0.81640625,1.3763168690783207,1.0099447686826584
0.8203125,0.11752317280910261,1.2801512452553194
0.82421875,-1.5389026585617485,-1.5748301326500864
0.828125,-1.2001267333096692,-1.453565656806834
0.83203125,-0.25760169369174957,-0.10306322955679577
0.8359375,0.2874722003537952,-0.29603692599415427
0.83984375,0.9476619510474025,1.0740758678195614
0.84375,-1.1969937324459106,-0.16022227295929733
0.84765625,0.7476465728464363,-0.9365982800342909
0.8515625,0.4782606020444858,-0.18773669608471588
0.85546875,0.7931867670420821,1.029672424078005
0.859375,0.8418900936657089,-0.27904564740029447
0.86328125,0.4803847538881152,-0.9371982317006834
0.8671875,1.5522575730992507,1.006605560220252
0.87109375,0.9066503602130804,2.8463290471060616
0.875,-0.7593049217919269,-0.28161658067543577
0.87890625,-0.4264145740716602,0.4925071843726866
0.8828125,0.6562477169042745,1.1368051849921519
0.88671875,-1.4295872168377792,-0.34784497308488155
0.890625,0.7373308347159339,-1.978247186890067
0.89453125,-0.5713892935029926,1.2283152034739684
0.8984375,1.7636264874673406,-1.2485305876050772
0.90234375,-0.027896653873989607,0.2712471817782038
0.90625,-1.4958339002527725,0.7667275761255883
0.91015625,-0.08281905985947492,-0.024211166849877633
0.9140625,-0.7940956575045544,-0.21409988100092422
0.91796875,0.6895134649522525,0.4717618661408426
0.921875,-0.10486996385519688,0.8570538243909132
0.92578125,-1.0591121286666432,-0.39330766519453614
0.9296875,1.3426798683100243,0.9859985566909467
0.93359375,2.147488303573143,1.4376885489202222
0.9375,1.7225286750868523,-0.9837892044733314
0.94140625,0.29469718492860403,0.7231693605662162
0.9453125,1.001692407324588,-0.013872333085270572
0.94921875,-0.7104121730830287,-0.2390890001255197
0.953125,-0.6551075088863586,0.35552269995019364
0.95703125,1.0333775562035168,0.22019728145479237
0.9609375,-1.5143729315851953,-1.0447001163640248
0.96484375,2.3207952202947877,-2.2068677861427686
0.96875,-0.4810718526962743,-1.2176887009609443
0.97265625,0.5398487804843733,-0.34274104009339906
0.9765625,0.9147793541550059,1.8607056530960981
0.98046875,-1.7013382063997784,1.0797793189846752
0.984375,-0.2357111269038481,-0.9362111508657659
0.98828125,1.2112355418056837,-1.098343685126449
0.9921875,0.5183919168604872,0.6922930490587654
0.99609375,0.14077082902200988,2.996642610493353
1.0,0.6460011956248234,1.3393489250084432
1.00390625,0.3114816893892677,-0.4534822253579265
1.0078125,1.7095461469312496,-0.28412269568377146
1.01171875,0.08136972911921678,2.308280221908541
1.015625,0.5449482846154372,-0.6162329351614868
1.01953125,0.6836240757900676,0.5794474054426535
1.0234375,-0.4066205436296356,-1.2191391398491798
1.02734375,-1.0347428270163015,0.20703296975732696
1.03125,1.2938613610554028,0.7215849048172184
1.03515625,0.7063826669171774,0.9081849244625448
1.0390625,1.478525086756343,-1.1707121457431657
1.04296875,0.5882462544967828,2.1389113847050862
1.046875,0.08515928626326492,-2.6819715829781665
1.05078125,-0.02681836254551571,-0.7520317926405463
1.0546875,0.277069236743876,1.319429651802601
1.05859375,-0.9513302408439563,-0.49328192641769786
1.0625,-1.2279875868033403,0.5287298524452975
1.06640625,1.1098832866703239,-0.09070799755616116
1.0703125,0.20761529256310643,0.35262726113045645
1.07421875,0.7015714774378171,0.5261048019127031
1.078125,-0.39024274778403667,-0.6581689527304081
1.08203125,0.3242190618455483,-1.5733063044420155
1.0859375,-0.25090558801723434,0.5068846829329303
1.08984375,2.1787871291357255,-0.23387861687143416
1.09375,0.09756826381965107,-1.5240457146076873
1.09765625,3.1297151893881043,-0.9990475370235617
1.1015625,0.771008254820565,-2.359032832706699
1.10546875,1.9906734045435137,0.9814456844757182
1.109375,-1.2632532873360593,0.7558263775300187
1.11328125,-0.8066776893301265,0.6101949456589716
1.1171875,-0.22438504398158343,2.3209766262343683
1.12109375,-2.748114154440671,-1.2398603763268103
1.125,-0.45826965433233335,0.013494490570994513
1.12890625,0.17180908856105878,-0.48027187017017614
1.1328125,-2.154338708762238,-0.6765981413694773
1.13671875,0.3787836295141177,-0.5624618641293634
1.140625,-1.762792667020092,-1.6340945895882792
1.14453125,0.3161334318196806,-0.011720439643188115
1.1484375,0.35764782528937267,0.10504217454742915
1.15234375,0.9108127338875609,0.20828100623288767
1.15625,-0.9634960659573456,1.0207472006935954
1.16015625,-0.6191365886371184,-0.24340126789959204
1.1640625,0.7146313988136554,0.3369209251060561
1.16796875,1.4588539781607166,0.9693183509861782
1.171875,-0.2428335720070674,-0.7719710208556377
1.17578125,-0.4234964796724155,0.5322362727099308
1.1796875,0.8322088047118752,0.5791392900061431
1.18359375,-1.2406812479109428,0.5552206783934931
1.1875,0.819356094582982,-0.3054705947268362
1.19140625,-0.8281391193081922,-0.47889417841237
1.1953125,-2.395723077170386,-0.9355755293995022
1.19921875,1.0686395065039236,-0.9730648341677488
1.203125,0.032539414993893956,-1.7311024238398103
1.20703125,0.039113210590905056,-0.33231788086482167
1.2109375,-0.7294786613561597,-1.866310583666603
1.21484375,0.18579510875550082,0.8564599001108725
1.21875,1.2270326311222177,0.37204935630549923
1.22265625,-0.09472243394494115,-0.0777210974882098
1.2265625,-1.4377484021456401,-1.4524955126111472
1.23046875,-1.148231399795864,-0.04400946138117258
1.234375,-0.49814269671236244,-1.172475537459497
1.23828125,-0.2888865906566398,0.28657985736840574
1.2421875,0.12664893743047395,0.24180582417753388
1.24609375,-1.19325053658579,-0.1676423500840441
1.25,0.34636235004504823,0.3174568018714328
1.25390625,-0.4899226631156007,0.3915367684255066
1.2578125,0.3967818591177715,0.427403403067681
1.26171875,-0.09232951435479227,0.15900962650430828
1.265625,-1.5748963651199805,-1.6923620957081267
1.26953125,1.7710941288410635,0.8004248436366171
1.2734375,1.2510593739896676,-1.364721694483479
1.27734375,0.6569482161281563,0.5437715229312041
1.28125,0.5632709491663289,1.8865805438988803
1.28515625,-0.5941929577091808,-0.47240031618439626
1.2890625,2.258683644994897,0.2773422389943758
1.29296875,0.3201866962932294,-0.8034509257257209
1.296875,1.4554987407094322,0.2719242475465498
1.30078125,1.7427785864484733,-0.2681550094987203
1.3046875,1.362592368012472,1.642606828466294
1.30859375,0.6497002119852924,-0.3409754955904794
1.3125,1.2303682345115716,-1.06827159414382
1.31640625,-1.1421701823466048,-1.0130040013299793
1.3203125,-1.7142148334769378,1.0661616962931533
1.32421875,0.3866144233048653,-0.3158808956981614
1.328125,-0.17813925141787737,-1.5337205467408774
1.33203125,-1.0055416640974721,0.1487663564413962
1.3359375,-1.1279291782231837,0.5010478562815119
1.33984375,0.565100419976174,-1.4365237484642532
1.34375,-0.034600575692321056,-0.26777357381854655
1.34765625,-1.683730302577027,-0.2574018704616673
1.3515625,-0.3226727267897436,0.13473499090987154
1.35546875,0.25419396018447465,-0.27906752568310633
1.359375,0.8418910176425084,0.8847115036722806
1.36328125,0.48994464010547184,1.0509337946228463
1.3671875,0.37671169846821956,-1.551505826472533
1.37109375,0.4815413411493672,-0.9014667712679567
1.375,-1.9681665708643066,-1.0862367764531602
1.37890625,0.6669973191430023,0.6830338087367643
1.3828125,-1.1918644789396817,1.9840419789567854
1.38671875,0.8600948718548954,-0.47109295247398314
1.390625,0.22074688958070654,-1.0032404426765156
1.39453125,-1.5586283554588847,0.6519396608243072
1.3984375,1.0218250161606615,1.182194998471259
1.40234375,0.918032549548721,0.3528267088711161
1.40625,-1.0034543122127504,0.09065131683038957
1.41015625,-0.3266338524106762,-1.3212954354720874
1.4140625,0.7991203166014855,-1.410547028106268
1.41796875,0.2084037423461182,-0.11537730403967408
1.421875,0.6028917485877072,-0.19793649797406798
1.42578125,0.07431645652281113,0.5461575750948585
1.4296875,-1.3785375837412317,-0.07686180576786712
1.43359375,-1.8753577340380514,0.41674205245011986
1.4375,0.11165997768424898,1.6185349860421456
1.44140625,0.24179910678820254,-1.4946544639308605
1.4453125,0.26096442688325217,1.1083032808895183
1.44921875,0.7559799096024935,0.9472617630603449
1.453125,0.08852742206378486,1.038359752126133
1.45703125,0.7313574633423495,0.20208058976224438
1.4609375,-0.4163630870245413,0.5627093988559579
1.46484375,-0.13039202583828013,-0.26503562582917267
1.46875,0.17791146803682853,0.7254178462360719
1.47265625,1.8699110019309368,-0.5263370043803192
1.4765625,0.09932445292511786,0.4476418473376514
1.48046875,0.08460685374777345,0.943178983661679
1.484375,0.03458070148657101,-0.7546268202821901
1.48828125,1.6110638012209224,-0.3599063454461365
1.4921875,-0.6498998684508096,-0.7549816694286137
1.49609375,1.4556259369272724,-2.376916196327081
1.5,-0.8248730712841511,1.681977778995446
1.50390625,0.810293220587576,-0.42663819718291823
1.5078125,0.041535051064737497,0.05385665421187512
1.51171875,-0.025757279337564925,-2.2473471858770715
1.515625,-1.1544354781383723,0.4991075312248699
1.51953125,0.08689476717734354,0.12086899798097649
1.5234375,-0.028850877169509286,2.5738157008782023
1.52734375,1.1098637418395525,-0.4721569599498493
1.53125,-0.8600480592329209,0.8901168741695257
1.53515625,0.3315179365960553,-0.07989166468760922
1.5390625,0.6566394813071234,-0.6327913195471784
1.54296875,1.2684871945272005,0.8023057044654163
1.546875,1.4378908436298725,0.03521238924484297
1.55078125,0.3862555757896145,0.5894858211235771
1.5546875,1.3052285214154982,1.7226391724637629
1.55859375,0.07411196767515817,2.07885439914399
1.5625,-0.9511160971993292,-0.7248486573918109
1.56640625,-0.2750078041902257,-0.16575627992524572
1.5703125,-0.21721866807633075,-0.8581377141417472
1.57421875,-1.4753315398070923,1.4284866617477145
1.578125,1.691345445865038,1.4989512724816088
1.58203125,0.24842522592522553,0.16383333910206996
1.5859375,-1.145713724428801,-0.4552088498181347
1.58984375,-1.013427085684794,-0.4878560913710739
1.59375,-0.7703431607430932,0.9296305350334557
1.59765625,-0.43316974359016197,0.6823862076279723
1.6015625,0.9569155796613653,1.0009395888090875
1.60546875,-0.3196060330161341,-0.5182940579139602
1.609375,0.9353421890881031,0.6362929068571626
1.61328125,-1.770679615998213,1.0116756200823462
1.6171875,-0.9044441157998244,0.28208550525036413
1.62109375,-0.6022839947767481,-1.0948986840681754
1.625,0.8770321968732585,-0.8478181825475892
1.62890625,0.7368101312819963,-0.6784376966726883
1.6328125,-1.102754783334308,1.4450805793230377
1.63671875,-0.7868413242705112,2.41422556589413
1.640625,-0.5623308528366227,-1.018011104592387
1.64453125,-0.05776787522562744,0.28735676455047965
1.6484375,0.3396190403973864,-2.405388691598652
1.65234375,0.6000559390456739,0.7171998115454296
1.65625,0.6476737199192616,0.20172373359362655
1.66015625,0.876820789930369,0.8391206701519107
1.6640625,-0.06398988955099093,-2.0029958915135744
1.66796875,-2.670633320065242,1.8428164685246835
1.671875,0.5406084023313658,1.1109825855294866
1.67578125,0.6512683603932715,-0.8448747261004038
1.6796875,0.8885084759062812,0.20646096819359888
1.68359375,1.3493081431275662,2.2888327445282126
1.6875,-0.02089142932895526,-0.2113300298749298
1.69140625,0.9679805187253757,0.012078837005805441
1.6953125,1.017441809305383,1.4446826852316845
1.69921875,-0.020724981141539374,-0.6020765706138873
1.703125,-1.6280000326170296,-0.8668690023866001
1.70703125,1.5414383782030128,0.05602996900540904
1.7109375,-2.1084257020988306,-2.0068199494682544
1.71484375,0.36805157284343554,-0.3721715112773627
1.71875,-0.027421890666357036,-0.3599750937492852
1.72265625,0.35043280732582915,-0.6863262311039677
1.7265625,0.36718441906948635,-0.17759560133478225
1.73046875,-0.7222069441801371,0.8683239174219254
1.734375,-2.1048833794698134,-0.24191965850437724
1.73828125,0.4115394655601185,-1.3557699736618702
1.7421875,-2.2030306021998376,1.0602801479525457
1.74609375,0.925101897996094,-1.435265043227648
1.75,1.5594620328123157,1.5806985094614143
1.75390625,-0.14534598230866783,0.10846277630541776
1.7578125,0.19659716409783878,0.5524277100817543
1.76171875,-0.9605805906363716,0.9955253250194117
1.765625,1.4443639876197893,1.5582159955001786
1.76953125,-0.12215353811689542,0.8257459038109833
1.7734375,0.6446235694187123,-0.076467104586417
1.77734375,2.007003923379478,-0.5544001212051085
1.78125,0.10959615576843673,0.3132499633623073
1.78515625,-0.22723418297818657,-0.7464541282872996
1.7890625,1.5774875045938357,1.3436752195183597
1.79296875,-1.0052629339663877,-0.9091034735259389
1.796875,-0.8773543678951173,1.2633395055702468
1.80078125,1.307884830681273,-0.1872150602251817
1.8046875,-0.19786332885200694,-1.6872896564175783
1.80859375,1.1445762204951582,-0.9868010929934304
1.8125,-0.7442819838412746,-0.1260388124975596
1.81640625,1.5927410039264818,-1.9872669111283614
1.8203125,0.6027190721585938,-1.2267981588370815
1.82421875,-0.3999423982131079,-1.2093010240250135
1.828125,-0.2590920267099382,0.34515978261046276
1.83203125,1.516336162297447,-0.6017992632617492
1.8359375,-0.7139295818389433,0.7547596358893821
1.83984375,0.23590917759509453,-0.21828410663551082
1.84375,1.1241633685697825,-2.8638999737182274
1.84765625,-0.7608264147194472,-0.15600998181764725
1.8515625,0.7103146751170486,0.9843638137013584
1.85546875,-2.368903017113293,-0.3512972083568954
1.859375,-0.9647678414572514,1.9876825940619338
1.86328125,-0.5584934046864134,0.6509912334193458
1.8671875,0.6405950509879053,-0.25600322871875986
1.87109375,-0.9262301970683039,-0.31631678432983074
1.875,-0.598401951933331,-2.1685437221896247
1.87890625,-1.0796236299458843,-0.5519479338634464
1.8828125,0.44164919973151184,-1.5843786935165203
1.88671875,0.301656553401331,2.0518680535081972
1.890625,-0.6462906370894871,-0.1953230354270524
1.89453125,1.541677885591496,-1.8017675956904666
1.8984375,0.20719179162515855,-0.8220789087168346
1.90234375,0.2108598147851082,0.5242288451063939
1.90625,-0.7214258855980903,1.531508528713861
1.91015625,-0.7622082844919427,1.4575372523008034
1.9140625,0.12162291844717908,0.4332525082521754
1.91796875,0.13229215003521688,0.7254476918793484
1.921875,0.38172251478863956,0.8977169982461126
1.92578125,0.1561240288017567,1.2580416218096975
1.9296875,-1.1285751486051314,-0.4251132142557064
1.93359375,0.5545849430668747,-0.20621129670273716
1.9375,1.4625950629791455,-1.346976102083376
1.94140625,2.341751990545687,-1.275813001812407
1.9453125,0.2089111204612285,-0.17088891766871458
1.94921875,-0.35361717898911205,-0.4496518003292967
1.953125,0.3382159120664767,-0.5262245007680891
1.95703125,1.432829231149223,0.9834139667756489
1.9609375,-0.6815769571471197,-0.4573270408970928
1.96484375,-0.6289755562967777,-2.103466747051336
1.96875,-0.8201867239296777,-0.09949780512690437
1.97265625,2.358399431816618,2.1772234004912803
1.9765625,0.3617888403645928,-0.3663609880451221
1.98046875,0.3340976054638611,0.34390738227437995
1.984375,-0.6511483245671035,-1.8556858543795338
1.98828125,-0.2541502047709796,0.29649390621140825
1.9921875,-1.078301393162495,1.3284033191073121
1.99609375,0.4023428186514821,1.2596656643615098
2.0,-2.276618665821362,1.344156176417478
2.00390625,-1.6427495130701149,-1.3975916253652563
2.0078125,2.2718778188956685,0.4020204046588016
2.01171875,-0.902616333488842,-0.2820056423978755
2.015625,0.382065117773182,-0.4115457312816204
2.01953125,1.0884382285136585,-2.1421243168889084
2.0234375,-0.8849694846271091,1.4579352440938629
2.02734375,-0.40416319022424946,0.41889077742566094
2.03125,0.10304704101639316,-0.632843037502279
2.03515625,0.047242955781949834,-0.5876352317343743
2.0390625,1.0194024789024048,-0.6382056666663194
2.04296875,0.20818063823200653,1.6362734411232718
2.046875,-1.5490774758669106,2.191766486656737
2.05078125,1.7132058994450945,0.7224921798341546
2.0546875,-1.9709343117711202,0.7675671432448894
2.05859375,-0.5369571375342859,0.913477591713548
2.0625,-0.47908013381870457,-0.1073336622307833
2.06640625,0.8756737271630237,-0.6094613418838751
2.0703125,-0.21134395041105627,-0.5859473455298676
2.07421875,0.29252318469148914,-1.3231204300220327
2.078125,-0.05014238692330785,0.8690733804221557
2.08203125,2.2256262329069965,1.4905945803250027
2.0859375,-0.9761875424245497,-0.08038748268359262
2.08984375,-1.037518498600784,1.7241080442387569
2.09375,-1.5736768224120545,2.809420261039449
2.09765625,-0.273525028172572,-0.18482521530979007
2.1015625,1.2062278173501475,-1.3388740569423199
2.10546875,-0.7125274861975956,1.3824410747516191
2.109375,0.0876808093656634,0.7582955835608198
2.11328125,0.09111672477302607,1.06630655233608
2.1171875,0.6408569765909419,-0.8307972460136765
2.12109375,-0.5668837193354902,-2.0153588040170156
2.125,-0.5562354051371138,-0.6092014134427878
2.12890625,-0.12776622820571956,-1.4907129430369375
2.1328125,-0.7059718188390122,-1.6650078320937722
2.13671875,-0.6260492506612542,0.15209866210813106
2.140625,-0.35471084408133285,0.8791275485035586
2.14453125,-1.8060309136878305,0.39478618657279246
2.1484375,-1.6939411452044748,-0.6064126168668521
2.15234375,0.4938490071991396,0.4787718158675196
2.15625,-1.280198927954181,1.3705920735879238
2.16015625,0.6580454863408092,0.5392812573511399
2.1640625,-0.43626170100938816,0.7238408602892895
2.16796875,-0.6148517768028786,-1.4620411862348943
2.171875,0.25688132482642617,0.7211052708627989
2.17578125,-0.16442127991678046,-1.7220720337047553
2.1796875,0.5795065989295836,1.0127742698027566
2.18359375,-0.6485543212324998,0.9736205750225809
2.1875,-0.14442339986192781,1.7302881552195963
2.19140625,0.06420098665284393,-0.5440707760068183
2.1953125,0.9936406311939692,-0.2933432422373033
2.19921875,0.1158324699857628,-1.2414802658192756
2.203125,-0.5223681214698037,-0.1312131488986888
2.20703125,-0.5688269612673174,0.831831391461457
2.2109375,-0.8042834343675502,0.2092126831245818
2.21484375,0.8146301720190202,0.6769062252097506
2.21875,-0.7425998045313834,1.312116389037519
2.22265625,0.12562798170359493,0.14301642679613524
2.2265625,0.19013644671977223,-0.7515953161313363
2.23046875,1.3453590155368156,0.8398411586587435
2.234375,0.13641171897655463,2.351957648504917
2.23828125,1.148597595365139,1.8012882197440052
2.2421875,-1.8472448992357744,1.7651236649815616
2.24609375,0.4476074706385673,0.6453596388917118
2.25,-1.3189972435727602,1.8494507378420728
2.25390625,-0.7130395054369681,-0.251676730489809
2.2578125,-1.2807047871867823,1.349097764048561
2.26171875,1.0152947320554362,-0.8241280502800682
2.265625,0.40418063699112444,2.020971042640128
2.26953125,0.6247463990648947,1.6864447178558843
2.2734375,-0.7406821378579118,1.2679042335368642
2.27734375,-0.06940366604336826,-1.1026189205523644
2.28125,1.8179334303745371,1.6198173317933735
2.28515625,-0.690879000158521,0.1492115214489154
2.2890625,1.3607194480221532,0.34942248749381893
2.29296875,-1.211896735981132,1.605754107758426
2.296875,1.2306424438772052,-1.342951063378668
2.30078125,-0.733019568145336,-0.6371756865933705
2.3046875,1.498279061145603,-1.3521534358819904
2.30859375,0.1339075720780244,1.0592266521087843
2.3125,-0.9787317763106195,0.15611774712383836
2.31640625,0.4063214035635293,0.6227892312287538
2.3203125,-0.964213439782659,-0.13347711880870464
2.32421875,-0.7425051723596323,-1.633331143758006
2.328125,-0.459459987459747,-0.4456035143748213
2.33203125,-0.005424885659996905,-0.8391237840845034
2.3359375,0.2364635913568449,-0.8688465852724039
2.33984375,0.7407071684717335,-0.9510281456707381
2.34375,0.09763524772557439,0.4030322564970471
2.34765625,0.8230041728497483,0.793670021040657
2.3515625,-0.21592620606910523,-0.6194668960510972
2.35546875,-1.351419104008149,0.6634303856353665
2.359375,0.19785264485214266,-0.20963165165677808
2.36328125,-1.8543207169090625,0.7726104499648205
2.3671875,0.6789369376695842,-0.47714067324400367
2.37109375,-0.02602249813764183,0.8366891004159646
2.375,0.18012013104984032,0.180668340332213
2.37890625,2.2904466951269566,-2.237403428957367
2.3828125,0.5527533645527837,1.4755774775028716
2.38671875,-2.0442685262021714,-0.28288797036332025
2.390625,0.5108705491996809,-1.4563142334478976
2.39453125,0.8094205315759775,1.56471136801097
2.3984375,-0.224582105052283,0.9182837492653867
2.40234375,1.2022961625317758,0.6475418753765063
2.40625,-0.8351916570866758,0.5151353444265797
2.41015625,-0.6617060211226108,0.44850824559781227
2.4140625,0.7430095059270286,-0.40203213139857946
2.41796875,-0.5863360232030366,-0.2665446933978097
2.421875,-0.1977115440631143,-0.15754552723833923
2.42578125,0.17714662573243437,1.3180015959340776
2.4296875,-1.3079347420898628,0.2256961857944734
2.43359375,-0.30425967302294393,2.3897845780070393
2.4375,-0.23335022698869531,-1.5466464322883664
2.44140625,-1.666847499446961,1.4439621328324372
2.4453125,-1.3868661106440063,0.6100650416000898
2.44921875,-0.1022161764828046,-0.7805039257168095
2.453125,0.3206819193772228,-1.141687480810864
2.45703125,0.4871779297408874,0.9269870499156023
2.4609375,0.03651736858276222,-0.2937180604616189
2.46484375,-0.06363138970318125,-0.5987682496237925
2.46875,-1.4504300911210486,-1.8887570253564598
2.47265625,-0.4537819080233713,-0.6195799507995362
2.4765625,-2.1302286918014244,1.0678742159962558
2.48046875,-2.017351174688848,-0.644531682600103
2.484375,0.10698594750256733,-1.4686937993235143
2.48828125,-2.178103666383754,-0.06386899372573679
2.4921875,0.297671787952158,-0.028780328464779705
2.49609375,-0.4006106174217825,0.32048850805765927
2.5,1.0986143724539414,-0.2702526052595766
2.50390625,-0.7313465496841468,-1.2062409983935103
2.5078125,-1.045810496250116,0.6924284019609955
2.51171875,0.9518923398201543,-1.0987047950735196
2.515625,0.6993056697524227,-0.4343530464292863
2.51953125,-0.008376457581778572,0.04092424531514243
2.5234375,0.16966274104582926,0.6788540730049554
2.52734375,-1.2560542093535565,-0.8046867227943524
2.53125,-0.22725419276568945,0.5317569766293888
2.53515625,-0.017055789720201428,-0.1129727609578158
2.5390625,0.9511662404558436,0.9578937032890058
2.54296875,0.9648809379927757,-0.6543574121091409
2.546875,-0.38311100299888506,0.526752497074527
2.55078125,1.1751733092190424,1.0223499583797038
2.5546875,-0.11281748502823812,1.401760825768581
2.55859375,0.03588678330097944,1.2881773781274166
2.5625,1.6050094430646986,-1.8673833888349247
2.56640625,1.012744897825933,-0.007657686710091911
2.5703125,0.3928686690346445,0.7239815449250904
2.57421875,0.1371045742951674,-0.3545415689715657
2.578125,0.9873722612737483,0.6702999046455705
2.58203125,0.21488600079226663,-1.2353048229036379
2.5859375,0.306420006565212,-2.6068764365975854
2.58984375,0.6428035140448911,-1.3737849296334652
2.59375,-0.8126547207684239,0.4001526985887754
2.59765625,-0.6052961593182438,-0.12763050976729662
2.6015625,0.16585759846952397,-0.28404184966377877
2.60546875,-0.43551683862868257,-0.21021333450498456
2.609375,5.35964483025271e-05,0.7040030486829487
2.61328125,0.4229065776628351,-0.09530269153202295
2.6171875,1.2078751601778954,1.2183782630005697
2.62109375,0.7043593217869918,0.22192335178319464
2.625,-0.04753661394370965,-0.21673025493734321
2.62890625,-0.2716323450159758,-1.7628173064176296
2.6328125,1.0018021762610798,-0.6900754813716784
2.63671875,-1.5104142582705087,0.5852550874728473
2.640625,-0.7079693402243439,-1.9466935349790637
2.64453125,1.5823612980209276,1.989282146784865
2.6484375,1.0792716665331041,0.3864883795060484
2.65234375,-0.45248776994909073,0.19446732728278499
2.65625,0.0723910361543764,0.6477996046468363
2.66015625,1.3805031229416036,-0.17268774511594176
2.6640625,-0.7691916169547146,-1.0561264908921562
2.66796875,-0.7698183285937165,-1.3566225752024954
2.671875,-1.151699006157333,-0.9709217626719518
2.67578125,0.33579859654386784,0.7061415446051136
2.6796875,-1.666081906278408,-1.1435578266929725
2.68359375,-1.7585240748215967,0.4302324345060657
2.6875,-0.3742055186613888,-0.129137137111096
2.69140625,1.121578039173702,-1.899190818158475
2.6953125,-0.7050719986585392,1.0491485965060217
2.69921875,-0.06921960642693643,0.20335038695767807
2.703125,0.3143854090619907,-2.1095016964775106
2.70703125,-1.0164856916626592,0.5589745444242931
2.7109375,0.23508827343612934,-0.17748896819159243
2.71484375,-0.6079065766057706,-0.8917145684915468
2.71875,-0.22323391156315037,-0.9780340902719403
2.72265625,0.6240905568022075,-2.1157222331477996
2.7265625,1.2661403359657017,0.9836916759088582
2.73046875,-0.09685810475798048,-0.1045526665534155
2.734375,-1.6377300242099446,0.19208093308242888
2.73828125,-0.08065102787019314,-1.2156217507623948
2.7421875,0.34917272431055824,-0.7135065184709838
2.74609375,-0.2402644227266598,0.4584306014309045
2.75,-0.2009185827115096,0.18028751845861715
2.75390625,-0.6087154189615298,0.04239094344524393
2.7578125,0.4710489203725107,0.3948905855622394
2.76171875,-0.21986655016557877,0.3230388678071395
2.765625,1.1699218986750346,0.5353641246424039
2.76953125,0.04543386157980995,-0.5564484878404244
2.7734375,-1.955197845715236,1.1314797645985204
2.77734375,-1.13810602420462,-1.4666140545459208
2.78125,-1.5177723252121946,-0.46963095605318933
2.78515625,0.8995551214761301,0.7477272165642658
2.7890625,-0.43536916692981886,0.6440707407107665
2.79296875,0.6580758123570888,0.6742074906094855
2.796875,-0.8359613516450822,0.03334204453806838
2.80078125,0.47347877809137695,-0.2579646205252249
2.8046875,0.29795377881026136,0.8461587073077402
2.80859375,2.2001118331062033,0.09829497307890636
2.8125,1.78693688332176,-2.2812697393317696
2.81640625,-0.0642196855422898,0.8538732982460125
2.8203125,-0.4252601852106231,-0.01776379705097434
2.82421875,0.7120579179648221,1.2040864150355977
2.828125,-0.6571230279004181,-0.8769802178484872
2.83203125,-1.021119812783738,-0.20576676218123569
2.8359375,1.344280901958282,1.1649933238033683
2.83984375,-1.3527355165442048,-0.09875120399036617
2.84375,0.326381983958538,0.9723995664556797
2.84765625,-1.7479855802993283,1.6820495077752287
2.8515625,1.1196115436165763,0.7420540339611018
2.85546875,1.096073157994842,0.21077422519446262
2.859375,0.4047886822625327,-0.17812899476090485
2.86328125,-1.609314684158485,0.9130486132837313
2.8671875,0.5362014966998485,-0.699512739336738
2.87109375,-0.7908326953417335,1.5126640096309083
2.875,0.12607103449140888,0.3672758016363755
2.87890625,1.008170930206714,-0.06850773913903191
2.8828125,-0.5104989552351927,0.018284867379892454
2.88671875,-1.6877713630202902,1.091231328369094
2.890625,0.4475709201337504,0.730631456928223
2.89453125,-0.730975616468878,0.8895339283372371
2.8984375,1.001767719800843,1.5725182794241144
2.90234375,-2.264963974924342,-1.0781357866689676
2.90625,-0.7915401839964933,-1.508349816283196
2.91015625,-1.118282308641904,0.8290667565900183
2.9140625,0.8657480137958125,-1.0835637086928274
2.91796875,-0.18948816810678237,0.5469430394221517
2.921875,1.0484735174793811,-0.551653434336628
2.92578125,0.1611910600687345,0.7010034452997053
2.9296875,-1.6495061290876767,0.3010971676085391
2.93359375,0.5755881055414356,-0.6484203186435038
2.9375,-0.722003138425731,1.0839764448797744
2.94140625,0.3165464435324328,-0.2947728293118235
2.9453125,1.1965871953975264,-1.2269469815704355
2.94921875,-0.13815058513946274,0.26958382361486866
2.953125,0.7482416344767336,0.2609952127885541
2.95703125,0.9481764821563756,-1.3494994233238413
2.9609375,-0.3607732132725388,0.31356090110962476
2.96484375,0.541991416047375,0.3129241967574402
2.96875,-0.991808218976922,1.0393096848732073
2.97265625,-0.06731522966862148,0.12190181666016033
2.9765625,-1.0968747927222247,-1.9406756139346837
2.98046875,0.5278587667314816,-0.5660753687469543
2.984375,-0.5616951153086206,1.3309589825524366
2.98828125,0.6458104503804747,-1.2303039615072082
2.9921875,1.205113711096403,-1.8008648650243197
2.99609375,0.9975122610744531,1.0368688909572032
3.0,-0.5939752099901123,2.54239746317222
3.00390625,1.0703781313152538,0.3756868453993682
3.0078125,-0.9594709156182964,0.770840988820702
3.01171875,-0.5357337510560268,1.2976439257251546
3.015625,-0.2152138958292229,-1.4608484830011756
3.01953125,-1.070643323111984,0.839054737900926
3.0234375,-1.4333404293950598,-0.3518487632069624
3.02734375,-0.5901749753308113,-0.24542826278462399
3.03125,0.7940635679394205,-0.3047571096912557
3.03515625,0.8698626408478481,-0.36702837204483113
3.0390625,-0.008878632240699121,0.4900331878816723
3.04296875,0.7046393515538082,1.734622985127877
3.046875,2.2595634941200706,0.5265320634537796
3.05078125,1.3179261019315425,-1.5038044856668618
3.0546875,-1.4597442784419654,1.287176060688241
3.05859375,1.699429343847812,0.9240439154508872
3.0625,-0.09134195304023876,0.5655757946494876
3.06640625,0.9648875840766911,0.9944398061272475
3.0703125,-0.3643486178937235,-0.27200151766336134
3.07421875,-0.39826102568128346,0.05699491209356456
3.078125,-1.7372434805407408,0.38232027451275186
3.08203125,0.997718019439888,-0.2903005627031018
3.0859375,0.5568262668019831,1.1780343319911608
3.08984375,-0.26867436841735526,0.6159891177621594
3.09375,-0.0804291874887822,-0.49513326818545955
3.09765625,0.49360055739872605,0.258084072722489
3.1015625,-0.08969490360130328,-0.10949740627538067
3.10546875,-0.20494820911276987,0.22051655844311352
3.109375,0.21144968230964595,-0.5801030049633165
3.11328125,0.04241785337837494,0.5664666484187357
3.1171875,-1.1972686877129424,0.18630848537182979
3.12109375,-0.0313759349585093,-1.142246253826222
3.125,-0.7787190120894748,-0.6780698169352662
3.12890625,0.4206008093242787,1.7700382342371768
3.1328125,-0.9998096071889645,1.3359904084908854
3.13671875,0.5403123740241126,-1.0939261675423078
3.140625,0.7558172234652352,1.0485817480171773
3.14453125,2.0125470517111466,1.7349635146942173
3.1484375,-0.6377061015476552,-0.666340414010011
3.15234375,-0.3616043320053274,1.1426105041384775
3.15625,0.49185863203283536,-1.4101906584418535
3.16015625,-0.5599354493441695,0.5711657491528929
3.1640625,-0.7065390133748698,-1.3130680287345926
3.16796875,1.772538252756674,0.9963560333990986
3.171875,-0.5643855421203529,-0.5735306753476609
3.17578125,0.5742544249395392,-1.2617170807065223
3.1796875,-0.7599041421833773,-0.3516380179704596
3.18359375,-3.0756605027856834,-1.995807615501288
3.1875,0.9879271890606274,0.30543843154426337
3.19140625,-0.06742222819012321,-0.6110663851599177
3.1953125,0.6906519822329923,-0.20370759677289327
3.19921875,-0.6761716392407295,0.7608176421805849
3.203125,0.22405730881214214,0.0990928295286454
3.20703125,-0.06978304104819641,1.116738698603608
3.2109375,-1.4964780568090064,-1.4704612791040763
3.21484375,-0.228373207280148,-1.8036499206751209
3.21875,-1.3106267922612953,2.656140078035241
3.22265625,0.24843150340299314,-2.1384884135603093
3.2265625,0.06640357339483594,-0.08029673484159414
3.23046875,1.348059960575447,0.07421852152903026
3.234375,-0.33759667426795037,0.7991479394709804
3.23828125,-1.111092119191834,0.5310955435300009
3.2421875,-0.6186305750269913,-0.31894662514346184
3.24609375,-0.5145401705379472,-2.089851498278611
3.25,2.061097488334238,-1.2078295154821994
3.25390625,0.11808828846428954,0.630862811661998
3.2578125,-1.245674286792655,0.2770274062436897
3.26171875,0.8041053942445933,0.0840927209089098
3.265625,0.6411090598454634,-0.19684246700061478
3.26953125,0.10107678800529646,-0.3817104691555848
3.2734375,-0.19925263097123,-1.8839327493459308
3.27734375,-1.3150540444349723,1.5210543390630686
3.28125,0.8260545352490706,-0.6682521800463592
3.28515625,0.8724001812940693,-0.059629336089657974
3.2890625,0.963986896767731,-0.003174364162393164
3.29296875,-0.12342406867335985,-0.11273664188820162
3.296875,-0.6128937412507451,0.12544807857552834
3.30078125,0.05436374899426648,0.17154501466378272
3.3046875,0.5917143543245093,0.46947443424535706
3.30859375,0.7540297833462577,-1.6300601052872523
3.3125,0.301903061897989,2.4401634901081564
3.31640625,-0.12772827854720636,-0.26445108013163193
3.3203125,0.5438547219176376,0.8835135722712159
3.32421875,-0.06253544138119242,0.2452759953364466
3.328125,-0.030806764939782502,0.7615411875797017
3.33203125,-0.8377197545129627,-0.4841977089892349
3.3359375,1.2214244989402234,0.6222972301035276
3.33984375,-0.326402397422724,1.7655891308710083
3.34375,0.6624044800505576,-3.022973101987852
3.34765625,0.007846854833069315,1.2642103464734176
3.3515625,0.6863158713313776,0.7011546460169503
3.35546875,-0.835245498105217,0.040648648827389465
3.359375,1.2428806553144134,0.4767252166744964
3.36328125,0.6897486377250662,-1.5499964634760413
3.3671875,1.2092793605652947,1.1020162189774096
3.37109375,-0.5287734783137006,0.6641472138133595
3.375,2.2229463686236057,-0.7759148259171659
3.37890625,0.22835617603989797,-0.21151417438471745
3.3828125,1.0079762704467548,-0.9192360638248722
3.38671875,0.2648399110274785,-1.191803979956081
3.390625,-0.34962244033130035,0.059232364332538645
3.39453125,-0.06692124195077376,0.05085040752385307
3.3984375,-1.6444740209198525,-1.4664971553184436
3.40234375,0.6868140796296962,-0.20028845251535726
3.40625,0.5606164666938697,-0.9519481369134261
3.41015625,-0.5662341670742452,-1.071258728365027
3.4140625,-2.1468842944373727,-0.3097480871326282
3.41796875,-1.0075813816032364,0.43652800113440915
3.421875,1.2649746245009268,0.14082802173039227
3.42578125,1.7356168507542624,-1.2202773984133692
3.4296875,1.0001661217317648,-0.9718435422460581
3.43359375,-0.33769485509335057,0.4276598240478259
3.4375,1.8285398096700165,1.5888789461086505
3.44140625,0.4344873976059037,0.5913731321906234
3.4453125,-0.7140987924296534,-0.27178034715643545
3.44921875,0.13757834433040364,0.9093637370994198
3.453125,-0.5273333238180076,0.11382989443747203
3.45703125,-1.5472040507863416,0.8688225843324322
3.4609375,0.2029820491769105,-0.23198299676351644
3.46484375,1.4519626735504576,-1.36897079294086
3.46875,-0.6357177852722036,0.29155640860701376
3.47265625,0.9256032312425221,0.6058473718104113
3.4765625,-1.126439913076921,1.8588222444617182
3.48046875,0.8999923533976125,0.5020271384928581
3.484375,0.9272957414250117,-0.8304738383586262
3.48828125,-1.8791566850667047,0.13939026617951245
3.4921875,1.2309891539458744,0.9944367442143668
3.49609375,-1.200576871664449,1.3728972767471856
3.5,0.6638738945356655,-1.4800221303918912
3.50390625,0.5694175077077128,1.326436187036143
3.5078125,-0.5652085380796175,1.162849859355062
3.51171875,0.3560297493191288,-1.0890399099581063
3.515625,0.4640957719554469,-0.693993227000403
3.51953125,0.2345327086549142,0.5540304814680933
3.5234375,-0.7447698468917816,-0.09249715104282145
3.52734375,-1.3215583419975185,-2.7492705682702914
3.53125,0.7999588354819224,1.514073722660143
3.53515625,0.369523755304365,1.770742508622109
3.5390625,1.9877876628218634,-0.08791254300273676
3.54296875,0.950459625504719,1.3439254528791307
3.546875,-0.1546677648026611,-0.06812490098071235
3.55078125,1.5275474091331471,-1.0363586254125465
3.5546875,0.895996351368163,2.0133317429930475
3.55859375,1.013777706525795,0.7526961089873866
3.5625,0.39784549059138274,-0.8875605667587056
3.56640625,-0.8437692104439576,1.1995837458833225
3.5703125,-0.3320972608752082,0.4739329525868601
3.57421875,-1.2330798538638144,-2.1577937793877098
3.578125,1.2686937937542704,1.8163085412666804
3.58203125,1.6504193045911688,0.6016676707702494
3.5859375,0.24345022956743353,-1.6109381892361705
3.58984375,-1.125415090327909,-0.23352928540407858
3.59375,1.2842127090448823,-0.35433057380162497
3.59765625,-0.2260049030764659,-0.4480612452230351
3.6015625,-0.8450927570386761,-0.10152984489895428
3.60546875,-0.8885849465022604,0.69420121973091
3.609375,1.2059530197726998,0.019577709865528432
3.61328125,0.031158091646162338,1.1473213317331206
3.6171875,-1.0024201924113987,0.33776107194084354
3.62109375,0.6183151017428691,-0.2234908222952542
3.625,0.10258594488439762,0.6815384600908831
3.62890625,1.225328006933363,1.6816045946695617
3.6328125,-0.6239171392979506,0.7547617064722659
3.63671875,0.009534517727268852,-0.29363490812222665
3.640625,-1.008681911617386,-1.7007193000803016
3.64453125,-1.5247289520759815,0.20171114294724937
3.6484375,-0.5347909549028447,1.496761790053416
3.65234375,0.1547746551863998,0.655331235987135
3.65625,0.8824826630453806,0.42469944371625673
3.66015625,0.45246627342821366,-0.3184453570747751
3.6640625,0.4550171717961969,0.06017626956396124
3.66796875,-1.3994468220045324,-0.303029058296844
3.671875,0.07357373562953741,-0.20667395883859288
3.67578125,0.5643337801272701,-0.268264287628032
3.6796875,-0.40501081452319143,0.9687621068214453
3.68359375,-0.49915781785109137,0.07930959314821454
3.6875,-0.838287528367631,-1.6292830542352834
3.69140625,-0.15399125850186438,-0.561459296003326
3.6953125,-0.3368546330423103,-1.7832857529101065
3.69921875,-0.2545622823890305,-0.3721178630122206
3.703125,-0.6813736824884348,-0.9638011510800389
3.70703125,1.1660866723323662,0.3217144335197966
3.7109375,1.0314591913841036,1.0082314055566244
3.71484375,0.8119854147506678,-0.8068270429752936
3.71875,-2.49885408365512,0.0695508491111303
3.72265625,1.1938059637805596,-0.25370220585397457
3.7265625,0.24943371775056467,0.9817445093624418
3.73046875,-1.5021185689960952,0.35012854625334194
3.734375,-0.8537980908810731,0.6262982655134238
3.73828125,0.6297249979228936,0.3188442911438003
3.7421875,1.1829411325670047,0.7431600475074479
3.74609375,-2.1300998150864934,0.9806513040465906
3.75,-1.3259348142991265,1.0346846575823934
3.75390625,0.507719773216369,-0.21908457942339626
3.7578125,-0.33183536269746905,-0.6023373278428249
3.76171875,-0.9953134477377544,0.7570806386405577
3.765625,-0.656243143233657,1.0093389456033424
3.76953125,0.6233183835277004,0.8100777727158288
3.7734375,0.3260518921564469,0.6135297183367618
3.77734375,-1.9219957175591522,-0.6080216672197952
3.78125,-0.7159341106889384,1.0487893017271201
3.78515625,-0.6525837281760712,0.13811438139100723
3.7890625,0.6209839653830334,-1.481555645650189
3.79296875,1.0456520282071315,-0.6129383134017751
3.796875,-1.19093223227883,-1.3955312448291177
3.80078125,-0.6900561551424351,0.07238457643014021
3.8046875,0.4691519129552288,-0.057749200675933796
3.80859375,-1.7718739680995965,-1.7055266963028521
3.8125,-0.621720791565801,-1.4573591701150337
3.81640625,0.8981002545944423,-0.9764313842307184
3.8203125,-0.08015320411231466,-0.7780117820826157
3.82421875,-1.7111544364673241,1.6000945060655902
3.828125,-0.6305411305836457,2.9209555854799008
3.83203125,1.040770461211894,-0.5948382280275365
3.8359375,0.07943030242419945,-1.9116132092028315
3.83984375,0.6334464247727806,-0.40613301078594527
3.84375,-0.5771789403714273,0.8785181194687496
3.84765625,1.0828339576859212,-0.16752374486644606
3.8515625,-0.18729123772397485,-1.2937433750127778
3.85546875,1.0055061261038933,-1.0475786486847023
3.859375,-0.3066768331738128,0.055867664196078096
3.86328125,1.0865769482862795,0.5317792841647465
3.8671875,0.26356458431281327,0.6603754884604952
3.87109375,0.20551395869743197,2.282375175675501
3.875,0.653988486341504,1.152666138262252
3.87890625,0.5638662251142753,-1.013058656234605
3.8828125,0.735338495355604,-2.1367480800734335
3.88671875,1.326426122217386,0.06425431156124062
3.890625,0.04369407996161201,0.9895720031750791
3.89453125,0.3413541874435485,1.0329602126738973
3.8984375,1.1324024253330407,0.3477611683746253
3.90234375,-0.5844303989005907,-2.3926229012180484
3.90625,-0.5323060849988488,0.49589910362175216
3.91015625,-0.0061579714519852296,-0.5589256609164497
3.9140625,-0.6929809662517789,0.13202447033698195
3.91796875,-0.5110632371594036,0.06531077599802501
3.921875,1.9948680604469962,0.9533601314415382
3.92578125,0.130880560544067,0.2025331996456993
3.9296875,-0.3123762902644822,-0.3200561292831736
3.93359375,-2.030771043083754,-0.20521945298286176
3.9375,0.8537737778033585,-0.6067447016182427
3.94140625,0.3728769014827522,-1.979937589181493
3.9453125,1.347095034097919,0.8004814803445569
3.94921875,0.3654995298697597,-1.124073557335704
3.953125,0.8991065262400221,-1.681368279711459
3.95703125,0.798032000262743,0.06901542963967784
3.9609375,0.09367401916481612,-0.2795917372888137
3.96484375,0.7002883778567528,0.5435555523225195
3.96875,-0.31450011485995305,-0.04385042079297021
3.97265625,-1.3322983823962864,0.7565983458644804
3.9765625,0.08092401280725375,0.2821807492036541
3.98046875,0.14243133204179856,-0.0806985116867661
3.984375,0.569244739698184,0.6738782579140645
3.98828125,0.08526642797096082,-0.7790910192725176
3.9921875,-0.5680132161143249,-1.812848007669467
3.99609375,1.6018277652631046,-0.24010517493184963
4.0,-0.5472511598695575,0.29727536216780304
4.00390625,-1.3367085188446013,0.19252104602835207
4.0078125,0.7290162887258594,-0.7456046361143358
4.01171875,0.9157737082020249,1.3386576602982772
4.015625,0.7234308488846918,-1.3065857982568267
4.01953125,0.3918050596303263,0.04672546869447097
4.0234375,0.5440999293085974,-0.08290704557282834
4.02734375,-0.7854849421984691,-0.8895998417578709
4.03125,0.933824446084146,2.7190088282731106
4.03515625,-1.095868929989862,-0.7115930662107764
4.0390625,0.3823816696170934,1.6440674003863116
4.04296875,-0.8079105141902533,-0.8533813286919395
4.046875,1.6839215337143074,-0.30765652942244714
4.05078125,2.3881345641090985,-1.4443051483406877
4.0546875,-0.6397314139150604,0.6411834155839777
4.05859375,-0.2672787597978171,-2.767395120970232
4.0625,-0.6330492949988066,1.1774867737564987
4.06640625,0.09314725739044034,-0.9849471178078844
4.0703125,1.1201445435379016,0.16284046163099236
4.07421875,0.7881715095979055,-1.3435435259868673
4.078125,-1.258756429388296,0.03826109183126427
4.08203125,0.9313237526448336,-2.1329350675321272
4.0859375,0.131552112318593,0.31785854475393777
4.08984375,-1.5786065575035315,0.8769990215240018
4.09375,0.44943360215629785,1.515101105405282
4.09765625,-0.37186068228068386,-1.1286151441925192
4.1015625,0.7760907440926107,0.7093427146908988
4.10546875,2.7658122430930043,-0.013134192145349815
4.109375,0.30861607445480954,-0.7266047628737686
4.11328125,-0.505408463445794,-0.5036277344968476
4.1171875,-1.6689461834110277,0.5153476045908448
4.12109375,-1.7340422236924913,-0.16904265910191715
4.125,1.3679336776525162,-0.47554911782991666
4.12890625,-1.4041512576561166,1.2808848815311813
4.1328125,-0.5232485007494433,-1.5631924453355284
4.13671875,-0.3488576910507285,-0.5687016410662215
4.140625,0.2612172629270812,-0.6338226892351206
4.14453125,0.3285446867047263,-3.084035357996969
4.1484375,1.2715594540225312,0.17731349063617077
4.15234375,0.7670999428147347,-0.235710101391476
4.15625,0.8435852630054533,1.2662194347057423
4.16015625,0.2985279475945082,1.5989551539589482
4.1640625,1.1490735335035125,-1.180464691586897
4.16796875,-1.1896601626275451,0.6271427873846277
4.171875,1.5066710248081883,-1.244578650185407
4.17578125,-0.22608187065154423,-0.5339163680346336
4.1796875,-0.5017064695482885,-1.5167999395170486
4.18359375,0.9662397478543023,-0.010005765304083822
4.1875,-0.7023731758040204,0.2767319911846233
4.19140625,0.1621366808996623,-0.7288624754465653
4.1953125,-1.319708158046125,-0.9964615898469127
4.19921875,2.006574823544991,2.869482781372513
4.203125,-1.722401436768385,-0.738978911547743
4.20703125,-1.2799664126964747,-0.7919925332346559
4.2109375,-0.005338060563539263,1.0162937546626865
4.21484375,-0.6794844855239601,1.107766227849267
4.21875,0.357029068389222,-0.32788690852680863
4.22265625,0.8046418146581447,-0.5891687444847169
4.2265625,-0.6430497834167886,-0.6708940903224209
4.23046875,0.17835606832481543,0.10955349853548423
4.234375,0.39149552477284216,0.568682279359051
4.23828125,0.5090973581663513,-0.6292496205477548
4.2421875,1.1274815726302507,-0.5113834649633683
4.24609375,1.1585325876221486,0.19473739499397977
4.25,0.23465576522164613,-1.5582083802072892
4.25390625,-0.4918343424652445,-2.0285289644176303
4.2578125,0.9836108255779601,-1.1395172041294332
4.26171875,0.6434269807111739,0.9191764680687476
4.265625,0.5281641930590905,0.826641326525549
4.26953125,-0.02204021726783427,0.18239122304340602
4.2734375,1.2591671358492416,-0.7141479203061317
4.27734375,-0.23722768105199593,-0.5007033485901606
4.28125,0.15877003649827576,-0.09264008339368525
4.28515625,0.3235904244485062,0.5652474491920586
4.2890625,-0.8746218095352529,0.08691797843917322
4.29296875,-0.8212817117914758,0.6315872573693224
4.296875,-0.588034975614721,-1.6340426464706095
4.30078125,-1.147134661435418,-1.1022308286756455
4.3046875,0.8920139977284091,0.4155525071973201
4.30859375,-0.4809030514504297,-1.0939358897296905
4.3125,-0.517761391154147,-0.15498715723820025
4.31640625,-0.9524104239017539,-0.10018099863176329
4.3203125,-0.5114345253212993,-0.45783176656469377
4.32421875,0.405644715225876,1.0786980898002343
4.328125,0.26150958476148084,-0.6012498773295559
4.33203125,-0.12898305227733203,-1.1686835031248097
4.3359375,0.05125519589769558,0.31427941061282394
4.33984375,1.7797297048505054,-0.7035825381461752
4.34375,1.1649128244452056,1.129050369392349
4.34765625,-0.9399452639120124,0.0938942553514046
4.3515625,-0.6773121426407498,0.12230504876926869
4.35546875,-0.46318855885098364,-0.33513888577796913
4.359375,-0.5577596415724152,-0.5987898256846196
4.36328125,2.012976728127179,-0.04413919382959624
4.3671875,1.1152115734520966,-0.037579558997588476
4.37109375,1.4650405977155463,-0.34031232469207506
4.375,-0.9317978086324624,0.5998648272365695
4.37890625,0.9306084080579128,-0.3898789649215975
4.3828125,1.457304470318722,0.995681423472708
4.38671875,-0.8814905500536997,-0.7380981406621563
4.390625,0.6951267388036239,0.7585560812604436
4.39453125,-0.507028225516153,0.13195606909025995
4.3984375,1.1030496632641738,0.21044868840099834
4.40234375,-1.385664456039336,0.9881188156964177
4.40625,-0.8062877788304761,-0.2617704465817751
4.41015625,1.1804846999359546,-0.587984903291503
4.4140625,0.17899164044485213,-1.8112393736923258
4.41796875,2.0040642168705025,-0.3590582807286666
4.421875,0.5421670429219926,0.7347794599972318
4.42578125,-0.424193670032041,0.0988685941134094
4.4296875,0.06599400390197588,1.1787592964873077
4.43359375,0.35755727392472636,0.3039466596408737
4.4375,-0.6976955697163512,-0.7907752093207101
4.44140625,1.2197869704127726,1.6736453374735727
4.4453125,-0.9838428008549961,-0.3279085590197024
4.44921875,-0.43521712097433174,-1.1619544322680175
4.453125,0.12343572698359899,1.6308816051170951
4.45703125,-0.1613763760288225,-0.8745314453580155
4.4609375,0.10315864863027106,-1.322897504899604
4.46484375,-1.6528949763435918,0.4183501271218405
4.46875,-1.0911894052041287,2.013922322057986
4.47265625,-1.0362490546145424,-0.46368722858979
4.4765625,-0.4635417201192327,0.6724131519347221
4.48046875,0.46920511319259806,1.464233449878668
4.484375,-0.42684840660292866,-0.019829936884607036
4.48828125,-2.3453297836842157,-0.7239669913656672
4.4921875,0.3512250798957687,0.7025856287870764
4.49609375,0.719427544008783,0.52054678466617
4.5,1.6512357045907051,-0.2621531733335641
4.50390625,-0.5722917620260619,-1.0023375710186926
4.5078125,-0.5889834588403089,-0.3254385288279436
4.51171875,-0.008682697864765691,-0.7017859528298266
4.515625,0.41143189931504187,-0.09177275885356602
4.51953125,1.771453211827717,0.348163394504431
4.5234375,0.8222257364092315,0.39717558071378717
4.52734375,0.8991866015766485,-0.3656300809221212
4.53125,-0.3184764006833311,0.708668856410703
4.53515625,0.42109862726379926,0.46622614522873257
4.5390625,0.3471877161383875,1.8858525252621816
4.54296875,-0.8597382942713073,-0.6099105890538503
4.546875,0.0492938629961253,1.3746408104736745
4.55078125,-0.917991469696381,-0.9033538653804504
4.5546875,0.1986544521953646,0.8307942266677997
4.55859375,1.4110125390201795,-0.26789147702168536
4.5625,-0.5994713289728634,0.29178636530700625
4.56640625,-0.3096486789747426,-1.8663600548735872
4.5703125,0.4639551533834881,-1.632820168130836
4.57421875,0.02460774324859215,1.409230424066168
4.578125,0.9490620583215102,-1.43335505876198
4.58203125,-1.2756754843927738,0.4158488697187365
4.5859375,1.3051151572067785,-0.512292154758972
4.58984375,0.23643711165399953,-1.240607068260053
4.59375,-0.7586905284917272,-0.22421655540261645
4.59765625,1.090813059227537,-0.4740086045604718
4.6015625,-0.1339492010520936,-0.5253877263393566
4.60546875,-1.19353603155023,-1.8775595228179986
4.609375,-1.6212463520331841,0.05511362041324277
4.61328125,-0.04500795554717407,0.2910506702508816
4.6171875,0.8221583845987933,-0.22059341718754916
4.62109375,-0.6564315513794747,1.6838897142267253
4.625,-0.05435061204081672,0.7745138051242367
4.62890625,0.34701478565996896,2.308844721604366
4.6328125,-0.5666229524815632,1.33374499638436
4.63671875,-0.3572372978928785,0.525485656245581
4.640625,0.6901132016363345,0.3344249092574693
4.64453125,0.15212874026636433,0.7458246638500194
4.6484375,1.1711566055416334,-0.8398177143457993
4.65234375,-2.0104277791594805,-0.5946255428261984
4.65625,-0.6147241999142277,0.8954250743631263
4.66015625,1.32296468895168,0.1807205865877838
4.6640625,-0.9475370552561637,-0.8182471500094763
4.66796875,0.6314375992313194,1.11692334376674
4.671875,0.3865222192910369,-0.5850974923757115
4.67578125,-1.193159847620746,0.054219882277351805
4.6796875,0.08907607366727115,-0.03170048757830438
4.68359375,1.355001098032324,-0.4279473318435954
4.6875,-0.9133209445089826,-0.8893457271369978
4.69140625,-0.5214853251477614,-0.8074895546670839
4.6953125,0.9746834359014226,-0.9140718100162349
4.69921875,-1.1632035790172446,-0.84012583360105
4.703125,-0.5168860528645696,0.7692065069788087
4.70703125,-0.7037456467314163,-0.4503635599405033
4.7109375,1.2715126286847167,0.6167824468529952
4.71484375,-0.22926883848539367,0.8121910936495901
4.71875,-0.05472986359646157,0.5586098520545879
4.72265625,-1.713290209583516,0.3388199803225632
4.7265625,-1.2883967093092594,-0.2580034648792923
4.73046875,-1.130157511183167,1.536250138022928
4.734375,0.5891914291321287,-0.7270891360584363
4.73828125,0.23327595628353084,0.8865031151035999
4.7421875,0.10293821234450772,-0.16292162137675265
4.74609375,-1.956441781001552,0.737044210891783
4.75,0.64499189855179,-1.1000474896517105
4.75390625,1.367718320093329,-0.8655868103718511
4.7578125,-0.46854274111776484,-1.3926678400401924
4.76171875,0.11150359794344199,0.05373015140706661
4.765625,-2.5228935781791937,0.5823570646440703
4.76953125,0.6156470671954639,-0.5514388078744478
4.7734375,-1.4675042003344914,-0.09622126326331623
4.77734375,0.39347911826689713,1.2859698511938427
4.78125,-0.36194623028532846,-1.1424087004517287
4.78515625,0.6104586234692723,-1.62807677852684
4.7890625,2.314417739814724,-1.3269685152448838
4.79296875,0.9553611569506827,1.1173565989560874
4.796875,-0.33164574953834586,1.5850623964772041
4.80078125,-1.5037454231315095,-1.3623938337038213
4.8046875,0.8763796160501189,0.373764900063244
4.80859375,0.5894795801130507,0.9427913199694156
4.8125,-1.3890591419893672,-1.233183721668759
4.81640625,-0.3696566721338493,0.3445910503925013
4.8203125,-1.3842043966423518,0.28390165827774627
4.82421875,-0.9859313162349999,1.0250047569213534
4.828125,0.6400185051457626,-0.4964618901253704
4.83203125,0.9632708693895913,-1.0320596125357113
4.8359375,-0.48243544097769353,-0.13337331470305466
4.83984375,-0.6372611179177963,0.581487555726137
4.84375,1.9115058136350853,0.7863879065060126
4.84765625,1.2216584908374157,0.6665196867788694
4.8515625,-0.853259008176692,-0.6328639493682161
4.85546875,-0.10686136368431655,-0.5481583037230979
4.859375,1.030370768022476,1.3608525126498685
4.86328125,-0.09829242594953477,-1.3651957277309767
4.8671875,-0.4749997634910452,-0.03669030226695092
4.87109375,-1.0071059359694232,-0.5504092929658823
4.875,-0.8540560278045782,-1.3129937062083725
4.87890625,0.018287900833630442,-0.43836359832730465
4.8828125,0.301909126611308,0.22342528539737208
4.88671875,0.259091317864522,1.2602973202702743
4.890625,0.7725053530262833,-2.267045634934599
4.89453125,-0.1531334683295471,0.6431010925755983
4.8984375,0.9279555894931215,-1.0955245842081789
4.90234375,0.5069888067584425,0.4601443989927719
4.90625,1.0449716244668485,-0.7279737323420591
4.91015625,0.909371620863393,0.3941391397318092
4.9140625,-0.7049828175311779,0.5206848488264461
4.91796875,-0.6838799097240398,1.5026056988654033
4.921875,1.79860437652034,-0.6691196583913042
4.92578125,0.8893156728613516,0.8016523431838465
4.9296875,0.6353217636484472,0.42748067775470305
4.93359375,-1.1781694590988117,-0.04215441466805266
4.9375,0.7046893842443016,-1.5724954507376714
4.94140625,-0.1609144636720702,0.2085220089279826
4.9453125,0.3978380595792534,1.0093652413014986
4.94921875,-0.40678003107063126,-2.3178044367385664
4.953125,0.9410564148142355,-0.9693428619666905
4.95703125,0.5361685475318274,-0.175996799596489
4.9609375,-0.8591560405157085,-0.677178343793203
4.96484375,-1.1719109636466476,0.16346203371971335
4.96875,0.48717030024215474,1.5103149161839897
4.97265625,1.1822046163475979,0.4234637046562904
4.9765625,-1.0128638216432104,-0.7700651266483901
4.98046875,-1.3493957355329516,-1.856679008979363
4.984375,-0.04374729481221275,-0.9792587831159755
4.98828125,0.6378273520417298,0.23802088435137794
4.9921875,-0.6713392387607823,-0.03536117819450067
4.99609375,1.065484936698408,-0.24405092564287115
5.0,1.0169361620586457,-1.3220719398800067
5.00390625,-0.28435386900130116,-0.4952324484779006
5.0078125,0.6508485864543052,-1.1112642465303033
5.01171875,1.951481868409992,0.5019857718093707
5.015625,-0.06384791961213328,0.23189037328120135
5.01953125,0.09498266829310276,-0.08128126544405594
5.0234375,0.8540563271556,0.511413707878954
5.02734375,-1.8330576664435998,-1.600954109277862
5.03125,0.4966343567872676,-0.5175658916463975
5.03515625,-0.2037973489582372,0.08047390550213844
5.0390625,-2.702807315404563,0.6004710600231952
5.04296875,0.0997418991675436,0.3635008023456734
5.046875,0.48472328227190603,1.7199381763277632
5.05078125,1.1255491951120173,-0.3564312039999357
5.0546875,0.739023804458921,-0.9702844420564039
5.05859375,-0.7714426701628839,0.534591259257456
5.0625,-1.4289285478519511,-1.7332748935347204
5.06640625,-0.13128215684867214,-0.46469141338057957
5.0703125,-0.7365125954731184,0.1468775523316157
5.07421875,1.8442272691035702,-0.12431748948398878
5.078125,-0.48203276351968494,-0.45391596778638954
5.08203125,-0.7963253164275634,0.4892193061270726
5.0859375,-0.14457750894278987,-0.7032802048884799
5.08984375,0.2165128385775763,-1.0474191764087932
5.09375,-1.080107629318872,-2.1802617830950815
5.09765625,-0.5242772432822286,0.7588078446735703
5.1015625,0.8848303251636813,0.19094163423688065
5.10546875,-0.798670674357556,-0.3337250143102563
5.109375,2.200175491808872,0.3627002642857432
5.11328125,-1.1955427860572343,-0.1460136523803499
5.1171875,-1.0393608349665928,0.1311734818060325
5.12109375,-0.5960284793616967,1.8678120597190877
5.125,-0.0654244694430659,0.5066817739885973
5.12890625,-0.08774486069944756,0.6342355419713448
5.1328125,-2.745057671518651,0.6570786226170517
5.13671875,0.4466120466304879,-0.9967545780538319
5.140625,-0.1023903211397389,0.833734419005422
5.14453125,0.032073973555612374,-0.9137806562262974
5.1484375,1.6493569896677138,-0.8950069533440658
5.15234375,-1.54817977096179,-1.2977251223524673
5.15625,-1.3068599059851596,-0.07235973361319012
5.16015625,0.4340392852411658,0.7884325423579795
5.1640625,0.9640933333950159,-0.9577156589644578
5.16796875,-0.7001916904796159,-1.3417715156820502
5.171875,-0.11038513058179718,0.6760272031710689
5.17578125,-0.6923521708648338,0.7971980738064305
5.1796875,-0.07013387230306041,-0.1362199756814655
5.18359375,-0.06700608685936826,-0.39582649964718575
5.1875,-0.803009145534844,-2.1568568717609895
5.19140625,0.6841915760852043,-1.5834758553232147
5.1953125,-0.020566217680976315,0.3649984513594999
5.19921875,-0.10813487201340133,0.028018139040484873
5.203125,1.3778056197393513,0.10472920861996132
5.20703125,-0.8017785212120885,-1.4160541157684858
5.2109375,-1.324879440189464,0.41435173667575015
5.21484375,0.95949484713075,-0.46873062826355666
5.21875,-1.2867745361073968,-0.1636604393539323
5.22265625,0.28351131038425087,0.001985816165436663
5.2265625,0.11445809346523285,-0.5653007463353444
5.23046875,0.30226605298332704,2.1372712305439268
5.234375,-1.9047463711246353,-0.2889934570040733
5.23828125,-0.5550016173268636,-0.28639262115184405
5.2421875,0.07053117928623348,-0.5573630524324353
5.24609375,1.7191284882173685,-1.7139414628935972
5.25,-0.15255978796123368,0.5238831956120276
5.25390625,0.6931439993570878,0.5268986575620146
5.2578125,-0.1701174336618251,-0.23099934357087054
5.26171875,0.0891376397957605,-0.5273142066019508
5.265625,-0.189859617669085,-1.808340275126849
5.26953125,-0.7597834447573597,0.6181947629355222
5.2734375,-0.681259804973245,-0.7885481537957606
5.27734375,0.40311050712671115,1.3013960663809327
5.28125,0.012052955309058247,-1.5554957306110444
5.28515625,-1.20015870609364,-0.6770819375746295
5.2890625,0.42347627942281624,0.11951792871097537
5.29296875,0.7886311058465367,0.5398413821849679
5.296875,-2.0974039517826597,-0.6052911238238265
5.30078125,0.024818188320328626,2.0405750961477667
5.3046875,-0.20371719025448448,-0.37704813553772876
5.30859375,-1.7007362946575248,-0.28644118928160084
5.3125,0.2695360408463677,0.2336791498575626
5.31640625,0.3682029235028488,0.8157042136651272
5.3203125,0.6861766249040758,-2.285782756506254
5.32421875,0.5002477618926702,1.4839551705243441
5.328125,0.01631503701817196,-0.42633705270108596
5.33203125,1.0009482870512996,-1.3261663178553813
5.3359375,0.7946084681626479,-0.6343124880802089
5.33984375,0.6800616810592939,0.9072553052191986
5.34375,0.6076851295673311,0.9868412551229201
5.34765625,-0.5828017478522223,-2.0679859444977784
5.3515625,2.219504627990933,-0.5302781051018804
5.35546875,0.8076103678199908,2.8345098921113334
5.359375,0.43062394685371036,0.45081471970098885
5.36328125,-0.5726972956871939,-0.180110588286506
5.3671875,-0.45210036070603443,-0.03938609464663129
5.37109375,0.3885668948819273,0.7700636652402443
5.375,-1.1559394473234614,1.2927032175530024
5.37890625,-0.6441189774753873,0.16813607054397095
5.3828125,0.48316008857039655,1.0299450694387524
5.38671875,-1.5515395374297012,0.2656222925697487
5.390625,0.9539566663971536,-0.10449210930247171
5.39453125,0.017778958218797193,-0.66863971677027
5.3984375,0.040534448680848364,1.930048682826963
5.40234375,0.2606669945714901,0.6690947632081168
5.40625,0.5984309265444295,-0.5557814139995589
5.41015625,0.31104051418860834,0.0333485415461179
5.4140625,-0.6653437515762529,-0.42681197730621956
5.41796875,1.764978819905171,0.3937280885668178
5.421875,-0.7390101898755211,1.5988726025787634
5.42578125,-0.22321158550124898,1.5355790608329107
5.4296875,1.2347427945300278,-0.37873707036011156
5.43359375,-0.8797540963246364,0.3015279791604536
5.4375,1.070128327316473,-0.5732096993860086
5.44140625,-0.2992020081279118,0.2903474715357732
5.4453125,0.3049808219493983,-1.6942264261141309
5.44921875,0.31874375480857176,-1.6973905261146165
5.453125,1.4141712220890723,-1.0625125061743608
5.45703125,0.3265217082006645,-1.7348472925801186
5.4609375,0.15312689856089365,0.590215013693172
5.46484375,0.6450704975458065,1.0923689110074095
5.46875,0.053518027244837715,-0.684508460825152
5.47265625,-0.9198169514477106,1.617684425466303
5.4765625,-1.1064911339990486,0.39025905279117346
5.48046875,-0.1469923341645553,0.18828594781436864
5.484375,-1.5859748832541072,1.716666463719048
5.48828125,1.3374164585693342,0.38290803556918557
5.4921875,0.075613111796916,-0.6097202962566809
5.49609375,0.2640581142431748,-0.1706334900494664
5.5,-0.17811713435985058,-0.3018353918884002
5.50390625,-0.5757408189030615,0.741412548636629
5.5078125,1.781386669964468,1.5855119737369816
5.51171875,-0.4276951675131581,0.3862661355083303
5.515625,0.5672118507669605,0.5278948300835177
5.51953125,0.813236780964112,-0.21377870605223653
5.5234375,-1.0424516288490835,-0.5415891078541698
5.52734375,1.4415760559685207,0.5326517489609212
5.53125,-0.22082284230641155,-0.4541033166025092
5.53515625,0.760440410700523,1.5140230880950478
5.5390625,0.9610817439747568,-1.3726406490911482
5.54296875,1.1488032159636041,1.689439185455796
5.546875,-0.23764916761439384,-0.36046028911697486
5.55078125,1.1606267085090025,-0.7162444383752651
5.5546875,0.050196038750603376,1.1202663624780649
5.55859375,0.6802698199585155,-1.2946691326771869
5.5625,-0.1544906750373826,-1.6580517056995419
5.56640625,0.7124505621409392,-1.1808807700493267
5.5703125,1.1717075520805331,0.9919204683157664
5.57421875,0.12146032789764032,0.07343473331133528
5.578125,1.4476762053045085,-0.8797666756206098
5.58203125,-0.8055509016805816,-0.913526638402543
5.5859375,-0.7591199845247149,-0.05857294592468712
5.58984375,-0.5842323022441674,-0.6514740541960202
5.59375,2.031092708165453,0.5282062304575768
5.59765625,0.12636002765640847,0.4800118144521409
5.6015625,0.21484047172293136,-0.20413047068860105
5.60546875,0.48054095259686563,0.502278084135443
5.609375,-0.9896243465330473,-1.0663084768234277
5.61328125,0.23600612786859762,0.7088376942760041
5.6171875,-1.5712628020578652,1.3879044740887072
5.62109375,-0.935243074737535,-0.5911696444386616
5.625,0.7764258570875957,0.8897780830038438
5.62890625,-0.20593992339612494,-0.11478827257331767
5.6328125,-0.37129361604359457,-0.41264820189041157
5.63671875,0.13393815603452064,0.10883226402198448
5.640625,0.9329754937203685,-1.2308685457333617
5.64453125,-1.212050877440673,1.0275528851807485
5.6484375,-1.1017608021756469,0.36970666782245926
5.65234375,-0.10686052384618394,-0.650551050194734
5.65625,-0.31333316755660634,-1.558992451858469
5.66015625,0.2790177834926035,0.16900492958674154
5.6640625,0.4585379204507593,0.5005711162680412
5.66796875,-0.41449240734169013,0.06416908800465276
5.671875,-1.7444182100317351,0.5480766161955786
5.67578125,1.2920708579064772,-0.3987811599910956
5.6796875,-0.4314744009858102,1.2280921322758416
5.68359375,1.3498244315735983,1.4870813264539984
5.6875,1.5978957621904333,0.788309548148201
5.69140625,2.0237953041466445,0.49116780235901125
5.6953125,0.48200985566978505,-1.438454722535625
5.69921875,0.7632725019347507,0.2681474259871468
5.703125,-0.3130031167724869,-0.9808892262909951
5.70703125,-0.2577927031473144,-2.0490995524287055
5.7109375,1.0401586937184164,0.8845766549392875
5.71484375,0.9849741445303957,0.29385027432087235
5.71875,1.1786966849176728,-0.7839980375646953
5.72265625,1.8688996435319476,-0.6808525565526239
5.7265625,-1.0741650223861001,0.6932084734768845
5.73046875,-0.6264693365332751,-0.6485767730879127
5.734375,1.5078192865278688,-0.8901857059462749
5.73828125,-0.2767463405837523,0.25942748471192595
5.7421875,0.2590728170494031,0.8270311791433722
5.74609375,-1.5788458062714301,-1.324111967001417
5.75,-1.2639363151251541,0.025102100725892133
5.75390625,0.3290826163391075,0.7679454577312006
5.7578125,-0.6438579766366257,1.503346705668858
5.76171875,-0.47316980861167135,-0.2743081572657506
5.765625,1.080420832075497,-0.34885205480301784
5.76953125,-0.9335604809635618,-0.04342984527453327
5.7734375,0.26473422002150226,0.27673552953388286
5.77734375,0.15338343086714737,0.6429390599934668
5.78125,1.656984427031021,-0.054923781423232995
5.78515625,-0.1907863696561852,-0.29788771874036535
5.7890625,0.03360532473454754,1.1450892886891804
5.79296875,0.026205094894619616,-0.7491439358720248
5.796875,-0.34505040595233666,-1.2969473702142378
5.80078125,1.0916513187939532,0.9689356363033313
5.8046875,0.9170406525056958,-0.8236052307488745
5.80859375,1.328030904337294,-0.33507786549960056
5.8125,0.6244765966122269,-0.7253261309486506
5.81640625,-1.7304680973729847,0.4932580922333186
5.8203125,1.1263279330066036,-0.4350794239839761
5.82421875,-1.0100076765097479,-0.9004856925347098
5.828125,-1.0869315452243244,-0.09475927646258304
5.83203125,-0.3741913118453329,0.21356902354364576
5.8359375,1.7785816591097678,-1.7509082304378338
5.83984375,-0.8395236201629316,0.6845224332898976
5.84375,0.3667398566661758,-0.11019146186268948
5.84765625,0.2882321133145821,-0.7914059786711457
5.8515625,0.9310756475687227,1.2145518485181737
5.85546875,0.6704279739421922,-0.2786625088987124
5.859375,-0.47933422747766635,-0.6078853800817259
5.86328125,0.27921088170369107,-0.4022446913318911
5.8671875,0.6902273392174996,-0.9419229877126258
5.87109375,-0.11461724179093968,0.7783510650142598
5.875,-0.759226365693826,-0.958287272424485
5.87890625,0.4636579247487847,-0.4390152731219747
5.8828125,0.2748944703609516,-0.02453015595983339
5.88671875,1.1867614302603149,1.0978681820297707
5.890625,-0.4986804948653123,0.9778866639636163
5.89453125,0.8051213039673465,0.49368612012861124
5.8984375,-0.35626712637400654,0.742718268682479
5.90234375,0.9172169194517997,-0.7217271438695071
5.90625,-1.5330403138706545,-2.031790266218843
5.91015625,-0.20578833956436726,-0.5530140889179237
5.9140625,-0.16346159606466928,-0.6510553958299843
5.91796875,-0.4453239976375959,0.033920886633170326
5.921875,1.4825129702156876,0.9684613516732583
5.92578125,1.044616348113269,0.8408159101365564
5.9296875,1.3089067612432168,0.7503546935335508
5.93359375,2.053075919619398,1.3806956624014848
5.9375,-0.5058431265116288,1.3387054767084252
5.94140625,0.9775357867592966,1.3004828810222264
5.9453125,1.1896931928872023,1.5021293214792928
5.94921875,0.0032963211679523595,0.1716658340041774
5.953125,0.10660578618005148,-1.3496832482556824
5.95703125,0.27283066816809187,-0.17145570771024818
5.9609375,0.1470132020431077,-0.10243699108468496
5.96484375,0.09814789723614332,0.6791551259737004
5.96875,-1.4204018343873288,0.5451011345450976
5.97265625,0.840742533492016,0.2434300725242498
5.9765625,0.07143642704716884,0.22990520724621827
5.98046875,0.2375882482007722,1.699210211736428
5.984375,0.8671593804598425,0.6402261318396659
5.98828125,-0.5746926587313569,0.039636801072503516
5.9921875,-0.43717343489417565,1.4398820990488013
5.99609375,0.027037478212673445,0.4647049084150201
6.0,-1.3932915810689914,-1.2563201943296183
6.00390625,-0.9536160900147987,-2.2329884506253146
6.0078125,2.5247457657453842,1.32456162134749
6.01171875,0.17000487899144265,1.5172081153513512
6.015625,0.4063394744932747,-0.7843106694396743
6.01953125,-0.5789542920841698,-0.15110267961007204
6.0234375,0.6797606454801786,-0.28963713097543364
6.02734375,-0.8699287473779368,0.6999879101998369
6.03125,0.1509882288341019,0.025031844989819453
6.03515625,0.12545359523916974,-0.5635619423039965
6.0390625,-1.2280314147171802,0.593653502945727
6.04296875,-0.04884591254786266,-0.4667045214221271
6.046875,2.192335495673245,-0.2543754159823485
6.05078125,0.01730847368145157,-1.2000379501238132
6.0546875,-0.6144265355696321,0.02394646679653155
6.05859375,0.00598238012924159,0.24759770668245812
6.0625,1.2352929630709446,0.08074961858630762
6.06640625,-1.3553606248990764,0.42298292947314103
6.0703125,-0.016161937326615642,1.2162641592374601
6.07421875,-0.8995661153192435,0.38919141495511267
6.078125,-1.7266640552279158,-0.09039675554621004
6.08203125,1.0417200440172667,2.067013495719533
6.0859375,-0.03776310528836788,0.2318581668304847
6.08984375,0.7522108966313075,1.5521077654770572
6.09375,3.197791306499796,-0.5417499627292077
6.09765625,0.7060917379422513,-0.6952858097031807
6.1015625,1.314957610368948,-0.34313880222125104
6.10546875,0.8334401103495515,-0.07413205820822129
6.109375,0.2021659530422146,-0.22185360803251541
6.11328125,0.20809878307965637,0.9886879542587447
6.1171875,-1.16557674212115,-0.05282505103159277
6.12109375,0.6791797128720882,-0.10606053602919165
6.125,0.5283002059697651,-0.6990214672869313
6.12890625,-0.15628005468304906,-2.346564940198909
6.1328125,-0.3833639009350601,0.2680623208464968
6.13671875,-0.8732386877639988,-1.1375549435962262
6.140625,0.35312322616421493,1.4021981763400806
6.14453125,1.3294393315177966,0.829864923852316
6.1484375,1.6631987285904386,-0.9489713432167842
6.15234375,0.003635740753226823,-0.9867307370629611
6.15625,-1.4051587109678967,-0.4981024694063083
6.16015625,0.5837896710748216,1.075286119138356
6.1640625,-0.7159172044037221,0.44039441921940226
6.16796875,0.8510327752053178,1.035884539398994
6.171875,-1.3397451750177543,-0.11021680444143454
6.17578125,-0.742484991896151,-0.1981726938937737
6.1796875,1.0900312033387356,-0.6629185953887795
6.18359375,1.8510752192757403,2.089132391581215
6.1875,-0.25801411249342043,0.2547164937584947
6.19140625,0.8812185702192652,0.5719396673236226
6.1953125,-0.32570783344810594,-0.4930583062687287
6.19921875,0.4339189226573338,-1.657243260314305
6.203125,-0.3713477723647742,0.5070311138666597
6.20703125,-1.6677661716745975,0.19736770646983945
6.2109375,1.78757056354264,-0.5524096685719826
6.21484375,0.18784670906687598,-1.7524626458847232
6.21875,-0.7430682971347404,1.0300754356229258
6.22265625,1.7324920783609394,-1.539621343690462
6.2265625,0.3165905242086449,-0.6276466091172914
6.23046875,-0.7716987542270708,-0.3857426341313246
6.234375,0.4303348737131214,1.0814783850910688
6.23828125,-2.688090899840393,-0.41376287198930073
6.2421875,1.2081375107057553,-1.7640371506665216
6.24609375,0.20128293293919983,-0.05158240474671783
6.25,0.42674684223512316,1.1720266639923187
6.25390625,-1.1462322683589157,0.7470767939672903
6.2578125,0.6697400636775013,-1.6007730566891585
6.26171875,0.7916078002626303,-0.3294832990152124
6.265625,0.3770514293603433,-0.4322490998583912
6.26953125,-1.4180729831473091,-0.5972232436064292
6.2734375,0.3281108002544783,-0.73456709368788
6.27734375,1.0865373123132787,-1.5072690103838242
6.28125,-0.0173040171531926,1.8343327437310024
6.28515625,0.650105619296997,-0.6356778108522652
6.2890625,-0.03561347737720756,-0.3304299693419095
6.29296875,-1.3443254114086522,0.3050325903924622
6.296875,-1.264425924065778,-0.9714310726007354
6.30078125,-1.0377480740089133,2.228948048759811
6.3046875,-1.2872360735284492,-1.6520627364290792
6.30859375,1.0985766308509373,2.699213966605142
6.3125,-0.6931224977918224,-1.0969656171554407
6.31640625,-1.279992983611858,0.2597141881321286
6.3203125,0.8243641805544937,-0.7597514117672053
6.32421875,-0.03875989971908982,0.31534929662213224
6.328125,0.9869501117905997,0.06024514031720958
6.33203125,0.9751881119475133,-0.7551961067513051
6.3359375,1.2346955985563217,-0.5857007057552364
6.33984375,0.7528952845634751,1.2638851874515509
6.34375,1.2069721444697548,0.6683353668767027
6.34765625,1.4162183069660246,-1.237588080493617
6.3515625,-0.2627282444572171,-0.562991620790221
6.35546875,-1.4057240821458026,-0.37342230669181875
6.359375,-1.2115039091535145,0.047875018896985116
6.36328125,-0.5375538842270995,0.5047187911820769
6.3671875,-1.1342602665900854,-0.2990501174950003
6.37109375,-0.5907541910861791,0.8036295813809224
6.375,0.10611995251253617,1.926927701059191
6.37890625,-0.19652103181521643,-0.2509948737893407
6.3828125,-0.3829948836730129,0.7053062534384584
6.38671875,2.065131120572162,1.9260256081212237
6.390625,2.106954962617604,-1.445909513768366
6.39453125,0.922938369650566,-1.3499258954880053
6.3984375,1.5042351590767238,0.9554200031122175
6.40234375,1.2276658366069488,0.9152885963453697
6.40625,0.5127263543093529,-0.04381809518384374
6.41015625,0.2928922150700101,0.3711074168179682
6.4140625,-0.8774857874350884,0.9115358837618958
6.41796875,-0.2173087295307538,1.3054951489174296
6.421875,0.7430742538181458,-0.2480152974271689
6.42578125,-0.7609391676450193,-1.0614977084664536
6.4296875,2.103845420751412,0.9716021535348535
6.43359375,-1.76265727568536,-0.24834426168805784
6.4375,0.9588833291164921,0.8880774346865514
6.44140625,0.4721816709910145,0.3032293363426382
6.4453125,0.004278296798764676,0.23343708284291168
6.44921875,-1.0413926377187723,-0.1056956585674239
6.453125,1.7642843286033747,0.19411482422382526
6.45703125,-1.0184626399192438,0.2606001473226547
6.4609375,-0.5814978879996338,0.8147836983674348
6.46484375,0.057450751938170494,-1.76023571040657
6.46875,1.4760561777178005,-0.7585470360032044
6.47265625,0.5940280090291093,0.8803523428054059
6.4765625,0.1326407176586912,-1.1800195774189466
6.48046875,-1.0803355787061673,-1.0180058577992244
6.484375,0.20487623785095288,1.8254142006115057
6.48828125,0.05416531821573094,-1.6189250852510786
6.4921875,0.19865100513854803,0.732493853857376
6.49609375,0.7908689182885354,1.3257418266448264
6.5,-0.33155701382984193,-0.5582229942444342
6.50390625,0.28457015029538096,-1.8205851465410345
6.5078125,-1.6155952192862613,-0.08609470662783919
6.51171875,-1.4644536195301492,-1.6006660809550652
6.515625,-0.013086148337949226,1.7269979373538484
6.51953125,0.31856654263779416,-1.0596763755736118
6.5234375,0.4527449493906065,1.5397638691238533
6.52734375,1.4919628379171874,1.55565348579164
6.53125,0.707268557023719,-1.288429914090385
6.53515625,-1.850515938812432,-1.0166106982835046
6.5390625,0.053678528754270705,0.9093896913719868
6.54296875,-1.2524677933444575,-0.2670554666501086
6.546875,1.370621268674876,-1.5034609395385186
6.55078125,-0.5230961715877847,1.7343214722392923
6.5546875,0.11793994170541992,-1.179697887918518
6.55859375,0.36580430114642015,-1.0108118914094824
6.5625,0.19595678328661104,0.611765990126907
6.56640625,-0.6945384238522142,0.10891363336054731
6.5703125,1.4897882673018343,-0.5888757474675508
6.57421875,1.267174734984311,0.6620045075190686
6.578125,-0.10175555071818898,0.1999165719418507
6.58203125,1.9218074302437969,0.1416860105408286
6.5859375,-1.2717241280377172,-1.373923109234801
6.58984375,0.6688846554201863,1.0218200630005079
6.59375,1.0680270206467777,-0.9627871023459557
6.59765625,0.07964446505929447,-0.4673044172267323
6.6015625,-0.35764823125658307,0.12488057449052363
6.60546875,0.17142464805461805,-1.5113474318195863
6.609375,0.1840361518830904,-0.6836005003708974
6.61328125,0.09017679030040504,1.5603775409403682
6.6171875,-0.09406798646221015,0.39255262549961145
6.62109375,1.4405958997850636,-0.2377452003434149
6.625,-2.0602267712250724,1.2507397337416934
6.62890625,-0.9545935972090424,-0.5082997463301231
6.6328125,-0.6766489357910416,-2.4611672999786816
6.63671875,-1.7059108443555153,2.715858510033711
6.640625,-0.28204457827404916,2.5174230933683424
6.64453125,0.948105318604189,-0.4136752932960235
6.6484375,0.7805044560170903,-0.6415251939171978
6.65234375,1.2256166701881255,-0.3458591361319767
6.65625,-0.2605362432305286,-0.6545243140291211
6.66015625,0.19320100816288743,-0.2816477693010785
6.6640625,-0.6425473250691722,-0.7239357044850595
6.66796875,-0.5559905191552876,1.3498501481174745
6.671875,1.6885574622537554,2.388208667896066
6.67578125,-0.18750828995247085,0.20811190964479914
6.6796875,-0.14462120168345655,-0.44918737879780124
6.68359375,-1.829599362479828,0.7673726918348525
6.6875,1.7415081965553716,0.4203727957391374
6.69140625,0.5465612154508739,-0.35936170696274256
6.6953125,0.7676692200323938,-0.8877018306909116
6.69921875,0.9057468417252872,-2.2152084738571713
6.703125,-1.123151530607627,-0.5862440721485598
6.70703125,0.4455423764948614,-1.4929432346359655
6.7109375,0.1774693254059866,-1.3703085095377354
6.71484375,0.07618429931176826,-0.4360628499985139
6.71875,1.1526045364008417,-0.37366883611118185
6.72265625,0.8634712857464448,-0.4205928924417759
6.7265625,0.4684278127408801,0.1303375053375291
6.73046875,1.2109248007019264,-1.9957957690408596
6.734375,-0.5702864791200939,-1.8075557064345802
6.73828125,0.2524909291892431,-1.5254422805716246
6.7421875,0.5650834428941179,0.6103288848348437
6.74609375,-0.5726844799548724,0.4805375354857427
6.75,0.6794444861313337,0.6442221823129177
6.75390625,-1.2009661035457118,0.9949641954584997
6.7578125,-0.7712511787233557,-0.10891826230163054
6.76171875,1.2075169573228455,0.7775652990104637
6.765625,0.43143998658027394,0.7772898390642489
6.76953125,1.5907414041067416,-1.2288381177613739
6.7734375,0.9246427726709373,2.458569247428951
6.77734375,-1.770216194198958,-0.35308450830759563
6.78125,1.2443883472766428,-0.09407702593772531
6.78515625,0.47537809724517527,1.8310094897985818
6.7890625,0.2427295848781393,0.9007744708817214
6.79296875,-1.396417306011593,-0.10709051563497782
6.796875,0.5863851973840971,1.4084696236263017
6.80078125,0.5740360951293227,-0.23569769717901498
6.8046875,-0.31544381651693104,0.9933033522970202
6.80859375,0.8978991937966923,0.295445119908771
6.8125,1.7109421717308555,-2.076170342290054
6.81640625,0.03019983824212091,0.5718060783082234
6.8203125,-1.5090031653181715,-0.921984219011525
6.82421875,0.10197078641618329,-0.8568279577776727
6.828125,0.8191018645254943,-0.10594076593784699
6.83203125,-0.1596878952407261,1.331207715669688
6.8359375,0.7577528056467115,-1.5465346189794553
6.83984375,1.8377568728894138,-0.32430671698375985
6.84375,0.7324171998477728,0.47394194063116807
6.84765625,-1.2881173159243822,0.09858095097974046
6.8515625,-2.0253040955534822,1.9486046909232102
6.85546875,1.765520440213523,0.7337327322737693
6.859375,2.3391266468233365,0.2111394067397362
6.86328125,-0.3148505711074024,-1.062400053364939
6.8671875,1.8019284017710073,1.0328912163916317
6.87109375,-0.7679041626895361,1.6302142684398813
6.875,0.5361368924793017,0.4596235285287942
6.87890625,-2.273562967097476,0.05135626275465414
6.8828125,0.24700857900696316,0.5817350848730879
6.88671875,0.008281288873558222,-2.2167692312433678
6.890625,0.1654226779114098,0.673420035670052
6.89453125,-2.0004383461230035,-0.27950195321519034
6.8984375,-0.42076498655035555,-0.3396846772896896
6.90234375,-1.3548616765481671,1.5533748413402895
6.90625,-0.3068138122541688,0.11875967964500686
6.91015625,-0.9954466367185657,0.5324386027249708
6.9140625,1.0218562761741554,-0.4320128530278366
6.91796875,0.06112922595204439,0.579298383184043
6.921875,-0.5280920662910917,-0.04978977810409416
6.92578125,0.9987585809833496,0.09909321844307091
6.9296875,-0.49897316292732113,-1.2266701002427185
6.93359375,1.1260074969839204,0.5679207551775651
6.9375,-1.1434711313558106,-1.056105806314017
6.94140625,-1.9158272170117698,0.10363392666010969
6.9453125,0.010949501363655068,0.4529350127823691
6.94921875,0.1545481393495023,1.1655476816797776
6.953125,-0.3290703292420396,0.24346042862698
6.95703125,0.7144977105236395,-1.052333756046607
6.9609375,0.3206156085722982,-0.6878160191306906
6.96484375,-0.504457114098415,0.8370054084541724
6.96875,-0.9711279854589622,2.484683845163972
6.97265625,-0.6701394483283113,0.5969238009114116
6.9765625,-0.40161878588798827,-0.45298040355547026
6.98046875,1.5663616874447324,-1.0979205269128076
6.984375,0.9364501585078248,-0.06646712230587708
6.98828125,0.30091276719764354,0.42743334781453063
6.9921875,-2.0397460226702693,-0.20231899410700074
6.99609375,0.3778173878056615,0.4242134043189697
7.0,0.695903160446659,-0.1529126747005851
7.00390625,-0.8378711297147685,1.8407582943568819
7.0078125,-0.1479569107747565,-0.12253260854980712
7.01171875,0.35057954334709546,-1.8534153746113085
7.015625,0.1488578592818242,-0.2613516005630271
7.01953125,0.04195196151359605,0.3040706574780369
7.0234375,0.27426414964071294,-0.6389381264553798
7.02734375,-1.3497861971202543,-1.471517379428624
7.03125,1.1946755256704378,-0.4664920720838625
7.03515625,1.2015960777801438,1.0124154023386527
7.0390625,0.2717464576891398,0.025809559738094703
7.04296875,0.2986972250075728,1.07725859171435
7.046875,0.45280297324214186,-0.12961931304883917
7.05078125,-2.2431154347394866,0.6178450788682484
7.0546875,0.25243821558207596,-1.066470879671849
7.05859375,-0.9530635164387455,0.16340879907450528
7.0625,0.5681982248788275,0.02652581257965025
7.06640625,-0.5082794931658061,-0.576847422524543
7.0703125,0.9521156743826222,0.3347326718620094
7.07421875,0.04590803644392013,0.8676786121119877
7.078125,-0.8408978129402149,-0.24575462292556063
7.08203125,-1.7752906936575603,0.365567868998127
7.0859375,0.26475947565751023,-0.3239042936259847
7.08984375,0.2041298531310102,-0.31882113353750546
7.09375,-0.89910329789624,0.651211296724115
7.09765625,2.2017741287579815,0.9963723197330079
7.1015625,-0.3332720125613886,-0.5729062034467888
7.10546875,-0.3073617264223766,-1.0950133120501173
7.109375,0.38443554212236297,-1.1511203321401935
7.11328125,0.4722648223174842,-0.028109524027303393
7.1171875,0.5395788629936172,0.2602367264491559
7.12109375,-0.5151718294272721,-0.08714528782322069
7.125,0.7242486297485874,-0.29721370638743316
7.12890625,0.6528127714416609,0.026807397807487723
7.1328125,-0.33125421323331405,0.11778734105719228
7.13671875,0.25003203177704425,-0.6184342477264485
7.140625,0.020413870200343166,0.5865595587876903
7.14453125,-1.7226621832182338,0.6640196595203006
7.1484375,-1.9725389440845096,-0.7108920699191074
7.15234375,-1.9801116147432016,0.09716546162748681
7.15625,1.4493219346234472,0.1005844472128234
7.16015625,-1.3409281986346926,-1.572685392854638
7.1640625,-0.48579114964185216,-1.07044930720153
7.16796875,-0.3524346258458758,-0.9394735613547125
7.171875,0.5606381545131349,-0.8144538345891694
7.17578125,1.1129874823398842,-0.05271719873871479
7.1796875,-0.9854305568523659,1.8187914088009594
7.18359375,-0.27790563458616646,0.35615848365788705
7.1875,-0.586144811357749,0.34265950351821606
7.19140625,-0.1189550675494921,-0.3657849248942014
7.1953125,-0.12434469657809354,0.8531024245965181
7.19921875,-1.4430929539664261,0.8925285511190321
7.203125,0.9200323821504948,0.1085665547406834
7.20703125,0.8232041091884287,0.5706083867226491
7.2109375,1.4007699292925917,0.40755709934137296
7.21484375,-0.9157830058657895,0.20926792918645795
7.21875,-0.22699598361005582,0.1385775356633016
7.22265625,-0.7908076236105237,0.5460881523261577
7.2265625,-0.5780877010652332,-1.0050603223660204
7.23046875,-0.275498274606601,0.8036165412708344
7.234375,-0.09299641885076568,-1.330049638134195
7.23828125,0.8245745649600986,-0.8839213980462746
7.2421875,0.7106289962084066,-0.29052563741345067
7.24609375,-0.24648376522907012,-0.480228649021351
7.25,-0.5255259824071936,-0.14438238921601884
7.25390625,-0.21994134272133967,-1.5986235144866576
7.2578125,0.34912672411015133,-0.30622153150790943
7.26171875,-1.0133337186767595,-0.0035313267016991072
7.265625,-0.30673973810368493,-0.20421653125507264
7.26953125,-1.1519530156951947,0.5076519124984344
7.2734375,-0.22964711009779668,0.1769101241218125
7.27734375,0.5757781918708073,2.1976970263825693
7.28125,0.05499784345370602,0.5569152844977165
7.28515625,0.19138430512085505,-0.6727040992291133
7.2890625,0.8124444354113943,-1.3037684718489055
7.29296875,-0.6048694246700185,2.026463138265071
7.296875,0.1055384808948585,-1.177204710092808
7.30078125,-0.36477650349754875,0.23523823547250755
7.3046875,1.0879829750281471,1.3586351535824812
7.30859375,-0.3372032245898152,-0.5013466334154577
7.3125,2.4274194903615323,1.3066055724130146
7.31640625,0.049237879798009795,-0.4087752333677767
7.3203125,0.6110028029004196,-1.5818958028031789
7.32421875,1.2066767761380448,-0.10042340294574491
7.328125,-0.057192940187767424,0.37314569774970485
7.33203125,-0.7350453265241432,0.21766913801738594
7.3359375,0.30125425024810526,0.7920406408079068
7.33984375,0.11390702165738799,0.14523399431666167
7.34375,1.320105827903235,1.2283008913198654
7.34765625,-0.9210868525466601,0.4942092967102072
7.3515625,-0.2990899232093014,0.06459256553118119
7.35546875,-0.7360653403894274,0.45841663220165263
7.359375,3.3828904575595744,-2.201924000900125
7.36328125,0.5293549268842087,-1.7849223066928912
7.3671875,-0.36604899033959787,-0.05086441669885055
7.37109375,0.7712163055624114,1.175408670530486
7.375,-0.7087356905398629,-0.6205666035352689
7.37890625,-0.9795009611806389,-1.1890075916849456
7.3828125,0.38602620592769465,0.5034992542683189
7.38671875,1.9176444739851228,0.37528044604961713
7.390625,-0.5299009138447642,0.73744749833669
7.39453125,2.530379974362056,0.6495262875174147
7.3984375,-1.1815016132160931,-2.176259490395071
7.40234375,-0.3147492085618723,0.041697384945007264
7.40625,1.996869673750277,0.4667414215410685
7.41015625,0.5651414269987273,-0.6259254051425572
7.4140625,-0.43709183032294147,0.6980969732762314
7.41796875,-1.107914085993426,-0.488257710419611
7.421875,-0.00964020714336832,0.7566136973029561
7.42578125,0.5998630378265992,0.6861148510074376
7.4296875,-0.7433321564324877,-0.35818243566962094
7.43359375,0.48723446084251776,-1.7104644549710293
7.4375,-0.5166811807599941,-0.5250719092614395
7.44140625,-0.23778188826477745,0.5261843246021869
7.4453125,-1.3755120533568694,0.828428526740074
7.44921875,-1.5717773116852876,0.2456633662535182
7.453125,-1.891459788449484,1.1354314520172797
7.45703125,1.2778620860000416,0.2217659474069287
7.4609375,-0.10938335624315211,-0.22053034668385965
7.46484375,0.1257142591540828,0.7361081958028631
7.46875,-1.4005038733222235,-0.1871178269881404
7.47265625,1.1027944538899896,-0.9108196001410481
7.4765625,-0.6369703985861963,-0.6095444123076488
7.48046875,0.2886759101912677,1.2294487220117996
7.484375,1.5419226061579778,-0.6727427382184958
7.48828125,-0.19345576441513354,1.0426316691574002
7.4921875,-0.07358123096612196,-0.38113865890326093
7.49609375,-0.5741983755383798,-0.8070080685893022
7.5,-0.7432399591440875,-0.9399927678453693
7.50390625,1.4738229376282679,0.6767892936334313
7.5078125,-0.6441605270216207,-0.6171361000882041
7.51171875,0.3947108785397841,0.9037315513760346
7.515625,0.42990713937872443,-1.5497668593887122
7.51953125,-1.0376933586181951,0.5583334384827235
7.5234375,0.4613577602811141,0.458473304322874
7.52734375,0.8333979353735749,-0.2767284956523789
7.53125,-1.851535584645149,0.629336666976653
7.53515625,0.31760608439782273,0.6796732477905174
7.5390625,0.06277711553275526,-0.07869053235310808
7.54296875,-0.6360137981615629,-2.240031007953231
7.546875,0.17238129590918724,0.9990170573402267
7.55078125,0.8883211147570157,1.6999682359038506
7.5546875,-0.0336888861933607,1.164401690803129
7.55859375,1.1139074051513982,0.025493350249326398
7.5625,-0.6464507507450595,0.6140306928391676
7.56640625,0.16040685908183375,-0.5878369148478471
7.5703125,1.1286550816701395,-1.3661640266986617
7.57421875,2.499146612967114,-1.0608833660722212
7.578125,0.8298098158673214,0.5310729550299239
7.58203125,0.48682377078670847,-1.0647632797782929
7.5859375,0.28687594239398084,-0.9664033593498561
7.58984375,-1.1523584272342509,-1.352259437834046
7.59375,0.4300105124357736,1.4727001234173493
7.59765625,-0.4486160976836864,-0.39583715534789216
7.6015625,-1.6904531997382342,1.00383725354499
7.60546875,-0.025980321946531035,0.8233790318214477
7.609375,-0.47649505298883543,-0.12679211754528882
7.61328125,-0.5357232471677454,0.784726858812622
7.6171875,1.0550546375488583,-0.17546845629721158
7.62109375,-1.736249534465814,-0.4486501190102318
7.625,0.6032115568508651,1.6152642968062718
7.62890625,1.489452960653873,-0.6733547377147595
7.6328125,0.035624041328667665,1.0506864508899307
7.63671875,-0.12695603926319368,-0.13311529387923504
7.640625,1.267921979914529,0.6862090708545873
7.64453125,-0.2118356575247018,0.12181997631887648
7.6484375,1.6498177526751159,0.7045915268435471
7.65234375,2.076555818498874,-0.12187756726820476
7.65625,-0.7903913780245225,-0.6188262221104333
7.66015625,-2.207181632569618,2.200918630031458
7.6640625,0.4566320106197235,3.0086437477541264
7.66796875,-1.3947195226228255,-0.7722357226986338
7.671875,1.3383732211055823,-0.6429886854870767
7.67578125,0.24860674754562778,1.6692765569224322
7.6796875,0.7350623466571475,-0.6660402750539176
7.68359375,0.8429127469550998,-0.40477649234440494
7.6875,-1.3630334313179413,0.8582100042096084
7.69140625,-0.12417630064095347,0.16935661405042324
7.6953125,0.44576578188133886,-0.7289619060815816
7.69921875,-1.2243938257918883,-0.669895105043883
7.703125,-0.6805244182153298,1.5298849791622762
7.70703125,-0.03480668505373045,0.0017425538683979692
7.7109375,0.06474290295380182,1.335961783714
7.71484375,0.9705316773514218,-0.19092181850156167
7.71875,-0.14649464758113687,2.0485212244154116
7.72265625,-0.7904073905102541,-1.1441181572306354
7.7265625,0.49331509182512145,0.21863512352558087
7.73046875,-0.7978169604802706,1.252808382936896
7.734375,2.231938641340641,0.3047850628573764
7.73828125,1.3864034218088974,-0.5171038283682914
7.7421875,1.1877703975334244,-0.9385351919531048
7.74609375,-1.0784374364615037,1.1577718348391186
7.75,0.9790603228287647,0.19966927074345703
7.75390625,-0.3049467472122611,-0.08360253744621753
7.7578125,-0.9856140978259439,0.3451179114805225
7.76171875,2.0317073338867537,2.0734341066092212
7.765625,1.8370164236049014,-0.7183428852803948
7.76953125,0.7601340434564381,-0.7180114832873173
7.7734375,-0.5735639542325736,-0.7653536683324412
7.77734375,2.0369875911192916,-2.0575949086251484
7.78125,-1.2935124981227815,0.24554662683017558
7.78515625,0.2239941383543698,0.39764925580649113
7.7890625,0.5035648859845291,-0.6618235495599486
7.79296875,0.5577188202097062,0.8018895097615084
7.796875,-0.7792642602403228,-4.037207390718756
7.80078125,-0.21030157602754573,-0.42380909995325355
7.8046875,1.1354681926361576,1.5372338914512826
7.80859375,-0.847648380697359,0.27248572067995547
7.8125,0.7614000584627295,-0.4204057993846052
7.81640625,-0.15615250873405864,-0.5013335877058738
7.8203125,-0.08732897357818763,-0.4346742857885602
7.82421875,1.392176787935181,0.7457434743680271
7.828125,-1.3287502466662415,-0.7195183133140581
7.83203125,-0.02003435206205302,-0.053573733873409704
7.8359375,0.9559661920476374,0.9560015193975503
7.83984375,0.20344636709152697,-2.02752155125948
7.84375,0.5353770855597827,0.22305521940877251
7.84765625,1.3155390643987315,0.27716756020973093
7.8515625,0.00025563338717744664,-1.0631112734467598
7.85546875,0.5851780436994385,0.7224259309584091
7.859375,0.6505008425194014,-0.10879649410604401
7.86328125,-0.6425394230730446,1.2371594224611357
7.8671875,0.029255978525146997,0.2420678193519351
7.87109375,0.39332278770862666,-0.1024431962026774
7.875,-1.3654679809046322,1.5783888460052395
7.87890625,-0.43528443537059464,0.7072040652117819
7.8828125,-0.7908881233178858,-0.14937710975194787
7.88671875,-1.3814107381212968,0.30091096676536916
7.890625,0.5224768842036323,-0.20954605191853648
7.89453125,-0.5451737555542504,-1.195300203035318
7.8984375,1.3056455666575242,-0.0852713369535522
7.90234375,1.5415297738004734,0.6884720989596891
7.90625,-3.1251690189965466,-0.4858929483148481
7.91015625,-0.21545122470684597,0.6187136537246619
7.9140625,-0.4336583497633963,-0.5528329038708585
7.91796875,1.2920238574741707,-0.12069678675095176
7.921875,-1.278027666090421,0.6053063235713472
7.92578125,-0.7530356411652251,-0.24806601599748423
7.9296875,-1.8221486201709953,3.423322963797891
7.93359375,1.9261140856775067,0.2589383125749427
7.9375,1.3569907156622858,-0.7613537736578736
7.94140625,0.21215621137947008,1.0611189823157878
7.9453125,0.07597033530801321,-0.6375330837074148
7.94921875,-1.797731079793675,0.3901280029430319
7.953125,1.105638789342205,-0.14409752700962114
7.95703125,0.43189622723272925,0.8669642482037166
7.9609375,1.0384975384215622,0.08767947035140561
7.96484375,1.4247275431980004,-1.1833350497285844
7.96875,-0.37596504085434035,1.077168923015663
7.97265625,-0.9886613791634283,-0.7610270004362557
7.9765625,0.9366899549244883,-0.2570938406138917
7.98046875,-0.42413238502805384,-1.524811320062348
7.984375,-0.1268044862838136,2.421292669726684
7.98828125,1.301856550015376,-1.0759189604587183
7.9921875,0.5840030613543105,0.39702939505878415
7.99609375,-0.2616152297024727,0.2116964446991623
8.0,-1.162308886384238,-0.14577177949388034
8.00390625,-0.3238183660682799,-0.23958229367514677
8.0078125,1.2458101289456005,1.521801759000244
8.01171875,-0.35868623769900615,1.4104234823505566
8.015625,-0.29261442700989826,0.465792611447997
8.01953125,-0.40532745322939273,0.9397728935114706
8.0234375,0.09655717282823699,-1.093329594905245
8.02734375,-1.2214723619308838,-0.8910264206190219
8.03125,0.35365837132740274,-0.3789280501174074
8.03515625,-1.3680199663578765,0.8758293029322459
8.0390625,-0.07220818238887247,-0.6709906228869937
8.04296875,-0.7450438254873448,0.24747766489051914
8.046875,1.0321791218273255,0.46236562525095176
8.05078125,0.6690971890143881,1.4432332316210874
8.0546875,-0.7966281019233401,1.3680077328222882
8.05859375,0.18907432831039334,1.0545801824529264
8.0625,-0.15208641811866017,-0.9641807819024829
8.06640625,1.2475320710315174,-1.0113653448454965
8.0703125,-1.2690897058876631,-0.1378573484808994
8.07421875,-0.2669580213351541,-0.7307110063075032
8.078125,-0.8276634319460778,-0.09815990935808447
8.08203125,0.23420101855611097,0.26141044119581697
8.0859375,0.22531746800722474,0.5811549357685318
8.08984375,0.7144129653449013,1.725111042626256
8.09375,0.0006493884392369911,-0.707451692209429
8.09765625,-0.39747176085976715,0.8035829705793546
8.1015625,-0.9901895230354146,1.6763854342269406
8.10546875,-0.9571182367871662,1.5796559045492775
8.109375,0.032674952521218555,0.6396874348030641
8.11328125,-0.23240170317096484,-1.093409312001905
8.1171875,0.9539255517709255,-1.8163105865181381
8.12109375,0.5236707095286883,-0.28820810712535655
8.125,-0.004498883313951517,-1.8207886067413008
8.12890625,0.523465879659975,1.1432613041267734
8.1328125,-0.021690199010632866,2.3934779468692775
8.13671875,-0.15371738336522064,0.4655278636811878
8.140625,0.8883285507766197,-2.064857473322905
8.14453125,-0.8104879523104982,-0.544206494598565
8.1484375,0.9983421169824994,-0.04014563332769168
8.15234375,-0.1495376976027677,-2.3492652583214326
8.15625,-0.3431281926905802,-0.005396075144765297
8.16015625,-0.2937740121736957,-1.0992874124368657
8.1640625,-0.5015640958736933,0.9584407356310722
8.16796875,0.6246912242271683,-1.359066057059424
8.171875,-0.9569205251570918,-1.1382297678277598
8.17578125,1.3437900774402733,0.4808551486049183
8.1796875,-1.2074758872720803,0.7439465337841559
8.18359375,0.4393068391917182,1.889420693265657
8.1875,-0.8990855646702982,-0.5419833138384105
8.19140625,-2.1084387851006974,-0.07477187560255814
8.1953125,0.5230070756211349,2.184853848651474
8.19921875,1.0586869618598598,-0.22826549592827566
8.203125,-0.651091936000759,-0.4597694299877647
8.20703125,-1.439368152479566,1.5193613923278646
8.2109375,-1.3160363937895674,1.1444486672014704
8.21484375,-0.32927930878030776,0.8320551720898844
8.21875,0.04163366290145534,-0.0061168729312880265
8.22265625,1.7717408644235988,0.9650170981820402
8.2265625,0.41444242266910236,0.5051406233125565
8.23046875,-1.4702034802771617,0.11966218201582066
8.234375,1.7761847449615618,-0.943743702453103
8.23828125,-0.20216444066329434,-2.168811296120248
8.2421875,-0.9730792375306097,0.3104476968988814
8.24609375,-0.6088858317816588,-0.33426530943229554
8.25,-0.0025816628507086986,-0.17516989455986937
8.25390625,1.1470717149460006,-0.82340647385426
8.2578125,1.031433394348965,0.4103861015301196
8.26171875,-0.6138936759381196,-0.5498056379931252
8.265625,-1.5660179796451548,-0.5077553974697728
8.26953125,0.26647822679086786,-1.5515295043440893
8.2734375,-0.39446725340644906,-0.6054429232200689
8.27734375,0.20378075044435967,-0.23742342504397193
8.28125,1.315771577080914,-0.353247731382412
8.28515625,0.49792392028231813,-0.3907561578039503
8.2890625,-0.35973121247018747,-0.21568887669132264
8.29296875,-0.841391966063616,-1.2494004223088089
8.296875,0.7641723402188715,-0.4236517418973697
8.30078125,-0.6159346704991933,1.3056145133531456
8.3046875,-0.9639715419425674,-0.6813385390278415
8.30859375,-1.76308033448162,1.4986701046203017
8.3125,0.0032320410621820813,0.49418883774727307
8.31640625,0.8523821823308941,1.0605229688257587
8.3203125,1.1952025979566623,1.069064323290809
8.32421875,0.1074905173445199,0.1174720654408507
8.328125,-0.6412407708941354,1.9449810727986772
8.33203125,1.4456570441613203,-0.6987663849213198
8.3359375,0.12388491120609524,0.888382211255232
8.33984375,0.13361225689673353,0.06576629058424023
8.34375,-0.15778259618664905,0.1814794729955485
8.34765625,-1.166086490696204,-0.5163802742566043
8.3515625,-0.13835408586043146,0.42808551323896504
8.35546875,1.6129424112953885,0.07021943476832193
8.359375,-0.36768185450602925,0.45157019953897626
8.36328125,-1.6930594799736323,0.42939633423558443
8.3671875,-1.7741272346663948,1.0132002322197016
8.37109375,0.9652077877366853,-1.2563597179534918
8.375,-2.1135044978269235,-0.8599690698198034
8.37890625,0.345455403316801,-0.5916017969313487
8.3828125,1.7753036550911776,0.5927243585329269
8.38671875,3.1462995695327796,1.1453226503284821
8.390625,0.2455391424512375,1.4434684005108032
8.39453125,-1.2919252644830712,-0.49124771107942944
8.3984375,-0.6949072213356842,0.23122040203139957
8.40234375,-0.6567316947188436,-1.1158330982816869
8.40625,-1.4729632154055303,-1.0504918108066694
8.41015625,-0.06287120633468983,-0.5344643384759802
8.4140625,0.242453042646589,3.2014497658054806
8.41796875,-0.8106731372823222,0.3147442473106636
8.421875,0.6043691541214495,0.38908840812111245
8.42578125,0.01807447834378542,-0.48193027109076636
8.4296875,-1.648391564723829,0.7163951294649309
8.43359375,-0.01749471642767411,-0.9419301337722668
8.4375,0.49933953131808684,0.1963045594360008
8.44140625,-0.41296488479718385,0.13020517977440818
8.4453125,0.15743805291437168,-2.647791738634982
8.44921875,0.48061330076473247,-0.6897813561193941
8.453125,1.4119838637543445,-0.14753671834458681
8.45703125,0.18077904637319228,1.2264442764213548
8.4609375,-0.2254335781073352,0.03844709377851426
8.46484375,0.13039133464872538,-0.03143120012754593
8.46875,0.10173642947728806,0.5483379205370613
8.47265625,-0.42265243692415627,0.5481545418495524
8.4765625,1.181623350886151,0.6531939678152696
8.48046875,0.18121355070686723,-0.5938109943840362
8.484375,-0.7091340741577931,0.06073346017955849
8.48828125,-0.7546911482507583,-1.6655564699555192
8.4921875,0.012702229310738621,0.5185311201201529
8.49609375,0.31093904538185424,1.3486106414421515
8.5,0.7190172100367113,-0.24254399633000115
8.50390625,1.339895335887856,1.134839563204166
8.5078125,-0.3193992721466151,-1.461410209009002
8.51171875,-0.2485733589185448,0.5001599539785555
8.515625,0.66203605880415,-0.6909170547883582
8.51953125,2.704317331928977,-0.597870977699657
8.5234375,-0.08548137707180563,0.4654357229564549
8.52734375,-0.3903857842094917,0.18198914970973543
8.53125,-0.3858196959988373,-1.0269357289841627
8.53515625,-0.2371489934759531,-0.7773409011413176
8.5390625,1.7746363739567286,0.3903998764922486
8.54296875,-1.3421956834606905,1.158872812330635
8.546875,-0.8974598945866425,1.1585007791521902
8.55078125,0.6961830201720294,-0.9399339318113404
8.5546875,-0.03302836483856196,-0.4183222032813925
8.55859375,1.0064137330154315,-0.9515848734421771
8.5625,0.2844626683050608,-0.9108782959110171
8.56640625,0.24659617161812306,1.4890703391670888
8.5703125,0.04257348402934615,-1.3321576556737056
8.57421875,-0.41792710346517264,0.19098734778979498
8.578125,1.1023256049347687,-0.14972791245655775
8.58203125,-0.6119012742141228,0.48497577651475793
8.5859375,0.4121064347443255,-2.2720978159119483
8.58984375,0.04563927267421476,-1.5066670144000012
8.59375,0.03368247175938355,-1.0242902575345654
8.59765625,0.005726313326159274,0.2674208633358433
8.6015625,-0.5397482820283713,0.9895878747292383
8.60546875,-1.0652792631154675,1.0491021737113373
8.609375,-1.2382443938734584,0.37015106546640275
8.61328125,-0.1301571859004199,0.694651660996394
8.6171875,-0.3236933098857943,-0.09599181315859215
8.62109375,-0.3035187682066541,-0.8929115096857573
8.625,-1.7742794072097354,-0.2821012003788667
8.62890625,1.1359504266439242,-0.19487035869281086
8.6328125,0.9204548553165162,1.2931035275533256
8.63671875,0.6279098521788887,0.6715218105147626
8.640625,0.050407673922851705,0.032943713291484454
8.64453125,-0.46695756703685903,0.3826043724780622
8.6484375,0.41095109344425906,-0.20443117847433395
8.65234375,-0.7282713937146947,-0.13902273422583064
8.65625,0.9593394555147021,0.4775332161494622
8.66015625,0.21024694602308355,0.17642202325271045
8.6640625,2.140912005373945,0.27233141722858367
8.66796875,1.5716979325916334,0.8475548679722411
8.671875,0.11784459369099541,-0.3730439323143768
8.67578125,0.5367370926738716,-0.422083159193433
8.6796875,0.18560569150871656,0.12599558901547342
8.68359375,2.0446366719798386,-0.950827491714195
8.6875,-0.5108454023856376,-1.1907372398598388
8.69140625,-0.8079477807081806,-1.4147612798710358
8.6953125,0.29798026631039587,1.198482513147334
8.69921875,2.8573955380418434,-0.04527844632804297
8.703125,0.45102049936704525,0.8530381642289324
8.70703125,0.9947370244092204,-0.41240157061439214
8.7109375,-0.5216079180835875,0.09714089212397477
8.71484375,0.432338181034652,-0.07401166790283452
8.71875,-0.04251275358408468,0.048612320247534854
8.72265625,0.4179421805124542,1.748034992291971
8.7265625,1.3050193504650547,0.08705328664509758
8.73046875,1.0182541157069467,1.1269141844931072
8.734375,-0.5808930837385473,-0.11752614495313618
8.73828125,-2.029446204333724,-0.6441602616603386
8.7421875,-0.0073536516515891725,-1.1240112271502434
8.74609375,-0.24337295239772533,1.1986776566529493
8.75,-0.27655720548642526,-1.5647091935434316
8.75390625,-0.27761453230430133,1.2226386018310476
8.7578125,0.33137550068167976,0.10717534861287378
8.76171875,1.5099050875446758,-0.1842275769345942
8.765625,-0.30659620991780945,-0.33365645301361063
8.76953125,-0.31922923864339714,-0.6755281288021769
8.7734375,1.5700868988285346,0.701943675652782
8.77734375,-0.948576378731776,1.246626952967485
8.78125,0.5718304040923984,-0.04061891413532939
8.78515625,2.5442507794346287,0.1930139156077374
8.7890625,3.051460566580183,0.03162225613813167
8.79296875,-1.331147725810586,0.7772234934033977
8.796875,0.11875594089296991,-0.4907923229508368
8.80078125,-0.588558276687398,-0.7925268802504484
8.8046875,0.10018536231925151,-0.3251435462859662
8.80859375,-0.5886898370733118,-0.5305122539942939
8.8125,0.7576146164115455,-1.6636359285783138
8.81640625,0.09240852269604917,-0.4674669068326333
8.8203125,-0.430470935934241,0.9228458776505395
8.82421875,1.669256934949557,0.37477413733220816
8.828125,0.9299556403207192,0.8133603486413014
8.83203125,-0.8312921034385082,0.339229398761556
8.8359375,-0.44235423012306085,-0.863985125215972
8.83984375,-0.3400591791728607,-0.2304430899713537
8.84375,-0.6856786366704191,0.18057528899173994
8.84765625,-0.22135197362395706,-0.7503978298481125
8.8515625,0.5771884929629957,-0.7149323362933342
8.85546875,0.6046426646533951,-2.2718182442174557
8.859375,-0.3259609318180485,-0.6689902222266353
8.86328125,-1.6131065837110932,-0.17226833374216205
8.8671875,-0.43804208774273895,0.23465023901280369
8.87109375,-0.6317931457247685,1.067590052940357
8.875,1.4329844930003386,1.7548288621791002
8.87890625,0.537094667315018,-1.3654697200509243
8.8828125,0.9400694361645661,-0.3563258315242133
8.88671875,0.1088399825444638,-0.2966201902189151
8.890625,0.3783946346859614,1.1781341962997418
8.89453125,-0.6727073547075415,-0.4471455154549953
8.8984375,1.0482785484260289,1.2664066991883618
8.90234375,0.27836427834418215,0.5001809032092339
8.90625,-0.24611959096218924,0.19320900076492917
8.91015625,0.012622364429852564,0.9190607752362007
8.9140625,0.40637589263003454,0.5312165640873537
8.91796875,1.311640350982066,0.18598147667876916
8.921875,1.166693015939207,1.4818148159036582
8.92578125,1.4915852307229795,0.6739341388531006
8.9296875,-1.1712369009388486,-0.56905132845718
8.93359375,-0.011240333825973298,-0.47538226925295807
8.9375,0.32456533539080146,-1.2589777717582924
8.94140625,-1.5631965521339806,0.5180305092782804
8.9453125,-1.7092740862370601,0.7741683383462247
8.94921875,1.031518852051441,1.0062529319311517
8.953125,-0.4897808817098585,1.4835524960489446
8.95703125,0.8396667697166087,1.3911724777042043
8.9609375,2.4177595260747027,1.9134739019908127
8.96484375,0.662436800361944,-1.5201263021033231
8.96875,0.3750323509580841,-0.4396295948183898
8.97265625,-0.12280227977767985,-1.1995215736876879
8.9765625,0.5575776504647574,-1.921407369311981
8.98046875,1.1871990027070523,-0.4702681590943537
8.984375,-0.41915287600383927,-0.06154675128813258
8.98828125,0.3385492138351894,1.525289066957115
8.9921875,-0.9209291217256306,1.323774469062452
8.99609375,0.8162432706128759,-0.13252511238069412
9.0,0.8462338036132375,-0.3672280062125027
9.00390625,-0.9971474551459979,0.6981126714654192
9.0078125,1.1582527819373027,0.5370450040354195
9.01171875,0.07833552107147876,2.4280519082778844
9.015625,-0.7226646524749416,0.9725715101395521
9.01953125,-1.4275095093666008,-0.9202907713838576
9.0234375,0.7247905138757156,-2.343425935527776
9.02734375,-1.7415161178318352,0.201884569156469
9.03125,0.11400869023757139,-0.22166594094589437
9.03515625,1.5001872132714147,1.3142554921502476
9.0390625,0.886956859070027,2.696537764492817
9.04296875,-0.5418251732606093,-0.04147396861722649
9.046875,0.7616931920311202,0.31896179718109136
9.05078125,-1.6046276695997947,0.41255187106325925
9.0546875,-0.1267347590650762,2.47132788186561
9.05859375,-0.8573747980983779,1.7091400549693128
9.0625,-0.5236068214583581,-0.45117769581052786
9.06640625,-0.4232781960875755,-0.8602057502216863
9.0703125,-0.22941677356128873,0.7002455341562918
9.07421875,-0.5457184512580515,-0.08183023052031065
9.078125,-0.056161982078701635,-0.2877074378844125
9.08203125,0.3993436181825252,0.30598269338802697
9.0859375,0.9564964349017647,-1.2621221149916482
9.08984375,-1.007150736704443,0.3624234231827546
9.09375,0.14459787417657718,-0.9679329249009788
9.09765625,-0.7000599929522353,0.5396847215642778
9.1015625,0.07041517256451846,-1.2350337212400357
9.10546875,1.6305613586295833,-0.2111163805092687
9.109375,-0.47599632480686854,-0.7925520780921799
9.11328125,-0.04422870573978741,-0.41455007636548324
9.1171875,0.8672060794034578,0.6899446360746756
9.12109375,0.18925153994705987,0.540866089593778
9.125,0.26157498533603585,-1.4210942002323375
9.12890625,-0.7366875120751213,0.5554662008326066
9.1328125,-1.2667397195673344,-0.18934463232374577
9.13671875,0.5741295753990454,0.9801411007762616
9.140625,-0.06803842539502938,-0.7235399661318478
9.14453125,-0.7938042639956004,-0.2919429759990869
9.1484375,-0.6649027282706924,0.03778822538736276
9.15234375,1.0366264677322834,-1.01581580764804
9.15625,0.29443225106236826,1.5422059460349649
9.16015625,0.8163619238214525,-1.5598662697704704
9.1640625,0.1839727740155847,0.7909983670932581
9.16796875,-0.7148257742927182,-0.7741154466377232
9.171875,-0.8421280902022845,0.5986248194258706
9.17578125,2.369766946399167,-0.8511224823256957
9.1796875,-1.9581505391044054,-0.3103386970017436
9.18359375,-0.46565083695448284,1.099629173937329
9.1875,1.5610707372411592,-0.22013227360274867
9.19140625,-1.8544082405097035,-0.7250323980418539
9.1953125,1.444538987363024,-1.0537256977665364
9.19921875,-0.4108617573308271,0.8828740075502328
9.203125,0.6111039485141062,-1.8824182568303842
9.20703125,0.2994294996523052,0.14633951618510974
9.2109375,-0.26664062616055123,0.9747244279709365
9.21484375,-0.15606145422511034,0.5709556610236041
9.21875,1.2702607176441478,-0.67092449450689
9.22265625,1.636558991269918,1.4719399192514002
9.2265625,0.01795739558288338,0.8293932578770766
9.23046875,-0.3086968596965128,-0.8891027551613746
9.234375,0.44796452132727277,-1.0195420979518481
9.23828125,-1.169952215651666,0.04527565207899556
9.2421875,1.7241380513668445,0.7477752961436243
9.24609375,-0.24278272438535128,-0.25691211089452054
9.25,0.16477933720222757,0.058606250513093636
9.25390625,-1.2138354779336875,0.4131228782107081
9.2578125,-1.6177671307768886,0.8167603102048385
9.26171875,-0.965406301982164,-0.2932834746249905
9.265625,-0.2515087284407207,-1.7835780530071372
9.26953125,-0.2429256909696078,-0.6840785662354871
9.2734375,-1.0314109427366025,-0.8077540247986879
9.27734375,-1.2852314227419923,-1.1517268220345023
9.28125,0.7963663944886894,1.7077651454564422
9.28515625,-0.7696383859773115,-0.06864398989255657
9.2890625,-1.4985707629151752,-0.029565618377273815
9.29296875,-0.9661492070679907,-0.4212663485522617
9.296875,-1.0850139840735347,-0.4157793205539798
9.30078125,1.9287380712040845,0.9991822565203837
9.3046875,-0.2366109624924929,-1.9057511088223351
9.30859375,-0.31957607532417864,-1.5578757234700078
9.3125,0.9189079249677373,-1.4903285426563644
9.31640625,0.641399447898236,1.0631724843315924
9.3203125,-2.155416060046195,-0.12065931861671612
9.32421875,0.588579068822129,-0.45404246168300977
9.328125,-0.2148903293836306,-0.05829693290690119
9.33203125,-0.1277712411388189,-0.19806384869215193
9.3359375,1.4055567208594058,-0.18748125725348525
9.33984375,-1.0665319331091418,0.5753567492283179
9.34375,-0.6265937750677941,-1.2394542266334836
9.34765625,-1.6309797988572416,0.2016923311362182
9.3515625,-0.1712547484637393,-0.24400879959571334
9.35546875,2.162591810429097,-1.7100555587679251
9.359375,-1.3974051043517373,0.9644406887580982
9.36328125,0.014479218743723384,1.1764135187997404
9.3671875,-0.16631349782403199,1.365735482806985
9.37109375,0.22233317634228716,-0.7789255049765834
9.375,-1.5710156597893399,2.531504845222935
9.37890625,0.23414232906914892,-0.3805188175960426
9.3828125,-1.0806650486815694,0.164115763780748
9.38671875,1.355028942013567,-0.9385556097436548
9.390625,-0.616469241417535,0.6381024325301862
9.39453125,2.0912562691644716,0.27086439635575504
9.3984375,1.2058781269044734,1.381967416052592
9.40234375,1.0682161187919452,-0.6848581961801398
9.40625,-0.439694332923118,-0.30814640854758574
9.41015625,-1.0612339216080842,-0.3554531185946089
9.4140625,1.1243323524856397,-0.8677021935716682
9.41796875,0.5875362216660599,0.5368577148934645
9.421875,0.8430101246094579,-0.6672139476630885
9.42578125,-0.5431709782081315,-0.8688832610433078
9.4296875,0.3294500492020534,0.6033359305793914
9.43359375,-0.11375434376093087,-0.5216377170370003
9.4375,1.5196909654372694,0.2163091969561072
9.44140625,2.6708357091424513,1.090404529731134
9.4453125,-1.3999215121530943,1.1555444423101593
9.44921875,0.515838955578583,-0.4549413274993147
9.453125,0.38412499816896045,0.472676409937435
9.45703125,-2.2634168141182425,0.8325196547245151
9.4609375,-0.5973631650482345,0.7654194449144421
9.46484375,-1.2918882818195783,2.5243062247667347
9.46875,1.4420314033101682,1.8262465498985965
9.47265625,0.5830116564855379,0.22992873663151076
9.4765625,0.7120672539233562,0.25990807737683963
9.48046875,-1.8475480856199054,-0.15866470302138685
9.484375,1.4033648558209277,0.013328696690748395
9.48828125,0.9664345208737931,0.20620374215045925
9.4921875,-0.5271443393983996,1.621999290762387
9.49609375,0.2629615910038106,0.8270928525786928
9.5,-2.0177148674361236,1.6464703780173873
9.50390625,-0.5969644214816394,0.6254949124336893
9.5078125,-1.147353279945935,1.421217314024933
9.51171875,-0.6370015524625839,0.9992979601752111
9.515625,0.8127522595733244,0.8542358327207693
9.51953125,-0.04470561742244821,0.1527688742572046
