time,ecg,ppg
0.0,-1.1481093934002218,-0.9194679173903588
0.00390625,-0.01648635839858035,2.291280823275353
0.0078125,2.1019173096134702,-0.472144807863699
0.01171875,0.24426503455969945,-1.0641806564657936
0.015625,0.9567547096453632,1.5533749578577527
0.01953125,-0.07621433491756995,1.855687246080893
0.0234375,-0.44790093135593095,-0.9688570647632168
0.02734375,-0.744651087174656,-0.6581935756170723
0.03125,-0.7336652387560271,0.5559451665983437
0.03515625,2.1404995077116773,0.6971164840708437
0.0390625,-0.030834038827922454,-1.049632286829115
0.04296875,-0.284523530471665,-1.743940498057471
0.046875,-2.2332575362243907,-0.8675672128257406
0.05078125,-1.829296586350524,-1.0903086158740682
0.0546875,-0.4346586196029148,0.5968128609020168
0.05859375,0.5366363850424072,0.5299892378488412
0.0625,2.0075365401403986,-0.07749719643501816
0.06640625,-1.058699709297103,0.2468496796461996
0.0703125,0.2246022897183047,-0.9576403014250799
0.07421875,0.7585072928059926,-0.30868824122575517
0.078125,1.4728496337270194,0.08892018751290053
0.08203125,0.3967526016322257,-1.3310310344606073
0.0859375,1.0309503350300357,-0.8408831887621844
0.08984375,1.0116049630910104,1.1666879049021561
0.09375,-1.366018933633525,0.9693707352410347
0.09765625,0.28960602788569123,-0.5942809998784327
0.1015625,0.6567548299077587,1.001672782145795
0.10546875,0.4170166756614856,-1.2744626756460629
0.109375,1.1032403142908647,1.1096925759278562
0.11328125,1.8465302148577467,-1.4901860453955438
0.1171875,1.0736735776522186,2.1160498691773415
0.12109375,-0.8762693523875064,0.8065886811102047
0.125,-0.7497526213013957,0.6159076699416528
0.12890625,1.7506125391107539,-0.8701562930505523
0.1328125,-1.4267760904457483,-2.859586714128903
0.13671875,0.4578359220393666,-0.5429150689866923
0.140625,0.13488336694046657,0.8059611605433312
0.14453125,-1.433217394048787,0.47571846106722376
0.1484375,-1.8115177656009502,-0.6427665425546696
0.15234375,-0.903524730622282,1.0918123371363493
0.15625,-1.1420868518273444,1.7380670859399427
0.16015625,0.7218897442029997,-0.6816696038221227
0.1640625,0.562836348127512,-0.8447434785620036
0.16796875,-0.355282926596122,1.3656875928107026
0.171875,-0.5746368943770427,0.40935231959248247
0.17578125,-0.4349129236359073,0.1051670373346956
0.1796875,-0.9510600381519332,-0.34342175493588434
0.18359375,-0.0547431401213775,0.17358619497470645
0.1875,-1.4545888540410754,0.16038971541063665
0.19140625,0.37035987297061135,-1.7087550616833054
0.1953125,0.8273391035708534,-0.885092609899143
0.19921875,0.20649533657323121,-1.1641989477517232
0.203125,0.31372469195270813,1.1362239123847158
0.20703125,-0.8642014822949867,-0.22274233847751676
0.2109375,-0.0733712884617328,-0.13596575748452944
0.21484375,-0.5615874816891089,0.5466102625676243
0.21875,-1.3953180571250614,-0.5316929305905083
0.22265625,1.5622845406078076,-0.36633300423116455
0.2265625,-0.734304917226204,1.6497025838309864
0.23046875,-1.2393758174048743,-0.6306674955237652
0.234375,0.3194131123203439,-1.1117641657565493
0.23828125,-0.16621032600817706,1.7198286927987283
0.2421875,0.9241491577212044,2.326425736301726
0.24609375,-1.2159427905699824,-0.15293872471642844
0.25,0.06657326091125461,-0.2014411893318753
0.25390625,1.8955876186242016,0.35229919367593526
0.2578125,0.5827652642975546,0.24162458341296666
0.26171875,-1.2145929520936338,-0.6693487612940721
0.265625,0.750607701064597,0.06025264094725476
0.26953125,-1.0597447644401154,0.4985140168345935
0.2734375,0.43239678262147413,0.8275442833088718
0.27734375,-1.878246451158153,1.2719949445585867
0.28125,0.057735664045870945,-1.0468627682968557
0.28515625,-1.8079385961514607,0.9082743693935601
0.2890625,0.18711293976680213,-0.8584990595736831
0.29296875,-0.388404980694221,-1.7953543334753448
0.296875,1.4953480045198193,-0.18517430446746916
0.30078125,-1.056064116006832,0.8390914560946768
0.3046875,-1.316511886085992,-1.8809234014548544
0.30859375,0.5992278766337078,-1.1625241504767212
0.3125,1.7711944451513444,-0.25855170904784963
0.31640625,-0.029509004604800677,-1.7999342357386552
0.3203125,-0.417215129935136,1.414522644244841
0.32421875,1.0735001581860768,-1.3294317804204594
0.328125,0.493099594458152,-0.5056916469713232
0.33203125,0.687299660955017,0.41746543940985953
0.3359375,-0.4994300316444653,-0.732904332446499
0.33984375,-0.31382638932396767,0.24261766395639958
0.34375,-0.8335378299851608,-0.244618961271793
0.34765625,-1.7837467277979124,-0.9773809752867543
0.3515625,0.6142569032388876,0.9216407832103739
0.35546875,0.08060538438422128,1.0670025310468096
0.359375,-0.9810897047984278,0.015187909025358872
0.36328125,0.0059237858756888565,0.9037878945338869
0.3671875,-0.8342068538576253,0.8698903634735108
0.37109375,-0.5251558707326334,-0.2408719107600545
0.375,0.3279000809909706,0.3323510366146786
0.37890625,-0.35866604255442464,-0.33191416422212755
0.3828125,-0.5830868211090516,-0.5623889392471471
0.38671875,-0.21317624985217346,-0.5964567935484292
0.390625,-0.1601303890854033,0.443045974659208
0.39453125,1.1781658173326772,-0.5828236137689881
0.3984375,-0.5350679601405668,0.5771824520768002
0.40234375,0.520995756463611,1.5366930026976084
0.40625,-1.2114582815085664,-0.6114359106675219
0.41015625,-1.078091494103251,0.8258353670331838
0.4140625,1.0600512988335524,0.08185455940361808
0.41796875,-0.0643256118346681,-1.4155368967984137
0.421875,1.0821449209887317,0.6734541139911978
0.42578125,-0.010936672127609832,0.5175053711127584
0.4296875,0.0052526563782044336,-0.01011465740582532
0.43359375,-0.17236732908819544,0.2983537917493379
0.4375,-0.14984208582690914,1.8984658060433093
0.44140625,-0.6720705578209779,0.5908462826519109
0.4453125,-0.3035366788907585,0.7833019944194705
0.44921875,0.18139436297942796,-0.7306900858465721
0.453125,0.71096139980518,-0.23071524313468222
0.45703125,1.148923936656272,-0.5699155291193025
0.4609375,1.2342610378958043,0.21685626557295182
0.46484375,0.8936279641795785,-0.5810099347023581
0.46875,1.106951389451981,0.08742668640303845
0.47265625,2.168969929057973,2.2684861338602422
0.4765625,-0.8286942282013962,1.0600224101463835
0.48046875,0.22691983727457313,0.7067609073639373
0.484375,-0.566298999374555,-0.4777746675480222
0.48828125,0.09316470897417242,-0.39972272479415355
0.4921875,0.18802576454002098,-0.4832153876320507
0.49609375,0.24302878213055268,0.5148701856530938
0.5,-0.5012060267494213,0.4466798238640203
0.50390625,0.485398017203146,0.2693143894832773
0.5078125,-0.9150647525316262,-0.9715176103328833
0.51171875,-1.989451211016163,0.7325924049807716
0.515625,-0.8516616712509408,-0.7094521556715212
0.51953125,-0.2859494784404073,-0.7412239284461859
0.5234375,-1.3265684223026726,1.3272101704193051
0.52734375,-0.043881567588733836,0.8465889363392446
0.53125,0.9119458904418726,0.1449597334597664
0.53515625,0.35197286485269996,0.25793354973763954
0.5390625,-0.48994400762820645,-0.34627606049715565
0.54296875,-1.6740308053024242,0.361621626949059
0.546875,-1.3541739205495955,0.30116425093287735
0.55078125,-1.0530163701764894,-0.8661705458656078
0.5546875,-3.051745346691414,0.03387970956696647
0.55859375,-0.4369029292233349,0.5094452734608615
0.5625,3.2912893393266405,-0.5729891856411551
0.56640625,0.013136133495984668,0.6127926594897496
0.5703125,2.059152125768891,-0.587708140278939
0.57421875,-0.5174109270819662,-0.0161563611945625
0.578125,-0.2276207763579996,-0.22752221261299208
0.58203125,-0.2965825082433196,1.2428202020083852
0.5859375,-0.4497353874978145,-0.43669529688892766
0.58984375,-0.1254488953283041,-0.024055966122559926
0.59375,0.338916328819438,-0.7762921968210826
0.59765625,1.7122463980614953,-0.571448989535723
0.6015625,-1.003741392385558,-0.16885634562787993
0.60546875,0.5189990899972938,0.7456760823129038
0.609375,-0.4370098886099703,0.29384042516614167
0.61328125,-0.33480861518572785,0.6249182157256207
0.6171875,0.5356724661957062,-1.0103436045408127
0.62109375,0.1210246670363976,-0.23471146335702875
0.625,0.028139081181513113,1.0101654464019514
0.62890625,-0.5291293686155182,1.3543597964516765
0.6328125,-1.285844882598353,-0.14907194204526983
0.63671875,-0.8266036717921408,1.4400592004287294
0.640625,-0.7021734327264784,0.350909941358469
0.64453125,2.2040671158544036,-0.14666436997192592
0.6484375,-0.722956200317155,0.636124172803347
0.65234375,-0.7175070887402205,-0.5451376710429029
0.65625,-0.92065947134584,-0.4321489355660367
0.66015625,0.977701340896031,0.6927857947618099
0.6640625,-0.3259151431160589,-0.3196094526054916
0.66796875,0.32339125598967244,0.44191974205946954
0.671875,1.2846483601783834,-1.0904519665438668
0.67578125,-1.4082694313076278,1.7022547847081586
0.6796875,-0.29662439001337093,0.13230524612088487
0.68359375,1.4005125453384355,0.2008593121741963
0.6875,1.1225802982457576,1.3695159601318936
0.69140625,-1.291433745756114,1.137578031335581
0.6953125,0.9101535574800835,-1.425536980943318
0.69921875,0.6144038404984627,-1.0595307707064903
0.703125,1.0716457167701714,-0.5295451485702151
0.70703125,-0.8047643730063754,-0.6069888390840019
0.7109375,0.24928203044209368,0.6611065926402869
0.71484375,0.9064762608881755,-1.1534536331807141
0.71875,-1.2469529544330973,-0.5134981560386687
0.72265625,0.8401774521758186,-0.9687967314253578
0.7265625,-0.9665146273988833,0.6137884529149399
0.73046875,-0.4724872317222953,-1.2320195315295843
0.734375,-2.051103914351489,2.5610926322336147
0.73828125,0.8077871492866989,-0.565562706536391
0.7421875,0.12199717561583043,0.9792918575939196
0.74609375,1.616352383441681,-0.37350298403415877
0.75,-0.7805063433984635,-1.6137438173584087
0.75390625,-0.17808022117104544,-0.6874821333940313
0.7578125,-0.14474500726588332,1.4562895321721085
0.76171875,-1.074347639588842,1.6884591918500218
0.765625,-0.9221875459238855,0.061092737295149566
0.76953125,-1.571135508327972,0.7182469559015794
0.7734375,-1.7839055476129266,0.6629340659573126
0.77734375,0.8658367197020084,0.8294931885285279
0.78125,-0.12938151174614587,0.251439022142144
0.78515625,-0.0011043385379687425,0.5575526430357371
0.7890625,-1.7480895939514263,-0.1835849436244012
0.79296875,-0.18243929203711734,-0.20515790921600813
0.796875,-2.1774385272391754,-1.2936794159163172
0.80078125,-0.8236432725551005,0.16756857499826783
0.8046875,0.3367305806100486,0.21533319636590842
0.80859375,-0.3696908365734649,0.9677349315631706
0.8125,-0.8709861677233017,-1.1400531640150349
0.81640625,-1.8894445577297683,-0.3580877160363613
0.8203125,0.1444731126951035,1.0147988265511885
0.82421875,-0.426456224796715,0.8627574567908372
0.828125,1.5104124886617312,-0.12706618531536923
0.83203125,1.2021540677046825,0.7594385718730466
0.8359375,-0.03923582497421744,2.142351454890702
0.83984375,-1.0461480628090807,1.17231435687218
0.84375,0.41860468153539365,0.02540595824611662
0.84765625,-0.24812041401286558,1.0971239561665764
0.8515625,1.78997212309797,-0.5912212261865482
0.85546875,0.12727224956190564,-0.1054032549682424
0.859375,0.3497363930435438,-0.19841697191737356
0.86328125,1.4530935773939426,0.3081844831710874
0.8671875,-0.2675300802633932,1.1723152897579974
0.87109375,1.2417180581564087,1.6333696055188365
0.875,-1.4008844288487332,-0.14144522819542318
0.87890625,1.4505015590688017,-1.3031631152611376
0.8828125,0.37653700405319923,-0.37167390345177687
0.88671875,0.8659452471167268,-0.14975897848636446
0.890625,1.2619994671997543,0.8861571121595361
0.89453125,0.34258280106776035,-0.4919544951406886
0.8984375,1.2498476266650422,0.14932812613175062
0.90234375,1.1750433831790734,0.5930755052606123
0.90625,-1.9186963009858298,-0.4598523457560329
0.91015625,-0.28678510008200764,0.7326896629348029
0.9140625,-1.7664918645678263,0.2980928315156021
0.91796875,-0.9819542258660213,-0.7355368366897721
0.921875,-1.386939110903459,-1.1779063206628941
0.92578125,0.5453470782472775,0.1932495176731437
0.9296875,1.0912284965144772,1.186549659245499
0.93359375,-0.14931304753256397,0.4404967389228566
0.9375,-0.8212907771098722,0.11316932752784209
0.94140625,-0.8200296823049568,-0.8674288718949706
0.9453125,-0.018696098719497487,-0.5513741014364116
0.94921875,-1.276675607524472,-0.9142811903518911
0.953125,-0.659431614276759,-0.02348988559613677
0.95703125,1.1429826355473667,-0.45392551435846457
0.9609375,-0.565984998420373,1.7138994531373084
0.96484375,-0.4781142159087627,-1.73381469469533
0.96875,0.3223281592274123,0.6523817625260859
0.97265625,0.6630023435238536,0.6097458621597126
0.9765625,0.4178117340461623,-0.6957635561906395
0.98046875,0.4095166804757044,2.05967921278019
0.984375,0.008015988912206238,-0.2527716323660222
0.98828125,0.35240628461502094,-0.6472408394159758
0.9921875,-0.4429724453602059,0.1520903583411728
0.99609375,0.8605878184718587,-0.30930984496252373
1.0,0.26776476140051814,0.053545172570097124
1.00390625,-0.5955183922085115,1.097696093377451
1.0078125,-2.038036084636704,0.5628808822178638
1.01171875,-0.05594811294688258,-0.011825794150867366
1.015625,0.19274544697407517,0.2929393005977571
1.01953125,0.5650169372963582,-1.4560108180394817
1.0234375,0.7198574538394351,-0.2824910628550108
1.02734375,1.087096347245083,0.02645739755311424
1.03125,0.7098417360635518,-0.15006688399484489
1.03515625,-0.08624127125268531,0.8238973628560537
1.0390625,0.4534296059430138,0.17401012416254483
1.04296875,0.05771936495926579,0.01672237720810681
1.046875,0.18732745467384593,-1.553704420919348
1.05078125,0.18496580278860425,0.4603808218970333
1.0546875,-0.5243572539102256,-0.9673663726922043
1.05859375,1.3305873165352216,-0.5383289424845222
1.0625,2.7864360817549234,-1.064843681448899
1.06640625,0.21497918082431006,1.1246062959558247
1.0703125,0.8375100508334791,0.9618839365951852
1.07421875,0.6814536795671843,1.8226014963944182
1.078125,1.0618381100373147,0.4445170488309978
1.08203125,1.2211967583209888,-1.3705648805387303
1.0859375,-0.9145022736349204,0.6133833622375447
1.08984375,0.11195903995787716,1.7964953861208992
1.09375,1.4233041263273913,-1.2777431344278642
1.09765625,-0.6662010659428564,0.6918288976677224
1.1015625,-0.46608683896777314,1.6413946560401036
1.10546875,-0.1247144760493714,1.2183691342769682
1.109375,1.2231712501039236,0.7783972399159119
1.11328125,0.6102407303372247,-1.3291018206171252
1.1171875,-1.1246307040571382,-0.4002566960473966
1.12109375,0.9671190118456787,1.8552652699009424
1.125,-0.24384851169106328,-0.7050536228001394
1.12890625,-1.5679170141933263,-0.4524466370068476
1.1328125,-0.7892600101076498,0.18419813126216827
1.13671875,0.6072105769494347,-0.37477697769028895
1.140625,-0.43899840561096276,-0.027683112652799505
1.14453125,-0.7733213367923005,0.6326319359192486
1.1484375,-0.8820764167686257,-0.41936848175126973
1.15234375,-0.08710751587523181,-0.655327047356691
1.15625,0.009312898236349967,1.8324114001200942
1.16015625,0.6016823733510173,-0.5534458192684482
1.1640625,1.732504497166201,-2.175789979348563
1.16796875,0.25601342768987745,-0.3772789025862427
1.171875,1.0257835987812294,-1.2391844241690628
1.17578125,-1.034522760121548,-0.9327951276647604
1.1796875,0.17520543610967135,-0.5833465870510368
1.18359375,-1.4034996801886974,0.694579352108042
1.1875,0.2778951964425412,-0.3671193294898307
1.19140625,-0.45459880183523754,1.472925759363473
1.1953125,0.8060743009541463,1.0577081568722093
1.19921875,0.5173462882109091,-0.08841571024583623
1.203125,0.9730451960419069,-0.5837581624618251
1.20703125,-1.232793938550662,-0.6553539132534525
1.2109375,-0.5610934168696252,0.0446048126787942
1.21484375,0.11121099544801032,-1.9408670298089388
1.21875,-0.1510725518554257,2.018638094322931
1.22265625,-0.36636556711781987,-0.5664663081428075
1.2265625,-1.8129770913241006,0.33428013888488106
1.23046875,0.03851527360532344,0.12858545637429913
1.234375,-1.979690498034115,1.168734682291502
1.23828125,0.5565592931385861,-0.08445650371408989
1.2421875,-0.37494519378133134,-0.18131079887902674
1.24609375,0.6785965147371957,1.159378700911891
1.25,-0.611058220387077,0.9715751616664834
1.25390625,0.40539881351642615,-0.6392481503800145
1.2578125,-1.0395709641889823,-0.6395372049077681
1.26171875,0.818340983987916,0.2598061814583951
1.265625,-0.31074628112844344,0.3246406051971101
1.26953125,-0.6310184714357815,-0.07371371934064913
1.2734375,0.2017015753236701,0.1865663925924723
1.27734375,0.36118589770543047,-0.5726964561953669
1.28125,-0.8279579792447794,-1.6782461628944358
1.28515625,-0.6716443349781371,1.9463238589264806
1.2890625,0.3681009886304735,-0.3929770745947667
1.29296875,1.3424464369080886,-0.36740496540148354
1.296875,0.4754815358086739,-0.647919921622687
1.30078125,-0.735723915799743,-0.43657213279075435
1.3046875,0.5937772707633644,1.0089881363525905
1.30859375,-1.1912641626975922,0.42756473264450107
1.3125,0.3281900301372216,-0.44196571979107185
1.31640625,-0.36261419612429524,1.3724462885371462
1.3203125,0.26400190936795626,1.2231429783688121
1.32421875,-0.2666261331685971,-1.444748408814651
1.328125,0.10463160634975605,0.5876279952596337
1.33203125,0.6448457780925521,-0.9539233308415257
1.3359375,0.014754036878128665,1.2015228042540576
1.33984375,0.9464476963567365,0.5911392096560356
1.34375,-2.2188395492005224,-0.8606241303307669
1.34765625,-0.1226170101369395,0.0006878360324062333
1.3515625,0.02979378204611521,-1.116384138668309
1.35546875,0.30004954964586766,0.9795840042371842
1.359375,0.9951624578888378,-1.7784101822260385
1.36328125,0.87873494366255,0.33176463851112376
1.3671875,-0.6730182375792798,-2.197560850611548
1.37109375,0.3134474126536271,0.021610645269652468
1.375,0.4168772330426502,0.016532546134919404
1.37890625,0.16569955105168657,-1.1921773977959078
1.3828125,0.6065136249833317,-0.36495968467711837
1.38671875,-0.5953475290371226,-0.09471041888002406
1.390625,0.3047083097487115,-0.4558151856826433
1.39453125,-1.2579022341315438,0.5402189817953302
1.3984375,-0.6717477439580669,0.939127232285742
1.40234375,0.3030670734596958,-0.14702337905157897
1.40625,1.0654962741351954,1.7150169261817572
1.41015625,-1.6271720092993165,-1.197899366209068
1.4140625,-0.1680815713642929,-0.5144798725582373
1.41796875,1.6758357571593445,1.6255056927048537
1.421875,-0.332318133297767,0.22139737377619828
1.42578125,-0.35175581549553114,0.3177824693728207
1.4296875,-0.690041319677275,-1.1392940774997133
1.43359375,2.517395694560756,-0.30815864450585617
1.4375,0.5522620943727624,0.5688652528057468
1.44140625,0.10694946974607226,-0.6187879054698999
1.4453125,0.8670164389855054,-1.214572609644808
1.44921875,2.064008894154544,-0.27301530884486813
1.453125,-0.63143384704838,-0.6224713566344003
1.45703125,0.14683518880980687,-1.6023135534969737
1.4609375,1.642337610812555,0.12547079759022992
1.46484375,0.22654175340162652,-2.5361167665136324
1.46875,2.417998504519059,0.9703130221527136
1.47265625,-0.1650280649035041,0.664273898336875
1.4765625,1.7388405564335663,1.6605440416923374
1.48046875,-0.9731334988224468,1.090206436789053
1.484375,0.39046323187228477,0.15017624971509239
1.48828125,1.7075605008926082,-0.10087426902849464
1.4921875,-1.8183806922892634,-0.5594785384725074
1.49609375,0.05967356372536877,-0.23139214869962402
1.5,-0.7191760280185248,-1.3395999325570178
1.50390625,-1.041658791646616,1.8156358352088904
1.5078125,1.1386621417499396,-0.141307156438827
1.51171875,-1.5460936863503185,1.7322362880641677
1.515625,-0.8712211632820593,-0.5559920598528361
1.51953125,0.11705562742051946,0.532010993485177
1.5234375,-0.16603216296931064,1.6227943803590763
1.52734375,-0.2175057943312223,-0.07251746673448467
1.53125,0.12340724815574518,-0.5193309915320061
1.53515625,-0.8766923204520872,-1.4842239536124555
1.5390625,1.2019319912204365,-0.3415485224636189
1.54296875,-0.5908396065069756,-0.1345088623037543
1.546875,-0.7911412549969458,-1.0286049328099338
1.55078125,-0.10136712227503888,0.7549505853249895
1.5546875,0.5890433504410917,0.36663557260505386
1.55859375,-0.9864719954673536,-1.1018749696598047
1.5625,-1.2041492488151702,0.9642995509387385
1.56640625,0.7494195188672124,-0.0205350637164794
1.5703125,-0.26684327568734356,0.4667954668817415
1.57421875,1.6102693142055142,1.829805809327238
1.578125,-0.08946398547098819,1.5374373327744908
1.58203125,-2.18812993379226,0.7701633575675179
1.5859375,-1.8183663809461863,-0.9159863671410315
1.58984375,-0.37609269396416545,-0.6289596405703101
1.59375,-1.795517069153763,-2.0088682036405614
1.59765625,2.363779586755588,-1.080089342992599
1.6015625,1.6011897267740758,-0.6369972543279458
1.60546875,0.2927452334072452,0.29413337783733917
1.609375,-0.067608611538709,-0.15060830787191637
1.61328125,-0.05885311622510811,0.4552244310230883
1.6171875,1.567563366489546,1.4141371061451253
1.62109375,-0.03884958825261707,0.13321317250692125
1.625,-1.1370408239761296,-1.5340434071001905
1.62890625,1.073277581266892,-1.2508081850065242
1.6328125,0.354097532015951,-0.7049643516273137
1.63671875,-0.2633324736519741,-1.1477325195415877
1.640625,0.20303916921635698,-1.4398924538344522
1.64453125,-0.5999258080471946,1.0443560221672683
1.6484375,1.0867290649351935,1.2194350370800995
1.65234375,-0.7640918157814722,0.1636049959902372
1.65625,0.8679208988882184,-0.22844975014877478
1.66015625,0.351488657626669,-0.3973310139358214
1.6640625,-0.06614016160150647,-0.820527289954204
1.66796875,-0.9728824260564416,-0.43234807449329815
1.671875,-0.27382515512002,0.8717917076232761
1.67578125,0.9323934899768752,-0.22205705939718667
1.6796875,-2.160301826807702,0.8569029022683394
1.68359375,-1.187568152528338,-0.9868881718164222
1.6875,-0.4556796921584916,-1.7809457634234163
1.69140625,0.4186461664165507,0.020882356166861946
1.6953125,0.03324400512591851,0.4180169587582131
1.69921875,-0.9757659058771538,-1.6610715178735063
1.703125,1.1673737331270853,-0.49444910117746094
1.70703125,-0.6113505028470362,0.2695792149736269
1.7109375,-0.5577877417159485,-0.6524309109843047
1.71484375,0.23796462997309642,-2.3273377941292552
1.71875,0.383718589057902,0.09307489296479657
1.72265625,1.3843274790769367,0.5319750161665027
1.7265625,-0.7154881655620051,-1.2308243601599977
1.73046875,-1.178957018640757,-1.1590785513589745
1.734375,-0.8264331285108609,0.4878827920013251
1.73828125,-0.4529799760318127,-0.7428890345441518
1.7421875,0.1307851164096074,0.33159285101377767
1.74609375,0.12562830866020394,0.9546035353034686
1.75,1.471863624942872,2.439652978453992
1.75390625,-0.24552983186937327,1.0835205196920812
1.7578125,-0.8788194003668397,-0.10615063936082159
1.76171875,0.32121229903791143,0.11565933138704512
1.765625,-0.18002865759543088,0.9676725590162694
1.76953125,0.8142672719965729,1.540178599994168
1.7734375,-0.7534818388585588,-0.22103883069999133
1.77734375,0.3952970269120305,0.4807368585276035
1.78125,-0.685372179117966,1.3884002944710618
1.78515625,0.1112794290970215,-1.79114365545255
1.7890625,-0.45275971060152526,0.011551125339014357
1.79296875,0.5484442859512301,0.8406733300905336
1.796875,0.4991532645601444,-2.502070410121468
1.80078125,0.4521127546099117,-1.0747018713351348
1.8046875,0.8278202148919918,-0.7741364505977136
1.80859375,-0.09567672193698241,0.47329549183888586
1.8125,0.5882452530785326,1.886876070917096
1.81640625,1.8294609527062513,0.31761931772891167
1.8203125,-1.1806936611027454,-0.230769421111784
1.82421875,0.6603183149727904,-0.5418000956446213
1.828125,0.7486403834923694,-0.04883070600093765
1.83203125,-0.8550162345362172,-0.7484226203948744
1.8359375,0.5745172112280829,1.0730787831609865
1.83984375,1.1792954376021767,-2.0953244276137584
1.84375,0.30963683526050567,0.1746600989841332
1.84765625,0.41376710905657427,-0.028202247309766306
1.8515625,-0.0236836382573976,-0.4980809685581914
1.85546875,-0.30327971383225577,0.7390731478012931
1.859375,-0.7346639534542654,0.15640993622349053
1.86328125,0.379799926732766,-1.437588612312714
1.8671875,-0.10466119422852196,-0.6804868835014526
1.87109375,-0.5602364682288671,0.5681372640456943
1.875,1.2468127895048637,-0.46060805502851593
1.87890625,-0.5448756280773196,2.098911800202586
1.8828125,2.0767751131097363,-1.193198836146495
1.88671875,1.034025153703187,-0.9383240412959888
1.890625,-0.640889410766968,-0.332414600042232
1.89453125,0.9606721135122857,1.8793455396963825
1.8984375,-2.3057057447456364,0.26241239105681086
1.90234375,-0.3675970297906162,-0.21139897679879785
1.90625,-0.7035991713602585,-0.0037285946030933756
1.91015625,0.8614205161866811,1.2794893268443497
1.9140625,-1.654718844719551,-0.8491371860993525
1.91796875,-0.6936615012831372,0.26675005371059807
1.921875,1.0155407306849142,-0.2537319697910521
1.92578125,-0.8509730716679581,2.2370057226549473
1.9296875,0.6958236990610167,-0.5055254661059506
1.93359375,-0.2156661558687858,1.0482988520088308
1.9375,1.4683951698367168,1.6705942223156607
1.94140625,-0.8703065475975316,1.5753036385394985
1.9453125,-0.23479544367791377,-0.5967612262593057
1.94921875,0.12852221685610965,1.5776889580390836
1.953125,0.43576479534240625,-1.1431587339740923
1.95703125,-0.04781025540017202,-0.819451215169054
1.9609375,1.0292168462262516,-0.7558708499365022
1.96484375,-0.37630840012018835,-0.50014051524003
1.96875,-0.05898563999416507,0.955674750495137
1.97265625,-0.46495755272035644,-0.14500821498346267
1.9765625,-0.8386078831251098,-0.441932265832159
1.98046875,0.6038544145885348,-1.294708909170501
1.984375,-1.267079968024168,0.4190802661497498
1.98828125,-0.5399637947529954,-2.165149773773539
1.9921875,-0.7213101661718283,-2.293600827225885
1.99609375,0.8553381444029652,0.33955088737570943
2.0,1.139106711555996,-0.9487238072873753
2.00390625,-1.724756510082016,-0.8482679023130321
2.0078125,1.5093054890286106,0.45474415806419133
2.01171875,0.048795822559297736,-1.2468008163404674
2.015625,0.1327442828572464,-0.3489084367371525
2.01953125,-1.2912297670714836,0.48197544244749546
2.0234375,0.5668695934495013,-0.3073796586947601
2.02734375,0.5916214913484532,-0.9116944869694182
2.03125,-0.32096046120388344,0.3806601956633397
2.03515625,-0.9177571093281989,0.8036219993743565
2.0390625,-0.23745900955915145,0.7087742450236117
2.04296875,0.5414466661772271,0.5915216380960829
2.046875,0.5970695831703966,1.1390569191668583
2.05078125,2.0028175589119748,-0.6184783507990091
2.0546875,-1.2804029960224568,-2.003862724266416
2.05859375,0.06746365081056459,0.767280939437653
2.0625,-0.7437729678559363,1.4610134309968827
2.06640625,-0.2670637698466132,1.2551120997021374
2.0703125,0.07687472267593147,0.014580767650861368
2.07421875,-0.09845241552385801,0.9980304777529269
2.078125,0.4800651401442307,-2.6968524148089
2.08203125,-0.34353655946803136,-1.679697554002615
2.0859375,-1.8797679938779137,-0.030765582482044227
2.08984375,3.0768282670576332,1.3481649892755243
2.09375,0.3474056487854378,-0.5734783589508219
2.09765625,1.3666553553949075,-2.963505913158184
2.1015625,0.3941657711826946,0.06435788339624607
2.10546875,-0.8675193941598807,-1.3860302695913382
2.109375,-0.02774303686902582,1.9122035688597248
2.11328125,-0.4874650436901955,-0.4264623296836119
2.1171875,-0.7210797775086788,0.23551379984223442
2.12109375,-0.3244781453372255,0.026294909902420144
2.125,0.8899022589205573,0.3107170727959801
2.12890625,-0.2936552359823426,-0.0037713380018609467
2.1328125,-0.7778584943155935,-0.2718047794074971
2.13671875,0.034770954735159086,-1.0532313554034642
2.140625,-0.8676424290186485,-0.9713500621947396
2.14453125,-0.9393421035818462,0.5934386223370871
2.1484375,0.20732071856552114,0.4881121183963747
2.15234375,0.2923218426379382,0.3677763511145823
2.15625,0.40896166939426165,-0.011386229850022958
2.16015625,-1.4721285498174128,-0.9610581536771143
2.1640625,1.2888725825302487,-1.2078580953994944
2.16796875,-0.2003529716917777,-0.5424136083113038
2.171875,-0.3569756749128739,-2.853997539794964
2.17578125,1.0439873601997454,0.13905295462255252
2.1796875,1.0201677276176768,-0.9660936753127854
2.18359375,-1.4913238675166853,0.9230244352306918
2.1875,0.9852729020613435,-1.356542556666216
2.19140625,0.3089630896712691,-1.1538249200500845
2.1953125,-0.18277532491069842,0.7207265791191377
2.19921875,-0.012606907046791141,0.1940317702491228
2.203125,-1.1250661997232587,-0.05136478471037842
2.20703125,-0.09286644656052578,1.156944945479506
2.2109375,0.15455935433813658,1.1330136387937728
2.21484375,-0.041305391731898664,-0.5399874423071237
2.21875,-0.5370234535614984,0.9919746823721214
2.22265625,-0.47560317963526966,0.4528574789624887
2.2265625,-2.286645371163976,-0.33195507107533245
2.23046875,0.5791208697545941,0.9613296396671552
2.234375,1.5852122660417074,1.2484524799116254
2.23828125,0.4631389789495461,0.009908141376074407
2.2421875,0.4022988213293759,0.40526263667169343
2.24609375,-0.026180057812904233,0.18233370178055947
2.25,-0.33445036234266384,-0.7485633595190105
2.25390625,0.6154210911550396,-0.5312052201849359
2.2578125,-0.1550879104487099,-0.14733056416303825
2.26171875,-0.9369804955815562,0.588657114597961
2.265625,-0.0817105707936996,-0.03996450925190218
2.26953125,-0.21913998306470125,-1.557009408455855
2.2734375,2.4499330486838127,0.8536084455681753
2.27734375,-0.5536513793490372,0.32899520901180584
2.28125,1.5963134133660264,1.231493558258606
2.28515625,-0.5061753348408828,-1.7990885590421881
2.2890625,-0.6309099103817168,0.6816062302593677
2.29296875,-1.6699196854819947,-2.379711519734454
2.296875,1.484511813121004,-0.22096310406110004
2.30078125,0.14355143184038302,0.658774820194991
2.3046875,-0.09986840493933938,1.102033732759096
2.30859375,1.1472398669135886,-0.7329166357612571
2.3125,1.6786051153112043,0.4374766576068238
2.31640625,1.4902257887296513,0.6882700811819479
2.3203125,0.5371597360310489,0.9258332336776894
2.32421875,-1.2592741923650714,0.38673771535355017
2.328125,-0.5946029542747987,-0.30415918882029547
2.33203125,0.9586946313006796,-0.37044325489912977
2.3359375,0.8022460523327245,-0.6842293266111801
2.33984375,1.7684473031951784,1.39278562084687
2.34375,0.2735591431647666,-0.017378058700437016
2.34765625,-0.4189756630160357,-0.1726379361093614
2.3515625,1.856177281160865,-0.5754034256597825
2.35546875,1.8979170376553516,-1.140376982053057
2.359375,-0.02164234213740983,-1.8468780361018398
2.36328125,0.31874962874429785,0.2669147838234156
2.3671875,0.9972018617295744,1.5582807851922331
2.37109375,-0.28457694746511303,-0.4337221547687948
2.375,-0.9326640569577782,-0.23692523503951843
2.37890625,1.2276983156206114,3.0026791183723223
2.3828125,1.876254937831081,-2.0669600459716864
2.38671875,1.5804568463367081,0.06953424637304971
2.390625,1.1085490099014457,0.3823537290220247
2.39453125,0.5731522491475121,0.7074653955592252
2.3984375,-1.1202327866839854,-1.1779979673052567
2.40234375,0.7652313910176216,-0.019411556556890395
2.40625,-1.2310379669708407,1.2283871018371044
2.41015625,-0.33002786616782875,-1.118046860757093
2.4140625,1.1427192127984063,-2.773776731289797
2.41796875,0.12679772165107692,0.657071532848228
2.421875,0.011687809476823529,0.9821154669167665
2.42578125,1.1588608612494924,0.3622532427436
2.4296875,0.8349808496581501,-0.7081659762601931
2.43359375,0.0037749305712971603,-1.9108746078452334
2.4375,-1.0877593286162233,0.333895625511402
2.44140625,-0.40435255527906977,-1.5098332964836991
2.4453125,1.4624115886495408,0.1377005636539465
2.44921875,-0.7721516949317954,-0.19103062657831305
2.453125,1.2142256711238695,0.5941852418942196
2.45703125,-0.16082922821106335,-1.890710236948791
2.4609375,0.2770364029110401,-1.1996052878255747
2.46484375,0.39301457451004373,0.02997249669843097
2.46875,0.11292577305401241,0.445777844596307
2.47265625,-1.3048520857098307,-0.015190174980120973
2.4765625,1.1112926030503893,0.9554284570966376
2.48046875,-0.122337721299906,1.344454827366519
2.484375,0.6986338432814756,-1.8134279392595383
2.48828125,-0.07090858641735581,-0.2150373135707155
2.4921875,-1.1727289594349584,0.22462294232841773
2.49609375,1.2271747629691094,0.4055555802127632
2.5,2.3861695381447734,0.7470071857100501
2.50390625,0.9492410567798667,-0.41748942280186924
2.5078125,-1.7963583503905791,1.662486177626205
2.51171875,-1.278298616508704,-0.9995586824710331
2.515625,0.4066576953401635,0.25483172270078214
2.51953125,0.07331957768843995,1.4586018046384877
2.5234375,0.6127160194843009,-0.5089045478012888
2.52734375,-0.4658759449752496,-0.19254683208504086
2.53125,0.5505569763636918,-0.9319101750418936
2.53515625,-1.2611221873767033,0.11581372671490371
2.5390625,0.4192880488552315,0.5482399385785346
2.54296875,1.1273051808170966,1.2287499615341408
2.546875,0.24129988967698882,0.8723508325275227
2.55078125,0.035566161326901276,0.8827807291555341
2.5546875,1.4035669131374053,0.27855120020088997
2.55859375,-0.7985439983307052,0.14921846593932137
2.5625,-0.4398878776261652,-0.26356201039123883
2.56640625,1.269799922390799,0.8182261075754562
2.5703125,1.6442651134488415,-0.05254489622888581
2.57421875,0.9930072038950349,-0.1247633727888008
2.578125,0.6327109323587419,-0.5294015740327067
2.58203125,-0.3102566997365902,2.044176533500084
2.5859375,-0.025936251715694976,-2.0937253950969152
2.58984375,-0.2453320560930278,1.5017486193093448
2.59375,0.8555362122661886,0.20292232072784386
2.59765625,0.8140211572862052,-0.1527449418167871
2.6015625,1.1710100135631303,0.8315661883010859
2.60546875,-1.0111773849635457,-1.1685279530795774
2.609375,0.7443419022644842,-0.007176288225555593
2.61328125,0.7119617968983865,-0.5703234675493267
2.6171875,1.3378815606474932,-0.12860219784474816
2.62109375,-0.03384858485499156,-1.157526564413593
2.625,1.3777694199798554,-0.4058488027612673
2.62890625,-0.4103776337136503,1.2773571566404562
2.6328125,1.151509234781926,-0.2685467641627241
2.63671875,0.9418891890353849,2.965603801919125
2.640625,-0.36199741959853615,-1.386885167310872
2.64453125,1.605399920856622,-1.0187436089986441
2.6484375,1.3396048870317763,0.7010181736199333
2.65234375,0.8448239783156194,1.9821363700864012
2.65625,-1.0483240761640193,0.6337010610120177
2.66015625,2.917010293068589,1.8779429652879265
2.6640625,0.045971592694403415,-0.5882949610063818
2.66796875,0.28627387602289656,-0.8348911688179741
2.671875,0.5165067359106923,1.85183894458225
2.67578125,0.17189268129477747,-0.07658740722466523
2.6796875,-0.44263082673077775,-0.08740058767842994
2.68359375,1.4175508952724767,-0.061405478381207024
2.6875,-1.0111047770120936,-1.7608007126760854
2.69140625,1.9209469583074763,-0.10559374755289495
2.6953125,-0.35687480249197506,0.20057838766504493
2.69921875,0.3162843613433786,-0.4192280950945506
2.703125,3.1786464567524226,0.2618433235223503
2.70703125,1.9734926493882463,0.20319461790734525
2.7109375,-0.5652481176973089,-1.7064817651617208
2.71484375,-0.044195820381029365,0.9706907072453252
2.71875,-0.9866838965172148,1.241552770282507
2.72265625,0.06364883084604343,0.14564893353941302
2.7265625,-0.7410180943730765,-0.8127711572454388
2.73046875,-1.923765865416568,-0.06467299066923472
2.734375,1.4452367517402458,1.921330425614533
2.73828125,-0.8557438145693138,-0.903146184492436
2.7421875,-2.392442718928125,-0.879815809589365
2.74609375,0.8035986177642497,2.076153492064433
2.75,1.8225612514968206,-0.3777434195142221
2.75390625,-0.10374404685946764,0.3521811001540022
2.7578125,0.7911916845028024,-0.2636400778760339
2.76171875,-0.02128889217256312,0.37809024477587105
2.765625,0.6624460061366874,0.6282472818664636
2.76953125,-1.0554066531423942,0.2736423052637153
2.7734375,0.22312780463862883,0.20821384910324187
2.77734375,-0.24814266119089534,0.2210006510082964
2.78125,-0.622848052540129,1.6439235070694735
2.78515625,-0.019558022691406655,0.7990323705418614
2.7890625,-1.3222733155687185,-1.3132360203981044
2.79296875,0.34830230481267765,0.9050425719873254
2.796875,-1.1226990686642286,2.1907848582913756
2.80078125,1.1266013407975288,0.8538528690810002
2.8046875,-0.030573483194726525,-0.35258857643071195
2.80859375,-0.2132159853878259,-0.3546786099260742
2.8125,0.6921624297683305,-0.8712652646695705
2.81640625,-0.5375780518508743,-1.216059556039007
2.8203125,0.39181546028891995,-0.1759753203484385
2.82421875,-1.4141745354346593,-1.4672104763591074
2.828125,0.3360877369688922,2.0883523359008302
2.83203125,0.5806604589564119,0.4101892587524859
2.8359375,-2.2872522846452275,-2.4550312380699197
2.83984375,-0.44354975505792593,1.6488605912980168
2.84375,1.0875773630415435,1.694695989764269
2.84765625,-0.9075609114557363,-0.3468239185148689
2.8515625,0.976298624407926,0.3567280586557264
2.85546875,-0.23812412840853187,-1.3193791029659832
2.859375,0.7543746880282773,0.8645196174177485
2.86328125,-0.8069709686659224,-1.047789618583675
2.8671875,3.111679126963667,0.1951485777648788
2.87109375,-0.47089426352248126,-0.17444464244144497
2.875,1.2626341278114979,0.9075655927879203
2.87890625,0.41023130645031586,0.1193875206185999
2.8828125,1.102477899813992,-1.4989149610466306
2.88671875,1.033502292302967,-0.7262265638261415
2.890625,0.4091894448329484,1.1811370218126835
2.89453125,0.3213733212468431,-0.06571298713493705
2.8984375,0.13500226952206315,-0.4872271106815932
2.90234375,-0.05268898217878261,-0.5677588383529798
2.90625,0.5536431283902875,-0.6800311344547461
2.91015625,-0.9526459426575942,-0.5316558855018442
2.9140625,-0.8665297540787187,1.036604328164703
2.91796875,1.210513301711481,-0.39065026603405256
2.921875,0.46575955194796603,-1.4081671452223934
2.92578125,-1.2547569327060757,-0.555880319522125
2.9296875,-1.0502445319442686,-0.4441273763924716
2.93359375,-0.31372678658498493,1.362010842872986
2.9375,0.6421097190901862,-0.20888497634157743
2.94140625,-0.3750764276764497,-0.04462752023334716
2.9453125,0.9387358790368086,-0.16184896910455562
2.94921875,0.8874526467420305,1.8654489221810477
2.953125,1.1105778597634806,-0.5642608215822542
2.95703125,-1.3967949060456828,1.0939252769850507
2.9609375,0.45092988420696745,1.6023292982015163
2.96484375,2.1171997457624587,-1.2826526253352513
2.96875,-0.0595333756270603,0.06535120731446013
2.97265625,0.3481181972521896,0.2808670872091749
2.9765625,-0.9134598436975732,0.9080164575412383
2.98046875,1.0152379790464583,-0.947246310557911
2.984375,1.3046993912648324,0.5720285752588291
2.98828125,-0.3178896739020046,-0.19042503094763252
2.9921875,0.0387155770723424,1.390072105447846
2.99609375,-0.9324171978388464,-0.8756169789589748
3.0,0.22283717498408986,0.2983869572702326
3.00390625,-0.46484358413208077,-0.8488622494553377
3.0078125,1.0378720824603613,0.5002132320187134
3.01171875,0.715294492003607,1.027323062424938
3.015625,1.0861335557687604,1.1703057673286013
3.01953125,0.601245191755664,0.5765930534265215
3.0234375,-0.975475956199985,-0.5490038021863918
3.02734375,-0.41417652911050323,-0.7795429520525488
3.03125,-0.4012334672726285,0.8510907948334391
3.03515625,-0.3614093305817924,1.3455822286144106
3.0390625,0.052521120165337776,-1.2165992616297148
3.04296875,-0.20407039701246948,0.7703770643021419
3.046875,-0.08492127547157721,-0.9512845333860216
3.05078125,-0.5135947501867475,1.1291860710849115
3.0546875,1.708306391437368,-0.8295779524722209
3.05859375,1.372815274763772,-1.1806570962771015
3.0625,-0.3491013795623905,-0.0325124108019717
3.06640625,-2.504822225480923,-0.5712870055569038
3.0703125,-0.3550199050316627,1.0728595980233435
3.07421875,-0.27472952025212066,-1.2872380005104342
3.078125,-1.7768971019149613,0.1345287278386013
3.08203125,1.735359617900215,-0.43741851659644043
3.0859375,0.0658537527122774,0.504325151196857
3.08984375,-0.3666054414960444,0.4947504084373254
3.09375,0.5435613163350171,-0.6578369050362025
3.09765625,0.02841627641723854,-0.43522999852248473
3.1015625,-0.9747982572457212,1.3704131041910275
3.10546875,1.1885681638453318,-1.2177355350345913
3.109375,1.1650360192413618,0.44241576762675394
3.11328125,0.452443345542049,-0.5394512537103694
3.1171875,0.9528326013642523,-0.042309412093846366
3.12109375,0.008194699549230917,-0.0256355730060101
3.125,0.01650806085585574,-1.0366233257347282
3.12890625,-0.49295202934152016,1.2450367099345012
3.1328125,-0.9496719893045057,0.07414933237859245
3.13671875,0.8262563237236987,-1.6090155740230063
3.140625,-1.1631484506849108,2.2486250001172263
3.14453125,-0.18243070988309842,-0.6045700828292057
3.1484375,1.3416826760276657,-0.7062519467279167
3.15234375,-0.9934108055445658,-1.0698362695153913
3.15625,1.36062491476224,1.8651919551848344
3.16015625,-0.10215294043243925,0.9525730783280995
3.1640625,-0.956596969343803,0.5172913837775958
3.16796875,0.6757575414056158,0.4612671975056434
3.171875,1.2147260264509314,0.4200792450362242
3.17578125,0.16591170031242114,1.5011670218505457
3.1796875,-1.2444951527678314,-1.14037073306727
3.18359375,0.30675235177391136,-0.2920501068583192
3.1875,0.43879034860407545,0.1523508436102863
3.19140625,-1.608816634767025,0.6221877773305935
3.1953125,1.1705625422864763,1.2565758967463245
3.19921875,0.8108302071003396,2.3837524269183756
3.203125,1.3774707786660778,1.0884129167695986
3.20703125,1.1916753281411263,0.1994419277588632
3.2109375,0.6942835855656524,-0.5966083822331115
3.21484375,-1.0250650042181488,2.679654802002928
3.21875,-0.028189067434880796,1.0309206595641967
3.22265625,0.9962279176281117,2.4358170372603873
3.2265625,-0.9322760723458995,0.0907177597804485
3.23046875,0.7130343825368776,-1.7459243476622262
3.234375,-0.3951659661210497,0.5033042797964493
3.23828125,0.5043336640772289,-0.804312902951234
3.2421875,-1.3472998614087501,-0.7261766429253573
3.24609375,0.9608601392746281,-0.11451916211306548
3.25,-0.918987728307766,0.10836633587205315
3.25390625,0.3539124779174685,2.1753772845520163
3.2578125,-0.8837289510264973,-2.221828025696982
3.26171875,-1.878776418035175,2.1461418131363605
3.265625,1.2949671348911738,-0.39669185340560864
3.26953125,0.18077114165937463,-0.6691213607589767
3.2734375,-1.5752949206704046,-1.2275045284557007
3.27734375,0.3232465633589383,0.4162070251154763
3.28125,0.09744057746966527,-2.4059467672816015
3.28515625,-0.013260240552861246,-0.22877295975472242
3.2890625,-1.297619989261994,-0.6293881173476855
3.29296875,1.1569401773422685,-0.43233999468989376
3.296875,0.7731419726149242,0.3017859016230222
3.30078125,-0.2881079854024776,-0.9889809485982657
3.3046875,-0.5839965836959594,-0.1860563744958026
3.30859375,0.20794861362854603,-0.3189063045370004
3.3125,-1.7598254798687,-0.283624552394162
3.31640625,-1.8064578657389327,-1.5476026723823435
3.3203125,0.3216906315261228,0.18045129144246938
3.32421875,0.3467636043750897,0.4310849516628568
3.328125,1.1170787779100992,1.1496950990310573
3.33203125,-0.37510688182284413,0.4477123296583722
3.3359375,0.8097829213087039,0.48236441188064666
3.33984375,-0.344764504177547,0.3964683994090565
3.34375,-0.8282522595782106,-0.31396325297985583
3.34765625,0.9562562348355659,0.06300841832272835
3.3515625,0.061518544600999474,-0.26269152854909017
3.35546875,1.308937877500315,0.7314647831440267
3.359375,-1.1071997301437557,0.5020614372772294
3.36328125,0.6589209210931033,-1.1372252202578501
3.3671875,-0.5650706237479778,0.7285162700545942
3.37109375,1.8577890478559618,-0.8898451364563872
3.375,1.1753352393858754,0.462959167797157
3.37890625,0.9972437487557783,0.12774998347227062
3.3828125,0.7798371123432257,-0.432060310071202
3.38671875,0.018173303401502187,1.5222349755169888
3.390625,-0.6079306813039886,-0.7621980514695237
3.39453125,-0.6831167314246133,-2.5480110196566774
3.3984375,-1.711765198033844,0.5048719613244751
3.40234375,0.7327057793273747,0.06695164158560936
3.40625,-0.7786205462598649,-0.5736004508956423
3.41015625,-1.4833246772258815,-0.6530898420998045
3.4140625,1.382316743393182,-0.07487651469626472
3.41796875,-0.13474813310793604,0.21031565147346792
3.421875,0.8367748769445826,0.11330410349443337
3.42578125,-0.9170931949393787,0.35964257219038026
3.4296875,-1.2980190514257501,-1.0586847394720007
3.43359375,0.8270481194772931,0.44818883822348193
3.4375,-1.0463653078131794,-0.17893807250121185
3.44140625,-1.2824363436532928,1.3411346238271227
3.4453125,0.5143394593910272,0.8272193801150871
3.44921875,-0.6743524125811143,-0.2776329952270029
3.453125,-0.7702557118408514,-1.466744291878216
3.45703125,0.2507281232483557,1.822821187798877
3.4609375,-1.1105024028127775,-2.203269054545949
3.46484375,0.43743804797281893,0.8294642042631943
3.46875,0.798926325016317,0.2721588168741428
3.47265625,-1.5734907725424365,-0.2021415623789143
3.4765625,0.008402013584891196,-0.9610497759605097
3.48046875,-0.3580300506190431,0.05901537259515972
3.484375,-1.2393482592998677,-0.0819217006938263
3.48828125,-0.8128129563233752,-0.685336288185387
3.4921875,-0.6296837590081575,-0.056320143850997144
3.49609375,-1.372478466386618,-1.3121506177064162
3.5,-0.4816075914724913,-0.37007357060504287
3.50390625,0.6466005074287199,-1.1199411295092636
3.5078125,-0.06170422281389554,-0.10655069953191779
3.51171875,-0.8311539414428483,0.39329948474270277
3.515625,-0.3351046949112958,1.2947631563849142
3.51953125,1.7095230161396913,-1.1062589195656047
3.5234375,-1.2174231034107281,1.7626801961706027
3.52734375,-0.13437451879589632,-1.4367538691178388
3.53125,1.746194493235455,0.4242205356732334
3.53515625,1.1098443180604738,-0.8795093160936212
3.5390625,-1.6320000821275105,1.1460589877341065
3.54296875,-0.4694415733370688,-0.15166760257010936
3.546875,0.7789596517399465,-0.28668383685752
3.55078125,0.9145833793953322,0.06998062690439188
3.5546875,-0.4988274009730488,0.4061995442039512
3.55859375,0.9470149977756538,-0.7848588649280842
3.5625,-0.863915520609123,0.29521843236904144
3.56640625,1.1210885725665634,1.078094633690887
3.5703125,1.655714257756515,-0.45217442766235194
3.57421875,1.3320991702111278,-1.2935467021071345
3.578125,-0.526601190971855,0.0974001567694389
3.58203125,1.0734812418809896,-0.5666249020228932
3.5859375,-0.973675276715506,0.3020849407436806
3.58984375,0.005501388921337666,0.16031946794198054
3.59375,-1.6351046815057833,-1.7603797847823683
3.59765625,1.5399122225742259,-0.4812657474444906
3.6015625,0.011021047311752878,1.1520912496139544
3.60546875,-0.527092004354593,-0.48419751955055634
3.609375,-1.3339078967600155,2.3442645474095882
3.61328125,-1.8904098352035805,-1.8209858357536663
3.6171875,0.045128759917691684,-0.3553600360727639
3.62109375,-0.025106019785896164,0.15901775800322018
3.625,0.8771949206133974,-0.5179491620249237
3.62890625,1.7461747289912228,0.5299860326276811
3.6328125,0.8328305674673101,0.4730745799693389
3.63671875,1.1246048563641224,-0.6466160968188809
3.640625,0.36944033255775843,0.7424583868221064
3.64453125,0.19295026289981523,-0.5381197559427224
3.6484375,1.302424810272477,-0.17647732145647071
3.65234375,0.43513615760656127,0.1629315731922695
3.65625,-0.17714103480688237,-0.08171361939056877
3.66015625,0.8317975033237484,0.501642301657508
3.6640625,0.4082337417193814,0.7858135224177519
3.66796875,-2.100995756457999,0.6813038678859101
3.671875,0.29510658527199995,0.33147355987127736
3.67578125,1.2130359456281017,-0.5645144276951926
3.6796875,-0.5324193744482345,1.8190679466028834
3.68359375,-0.41416492388544757,-1.9278576014393507
3.6875,-0.2456320643644375,0.24834635770802477
3.69140625,1.0175131461271838,2.1436605795551946
3.6953125,-0.1456462564923673,-1.0802112197947478
3.69921875,-0.2590193232422909,-3.1498049040742235
3.703125,-0.046031160618042605,0.46726878935169014
3.70703125,-1.1287061892186434,-0.6863333048508878
3.7109375,-1.2040073295116127,-0.5584995229147184
3.71484375,0.47845618603030915,-0.8596925727642375
3.71875,1.179501342518792,-1.4673936009159958
3.72265625,1.189471635999555,-1.698125320935978
3.7265625,0.6661637788544134,-1.094936478606166
3.73046875,1.111344732914482,2.1472185979255496
3.734375,0.6067121692010309,-0.4325355535824532
3.73828125,0.08917761065382086,0.2729618905726851
3.7421875,-0.9811987705687029,-0.42883886059762877
3.74609375,-1.312036959324618,-0.4552155535527763
3.75,0.6198610584388652,-0.3016925106810537
3.75390625,-0.14345673184818802,0.8290076528442605
3.7578125,0.8276132740395935,0.6978769245413624
3.76171875,0.38124822908003175,-0.045583514201183124
3.765625,-0.8758917366527808,-0.22424118569691004
3.76953125,-1.2485341349450683,0.7556526694069403
3.7734375,0.04010430295919942,-0.15750683757851316
3.77734375,-0.6008614501859728,0.7185952518163699
3.78125,-1.3284190514022214,-1.0620622492371166
3.78515625,0.07185646041059598,0.8682276410935271
3.7890625,0.34358765221519694,-1.071591267856445
3.79296875,1.258352834844682,0.043576974010731385
3.796875,-0.9267402998323105,0.3850483591138831
3.80078125,-0.48769631846566097,0.15232400848293817
3.8046875,1.0936888703234224,1.601948151803895
3.80859375,-0.5206157912860846,0.5079894971445599
3.8125,-0.6065366677562496,-0.29145249421829617
3.81640625,-0.10265963427031002,-0.13257516923703738
3.8203125,-0.4106671688012024,1.0349021515686405
3.82421875,-1.315523668600192,0.12591250017805028
3.828125,-1.6539652240992424,-0.6771145208101843
3.83203125,0.316697562660784,-1.187276150123294
3.8359375,-1.0425486414047869,-0.08649051251011891
3.83984375,-1.4453828031021654,-1.0196410640022295
3.84375,1.8023775005253149,-2.2531756242440864
3.84765625,-0.3756926788340733,0.34070741639071456
3.8515625,-1.387146362851807,-0.23354048970247845
3.85546875,0.9676120756665872,-0.11321128757643328
3.859375,0.568653749952839,-0.4388694264292959
3.86328125,-0.04578751831381074,-0.45021343229020266
3.8671875,1.7538000916482341,-0.6923682718352164
3.87109375,-0.5331488523764175,-0.3058758068841413
3.875,0.5452181649134018,0.9799049590762663
3.87890625,-0.6952636107604876,-0.3068233659191993
3.8828125,-0.8712151763244148,-1.0025592849613558
3.88671875,-0.29719231963534964,0.331839751126351
3.890625,0.07101876962379981,0.9187858861742
3.89453125,1.5619365989228087,-1.3854257224146675
3.8984375,0.6881407574054873,-1.4807299717975813
3.90234375,-0.1260879171984051,1.4058623883200967
3.90625,0.9817380373573792,0.36444676844664115
3.91015625,-0.799666384656426,-0.15417995522663044
3.9140625,0.5755703904259997,-2.1801301138111375
3.91796875,0.5320122734978813,-0.9574286847579357
3.921875,0.045008600642072086,0.3224793158499706
3.92578125,-1.0603785475260306,1.122693283513877
3.9296875,0.7687454646848212,2.0096909246881873
3.93359375,-0.5529618847300728,1.5230607953510047
3.9375,-0.2534190740886024,0.9761244992328877
3.94140625,0.2472729274464881,-0.27494655640330434
3.9453125,0.6292309308236854,0.5615053350290671
3.94921875,-0.159562742737007,1.8089986776525444
3.953125,1.982641353389384,0.8300416909101468
3.95703125,2.654451061790556,0.5542186985469468
3.9609375,-0.08354472954372483,1.0345768533245556
3.96484375,0.42699687191568286,-1.3841776383024667
3.96875,-1.5102784875378372,-0.763454000363756
3.97265625,-0.9951460670562714,-0.6858617195545376
3.9765625,-0.48591175510896184,0.873171597122558
3.98046875,-0.14588013200547711,-0.6960758054102458
3.984375,0.907233292838691,-0.2519662118766152
3.98828125,-0.41338440519430003,-1.392077221322407
3.9921875,0.37334159793755695,-0.5034783543560516
3.99609375,0.2506640216810888,-0.9335400689332827
4.0,-0.6956183363041375,0.012016709839256958
4.00390625,-0.4497927746526102,-0.14067486768295723
4.0078125,-1.403756188051756,-1.0525465929511413
4.01171875,-0.2642389229194334,0.7455942528861018
4.015625,1.9819714247262163,0.3147874149551208
4.01953125,1.0458603003993345,-1.5366341336640248
4.0234375,0.48623004232558104,-1.4213470473157477
4.02734375,0.15223638351256627,0.6645507425289258
4.03125,-0.30744249055644957,0.5524264555958937
4.03515625,0.7804628079370097,-0.2260121672411511
4.0390625,-1.5051531256193156,0.9357265978952986
4.04296875,-1.0108436558296139,-0.030716869662168453
4.046875,-0.3002171012533708,0.5606846604851258
4.05078125,-0.24793429995371924,-0.4279412367731805
4.0546875,0.08148689289180522,-0.07403477970146706
4.05859375,-0.3943268927897368,0.5850709017312627
4.0625,0.41478929776498685,0.6792919506066268
4.06640625,-0.41687576022169154,-0.6983472657323162
4.0703125,0.7934818880019193,0.05762471126154515
4.07421875,1.4200435252538395,0.8182026217956414
4.078125,1.6120490302635093,0.6787053890886607
4.08203125,1.3141765301480104,-1.1210281484739033
4.0859375,-1.2102088243155629,-0.5480467762041664
4.08984375,-0.7590011043183287,-1.9608947900007028
4.09375,0.12118042229125653,-1.1199332236863115
4.09765625,1.8187325668666938,-0.5275478115729971
4.1015625,1.1830609210097296,0.36101210504375036
4.10546875,-0.7841685354829225,0.4700512979141377
4.109375,0.5684742125577129,-0.5971217559626574
4.11328125,-1.8768628598161423,1.6893713653130253
4.1171875,0.02194737049087972,-1.6832225957017883
4.12109375,-0.49565335995819904,-0.6448283759150203
4.125,-1.781257245968539,0.603078298840924
4.12890625,-0.16846541916336494,-0.18697709645939814
4.1328125,-0.18674918254375547,0.1628154802846133
4.13671875,0.43325112828909623,1.3241572263048762
4.140625,0.05857458660343416,-1.485328206795021
4.14453125,-0.6029104215533818,-0.13113522143478887
4.1484375,0.49408393930770206,-1.8291418618356285
4.15234375,0.6696051774057794,-1.2984294764016184
4.15625,-1.1788192147801246,-1.1775807108531626
4.16015625,0.7591503293419571,0.6377861753944479
4.1640625,-0.24718185944135063,-2.349817317447455
4.16796875,0.30609794217222236,0.5353858019103064
4.171875,-0.8686613047086551,1.7372490166073213
4.17578125,0.13144726743608143,0.6593838785272038
4.1796875,-0.05396473444599955,-1.5490790441680493
4.18359375,-1.7609744660841793,2.0386916146539176
4.1875,0.9172476860112433,-0.7436663799479286
4.19140625,-1.0952622720743341,-0.6617341142129658
4.1953125,0.7903785859523489,-1.851752007927594
4.19921875,0.5965742888623173,1.3304151863943183
4.203125,-0.9792185995830462,0.3696634558141076
4.20703125,-0.2628988483500203,1.2476273785169316
4.2109375,-0.8789238658173516,-1.067170917876344
4.21484375,1.5535064468800077,0.28715446213887874
4.21875,-1.0812961349149897,-1.027349937064639
4.22265625,-1.2979480403810328,-1.4308771073046798
4.2265625,-0.0023270012282659196,-0.6008969833041978
4.23046875,-0.5816829127153765,-0.0187979629002271
4.234375,-0.7639513650906076,-1.8045644116542487
4.23828125,0.8427465587574474,-0.43810919585140456
4.2421875,-0.3166135512170132,0.6783378824883466
4.24609375,1.9117941202657065,-0.2438242908614862
4.25,0.05379173414220984,-1.242020335964978
4.25390625,1.5310687037698083,-0.4307991399004462
4.2578125,0.8155918575057599,-0.42121807458483107
4.26171875,-1.1863985040818676,-0.7835820506026273
4.265625,-0.5950358094412233,2.25018328345903
4.26953125,1.429016008497807,-1.600922684528927
4.2734375,0.3767724920518813,1.216133957297262
4.27734375,-0.5843601650739048,-0.0627305358263344
4.28125,-0.942755003665124,-0.5707202274882003
4.28515625,-0.6913827824659179,-1.0319917577163973
4.2890625,0.5165619122185834,-1.8563600605526036
4.29296875,0.035995952454715915,-0.046006075600761094
4.296875,0.0802431316677842,0.9775946173206952
4.30078125,-0.8593686885358487,-0.3679919327123833
4.3046875,0.3972363808615465,1.3243018691211592
4.30859375,-0.9730691411449556,-1.4761890936958963
4.3125,-1.2180345763871616,1.140458268654184
4.31640625,-0.810906576043936,0.04248352814067464
4.3203125,0.6846467045022494,0.7983318058747924
4.32421875,-0.034662168321096094,-1.922326949745228
4.328125,-0.6848869534593743,-0.41320541105985087
4.33203125,-0.7659048575728695,-1.8414007255282294
4.3359375,-0.7345135732365848,0.38201003803557776
4.33984375,-0.7124744209324603,2.057625014389231
4.34375,0.6290033977142253,-1.2021177415309536
4.34765625,-0.24309077033064808,-1.258778338836251
4.3515625,0.9682565369939196,-0.07029538040755315
4.35546875,-0.5068472842640451,-0.8553745932538286
4.359375,1.5001359181736624,3.0521989124502213
4.36328125,0.22198422643227403,0.10164467382421463
4.3671875,-0.236290520692542,0.9504119339254408
4.37109375,0.7591837552643045,-1.3273155120456197
4.375,1.2410296109258143,-2.3520975645484303
4.37890625,-0.016786793851153448,2.1652974765187105
4.3828125,-0.3404150563835321,0.5853161637976859
4.38671875,0.9989640401074282,0.9155640343278424
4.390625,1.2537677456418035,1.8918369620859514
4.39453125,-0.5603444990716351,0.3727770348100683
4.3984375,0.44103179061779907,0.14224069442367793
4.40234375,-0.3265580924065861,-1.0205515394028428
4.40625,1.0992208424757037,0.2409721662702449
4.41015625,0.735918964818179,0.7972465626988974
4.4140625,1.3863132475985631,-1.894797669045739
4.41796875,-0.4455576506432243,0.2700423699977718
4.421875,1.1155990667683835,-1.4255174315734183
4.42578125,-0.22299656304394502,1.2494258295262335
4.4296875,-0.6221185304594335,-0.884239932790966
4.43359375,1.6260751767015964,-0.19756097313390342
4.4375,0.9750669401045938,-0.3816805558611057
4.44140625,0.2659448483607684,0.14709851131711918
4.4453125,-0.2374617405712347,-0.5450667270939347
4.44921875,0.7002306033278202,1.1817059193324637
4.453125,-0.3522775719104649,-0.0696275751366604
4.45703125,0.2887214523324445,-0.17632009811365873
4.4609375,1.3255362732305993,-0.33129274469317643
4.46484375,-0.7043905010771762,0.16301189360315024
4.46875,-0.37477811424471535,-0.21473637603436496
4.47265625,-0.3107098715621877,1.2493477615601694
4.4765625,1.5318085464526492,0.6766862462199689
4.48046875,0.1976711021618309,-0.22529184529875734
4.484375,1.498953311568772,-1.1240849626239104
4.48828125,-0.5444256710199666,2.253503378987866
4.4921875,2.34572823696651,-0.36694226617963766
4.49609375,0.6323949543026268,-0.8433998015964339
4.5,-1.4153136329135458,-0.8819688970155616
4.50390625,-0.3826264932257673,1.7773714753385599
4.5078125,-0.8783848426078881,0.431226810099314
4.51171875,0.27125722795996393,0.27493063850915916
4.515625,-0.42991704356907884,-0.18188982262256861
4.51953125,1.010058309648644,-1.5153023042903973
4.5234375,-1.1193360110088302,0.8885446140715745
4.52734375,0.6337759406676554,-1.0233353774202658
4.53125,-0.39743417578055673,1.4729440706565113
4.53515625,-2.1152849345884537,-0.4962784765607914
4.5390625,0.06956628303280885,-0.5059715599393728
4.54296875,-0.30789900800479064,0.3577120504613874
4.546875,-0.24957500515318598,-0.5364637363509749
4.55078125,0.6183193715113406,-0.37045466146802714
4.5546875,-0.28685168413951023,-0.6380296604978478
4.55859375,-2.3666275858316603,-0.8212456830314379
4.5625,-1.1251068647313571,0.23586936843630316
4.56640625,0.5729348291011576,0.4131405781983295
4.5703125,-0.6536653754527231,-0.7772027881722933
4.57421875,0.7368313415768012,1.2638504320161605
4.578125,0.4729499355089514,1.4604475772968495
4.58203125,-0.009436087624060126,-0.015627309798929286
4.5859375,-0.5559204108948679,-0.319433160637343
4.58984375,0.8839205544526735,0.030660184296714577
4.59375,-1.0295088480266554,-0.5238072694431237
4.59765625,-0.900962728394091,-1.0205267758003935
4.6015625,0.3916807286842813,0.6552615224204235
4.60546875,0.763854926009945,-0.8123447005569124
4.609375,-2.133280540716018,1.4948554601899453
4.61328125,1.6208532283191952,0.5755739287855621
4.6171875,1.619829489775525,1.6752995489960751
4.62109375,-0.7655188110277995,1.3013603402724134
4.625,-1.0941131773397406,-0.9176092644975602
4.62890625,0.3757927623690691,0.3831343963519018
4.6328125,-0.8198814555608289,1.5764563551971373
4.63671875,-1.3402349031394902,-0.05203976490308778
4.640625,0.17286601134705679,-0.2693885892775081
4.64453125,-0.28793092777247536,0.6668425261184935
4.6484375,0.08864829891769975,-0.27061647957118645
4.65234375,0.15985542017168486,-0.4264738412419259
4.65625,-1.0870735929554978,-0.5454906220742417
4.66015625,0.11313796936251985,-0.7123804064652836
4.6640625,-0.7094296908085695,-0.9894679498860026
4.66796875,1.0687673294234452,1.1555583720826532
4.671875,1.2401250810967195,-0.9180268770645056
4.67578125,-0.3534047894398662,-1.1036135471278743
4.6796875,-0.7826378682301923,0.14921069492275837
4.68359375,-1.8109548986569526,-0.5493480751755315
4.6875,-1.5431993409679345,-0.1910648886656316
4.69140625,0.3817035681766424,-0.3057372234638587
4.6953125,-0.1967425902202286,-0.5025120662322565
4.69921875,2.196359832595032,0.3812627839870462
4.703125,-1.0833015752910318,-1.0673143741842779
4.70703125,1.1491008621654388,-0.9894517064503435
4.7109375,-0.13234555048096833,-1.3769406583188446
4.71484375,-0.6329785898430179,-0.26332063258533667
4.71875,1.3192961347106593,1.6858239439462779
4.72265625,-0.9621187214799537,0.061561175327928
4.7265625,-1.0338286342491996,-0.5752343480520263
4.73046875,-1.0563119216542298,-0.08765212998173491
4.734375,0.16329211786711523,0.06275711110767881
4.73828125,0.3298533200604646,-1.404094115599408
4.7421875,0.43446924929768105,0.4986621901274016
4.74609375,0.8265419838120036,0.751383960700525
4.75,-1.6277572391101924,1.124152063334581
4.75390625,-0.2835437220115434,-0.1912465113177249
4.7578125,-0.0026736247710529484,-0.3454174239799248
4.76171875,-0.10321146550199785,-0.5033588479185136
4.765625,1.5095314189192819,1.195435886790621
4.76953125,1.5822007744200486,-0.31504846358593946
4.7734375,-1.2202650261940804,0.14826780564407216
4.77734375,0.5847013744328718,-1.7486070638490894
4.78125,1.3565462242667028,-0.6988453542030674
4.78515625,-1.2573703991484033,-0.4542696071371514
4.7890625,0.759041965867443,0.9658776248196426
4.79296875,-1.2964738930430786,0.16110719502927767
4.796875,1.2356486623681944,2.269553523571149
4.80078125,-0.10287414059790233,-1.039409235415427
4.8046875,-0.3059541051417075,2.2370038294816683
4.80859375,0.38288497976270885,0.4730824440344859
4.8125,1.0737616011519209,-0.29896277108533537
4.81640625,0.6459511904573708,0.44511057129163795
4.8203125,-0.48109146254226576,1.2306081439930825
4.82421875,0.6737901922105541,-1.839798436227732
4.828125,-2.0752704955640286,2.3764395433530896
4.83203125,-1.0765907712748009,-0.7329602402308639
4.8359375,0.7996587800644281,-0.2546404631589972
4.83984375,0.8625604617937175,0.3076273057201513
4.84375,0.019153632763971144,-1.519433457604007
4.84765625,-0.5170735843327795,-0.20177696767423972
4.8515625,1.524255758082774,-0.9090274534893191
4.85546875,-0.7288369433411913,0.36328001368768575
4.859375,-0.6380696232695634,-0.4092756617610214
4.86328125,0.34524924877627644,-2.2550715587835715
4.8671875,0.3478556442138447,-0.38890045717707106
4.87109375,-2.2532300215432937,-1.0943772690545006
4.875,-1.560954819616426,-0.6478872143782225
4.87890625,1.4341569209600638,0.5804546111013437
4.8828125,1.4895707039595938,1.2998854955911072
4.88671875,0.28234201939107456,0.6375717018948754
4.890625,-1.2093488264100105,-0.7028825010111347
4.89453125,0.9571772599725018,0.5218710934394052
4.8984375,-1.4582999091173106,-0.004358773224849866
4.90234375,0.5783246301633432,-1.9834317088441975
4.90625,0.7089994825738909,-1.0461652627828297
4.91015625,0.1905815966491044,0.1662733573498612
4.9140625,-0.3623087090053986,1.7721864197158963
4.91796875,0.3141248206469138,0.7475967176698572
4.921875,0.1713992764945899,-1.2306477487761902
4.92578125,0.5191616224927772,-0.40414287178246744
4.9296875,-0.0024206777102583244,-1.5263480962324556
4.93359375,1.6310797556225283,-1.80096389865548
4.9375,0.17877617741579369,-0.049587017567165756
4.94140625,0.0429822698869196,-0.004964515904675054
4.9453125,-0.4602194185922203,-0.3846608076791906
4.94921875,-0.9942563978756327,1.524473898426515
4.953125,-0.20836818861132902,-1.1299992767111127
4.95703125,0.931302967498074,-0.13766422326657743
4.9609375,0.19083470965754118,-0.2374553218168779
4.96484375,-2.4651213772080833,-1.9028180133247847
4.96875,0.9048542189787634,0.47337712849281466
4.97265625,-0.7402694433063075,0.38755713496103344
4.9765625,0.9663631525741604,-0.955947327821222
4.98046875,-1.0150941445794295,-0.24542775635562786
4.984375,-0.6223034289532456,-0.3065896725425366
4.98828125,-1.5834609107765028,1.5355361972037822
4.9921875,-0.9201119552825296,0.6944849092212855
4.99609375,1.190284841883926,-0.971616425711633
5.0,0.12434281490318466,-0.21753040069652319
5.00390625,0.6251008654624152,0.4416408692216459
5.0078125,1.7672168574639713,-0.3862639242683128
5.01171875,-0.3473100752183457,0.48789953830841537
5.015625,1.1606542239965085,-0.5442149376705749
5.01953125,-2.058310389641657,0.21384573929465772
5.0234375,-2.413543968158805,0.3100882162657537
5.02734375,-1.31964164463977,0.18720638036604062
5.03125,-0.27322979361883637,0.7133440230070542
5.03515625,-0.20902680431527318,1.7967503621819902
5.0390625,0.3518993088884211,0.4225750289703144
5.04296875,-0.9449333657673232,0.27435187375991593
5.046875,0.29136002612357903,1.203947987721521
5.05078125,-1.9360299838999673,-0.5917923236532673
5.0546875,0.6666487673811484,1.8797394328516852
5.05859375,0.36420968661416014,-0.5125163190064592
5.0625,-0.33261687234866305,-1.7671567367753367
5.06640625,0.3145407352825539,-0.41471304085452343
5.0703125,-1.1490768675053962,-0.8388812839884422
5.07421875,0.4550158515505963,-0.6206968670944001
5.078125,0.04314199801722102,0.6873732215266046
5.08203125,-1.7263976438760162,-0.36884900752035005
5.0859375,-0.832764058609851,0.07486312596997657
5.08984375,1.16271550138909,0.8906491599506171
5.09375,0.24364662534023307,-1.052735894190444
5.09765625,-0.594612369719317,2.137561010059306
5.1015625,1.345504645589449,0.7954799762853786
5.10546875,-0.05815340872664697,-1.162595512671702
5.109375,0.3849776746211175,0.11531730998199159
5.11328125,-0.5356973535045951,-0.28600977980710196
5.1171875,-0.1425127787795117,2.6213819726083085
5.12109375,0.4178573210143017,1.4642659173352592
5.125,0.6014766361279594,-0.20070203352986954
5.12890625,-1.153817417570127,0.307182054436198
5.1328125,0.249449528204398,-0.17854714341007863
5.13671875,1.5044234998386419,0.9029121878213036
5.140625,0.9215775288107428,-0.4138740214734931
5.14453125,-1.1588789581630623,0.5461517627825275
5.1484375,-0.9453595738162747,0.12438751117206213
5.15234375,2.123675017692467,0.9574859906975398
5.15625,-0.6467827039722958,1.1758387620843986
5.16015625,1.5856260864103555,1.2286429098861136
5.1640625,1.1061652267631097,0.41341348143671874
5.16796875,-0.6053697540355558,1.2608482020012954
5.171875,1.7505044293507648,0.24593681979152804
5.17578125,-0.23488555715435602,-0.829055408678308
5.1796875,-0.0008232117395147022,-0.02668912552048346
5.18359375,-0.5292456487703898,-0.763553101911563
5.1875,-0.08474706120272221,1.665275682021612
5.19140625,0.7802323025407586,-0.33648096185891896
5.1953125,0.6919575930130651,-0.8867361677291198
5.19921875,0.9105411196484946,-2.7889590275090694
5.203125,-1.025501205996172,-0.6158276806491669
5.20703125,-0.36127011934111464,1.7388458235475428
5.2109375,-1.0494254226711297,-0.2230968215089878
5.21484375,0.6681296436096122,-0.23120322848165337
5.21875,-0.9713322267764475,-1.6551417930959165
5.22265625,0.7603286328831806,0.8201173667264978
5.2265625,-0.578326059545721,-1.6308033270975737
5.23046875,1.3855527988155,-0.7213237674093113
5.234375,-0.37831645854027607,0.2837635088310604
5.23828125,-2.9432301855433605,-0.6023903905114529
5.2421875,-1.2915251458060137,1.464972031014945
5.24609375,0.5847909918121078,-1.7827545858429954
5.25,0.694054900759879,-0.3821526922584226
5.25390625,0.24393683309864742,0.5004923909729835
5.2578125,-1.7503945488875692,-0.2061620615060858
5.26171875,-0.7772864800220929,-0.40774367334231226
5.265625,-1.092214331305634,1.0852292759445452
5.26953125,-0.0726452209448849,2.0552951845883562
5.2734375,-1.2594852426907275,-1.1809681157961098
5.27734375,0.4953467202671231,-0.6004975541647184
5.28125,1.3006811354140517,0.004094846948901116
5.28515625,-0.8406998186386526,1.690565525390577
5.2890625,1.1430664768590226,-1.3122093284130223
5.29296875,1.2965738049431563,1.237219882531373
5.296875,-1.1619381775858866,0.48234571150098426
5.30078125,1.6356932811742966,-1.1458767551359819
5.3046875,0.2256815358319329,-1.4811788327070838
5.30859375,-0.9367939328679423,0.6897036749399784
5.3125,1.1962036711896367,-1.014044470156436
5.31640625,-0.22048385523622097,0.40902748196742444
5.3203125,1.5301493701128444,-0.99220642088835
5.32421875,1.7109650604726065,-0.5295978260428416
5.328125,-0.8878229592298794,0.6422182641799409
5.33203125,-0.196031462022934,0.8060953512549354
5.3359375,-0.7347680501086725,-0.0803152616819597
5.33984375,-0.017725010792889496,0.6753072888277883
5.34375,1.4188158198163316,0.39258924984986315
5.34765625,1.3618362788793277,0.5082316982174093
5.3515625,0.6519569532027607,1.351826994789582
5.35546875,-0.9753755567742541,-1.0199654818349295
5.359375,0.45473907527947754,-1.0005877987828034
5.36328125,-0.319573919760987,0.9285179522235244
5.3671875,1.7164785775188105,-0.5119392882789568
5.37109375,0.07542568337323358,0.26474388987422254
5.375,-1.1193862179323602,-0.8388698469162699
5.37890625,-0.3201435124413111,-1.4655950226898533
5.3828125,0.678404673144182,-1.1283895110256257
5.38671875,-0.5171010616207418,2.1262318727378093
5.390625,-0.39497128576457147,-0.32014484256462183
5.39453125,-1.3638258227313014,-0.14298804409474208
5.3984375,0.7742746540013744,2.614273331685605
5.40234375,0.47792180396665107,0.6618114213480952
5.40625,-0.31968623335783947,-1.49660694428159
5.41015625,1.0622962902353597,-0.5587263697847138
5.4140625,-0.4545028480185132,0.1460345152160731
5.41796875,0.9442298096826874,2.5574130865198863
5.421875,-0.11651883382734197,0.5094410069359949
5.42578125,-0.07798937832720697,-0.38526410037463027
5.4296875,-1.8018456477203806,0.2494427342907953
5.43359375,1.263126382531046,-0.4860738078024062
5.4375,1.3623503415043996,0.6877403384341442
5.44140625,-0.663116346309807,-0.7215328223688878
5.4453125,0.18086973748684995,0.3426531162624263
5.44921875,-0.21092533078178088,-2.192531379110219
5.453125,-1.3377450410727019,1.2524659176044748
5.45703125,1.7673118439168771,-0.6867532760221878
5.4609375,0.573718403473724,-0.07592857194599048
5.46484375,0.8568890719017558,-1.8034135028716036
5.46875,-0.09026657324213716,0.24569982023588002
5.47265625,0.8224561440551024,0.23359790533646482
5.4765625,-1.6063385785578765,0.19626278188826626
5.48046875,-0.6114543254020008,0.8448168792772522
5.484375,0.11821363201526845,0.31882297130736426
5.48828125,-0.8987813098332569,1.1889530169811713
5.4921875,0.5210717226862623,-0.13765670561093593
5.49609375,-0.1191010343495315,-0.1905908680531473
5.5,-2.4639521867850283,0.5539004237761594
5.50390625,1.6529671635006844,1.4865297262190116
5.5078125,-0.5605314977171499,-0.06461001695551409
5.51171875,2.0276361641314113,-0.46408360190900766
5.515625,-1.066482760185014,-1.1029855766485286
5.51953125,-0.15655030139087328,-1.8057300625767825
5.5234375,0.523587143106285,0.20048091870782953
5.52734375,-0.2290869773738868,0.5529033142410272
5.53125,0.1379106604322581,-0.3152923068519807
5.53515625,-0.6421140656300185,-1.5464141253687087
5.5390625,-0.533389294787431,0.15878947827725123
5.54296875,0.254209795211781,-1.1870371454934316
5.546875,1.2230222484352993,-1.3903071316326083
5.55078125,0.13321424589607958,1.2983609666655145
5.5546875,0.7267863325834751,2.261822672919529
5.55859375,-0.7710525705295366,-0.9218305272813644
5.5625,-0.7731290428639439,1.6598736145087358
5.56640625,0.4561437620859552,1.443978298122946
5.5703125,-0.3021633720992026,-0.9399307298843461
5.57421875,1.0002640311038338,-1.1648977953119688
5.578125,1.1990480818540568,-0.6165657187797052
5.58203125,1.02047074945041,0.5959332361119736
5.5859375,-1.8885710385651049,-0.5702319419555069
5.58984375,1.3422331800274496,-0.6016362134911526
5.59375,-0.4281335133355329,-0.4016840013355071
5.59765625,-0.21473172323223733,0.3855879108034957
5.6015625,0.8046410222715658,-0.014411422897208079
5.60546875,-1.0887524175669816,-1.1715858503929466
5.609375,-0.4122039055661241,0.9802698929828071
5.61328125,0.3456853248648145,0.2226038236933386
5.6171875,0.002208298614832411,0.4267557869657036
5.62109375,-1.5240669526360862,0.2779156854604057
5.625,0.3773949213255602,1.3560288146172317
5.62890625,0.7751386383690222,-1.0603453716271576
5.6328125,1.3888531308445047,1.183971923845845
5.63671875,-1.7543423878915538,0.7509468443510803
5.640625,-2.1222638771477293,-1.1481900849052067
5.64453125,-0.4320072694259685,1.3466209113206313
5.6484375,0.1288207145822247,-0.32518872854296343
5.65234375,1.3187890099656903,0.5244563022821799
5.65625,0.8352498840345198,-0.19458299895144657
5.66015625,0.4149795246793482,-1.2892665233421454
5.6640625,1.0777840350838868,-0.12152712690052235
5.66796875,0.5412685521738889,-1.7531654712439861
5.671875,1.3266404605329978,-0.6666723898267536
5.67578125,1.2156009978590505,0.33075817714504796
5.6796875,-0.6535472858650221,-0.5270463806322264
5.68359375,0.7331354918981494,-0.5015161281546145
5.6875,-1.1827043379006288,-0.7047875774134514
5.69140625,-0.4256038124507725,0.18980215596153244
5.6953125,-0.4804897700007237,0.03268527012665606
5.69921875,-0.7873387236076758,-1.0816040229369683
5.703125,1.3117260691060035,1.1943723217839122
5.70703125,-1.7305348854933729,1.2765352963177568
5.7109375,0.23648488060448583,-1.1622591420824988
5.71484375,-0.4711157094958376,-0.03180875531166185
5.71875,-0.7772012282694345,-1.3738869503258053
5.72265625,-0.7382687214807057,0.8844999751553356
5.7265625,1.4614061810712364,-0.37448534568658126
5.73046875,0.7532909618116174,0.7318154280391932
5.734375,0.803335234936654,0.015159451766191927
5.73828125,-0.0686772711314324,0.07818255034372334
5.7421875,1.6487813304133165,1.5191511883643478
5.74609375,0.7882127480973904,1.742096910651036
5.75,0.4378895304358689,-0.6431772245479757
5.75390625,-0.6478865076753717,-1.2875313803807509
5.7578125,1.4751031138659336,-1.6285108449673364
5.76171875,-1.3284630620646305,0.8069649380236742
5.765625,-0.22869517863263716,1.2742293637733793
5.76953125,-0.6646835682435476,0.6416551886299938
5.7734375,-0.7757266819966815,0.8275858719333747
5.77734375,-1.4524823094499977,-1.568802138517445
5.78125,-1.7045043825249353,-0.9055219154034204
5.78515625,0.3655314709285584,0.15098649229703262
5.7890625,-0.01644775415818835,0.9463220759010927
5.79296875,0.18095276557070775,-0.6694481332163518
5.796875,-0.3980078429005564,0.260856295567779
5.80078125,0.055496881723629043,-0.09990857888874315
5.8046875,1.0114746012576175,-0.7965981212564048
5.80859375,1.4944681033357443,1.4400626164530719
5.8125,-0.16996172544311028,-0.0677285987739079
5.81640625,0.12091000613030652,-0.7939058633779219
5.8203125,0.36404938379263513,0.6503524786079881
5.82421875,-1.6129721090296592,-0.3250787611212423
5.828125,1.1320944229100935,-0.3118883452440878
5.83203125,-0.7384307918974841,-0.759667364858431
5.8359375,0.5955045130521189,1.1564963311215444
5.83984375,-0.07435042209687188,-0.28191606857041274
5.84375,-1.5898819555560166,0.9141017561011953
5.84765625,-1.30903259820461,0.47102928018895535
5.8515625,1.3510227435167084,1.163460726945969
5.85546875,-0.7229345960817499,-0.38910724633112065
5.859375,-0.5481545191480605,0.6716199397304248
5.86328125,-0.8938508053695146,-0.5225350137360153
5.8671875,0.84503302590448,-0.6333945590343967
5.87109375,0.5609746063003959,-0.17551885114370913
5.875,0.29333852422104134,-0.13189234538574954
5.87890625,-0.24935699497785382,-0.35423995746607784
5.8828125,1.3352257345009348,-0.9029503481877506
5.88671875,-2.422637371769667,-0.8708309649311772
5.890625,0.3167659208616599,1.0758830412430451
5.89453125,-1.3070079192264021,0.1549003694776329
5.8984375,1.67072633069098,-0.3870088289754996
5.90234375,0.8839643330345037,-0.49391259742823646
5.90625,-0.587852085362515,0.23038075915194894
5.91015625,-1.5363661873993493,0.8814894229062648
5.9140625,0.3238670268543966,-0.1266663382456982
5.91796875,1.4610416392496959,-0.4775595354605527
5.921875,0.6642767087226501,-2.2551942252851696
5.92578125,-0.9803564292890506,-0.07333549169060709
5.9296875,0.4184834001417805,-2.589264024745757
5.93359375,1.2697978655253246,0.266351748332165
5.9375,-1.2114775431491234,0.2326350820203889
5.94140625,-0.12133193551863368,-1.4889595544456127
5.9453125,0.017210261213561846,1.2909289933010093
5.94921875,-0.4486397689951296,0.13320447198336366
5.953125,-1.0577803199677196,-0.13765299064927428
5.95703125,0.6408422006334931,-0.14957997442672027
5.9609375,-1.005166187368896,0.7104269825185778
5.96484375,0.04692998521514773,-0.7190175736756523
5.96875,-1.2066908072008562,-0.35169504379896027
5.97265625,-0.2088033009924973,0.7597282819201823
5.9765625,-0.31464911180636046,-1.4361175338708398
5.98046875,1.42593350882225,1.307172098508494
5.984375,-0.8963975977863621,1.380507201944353
5.98828125,-1.6292720095377682,0.39397359710958874
5.9921875,-0.591455040580481,0.2377647783344448
5.99609375,0.8990033335844043,0.2879048184972867
6.0,0.09384893309278997,0.7916386818902046
6.00390625,-0.23878199569663955,1.9459459682016895
6.0078125,0.07322172035626393,-1.0605601717934634
6.01171875,-0.03220334432305767,0.07798551442304
6.015625,0.5138921918003367,0.5007156157003746
6.01953125,-0.1596438059204206,-1.893379136020929
6.0234375,-0.3579490391239337,-1.0422547652155738
6.02734375,-1.0579668617464026,-0.19827053563946803
6.03125,0.36001053484335793,-0.4405118678703258
6.03515625,0.25405833578514425,0.6629772262260506
6.0390625,0.6426362472005507,1.3658239292149519
6.04296875,1.1895843745420809,-0.5645184550271123
6.046875,0.4498516970126615,0.02658962102547813
6.05078125,-0.708034471407568,0.7809301314844782
6.0546875,0.27677539640015714,-0.17302665596587824
6.05859375,1.6680793224075077,1.9666321718602233
6.0625,-1.0287429415505922,1.2827311846887581
6.06640625,-0.6780416928849804,0.7832943036211426
6.0703125,0.30466285166209267,-1.3587221185841079
6.07421875,-0.552186312929257,0.5827007699566861
6.078125,0.4236911553690065,0.5930040162218627
6.08203125,1.1062988325843954,-0.03142390589620212
6.0859375,0.2769054867603493,1.53493989627302
6.08984375,0.7610943353045038,0.9649229018693045
6.09375,0.41419245108291325,-0.6549840768940214
6.09765625,0.9742087233772605,-0.9715235135422466
6.1015625,0.12962041608223188,-0.742964153430368
6.10546875,0.7325869510116081,-1.2881462702486688
6.109375,0.484764547650275,0.4208077047464441
6.11328125,0.5735360477296373,0.6275055959802578
6.1171875,1.5662316411327495,-0.025705411522795117
6.12109375,0.008283176164555883,1.1279606891590739
6.125,-1.9363960361468102,-0.8711118013421275
6.12890625,-0.6224170330303448,-0.6562453185831667
6.1328125,-1.2981861321313475,-0.09371022715511976
6.13671875,0.03810136335838485,1.1388596729450249
6.140625,0.22168437747446268,-0.2581213678012614
6.14453125,-0.40208393836902795,0.19271960538225025
6.1484375,0.5241917760512085,-0.41091601033514774
6.15234375,0.14904015982600796,-1.3667322366350332
6.15625,-1.4189622867013973,0.07577838877441805
6.16015625,0.2353393695109773,-2.4473758862881003
6.1640625,-1.8348196039548725,-1.355494062968595
6.16796875,-1.1712114306978403,-0.3706269440182227
6.171875,-0.6204425416106261,-0.8140007725863968
6.17578125,-1.303536971509729,1.6036772662238579
6.1796875,0.4240250459916567,-0.5532166484825807
6.18359375,-0.7242813973757865,-0.3696850744030405
6.1875,-0.8443734562822681,0.1565634147950537
6.19140625,1.1063604480446627,-0.5735790398553707
6.1953125,0.609444930667566,1.5531935957886696
6.19921875,0.33779914774533487,-1.3141273565208031
6.203125,-0.09647034043819729,1.9817247592282958
6.20703125,-0.6161895635510002,-1.7635573648445977
6.2109375,1.4403278735761074,-0.729639017206249
6.21484375,1.2996045310174857,-0.6916546819276213
6.21875,0.255477628682182,0.5239860885210228
6.22265625,-0.8759384036162253,-1.310726664072817
6.2265625,-0.16591968115617353,0.8310140598916305
6.23046875,0.6633504879804804,-1.2178734388250685
6.234375,0.15830664982837458,0.07430789270719163
6.23828125,1.1108346084836134,0.7333016454675193
6.2421875,0.48204550535917523,-0.9138986364817778
6.24609375,1.8975233179130715,0.7990387343420142
6.25,-0.21088268397079146,-0.16871830019631112
6.25390625,0.9320302550017251,-0.2830173080263254
6.2578125,2.0741549999311557,0.4046210078880227
6.26171875,2.187561711711487,2.6736979227500526
6.265625,-0.645083601809176,-0.9286207212418935
6.26953125,-0.9194782849172686,0.9562375442821341
6.2734375,-0.24938467122287034,1.2618536886344944
6.27734375,-0.7048804640401976,-0.8449678594348022
6.28125,1.754552810902097,-0.5910720945252024
6.28515625,0.27907374528331674,0.9709746010201181
6.2890625,0.5496290336164362,-0.8498971025845614
6.29296875,-1.740040260598575,-1.3348600941942246
6.296875,-0.8473191923043522,-0.2726653345580422
6.30078125,0.7085756938031345,0.4008724411810843
6.3046875,1.180560268573721,-1.9265042377819734
6.30859375,0.1643231038185075,0.6940152361304728
6.3125,-1.0381536014223538,-0.2805738755028605
6.31640625,0.28845412638356643,0.8798684976582016
6.3203125,0.46946945971855353,-0.09318179308838079
6.32421875,0.39797200071017347,0.43906433469994177
6.328125,-0.6245509762508256,-0.5407622173953088
6.33203125,-0.43111842411469486,0.7265535276912423
6.3359375,0.63707275412436,1.3425471984931023
6.33984375,-0.2436010829314128,-1.3887409659129142
6.34375,-2.3353202979390493,0.5009041778857405
6.34765625,0.697823816576463,0.6743549547666118
6.3515625,0.9283006393748522,-0.8259741059090627
6.35546875,0.10093087043571518,2.1976808833362527
6.359375,-0.5384936966507027,-1.0462060355626863
6.36328125,0.6748785093649932,-0.7044032818419393
6.3671875,0.40753917745740054,1.0690697021634774
6.37109375,2.110989513889986,-1.991771192601069
6.375,1.1549053056408407,-1.1925078937936124
6.37890625,-0.36696802498793907,-0.36950339707487917
6.3828125,-1.4214661499921426,-0.9985123320930217
6.38671875,2.0902663364607994,0.11742906355933623
6.390625,0.4819586735620345,-1.664900514529817
6.39453125,-1.2633557895622791,-0.46534826643247057
6.3984375,0.9063466149320375,-1.5728665096088936
6.40234375,1.9127472872294016,1.056870214796479
6.40625,1.031774864855974,-0.023817100163314515
6.41015625,-0.04815427752124744,-0.01350827878914998
6.4140625,0.07540572589583382,0.47922595800859946
6.41796875,-1.2504010294591232,1.6776410639903345
6.421875,-1.1818506194952998,-0.23786585298060878
6.42578125,-0.3290560941573583,-1.148430691142699
6.4296875,1.1067320916613892,0.9900182918580995
6.43359375,-0.3573911159798802,1.8624344877133534
6.4375,1.6510591972105744,-0.4137170623604512
6.44140625,2.021582945926305,2.1436764227845053
6.4453125,-0.3213869515127134,0.29389309629575444
6.44921875,0.040225358299573084,0.6987930568263546
6.453125,-0.14175255651188345,0.8232361197706703
6.45703125,-2.501297787430456,0.7235794389820371
6.4609375,0.029702958988562192,-1.297919627317077
6.46484375,1.1264665213844782,-1.768302051312859
6.46875,-1.4812544172759785,0.1676019375590705
6.47265625,0.9104804520544847,-0.34623654195314013
6.4765625,0.9723330248221702,0.831349201626417
6.48046875,0.17493945080014378,-0.5563322164221034
6.484375,-0.09701157838455884,0.01985077759027728
6.48828125,0.661465700179145,1.708262860827535
6.4921875,-0.9335040220207255,-0.8594117207267377
6.49609375,-0.22379196021959694,0.8357504535614091
6.5,-1.3396468077113313,-0.8862750006080566
6.50390625,-0.3710192486407861,0.28594712436420266
6.5078125,0.8756663329602363,-0.5794019368370736
6.51171875,-0.283199940313167,-0.00034103736229346615
6.515625,-1.8452197164601256,2.535128685880078
6.51953125,-1.3832202599670518,0.7550250970299698
6.5234375,0.01651290011189209,0.23563472540397107
6.52734375,1.207347783243583,-0.7917573433802615
6.53125,2.1547680833095093,-0.1589328069682132
6.53515625,1.2022421492166206,-0.601567770127014
6.5390625,-1.7125619060295978,-1.5457763933767066
6.54296875,-0.8431207359013007,-2.5531940552035883
6.546875,0.661765205062703,-0.2799816480005151
6.55078125,-0.46520382161331375,-0.3210343838272154
6.5546875,-0.993188077799094,-0.3835019685805757
6.55859375,-0.07665870416403534,1.1458350854471187
6.5625,2.7352128076876703,-0.5074352111882998
6.56640625,-0.5455390496990797,0.3683827993669769
6.5703125,-0.29165799004741944,0.03527259779178702
6.57421875,-0.362387642075403,-2.477420348435219
6.578125,-0.44099599319715727,-0.7011245386052198
6.58203125,-0.8112263879422837,-0.8638790695317499
6.5859375,0.4797516108426464,-1.2363215708523903
6.58984375,-0.1104894037669234,0.5548209420632322
6.59375,0.07543612651909312,1.5521346667869294
6.59765625,3.0035468070197995,-1.018626932535649
6.6015625,-0.7270857520736443,0.8393254444024306
6.60546875,0.13818398980146124,0.9365079724418756
6.609375,-0.08758308438034057,0.854240975330439
6.61328125,-1.0489373643149802,1.5627696071343335
6.6171875,-0.3481363637606987,1.881701119240719
6.62109375,-0.3576686572829368,-1.6964298266245372
6.625,-0.7253813192620411,-0.873410141243159
6.62890625,0.6284812618116213,-2.1632449329536523
6.6328125,-0.8999332894902256,0.09813471947072344
6.63671875,0.5371165203853702,0.7313954124163686
6.640625,-1.353667720772552,2.1666398784616074
6.64453125,0.032758718793151516,-0.7183426374073691
6.6484375,0.5123693726499434,-1.0009387365840612
6.65234375,0.9561708481550343,-2.197898018224783
6.65625,-0.13600544424024166,0.19007873588890858
6.66015625,-0.7197811236712016,0.174306509231615
6.6640625,-0.16569804020327503,0.19253605105036387
6.66796875,-0.18562153620306743,-0.4086336008340233
6.671875,0.984239704239983,-0.06845271775962028
6.67578125,-0.611004678497749,0.412568498516642
6.6796875,-0.7647887313007703,0.080290058766082
6.68359375,0.13141672752969663,-1.3655809791197266
6.6875,-1.2529701236813093,-1.1353394475145633
6.69140625,0.7231056855060514,0.33768155189803734
6.6953125,-1.1597781043000446,0.12791755915789502
6.69921875,-0.17196585615742516,0.25266793798965437
6.703125,1.4800659217791594,0.3207624417385638
6.70703125,1.4824864616569111,-0.5981323078831927
6.7109375,-0.1121464095710244,-0.618119620142063
6.71484375,0.044240639476140445,1.0203066247187964
6.71875,0.014972573657181446,-1.2935874084875174
6.72265625,1.991981474223255,0.1320188010111112
6.7265625,0.44714417820190927,-0.3687171515454037
6.73046875,0.21710577447129092,0.8089782182203014
6.734375,-0.6655230926303018,0.4679755267183211
6.73828125,1.0312257225422923,1.3272160621426214
6.7421875,0.43933310253940727,-1.4021141169231917
6.74609375,0.1741156739446349,0.1939564812566156
6.75,-0.6988198738770157,0.5176344975865683
6.75390625,1.0269980303938406,-0.08611114924036573
6.7578125,0.2784141843561645,2.063359154853187
6.76171875,1.4168219630115917,0.387831257373388
6.765625,-1.2538390211526673,1.293584043195098
6.76953125,2.1610557156913655,0.9853563582179604
6.7734375,-0.3474368610380587,-1.3812142473855917
6.77734375,-1.042347367700558,1.5700222923559193
6.78125,0.5960671340707392,-0.5057035843404668
6.78515625,0.2037311703138128,1.233091367002628
6.7890625,0.680361731973517,-1.541908229039971
6.79296875,1.7400775709800675,-0.020827474344207855
6.796875,-0.3911986655464466,0.01883767962110421
6.80078125,-0.9497573332965837,-0.9250668742249757
6.8046875,-1.5565708635241726,-0.38333474412660745
6.80859375,-0.20133519452149512,2.097058728564667
6.8125,-0.36846112117441154,1.2695168251045739
6.81640625,-0.15922732851011898,1.5490703706179674
6.8203125,1.521820774784427,-1.0070906018688681
6.82421875,-0.027310838350398537,-1.1117447780905698
6.828125,-0.2624360571759919,-1.3934324098188067
6.83203125,0.5338285317529643,1.4698681833149942
6.8359375,0.6076448133091432,-1.5835877029410692
6.83984375,1.564098092446562,1.647047886303564
6.84375,-0.5120721069388382,-1.393620200501196
6.84765625,-0.550867547848793,1.556420447161174
6.8515625,1.0718348663395338,-0.44562264039711363
6.85546875,-0.44403584411643593,0.306596770645446
6.859375,0.816145056084267,-1.3501770642908426
6.86328125,0.3177999162102456,0.2291963125040485
6.8671875,-1.1003415881000875,0.4343595607928308
6.87109375,0.21023859241549314,1.5379642928696162
6.875,2.3797325422615008,-0.8721169521985177
6.87890625,0.02350371826204616,-0.8455588725818937
6.8828125,0.5554636835143891,0.35118689882581305
6.88671875,-1.581289845044313,-1.0731913034824034
6.890625,-1.2573538726024016,-0.149011010476817
6.89453125,1.5938155409019463,-1.0834169979820432
6.8984375,-0.2564216839524544,0.04781808423869033
6.90234375,0.038366060867275606,0.025703068890638406
6.90625,0.21440406155651148,-0.5369939593989554
6.91015625,-1.0813312514577098,1.0717818203114986
6.9140625,1.1404620332522721,0.7155628830004431
6.91796875,-1.7462590263352054,0.22370419786076293
6.921875,-1.3423044366298222,2.082659729921759
6.92578125,-1.3424574041398125,1.1991727364780702
6.9296875,0.7142428475975618,-1.5046725579342572
6.93359375,1.328141364747533,1.3572253524214681
6.9375,-0.7618600976044128,-1.3469828054246344
6.94140625,0.20387746649958657,-0.1347749570915652
6.9453125,0.13062396500228862,-0.41417655920908675
6.94921875,1.0058943248936698,0.20961133216729474
6.953125,0.5061864897963038,-0.4747981695312491
6.95703125,0.496612929646896,0.19775009224137308
6.9609375,0.5948518237268134,0.9334331816811857
6.96484375,0.8459128596387284,-0.7682518060749645
6.96875,-0.09114660269640487,0.810165755105932
6.97265625,-0.3823146696611789,0.41906293230866964
6.9765625,-0.3151625164983304,0.36715773157161774
6.98046875,-1.5472540141338198,0.8273650445021611
6.984375,0.5934590576799744,-0.2561448228078704
6.98828125,-1.4965561916362062,1.4250343516446022
6.9921875,0.39094348525716577,-0.7779866021939958
6.99609375,1.3065576968795245,0.5360723485921253
7.0,0.6719597096620739,-0.12444132638519755
7.00390625,2.0440917805843353,0.05623179723652004
7.0078125,1.0222078629698792,-0.8465268575345376
7.01171875,1.2405412887375273,-1.555087149064663
7.015625,-0.7308101660723484,-0.6074259548510569
7.01953125,-0.27984653680303656,0.08721010492362014
7.0234375,0.09903957806722435,-0.04805463623585938
7.02734375,0.4827884100217768,-1.0165883966955291
7.03125,-2.5418768654142703,2.0862911816429195
7.03515625,-1.7325411616003743,2.609308492733556
7.0390625,0.6979131407738007,-0.8897968048521521
7.04296875,0.2895204266730458,-0.643878474709072
7.046875,-0.5533447625058099,1.3841061837549
7.05078125,1.168727483803859,0.13764911135094898
7.0546875,-0.6867715776156039,-1.8018029880297854
7.05859375,0.4537611046594612,0.8727275417445906
7.0625,-0.5118870177103606,2.0992479222910423
7.06640625,-0.5084818241360602,-0.864226055988942
7.0703125,0.4768152722774369,-1.4452771693061224
7.07421875,1.5284474269939752,0.6713338450672747
7.078125,-3.057759391421618,0.2756453183642773
7.08203125,0.8914905744781845,-1.1992067469327383
7.0859375,-0.9149628978073413,-0.5104438719367681
7.08984375,-0.8075894180740633,0.10014177601524626
7.09375,-0.8639650779945705,0.21065839015603607
7.09765625,0.4230759847203389,-0.386834775286032
7.1015625,-0.9924097497799532,-0.3797732614413647
7.10546875,-0.3471592634899135,0.6513459665449653
7.109375,0.6266041170342347,0.3324962971797209
7.11328125,-0.5214552115467399,-1.7571675740360877
7.1171875,0.6557613329981192,0.8889171111846361
7.12109375,0.7582164873956634,1.2470020506507564
7.125,0.40198400281807817,-0.42772528762408174
7.12890625,-0.012545794658820449,0.33117428645103064
7.1328125,-0.5506505990003423,0.8049843941113376
7.13671875,-0.4648337460279359,-0.17973178286180777
7.140625,-1.0398145531299017,0.0017629162049048713
7.14453125,-0.6054676898740619,-0.9049207185652818
7.1484375,-0.5011886748414823,0.04961349218110206
7.15234375,-0.6615960335051776,0.5483666272248087
7.15625,0.9312704507588627,0.15559148471130005
7.16015625,-1.1436889690647538,0.861644706327898
7.1640625,-0.17012718665181087,-0.804422180061139
7.16796875,-0.18819431500060926,0.19368939596085194
7.171875,-0.057717581449776,1.36684619024173
7.17578125,-0.9076213334313845,-0.9191839222817426
7.1796875,1.7521136184358237,0.6403998191639535
7.18359375,0.5750573688262013,-1.5979053768720073
7.1875,0.8752538444502975,1.3142832480783755
7.19140625,-1.3189022523045435,-1.4357153192849221
7.1953125,0.39980142650359823,1.4733121278036345
7.19921875,-0.6149345781821961,2.019602750650079
7.203125,-0.05266355790050231,-0.3992765672187209
7.20703125,2.753916881046553,-1.778941343304592
7.2109375,0.607708784729357,-0.03104862690845625
7.21484375,-0.04709961176916705,0.39455801529712825
7.21875,0.1789730852604187,-0.2141809189419753
7.22265625,-0.41276187776553425,-0.1225517599207265
7.2265625,0.3349875360027342,-1.4574550355972054
7.23046875,1.4120835354836438,0.49263837334457383
7.234375,0.4228662071267899,2.002379155617813
7.23828125,-0.027206599906136046,-0.07065442390589975
7.2421875,-1.5969119051583736,-2.4032952872588496
7.24609375,0.903366306554358,0.18248513202702335
7.25,-0.6628291782035727,-0.1401986275295128
7.25390625,0.7208732330150833,0.5783686750677715
7.2578125,1.2594036695227522,1.3283597531381353
7.26171875,0.49436273654273505,0.09292658524270146
7.265625,0.9055164411089488,-0.8988909619237156
7.26953125,-0.41996643299530784,-0.1061218907395587
7.2734375,1.5386836431308872,-0.02817534688105834
7.27734375,-0.5347564127958302,0.2673743337359726
7.28125,-0.17921120890904857,3.355534210192144
7.28515625,-1.672398440163994,-0.24915516056250658
7.2890625,-1.9806075637269849,-0.1407559051322178
7.29296875,-0.6089365486946992,0.32714241186075466
7.296875,-0.026939493071700942,-1.1201537092539506
7.30078125,-0.2823564616569431,1.7061197225695952
7.3046875,-1.6626739478107224,0.43030215494110446
7.30859375,0.39336263388833453,-1.0387287414662523
7.3125,0.980341125972098,0.07374604347945911
7.31640625,-0.050595926740962784,1.1438110533011934
7.3203125,0.8200261182551076,0.9524274288358854
7.32421875,0.06845624807068611,0.2524912280925098
7.328125,-0.3075516105112765,-0.05823857073039915
7.33203125,0.7270453939422605,0.5343391210884907
7.3359375,0.541606265364818,-1.1764251041929163
7.33984375,-0.5046731301686675,-1.0027381621096
7.34375,0.5725706879169165,1.391366814526595
7.34765625,-1.2831312467246019,2.8878845884649325
7.3515625,-2.130619727758075,0.5855300935246573
7.35546875,2.0770552977435126,0.223787668276869
7.359375,0.6188818741467688,-0.9031792119269539
7.36328125,1.0050535617131315,-1.0926722848051291
7.3671875,0.5231314742816112,0.9653338538575926
7.37109375,-1.1796024345088558,-0.0906827213907927
7.375,-1.4542516496235742,-2.683237897994025
7.37890625,-0.5737548936764992,0.06530036538994383
7.3828125,-0.263095170957383,0.05152210494085072
7.38671875,-0.8339792016249902,0.1137425847111502
7.390625,0.5437627212328392,0.9994027206966184
7.39453125,0.45075740398797376,0.8443276978922309
7.3984375,1.2243064798005607,0.6184684334606552
7.40234375,0.21662892488933924,-0.8446080913035104
7.40625,-1.5637615137447847,-0.8287242870639887
7.41015625,1.6096422869809757,-1.4661114783208307
7.4140625,1.4075599174380236,0.2152907296980924
7.41796875,-0.9367923331887373,0.14837615648488037
7.421875,-0.5877994052340718,-0.3463292998134591
7.42578125,0.3715791235100154,-0.7358598665965436
7.4296875,-1.3796606648224012,0.07229909695963242
7.43359375,-1.0625478100594317,2.6936619073974595
7.4375,0.5976214975481121,1.0010663574503802
7.44140625,-0.1007107734413548,0.9375221726551081
7.4453125,-1.6015388823316836,0.8846210610233562
7.44921875,-0.1477180290269641,0.9307613016647651
7.453125,0.443347986763862,-0.37597954179912657
7.45703125,-0.31315723549288343,-0.3499177370269324
7.4609375,1.2237840379720084,-0.6162449726383776
7.46484375,1.7425240940559212,0.6719932411156864
7.46875,-3.5588548686898793,-0.2407983229074355
7.47265625,0.007694490402987952,0.5978008827432462
7.4765625,-0.8765169378869351,1.432241018944644
7.48046875,-0.9497372885022676,-1.5527453140165373
7.484375,0.2833465705005434,-0.9592830816539047
7.48828125,0.07279992196900151,-0.028162436056142603
7.4921875,-0.9399542476294782,1.7797656647394366
7.49609375,-1.605272044715045,-0.8811185954375588
7.5,-0.9832246980877986,0.24437495116855462
7.50390625,-0.9031514823934121,0.48658762576317
7.5078125,0.5290631941480949,-1.959889305132755
7.51171875,-0.6482064951977928,-0.3324968307027764
7.515625,2.5620594227176205,-1.067414325093434
7.51953125,-1.6027350034075996,1.6672403792453974
7.5234375,0.24404121491592412,-0.512870715952415
7.52734375,0.40162239873101224,-1.7309682575400485
7.53125,-1.613444761679019,-0.1846662489788046
7.53515625,-0.04474886730870685,-0.41084643976570767
7.5390625,1.0304844699620324,-0.678971898389328
7.54296875,-1.049728937396603,1.4527868513252369
7.546875,-1.2627989018905583,0.9666878865908246
7.55078125,0.8870994915735397,0.37069574192813687
7.5546875,-0.22824370109211417,-1.012755039574943
7.55859375,0.24487645350868628,-0.01328421614373963
7.5625,1.2778330679434902,1.0422123817436513
7.56640625,1.1626879918576267,1.5673697389837544
7.5703125,-0.6776000284355643,-0.7532974464357586
7.57421875,0.3834416555060954,0.08498589001597727
7.578125,-0.4122381588074421,0.6464846087542259
7.58203125,0.4488456455121102,-0.22046415040681572
7.5859375,0.6395977752671481,0.8360171128097662
7.58984375,0.22304387950706472,-0.9735580381688345
7.59375,0.31866069358237187,-0.7231052719401764
7.59765625,-0.9545756047246402,0.9967416292886662
7.6015625,-0.21826651587909954,-0.5851776922590146
7.60546875,1.5526789228015085,-1.1184116408877358
7.609375,-0.9896730045415684,-1.2400468695766638
7.61328125,0.7446124662188585,0.14017786993107095
7.6171875,-2.69819375095342,-1.2019638856944816
7.62109375,-0.0069008688758745015,0.19197048949271978
7.625,-1.9175579396007634,-0.39876226770723977
7.62890625,2.462963465802395,-0.1547390354653845
7.6328125,0.3911098190582159,-2.4004165511443003
7.63671875,1.0230199367652986,-1.3336794791185098
7.640625,1.411569492815543,-0.22722105322589564
7.64453125,0.9108280680696049,0.07830379473204423
7.6484375,0.7198440596612207,0.15965858996674676
7.65234375,0.5469776892969249,-1.0553780574215004
7.65625,-0.4730302129356673,-0.7932434637353087
7.66015625,-0.43687381220632554,-0.7006210722293809
7.6640625,0.6086475847666762,0.1823795839120879
7.66796875,-0.7655280310248646,0.468467912570222
7.671875,-0.5546335859259837,-2.128924852709028
7.67578125,2.474577601026966,0.9631635118899843
7.6796875,-0.09593590878706268,0.5384853578121453
7.68359375,-1.2453298732533167,0.8891203985546169
7.6875,0.01339252459989055,-0.038560123495053514
7.69140625,0.8434034347900942,0.38245359769749965
7.6953125,-1.2493598509850417,0.21297985935904687
7.69921875,0.4151883375092083,0.12397139466943159
7.703125,-1.7558544131328109,-0.16399804926600478
7.70703125,0.21728593882609373,1.4232324916276384
7.7109375,-0.437803588550158,-0.8314420062438276
7.71484375,0.3225955507229841,-0.8286756290564431
7.71875,-0.9458462788342409,2.2056016372328338
7.72265625,1.1727972794564916,-0.7161246440116812
7.7265625,-2.0499869629953853,-1.711880664465867
7.73046875,0.08923721193940731,-1.0005434677484888
7.734375,0.08228226670854166,-0.20162806685986204
7.73828125,0.3514127078382436,-0.5234299460773829
7.7421875,2.0376686202495486,0.4213620734629375
7.74609375,-0.5785448958342603,-0.3710813665607195
7.75,0.5345060420883896,1.137389662139448
7.75390625,-1.4279717470171733,0.501171444807694
7.7578125,-0.2300923374160308,-1.0604454165233055
7.76171875,-1.1488997463708728,0.6493863160938963
7.765625,-1.4359570010968652,-1.0198678117369577
7.76953125,-2.670484624304786,0.49494059279361385
7.7734375,-2.40568977231644,0.6679453022161703
7.77734375,0.2686491732365304,0.5773959034753003
7.78125,-0.15234040298364873,-0.7404527391958572
7.78515625,0.6564699781260683,-0.5964158480316846
7.7890625,0.18180799550361487,1.2013488396077858
7.79296875,1.551437868866158,-0.23168176506256102
7.796875,-1.4379077106062013,-0.7927475981282608
7.80078125,0.21467322521109475,1.1731523619466833
7.8046875,-0.8423568926545884,1.6219152029620545
7.80859375,1.8361521472840756,0.04182987099509846
7.8125,0.9234953561095846,0.9636000146212071
7.81640625,-0.1644429499309515,0.020648905382606494
7.8203125,-0.6096486336579456,-0.06763722069028574
7.82421875,-0.47399707765328214,-0.013694860223837382
7.828125,1.4178127368693565,-0.3592215848562158
7.83203125,2.3811765884268645,-0.006865818049696167
7.8359375,-0.33721915813227776,-1.0723299206536514
7.83984375,-0.69531459701793,0.6093924668411328
7.84375,0.2753596761791654,0.1614270125595767
7.84765625,-0.8806338943940979,1.392919567678153
7.8515625,1.6935476630454893,1.4336051385921413
7.85546875,1.3171066024669866,1.2853132468547939
7.859375,1.9087181752171671,-0.5721193749746083
7.86328125,-1.1080131189470606,-0.4604770886672828
7.8671875,0.16234903207771642,1.3550640758723251
7.87109375,0.17194904508484132,-0.15521647015195864
7.875,0.6275861488182883,-0.3707769887962422
7.87890625,-0.37973300067837934,2.3349126754611964
7.8828125,-2.211182338675183,0.26615794619820454
7.88671875,2.9255213090585404,1.0950734061288663
7.890625,1.1768588623646556,0.431940878574855
7.89453125,-0.13810342480331325,0.6770054848076279
7.8984375,-2.2841336763284383,0.589645467884747
7.90234375,1.7086058039566476,-0.7778170171511608
7.90625,1.1984709040194932,-0.966429901850698
7.91015625,0.3019930318853324,-0.9281006119837786
7.9140625,-1.3183044626897593,1.169759877883342
7.91796875,-1.7008817084423662,0.3574285930884884
7.921875,1.7435164544081698,0.7705748867043256
7.92578125,0.03683505302928565,-0.9629248038800045
7.9296875,0.8001950305792032,0.08874145001494456
7.93359375,-1.3766000440138701,1.1824501791459627
7.9375,0.030699707423880927,-0.7559277625080484
7.94140625,2.8544633654432845,1.7045854049153868
7.9453125,0.14370326039368142,0.4555870464844201
7.94921875,0.11966231900806078,1.125139889879358
7.953125,1.341709215443179,-0.8173403137449975
7.95703125,1.6029668863411746,-1.2164767140567403
7.9609375,-0.428000370868033,0.3354962579272968
7.96484375,1.7599482320323847,0.4554547450238546
7.96875,-0.8869593971516601,-1.2419084590081586
7.97265625,0.07994289659139668,0.05578712647707617
7.9765625,-0.33456244457074596,1.6642667504407698
7.98046875,-1.830510947750051,0.066585831143252
7.984375,0.0990255846093334,0.28386776911241574
7.98828125,0.7594368908934025,1.6598070286908058
7.9921875,-1.3998079162880834,-1.0746716058266774
7.99609375,-0.5194380290387888,0.12533250784878602
8.0,0.8860777328534272,0.2887570729459327
8.00390625,-0.8613915495913348,0.999301718121625
8.0078125,-1.435913252675477,-0.3672980477688548
8.01171875,-1.6240845309197145,-0.5254572756161104
8.015625,1.0415435438245877,0.22490806040929318
8.01953125,0.6365671936526893,-0.6875533015338068
8.0234375,0.71067239657249,0.9283574090044945
8.02734375,0.6131470053561027,0.603602267028017
8.03125,-0.5007055954660693,0.5349901948405054
8.03515625,-1.8796434306214804,-1.121601744592728
8.0390625,-1.094255207822828,-0.6844904499707346
8.04296875,-0.942546401781702,0.37990565249742153
8.046875,1.018097214797455,-0.7440189402604369
8.05078125,-0.463655996206077,-0.0411568541087821
8.0546875,-1.8808422648733625,0.42664143995553416
8.05859375,-0.614063500949009,2.118042175250024
8.0625,-0.4937686259910121,-0.8140605896542248
8.06640625,1.5780838659776424,0.528479769752265
8.0703125,-0.9695674978052384,-1.1295867844989844
8.07421875,-1.532456150282147,0.21818364063891704
8.078125,0.04481559022096574,0.048422497442551414
8.08203125,0.1886525050709115,-0.5268154321499146
8.0859375,1.3208210250258012,-0.6425834910483438
8.08984375,0.13407581997112614,-0.20676455937418467
8.09375,-0.9460314205569857,0.4628691321072405
8.09765625,-0.24102279165121215,2.3788685333968638
8.1015625,-0.9473930525178547,-0.06715317788005315
8.10546875,0.2561864623377427,1.332690707916869
8.109375,0.18760574222317739,2.850890457240453
8.11328125,1.2843216896044092,0.061932877563582955
8.1171875,0.15694580056755084,0.7617462587184923
8.12109375,-1.5927104030354984,1.900134827812006
8.125,0.7768792653788255,-1.1042335887462842
8.12890625,0.9456708662568477,0.1727711524528714
8.1328125,-0.44891957799131793,0.5512657577991757
8.13671875,-1.3042091949640595,0.17570923346065098
8.140625,0.6632842281187228,-0.863161233228627
8.14453125,-0.3285393745964517,-1.5478444324397578
8.1484375,0.9211239574609406,-0.37910132092628596
8.15234375,0.2356047281871133,0.48706422458105214
8.15625,0.13324993130409468,-0.7383419900691147
8.16015625,1.3272003849759328,0.21912352974287302
8.1640625,-1.2634271481074424,1.6645118671412644
8.16796875,-0.6693625002125101,0.5922500605716478
8.171875,0.17594756934578698,-0.10703094728990063
8.17578125,0.7571877350079413,2.663179826715676
8.1796875,-1.6355045167467053,1.0077269036656382
8.18359375,1.3084028161080412,-1.1235045189760833
8.1875,0.42368980643878074,-0.15144326071960004
8.19140625,-0.5492429066074654,-0.6655578775418173
8.1953125,1.0244163000731674,-0.7293163533208752
8.19921875,-0.36911831986441707,1.6741243881718593
8.203125,1.3055045593679178,0.2752464435640838
8.20703125,1.4866734799353898,-1.8142893713644164
8.2109375,1.9883568936323595,0.21862279276993868
8.21484375,-0.5552485183657416,-0.28345337845155205
8.21875,-0.00021418890580585846,-0.623491064687414
8.22265625,-1.2015948300496087,-0.06820618308436383
8.2265625,-0.4040699598484887,0.24523654580902798
8.23046875,-0.9167817279316876,-0.11444478960380626
8.234375,0.40508740946470445,-1.9577816501645198
8.23828125,1.4229898230369824,-0.130420032825478
8.2421875,-0.45282914884673287,-0.666666172210063
8.24609375,-0.0707614076443136,0.53683768758646
8.25,-0.4543844784808669,-1.4237260355521775
8.25390625,1.09140586672784,-0.19547413558130747
8.2578125,0.32451170533069,-1.8150376920320281
8.26171875,0.7292381317801894,-0.18474667454648525
8.265625,-1.8406811181272356,-0.481498684572005
8.26953125,-0.5435581292055529,-0.14521923619211685
8.2734375,-0.9920006203472834,-0.4418027761223718
8.27734375,-1.884499995314312,-0.65801553453518
8.28125,1.2919592109704192,0.9727858150056329
8.28515625,-0.3419702075658679,0.8497506131514211
8.2890625,-0.2720881584119955,-1.365207627010587
8.29296875,0.1676133549927225,0.7850794929291985
8.296875,-0.30245772209696953,0.07600645330484565
8.30078125,1.2872251407331792,-1.0430942286640112
8.3046875,-0.06864043871886523,-0.582991557505233
8.30859375,-0.39184292397991466,1.2989749224655192
8.3125,-0.32673739625807685,0.6426493270645971
8.31640625,-1.2950491078516195,1.9952465865221498
8.3203125,1.3094567538777369,-1.3618044037843848
8.32421875,1.4496665783484426,0.7601729084879519
8.328125,0.8146391713253793,2.097036549963214
8.33203125,-1.6371473569995512,0.994888199377102
8.3359375,0.9916068618180912,1.1167030731399097
8.33984375,0.10702126162104876,0.5660076802143678
8.34375,-1.635730032020311,0.15117659983324305
8.34765625,-0.9833280317369314,-1.3989133550621826
8.3515625,-1.2577784701856343,-0.28744449683942624
8.35546875,-0.40881333630844297,0.195566822166407
8.359375,0.31567080159157995,-0.2089048216002415
8.36328125,-0.1370403424062672,-0.7390714779279097
8.3671875,-0.5202364138424809,-0.06340916023192437
8.37109375,-0.46913544904182386,-1.4957349982378807
8.375,1.103451335433616,-0.13521537455859856
8.37890625,-0.6299240198736062,0.6359345674401088
8.3828125,-0.36310388098624247,1.5070540767024165
8.38671875,0.0582764782805235,0.5891468586233423
8.390625,1.0624130612983225,-1.0687458570917223
8.39453125,-0.7779681818593923,-0.6773989489523382
8.3984375,0.24574239560806527,-1.526901408806507
8.40234375,0.2151055124688664,0.07805970259650268
8.40625,1.5010794389595057,1.5999908000334537
8.41015625,-0.7392462885470024,-0.2893373947455705
8.4140625,-0.30452788567872807,0.5337679502102253
8.41796875,-0.8831561755055753,0.3127307810162551
8.421875,0.8190235801371591,-0.7211776612726918
8.42578125,-1.295149976818689,-2.570036949331477
8.4296875,0.7386101778782158,-0.12195134505755818
8.43359375,1.231306255241574,0.3485456678199725
8.4375,-1.653270411178063,-1.1942312321400197
8.44140625,-0.2958606257147253,-0.22829518205947974
8.4453125,1.2422747336658053,-1.0009490845493607
8.44921875,0.03388022200522776,0.3741417249759796
8.453125,-0.35284644445704716,-0.414908976977347
8.45703125,-0.1462800600693135,-1.0544527310297596
8.4609375,-1.129001166894826,0.9892115488094319
8.46484375,0.26939719139885604,-0.7088027738734503
8.46875,-2.1524069499193326,-0.07585742959588924
8.47265625,0.013346207028224673,0.6164797848496845
8.4765625,-1.3538340306524144,-0.340479258641072
8.48046875,-0.1571327304080395,-0.6835699957882612
8.484375,-0.4946859551853872,0.4482421675844426
8.48828125,0.44830643753542787,1.9430479692927887
8.4921875,-0.6281552728505118,-0.5380035614609867
8.49609375,0.2358495835289667,2.3142350052708274
8.5,1.3422110980640898,0.3040549465259461
8.50390625,1.6615222702778722,-1.5022033382772217
8.5078125,0.23619712019939249,0.20314115358169155
8.51171875,1.2017734381957266,-0.7981823758726001
8.515625,0.6259267116178502,0.009001447940912287
8.51953125,0.35604025721280264,1.6922965482707015
8.5234375,0.8055239804302822,0.3109205841111012
8.52734375,-1.1417203796810862,-0.22305068253024776
8.53125,0.005000157994217706,-1.1223041309354094
8.53515625,0.7770916663566129,-0.15057554491369757
8.5390625,-1.1142722062316694,0.0038872434337787164
8.54296875,0.8780950229074913,0.261290761084373
8.546875,-0.003537976724611108,0.2693633694456637
8.55078125,0.4364265403294929,-1.61794417651749
8.5546875,-1.6844599786493073,1.4937631406463145
8.55859375,-0.39962876960112914,-2.0166496380667476
8.5625,-0.5322300288868606,0.04894597069051258
8.56640625,1.1839507706519488,-1.6861895251473478
8.5703125,1.0024212143956601,-0.6301908300718064
8.57421875,-1.0815292469861428,-0.40872080541570444
8.578125,0.9070597924184016,-0.7478212697009671
8.58203125,-0.18552850601162804,0.05927888366032868
8.5859375,-0.6112212546975604,0.35784644970732576
8.58984375,-0.933793939368908,-0.5443017202813336
8.59375,0.8389431033218802,0.9184835085360641
8.59765625,-1.1372310622107626,0.7051142691250617
8.6015625,0.8555527827901578,-0.4814962403844047
8.60546875,-0.6174252845997416,-0.15779083379856618
8.609375,-2.0209668155018905,1.460923252086411
8.61328125,-1.7812723861075785,0.0800441083502505
8.6171875,0.2968962737145265,0.17253321319840625
8.62109375,1.2446075636069889,0.3063873091240573
8.625,1.4186393493299059,-2.289479516887895
8.62890625,0.7871456641041326,-0.5384820754029784
8.6328125,0.13444591620171223,-0.40962165061466466
8.63671875,2.1198479109089976,-1.8179039052697243
8.640625,-1.409844804205544,-0.22478024153565385
8.64453125,-0.6415724449172278,-0.38215242634678726
8.6484375,1.640065435483284,0.6093429304523116
8.65234375,0.8418943273423786,0.12659274099513235
8.65625,-0.9269002489413449,0.9547876051468679
8.66015625,-1.1983774670492855,0.3816320344645041
8.6640625,-0.39388492581912554,-0.3747909312370308
8.66796875,-0.3145843627333066,-0.32255055667201205
8.671875,-2.0051386015815473,0.4960582747569043
8.67578125,-0.9312041541094586,1.7549030767063785
8.6796875,-0.719315733773584,0.6975672222033714
8.68359375,-1.4721735689022057,1.2789737404637305
8.6875,-0.22629287124927755,-0.174212263674003
8.69140625,1.0522889459860785,-1.148369011816353
8.6953125,0.392442030269868,0.2851453356898376
8.69921875,0.7501621511267799,0.2362654814001715
8.703125,-1.6012112176980962,0.4283384577468233
8.70703125,0.7198537313652886,0.08516107607896008
8.7109375,0.5264992984283112,2.8172948121717014
8.71484375,-0.7989356755010713,0.6563891395009342
8.71875,-0.6137689081198915,-1.2183300805947603
8.72265625,0.6989207793121686,-1.0111165247753922
8.7265625,1.4764781261981461,0.6798566801261999
8.73046875,-1.2208335540973727,-0.9452883529107232
8.734375,-0.2322226193708783,-0.1094346300904952
8.73828125,0.9783455038743949,0.8761853255427396
8.7421875,0.5499940894348481,1.1662963965638955
8.74609375,0.6844876861573104,-0.545426496648081
8.75,-1.9257555563777808,0.012459963497906429
8.75390625,-0.45690979453860736,-0.44937684464526756
8.7578125,0.7912095955313878,0.48999005388403427
8.76171875,-1.3499127328036213,1.3510772846973937
8.765625,0.6565070025962859,-0.9877607761300647
8.76953125,-0.4920106179379066,0.7901512061908718
8.7734375,2.0647583870477995,-1.1023183761897257
8.77734375,0.18537064152275634,-0.06320159040527654
8.78125,-1.1459523950074417,-1.020853347838826
8.78515625,-2.3143213942438656,-0.16379235626783023
8.7890625,1.1038807928706003,1.1904157014443422
8.79296875,-2.034880834488717,-0.6592237603555752
8.796875,-0.16095139372443187,-1.2669017478432745
8.80078125,-0.5112138881331194,0.4729642913519812
8.8046875,2.8080973132522673,1.3378237941759945
8.80859375,-0.17196191335016298,-0.136874576550422
8.8125,-0.6105333532591639,0.9606322606515857
8.81640625,-0.3547163213673847,-0.14388650112944087
8.8203125,1.137158531703665,0.7915904896197131
8.82421875,0.8375135267013295,-1.6224395753373342
8.828125,-0.029331701516648583,-0.249870146629954
8.83203125,2.227265511898544,0.3257968658927109
8.8359375,-0.4360631242381206,-0.42672837776114203
8.83984375,-0.49846799246229506,0.3372727089452452
8.84375,-1.1449918502920906,0.4325255576650236
8.84765625,0.475995338199599,0.2662631111820096
8.8515625,-0.5566363321030606,-0.7869194281361183
8.85546875,0.6132145953830935,-0.6270625354428354
8.859375,0.07179517436863567,-0.12204826463905226
8.86328125,-1.0266137907731323,0.12421021773662451
8.8671875,-0.35799149525337115,-1.0150727832833228
8.87109375,0.985037273436712,0.45205761210040374
8.875,-0.17360746316300815,0.38986802105395224
8.87890625,0.2387780520725361,-1.0382399858325386
8.8828125,-0.47900711132512575,0.12914211096060924
8.88671875,-0.7934197116390502,-0.7150035006712986
8.890625,2.1751981295880896,-0.8944926548732911
8.89453125,0.311165327594861,-3.0183784685786756
8.8984375,1.6672469876665685,0.8519660539846039
8.90234375,-0.6816650294486485,1.1729231076423323
8.90625,-2.180728192682098,0.3558037670032291
8.91015625,-0.1722478390975367,-0.9045661233900841
8.9140625,1.2657853685459324,1.3994529595999976
8.91796875,0.4326102844193961,1.1066108512874997
8.921875,-0.2553783934721276,1.500162291786811
8.92578125,-1.520970658390053,0.2998564423422167
8.9296875,-0.9418494245985333,-0.8658278967100795
8.93359375,-0.06230587699990679,-0.21252141198307076
8.9375,-0.302848098026317,1.0322885905435444
8.94140625,-0.9314488804314255,-0.2555205595862059
8.9453125,0.6223229869035368,0.9030754954739324
8.94921875,0.506898030174465,-0.2893357534455625
8.953125,-0.03493403471165199,-1.0092377423283487
8.95703125,-0.03581946364687748,0.6928026215227857
8.9609375,0.34132676284604224,-2.405052353325215
8.96484375,1.5819840249814847,0.02363287088895526
8.96875,-0.3302234633267261,0.26904898899387975
8.97265625,-0.6265160036461259,-0.8103331476813361
8.9765625,-1.9434407805613199,-0.37079421779333205
8.98046875,1.153496997800373,0.604358115928149
8.984375,-1.3940098691227834,-1.4582333106313625
8.98828125,-0.45171692116022844,-0.1802816191424158
8.9921875,-1.7091801745790853,0.17739756499644363
8.99609375,0.0071715520786640174,-0.5974171766621699
9.0,0.5035699004228248,-0.3388863922397772
9.00390625,-0.6394014914135228,-0.42780767037644757
9.0078125,-0.5879294662099667,0.2654348921766736
9.01171875,-0.7570019990498792,-1.132130520644956
9.015625,0.06985699087724657,-0.03300378090299301
9.01953125,-0.587643750722879,1.06400755071603
9.0234375,-1.7470485446959951,0.9934179724442683
9.02734375,-0.10017007744093943,1.792810729759025
9.03125,0.6093435107133057,0.4344573274757328
9.03515625,0.07698897071170376,1.400291543208759
9.0390625,0.3738338731671283,-0.053970741244242226
9.04296875,-0.09714327324463684,2.1453655821020736
9.046875,0.06389356890782236,-0.024660391364147636
9.05078125,0.6744250969768523,0.059803693838933226
9.0546875,-1.0382383075735708,0.6760855830816761
9.05859375,1.4642704337682533,-1.2516953697862885
9.0625,0.7260428205022577,-0.4842571425948186
9.06640625,-1.9965366063990764,-1.03415856576007
9.0703125,-1.5830043761419186,-1.3871221637889148
9.07421875,-0.980161656393785,0.6059053286444416
9.078125,-1.2329439493687175,0.7476927021096692
9.08203125,0.543906946101959,-1.2141780102934436
9.0859375,0.4191815125572616,-1.7822376591207054
9.08984375,1.30407016858008,0.9500848491531545
9.09375,0.38689089906046703,1.0969280704313729
9.09765625,-2.1167336310195273,-0.17567002211995203
9.1015625,1.640912372640807,0.34634397031606834
9.10546875,0.5004697213688141,0.13619583790286643
9.109375,0.47810948434983,0.2667110644220192
9.11328125,0.7078813593687272,-0.9173609135919284
9.1171875,-0.8010144766074503,-1.6669849782415462
9.12109375,0.7388107155452647,-1.4316150715283733
9.125,-0.35745396812700286,0.936068867116219
9.12890625,1.1201719851893284,-0.34528975533720946
9.1328125,-0.6774422455177941,-0.36330385728073905
9.13671875,0.9151121601711241,-1.1700859082889368
9.140625,1.2187008141898594,0.1038836350963324
9.14453125,-1.6156466871136876,0.2166845164056837
9.1484375,-0.6580397380468291,-0.5419384935830693
9.15234375,1.4959007631652306,-0.7985675948574569
9.15625,-0.2990280956411009,0.7893231233547431
9.16015625,0.5272618270982975,0.3871640192433358
9.1640625,-2.011935858895693,2.071923522301806
9.16796875,-0.09904587790646903,-0.799891048277674
9.171875,0.6523977827761991,-0.6322032732058447
9.17578125,0.5516257034690896,-1.4553072399684035
9.1796875,-0.1658580120678557,0.8529137174402975
9.18359375,1.6988400269892927,0.7207603190279256
9.1875,1.4243551110427746,0.8652416076552956
9.19140625,0.5969667516148499,0.6484097290371974
9.1953125,1.1563227171012005,-0.014109559872098807
9.19921875,0.4972806533280726,1.8716412490006598
9.203125,0.824514763375773,-1.27532264834971
9.20703125,-0.3843267863971189,-0.36667134995006273
9.2109375,0.21339137115124984,0.42413943880568383
9.21484375,-0.22971745741927307,0.48208511600223986
9.21875,-1.2924970926584738,-0.9216968149863013
9.22265625,1.042244962555037,1.1245700755392025
9.2265625,1.3756190679864564,0.22950163806845938
9.23046875,0.9842051670025549,0.45372097382868726
9.234375,-1.019618139778267,1.8273353817297018
9.23828125,-1.3590243207884438,1.0521484420494882
9.2421875,-0.5477156510262194,-2.051839805440321
9.24609375,-0.11275258399024152,1.5216513098022295
9.25,0.5819140421561905,0.05694252585410046
9.25390625,-0.07890080734261477,1.83928900731409
9.2578125,1.5651149236157915,0.4120331708920646
9.26171875,0.22490495069751595,1.0894322640255067
9.265625,-0.2012228413858171,0.028050846212450107
9.26953125,-0.13909746798565284,-0.11738754426437234
9.2734375,-0.3763884301481822,-0.9445964674100905
9.27734375,0.5169627310782434,0.3986829458050459
9.28125,1.072619933261678,2.6013247585261787
9.28515625,0.6371574293570802,0.7064249765273447
9.2890625,-1.3517839252848414,2.2435686085271653
9.29296875,0.08162290173978388,1.5524288292444874
9.296875,-1.103864797393828,-0.01405805342273532
9.30078125,2.271159005095835,-1.0608520612988177
9.3046875,0.7154935401694716,2.5239869617779283
9.30859375,-0.47398332707556684,1.5858244259024727
9.3125,-0.38517229757528276,-0.3715211719085619
9.31640625,-0.44693697255055437,-0.09600578422702477
9.3203125,0.40532281687246735,-1.4207184447944623
9.32421875,-0.594595097982842,0.2457192330439513
9.328125,-0.5249518289626701,1.3202631408313854
9.33203125,0.5314005932054198,1.215008013025911
9.3359375,1.0636057811951702,-0.10063630709231444
9.33984375,-0.45971614685803464,-0.8095418985599445
9.34375,0.16733082732522955,0.19323450967861924
9.34765625,-0.11857405314155707,-0.565530524032325
9.3515625,-1.1688083757811967,1.3029818411637444
9.35546875,0.642762592693257,0.9924971713210587
9.359375,-0.7285609005129986,-0.13429868534194087
9.36328125,1.3483690240507182,-0.049641665812047125
9.3671875,0.026296310061544592,-1.8861900649740757
9.37109375,0.19267289398008589,0.7888270264639091
9.375,1.360798859432863,1.0008153246029803
9.37890625,0.09657727032448594,-0.5394346298000225
9.3828125,-0.5879821100117946,-2.3100173262625945
9.38671875,-1.8201536374729081,0.5103601452425404
9.390625,-0.5914239268435528,0.9548709450400429
9.39453125,0.9875452759021296,0.8102169397134547
9.3984375,0.5478954304520566,-0.5007787024895736
9.40234375,-0.9695493058109467,-1.5139685592662866
9.40625,0.20835886303053053,0.48600046487950616
9.41015625,1.4140148746343306,-0.03959052085176641
9.4140625,-0.7865648719936034,0.32654390329845395
9.41796875,-0.8991750361779016,1.0294902146980067
9.421875,-0.29878232470883087,-1.3878669174258476
9.42578125,1.1802904777223082,0.7856376787314702
9.4296875,-0.9885720697068344,1.0231782582495588
9.43359375,-0.5411110389783922,1.497255929598123
9.4375,0.8976293839931961,0.6564769902641411
9.44140625,0.29303125452193296,-0.9841122584524505
9.4453125,-1.4429513637530307,0.30152642485727893
9.44921875,1.1410277672910034,-0.7953890763313819
9.453125,0.5809277742715929,-0.21278041062357217
9.45703125,0.5152382930399184,0.2194663641133001
9.4609375,0.6785907407469924,1.1965280287462128
9.46484375,-0.5163475259772393,0.6023046188781706
9.46875,-0.4796666469091685,-0.42116437744116464
9.47265625,-0.6973470118828492,-0.3568472060743517
9.4765625,1.1339697103637485,0.8677876268673304
9.48046875,-0.3577893333140083,-0.2267725525626953
9.484375,-0.4723648041794559,-0.2187458127599568
9.48828125,1.506412373547479,-0.09263226762918929
9.4921875,0.172216821538375,-0.94192581949952
9.49609375,0.9455778990958892,0.8433306852876414
9.5,0.1841877983909066,-0.8555179805382082
9.50390625,-0.8562929695766742,-0.45147014556279463
9.5078125,0.48121584008329904,0.9420280390454517
9.51171875,-0.788816864571606,-2.4916061906947107
