time,ecg,ppg
0.0,-0.3581554490535325,-1.222238559805067
0.00390625,2.4171852873018396,0.0966357380400003
0.0078125,-0.033884321060691176,-0.689135233545535
0.01171875,-0.05397643842656376,-1.0374467659013817
0.015625,-1.1467352377616924,-0.7260723597116514
0.01953125,1.1009762330417023,1.4123388275387627
0.0234375,0.49406459611515907,0.5980330590472734
0.02734375,-0.6773928443763525,-0.5382612191068916
0.03125,0.063496650953085,-0.8704249698453523
0.03515625,-0.22905837724809613,2.6884641034566794
0.0390625,0.001464807513823612,-0.9008299950606966
0.04296875,-1.580179415991179,1.1430434891354515
0.046875,-1.232633720318849,-1.1489948531953704
0.05078125,1.4869580028477205,-0.4142413152320182
0.0546875,0.840484155708581,-0.6722945512563699
0.05859375,-0.44154832031128305,0.6301709839850391
0.0625,-1.2757301074674108,0.21252216564079052
0.06640625,0.44275782580842427,1.21251788850155
0.0703125,0.011296639157884493,0.8830003970957974
0.07421875,-0.047885520657357815,0.47714835869304534
0.078125,0.5510260036404248,-0.28011604572104093
0.08203125,1.258657936409164,-0.039791420575169587
0.0859375,0.3259992870626311,2.414575325088029
0.08984375,-0.08077305885662327,-0.14657339898492536
0.09375,0.11332972483815794,-2.370629383484136
0.09765625,2.6630947873126924,-0.4075329521772658
0.1015625,1.6532656120305795,-0.10227154380595123
0.10546875,-0.764625831814047,0.30950897971641045
0.109375,-0.1424343301873002,0.2016466555065251
0.11328125,1.4026959653306503,0.07537597563416452
0.1171875,-0.18934921066240562,0.3215968578831432
0.12109375,-1.2510862423208375,0.6688952354366219
0.125,0.3631592721304039,0.206977742558342
0.12890625,-0.9479907439145864,-0.38182826917285445
0.1328125,0.17161632702118693,1.1118944937168327
0.13671875,1.9028832193054674,0.23137970188929102
0.140625,1.5215634774665583,-0.39674342197846635
0.14453125,-0.736466511159388,1.3716148941794917
0.1484375,-0.764737448951178,0.6638755806120962
0.15234375,1.0534088760692237,-0.9095990270627997
0.15625,0.8720157540839777,-1.216090681508047
0.16015625,0.46614996500308686,-0.2830534161108202
0.1640625,-0.11686336816911613,-0.34249012310014393
0.16796875,-1.094524062557104,-0.2202984327786764
0.171875,-2.1090571005590055,0.25032765093895304
0.17578125,2.457072777934818,1.1795502831024525
0.1796875,-0.9391229966050384,0.9017004905704556
0.18359375,-2.208918850553769,1.6448952810242419
0.1875,-0.5466246443093167,-1.091581718550838
0.19140625,-0.1248785399164271,-1.6416990036652115
0.1953125,0.7685516512339887,0.6302406107805918
0.19921875,-0.6286263982492081,-0.7538336362067471
0.203125,-0.978515834147374,-0.07389567698334548
0.20703125,0.39696322178406723,0.0883080564415068
0.2109375,-0.7780340189605611,-1.6988605539970691
0.21484375,0.7460688580251889,0.5076456731531058
0.21875,0.264246631087405,0.08212080350047853
0.22265625,-0.37023349466739386,-0.9256536744136042
0.2265625,-0.4770644573916672,0.10159021782603694
0.23046875,2.1993312570134393,-0.060887492388604185
0.234375,-1.822370347149476,0.23308904138567363
0.23828125,0.47655697975100536,0.19297272429094756
0.2421875,-0.09322695304972131,-0.7898070585034629
0.24609375,-0.0679545743383564,1.6542711152831935
0.25,1.027571507353925,-0.9914403133917906
0.25390625,-1.0184581297822217,-0.12071093617236103
0.2578125,-1.3738848303836826,0.49650207663839807
0.26171875,0.3000156016218035,-0.4711158800184842
0.265625,0.0930022074641637,0.03686504222110259
0.26953125,0.35362829665216305,0.3317556407839698
0.2734375,0.8805034312473692,0.18614785859442365
0.27734375,1.2883824593408895,-0.3768288084201994
0.28125,-0.6325569556054174,-2.29115151409939
0.28515625,0.35949168806676146,0.1990561743837632
0.2890625,-0.049279125909749116,0.012373176782638329
0.29296875,0.3360761058064547,-0.3110500805134937
0.296875,-0.5013013548248488,0.08766288836643694
0.30078125,-1.3432931797532839,-0.7133141359300723
0.3046875,-0.531198145591577,0.3341606447973097
0.30859375,0.12062144872915072,0.9950724331691588
0.3125,0.4379498697893854,-0.3627538190630907
0.31640625,-2.4375899415616744,1.703390309161483
0.3203125,1.2775056857745322,0.7797918963543755
0.32421875,-0.5541186495304298,-0.7878287257751508
0.328125,2.647735531000091,0.5213928611342274
0.33203125,-1.0320112714411,-2.1354604679532696
0.3359375,0.5877365154221652,-1.4434223705215763
0.33984375,-0.013398369947600472,-1.2551698130190245
0.34375,2.1310398445308008,-0.06240102292565169
0.34765625,0.8065581357355649,0.0501104806217987
0.3515625,-0.21600092372721916,-0.5862518285103381
0.35546875,0.6763283099266632,-0.4746092686549923
0.359375,-0.335115460324852,0.41636620393372503
0.36328125,-1.540802693585745,-0.4965595104716975
0.3671875,-0.1840300811353584,0.2957667749679435
0.37109375,0.9394734762101946,-0.12510912621625414
0.375,0.11285820226254664,1.078514639251446
0.37890625,-0.16285100086601,-0.14429670343093112
0.3828125,2.4076897219280355,-1.6943005981949861
0.38671875,-0.7914305508489909,0.024703757235948413
0.390625,1.8725290811711621,-1.377222952205569
0.39453125,-1.1325893214964284,-0.36577035999117885
0.3984375,-1.344875620401426,-0.3916369301649387
0.40234375,0.08104085841859461,-0.2955280831887271
0.40625,0.19591802261931546,-0.7246366369590244
0.41015625,0.574876259545413,0.015437332289277315
0.4140625,-0.22377340072487126,0.23042807207803806
0.41796875,-0.4801836351571924,-0.04492817278124472
0.421875,0.5356100445792359,0.46671281004726817
0.42578125,1.0542529766903228,1.5995150975101184
0.4296875,0.4327344117596778,1.251814537410704
0.43359375,0.6666567851386308,0.3798937277223774
0.4375,-0.28936411166296294,-0.3974621858287193
0.44140625,0.7503005802269018,0.28409685954094427
0.4453125,-0.22490309108571935,-2.2332981053979153
0.44921875,-1.3840434230942253,1.3445680062702692
0.453125,-2.0178985453744174,-2.242357650443618
0.45703125,0.39122043627111713,-0.3722408696333543
0.4609375,-0.25703030533750887,-1.4375097736698923
0.46484375,-0.20435751947930658,0.2949238552842995
0.46875,-1.1139025969009584,-0.5666657738957613
0.47265625,0.04257623212412054,-0.4665896253038642
0.4765625,0.6381256228304646,1.1724195165286844
0.48046875,0.9542774983083948,-2.8211491092052294
0.484375,0.24195215013029722,-1.5648120824202458
0.48828125,-0.06720225631920368,0.3486268668128995
0.4921875,0.6859054787688414,-0.6578198882200011
0.49609375,0.3464731633612062,-1.2325018543812247
0.5,0.25762831426015653,1.1620901445574978
0.50390625,0.4266581779342107,-1.1520689734732417
0.5078125,0.7814667370974072,0.867805833385456
0.51171875,0.8457924866771447,0.4906522232024289
0.515625,-1.3424217019186095,0.5626264650016595
0.51953125,0.5548230335176798,0.5817493155820535
0.5234375,0.2379778283782704,0.5635267144909345
0.52734375,0.2889328158208925,0.4089392197095052
0.53125,0.8764467897684202,-1.0088046945108593
0.53515625,-0.4100554272037024,-0.33775063124733695
0.5390625,0.1447585849194427,-0.012278542025404312
0.54296875,-0.5108609455061953,-0.8981407004896143
0.546875,0.14147265638655432,0.010939747946632156
0.55078125,2.4553553804270565,-0.7448380282627246
0.5546875,-0.07643226839121901,0.6174745679799338
0.55859375,0.30058598549791776,-1.1312310492680981
0.5625,-1.3414769384061742,0.10894051526361614
0.56640625,2.3169795240628996,0.6181036429165281
0.5703125,-1.9850743023196988,-0.08781008891859107
0.57421875,0.869935030908667,0.8961432279297809
0.578125,-1.0779066480691,0.5844409749966112
0.58203125,2.126818013985989,-0.1463073760026974
0.5859375,-1.235167750324309,-1.3656264999650511
0.58984375,-0.34827698815031644,1.0556388865075996
0.59375,-1.304097258723174,-0.038941253353881364
0.59765625,-0.36447326027753896,-0.5436736950515667
0.6015625,-0.796686423917711,0.11740902065419805
0.60546875,-0.27669934268692303,-1.3575477566174114
0.609375,1.2718549407997148,0.5314837249710292
0.61328125,1.673515425323277,-1.4885667638303117
0.6171875,1.5542086974268883,2.5409124592299728
0.62109375,-0.49727262792266885,0.8612399754084273
0.625,0.4666760015141785,-0.6720746994119924
0.62890625,0.9429026116991656,-0.06787627829156531
0.6328125,1.289678215348297,-0.5703977208176383
0.63671875,-3.50918245653166,-0.7039884856163647
0.640625,0.025456622846419166,-0.7876511744771769
0.64453125,2.4329460457313434,-1.8331522543329164
0.6484375,-0.7858670962976821,-0.6215308342979702
0.65234375,1.579492582618052,0.690740639643089
0.65625,-0.68832960759055,-0.9710561828169673
0.66015625,1.6779644904422053,-0.10626072390133856
0.6640625,1.2429682738843413,-0.047008518764169775
0.66796875,0.7517346498291357,-0.09892614233159916
0.671875,1.0169300390892635,0.8746321221654678
0.67578125,-1.3020478639698705,-0.13949043199899744
0.6796875,1.1271460226185508,-0.8954551921805779
0.68359375,0.4196919861482251,1.2334897864957604
0.6875,-0.3677687225777489,-2.210447501691203
0.69140625,0.3514082018277266,0.7970254505794082
0.6953125,1.9535298889651145,-1.172237514947575
0.69921875,-1.0337181101164532,-0.4848655022204761
0.703125,0.12827753353136895,0.20484082086164626
0.70703125,0.9055473850879594,0.8286207105059096
0.7109375,-0.562820458394049,0.930901730632321
0.71484375,-1.367366970188896,1.737914839313311
0.71875,0.07021809924370066,0.8065055318899313
0.72265625,0.00996383751306491,0.29305239737293975
0.7265625,-0.41276224863832994,0.45801308572703975
0.73046875,0.27325605598165714,-1.0752742964421789
0.734375,-0.5052191578359597,-0.23586073730286006
0.73828125,-0.03447278766987896,0.158817444746565
0.7421875,0.39069981987921093,0.7245018004045778
0.74609375,-1.1297515734160621,0.12228302496219726
0.75,-0.7734557277850315,0.8737711680625526
0.75390625,-0.8436922750501106,0.7226001654358822
0.7578125,-0.7748601436929186,-0.911451749815821
0.76171875,-0.6714167314957867,0.3152322857010222
0.765625,-0.8295363256562872,0.21517344233544317
0.76953125,-0.3181090068336606,0.30623302906929417
0.7734375,-1.698352722232012,-0.8679755065450033
0.77734375,-0.624473031973728,-0.7397207053070043
0.78125,0.2406261050517472,0.8231040590439361
0.78515625,-0.37885102765762,-1.5088846525148982
0.7890625,-0.8001174315756985,-0.10606946955825215
0.79296875,0.6163974955713593,1.216236261971207
0.796875,-1.5202546698810286,0.13908817481281185
0.80078125,0.08996894477037562,0.5538474537639089
0.8046875,-0.277323236341219,-0.943541864397542
0.80859375,-0.10466005937072186,0.7671118167174508
0.8125,-0.6647174896783021,-1.6497506615254083
0.81640625,0.8173490107050211,-0.3227674377153804
0.8203125,0.566773951913136,0.7686093666833529
0.82421875,-1.0119538839443898,0.1683550664343677
0.828125,-1.8530900448686214,1.2721335327374892
0.83203125,0.9135423591028374,0.8192261815026253
0.8359375,-0.11582005473962961,1.9899792531828633
0.83984375,0.3522052292571998,2.1140802661646885
0.84375,1.0274347725629502,-0.5657096639894396
0.84765625,2.892621198919603,0.8981191518458433
0.8515625,-0.3370613564900547,0.3599121042919815
0.85546875,0.3273649082254589,-0.30306213456002984
0.859375,-0.13004582108675916,0.1587338732607451
0.86328125,0.23823029826408734,-0.15719335424255484
0.8671875,-0.22685457650670576,1.743593179609118
0.87109375,0.04588861996650477,0.8798506244761941
0.875,-1.4205593016639126,0.10619889779762706
0.87890625,-1.1284282951997613,0.32175725158789864
0.8828125,0.08074929646892429,1.3240541868687152
0.88671875,-0.30413477878453127,-0.15015202962440877
0.890625,1.56304303169819,-1.6076123737636125
0.89453125,0.44574620418799105,-0.27626709112153786
0.8984375,0.5799422589388576,-0.5377275551852926
0.90234375,-0.3021127308741972,0.3300050370147827
0.90625,-0.6982451124270809,-0.35938514846066794
0.91015625,-0.4917967774855665,-0.31581169563174166
0.9140625,-1.218694433066332,0.28856526397455257
0.91796875,1.2143014182980578,0.9591620034884923
0.921875,-0.1878509988497788,-0.24892215800531273
0.92578125,-0.019263898174263324,-1.240095246861355
0.9296875,-0.09445925630794515,-0.9454753547380381
0.93359375,-0.525174260735479,-0.19249041154394234
0.9375,0.6840432971616276,0.027195583571414578
0.94140625,0.919288627740201,-0.05274845139856524
0.9453125,0.12353335259892594,0.2325475525756037
0.94921875,0.7417573355406756,1.9588807144631852
0.953125,1.3546834387376676,-0.7073430658935163
0.95703125,1.369698358796177,-1.1082413502001383
0.9609375,0.7755200256321318,0.91066036329833
0.96484375,-2.4327728823435284,0.4056595460345092
0.96875,1.5485404052744531,1.2385493880884513
0.97265625,1.2991204803212186,-0.1935992803872876
0.9765625,-0.526709193469592,-1.070161092136624
0.98046875,2.208438427383478,-0.865543296108901
0.984375,-0.14144674818793843,1.670875118962588
0.98828125,1.1113220640282724,-0.23231041945468936
0.9921875,1.8480236269672154,0.9916519540073273
0.99609375,-0.5385998880417906,0.8392600216958465
1.0,-0.3805280788472151,-1.0094176438237727
1.00390625,-1.1950818508016376,-0.16848475219632963
1.0078125,1.4694959632795206,0.5861672365390104
1.01171875,-1.5041999459475897,0.1265307504466801
1.015625,-0.2728121149549154,0.21141510226633878
1.01953125,1.3371255443162375,-1.4262284260626457
1.0234375,-0.20961402654555622,-1.099302863919249
1.02734375,0.0633604247217966,1.0720190805243683
1.03125,0.2842719058073502,1.3096329031129672
1.03515625,2.6912894684580526,-0.1482097855173314
1.0390625,-0.30328496670652305,-0.12013153600657304
1.04296875,0.5087786082076403,0.148197943819908
1.046875,-0.08622292457604978,-0.473341445664879
1.05078125,-2.467272295618078,0.33789619748457866
1.0546875,-1.0640653075673738,1.195633354287026
1.05859375,0.7792152877734851,0.2295528057102799
1.0625,0.5936705114136096,0.3922964041597196
1.06640625,0.129581066170726,0.5837540308695052
1.0703125,0.6671690388923884,-1.9283977501911551
1.07421875,0.6068190280534786,2.0389144233540324
1.078125,-0.8671638006183673,-0.7158830780930663
1.08203125,-1.991347381570553,-0.14150211153205558
1.0859375,-0.4883833473260515,-0.02186755837330133
1.08984375,1.5720214106892079,1.0750431429206346
1.09375,-0.3248025447197144,1.0304269609473264
1.09765625,-0.6252396168935846,1.0336462937450879
1.1015625,-1.3757424243386644,-0.7941568758836776
1.10546875,2.1955650414092323,1.639886910941088
1.109375,0.3144177577380962,-0.8435813967192588
1.11328125,-0.8917277722016576,0.02096524024868008
1.1171875,-1.0231381603487746,-1.9150931954734614
1.12109375,-1.189996579308161,-1.0224681925194783
1.125,-0.7555095900649664,-0.1419186354779156
1.12890625,1.266623295473632,-1.1916585811449174
1.1328125,-0.10379310782136174,-0.6248262902786075
1.13671875,-0.04283886067011038,1.4282217877607999
1.140625,-0.4331932771121435,0.7124263432140472
1.14453125,2.3981522136662963,0.3180451162515321
1.1484375,0.8645084666824556,0.3455603765352425
1.15234375,1.3656243119113516,0.16178142384890742
1.15625,0.4707405235765339,-1.0514227780082197
1.16015625,-0.1618989987971574,0.020788921841384353
1.1640625,1.1347212641461355,-0.15926818564501063
1.16796875,0.3754743988391562,1.173387543373157
1.171875,0.6826700741311428,-1.7505864234410993
1.17578125,0.7575425601258025,-1.761053682754938
1.1796875,1.9221661612712075,0.024306825694706734
1.18359375,-1.1165576249342695,-0.6268407521422131
1.1875,-0.6462938941325842,-0.6477516089912427
1.19140625,1.0656962590707173,0.5439685681047938
1.1953125,-0.7034295245470673,0.030947946175581182
1.19921875,0.9975932561794942,-1.5804774825619388
1.203125,-1.783577956474306,1.0668025922085755
1.20703125,-0.6811147153681325,0.5467636852677393
1.2109375,-0.4849587704509919,-0.6316718012534328
1.21484375,-0.2379162378763448,1.5553717133639553
1.21875,0.4919836183913709,-0.32103543654744904
1.22265625,-2.173999575980492,0.9739625065354286
1.2265625,0.24303166660057185,-0.45850591489022857
1.23046875,0.4646705744921102,-0.24070697880254718
1.234375,1.0957124840208317,-0.25966549543939205
1.23828125,-1.2923191612628533,-0.43235080500776796
1.2421875,0.6182825054855304,-2.6323234029051537
1.24609375,-0.6390029279393661,-0.02128136155145647
1.25,-1.1750043014240075,-0.3675890539811879
1.25390625,-0.6228896607451001,1.1031295159874641
1.2578125,0.09622937732140635,0.085196455934611
1.26171875,-1.13063657723976,1.091517278743064
1.265625,0.3734067841214852,1.5482252768257334
1.26953125,-0.973863057347552,-1.0448644818811412
1.2734375,0.4804563189990953,-0.5774495918797494
1.27734375,-0.28651804446934626,0.11438390056632107
1.28125,-0.2556994086595353,0.7176520206843572
1.28515625,0.14212973170419313,-0.8561164226740643
1.2890625,0.5222085267634916,0.02459049095441606
1.29296875,1.5570631541953437,0.5171267194469145
1.296875,0.08486386582511209,0.3334958809783503
1.30078125,1.7740375211539834,0.7577177679713456
1.3046875,-0.23630344286176982,0.9509479244888855
1.30859375,-0.10419288382123074,0.7626280129592097
1.3125,1.7201858039468045,0.4803824763428371
1.31640625,-1.4173641572228886,0.565611803849155
1.3203125,2.295024308760245,0.5005688549893929
1.32421875,-0.10347905179051779,1.0839994901634116
1.328125,-0.9431846180957265,-1.3607714054298705
1.33203125,0.9414005910245413,0.3941265732690522
1.3359375,-0.7514693949006755,0.6580453545371212
1.33984375,1.2543951433742129,0.41994702457514627
1.34375,-1.410685832614538,0.09177979841117916
1.34765625,0.28748340813345347,0.2926377057502723
1.3515625,1.0479877792393926,0.37785850170152013
1.35546875,1.1819139095597986,-0.4653950978162975
1.359375,-0.6155675165862531,1.0980308096945706
1.36328125,-0.10216913953632074,-0.4423354299790834
1.3671875,-1.4249372419052242,-1.460730087590816
1.37109375,0.347627767807212,-0.8392360241134532
1.375,1.1491840397626845,-0.8639380005673555
1.37890625,-0.6396580852095328,0.9867002334080842
1.3828125,0.9830380084088346,0.8436883006576682
1.38671875,0.9652829849906425,-0.08924988462044077
1.390625,0.4874731381223568,0.3397993634682964
1.39453125,-0.2558389164979884,0.05390266202379383
1.3984375,0.7129806171135765,1.9690634417292299
1.40234375,1.5696851315504032,0.43809135073080446
1.40625,-1.4500794312143395,0.3783463170972985
1.41015625,0.03391196549922601,-0.2635569103153953
1.4140625,0.3205074559009428,-0.7886914635729058
1.41796875,-0.16848519977115342,-0.5071298116469963
1.421875,2.5070551536497176,-0.7936685115779027
1.42578125,-0.7061924274026053,-1.9435123107682533
1.4296875,0.05176151436656687,-1.2669561088667287
1.43359375,0.9222725199063965,1.5400494947983487
1.4375,1.0434127761296832,0.29522319088371296
1.44140625,-0.27083769327272694,2.786624498955036
1.4453125,0.18355647822544804,1.102932802408878
1.44921875,-0.6750976242451288,0.16531001669495007
1.453125,1.9582065348219297,-3.34912919220028
1.45703125,-2.106821556664763,0.5834463949336287
1.4609375,0.15701796338691998,-1.2192598648367745
1.46484375,-0.8210495141606018,0.09654113627401535
1.46875,-1.2517644817585318,1.052014711117351
1.47265625,0.9384812320444503,-0.01104784884165182
1.4765625,-0.23250148311652252,-0.20468558219986158
1.48046875,1.0112383781348933,-0.12606581248000465
1.484375,0.9401685671615178,0.7166954385924361
1.48828125,-1.2214761426530698,-0.2865489250253661
1.4921875,-0.35075407821419813,0.8203435956956083
1.49609375,-0.8936128713160857,0.6938553766006947
1.5,-1.5450952146532333,-0.14838379458166034
1.50390625,0.06088270189398492,-0.2612325611538047
1.5078125,-0.6976593428339658,-1.049572826123065
1.51171875,0.7861081424176456,0.23469201751958216
1.515625,-0.35543654214173653,-0.6735221702759115
1.51953125,-0.21016797126163345,-1.4359236920169887
1.5234375,1.1004807040387488,0.41047372443014885
1.52734375,-0.22687204455442525,0.29210921692187747
1.53125,-0.03673903372962927,-0.11183789249480085
1.53515625,-0.19363606890269244,-1.5471695727087607
1.5390625,-0.293274861831651,0.4119144235563982
1.54296875,-0.5887682934651921,-2.3648165941870047
1.546875,-0.9933497711358167,0.3275025681865774
1.55078125,0.11468463682141196,2.6907648214584037
1.5546875,0.35655585511580246,-0.09222554198362388
1.55859375,-0.8227504606674089,-1.4512413973926404
1.5625,-1.800470137472501,2.0806494436101333
1.56640625,-0.5751964946576409,-1.8567026729509892
1.5703125,2.022487382468185,-0.8203329621408578
1.57421875,-0.0058291792552906925,0.028081921725556486
1.578125,-1.2377196884495312,0.3561364015241487
1.58203125,-0.9737015628327811,-1.9727454512103766
1.5859375,1.197147195082935,-0.5521989211270253
1.58984375,0.33416327090786135,-0.0314992569871234
1.59375,0.10993354644336956,-0.47041415070386944
1.59765625,0.27050049288830014,-1.805380666684085
1.6015625,-1.5463137269715712,-0.483697592717992
1.60546875,-1.1130570974606655,0.44485568016459665
1.609375,-0.5120480207515007,-0.48993709470171537
1.61328125,0.3773536606598609,-1.7670247903191354
1.6171875,-0.7006138824716505,-1.2667988816139266
1.62109375,-0.9968024673217346,-0.26526836605716214
1.625,0.13180839104014844,0.1456315909142387
1.62890625,0.4218811640754773,-1.2162061790026777
1.6328125,-1.305252913049394,1.2960201498121557
1.63671875,-0.7786308105449762,-0.5079855672900637
1.640625,1.262976422636029,-0.7580458158038499
1.64453125,-0.10198657768408853,-0.3193007544829265
1.6484375,-1.4781361317372526,-0.5609057846965497
1.65234375,-0.11527082618256387,-0.7508892138702067
1.65625,0.31225401187191903,-0.22074048143541541
1.66015625,-1.7864225505233204,-1.3207077802459497
1.6640625,-0.9882525183758527,-1.5163404816900004
1.66796875,-0.06161213088948425,1.0792095696362234
1.671875,-1.4412842574318685,-0.4691951040891241
1.67578125,-1.4918198214747889,-0.8535259692566328
1.6796875,0.2127103427150842,0.9234705237089503
1.68359375,0.15072315439988243,-1.1646241771639572
1.6875,0.07049948170624631,-0.7838654903594308
1.69140625,-0.2532992406103106,0.23575791803877283
1.6953125,0.7036561701546123,-0.17406256188069358
1.69921875,-0.9081159591315421,-2.4678634142220734
1.703125,-0.18486402652271988,-1.843676532248696
1.70703125,-0.9105238758163648,-0.10796644095372855
1.7109375,1.4664721041384425,0.8025719751656969
1.71484375,0.6813479717295988,-0.8651936103334835
1.71875,0.9069698212899318,-0.5567974797586547
1.72265625,-1.135813087671959,1.7144302238444862
1.7265625,-0.01765548072976293,0.5785297301799667
1.73046875,-0.5955337113974746,-0.13204272838779843
1.734375,0.4621333927646072,0.21313182950858767
1.73828125,-0.38638594650570357,-0.6025594587558725
1.7421875,-1.0038265583290082,0.9722582261216385
1.74609375,-0.08451306304029879,0.2579422094183961
1.75,-1.1420799083108528,1.0643581444177845
1.75390625,3.004305055540109,0.5407893060022099
1.7578125,-0.4627898206306152,0.4804397787500922
1.76171875,0.7973676400464683,1.6461494280746516
1.765625,-0.39816284462137336,1.026260368587643
1.76953125,-0.10246230231692355,0.18122133309562655
1.7734375,0.3567495236549905,0.6682479260137627
1.77734375,-1.1396425079446204,-0.5710226634047577
1.78125,1.8461207715259933,0.5030813838801715
1.78515625,0.3594700055945348,-0.10675049931122296
1.7890625,0.5695573162348454,1.5376408234932621
1.79296875,-0.7072759263196624,1.2593937095737013
1.796875,0.38041254308093597,-0.23343200641654557
1.80078125,0.08341610156640329,-0.8600197304186762
1.8046875,-0.8735114167316625,-0.6505452982020907
1.80859375,0.8956027305375527,-0.10658626541285347
1.8125,0.5240311178914094,-0.15889703535587968
1.81640625,-0.9463390312147534,0.7799296669803047
1.8203125,-0.6187386779494359,-1.1392068409750873
1.82421875,1.1295388425095523,-0.6083605504031799
1.828125,-0.6372928598578815,-0.11162104986063952
1.83203125,0.11566256096211983,1.5686768136773714
1.8359375,1.89046350611069,1.2439312568233318
1.83984375,-0.9364091849537197,-0.004028737935384172
1.84375,-0.7474088844695653,0.42506634836292734
1.84765625,1.005783754245908,0.8492822506346761
1.8515625,1.2241067524550318,0.2999034981449498
1.85546875,-2.064836748850108,-1.1212830267466933
1.859375,0.12036169038832492,0.6551707670955281
1.86328125,0.8979529764995029,-0.28249454449549105
1.8671875,0.9116239120749596,-0.16771665913372003
1.87109375,0.2519955658419062,0.8685124629135067
1.875,0.771750049378355,-0.7365838408128139
1.87890625,0.6539190109625546,-0.09595257005967617
1.8828125,-0.3717860100523469,0.3867609775797337
1.88671875,0.7179888081462528,0.7336580393369966
1.890625,-1.1612520953877323,1.117054959479757
1.89453125,-0.18598496157626124,1.3065751008119728
1.8984375,-0.41573708541318194,0.8199610615178291
1.90234375,1.0693440980524707,1.0973829884863424
1.90625,-2.449974193207545,1.2036892498646907
1.91015625,-0.4721290596125495,3.374385640444715
1.9140625,-1.5127730163312334,-0.40505750731629536
1.91796875,-0.9279891092986071,0.34360985495263724
1.921875,-1.4507921221595033,-0.1992544601595289
1.92578125,-1.6517102296643444,-1.101631560746829
1.9296875,0.3856869059271196,-0.17900556632073092
1.93359375,0.7048370848941651,-0.5598236256706749
1.9375,-0.9450483363622331,-0.11574218134847525
1.94140625,-0.39863137718322245,1.4356891487275643
1.9453125,1.2693140062969983,1.2832883424486845
1.94921875,-0.8238023044559587,-0.5311455337472036
1.953125,-0.35023808429209224,0.30201880214395166
1.95703125,-0.7671863310655042,-0.6276982350870511
1.9609375,-1.411331878389925,-0.3782082211390864
1.96484375,-0.6997643758013663,-1.1037283058026202
1.96875,0.2658019373955551,1.2749718703783335
1.97265625,0.07293864252553452,-1.0372113371946388
1.9765625,1.5073507052628965,-0.2501552540827951
1.98046875,0.5904200012747519,0.7012252533537957
1.984375,-0.034484889187816885,-0.4465227796387162
1.98828125,0.09482063527711755,-0.018610883384953165
1.9921875,-0.2782071487171927,-0.20809594617019742
1.99609375,0.44463840681459704,1.2492669215358807
2.0,0.21314750300583502,-0.45847141635509225
2.00390625,-0.5554078567868581,0.1454689594122988
2.0078125,0.408627401446732,0.08548414359369383
2.01171875,-0.560705380455715,-0.058706755124718325
2.015625,1.8519663117073748,-0.683614193814989
2.01953125,1.8116064577926752,0.713487408613275
2.0234375,0.7827696826735465,-0.9261496274123086
2.02734375,0.2279836707868178,0.09296077249880269
2.03125,0.12233036787364687,-0.10225817291106783
2.03515625,-1.2934042955992442,1.6560494260441272
2.0390625,-0.47133841250148334,1.3371875282135557
2.04296875,0.27235597732743483,0.2048398644134132
2.046875,0.200421830691382,-1.3977581552912615
2.05078125,-2.030324696087194,-1.254257974006324
2.0546875,0.04648371767812574,-0.5650961123703718
2.05859375,-0.01677571636527045,-1.5233086366907607
2.0625,-0.22498918941344795,-0.32416919642695247
2.06640625,0.3174298676277346,1.598695838560856
2.0703125,0.9958006997901546,0.7646493417101792
2.07421875,1.352445031644145,-0.7651702232610389
2.078125,-0.3934381862036138,-0.13273774125908686
2.08203125,-0.060064330603126964,1.5624843465383256
2.0859375,0.1292705322555098,1.5677023435283572
2.08984375,0.9926770449992464,-0.15572432956805282
2.09375,0.35171653948337134,-0.4872484623495964
2.09765625,-1.5680438054873154,-0.5429201710022217
2.1015625,-1.1752716238725032,-0.649074824998595
2.10546875,-1.0326393588490128,1.358882552825965
2.109375,-1.3728803716450817,0.24101141248453334
2.11328125,0.22545965416942151,1.3806250852504411
2.1171875,-2.2776763510284996,0.9702176421506142
2.12109375,-1.6735518680600427,-1.448376517641431
2.125,0.16127063692249274,-0.25484115350522774
2.12890625,1.466053978351576,0.08348328066313977
2.1328125,0.9505841806235149,-0.39579403998649043
2.13671875,-1.75917761722078,-0.3579674275626838
2.140625,-0.806105109165679,0.415548867951832
2.14453125,0.052911376541550474,-1.0834766519486445
2.1484375,0.3319500735071162,-0.03822518088506187
2.15234375,-0.86863449237284,0.19218427235914418
2.15625,-0.4379588645013625,-0.589826045373457
2.16015625,0.9380840462215724,-0.36489312509160876
2.1640625,-0.7089547813052439,0.548509757168677
2.16796875,1.3211612353765212,1.7155475811145044
2.171875,0.12670183571971225,-0.7106472189159123
2.17578125,-0.5113871009210403,1.781969449071229
2.1796875,-0.3862115135779075,-0.15112023323280493
2.18359375,0.05036446300766197,-1.5377598187172368
2.1875,1.5112053765206332,0.7665502066057036
2.19140625,-0.22220199601102783,0.4356117360408974
2.1953125,-1.5506881535075112,1.705099955376471
2.19921875,-1.0011783925337612,0.4136142973941085
2.203125,1.3188779099323642,-0.03649201356897684
2.20703125,-0.2776232667578966,2.850480616169057
2.2109375,-1.2923713235208234,-0.6168204624028927
2.21484375,-0.0935119438480861,-0.4734887687784046
2.21875,0.0033755016408476024,0.7045892341347109
2.22265625,1.4400250907854544,-1.4366573572460253
2.2265625,-1.7534975587822963,1.3000882378889675
2.23046875,-0.4926635008147094,-0.4792724803525717
2.234375,0.1857119129595717,0.1583140438782245
2.23828125,-0.14120672338719373,-0.6977114964906346
2.2421875,0.31042954243882254,0.045357186303566346
2.24609375,-0.770575634324658,1.4662825936150763
2.25,0.29748918560587245,0.18142157889925456
2.25390625,0.3526481935855922,1.7390355170586196
2.2578125,-1.7972642363957991,-0.7041386184946875
2.26171875,0.5249021191305439,-0.40452850405889135
2.265625,-1.1170519779891783,-0.593563055321064
2.26953125,-0.4208849449807792,1.241389327978792
2.2734375,-0.09312292259882891,0.27035970593158526
2.27734375,-2.0146550502837464,-0.6455975434549074
2.28125,-0.2557942519313733,-0.32877258704827267
2.28515625,-0.3003031262499802,1.5014491291209326
2.2890625,0.7725890986775953,-0.23793509610363742
2.29296875,0.15387625563180116,1.5416481283615193
2.296875,0.0663949429938248,-0.7868412035721004
2.30078125,2.6005821576534687,-1.1653586318765672
2.3046875,0.5297369657871739,-0.5955429665468576
2.30859375,0.7036345012384246,0.3207937083980183
2.3125,0.09837606666966489,1.9001970842569786
2.31640625,-0.7992605837516698,2.360547690821285
2.3203125,-1.5886663966706236,0.9515326765440314
2.32421875,-0.1485711547066122,0.21797602253070625
2.328125,-1.7692605285604401,-0.8550719232307864
2.33203125,-2.378092915016097,-0.4477256542875411
2.3359375,-0.5421747322534983,-1.250624291224126
2.33984375,0.6450239304175908,-0.13500219328479185
2.34375,0.692008727463864,0.9580123311090466
2.34765625,0.5083657648766586,1.043973738161745
2.3515625,-0.6997072651056226,-0.020226190479927374
2.35546875,0.017563270199910358,0.5591241491633765
2.359375,-0.36928177646794047,1.001997166348584
2.36328125,-0.5005843560441767,-1.8166330721580175
2.3671875,-0.8745745242484257,0.24930278774496858
2.37109375,1.234459474830814,-0.9276664723442636
2.375,0.8935028634114478,-0.7249879983560972
2.37890625,-0.11489365926235878,-0.8849808449083486
2.3828125,-0.009700301958830522,0.70029670975704
2.38671875,1.0308992225163172,-1.5047316761168328
2.390625,2.0754164375333177,0.24694098562472025
2.39453125,1.2539795495029817,-0.9605229391400989
2.3984375,0.05677454408536763,-0.6841369489287896
2.40234375,-0.47175180683863893,0.5068687517445497
2.40625,0.10303850396131511,-0.36703765404021316
2.41015625,-2.2603510599770873,0.8356278411950004
2.4140625,-0.8640604922879347,0.49101060318414397
2.41796875,-1.3749479242388258,0.002001780867128264
2.421875,1.1762585863754411,-0.02783797949903243
2.42578125,0.30157533823241445,1.279198195526914
2.4296875,1.192005039256476,-1.0685311447564396
2.43359375,-0.3941411587763328,0.8210202837332179
2.4375,-2.132599621471919,1.615039069857443
2.44140625,0.5986314296490695,0.37211506058033605
2.4453125,1.4671245375998638,0.17542382859685582
2.44921875,-1.3591356574320126,-0.8716929323478868
2.453125,-1.7246180920806242,-0.8746110184964555
2.45703125,1.2242529444513262,1.909413599542137
2.4609375,0.49631233506805994,1.7133123802675159
2.46484375,-0.0015907687940283674,1.567332693929188
2.46875,1.2810910894230214,-0.7549042081795567
2.47265625,-0.4661253562866918,-0.15264031622030083
2.4765625,-0.831946574602432,0.14702112868578926
2.48046875,-0.773917404175543,-1.146379256449623
2.484375,-1.5306971054647576,0.05703825821546594
2.48828125,-0.4252394901849826,0.36430639009857874
2.4921875,-1.1332535102757677,0.4867806984647058
2.49609375,0.009591921012293782,-0.1015937654790668
2.5,1.8577234743067879,0.6923752676805698
2.50390625,1.6813772712546828,0.20259797848990915
2.5078125,0.13263285648468925,0.5976731089060271
2.51171875,-0.20905849471654595,-0.3288408213690764
2.515625,-0.4502179204351354,0.6495944600862583
2.51953125,-1.9922448346878117,1.3184057650587948
2.5234375,1.048381224439386,0.06756834103163574
2.52734375,-0.5437473849924915,-0.4481438926922339
2.53125,-1.1078252514075415,0.2643121507910858
2.53515625,0.42257134530748686,-0.6491901693250086
2.5390625,0.922978561275274,1.0953652414109587
2.54296875,-1.359555832053405,-0.8178957539373176
2.546875,2.1305282430925856,1.0303619773664197
2.55078125,2.023683778213705,0.4921195496867549
2.5546875,-1.3291785128806393,0.9494717874933502
2.55859375,0.7162072314134378,-0.1245809562462791
2.5625,-0.39378873191472813,1.240568986145885
2.56640625,-1.2409853106077058,2.246546713739613
2.5703125,-0.6694674113722991,-0.053109046171721026
2.57421875,-0.15798172790538711,0.4159088185631085
2.578125,-0.559601804520007,0.9492322267567546
2.58203125,-0.5683456988584976,0.8495174183455638
2.5859375,-1.4630643745675092,0.381600088690013
2.58984375,2.7002948341315736,0.08553611568739683
2.59375,-0.03087028092470821,-0.2844759739635935
2.59765625,-1.678588466014558,-0.22171979605597777
2.6015625,-1.0020370441193294,-0.3890024770126375
2.60546875,-0.5712998569765113,1.3822617759255507
2.609375,0.4330843036292433,-0.6813537789461287
2.61328125,0.25507526837955913,-1.9452315224189136
2.6171875,0.9052509130148385,-0.9722771734266933
2.62109375,0.26550651209539083,-1.5558373822001597
2.625,-0.3049406202988012,-1.485676117978379
2.62890625,-1.5405855540474431,0.15474566829927972
2.6328125,-0.015054624712625381,0.729977347093431
2.63671875,0.6769749794998375,-0.2828623386108461
2.640625,-0.3293464324043515,-0.05012760310155786
2.64453125,-0.06252183371978835,-2.8985418092280133
2.6484375,0.045821336193067316,0.1726512074103598
2.65234375,-0.0370936620196685,0.20796006919474655
2.65625,0.0866602640205359,0.041312529785331197
2.66015625,1.7413992774549298,0.8884251960661734
2.6640625,1.6841004495916925,-2.088894240406222
2.66796875,-0.22882909864419618,-1.1521234654686379
2.671875,-0.8699316507593374,1.8390858336775446
2.67578125,0.8309194752343341,-0.6813038135752341
2.6796875,-0.029355328950405345,-0.12411777488784155
2.68359375,0.32363056847268906,0.2508436689805768
2.6875,-1.4373339018951115,-0.11993232622500717
2.69140625,-0.8567198572944166,0.2615370791185806
2.6953125,0.9406323701519695,0.5526927273379206
2.69921875,0.2784440716921978,-1.1624925632595873
2.703125,1.1110498845582604,-1.8343442759537647
2.70703125,1.3073117189349748,-1.5135587968572302
2.7109375,0.15948399081033987,0.4878334644832074
2.71484375,-2.293712935344042,0.0779757387045804
2.71875,-0.4776906150515819,-2.728945345211521
2.72265625,0.23656785258575228,-0.9775020662597702
2.7265625,0.014827849927292344,3.074827065501625
2.73046875,0.9785645139501303,-2.0228095133551665
2.734375,-1.6337409923354338,0.7750011281397021
2.73828125,-2.0765609221199934,-0.26760459957864313
2.7421875,-0.8947165248443714,-0.5298320927529007
2.74609375,-0.3802783126996861,0.17139501483905714
2.75,-0.3798227948250139,-0.20912907360005212
2.75390625,-0.23424330612404978,-1.0792943102675512
2.7578125,-0.023963743393188214,-0.6014568349464268
2.76171875,-0.9089321065877471,-2.1067312972820833
2.765625,0.9578395297679918,-1.9922770210465095
2.76953125,0.1773634046124062,0.7250166100204263
2.7734375,-0.7832205661624521,-0.016115298680419447
2.77734375,-0.18079874523495237,-0.4523658348753202
2.78125,-0.56538201559089,0.23827717108863838
2.78515625,-0.5329713827188248,-2.624802911896715
2.7890625,0.7239883413918534,0.6777122410792397
2.79296875,-0.3812818594964675,-1.2198323744871022
2.796875,-0.6011055796161524,1.091298516124435
2.80078125,-1.1926663562539945,-0.6835586276077162
2.8046875,-1.4838833188889995,-1.6497751685283497
2.80859375,2.2515633828790067,-0.3394953256127881
2.8125,-1.6740263187585842,0.4465378921979742
2.81640625,2.1085632487773753,1.1315942064195321
2.8203125,-2.032702891380616,0.1279057859834788
2.82421875,1.6515391729570637,-2.035377659083521
2.828125,-0.7054275005235341,0.4670476017702522
2.83203125,1.41007394316427,0.09267368996028776
2.8359375,0.1003920632442565,0.8705671227898002
2.83984375,0.5741066458013687,-0.45712638455131754
2.84375,-0.22384232131292967,0.24597314162648
2.84765625,-0.47140125917479975,0.5474243913936677
2.8515625,-1.0697879426581165,0.04100524498506396
2.85546875,0.6836429098258745,-0.7135344469199701
2.859375,-0.24812339137389228,0.7072921415014288
2.86328125,0.6461960780731435,-0.11084753035575136
2.8671875,-0.9357066520748716,0.4377584971644819
2.87109375,-0.4144062542228224,2.075191719210306
2.875,-0.21355268599193097,0.7915696661037355
2.87890625,1.1811763891926501,-0.004326362451930609
2.8828125,-0.9307469002113414,0.7881084948682971
2.88671875,-0.6684357386364911,1.0583925782541044
2.890625,0.7933519950277295,0.8075606296420853
2.89453125,-1.1912768300561716,0.15113390381838365
2.8984375,1.450743380254006,0.563955833115091
2.90234375,-2.234175956524158,-1.2686905025258255
2.90625,0.4524509898413608,-0.049220845021583075
2.91015625,1.2014078505236998,-1.9265507555964774
2.9140625,-1.790533067975246,-0.04319909737648241
2.91796875,0.4285727617428711,0.9175650585143231
2.921875,0.8024515192394286,-2.0486340030682695
2.92578125,1.7309472707968996,1.2937234326544529
2.9296875,-1.8227754797078146,-0.9149478394161934
2.93359375,-1.8000659648326593,1.025132577832079
2.9375,-0.43387050701135904,-0.7699601967641175
2.94140625,-1.7337579760961646,1.8568538909317471
2.9453125,-0.42822838409618563,0.352453043639341
2.94921875,0.2976639327806215,-1.6488890307827668
2.953125,-1.2888377150182593,0.08917454130527623
2.95703125,0.6378611515175009,-1.9153259797085733
2.9609375,-0.1816613340371784,-0.4148508859026462
2.96484375,0.7725378459321961,0.4260681503319841
2.96875,0.1654074458488185,0.37464367371777935
2.97265625,-0.9364228162617962,-0.18314727895191776
2.9765625,-0.15764529885672018,-1.6101853828267676
2.98046875,1.084712286927959,0.6374240513051004
2.984375,1.446863373624527,0.5030991075426534
2.98828125,0.10351722473104374,1.1998859468207987
2.9921875,0.4170430277752941,-1.2098360017525653
2.99609375,0.9931509490763908,-1.01906314056318
3.0,0.7588801495839121,1.0887754444718116
3.00390625,0.6043279336085867,-1.3400173153413628
3.0078125,0.7495166749138847,-0.6975907156862241
3.01171875,-0.26613356012932615,0.2668772689246882
3.015625,0.6763632732925162,-0.8994769330698185
3.01953125,1.9556930981797447,0.5229351242893875
3.0234375,-0.5346217021906043,-0.6359387851704499
3.02734375,0.4367041034498413,0.08578831742579936
3.03125,0.9911588149852661,0.06008857978862887
3.03515625,0.9557345462938039,-1.0921343082444221
3.0390625,0.9527592379087676,-0.1187128078155595
3.04296875,-2.4471725093670877,0.49545780382108495
3.046875,-0.018328521514087877,-0.7042744038387597
3.05078125,0.4408462231007251,-0.07780064784881811
3.0546875,1.3549491801835873,-0.36629652343899394
3.05859375,-0.00015884817501980608,0.49733554117348816
3.0625,-0.09334282871688028,-0.2275522281478316
3.06640625,1.515628227817773,0.8518955249629746
3.0703125,0.18555037831979385,1.8879494816679847
3.07421875,0.4820172801697482,-0.07831668494289294
3.078125,0.0982949901917921,0.20745864455233085
3.08203125,0.031416017054909845,1.3632447680899356
3.0859375,-0.2767490663200145,0.22749112225925716
3.08984375,0.4117115233156031,-0.4948636538795297
3.09375,0.5133392340688595,0.47496011425977597
3.09765625,-0.15810574042377243,0.6544620068049469
3.1015625,0.532234348399293,-2.0919144316276683
3.10546875,0.37485154767753276,-0.666758839413689
3.109375,0.7388605980821673,0.012405424484350752
3.11328125,0.9165005656063245,0.9910398357361937
3.1171875,-0.29619620591436735,1.4635304733952654
3.12109375,-0.05474521332433427,-1.2436766308257148
3.125,-0.7259151166331712,-0.2560940919921803
3.12890625,-0.5616700661363285,-0.46427914523165964
3.1328125,-0.5507771938888055,1.0225223340116338
3.13671875,1.055256445895476,-0.20694669156083548
3.140625,-0.766124098109847,-1.5723803361634825
3.14453125,1.6523025480442353,-1.9106638568053689
3.1484375,0.5999557032182413,-0.001530913098783179
3.15234375,1.980534288065344,-0.10754518380101055
3.15625,0.17228087013011867,0.4750902693099322
3.16015625,0.1913110947140678,-0.294779046617364
3.1640625,0.4449522654876925,0.19271200433648453
3.16796875,0.36303632980300565,0.42762009605006873
3.171875,-0.19282532607464914,0.8842115439662339
3.17578125,-0.33769042190546955,0.3291008557098729
3.1796875,0.1398403202396646,-0.05712553362571621
3.18359375,0.3695030216468725,0.9660992852920703
3.1875,0.16372905481384822,1.5798841232514411
3.19140625,0.049337059973521086,1.2063269256059541
3.1953125,-0.3347837742157675,-0.3190568662572472
3.19921875,0.6883192680306408,-1.2189419132915846
3.203125,-0.6862183845576096,-0.3171188885130952
3.20703125,2.7075463938928683,1.8734979354986738
3.2109375,0.6641494255081785,0.581238388794969
3.21484375,0.4445030715936354,0.4904570833770268
3.21875,0.17080459088110583,-0.8375927037240215
3.22265625,0.16288470522419407,1.1489248780063743
3.2265625,0.22627053401115166,-1.1940068495523364
3.23046875,-1.1917110748023114,-1.129706750899455
3.234375,0.4812413031490254,0.06682337198829397
3.23828125,0.15886279133056255,0.38484686760643144
3.2421875,-1.3279808528812025,0.355243653693764
3.24609375,-0.4327827359724924,-0.43808618651328673
3.25,0.356848411124651,0.9724335435139912
3.25390625,-1.537294489446497,-2.3031194387320153
3.2578125,1.2249796956564751,-1.3849410924740158
3.26171875,1.3896357782405555,0.1524721096087113
3.265625,0.8240388968054448,-1.6913036900767529
3.26953125,-1.0546921502313322,-2.819871934864327
3.2734375,-1.15675729627087,-0.7166334384068
3.27734375,1.6567226622907891,1.4989543844325237
3.28125,-0.7149042809041458,0.39387706560562175
3.28515625,2.2649238726882333,-1.6350482279454825
3.2890625,-1.1481803554938224,0.4052421923913543
3.29296875,1.6220977511753485,0.6302810590390714
3.296875,0.37470570374978707,-0.024824509887985503
3.30078125,0.9274367216695685,1.8218854582826487
3.3046875,-0.7349805214451727,-0.4692548122463133
3.30859375,-0.8411410800368675,-0.2796337031548603
3.3125,-1.8599160824320387,-1.1946478453286238
3.31640625,-0.9782919191489261,2.152015839943227
3.3203125,-0.2268378460871388,0.3448692426194109
3.32421875,0.32274349310690115,0.05556573053939911
3.328125,-0.299373017268789,-0.7929839927542432
3.33203125,0.5736053302415842,-1.1190644307854074
3.3359375,-0.7596913330200444,-1.106618832075791
3.33984375,0.09150770799568804,0.15632712805074273
3.34375,-1.0165172945508079,-0.739918832051149
3.34765625,-1.4864584687225637,0.7272582701940713
3.3515625,-0.6439609560490205,-1.4254537439781005
3.35546875,0.6473516043100609,1.4997814452400566
3.359375,0.3429895633175653,0.7629511324342191
3.36328125,0.16531804572569928,0.9469583364887423
3.3671875,-0.29204276685964176,0.542736812401669
3.37109375,1.0762736565786046,-0.34498528724728295
3.375,-0.4236863973360703,-0.8175278597293154
3.37890625,-1.5093275404901951,1.3318609179606715
3.3828125,-0.5286776323514346,-0.17135270648520876
3.38671875,0.28320593617808765,-0.6297187346563198
3.390625,0.6256614616968914,0.3488524321356578
3.39453125,-1.490723047188404,0.18589329026940216
3.3984375,2.036754882985527,1.3551701341449633
3.40234375,0.44680063251918223,0.12914621547924027
3.40625,0.022301665761684263,0.19407014174240209
3.41015625,0.433990196414015,0.16480187128813525
3.4140625,-0.308322976390883,-0.1967709199559175
3.41796875,1.1703653801108895,0.670141801384377
3.421875,-1.1413171954543322,-0.35472829256718813
3.42578125,0.9554891922896817,-0.06124150487402629
3.4296875,1.5407249987173863,1.0374692274493784
3.43359375,0.3451468577079392,0.12839879740267326
3.4375,-0.4658906689735431,0.8426410621517617
3.44140625,-2.4114857373191527,0.36543720236828103
3.4453125,-1.7828399685440488,0.19039416417910407
3.44921875,-0.6648337556206401,-0.12146072558083107
3.453125,-1.0106188197986514,1.6298314282400137
3.45703125,-0.10382987270890832,1.0743658833115926
3.4609375,0.9537981782366352,-0.06589603393434547
3.46484375,0.319551368083701,1.124218863167147
3.46875,0.5840363073458706,0.16686190253233546
3.47265625,-0.26485636925340067,-0.6276081550623118
3.4765625,-0.5058864995254284,-0.1766701791490135
3.48046875,-1.4913110996927543,-0.718238729476456
3.484375,-0.7910338680915311,1.1549142435930355
3.48828125,1.8212446729075307,-1.4920831704239432
3.4921875,-0.4306890798619535,0.9046512511113687
3.49609375,-1.0915108124062467,1.178850892233507
3.5,0.37321447530041935,0.26977966629293415
3.50390625,-0.4497259562167963,-1.5637216918973318
3.5078125,0.6586932481587588,-0.5051169405697612
3.51171875,-1.0715729875573279,1.3857844792530039
3.515625,1.067762357992951,-0.015791495081672456
3.51953125,0.08479740285036134,-0.7636078360997478
3.5234375,-0.05681666283407708,1.2306423144622944
3.52734375,-1.1097199408960883,-1.975124186466466
3.53125,-0.930717691082961,-1.0601144366924984
3.53515625,-0.6012040136220422,-0.9356233077623393
3.5390625,0.05035900385349164,1.3942191303518696
3.54296875,0.500595324523166,0.6440813787655177
3.546875,-1.35780168324899,0.6353122887480216
3.55078125,-0.016402714736081913,0.6305047018064023
3.5546875,0.2710969977419885,-0.22131956287403431
3.55859375,0.025101507183972735,0.550320950442059
3.5625,-0.21092669812128542,1.015923736443294
3.56640625,-1.3189185360019118,1.0446179570269885
3.5703125,-2.043044059818637,0.11873321193816438
3.57421875,-0.013086383911072594,-0.41679721708974865
3.578125,-1.1025795713836477,-1.3070566734650346
3.58203125,0.08437252116751448,0.905568088487959
3.5859375,1.4061319862283903,-0.5852550012826406
3.58984375,0.3750948528476622,1.2148773866354285
3.59375,0.874040404524587,0.7150371420661501
3.59765625,1.5723048432231241,-0.11711425930560031
3.6015625,0.2480953486290632,-0.3514205988095594
3.60546875,0.5345482719935719,0.22184712417058178
3.609375,-0.0733900284363911,0.2685947837179104
3.61328125,-1.7803883224878363,-0.6198243750389866
3.6171875,1.2153260004694084,-0.18921615809533796
3.62109375,3.3706988800564526,-1.7658907721646189
3.625,-2.331591209073283,-1.8865935890941532
3.62890625,-0.9067128064741928,-0.3982389213404192
3.6328125,0.3745937660789334,2.1060941766597665
3.63671875,0.780648658366285,-0.9464957443410169
3.640625,-1.2215458039235172,-2.0542325229450165
3.64453125,-0.5432322967282194,0.12355392339615826
3.6484375,0.7310186611517104,0.19205393806915463
3.65234375,-1.2117455125503733,-0.3671133707499616
3.65625,1.9050543104398747,-0.012343843556478457
3.66015625,-1.1853044470110816,1.299504541687662
3.6640625,0.18549637525829504,-0.10386786658683628
3.66796875,-0.5053068327155367,0.9552652160154373
3.671875,-0.41421128867700646,0.0073384735812257705
3.67578125,-0.31052160402578455,-0.2734979154302304
3.6796875,1.9919009199265947,-1.0262208811238582
3.68359375,-0.9153464830936179,-0.0708680006698905
3.6875,-0.33244784775010766,1.11163634275956
3.69140625,-0.22678678902158253,0.18342702364747274
3.6953125,0.5649685967058499,0.026004307661212894
3.69921875,1.0161685725019711,-0.15478924189702367
3.703125,-0.9292047999655858,-1.1184182462190468
3.70703125,-2.3005782763606235,-0.5643387517763188
3.7109375,0.5595778186608689,-0.37981533688756947
3.71484375,1.2614898159924819,1.0335998439772165
3.71875,2.0083224765388175,1.748755117087726
3.72265625,-0.8465343928563812,1.489508371518767
3.7265625,-0.28152214052857993,1.1807076116898134
3.73046875,-0.8531573536271511,-0.6285016219925014
3.734375,2.2149557297807876,-1.1660557644549472
3.73828125,-0.2451520955082322,-0.3581456957052749
3.7421875,0.8560258547194017,-0.5885351389587322
3.74609375,-1.1785654456506212,-0.33483266666765826
3.75,0.3764316019082334,0.957405079335529
3.75390625,1.1035019554485883,-1.2605569489186688
3.7578125,0.3564753990964129,-0.8675341368335995
3.76171875,0.048712314900358496,0.35673728861339554
3.765625,0.8804690534775352,0.6958547142271161
3.76953125,-0.4352026881092016,0.006956192942759305
3.7734375,-0.23612948528103617,0.07580181996341571
3.77734375,0.8410574378593885,-0.31989643128896733
3.78125,1.4241749673856854,-0.43667365914187556
3.78515625,-0.8878506420556791,0.21312251608814606
3.7890625,1.166213446789842,0.4278187573251573
3.79296875,-0.3474213600823057,0.11551119737359114
3.796875,-0.3243816109882039,0.619577718886249
3.80078125,-0.635327206204448,-0.3898925453339938
3.8046875,-0.08013062822630342,-1.0963859904477977
3.80859375,0.11630988668798993,1.4690374817730592
3.8125,0.05148191587913649,0.42719522693806405
3.81640625,0.16810549521600907,2.4769897456926153
3.8203125,-0.16197863187478642,-0.8283904796556477
3.82421875,1.4533299125018873,0.655543639869367
3.828125,0.2671207839795961,-0.3845654026141751
3.83203125,-1.606394092654815,-0.29614983230432906
3.8359375,1.0545503990795653,-1.9225447832775542
3.83984375,1.6881402370580552,1.0547781282799933
3.84375,0.6419149634110901,0.6095980789466897
3.84765625,1.0377426252259345,0.9094362564549189
3.8515625,-0.594095147365644,-0.5829040067655787
3.85546875,-2.6675730611386492,-1.3607138825020726
3.859375,1.2211815004665876,-0.3302372175040577
3.86328125,-0.7237554213127143,0.24643728130267561
3.8671875,2.017397897642157,0.6360121920641868
3.87109375,0.46101424966984794,-0.32114798607092604
3.875,1.6307509306978663,-0.7655437691276653
3.87890625,0.0964191589736968,-1.0030847354960208
3.8828125,0.3925329706722809,2.2600967846232276
3.88671875,0.23370287340511572,-0.2685078964119971
3.890625,1.96233940373317,-0.9701310344720885
3.89453125,-0.7751849911995509,1.288305624268562
3.8984375,-0.834953057530442,0.5492774752849227
3.90234375,-0.2729663703627551,2.0143686918507737
3.90625,-1.4621179076707915,0.7879385092862234
3.91015625,-0.9852286072228006,0.6256856733460318
3.9140625,0.9354087950044696,-1.174132701318431
3.91796875,-0.7815669367614176,2.084839911461762
3.921875,1.7312182323134506,1.2959537159223322
3.92578125,0.6659157809438964,1.566974690129426
3.9296875,-0.34194408218474154,-1.6799157106647078
3.93359375,-0.4293164951921606,0.818668787617598
3.9375,-1.0214842916510412,-0.7982628778217211
3.94140625,0.40885292103206156,-1.1375521927555443
3.9453125,1.8520852117958098,-0.620497886266094
3.94921875,0.41743218343183897,0.470864320103238
3.953125,-0.4559594581084564,-1.009948607187346
3.95703125,-0.4967734833559836,0.03415872023159928
3.9609375,0.40943521182473896,-0.4479965456296507
3.96484375,-0.8219299751816265,-1.5682706671843014
3.96875,-1.4551245822317815,0.9805729866269065
3.97265625,1.6125190396114062,-0.986020570196289
3.9765625,1.008868447792833,-1.4389912824782682
3.98046875,0.7910309072841407,-0.4200560002187822
3.984375,-0.1070159635277746,0.03870635498564851
3.98828125,0.38015994333766107,0.1931080935968938
3.9921875,0.7251506046154524,-0.28539271127545934
3.99609375,-1.0332311573980175,0.2813663997325302
4.0,1.3007333616078485,-0.2710017613833469
4.00390625,0.3124077509566184,0.8814490772442162
4.0078125,-1.2324808357745074,0.2316238604442441
4.01171875,-1.270415548658757,-2.2422281919422504
4.015625,-0.2133032089982888,-1.2191186449167835
4.01953125,-0.6959167429359593,-0.8301960246458858
4.0234375,1.6164716097076497,0.3300961248575317
4.02734375,-1.0980000617967467,-0.3726140182343461
4.03125,-0.28735276402516247,-0.019717049612346008
4.03515625,1.5864963236948348,-0.10732946567026952
4.0390625,0.9114647875812306,0.5894824194999982
4.04296875,-0.007812352271158433,-1.6462724170168057
4.046875,1.6543630128445737,0.591853321710702
4.05078125,1.1219934592442629,0.5561510404874923
4.0546875,-1.1334405942408246,1.0234583263814176
4.05859375,0.2930647455683448,-0.6037752442673423
4.0625,0.6084882259926849,2.4577962502089243
4.06640625,-0.5831366755265415,-0.1296021212261723
4.0703125,-1.2936129180246263,1.633505771608954
4.07421875,-0.7271519472329687,0.8412407616207261
4.078125,-0.02203326866240262,-0.4753761058182645
4.08203125,0.14604806642956147,1.17926539927989
4.0859375,1.6641416054776013,-0.42706435050411995
4.08984375,-1.354011962446514,-1.466025663179009
4.09375,-1.2546849884988018,1.523517152654102
4.09765625,0.36155505510962943,0.5164878143806967
4.1015625,2.0526576719059784,-0.19053132468115028
4.10546875,-0.6918009143368576,-1.8425107073355929
4.109375,1.056491080563062,-0.8520842656137056
4.11328125,-2.1989060476497375,-1.6760136626234627
4.1171875,-0.035467561356112044,1.2522113600717506
4.12109375,-0.5929668325701309,-1.4858928783933485
4.125,0.7434092010989902,-0.9626695632009566
4.12890625,-0.5148069251135929,-0.7654920729094788
4.1328125,0.4247043920477775,-0.24920629582298204
4.13671875,0.06631332925608029,-2.0625443525901086
4.140625,-0.2677460175212049,-1.625895927867184
4.14453125,-0.3089877477636423,0.6445677028131782
4.1484375,1.060500126977087,0.007898754659786568
4.15234375,-0.5493899180459899,0.33721596833138995
4.15625,0.033166696368504826,0.5668342858649904
4.16015625,-0.4741487025592871,-1.7106641785560601
4.1640625,-0.23201975571340383,0.22204595472349234
4.16796875,1.8800362875402699,0.3653297491411309
4.171875,-0.4145784038245609,-1.8613924029076123
4.17578125,-0.7132936433675463,0.4793990727381067
4.1796875,1.5030244646866302,0.07545472883341255
4.18359375,-1.3331172082720675,0.0356635413930034
4.1875,-0.017014246667837015,-1.4580384510174804
4.19140625,0.4108343159274258,0.3704839984223744
4.1953125,0.8031004502183509,-0.7295635266055593
4.19921875,1.9810502706550246,0.24247555767634205
4.203125,-0.6566109012932758,-0.1886982126644081
4.20703125,-0.1098101260535807,2.231549388835194
4.2109375,0.03433830336599925,-0.17714998568931734
4.21484375,0.9336811036054123,-0.6480967243948966
4.21875,-0.23936528815368038,0.6616636832387408
4.22265625,0.6407642156866075,-1.7057609587463938
4.2265625,0.1013159474632577,2.201914576232737
4.23046875,-0.7022389559807996,-1.4735834772015066
4.234375,-1.103981771048302,-1.0449164570393463
4.23828125,-1.96586631800936,1.2908747211279576
4.2421875,1.0654715711869769,0.03063488748859509
4.24609375,-0.0035341431893655445,0.4837045369631784
4.25,1.0269782950375708,-0.24349280531367937
4.25390625,-0.07059693544957699,-0.41835334910732763
4.2578125,-0.21136468470034214,-1.212325821714195
4.26171875,-0.8134466849212107,1.030048465840533
4.265625,0.030847765430981947,0.12643006508612184
4.26953125,0.8024013001560657,1.1599984717581366
4.2734375,2.2341093483041408,-0.18080529328630257
4.27734375,1.3641415966055361,-0.6754039615271146
4.28125,-1.020873626295151,1.4270985293532072
4.28515625,-0.6362430629259094,-0.9192826361737872
4.2890625,-0.18941702606635155,0.7794866487095373
4.29296875,-0.5521060086461557,-0.6351883781534733
4.296875,0.8063967460241949,-0.7982009238470678
4.30078125,0.8927828156752579,1.3780841910532433
4.3046875,-0.7333391728030069,1.6203003712041897
4.30859375,-1.7248889845559927,0.7471501431289678
4.3125,1.5284526812106216,-1.051400472884181
4.31640625,2.321039847192326,-0.5853867814812146
4.3203125,1.1604487547094562,2.0502201420806543
4.32421875,0.6857041129610565,0.39030863153566825
4.328125,-0.02632810171353245,1.137964508306236
4.33203125,-0.3994457981926174,1.668675226182392
4.3359375,-0.38394196766803174,-0.27085828986990346
4.33984375,0.20140522601490132,0.3267077924875509
4.34375,0.06010290183319999,-0.604284273499639
4.34765625,-1.3624856605329942,0.04102744700728144
4.3515625,-1.0207352724837184,-1.2306637783383705
4.35546875,-1.4514975826603553,1.4082634509571366
4.359375,1.5085420893454107,1.1086797121649397
4.36328125,-1.6707973110181458,0.33749772897978736
4.3671875,-1.0662050258035818,-1.089699732570663
4.37109375,-0.5724114653835799,-0.20376671611813396
4.375,1.008671095053307,-0.21851104473780467
4.37890625,0.35473862587241195,-0.6615231197479052
4.3828125,-0.4001593999168219,0.6585231475602233
4.38671875,0.6719166666291433,-0.28390980074095906
4.390625,-0.057492847858800926,-0.8217446556114325
4.39453125,-0.66822030364506,1.7748486672267556
4.3984375,-0.7983815601835889,0.18954935131419318
4.40234375,-0.059272812321226886,0.8122731906708773
4.40625,-0.5111641192605152,-0.4216340921352263
4.41015625,0.7790170553203029,-0.04760457967924297
4.4140625,1.0204292426053891,0.4254345834322972
4.41796875,-0.24408031315526965,0.16606013716815934
4.421875,-0.31143710999972124,0.2004920127707635
4.42578125,-0.9614284293926486,0.7373323212332935
4.4296875,0.20473110103854478,-0.4805721032304824
4.43359375,0.4825052679493982,-0.5248447928236966
4.4375,1.012833133211027,-0.48096409395846756
4.44140625,-1.6392532300407605,-1.2373693570775983
4.4453125,0.9774769962627108,0.05910095837021945
4.44921875,-0.8427066344682829,1.6329167946172112
4.453125,-1.0590777595144882,-0.9211293430581312
4.45703125,1.5543089067066354,0.6651468398174515
4.4609375,-0.448032605592734,-0.6263215402026254
4.46484375,0.5376778997647585,0.7877159989711521
4.46875,-1.5193473375787352,0.36916813500625856
4.47265625,0.6437929581263017,0.9001523978665703
4.4765625,0.3582677581687594,0.6525576071694089
4.48046875,-0.7498605570086051,-0.23414935781231616
4.484375,-2.210863950008295,-0.55609956844297
4.48828125,-0.517928746792824,1.0988848137725713
4.4921875,-0.8752935080975763,1.0392870180999974
4.49609375,-0.6749046632702727,-0.6157156063279369
4.5,-0.8851192353851706,-2.118699520655652
4.50390625,-0.35065210604377295,0.3922542514604896
4.5078125,2.128015312004542,-0.032826831722189656
4.51171875,-0.010907290406387203,0.5587997268008248
4.515625,-0.27665018405670094,-1.4562422447532362
4.51953125,0.4233235802680933,0.29906036433714306
4.5234375,0.971227190731676,0.3595212439111198
4.52734375,-0.20118621451664934,0.4698058509341876
4.53125,2.501909433389044,0.09846917511480988
4.53515625,1.5740028604375433,0.3405823117925557
4.5390625,1.5390136035629984,0.22486345392094031
4.54296875,0.9909750412998154,-0.20592474983170628
4.546875,0.9307023006821111,-0.38449375199780633
4.55078125,-0.7562398515668928,0.26626028101486826
4.5546875,-1.5977698597170509,0.3035722303526279
4.55859375,-1.1200714620233505,-0.8306159554146695
4.5625,-2.0723613096771794,-0.16580001826591342
4.56640625,-0.17582565802737182,-1.0804597775026117
4.5703125,-2.4304261188985077,0.6869684635717985
4.57421875,0.6209334141373946,-0.9886458659083717
4.578125,2.2419501597162017,0.19037410151476838
4.58203125,-1.1590497991422957,0.03924322348326121
4.5859375,-1.4320588321692316,-1.376518551805353
4.58984375,-2.0968198212807527,-0.43575703527327725
4.59375,-1.1705590866366262,1.2668899133228133
4.59765625,0.5032659847576562,-0.17877588847421097
4.6015625,-1.3450060137554485,-1.7651422896119071
4.60546875,-0.35112136814891376,1.578041140902851
4.609375,-0.9745438224037847,-0.8341732389878702
4.61328125,0.8206849991156892,-2.4455345498884413
4.6171875,1.0543636647317667,-0.379242204934119
4.62109375,-0.6145448089853108,0.18637608529727187
4.625,-0.7107571491079199,-1.54661807881341
4.62890625,1.332585110594986,0.23568941469100177
4.6328125,-0.03508991884142281,0.11714190074232125
4.63671875,1.1251883231669186,0.8785619843161009
4.640625,0.19956438766693477,-1.107010295215928
4.64453125,0.3395891497385387,-0.505675025312269
4.6484375,-0.41203672903365507,-1.1343827923969243
4.65234375,0.011833863671002908,-1.1538579878270334
4.65625,0.21181853088083907,1.149171749399952
4.66015625,-1.551051733150916,-0.2835229868784298
4.6640625,-0.9395848483543029,0.22317228797033584
4.66796875,-0.38508491379113996,1.4136114844055871
4.671875,0.964706697044164,-0.24263600843372157
4.67578125,0.5323036977344618,-2.121563086511557
4.6796875,-0.10643251310165926,-0.8995569266372839
4.68359375,3.46133355960581,-0.2113061815385323
4.6875,-0.24419853349008708,0.09396405930018308
4.69140625,0.7092044912469346,0.4500058708726349
4.6953125,-0.9202969432577252,0.6424832427368402
4.69921875,-0.3922757802164472,-0.5798770628845686
4.703125,-0.2845334925927163,0.37742935313463144
4.70703125,0.6809630266305257,0.34859864489375786
4.7109375,-1.2526005688277315,0.7067562793988933
4.71484375,-0.8242732688897423,0.8380608429730617
4.71875,0.6314516215964616,-0.005149652444964118
4.72265625,-0.23573058874322617,-1.1699880219357706
4.7265625,0.10398432619933722,0.6993863514460691
4.73046875,1.171848641523858,0.04888055586693624
4.734375,-0.2911975349154203,-1.8978971567455065
4.73828125,0.2865659483614848,0.7677584273717981
4.7421875,0.6249028580653826,-0.12352771310536782
4.74609375,-0.4126773534074427,0.6641062594334161
4.75,1.2489794639307186,2.3607097488097133
4.75390625,-1.058701274200336,0.5551291931713466
4.7578125,-0.09303947762710718,-2.697833345259216
4.76171875,-0.8066474709583246,0.18907617157495882
4.765625,-0.798339042461111,0.94179886856419
4.76953125,-0.23209509775933854,0.41602345344684705
4.7734375,1.3079818227264493,-0.5745818096171489
4.77734375,0.6512496274322225,-0.08488860104233448
4.78125,-1.272829648229679,-0.7745388828533329
4.78515625,1.7094926800951205,0.7525393565989088
4.7890625,0.1434105634031325,0.6297796123234707
4.79296875,-0.2256133353794485,1.5624543146583514
4.796875,0.23313811494050588,0.3030652368745635
4.80078125,0.6307332192202932,0.010942178785423569
4.8046875,1.3538391899164128,-1.1525575447355727
4.80859375,-1.0738351248929476,-1.632757899558137
4.8125,0.4058444049617592,1.6395744652572604
4.81640625,1.5332348207010795,-1.2020279485686969
4.8203125,-0.25636538732302483,-0.807493661018041
4.82421875,-0.03674153895303545,-1.0946901021080904
4.828125,-1.4282778743031892,1.0147246600398405
4.83203125,-0.4697912693887397,-1.4573085026780754
4.8359375,-0.8898348626970667,0.9494314445771601
4.83984375,0.7675735834562014,0.480645199154027
4.84375,1.0042092268993499,-0.1277698667051572
4.84765625,-0.48202559086465085,-0.6519949929079737
4.8515625,-1.017906706651042,-0.14831721801018777
4.85546875,-0.6438167628733458,-0.5026215130938287
4.859375,0.9016474069618193,-0.1092522890810203
4.86328125,-0.07609421216821681,0.40149669012372546
4.8671875,-0.7732722795310897,0.37284631343449554
4.87109375,0.24034686558804172,0.33315703760101334
4.875,-0.48641596091898937,0.1675064389305938
4.87890625,0.883786513340794,-0.7149187673306072
4.8828125,0.06674379377006456,-1.0918094946996846
4.88671875,0.6902455305115732,0.5826460593062328
4.890625,-0.27520345108378547,-1.0617377508203603
4.89453125,-0.06446234728628912,0.4337865821970775
4.8984375,-0.6031839544914073,1.0143271701191194
4.90234375,-0.3095694703207423,-0.10096285678675472
4.90625,0.7462585510739456,1.0128361272294124
4.91015625,0.9650832636657547,-0.23039328991371721
4.9140625,-0.35561382653124246,1.4188936176057616
4.91796875,-0.3353829122112971,-1.3179059889849607
4.921875,-0.5743244340068805,-0.8463921552616845
4.92578125,1.8741079659324942,-1.0724278212484633
4.9296875,-0.4073782900566647,1.5321452996200098
4.93359375,-0.02549447042972581,1.1561265498481674
4.9375,1.0310931501048108,-0.12136863861898897
4.94140625,0.6422232598542192,1.0751103197575944
4.9453125,-0.10874487025452778,0.3625055565015419
4.94921875,2.587854660733952,1.1587178245514616
4.953125,-0.6074816789134204,0.57176532502135
4.95703125,-0.9963789331421269,0.8508892048104075
4.9609375,0.4884643082152623,0.21409750747547798
4.96484375,0.004682169057170633,-0.11420715703127066
4.96875,0.45937137120868055,-0.8752863866356729
4.97265625,0.12598349792889363,0.676863256369947
4.9765625,0.7337389660525618,-0.3661304292973568
4.98046875,-0.4174088734721359,-2.7102099544647245
4.984375,-1.8665809511552685,0.8956751188013484
4.98828125,0.6314252275319896,-1.9428578913303107
4.9921875,-0.2796727733165257,0.913515581968678
4.99609375,-0.6846530750948637,-1.4488155523399118
5.0,-1.226573701827868,0.41184247268924334
5.00390625,-0.4467912184009157,-1.308016246305052
5.0078125,0.5190066284882124,1.20747903927964
5.01171875,1.0246365481692485,-1.1471867672659681
5.015625,1.1427923708639343,-1.2112331641911782
5.01953125,0.6511580081827929,0.22485458864282476
5.0234375,-1.566739620237849,-0.010230861954029322
5.02734375,-1.2242617271250757,-1.2754217947791142
5.03125,-0.4448512337361417,0.5152584102863386
5.03515625,0.5023302552189733,-1.7722904823817438
5.0390625,-0.1853348711229445,-2.0376853238840757
5.04296875,-1.193623746022749,1.2454784212647672
5.046875,1.353126383252399,1.5355754561057993
5.05078125,-0.24652297893566197,0.03263065076907257
5.0546875,1.577726766141345,-0.013673382419351007
5.05859375,0.11783098557432818,0.43416308840467227
5.0625,-0.11167763679603435,-0.3361680713744393
5.06640625,0.17305770332650816,0.7906884602918657
5.0703125,-0.959665849607369,0.02371056229486274
5.07421875,0.24167894202648693,-0.4574588325873927
5.078125,1.0107162026683467,0.7799219639640601
5.08203125,-2.3095016003684243,0.7058261939377448
5.0859375,0.21590192852595505,-0.039488183499185175
5.08984375,0.29750498248983814,-1.4436187927309863
5.09375,0.8377494073195884,2.332060613909148
5.09765625,0.02599854279606302,-0.5984556894697279
5.1015625,-1.5662634052014959,-1.0528789546832553
5.10546875,0.7992917914154284,1.593059298380785
5.109375,1.6392875457631542,0.44767886318408623
5.11328125,-1.05875765751482,0.26696648793020605
5.1171875,0.32918598302476976,0.8531816085663068
5.12109375,-2.727145075794907,-1.7723585537680016
5.125,-1.1719657644415504,-0.8026969900874675
5.12890625,0.5472095826824285,0.7186742113103158
5.1328125,0.6606050935150236,-0.08058750479515576
5.13671875,-1.360951306639243,1.072708580970947
5.140625,1.49005225523856,0.9594929889052067
5.14453125,0.00446507281839624,-0.41370304625419085
5.1484375,-0.7002303879477012,0.22036233715310136
5.15234375,0.22528038966669464,-0.35725681436442785
5.15625,0.3437149333696508,-1.1144159278115857
5.16015625,-0.7920430636897932,-0.12202474312462429
5.1640625,0.30799055723585267,0.06438525299843569
5.16796875,1.3642775925138868,0.043718153385994336
5.171875,1.0455163935202207,-0.7969205931699174
5.17578125,1.8293594450657373,-0.34208097283761385
5.1796875,0.1754494900239279,-0.26526101574766153
5.18359375,0.7310210740164254,-1.3946430460337864
5.1875,-1.5899631148851379,2.104331163600254
5.19140625,-0.007380382001176013,-0.5156775836599374
5.1953125,-0.7853775750854721,0.2593683450435075
5.19921875,0.2849773923091808,-0.949240394685921
5.203125,0.6455314340509728,2.357380601081141
5.20703125,-0.46706843418144683,1.2420149039528183
5.2109375,-0.7319487399613555,0.9272175417359
5.21484375,-1.53227361252966,0.37508135464801445
5.21875,0.4399249113673761,0.8363389635596067
5.22265625,1.1363861844126029,0.06497677373582617
5.2265625,-0.8900537025160913,-2.318912430909585
5.23046875,0.2064430557399399,-1.6420984986792302
5.234375,1.63150233517639,1.5176344679585618
5.23828125,-1.3665897598856003,-0.019591589225122216
5.2421875,-1.169797404958935,0.7973240719397721
5.24609375,-0.6466273882892994,1.5441543331050989
5.25,-1.5137649616250943,-0.5322727574483074
5.25390625,1.0903634171033905,1.1162002359719951
5.2578125,-1.14374705969247,0.17801147952916746
5.26171875,-0.6826961127902167,-1.0162253290623606
5.265625,-0.2703449838314891,0.5041912982597611
5.26953125,0.7884886293221157,-0.5846342883042618
5.2734375,-0.7868728190909905,-0.4037963661482803
5.27734375,0.459392243287807,0.3632294304179625
5.28125,0.9289655560953664,-0.21560626452977044
5.28515625,0.8622059081004516,1.4768664769798956
5.2890625,0.46040583365731613,-0.4921570365367097
5.29296875,-0.37463350609555424,0.7593485902134297
5.296875,0.5998418042872959,0.829370401005275
5.30078125,0.9473319023597154,-0.19118866832754466
5.3046875,0.011518310345197513,1.4384688484736634
5.30859375,0.22339450984476084,-0.11868729547624933
5.3125,-0.8930976204072603,0.4450475285170228
5.31640625,-1.1249808867489546,0.12769390382618123
5.3203125,1.429780043652976,-1.2627451519239248
5.32421875,1.1091818183224313,-1.1809862310418486
5.328125,-0.349701418567909,-0.3182149164409312
5.33203125,1.3561481581441017,-0.0940770274536779
5.3359375,0.5519189142390586,0.5799948976188705
5.33984375,-0.20571953573671667,0.4870129944336684
5.34375,-1.06633035647127,0.6866606061483196
5.34765625,0.5530624045639599,-0.10731781313824063
5.3515625,-1.764078140253773,-0.27301759797260017
5.35546875,0.028094914952057244,-0.6152192039192144
5.359375,0.39301485828607746,-1.6563768423965601
5.36328125,0.2670924242052608,-2.4518225517332186
5.3671875,1.4095103737574959,-1.2399561963675185
5.37109375,1.0981427475290997,1.795589194929649
5.375,0.6305525416929879,0.9974215848145294
5.37890625,-1.2892035765991574,0.07698498487754567
5.3828125,-2.1216604192543067,0.9091441963369385
5.38671875,-0.0766307838425309,0.7368515614387687
5.390625,-0.8053347473479227,1.3114373948128792
5.39453125,-0.3829240607973794,-1.0382688021688493
5.3984375,0.8737259181780472,-1.0699323524066633
5.40234375,0.8774842043432975,0.9054515166068846
5.40625,-1.4868597241340904,0.11393257683455635
5.41015625,1.2177930394621532,0.628461677129599
5.4140625,0.6583342030190527,0.4801309517699616
5.41796875,-0.822649917121763,-0.04175225725518224
5.421875,1.8771277322385131,0.4731353250663641
5.42578125,-0.2856479905246447,-2.060979347909384
5.4296875,0.12768217297651566,-0.9318520283208613
5.43359375,1.5222260461775121,0.9204691412817371
5.4375,-0.1375001101904612,0.7969150711985327
5.44140625,0.21435310422631368,0.8905903610403133
5.4453125,1.0782174628034984,-0.5052127782399641
5.44921875,0.08683288722082716,-0.8890790733410321
5.453125,1.560740559877595,-0.11247849111261626
5.45703125,0.24096701346192215,-2.3335191851790675
5.4609375,-0.5173942204687687,0.8676191746408315
5.46484375,0.7750536819614363,0.3552204252414613
5.46875,-0.6984941814201614,-0.7036483282345334
5.47265625,-1.6464726871266402,0.47276679233992486
5.4765625,1.725929534323277,1.921031062532591
5.48046875,-0.8656758820198881,-0.81868736433914
5.484375,0.7399027611851547,0.5316425383626048
5.48828125,-0.19667611942444657,0.38476903191383355
5.4921875,0.38569785718542204,0.04154510923347954
5.49609375,-1.3851508485617414,0.21565784757255882
5.5,0.32565393333167597,0.9519773199180228
5.50390625,0.331172921541644,-1.697871755304115
5.5078125,0.8945090018114324,1.2195948783130686
5.51171875,0.5598565653814385,1.3189585905100725
5.515625,0.1074777738870464,0.11424177411376703
5.51953125,0.5613333310046879,0.039526048569804455
5.5234375,0.6274173785133939,0.8039585532644938
5.52734375,0.43855418822492037,-1.0926486823072292
5.53125,0.31550340005761585,-0.37812904051490026
5.53515625,-0.5603759575803615,0.4171865756808052
5.5390625,-0.18795264526264197,-0.1401858357712299
5.54296875,1.2900571139181105,-1.1342817752597356
5.546875,0.5749087037092545,-0.11580649525160525
5.55078125,-0.8245642016087665,-0.6861990492953133
5.5546875,-0.9994082912434739,1.713168254358431
5.55859375,2.176646293409365,0.5086584610931688
5.5625,1.148295639019646,-1.1491639602788808
5.56640625,1.4784475948268772,-1.4499480331450592
5.5703125,-0.3191040311971983,0.3716527707851352
5.57421875,-0.9255012185828493,0.3876168432351734
5.578125,-0.4580724295349698,-0.2475425395882122
5.58203125,-1.8385357605044457,0.3104858570564113
5.5859375,2.2067842153782293,0.484718982235659
5.58984375,1.732967224200663,0.3002527980457901
5.59375,-0.6363726249989592,0.5827507287984636
5.59765625,-0.3201437174080078,0.3163326174223494
5.6015625,0.6188343920688179,1.4567131988062156
5.60546875,-0.0010903964032200853,-0.9270406675320497
5.609375,0.7722642142149025,-2.558969927122329
5.61328125,0.8950369539178269,-0.047962864949089606
5.6171875,-1.23624839913314,0.7152637778910944
5.62109375,0.4796904314502711,-0.8528962580361521
5.625,-0.41212105140684874,-0.5614158174887746
5.62890625,-1.3000952596914366,0.2939759831271405
5.6328125,-1.5643200668835928,-0.28757659725225915
5.63671875,-0.02617833460873757,0.6633121630541192
5.640625,-0.7802019250069097,0.13081209140825012
5.64453125,-1.210342548340209,0.9748335230632544
5.6484375,0.7160327046069214,0.3184503555448082
5.65234375,0.06693472763087722,-0.5119583136719886
5.65625,-1.7537225890401125,0.4832966203943352
5.66015625,-0.4903499628113585,0.22352501005177058
5.6640625,-2.1616565436147828,0.7180164867270308
5.66796875,-1.9891986365424736,-0.9665266901215009
5.671875,-0.3835735625606906,-0.5387121908455216
5.67578125,-0.5698111619857951,0.41208799978962973
5.6796875,-0.7915329905492379,-0.7578600958111812
5.68359375,-0.4452199991514202,1.1401393834938278
5.6875,0.3334379168278526,-0.7649046688562285
5.69140625,-0.4255233225283664,0.4010797537131907
5.6953125,-2.9868408641587467,2.092240209927517
5.69921875,1.254968482982764,-0.6064982486803451
5.703125,-0.19816963341952162,-0.5545894897433707
5.70703125,0.8312363314525278,-0.5497370446399182
5.7109375,1.6774798922409397,0.49923455683039347
5.71484375,-0.5473103578986402,-0.8412686727592964
5.71875,-0.3238302063392159,1.0115300853706157
5.72265625,2.9301191159704656,0.00041174349687843066
5.7265625,-0.45732117517102555,-0.7421935246636291
5.73046875,-0.5432881750519539,0.3198143368519266
5.734375,0.9244860931347577,2.0490971591796145
5.73828125,0.8484849882665577,0.5965891204358135
5.7421875,-0.7903837039221608,1.233643245857794
5.74609375,-0.6740698454248909,-0.28168050143043966
5.75,-0.1380454772337515,-0.9123886416455482
5.75390625,-1.7736720969713875,-0.11479165668611568
5.7578125,-1.2663660299514083,0.4774894700646639
5.76171875,-0.630351666587631,-0.7188491624451905
5.765625,-1.067396321135,0.3612632235956124
5.76953125,1.268576217294939,0.6302723846028994
5.7734375,1.4194221648285255,1.46104200214662
5.77734375,0.33434935506179797,0.555965922538296
5.78125,1.4487232283268967,1.9464172048360837
5.78515625,1.7534282330684685,-1.1198614412278325
5.7890625,-0.7215437079775118,0.5041892694841038
5.79296875,-0.1093458493978388,-0.6704714803219585
5.796875,-0.8894683759557717,-0.6209784590486042
5.80078125,0.784083521795007,-0.4546571205500802
5.8046875,-0.3067462390020499,-0.3425986850400707
5.80859375,-1.4806558862781782,-0.09536842632414311
5.8125,0.4059914467888729,-1.3111267351742872
5.81640625,0.4008801048996165,-1.0913966335461462
5.8203125,-0.7020207473727098,-0.4880273293685091
5.82421875,-0.8828795054977993,1.4760958326505709
5.828125,-0.8595084833514383,0.5966185646450239
5.83203125,-0.784191591205909,-1.433462452871773
5.8359375,-0.5063123736032454,0.591093463373977
5.83984375,0.48096101934973956,1.1651093807096062
5.84375,0.0021655590094500523,-0.18417608828237525
5.84765625,1.2087991448825215,0.7825808345200544
5.8515625,0.612714820420368,-1.5837784154121668
5.85546875,-0.5934612451453958,-0.7548738093709864
5.859375,1.20107234221113,0.46588223277287216
5.86328125,-0.746549491353147,1.5794190590615018
5.8671875,-0.2817594207659281,2.7205165618224827
5.87109375,0.4894424579547386,0.4962645938651139
5.875,0.4957435445284933,-1.4044603514145355
5.87890625,-0.8080552021272898,-0.031924583915693604
5.8828125,-1.0879713759174185,0.9745418037162252
5.88671875,1.326640174966853,0.3223555388728488
5.890625,0.6725656052596185,1.3065520469444771
5.89453125,-0.089838714251606,-1.4844388595592155
5.8984375,-0.3283821942792455,-0.29059631637512
5.90234375,0.0018211446823801344,-0.13950540503724324
5.90625,-0.9671289947910027,-1.4450454532584645
5.91015625,-1.1468045030941993,0.3732311365142028
5.9140625,-0.17989634946213415,0.6455283064349459
5.91796875,-1.1541188205229598,1.6082426898504474
5.921875,-0.012154939123625249,0.3814082175263449
5.92578125,1.913766772861323,0.5458461229994914
5.9296875,-0.3812062913102427,1.207797566015064
5.93359375,-0.36626637785733585,1.3236744636340696
5.9375,-0.2288712662033336,-1.3294978337338041
5.94140625,-0.8142948912985467,0.35246562150546495
5.9453125,0.5423452929923686,-0.45276115496022945
5.94921875,1.0910219982402762,-0.036145582379833695
5.953125,0.046503408625006036,-1.261631356203691
5.95703125,1.0043252605480624,-1.695674132774383
5.9609375,1.4563554684300408,-1.69260221197783
5.96484375,1.5287497003111363,0.04986361570700738
5.96875,-0.6160873064381337,1.0997485154735007
5.97265625,-0.43266305779748515,0.6937054179452234
5.9765625,0.7154225702895529,-0.13344968095233606
5.98046875,-0.6993610325672176,0.40541167239879966
5.984375,0.3989008954646018,1.3167871957356958
5.98828125,0.45473991522516777,1.4341595496799504
5.9921875,-0.7469149812984636,-0.34049116892042386
5.99609375,0.7629310134845354,-0.5218413450340013
6.0,0.15154349017935323,-0.7528080902569231
6.00390625,-0.9148222173341423,0.3075205351327167
6.0078125,0.3541071713686477,1.1237488808475606
6.01171875,0.9325658502596835,0.6173388403973351
6.015625,-1.1045921512021022,-0.006992636447159773
6.01953125,0.5837175799780561,-0.8951213900017261
6.0234375,-0.35069234705066626,0.7871536256364595
6.02734375,-0.17956489541351373,-1.963824998841041
6.03125,-0.11887054503573886,0.46617135139931165
6.03515625,-0.007238204032761969,0.9079003242189934
6.0390625,-0.14812318216248727,-0.18562455486580842
6.04296875,-0.38881438783131744,-0.12836394853933994
6.046875,-0.08718792798663906,-1.065571549027264
6.05078125,0.28434838677012225,-0.3394846057569933
6.0546875,-1.3998795573881808,-0.6587833683045224
6.05859375,0.5753281103178056,-0.5700944118507036
6.0625,-0.5402667663323656,-0.5304716702199817
6.06640625,0.572949574652532,-0.021913238153667438
6.0703125,-1.2461403178195225,0.17023283997664562
6.07421875,0.875546015146089,-0.6989164833094466
6.078125,-1.4978179465691215,-0.7154759090486481
6.08203125,-1.1312418887843143,0.10337829819541514
6.0859375,-0.7660714172586297,-0.3184359672735832
6.08984375,-2.0266422526986303,0.8442485637007004
6.09375,0.01040004720758997,-0.943555384928595
6.09765625,-0.4576217979818166,-0.5226157899992249
6.1015625,0.14203867209881244,-1.4984522875160278
6.10546875,1.1439814751799893,-2.2203250275909725
6.109375,-0.5733077531130424,0.3493969447645847
6.11328125,1.3060718958899846,-0.8393983905857675
6.1171875,1.0509676489694477,-2.1048239575225027
6.12109375,-0.45368907074897336,1.2399440107166388
6.125,-0.8704858164826182,-0.20056141660643576
6.12890625,0.26457225103140347,-0.8399167377533451
6.1328125,1.1096921104652495,-0.005587192298717165
6.13671875,1.66819906534111,-0.9392614563208185
6.140625,-1.3442514445451212,0.2441521827837291
6.14453125,-0.6558429079023338,-0.21356572890124298
6.1484375,0.914296587957792,0.02977444567376998
6.15234375,0.7571998857530118,0.09688121856255756
6.15625,0.9969116115502281,0.13807643325296312
6.16015625,-0.2703799340948721,-0.13113632845491746
6.1640625,-0.3093603301665003,-1.658577223201777
6.16796875,-1.3747192348936608,0.2992563540166371
6.171875,0.4263535144823539,0.41639758075792094
6.17578125,1.6415344835777599,-1.3600244445189935
6.1796875,-0.6137549534560003,-0.6672049575766321
6.18359375,0.48208491540776394,0.2953696920332837
6.1875,0.9501338756878248,0.805800638207655
6.19140625,0.47175085629593116,0.14068718877949105
6.1953125,-0.7986666174956445,1.1429449032750802
6.19921875,0.026299385708907053,-0.974985772897385
6.203125,0.8843423790768162,-0.4381478517528908
6.20703125,0.06280062808044878,-0.3814495266753466
6.2109375,-0.8305125698660719,-1.1311088188008833
6.21484375,0.22888313603906885,1.328368845212694
6.21875,-0.18274110761092496,-1.5603290154645277
6.22265625,2.102840210068408,0.3750753833365347
6.2265625,0.3612317009933335,-0.7006438986894642
6.23046875,-1.5736906130010753,-0.13276727504719033
6.234375,-0.0718730945376924,-0.18432884831046192
6.23828125,-0.2152237854581418,1.5442965842021317
6.2421875,0.45468777570840563,-0.05759128385721421
6.24609375,0.6117038608877651,-0.23743249092876106
6.25,-0.6438028626747896,-0.7178276005395967
6.25390625,-1.0792922925747332,-0.008416262118741106
6.2578125,-0.46339282053115416,0.6164114389009344
6.26171875,0.15543643334931936,1.0423110429601234
6.265625,0.4058685869639635,-0.6274142919671618
6.26953125,-0.8481705789814089,-0.9882808252739961
6.2734375,-0.9207698132800185,-1.305213000158841
6.27734375,0.3328055757710751,-0.3302009305440304
6.28125,0.1715906748000349,-0.24800024935111697
6.28515625,0.3192767223978062,0.2236044353454133
6.2890625,-0.10234508901094089,-1.392329509368972
6.29296875,0.12732273497725163,-0.7986383733822087
6.296875,1.1151475362361503,0.9693265307886115
6.30078125,-0.3745825177097467,-1.1623673457195032
6.3046875,1.6184754287147982,0.45299987633385624
6.30859375,-0.0885370819772579,-0.6888945960591774
6.3125,0.199987507088259,-0.22715073708481454
6.31640625,0.6713347465920945,-0.19577698551466619
6.3203125,-0.9986014590423525,-1.7439095792205572
6.32421875,-1.7683103578993515,-1.6306723098594997
6.328125,-0.5966413318443005,-1.6148647896374924
6.33203125,-0.2961880488973527,-0.5282728036119818
6.3359375,-0.29564575222481004,-0.5701453097870202
6.33984375,1.0248116298250527,1.2468540715507093
6.34375,-0.057982085659314724,-0.2796870106790188
6.34765625,-0.02803722060969058,-0.6945270149454897
6.3515625,-1.0664506818883286,-0.11368306718395024
6.35546875,-3.0761652291782946,0.9947641865658363
6.359375,-2.6900163908663184,-0.5332793217637309
6.36328125,-0.644751076526071,-0.10828424079829128
6.3671875,-0.49976281178524873,-0.175718370643937
6.37109375,0.014090649291772455,0.5269383088675105
6.375,0.8423093677668545,0.01458386747188615
6.37890625,-1.5710970960922364,1.0653560867909833
6.3828125,1.0265220097502608,0.11951293306694152
6.38671875,0.06834701280044843,-0.16422350974264277
6.390625,-0.029619076985864634,-0.4949492826673774
6.39453125,0.5182535090060241,-0.7781115695351428
6.3984375,-1.5221699573724912,-2.0630937056429364
6.40234375,-0.18143769849197267,1.695371518687211
6.40625,0.7759953242758274,-0.0505413679616561
6.41015625,-1.2138868387521344,0.868465577903284
6.4140625,-0.5760118812823571,0.5312628799598883
6.41796875,-1.6118282372391208,-0.5967312038514802
6.421875,-1.2403424067493192,1.9048819391710365
6.42578125,-0.43139759982566844,0.5575393607821079
6.4296875,-0.5756070408982179,-0.03945911360201068
6.43359375,0.9762583408158638,-1.269375513257729
6.4375,-0.05197761303759488,-0.9661484305103356
6.44140625,-0.40204728583316074,0.162482021918838
6.4453125,-1.7362771524286422,-0.9013158163405626
6.44921875,1.5745187731282801,1.5671538907023757
6.453125,0.21129581377494738,-1.1234927878670549
6.45703125,-0.46419947194665495,1.0423337613290828
6.4609375,-0.9132613862973297,-1.8098679004467377
6.46484375,0.1157194879580685,-0.8421047133673504
6.46875,0.2674550156107289,0.8998310436383362
6.47265625,1.9397862859470525,-1.04969186788844
6.4765625,0.3298761046103448,1.5015740557631623
6.48046875,0.5343311060278615,0.41738761619466436
6.484375,-3.020104202765558,-0.6096322510868771
6.48828125,-0.9141972753685651,1.4282518392595314
6.4921875,0.5795856629424043,0.4359483634477034
6.49609375,-0.1892583859503068,-1.0893192078041771
6.5,-0.21015505047333455,-1.3478358728797646
6.50390625,0.7464447795595066,-0.3233055582846741
6.5078125,0.3531945942559711,1.0858225373501946
6.51171875,-0.5508560067383768,-0.20071815314348512
6.515625,0.5881513809620185,-0.017462746127404123
6.51953125,0.39368836515543026,0.49430298979564247
6.5234375,1.3791917681856756,-0.7684330422462993
6.52734375,2.0891871578364114,-0.7556842108498112
6.53125,-0.6764883522024602,0.7905079109004421
6.53515625,-0.6977993006308093,0.11736566756239479
6.5390625,1.0224985573714316,-0.9692732401307455
6.54296875,1.276456450412946,0.6361235034073112
6.546875,0.4160473644231396,-1.1288718863957374
6.55078125,0.9438282561562407,-0.09392305785943587
6.5546875,-0.2034891799784305,-0.6031898639624776
6.55859375,0.09539047535099371,-0.006057985024586952
6.5625,0.30030897788821015,-1.2199345223748115
6.56640625,-1.272696100166873,0.14393696849678936
6.5703125,-0.7858961535208545,0.8440379386671595
6.57421875,-1.5531858707672648,-0.08570499929253905
6.578125,0.6308029257684438,0.6641347526050169
6.58203125,0.615093534438084,-0.23941439358752964
6.5859375,-0.2649001875028122,1.9730176602709755
6.58984375,1.3182296433517158,-0.5493793204813991
6.59375,-0.03751383420686785,0.8508813739662756
6.59765625,0.7739933026348391,0.5182260190707374
6.6015625,-0.4214142107711365,0.9133766833333457
6.60546875,1.5485043827034621,-0.8171526672539526
6.609375,0.37519707155783494,0.20997764184398354
6.61328125,-0.39285567924792136,1.545507515574547
6.6171875,0.15607578131453606,0.5612516033820455
6.62109375,-0.9142188769108922,-1.6489951094677935
6.625,0.5199697670316527,0.09419135631825921
6.62890625,0.048137785398964454,0.5026910792299389
6.6328125,-0.2949075561176159,0.04536409466374576
6.63671875,0.6882856545063435,0.6714235716351856
6.640625,0.11611315518932674,-0.8101620887575466
6.64453125,1.1995977171844823,-0.5612796623618423
6.6484375,0.06958396244736899,1.34801479585536
6.65234375,-0.3499117389364981,1.5227300403629522
6.65625,0.10729241349665775,-0.48175959164953763
6.66015625,-0.03420953889153316,-0.067456191215873
6.6640625,-0.48254146339990633,0.44008650953246964
6.66796875,-0.4925647612283534,-0.6466624736409179
6.671875,-0.8267051924403991,0.16553004427490045
6.67578125,-0.9746935025490935,-0.1863346765045929
6.6796875,0.1916193522772975,0.6124241803602964
6.68359375,-0.91928175006016,2.585272753989129
6.6875,0.6731157733619806,-2.4494074991993298
6.69140625,-0.5725095843344279,0.5809830522301677
6.6953125,0.4956019395589085,-0.06315462859747534
6.69921875,0.29052140058788894,-0.035366252195441025
6.703125,1.8479827293353701,-0.30376817983572774
6.70703125,-0.15443506682318556,0.13049686038258432
6.7109375,-1.3940698684618689,-1.9427241111465186
6.71484375,0.9104719756778878,0.6138578893694067
6.71875,-1.0708298870654984,-0.28859191095038667
6.72265625,-1.2509222546506558,-0.41989236831839993
6.7265625,-1.91482188273559,0.8885162996700838
6.73046875,-1.66847858004541,-0.6114192084505606
6.734375,0.006472580089366921,1.1324864827450836
6.73828125,0.6741706566004535,-0.25990502904820106
6.7421875,-0.9773264884787184,-0.867358915291189
6.74609375,-0.45781310511959605,-1.455745760991161
6.75,-0.6506239825897101,0.9871265360947511
6.75390625,1.327339836960498,-0.32099823179134146
6.7578125,0.14754158116107133,-1.4616489279079756
6.76171875,1.0161824916505597,-1.1410725770453636
6.765625,0.16729226794594101,0.24488910327889374
6.76953125,-0.17923513690830062,-0.5546792534394395
6.7734375,-0.1113333957186044,0.15173298972701293
6.77734375,-1.0579557090212306,-0.4864533159570625
6.78125,0.04222622220040737,1.248911960543685
6.78515625,0.49623171585593767,-0.9019014414481468
6.7890625,-0.08619500576943363,-0.6374050016202343
6.79296875,1.4185964535320388,-0.9102334020387961
6.796875,-0.11718150551739702,-0.5390711264147448
6.80078125,1.3371783735775233,0.20001133958198006
6.8046875,0.3748587079829673,-0.9548921013670173
6.80859375,0.6822566621303527,-0.6294406880413624
6.8125,-1.1382606398938246,-0.8212837721029372
6.81640625,-0.5081606850555656,-0.6341016901169598
6.8203125,-0.9213475498366813,-0.655170268451182
6.82421875,0.8057024755564548,-1.4951744235501951
6.828125,0.47707051078890117,-2.20936787861596
6.83203125,-0.6563794860065028,1.30482395187402
6.8359375,-0.4025735529330729,1.8482197122193693
6.83984375,0.05382544101060136,-0.7177250463551316
6.84375,-1.890854266161279,-0.28329870684882213
6.84765625,-1.4811399935533163,0.8218977534363041
6.8515625,0.01664539092393392,-0.3222512078307173
6.85546875,1.1061683905843553,0.39968273223404155
6.859375,1.5735934223766241,0.35642415471092365
6.86328125,0.44258293795580433,-0.5635757354072437
6.8671875,0.25576121449192935,1.1010827494921578
6.87109375,0.5278986961602564,-0.7855738000989656
6.875,-0.22460754464931548,-0.26852004007618513
6.87890625,-0.33032988591114,-0.8165844072336557
6.8828125,0.3849569644222211,-1.4338978160099902
6.88671875,0.7105826996060113,-0.0748252995052104
6.890625,-0.32510753232852657,-2.0476934280416015
6.89453125,-0.7911611871375509,-0.850389744483551
6.8984375,1.1734509188013424,-0.9143828062193061
6.90234375,-0.4794957417189262,-0.39981237785117896
6.90625,-0.8985212133968115,-0.9023077144307677
6.91015625,0.20547850328810494,0.3628119165409884
6.9140625,0.3137941232377436,0.46112179957303084
6.91796875,0.5610032249061481,-0.1862583676384165
6.921875,0.4515812898908927,-0.038101640117685076
6.92578125,-0.1624207601432762,-0.06224937601592224
6.9296875,-0.8430734073498841,-0.09385158647509595
6.93359375,-0.014991164530065314,1.2375872432662733
6.9375,0.8908012815486598,1.7099789877155696
6.94140625,0.15542061902890927,0.026506978042113088
6.9453125,1.285389778658683,-0.15565670082749777
6.94921875,-0.6705356208661137,1.5460028799210637
6.953125,-0.00742039026483819,1.077582473545519
6.95703125,0.8124974146985191,0.1352750998524456
6.9609375,-0.12635288220720525,0.12835780363932855
6.96484375,-1.4712743627134781,0.333820539031752
6.96875,1.1384761657502174,1.1307792006071147
6.97265625,1.4752543346101925,0.4569198996549806
6.9765625,1.2314799532747616,-1.2881387689787378
6.98046875,-0.3807942826839002,-0.04302760628924054
6.984375,0.46617737029645995,0.7713012289493497
6.98828125,0.45666047308714747,0.665514521006476
6.9921875,-1.3049198605525214,-0.22182177538190068
6.99609375,2.1661316011207954,-1.9031874632663588
7.0,0.10401451016211895,0.8702233189021295
7.00390625,0.5109924807871709,-1.2719938944621012
7.0078125,-0.2756574361729154,-0.34743342805146826
7.01171875,0.7956967891740272,1.4278640296039218
7.015625,1.6602142586024666,0.3185662716975858
7.01953125,1.4829698197027477,-0.14120787927193904
7.0234375,-0.6779216287844546,-1.5005900729977377
7.02734375,-0.5398856938037987,0.5188960249423199
7.03125,-0.40691238481091774,-2.6749420464993188
7.03515625,-0.41729956973650284,1.6900147749842265
7.0390625,-0.2424537828766641,0.7461373346711435
7.04296875,0.3882578273116531,-1.8883582578034737
7.046875,0.05055902490694805,-0.10140007015140118
7.05078125,-2.3381929759642626,0.6916195404257885
7.0546875,-2.274873830615308,-1.285405502862932
7.05859375,-1.4223676127457008,-0.5144033035894956
7.0625,-0.22658227536118275,0.20419689435077418
7.06640625,0.33467436542828033,-0.5532066192046654
7.0703125,-0.5397891950752703,0.07250685557309305
7.07421875,-0.42530201754090147,-0.4518710323469054
7.078125,-2.0288181403046623,0.013522313405817053
7.08203125,1.1071715931885666,-0.9916569451119209
7.0859375,-0.21521250920422422,1.6195896951439532
7.08984375,0.764517702042438,0.3168654717504406
7.09375,-0.5861321151618566,-0.7875610831018348
7.09765625,-1.4921347596288186,0.9306288825497167
7.1015625,-1.1869042931090845,0.9077847355963912
7.10546875,0.5530807220946322,-0.5173114159642898
7.109375,0.3213921371174378,1.4829995282746442
7.11328125,0.18531237357042196,0.840745931619516
7.1171875,1.1067896241172004,-0.3943265178412589
7.12109375,-1.449621011827289,-0.7847297640000647
7.125,0.09644615746568169,-1.4690755757353577
7.12890625,1.002210761864204,-1.5591926263041238
7.1328125,2.35109482135839,1.8731513481599844
7.13671875,1.780615871628971,0.7205932108717789
7.140625,-0.8195761123478454,1.0244372876807346
7.14453125,0.9082998119172164,1.0782646921622487
7.1484375,0.15122877255707073,0.2665430614619474
7.15234375,-1.227813494342088,0.8902188590006028
7.15625,-0.2111165785299842,-0.005615920445306115
7.16015625,0.9452752546302765,0.5777920592143461
7.1640625,0.4092136463230248,1.1931653121144505
7.16796875,1.4611875354562025,-1.9129653187587987
7.171875,-0.19785555086948098,0.06926156330011748
7.17578125,-1.2293203583885854,0.9679114420988082
7.1796875,-0.5655647184138665,-4.121899654566709
7.18359375,-0.6634548196275224,2.367952917624595
7.1875,-0.4006804947214234,0.8708002753858985
7.19140625,0.7385913019501374,-0.7927326514306445
7.1953125,-0.7696709185143998,0.3299408929694766
7.19921875,0.8500593572945744,0.03649339832346722
7.203125,-1.7032100897379423,-0.16009933434415197
7.20703125,-0.28824907893707474,-0.9177712181073356
7.2109375,-0.05675658654679577,0.44692735113732307
7.21484375,-0.1338101499596143,-0.0886197583184674
7.21875,-2.5574794005373,-1.3390149634786472
7.22265625,-0.817893125558608,1.443309144209492
7.2265625,0.614342887941235,0.8272909530419288
7.23046875,1.6023630151678188,-1.034304222476428
7.234375,0.8681966870514156,-0.7747939402190519
7.23828125,1.5657447078336528,0.04505437284842221
7.2421875,-1.1450950145161054,-1.4485926148779362
7.24609375,0.6965045788135406,-1.32291562143498
7.25,-0.682130102539861,-1.4121958752653638
7.25390625,1.555201044095273,0.2920202601110799
7.2578125,-1.403892573426469,0.28337653789230416
7.26171875,0.5771579776133501,-0.6453046872864202
7.265625,0.18237892245228432,-0.5399897120884966
7.26953125,-1.9071105805698851,0.5536152351421619
7.2734375,0.15052174879674507,0.1697385457646204
7.27734375,0.8615198134251545,-0.40041665496481843
7.28125,0.5459946332372287,0.7618522362969341
7.28515625,2.1085782116057685,0.19870661439235915
7.2890625,1.1654855445465304,1.4780179344878086
7.29296875,-0.8410759276068593,1.6976651679179535
7.296875,-0.23722156408619655,1.0255860137328652
7.30078125,-1.730253402379666,-0.5079549844868664
7.3046875,-0.4542717536290947,0.15033593600033704
7.30859375,0.26524483809629923,0.01719737758672304
7.3125,1.520193759366271,0.2993871685111552
7.31640625,0.29247921737632226,0.49309671167680863
7.3203125,-1.3581530100277226,-0.07246930305621661
7.32421875,0.8701415346271649,-1.7653491499851368
7.328125,0.6486522376383388,0.010108330859496646
7.33203125,-2.420861222164198,0.6837296481915309
7.3359375,0.7069812558986995,0.07906675970857337
7.33984375,0.2988621716851995,0.8664303931519342
7.34375,0.4026445503725223,0.8367947752553027
7.34765625,-0.04814385533615839,-0.09716104483873629
7.3515625,0.06312924418971627,-0.13590690386105092
7.35546875,0.2081598599809719,-1.3972901101236377
7.359375,0.031236889153843386,0.24103905122471822
7.36328125,-0.48836169891075265,0.3998113196934161
7.3671875,-0.46849960093159654,-0.08188972963259632
7.37109375,0.9813106256189781,0.6972762369531043
7.375,-0.034140013519503305,1.045879349382312
7.37890625,1.5624033898686598,0.6884741585584265
7.3828125,-1.0141632533258458,0.6896400364280806
7.38671875,-0.3964097787048243,-2.247064026081157
7.390625,1.4051502821965776,-0.20432994930956708
7.39453125,-1.3348515767453737,-1.2166069224542075
7.3984375,-0.09650348070427503,0.3728156429367231
7.40234375,-1.1917271596460837,1.350198589953745
7.40625,0.9543602135846802,-0.6026220725167216
7.41015625,-0.3713303948372043,0.8917759821963331
7.4140625,-1.2726964428779466,0.005186292892867541
7.41796875,-1.0380778398264965,-0.012833794792571528
7.421875,-0.08326296983382711,-0.40718998314120025
7.42578125,-0.8779513928125801,-0.23712901663640054
7.4296875,1.8203757058438854,-1.2625829762321203
7.43359375,-2.7034099484727827,1.0499258697570428
7.4375,0.2944230323907713,2.153191669604102
7.44140625,1.4584091456293498,-0.5257239726607936
7.4453125,-0.7026310195562624,1.1632425087359999
7.44921875,0.9258110269634049,1.075420692626334
7.453125,1.4270800981876455,-1.2763345052601325
7.45703125,0.6094133120195435,-1.4492130794167548
7.4609375,0.27856334399879534,-0.9738087114206826
7.46484375,0.8474900202895843,1.6948355351241262
7.46875,-1.5616241419310295,0.41114496817737717
7.47265625,0.04754499202462992,-0.38860175583616774
7.4765625,-0.18181596675735437,-1.6694144520339098
7.48046875,-2.4130849382879824,-1.1733462911642178
7.484375,0.16106692439488682,-0.4963037374142386
7.48828125,-0.15759247612049446,0.8193927847801633
7.4921875,-0.12241391808316267,0.26819191846268936
7.49609375,-0.8467084600777042,-0.7652494665703572
7.5,0.4411428774576632,-1.1004907622540068
7.50390625,-0.917068452841659,1.0701598828699037
7.5078125,0.38594515272510077,-1.8102412129534207
7.51171875,1.0195639457817507,-0.5400861063391341
7.515625,0.757457442397652,0.671387070250324
7.51953125,-1.0201159772514243,-0.5730830119875909
7.5234375,-0.31115974732469937,0.42093185275369055
7.52734375,1.8487660973068827,0.6796033035185158
7.53125,0.3900854950363003,0.6443446006789968
7.53515625,-0.041390248164979986,-0.246904161221423
7.5390625,0.07875769697590068,-1.63475728149431
7.54296875,0.8927907094670527,-1.639861129484013
7.546875,0.07593346028183695,0.10266233918782049
7.55078125,0.25152665614444303,-0.15860622799120908
7.5546875,1.1010608104193427,0.978160350219354
7.55859375,0.5573515694628673,0.050744081659690896
7.5625,-1.3070090181192258,-2.2256576918325597
7.56640625,0.29908722151492634,-0.9759671058851912
7.5703125,-1.5196176433311999,2.6815086829747736
7.57421875,-0.9375381582066071,0.11076269410928966
7.578125,1.4754177493755234,0.2898104433557054
7.58203125,-2.437875516286234,0.5667437002517216
7.5859375,-0.6128728761374734,0.6536140796396227
7.58984375,0.5193785070641497,0.6818632764551051
7.59375,-1.0036192972022382,-1.065622289672254
7.59765625,-0.05057550731088953,0.38577679940357756
7.6015625,-0.6541735938985411,-0.273996813621
7.60546875,0.4582904492583966,0.1917910522765711
7.609375,-0.44626949420383133,-0.402965599346184
7.61328125,-0.5833872344483012,-1.8890433544491083
7.6171875,-1.8089975311258315,-0.45820664369655606
7.62109375,-0.26124989549177113,2.9824423949675354
7.625,-0.16428058498727935,0.9723784626467409
7.62890625,1.2513239095032924,3.0836520825911453
7.6328125,0.013628144949908908,-1.5768113847507135
7.63671875,0.2430444701454092,1.2767927487258226
7.640625,1.1528053559876457,-2.527573926098908
7.64453125,-0.7439055752065153,-1.5870788868965877
7.6484375,-0.32923484423800414,-0.6545174707406586
7.65234375,-1.0479569831450755,-0.8530999560811486
7.65625,2.8961772213478802,-0.8407108902296211
7.66015625,-1.8963799447310095,0.12052524721139098
7.6640625,-1.0045781095434403,-0.29881294458697155
7.66796875,0.09024845129241177,0.12466112705480985
7.671875,1.0610474893339705,-1.1137549401098
7.67578125,1.9365886678865176,-0.8251613280355797
7.6796875,-0.5441936681441111,-0.2848403853584522
7.68359375,0.4093394867588987,0.28123472540900113
7.6875,1.0991538172766173,0.46514341008376536
7.69140625,0.749471089704847,-0.004828796805204094
7.6953125,0.7288554952656247,-1.2747492699502379
7.69921875,2.402177920833159,-0.3137852601977332
7.703125,-0.23668129023039094,-0.3856220314553396
7.70703125,-1.220423410841192,-1.4590142563402644
7.7109375,1.4313516560526118,0.7923881459156064
7.71484375,1.0980784086580224,0.7468066394608229
7.71875,-0.3045810345123585,-0.7528828696908401
7.72265625,-0.9991493555102863,-0.8732667242982138
7.7265625,0.5233250338960918,-0.8060009316597325
7.73046875,-0.5159965846770272,0.3361876706291472
7.734375,2.1548731237355456,-0.022795297516343814
7.73828125,-0.10081595057990478,1.226122292625778
7.7421875,-1.4664055105004419,1.089745681434126
7.74609375,1.4564238083392549,-0.9555121304181798
7.75,0.48093526283093463,-0.3110837293664574
7.75390625,0.5732541120817063,-0.6408144594742666
7.7578125,-1.5992903116592447,0.49307095623141545
7.76171875,1.336529165465171,1.4484819658834565
7.765625,-2.3079843048188233,-1.672238174952089
7.76953125,0.5034169903283022,1.0946799453681386
7.7734375,-1.300297550970099,1.6383773381677864
7.77734375,-0.3181865192245498,0.4772454319940352
7.78125,0.9396181775478047,-0.5138838781502277
7.78515625,0.05919133460835907,-1.1436735352480467
7.7890625,-0.8500338215190559,2.1044200182182804
7.79296875,-0.24841291938846466,0.45937486304390357
7.796875,-0.6073064959450916,-0.02074132687799235
7.80078125,-0.31021804477917264,-0.42859346561873246
7.8046875,-1.3179143240103421,1.5911282582048902
7.80859375,0.32474541573141513,-0.7752590177962818
7.8125,1.6641234957629905,-0.7456250767598182
7.81640625,0.38916502727441493,0.5238018940671745
7.8203125,0.5954335231225646,-0.09638535854409486
7.82421875,-0.5538085654612172,-1.8744118963274898
7.828125,-0.20704925868124824,0.6221981919695178
7.83203125,0.15372017501012122,-0.5502282051330367
7.8359375,-0.12697199030163017,1.283645881526009
7.83984375,-0.2690550078349888,-0.5712100917415092
7.84375,-1.1883789722017764,-0.09613348076097394
7.84765625,-0.28745492561163255,-2.747346376564592
7.8515625,2.1811518370692093,1.633165120401028
7.85546875,1.303125360830887,0.43371355734484784
7.859375,-1.888574838822988,0.10005729963433194
7.86328125,-0.5271688604025471,-0.6709997537590133
7.8671875,1.9612109189271616,-1.2714904607258257
7.87109375,-1.0492079177696334,-1.1165347298246548
7.875,-1.0150978230461363,-1.7943948656701039
7.87890625,-0.3886005694600115,0.03150493479018949
7.8828125,0.1622376400252878,0.24999089232267668
7.88671875,-0.20802661782413776,1.4986634942210972
7.890625,0.3788363379892183,0.7578554569384158
7.89453125,-2.3819979638159126,2.1116154459227277
7.8984375,-0.5360981654102585,-0.557958816316854
7.90234375,-0.3704030548963697,1.4731913994579477
7.90625,-0.417162872544794,-1.0518675147435597
7.91015625,-2.141047816708114,-0.08172260778957645
7.9140625,-0.7425734582741479,1.7885453927734851
7.91796875,1.8898909360121745,0.5885953500923415
7.921875,-0.9620972796659348,-0.31076330137930974
7.92578125,0.3740732605587455,0.919033259150772
7.9296875,-1.2723860630093493,-0.06853816689731568
7.93359375,-0.8790243309154878,-1.8706150366097285
7.9375,-0.9886685200590107,-0.030444814614941997
7.94140625,0.590578226837417,-0.6678296742818915
7.9453125,2.443297436059968,-0.3051964847196591
7.94921875,0.8780247649492263,1.0792147865844468
7.953125,0.17421825552968692,-2.236538810604237
7.95703125,-0.9853349563000181,-0.0018294572855629375
7.9609375,0.3305149572538144,0.3353156668901177
7.96484375,1.4014511244102539,2.3329518971376406
7.96875,1.156939856426011,-0.5297367495044188
7.97265625,-2.7937107060171398,0.7014038063776368
7.9765625,-0.6003590507398622,-1.3915422718773662
7.98046875,1.6269947559967537,-0.41100479369356724
7.984375,1.3189080636601542,0.012613080619802847
7.98828125,2.059659838011533,-0.9695236370360659
7.9921875,-0.6627484805255105,0.7911288434686778
7.99609375,-2.169599638650563,-0.8892489157248192
8.0,-0.8388985988173452,-0.26123170075073937
8.00390625,-0.7073041963542605,-1.1177345263239997
8.0078125,-2.816081490891968,0.575800614266788
8.01171875,-0.2221030791826166,1.838018287353239
8.015625,-0.9276969176025748,0.9791554201576124
8.01953125,-0.07502014661130699,0.9808643590949154
8.0234375,0.03373578729080206,1.0569433782156596
8.02734375,-1.8944416370376498,-0.08991758461452193
8.03125,0.41472793215729353,0.9470563271662022
8.03515625,0.48883842863311977,0.8350014091986152
8.0390625,-1.6630154025038695,0.0254231843371985
8.04296875,0.22321259796423176,1.3383422372690774
8.046875,0.6169027918444427,0.5562696491274842
8.05078125,-0.4787742459241571,0.5366147753054155
8.0546875,1.1712512506165076,-0.19775915367499544
8.05859375,0.3152857890611132,-1.6879798840661056
8.0625,0.5226191452176276,0.8342430895090787
8.06640625,0.4772192431875837,0.4640026458559877
8.0703125,-1.034813782319236,-0.5717974818570624
8.07421875,-0.20765758718270447,-0.8522999683672533
8.078125,0.6980734919418593,0.7775405823844718
8.08203125,1.187111451563311,-1.8443108990356663
8.0859375,-1.8555019814106366,1.1195404514570038
8.08984375,1.5286261718504035,1.4962247827927053
8.09375,-2.2930903409379595,-0.14201176297775894
8.09765625,-0.6111781959039703,0.39820664655775073
8.1015625,-0.35985724944584285,0.04736351877994017
8.10546875,-0.19752503863848606,-0.639267483289376
8.109375,0.8242327451810293,-1.0210520479463545
8.11328125,1.0142686140257304,0.5313511537067438
8.1171875,-1.3619884191286755,-0.035406732180804285
8.12109375,-1.742979395227084,0.2605945934774018
8.125,1.4728320418266587,-0.8451612840418031
8.12890625,0.07555604713307022,0.4461132687722588
8.1328125,0.6465082650778301,-0.7703010529760964
8.13671875,-1.3430344761911035,0.27324665033240353
8.140625,0.35797935649380547,-1.0164833026419617
8.14453125,1.6336283094364923,1.4236064468982468
8.1484375,0.671958301465344,-1.21336715438493
8.15234375,0.5426262177062632,-0.13257796920777415
8.15625,0.4814411883276372,-0.9663468058139265
8.16015625,1.1345732668104624,0.5077054121591937
8.1640625,0.27884982762959476,1.8156390594428644
8.16796875,0.4421424495558313,-1.1518807251736385
8.171875,0.7708302945893102,0.6041912663488738
8.17578125,-1.9823763102851588,-0.24024586604923354
8.1796875,0.27332950757605157,-0.22696712820075537
8.18359375,1.7991049180406475,-0.764553023914708
8.1875,1.2838858952217187,0.366897342525186
8.19140625,1.8010799257505032,0.613026650645423
8.1953125,-2.0828394807469657,-1.4005648343129908
8.19921875,-1.8790648963055698,1.2510701992272688
8.203125,-0.32545612314784483,0.38623542612684303
8.20703125,-0.059250313011823055,0.6570843997560208
8.2109375,1.1819005292100386,1.3841295680618917
8.21484375,1.8721987683837447,-1.5087393550956443
8.21875,-0.7436276630504547,-1.8174861438866903
8.22265625,0.934060068247734,-0.16881122585167904
8.2265625,1.1404475747959673,0.42504091559313
8.23046875,0.29797090730917036,1.1887115985536023
8.234375,0.8751522130040241,0.6815787454739892
8.23828125,0.1217779876788049,1.5385124252275824
8.2421875,-0.6208083448373314,0.3234853024889972
8.24609375,1.2919293480053404,0.9599718116276358
8.25,0.1960208184454373,-1.9816806946001204
8.25390625,-0.7287800423511643,0.5706241825338847
8.2578125,-0.22010900225215796,-0.5207583035211972
8.26171875,-2.2824247193960434,1.928100915117953
8.265625,0.8258653506092002,1.029979442117191
8.26953125,-0.3287636225047934,-1.6210531338863072
8.2734375,0.7786064888166984,-1.1211658551859007
8.27734375,-1.1482763861747802,0.3758709413695983
8.28125,-0.08828858648259771,0.44888638637802525
8.28515625,-0.8640080393617141,1.5019331197138182
8.2890625,0.34210039393526387,0.5866592552866909
8.29296875,0.3478482904539904,0.4551231891251893
8.296875,-0.6662393555710309,-0.4380963673308384
8.30078125,1.6103818015734161,1.6320287978244845
8.3046875,1.0572922473904935,-1.2724058172925865
8.30859375,2.021205470851085,0.7776850932669148
8.3125,-0.8427533481121297,-0.0016889256849342397
8.31640625,1.1037123681036478,1.1250891494240531
8.3203125,-0.779696040843723,-0.6126585395649512
8.32421875,1.1702717649601495,-1.6314862812772304
8.328125,1.7183086310392977,-0.8716246724637587
8.33203125,-0.1846236802139366,-0.9603074805984995
8.3359375,0.905043454253075,0.2212531567229195
8.33984375,0.09886531759755657,-1.4720399669326691
8.34375,-0.7595993682795464,2.3004961633406675
8.34765625,0.6730726881217101,0.10677681942468012
8.3515625,-1.8784401175803997,0.06371302476166985
8.35546875,-0.511220260092353,0.0224097553630406
8.359375,0.19993032490413212,0.30839879939931886
8.36328125,0.11365185668469066,1.253350310412887
8.3671875,-0.7549215888852725,1.1430508206741545
8.37109375,-0.4925269641846275,0.5653012733420051
8.375,0.44733029310312966,0.36726581497342997
8.37890625,1.1160148268624197,0.24114804814656737
8.3828125,0.5395844673982642,-0.6681736505984912
8.38671875,1.8788293976766341,-0.3243315258951631
8.390625,-0.34986565853138557,-0.3203276068309907
8.39453125,-0.8137362358628977,0.5339537345108708
8.3984375,0.7903841658767177,1.0802045194767413
8.40234375,0.4939457798153239,-0.10169892634962513
8.40625,-2.7854706724465124,-2.0810466547974973
8.41015625,-0.8421774868112856,0.3480392976319293
8.4140625,-0.4546284172567761,-0.23135757356429684
8.41796875,-2.559602179493082,1.7713787672158585
8.421875,-2.0451081330695597,-1.4468768133712324
8.42578125,0.21200899197378645,-1.3472507642729639
8.4296875,-0.6766816503764312,-0.1624701136245596
8.43359375,-0.05510604373416503,0.6269182765488892
8.4375,0.7935469925865285,-1.505425846570123
8.44140625,-1.6176334182857108,-1.0579940564900894
8.4453125,1.6963232231591583,0.5344694365651383
8.44921875,0.8003074900932385,-0.1056384821226329
8.453125,-1.056393202181477,-0.7922729178396314
8.45703125,-1.3283931929110262,0.9663320799299736
8.4609375,0.5867813165264305,-1.2531854750771418
8.46484375,-0.4927944909742026,1.0129579768929895
8.46875,0.25569943380449356,0.16395809110627207
8.47265625,-0.5669704626469608,0.7722062751732336
8.4765625,-0.7255842979064401,0.522530191643264
8.48046875,-0.34849992838020055,0.7241328414477818
8.484375,0.5726418836994807,-0.15166203774777992
8.48828125,0.5389322372257265,1.4877253156698371
8.4921875,2.1726917824786627,0.26734712380749387
8.49609375,-1.0876774516135317,-1.391285009042915
8.5,-0.0058656980010712715,-0.16407162498264344
8.50390625,-0.786047906785622,1.46204115717274
8.5078125,2.1060396380755035,-1.1389542966799036
8.51171875,2.0487448856306427,-0.5888937237965334
8.515625,-1.293365817713761,0.5720441614506186
8.51953125,0.7734108804164604,0.5966915157453105
8.5234375,0.7347800222626024,0.4460485178904843
8.52734375,-0.9011643069545697,-0.2595445597871145
8.53125,0.2536681040019607,-0.35162761560193867
8.53515625,0.18285633582972163,-0.27796673994020443
8.5390625,1.1762458459909404,-1.5152061691505578
8.54296875,-1.490206749362124,1.2553055801230006
8.546875,0.1098335912177225,0.10795080835549146
8.55078125,1.6164804748173265,1.4486229228928569
8.5546875,-0.7642332495946986,-1.6785998081011384
8.55859375,0.9872174894205673,1.0557787913280128
8.5625,0.6800584431155443,-1.4803894037057168
8.56640625,-0.09432821346986123,0.5309249786177627
8.5703125,0.5720128398497452,1.297115049346713
8.57421875,0.25435441820094146,-0.9468448432368655
8.578125,2.026841672212559,0.5465605160756076
8.58203125,0.5411418625443306,0.22468437053731766
8.5859375,0.41587483338212505,-1.0164806242216156
8.58984375,-1.4624777624984202,-1.2771772612543921
8.59375,-0.27808221202890304,0.06016217451313228
8.59765625,1.3382836864661438,-1.2495127093069154
8.6015625,-0.5985882473744788,-0.37541587254956676
8.60546875,-1.0193873196885028,0.045088892357108244
8.609375,-0.02453840545185286,0.013991980896565283
8.61328125,0.764806609976129,-1.1583364533410907
8.6171875,1.1884584041230815,0.7883672931483434
8.62109375,0.5020375727936325,-2.790860184616743
8.625,2.1874745213480287,-0.2764921261975516
8.62890625,-0.6633669833644317,-0.828927402144951
8.6328125,-0.7318274163207882,0.34389689532306417
8.63671875,0.4566059754927905,-0.544248788682541
8.640625,-0.11862860334514742,-1.418823849395952
8.64453125,0.240800951763467,-1.1935478555831553
8.6484375,-0.8702649566288354,1.469883580013929
8.65234375,-0.3401801581407221,1.4342698850739952
8.65625,-0.12751124896723048,-0.40918831685189566
8.66015625,-0.30514312983983927,-0.5074165711418784
8.6640625,0.46123815161759885,-0.573177666763289
8.66796875,2.1121581996493575,0.052778732987910706
8.671875,0.12821834490612052,-0.9176604854910432
8.67578125,0.25110259061936935,0.5390100549695447
8.6796875,-0.18103051692629787,-1.2735455821958819
8.68359375,0.8400848073915601,-0.1805624981335151
8.6875,1.3488426136416745,0.12508907740618513
8.69140625,1.1779168829109203,-0.8212836889189156
8.6953125,0.4655724933976883,-0.9508707311811019
8.69921875,0.10058076012418526,-0.12386163658125703
8.703125,1.0078609866000883,0.05932148711844072
8.70703125,-0.2548478021475466,-0.5446240821501009
8.7109375,0.7308832751477963,1.6341898066306288
8.71484375,1.2263774210643719,-0.13839938976699173
8.71875,-0.25003254664869157,0.5637868330590929
8.72265625,-0.8670730833741157,1.3343893190647798
8.7265625,0.43371207770403924,-1.58723248283488
8.73046875,1.38722357395524,0.7406695691604112
8.734375,-0.5546102123431434,-0.13933119857185075
8.73828125,1.1065600702432803,-0.5414146392505959
8.7421875,0.44050490154943966,-1.2556252363867615
8.74609375,-0.32275887844232476,0.43112843249381294
8.75,2.558704567367819,0.12300356696579161
8.75390625,0.875033795429636,-1.084134039292785
8.7578125,-2.018856169274622,0.9150386428289639
8.76171875,0.3215700837947229,0.905317144139705
8.765625,0.8423721257156133,0.35661640361576513
8.76953125,0.9961125099758404,-2.463083667100237
8.7734375,-0.18385946786841534,-0.5125588923651349
8.77734375,-0.511573072775959,1.6840004618626818
8.78125,0.3859847373872404,-0.15918723915850927
8.78515625,-0.09570193608308898,-0.6455341553679237
8.7890625,-0.03069640309340272,0.9147784202151653
8.79296875,0.5479909619089418,0.5714655560064609
8.796875,0.5049332392905964,0.5007910312759037
8.80078125,-0.051356568647340464,-1.8278403680355044
8.8046875,-1.048267676935552,0.20244716558028586
8.80859375,0.8236900605001328,0.45277512446397017
8.8125,0.8821957256801739,0.4504274817434555
8.81640625,-0.18805403895982784,2.2129776947437962
8.8203125,-0.14785763529792592,-0.08559686822832392
8.82421875,-0.7040294583615174,-1.1159598897990404
8.828125,1.0105987819804174,-1.7075625723346446
8.83203125,-0.4562220943070397,-1.4709604257468676
8.8359375,-1.700080615272495,-0.44400301450930346
8.83984375,-0.43144633456525466,-1.8762930544548042
8.84375,1.4588746063090876,0.9937859338487319
8.84765625,1.4981552398276388,-1.3856433443223175
8.8515625,-0.552951254119137,1.258312602704803
8.85546875,0.21904643568591586,0.35264663766148807
8.859375,0.2810193883863955,0.5817073055253368
8.86328125,1.5828034295773545,-0.25138736631840736
8.8671875,1.588415075537569,1.1479915964131007
8.87109375,-0.9316542991569214,-0.7446831227158396
8.875,0.5517767674229349,0.21324186391697902
8.87890625,-0.3615807030757066,-0.9096592646134808
8.8828125,-1.3936038930614651,0.4643298605203239
8.88671875,0.08277130299689103,-0.2328221447993574
8.890625,-0.7552580324011445,-0.09174607145047385
8.89453125,-0.4208864435963476,2.3687849396228935
8.8984375,0.2113314968398375,0.15933563368323228
8.90234375,-0.14478920296042588,0.2511091435188587
8.90625,0.07332410036714564,0.8300924246352307
8.91015625,-1.6487195324900203,-2.015948811462344
8.9140625,0.07061169093712011,-0.24602076602682146
8.91796875,-0.6146733259384234,0.13899300724133415
8.921875,-1.1326790131034923,1.153323596758632
8.92578125,-1.0147792976465286,0.11474512614366411
8.9296875,-1.4786476877790282,-0.30361664208040007
8.93359375,-0.7080961104081515,1.4997671400014283
8.9375,0.9207110795329783,0.6963364897686066
8.94140625,2.0306028147423096,-0.09571414485422097
8.9453125,-0.5694707381446621,-0.5058917702757589
8.94921875,-0.9154683647912406,0.04692125279677883
8.953125,0.5857309862295822,0.23511083202387253
8.95703125,1.2438282861461727,0.42026989983865903
8.9609375,0.691533891354073,1.9715352931875634
8.96484375,0.4375599643468843,-1.149397419115988
8.96875,-0.5189763110401632,0.07517266608730154
8.97265625,0.5311383010842717,1.5247863220177875
8.9765625,-0.45020117198966936,0.41749229652811465
8.98046875,1.4189458093508525,-0.4958211210020208
8.984375,1.5298181847690666,1.8098857868666427
8.98828125,-0.7589417639096104,0.9192348532143977
8.9921875,0.3111288838964397,-0.5045744906154092
8.99609375,0.4938778994779678,1.2962126004908125
9.0,-0.38941658913912497,-0.840296354316667
9.00390625,-0.23089515644095165,-0.4637089560134283
9.0078125,0.05920631763899504,-0.8834629111029616
9.01171875,-1.0464734674654481,1.248876582027462
9.015625,1.0404720311168718,-0.9452596213617009
9.01953125,-1.7187090349366925,-1.3361473004979119
9.0234375,-1.9528040695218345,0.739815451722164
9.02734375,-0.08929709769278227,0.3252627450061732
9.03125,-0.6350956928592933,0.4049117527875956
9.03515625,-0.8361788681681207,-0.37256110586221536
9.0390625,-1.0872504996692358,0.12588826082489044
9.04296875,0.09234261795798653,-0.7800687197198807
9.046875,1.0462532832743159,0.6467273144829359
9.05078125,0.8367992311800273,-1.9412284632965282
9.0546875,0.28868110170029954,-0.5585166226094829
9.05859375,1.1348485393972305,1.3054067321175635
9.0625,0.6997739491603339,-0.34522344510723724
9.06640625,-0.9969112126544525,-0.8317839228320135
9.0703125,0.9686944981639479,-0.11988070807949028
9.07421875,-1.1021257842970689,-1.636007828483119
9.078125,-0.3056634068227486,0.8649423993669505
9.08203125,-0.8511817304229853,-0.8229443367763059
9.0859375,-0.35642121549776845,-0.11100935390572275
9.08984375,-1.0319045392778206,-0.9276133332849371
9.09375,0.25459662799834304,0.7155693325667614
9.09765625,0.35415711698924096,-0.9968254914540703
9.1015625,0.8014445700860798,2.7111167359445685
9.10546875,-0.4121761732303538,-0.7964678382649956
9.109375,-0.7423150197012789,-0.512867401636032
9.11328125,-1.3321605028856562,0.5063894110517398
9.1171875,-1.5722628305898783,0.3441090213242162
9.12109375,-0.9989151820252826,1.4001319659365399
9.125,0.6478248000832948,0.9839566070099313
9.12890625,-0.15834240818760356,-0.6167314516759146
9.1328125,0.22717276999933964,0.9818604252492354
9.13671875,-0.7588986765300806,0.27751636850885936
9.140625,-0.8591798218369315,-0.530013847657049
9.14453125,-0.3715682770703541,-1.4838677840235854
9.1484375,-0.37257255452709187,1.1124104593231463
9.15234375,1.2726074606862319,-2.039243004393999
9.15625,-2.023647804473146,0.10786057007941964
9.16015625,0.7965182886597585,0.4837235823869532
9.1640625,1.7533274852712124,1.517832437543976
9.16796875,0.8180467187969548,-1.9704199154624313
9.171875,0.957154515438011,0.37029770465277356
9.17578125,2.0440957023464215,0.21896169131488205
9.1796875,0.7353100211962276,0.49670578120664827
9.18359375,0.19447192427794852,-2.0283698486262067
9.1875,0.6588812908102553,-0.5873018076600661
9.19140625,1.1194114359281462,0.7040017722810737
9.1953125,-0.5424333173957094,-1.0122410987827963
9.19921875,1.8054304600899287,-0.38604887891813755
9.203125,-1.334115685470924,-0.586655176114268
9.20703125,-0.7992161793760404,-1.291662796331499
9.2109375,1.3474590091066618,2.134267574032733
9.21484375,-0.556521709358855,0.7989751991506754
9.21875,1.0031999496904815,-0.39591651482347473
9.22265625,0.7538567687797553,1.6689443274173104
9.2265625,1.6477613293600053,-0.7926636295844656
9.23046875,-1.2564250794741272,-1.5906088101066376
9.234375,-2.1613001569127883,0.6911505605573601
9.23828125,0.16822413587338597,0.4992345833922656
9.2421875,-1.6202662457749102,0.5316194934952913
9.24609375,0.16897843552494526,-0.23775704966204197
9.25,-0.6975186932935006,1.1249433270658797
9.25390625,-0.7718251897145272,-0.9235487125146712
9.2578125,-0.20350994455753083,-0.973253607380085
9.26171875,2.1434066451755753,-0.28810602754524134
9.265625,0.12382970956258384,-0.24918175121757527
9.26953125,-0.4733372182098129,0.8623150417815834
9.2734375,0.447824927030599,-1.4055015154598314
9.27734375,2.2913312137393755,-0.8904384110355009
9.28125,-2.634602048930062,0.5969652474185337
9.28515625,-0.8562085816250294,0.39301733531910266
9.2890625,-0.842614933152662,2.921045137603923
9.29296875,0.3745780032185211,1.4541475353926296
9.296875,0.034318857130397444,-0.04231697692814302
9.30078125,2.187075240263411,1.641764052126771
9.3046875,1.7071479154567455,0.514093041252637
9.30859375,0.4938187975779585,2.4033901423695676
9.3125,0.5468283372427106,-0.5149391115370028
9.31640625,0.8903275688098539,-0.42639325062702077
9.3203125,-0.8965045606644736,-1.462113079927196
9.32421875,-1.5000465721555512,1.7762461350299008
9.328125,2.095245274098082,0.8399716614425672
9.33203125,0.07912426829824731,-0.2329666759295498
9.3359375,-1.9732224923548667,-0.7146404827943821
9.33984375,0.04038134754404203,0.976694268232461
9.34375,-0.4212695690978057,0.2600347906554036
9.34765625,0.34716561166921256,-0.16732738550111428
9.3515625,-1.4217793663178901,0.45398745097253357
9.35546875,-1.0572070671869036,-0.5739579602442787
9.359375,-0.1192327249183113,0.2767538291977019
9.36328125,0.22811613345556425,-0.23282631514929453
9.3671875,-1.161931800997063,-0.8202252147019959
9.37109375,0.04303962064454625,1.0370876886234934
9.375,0.35348253949553715,0.8985106874637131
9.37890625,0.9079617748083214,-0.07239266709516967
9.3828125,1.0867298009360271,1.4544356595222603
9.38671875,1.6887157331379195,0.6070900900935389
9.390625,0.7267788964417156,-1.519595783796706
9.39453125,0.8904605013273427,0.23935891428768297
9.3984375,-0.5621146846057117,2.22369161314472
9.40234375,0.0009728051487076245,1.5580941470247327
9.40625,0.9472013660726036,1.4912654680029347
9.41015625,-1.2335778918907851,1.2241313003413063
9.4140625,-0.18670278826856151,-1.4460839647956572
9.41796875,-0.20266081836213864,0.3798643010955354
9.421875,0.08976361475302048,-0.35900183861707236
9.42578125,1.4365553797502502,-0.9682687245617475
9.4296875,0.7142836020035123,1.4070944707849402
9.43359375,1.361280110593731,0.8659177239243506
9.4375,0.7641240032555422,-0.23091921461164974
9.44140625,0.6591603909780821,0.04462138271354124
9.4453125,-0.8906276056649736,3.2308306379698353
9.44921875,-2.7072663042160823,0.6436954737976693
9.453125,-1.077616755057492,-0.9208399680760379
9.45703125,-0.47689947819176165,-0.5337730764696161
9.4609375,-1.4335707427432185,1.4114360583804015
9.46484375,-0.7318125045510334,-0.2439936758480902
9.46875,-0.16558475369869652,-1.560771233903507
9.47265625,0.3853267901594468,-1.548386603204728
9.4765625,1.560320859839361,-1.3876297314265882
9.48046875,-0.5531407968241095,0.880538213769826
9.484375,-1.0137306245705653,-0.7207001313656148
9.48828125,1.302803143169945,-0.354680088581652
9.4921875,0.683855723907127,0.4712345049663641
9.49609375,0.8556562561348338,-0.5021021548838563
9.5,0.38228443093272296,1.564891103955999
9.50390625,-0.5250978322061308,-0.9345336579211602
