time,ecg,ppg
0.0,0.7673898312054998,-1.5390014927313114
0.00390625,-0.766817824641431,-0.4146143334883517
0.0078125,0.212811068819877,-1.2900183432710586
0.01171875,1.7011540487371661,-0.2678549126170613
0.015625,0.6008836884417228,1.339691410945574
0.01953125,-1.155882060294185,0.5220450770103848
0.0234375,0.5313940302577128,0.44911732792623194
0.02734375,0.5987743248523714,-0.22773060652119084
0.03125,0.45109508573460705,0.7684271566051784
0.03515625,0.11904627183867691,-0.6424517817380601
0.0390625,0.16444110426071087,-0.7129563214615411
0.04296875,0.023641158266319417,1.4042957051535672
0.046875,0.8810438903277418,1.085389151203628
0.05078125,1.0890808667076284,1.2948602564171503
0.0546875,-0.38959297262342096,0.501117877314581
0.05859375,0.14938157664711177,2.1623477197773964
0.0625,-0.46334858382377964,0.1547904267609815
0.06640625,-1.4141047364171089,-1.0389017498163087
0.0703125,0.31691814309203487,-0.6778612534753554
0.07421875,-0.3778572242720352,0.7873836976999511
0.078125,0.8532566913150765,-2.0854737775521652
0.08203125,-0.5445726556576902,1.1317848784690752
0.0859375,-0.9375150964667447,0.11391510747414228
0.08984375,-1.0942239348269018,-1.4355325202023663
0.09375,1.9939313968027492,-0.28571994028053416
0.09765625,-0.4285661479434988,0.11194422283249691
0.1015625,0.8834373878666406,1.3356209305714917
0.10546875,0.7783874609005677,-2.0068135957634934
0.109375,0.9282963781495429,-0.6641944923579943
0.11328125,-0.18247375964577603,-0.6004943463597795
0.1171875,0.2698909007848199,-0.32350522283594374
0.12109375,0.27753073631220365,-0.07054319503238039
0.125,0.35818444610820804,0.5982592263645815
0.12890625,-1.2023555797263863,0.08894673438793646
0.1328125,1.7436569808815312,0.5601503611732679
0.13671875,-2.4497696297884977,0.2662248155920082
0.140625,-0.5499650960919015,-0.9047121279361612
0.14453125,-0.050002456602682065,0.26120919602519926
0.1484375,-0.48705750226635414,2.07414295470465
0.15234375,-0.31713823543718356,-1.0744113085526632
0.15625,2.5125828547850078,0.5375478463335135
0.16015625,1.2240532880554844,-0.7752332335599669
0.1640625,0.5760143364391104,-0.5280629474837121
0.16796875,0.18739584786542257,-0.2042898220612808
0.171875,0.25425439973267777,0.931853900140135
0.17578125,0.6233306100798829,-0.9501755054924609
0.1796875,-0.27222380292597886,-0.18160972559806
0.18359375,-2.0622120654514164,-0.7181796949813201
0.1875,0.22629622632175578,-0.31167863137358737
0.19140625,-0.6901212723517934,0.6632044479339182
0.1953125,1.231171294413706,-0.08753208330916365
0.19921875,-0.7716434862124816,0.2512156285510249
0.203125,-0.8966866811249001,-0.6367248560462154
0.20703125,0.3789809546041687,0.2509988700045801
0.2109375,0.15545466063696461,-1.2153475854010196
0.21484375,-0.5252229406165322,1.2336950503629296
0.21875,-0.42260397412026546,0.7814228394415644
0.22265625,-0.10655382545316161,-1.7977959481487846
0.2265625,1.1875451188714814,0.41699986608773104
0.23046875,0.21760037988578088,0.5756399011117768
0.234375,-0.8624734914416049,0.04097575002352935
0.23828125,1.2870838079858327,-0.20395783815615906
0.2421875,-0.8089180193630879,-1.057857239751509
0.24609375,-1.9557298360222504,1.0949143791131415
0.25,-0.37140992303393167,-1.021575898740372
0.25390625,0.34302770763906276,-0.3159615832487794
0.2578125,-1.1586776162964882,-0.6981788562514692
0.26171875,1.25341452619498,-0.24556702091396718
0.265625,-0.7569808283654441,-1.48799124133703
0.26953125,-0.03566032493516206,0.034808874288486044
0.2734375,0.7960318294911956,0.3896783212235067
0.27734375,0.5121320430857764,0.4245329671607247
0.28125,0.5689880148117066,-1.9616300686650616
0.28515625,-0.4995416369570424,0.17094136378286723
0.2890625,-0.6058904779444925,0.8809529524189074
0.29296875,-0.9646444909685316,0.5405953605235123
0.296875,-0.01770830460025934,0.12955383198856416
0.30078125,-0.3233895672992694,-1.4751899527455141
0.3046875,-2.307740283355985,0.652537184052691
0.30859375,-0.19947721611607314,-0.7931184742966008
0.3125,-0.24260609332141583,0.7978763048307517
0.31640625,0.06367579632402535,-1.0404297181384106
0.3203125,-2.0632730040279292,0.8804541590559022
0.32421875,1.1363711605121045,2.9267916933805327
0.328125,-1.4473028349375978,-0.40138440533697317
0.33203125,0.3810602510156309,-0.18867537037007145
0.3359375,1.4419705262470373,-1.0931903560171152
0.33984375,-0.2864430126705632,1.304332362237073
0.34375,-0.16322485591930821,-0.6599557602811255
0.34765625,-0.09659535756456128,0.028702026242977192
0.3515625,-2.054568853587551,-2.03105629580536
0.35546875,-0.9701409521557454,0.8899260148853267
0.359375,-1.6172454711964712,1.200230204673633
0.36328125,-0.4540802156916606,0.5062989266706452
0.3671875,0.329924636720416,-0.37453476021222004
0.37109375,-1.2410176600566387,0.6044032232488242
0.375,-0.41872464637389106,-0.8782084912636992
0.37890625,-0.6755523932782554,-0.69177853358523
0.3828125,-0.5792679952014996,-1.0560519950207197
0.38671875,0.6144018111829689,1.2538130534760892
0.390625,-2.1463126935158567,-0.8329010622765446
0.39453125,-1.140480867415541,0.04915263711687568
0.3984375,-1.7715350496964208,0.08471747137559356
0.40234375,0.12648209349853773,0.5101249346469403
0.40625,-1.4304037855743545,0.4715944389686215
0.41015625,1.3251181427268484,-1.9387220872083524
0.4140625,-0.42614089002942274,0.13653180728117803
0.41796875,1.1985063327334045,0.051193991710458055
0.421875,0.6425428080477055,-0.8435689245209619
0.42578125,-0.1817225408507728,-0.09405360771997613
0.4296875,1.429494916655059,-2.7242044550150246
0.43359375,1.0665361427401971,-1.0056805366508759
0.4375,-0.4913035729594063,-0.522078316078099
0.44140625,0.8338277597319255,0.8620086035961708
0.4453125,0.14745268949815177,0.5892927323716152
0.44921875,0.20617862596521713,0.10019465459481161
0.453125,-0.8931587421119576,-0.8571881443405982
0.45703125,-0.3126601043811658,1.5664456654367227
0.4609375,0.3238014664955977,0.9833597777733
0.46484375,0.2170397936450707,0.5856727221679784
0.46875,0.3226324170318668,-1.1779381678756227
0.47265625,-0.6383778086093606,-0.8468633236810988
0.4765625,-0.004606122682839598,-0.5344735425126608
0.48046875,-1.4262142897160195,-2.1448135701359687
0.484375,0.36273712699466565,-0.8189461403978623
0.48828125,-0.7793343872568351,1.0385435546305561
0.4921875,0.1947438706706651,-0.9299599705509488
0.49609375,0.6658082086922236,-1.3518137564706465
0.5,-2.009234067824884,-0.32628820375083506
0.50390625,-1.184365941406251,2.324813829695497
0.5078125,0.8405730175546727,0.7454508896075094
0.51171875,-0.09701316449888736,-1.1168889048792239
0.515625,-0.9763113581971631,-0.18044748472641617
0.51953125,1.5073532701177141,0.08507658940096928
0.5234375,0.9004126344051089,-0.6292062018844695
0.52734375,-1.1309764150851713,-0.6028959432473876
0.53125,0.9492335890560172,0.7141334634641029
0.53515625,-1.5034199264809693,-0.2360746546309818
0.5390625,-1.0780151926430068,1.7735216640772875
0.54296875,-0.0012122224076201956,-0.4294259011874428
0.546875,-0.37152352362651203,0.09995676405626182
0.55078125,0.0646923648976974,0.6054782150271709
0.5546875,1.4339832297453898,1.250702915125427
0.55859375,0.3457197421863855,1.2627684082624038
0.5625,0.06210670544333895,-1.1472424364299
0.56640625,-0.46435402181944163,0.21427478351748752
0.5703125,-1.0886659337990445,0.5391958900643782
0.57421875,0.7456201119389873,-1.074316878032269
0.578125,-0.9388112237478919,-0.10789537784911138
0.58203125,0.5002381694916807,0.18522071848277838
0.5859375,0.3061265060144908,-1.3767181648220068
0.58984375,1.786612345828098,-1.4513411590063685
0.59375,1.260067599445384,0.5771593732545609
0.59765625,-0.13508251649491748,-0.6123411440234942
0.6015625,-0.06695479557679695,-0.15247631839011777
0.60546875,-1.4299162381836652,1.0145497875185432
0.609375,1.5796248112614315,-1.3674720055751723
0.61328125,-0.5789047112647704,0.06200566293698509
0.6171875,0.014042863650391368,0.10924423128724998
0.62109375,0.20855168219085451,0.6297807508433961
0.625,0.29123547348879025,-0.08296830038280816
0.62890625,1.335892457843055,1.3860728280260055
0.6328125,0.3665591995520053,-0.9872115093838856
0.63671875,0.021760482637951384,0.215219139676682
0.640625,0.3885717789749564,-0.021065433794606826
0.64453125,0.1650099919973414,-0.9309605235323687
0.6484375,0.1807351324793396,-0.8079000365770339
0.65234375,-0.2851674656783296,-1.6598561356166115
0.65625,0.44103319784426986,0.8362755527830817
0.66015625,-1.355542665080824,-0.8542014499678087
0.6640625,-0.35286565854252694,-0.05959434587995818
0.66796875,0.42344387102708614,0.5581759156209617
0.671875,-0.37332266789246715,0.334221583304705
0.67578125,-0.7348145486935946,1.7977085644049313
0.6796875,-1.9064541687444723,-0.33150147027003357
0.68359375,-1.2006647234655925,1.2021684121871823
0.6875,-0.8054781137857769,-1.2110942904319768
0.69140625,0.7947116360200923,1.5787937755553318
0.6953125,-1.217403789810859,-0.0020477228646291015
0.69921875,-0.012231626287831318,1.0422506501775421
0.703125,0.830367363635539,-0.549229420154738
0.70703125,-0.17365934825292673,1.1701977025369972
0.7109375,-0.7478088966577494,0.3148973227647695
0.71484375,-1.6606574077131122,0.5846652008825244
0.71875,-1.381562924757974,-0.1999522535101939
0.72265625,0.35359210064592816,-1.7364780042603758
0.7265625,0.7509119008184012,-0.11835938820781483
0.73046875,-1.0938082591464042,-0.8065087330441723
0.734375,0.5962463520354043,-1.3127453479669808
0.73828125,0.2784965882972338,1.8403735334439915
0.7421875,1.1908278743548646,0.3889186738764547
0.74609375,0.5615510690886142,0.19292770660383998
0.75,0.5889313362412842,-0.36278825978779167
0.75390625,-1.1859275187720602,-0.38358876733466973
0.7578125,-1.9675501781128317,1.3215469389405334
0.76171875,-0.8785050230617991,-1.411714013172681
0.765625,-0.29257978927619827,1.449344945225893
0.76953125,2.3104759858953954,-2.474532076766222
0.7734375,0.19756315732686908,-0.19906330616588125
0.77734375,-1.26138772383317,0.22952502606622568
0.78125,-0.7518642874407184,-1.0151562393559816
0.78515625,-0.16150599770979596,-1.6575659056499124
0.7890625,0.39570531243613083,1.141533217722995
0.79296875,-0.34074101650279354,0.10248907146410798
0.796875,-0.040275281433834804,-0.041500095845254506
0.80078125,0.6417647643414869,-0.20519865307110174
0.8046875,-0.5204991761901636,-0.6277435928636678
0.80859375,1.1318162669095582,0.05093644779642674
0.8125,-1.1086722323152292,1.1865669888260801
0.81640625,0.6870109470931381,-0.7654088802512031
0.8203125,-2.185643422883937,0.6171669521999057
0.82421875,-0.9940584309699653,0.5988047488669207
0.828125,-0.16910904211290423,-0.9135747024255423
0.83203125,2.4163589890849835,0.10971160918513309
0.8359375,-0.07943780137415732,0.26222001976314563
0.83984375,-0.551112057805856,-0.7395329308494593
0.84375,-0.10182019174872868,-1.3488195660593711
0.84765625,0.14830634241384724,-0.5296661452779943
0.8515625,-0.8060481106587195,1.9431043556492886
0.85546875,1.8094870008098942,-0.6912994839883595
0.859375,1.234996171936062,-1.190543068976237
0.86328125,0.9981441614957495,-0.18738995450657403
0.8671875,-0.35829404041116986,-1.4781478505107468
0.87109375,0.5867386594256954,1.840696784320829
0.875,-0.9248712098910119,-0.9350836212288286
0.87890625,-1.0005543871885316,-1.0746250784187321
0.8828125,-0.7985631864837084,-0.4876668145379304
0.88671875,-0.12644682418207887,-0.7090767140279739
0.890625,0.45948570041173425,-0.5256391018092735
0.89453125,2.002046978131814,0.044909271977205845
0.8984375,-1.251696841348144,-0.8297819784849427
0.90234375,-0.15876962591150146,2.4520233168067405
0.90625,-1.119407063789667,1.2777478530178539
0.91015625,-1.5477502935051268,-0.19081357529513265
0.9140625,0.2601103479336842,-0.44070004707080124
0.91796875,0.2700856071051405,0.36850784766095657
0.921875,-0.7198691941022146,-0.49127168867569315
0.92578125,-0.046060394792013924,-0.020625817021635483
0.9296875,0.7952556274908334,-0.3034400444830632
0.93359375,-1.3949701664025855,-0.855207969528567
0.9375,0.4224061893079875,0.4120566697759417
0.94140625,-0.19478630014660325,0.8241515970029568
0.9453125,1.1631015278245562,-0.38685105004978176
0.94921875,0.06344483269590816,-0.8801715696455238
0.953125,0.610591966191638,-0.5685568554948692
0.95703125,-0.3308871697508552,-1.0121165384639235
0.9609375,1.1432808346528673,1.1515241702920995
0.96484375,-0.7516576354931606,-0.28378003031924964
0.96875,-0.46512868536071866,-0.2640260840433331
0.97265625,0.03703817016274192,-1.5584607924979896
0.9765625,-1.3359246189371683,-2.0320053586114204
0.98046875,0.4872513950950677,-0.41694118237300615
0.984375,0.5919157193194153,-1.6820684589315993
0.98828125,-1.962842935220599,-1.2646414157343588
0.9921875,-0.28366983697130604,0.3216911037891943
0.99609375,-1.1224566082188983,-0.9411448087384229
1.0,-0.6556426652155812,-0.5232096995389449
1.00390625,0.9619328099491599,0.4510205171935594
1.0078125,0.6735264035642043,-0.9278931994602537
1.01171875,-0.18154286166396003,1.2583619305726423
1.015625,0.08584014040947098,1.6856974147495074
1.01953125,0.9435454856499695,-0.04856723853865948
1.0234375,1.9684873423044122,1.0477753996312946
1.02734375,-0.9179303296355937,-1.8764316402086514
1.03125,-2.2499897047488973,-1.2387662745557433
1.03515625,-1.1996690202888463,-2.257913066541853
1.0390625,1.8916952095578914,1.1244836709467771
1.04296875,-0.23200649667994364,-0.8180089068012756
1.046875,0.29192983408139994,-0.4953612951147156
1.05078125,-0.44893740219875916,-0.12599487610887028
1.0546875,0.03005882124324268,-0.23082230732218043
1.05859375,-2.2664628190511062,0.08869625734106656
1.0625,0.5010294034105561,-0.31055647761407573
1.06640625,-0.6001764664482753,-1.7589938830211147
1.0703125,0.6116644478078042,-1.4561572846283815
1.07421875,0.885441684082285,-1.7455611064195715
1.078125,0.34526346144144077,0.11358580362415853
1.08203125,0.7107250893195843,0.3470687589958899
1.0859375,-0.20500950593370576,1.7177771640942547
1.08984375,-1.1041208777953633,1.9404175681975961
1.09375,-0.5716221993154533,0.8332970226872207
1.09765625,0.39425222743684946,-0.9449808274371593
1.1015625,-0.27637720773349916,-0.6695489358845667
1.10546875,-1.0138390316369184,0.23222176968337094
1.109375,-0.39012735453315633,-1.2802839351334339
1.11328125,-0.11351874384482699,0.04071895468806556
1.1171875,0.6050863917069431,1.4289566124730728
1.12109375,-0.025422043622839726,-0.5807561324669943
1.125,-0.8603087095127312,-2.348129088248147
1.12890625,-0.322231313448776,-1.1293705166554981
1.1328125,1.353196071225185,-1.3050682371485107
1.13671875,-0.2835919197574023,-0.8057560468434027
1.140625,-0.32660401885981954,2.6820425096567098
1.14453125,-1.1506731340906633,0.3196560626766338
1.1484375,-1.805204820878355,0.5969459579682304
1.15234375,-1.222523115748249,-0.07788317446584253
1.15625,-1.6575331826947084,1.3482423769522272
1.16015625,1.2305230451872513,-0.3837722150751155
1.1640625,-2.0843193480401903,0.9281415549681832
1.16796875,-0.5538044376129109,-0.2523651301802904
1.171875,-0.6020610189329472,-0.16200455266556169
1.17578125,-1.769472953246054,0.6706150171144103
1.1796875,-0.8249426514541296,-0.17350510497922725
1.18359375,2.439037571498488,0.694595670080561
1.1875,0.4112537459272643,-0.11193104502326867
1.19140625,-1.1993299155679267,0.46346956258219446
1.1953125,-0.7636613716121178,-0.9511632558093155
1.19921875,-0.768615711509969,-1.2933256462683052
1.203125,0.8558493995111517,-1.3052391606802385
1.20703125,0.25950428757033617,-0.5386979481767958
1.2109375,-0.6255190209187238,-0.8895568457069462
1.21484375,-0.3589446227862759,-1.5849079571921372
1.21875,-0.4860195655361895,0.3264189683671717
1.22265625,-2.6570481361039895,0.8060641980199651
1.2265625,-0.32913105675735127,0.1615334092689953
1.23046875,0.46396971313009017,1.7457900562152633
1.234375,1.1084523377062798,-2.3046893586413124
1.23828125,-0.5781332333981736,-1.0089318856531573
1.2421875,0.049845696627232566,1.2052998824880112
1.24609375,0.18574275692613065,-0.7239240830461628
1.25,0.47870886344418656,-0.44887763784567464
1.25390625,-0.5431979719435805,0.6526737537544005
1.2578125,-0.6945024516990691,-0.7791681078598862
1.26171875,-1.3347056697212165,0.8647665765959694
1.265625,-0.6711550016991754,-1.8668135403883348
1.26953125,0.13701502775031307,-2.0171153986535773
1.2734375,0.3008582791082191,-1.0050315888184655
1.27734375,-0.8894593859183988,0.5309489045117062
1.28125,-1.3343165127808791,0.03763558780832647
1.28515625,0.30647483025707956,0.591056165586773
1.2890625,-0.09087044396323822,-0.8402106917699025
1.29296875,-0.7810389737944406,0.8133234539724248
1.296875,0.10688334473569647,-0.7999539394903125
1.30078125,-0.7151941961040332,-1.56988539815902
1.3046875,0.23831582690287437,1.1084534566365736
1.30859375,1.6785613324357846,0.36294061000869693
1.3125,-1.0606382221651738,-0.9640725679474718
1.31640625,-0.571884020078204,-0.037119276232069495
1.3203125,0.8763305505222132,0.4790079240352427
1.32421875,-0.28589914124456545,0.935132099022163
1.328125,1.5574524539013463,0.6573589303466646
1.33203125,-0.8889811550271044,-0.28482990646787587
1.3359375,1.4450419060548119,0.3708846056059318
1.33984375,1.5306087348311364,0.03936120748788145
1.34375,0.350368557950757,-0.6093853738566058
1.34765625,-0.947135002981062,1.0291982211083253
1.3515625,0.7904893503472384,1.107397282392335
1.35546875,1.0691421023973,-0.7310724955766617
1.359375,0.7040299954968973,-0.01613449138597504
1.36328125,0.5927216026332021,0.2570599205962859
1.3671875,0.512272018934064,1.4256282137853513
1.37109375,1.0192722739016848,1.0326946587805397
1.375,-0.49185779012215464,-1.1409411714353828
1.37890625,0.9127536466700672,1.6839295578767726
1.3828125,1.0165568085716739,-0.8400891920894312
1.38671875,0.7775684765086432,-0.4503165313243656
1.390625,0.2971417843019782,-1.5211985025839658
1.39453125,0.8933002127102295,-1.5030143459783398
1.3984375,0.799874352018338,0.5640902163778225
1.40234375,0.5063776614455944,0.41359103530555824
1.40625,0.806390964584016,-2.2500522870051105
1.41015625,-2.9083162734971912,-0.30387980791305697
1.4140625,-0.17565214700482168,-0.09402907148000537
1.41796875,-0.27295316980811646,-0.8744937526103105
1.421875,1.2681453160126488,0.12554300042655803
1.42578125,-2.3934217721373794,0.6169089084411102
1.4296875,-1.0944458846453258,1.373856532773521
1.43359375,1.6670755313776089,-0.3795034530985101
1.4375,0.7681825893160824,-0.43111155205848534
1.44140625,0.5130070304898605,0.29212951530057324
1.4453125,-1.5678404109345665,0.16652933717730942
1.44921875,0.13521380246948095,0.47275893807505043
1.453125,1.592905797610244,0.16297123101768257
1.45703125,-0.6092743041394447,0.3147667146726509
1.4609375,0.23910572985282855,-0.39427490351925826
1.46484375,-0.6255228396393487,-0.307022531485028
1.46875,-0.7242342225696338,1.1300551859970256
1.47265625,-0.33217172281093954,0.9944046333010663
1.4765625,0.9747561586621019,-0.24226308578758898
1.48046875,0.4200639220004995,-0.75913108360034
1.484375,1.3941580952470836,-0.1588967437859193
1.48828125,1.6282366253540101,0.347291640478329
1.4921875,-1.0229161476901352,-0.6057420440324092
1.49609375,-0.7213992100457105,-0.05527499833672204
1.5,1.1121684048416118,0.27992499272031013
1.50390625,0.266610243548648,-0.2500335034348741
1.5078125,0.7047500323762627,-0.30668130291517165
1.51171875,-0.14594850878549978,1.7247740395513294
1.515625,-1.0581318353801648,0.12095918731612619
1.51953125,-0.43010736217130674,0.2577728975239241
1.5234375,0.46704763218266254,1.6586513125761033
1.52734375,-0.5259953412325827,-1.874729745150907
1.53125,0.4018734933507213,-1.1585679967325344
1.53515625,-0.8630061455537151,-0.7068997935430019
1.5390625,0.09475987920044943,0.24343539913758264
1.54296875,-1.9152186235277178,0.7691144436446762
1.546875,-0.5839056713732373,0.0005208585238636797
1.55078125,-0.03819589460505515,-0.9352646267158964
1.5546875,0.776582010773246,0.5613374783498173
1.55859375,-0.6711946504660946,-1.5820568561089758
1.5625,1.1759950763635572,-0.9434111656578555
1.56640625,0.7710309587254581,-1.1535294160265315
1.5703125,0.682219317626639,-0.05050211038381963
1.57421875,0.4058827493299094,-0.13942019452598517
1.578125,-1.3886399447080429,0.7001855758770791
1.58203125,-0.7053771402365939,2.026554261158092
1.5859375,0.2948598088365926,-0.6894785318009284
1.58984375,0.014311854687137407,-1.4408978426524497
1.59375,0.688691625477779,0.265879438014953
1.59765625,-2.33807335650936,0.7879088705584738
1.6015625,-2.622791098880643,0.5172724224948054
1.60546875,2.343191922457721,-1.5221393383183908
1.609375,-0.46811195791573307,0.9790103422808498
1.61328125,0.4671087197645326,0.21387296298697894
1.6171875,-0.14443017325427546,-1.2566343700129012
1.62109375,-0.21578362113929092,-0.11932071748762735
1.625,-0.331512425896142,-0.36603255550627783
1.62890625,0.3992466001635216,-1.2172800890439344
1.6328125,-0.1348761571865482,-1.1499688760532627
1.63671875,0.5548796893275769,1.0034550623806386
1.640625,-0.5939089047054092,0.0023910391349077384
1.64453125,2.28030208479967,0.6752218972970526
1.6484375,1.0590945402540235,0.2453946922927452
1.65234375,-2.08581014670106,-0.695592060565017
1.65625,0.8021253675555398,0.5796433781461362
1.66015625,-0.4659043955127579,0.11824341585147341
1.6640625,0.11757860344763404,-1.3976183668173021
1.66796875,0.6995795914966936,1.3827674258553397
1.671875,-0.6331630948060992,0.14076143796225557
1.67578125,0.4984292305117861,-0.7409703753969574
1.6796875,0.782452166389143,-1.0834155686088354
1.68359375,0.26395159164017495,-0.4457335724910699
1.6875,0.3056894110164465,-0.18210560439600199
1.69140625,-0.66317138977458,-0.6873894012330368
1.6953125,0.3083546092075904,-0.17678517491702975
1.69921875,-0.6542910976858705,-0.433998060688906
1.703125,1.277792686197549,0.92354476444258
1.70703125,-1.2185256221054908,0.5402826112036313
1.7109375,0.9748769177638391,0.13001867155337404
1.71484375,0.1407931961760341,-0.06254647937867204
1.71875,-0.56692784220337,-0.8810737054799174
1.72265625,-0.5417029049345565,-1.0627981464121858
1.7265625,-0.6738836037507495,1.1022310704075866
1.73046875,1.154995616947937,0.22137580122374922
1.734375,0.8910751631255195,0.249019895578729
1.73828125,-1.9569211922908025,0.7205941885379388
1.7421875,0.14649802894705272,-1.141719224830413
1.74609375,-0.08686699050836488,-0.3660429962849408
1.75,0.5577805704559283,0.5135202499986848
1.75390625,-0.3001113842503214,-0.23380770534358328
1.7578125,0.886057922391967,-1.097617405305842
1.76171875,-0.10328760970160905,0.7923983513805475
1.765625,1.1717451965798096,-0.9409568015763452
1.76953125,0.2095038266303724,-0.6825532540969727
1.7734375,-1.2593480402772574,1.783528553516753
1.77734375,-0.9558507503264067,0.20142063041665073
1.78125,0.20749247153203293,-0.7632472363531632
1.78515625,-0.46309267598588577,1.0121305862004326
1.7890625,-0.9834353448034177,0.02259114993943741
1.79296875,0.5607196033078359,-0.780813352842787
1.796875,1.1318557351941894,-0.301774712677445
1.80078125,1.2206464640854937,-0.05516964748230673
1.8046875,0.4693164084579576,-0.3855045008037676
1.80859375,-1.1121386818872998,0.3788343748772672
1.8125,-0.8703625205868152,-2.199914749599487
1.81640625,1.4302288555925995,-0.47444812476701526
1.8203125,0.7772925751192381,-0.0010343930775106034
1.82421875,1.3967008393766305,-1.423556127099861
1.828125,-1.1678668998774349,-0.3541502175508908
1.83203125,1.6044110896952717,1.0239559820455049
1.8359375,0.842947944034683,-0.0015517639086839762
1.83984375,-0.2778209317415773,1.2943224668357418
1.84375,-1.1774942903774448,0.29313229130360263
1.84765625,-0.23370073928479015,0.7891225332561769
1.8515625,-0.6054774213360617,-0.8073037830200301
1.85546875,-0.05486680327390785,0.05427903201977365
1.859375,0.485578966868475,1.1523886675639283
1.86328125,0.45652974854866274,1.3319812796462869
1.8671875,0.8055141351000713,-1.3257582879527479
1.87109375,0.004984855422644287,-2.292878452162769
1.875,-0.17463037062522868,-0.738335954590978
1.87890625,-1.2831883729283908,-0.5837746078862878
1.8828125,0.801515138802688,-0.5800786714076276
1.88671875,-0.3304947838513784,0.8199624858421379
1.890625,-0.3409810971084468,-1.310277802088598
1.89453125,-0.4987311905878694,1.1446656514240452
1.8984375,-0.8751062113555111,-1.4565916046666394
1.90234375,0.8327185251949313,1.5714959310893883
1.90625,0.6885244194363875,-0.6428200016759731
1.91015625,-0.34549555031759455,-0.2481653013521137
1.9140625,-0.09595083906810163,-0.4634045979908189
1.91796875,-0.5645994427981275,-1.6600611805448322
1.921875,-0.11156051037725737,1.409085819531981
1.92578125,-0.3124519706272249,-1.4787234786146164
1.9296875,0.002641174213916166,-1.0361609941766707
1.93359375,0.26366113948870057,-1.512018188520914
1.9375,-0.6984064660122449,-0.7094462421092056
1.94140625,-1.122274499411089,1.1378538693470495
1.9453125,-1.205650256616788,-2.2335357293651414
1.94921875,0.757012350508695,1.116082942271052
1.953125,-0.6211063750017068,-0.2873404915573304
1.95703125,0.7239042582637165,-1.0148640528669712
1.9609375,-1.8607843638460124,1.3293831583314744
1.96484375,1.214812988649605,-0.39780267852511475
1.96875,0.0710145957820409,0.03144868611839818
1.97265625,-1.3645265692939077,0.8091565686829392
1.9765625,-1.6741452172152131,0.0034580219901591868
1.98046875,-0.9170437465796217,0.13745902583364014
1.984375,-1.0143221672707035,-0.8818402629823014
1.98828125,0.06560867631099952,-0.59657017032065
1.9921875,-0.717780318286236,-1.2629865432880059
1.99609375,1.94490637573591,-2.8181033838971485
2.0,1.6038409373680744,-0.9264257688553749
2.00390625,-0.36795749411010414,1.514620977036649
2.0078125,1.0278428098005972,-0.8927253756009832
2.01171875,-1.1930662678934874,-0.9036166965508353
2.015625,-0.4789557024718754,-1.0171310097322885
2.01953125,-0.47485617149105436,-0.5572227195128455
2.0234375,0.24376041312352004,0.8231929436880129
2.02734375,0.16989599858265017,0.2990659490625856
2.03125,0.9348476088309611,1.1079224243368677
2.03515625,-0.13889308933280603,-0.19842785879205177
2.0390625,-1.7417325582631105,-0.2958410667174159
2.04296875,-0.0034323478835228604,0.4057331009648544
2.046875,-1.3109246023664474,0.27532240700639504
2.05078125,1.8298412138327855,-0.8145854048421488
2.0546875,-2.046822160848051,0.8451017581850827
2.05859375,1.0455529212637455,-0.6771127828664845
2.0625,-0.503902424286929,0.12955600629932706
2.06640625,0.2562972091116011,-0.025931690343414908
2.0703125,-1.7928927753312203,0.6874491338206651
2.07421875,-0.03269790808718787,0.9767401197664868
2.078125,0.6870701088612747,0.2019006983220393
2.08203125,0.4356198866958697,-0.33077191158695307
2.0859375,-1.0576138188619797,0.9007353789120054
2.08984375,-0.5648196537219443,0.38962933207797423
2.09375,-0.2030174858893954,0.8465904807881247
2.09765625,-0.2078138497794575,-0.2427274559645919
2.1015625,0.7489101580785876,1.6899905223977953
2.10546875,0.6043642014480435,1.3715333598228183
2.109375,0.15941216431140473,0.26501279282983564
2.11328125,-0.6857770178408622,0.5042101701807088
2.1171875,0.3500930236237254,1.9197475402448319
2.12109375,-0.14404122930520027,-1.3900990321343392
2.125,0.5931859987261788,-0.45810616230936246
2.12890625,-2.1618884578557047,0.3438930174489253
2.1328125,-0.664152720571767,-1.5494513475737888
2.13671875,-0.9537831733692786,-0.43536782937263496
2.140625,-1.1604790767110045,-0.023757309467935916
2.14453125,1.0364498903112662,-0.45585648181353194
2.1484375,0.0022648607301486677,-0.05783258554118282
2.15234375,-0.6517314574264896,1.5255196991883786
2.15625,0.833162056460004,-0.03241758101080114
2.16015625,0.04836438945304845,0.4547045862976005
2.1640625,-0.10979054014669956,-2.086673971855983
2.16796875,-0.07607413299880425,1.115160186999662
2.171875,-0.796982390918971,1.4486432311499002
2.17578125,-0.2878124635464516,0.08354929369360306
2.1796875,-0.7170657881043863,0.5741232798329506
2.18359375,-2.240499014520011,-1.7898134196793554
2.1875,-0.026612694518027016,-0.5534696995984201
2.19140625,-0.8576524798281586,-0.4092268913196843
2.1953125,0.4014910513582097,0.5012328164430822
2.19921875,-0.24282371760235064,0.39132520783448393
2.203125,0.24467341054951644,-0.04578944440966668
2.20703125,-2.7905110036824454,1.021727653470852
2.2109375,0.3234703700410196,-0.30288740367737155
2.21484375,-1.2171072500581628,0.0539019734611551
2.21875,-0.6011559132417507,1.1103256799526415
2.22265625,-1.0392736462417371,-0.34991341185540736
2.2265625,-1.1107252844196362,-0.13332435466905243
2.23046875,0.8093464148483209,-0.7892609425706859
2.234375,0.6201867911789478,-1.4854778725673334
2.23828125,-0.24844797394363252,-0.663002798840248
2.2421875,2.035442246986254,1.4155194116674716
2.24609375,0.013383685578405358,0.9306191158294386
2.25,0.9050345195298019,1.8772434185212068
2.25390625,1.7830776380349191,0.9154788088158943
2.2578125,-1.1388301562169072,-0.0637814917749446
2.26171875,-1.3305126423985454,0.347388663273453
2.265625,-1.6921710703832977,-0.12770104526859333
2.26953125,-1.889472689416527,-0.8286842642036975
2.2734375,0.49930979103680007,0.506401260467077
2.27734375,0.15628082686242206,-0.43873354687578425
2.28125,-0.9497617384272351,0.47145888167456246
2.28515625,-0.11723403576140952,-0.6203557608170486
2.2890625,-0.30556625179012614,-0.051937255189310166
2.29296875,0.07464680348481223,-0.9639986525198765
2.296875,2.445540748681758,-0.011924671664230183
2.30078125,-0.42292502791649844,0.6529118622308948
2.3046875,-0.011879830070967988,-0.5769184419416878
2.30859375,-1.3879223084525796,0.3997972908746252
2.3125,-0.39112661979283125,0.44793471525638356
2.31640625,-0.6076466315140948,0.5155604576203054
2.3203125,0.31182216748159824,-0.32570551713915236
2.32421875,1.113132535672459,0.23578591189313364
2.328125,-0.8316428569343945,0.03200125489595808
2.33203125,-0.0690648647682722,-1.2854022708493926
2.3359375,0.45173963006167783,-1.106863705762914
2.33984375,-0.7630742183006848,-0.6200512359441541
2.34375,1.284502981218232,-0.09270923833927303
2.34765625,-0.7585464219512151,0.18903005095785907
2.3515625,1.6099339988415853,0.5907392114183623
2.35546875,-0.9272408722530842,0.5798938562243535
2.359375,2.0070977459504618,0.872909053172912
2.36328125,-0.4381049304525128,-0.8233743923919348
2.3671875,-0.4876799985749528,-1.2968284729617587
2.37109375,-0.41287715493620125,-1.6715121877884638
2.375,-0.9012045766526301,-0.24748958944289567
2.37890625,-0.03359805548317025,-1.0765785816958047
2.3828125,0.0836096540988827,-0.12596807911532865
2.38671875,-0.0391616904263128,1.2476053900405002
2.390625,-0.12347298170434255,0.1346375302581676
2.39453125,0.09397288276368683,0.5627660582139461
2.3984375,-1.6872356494069571,0.8321496960325087
2.40234375,-0.1415466022081791,-0.19772566884892304
2.40625,-1.6858634010738676,0.7161866687249435
2.41015625,1.2954488578490502,-1.4209055575590115
2.4140625,1.2681156926154524,-0.8107196116426123
2.41796875,1.0243507965960763,1.909935809688357
2.421875,1.145278282921393,-1.0247002719749756
2.42578125,-0.6524514541491954,0.32903416442096106
2.4296875,0.4727727708667356,-1.000007009625039
2.43359375,0.7941678155648076,-1.4910195991120778
2.4375,-0.16960534367863112,0.6668407415590913
2.44140625,0.1298391026525228,-0.769862419150912
2.4453125,-1.5684199929607174,0.5791718225444745
2.44921875,-0.7339127621966824,0.49248131663937733
2.453125,1.0702925534207137,1.1604421651765513
2.45703125,-1.290454043574787,-0.007355442402091044
2.4609375,-0.8168621397566338,0.5087196936774601
2.46484375,0.009611379296240518,0.9376091904910941
2.46875,-1.7053916447152917,-1.1508320884275334
2.47265625,-1.7152798048555367,-0.6317438053657564
2.4765625,1.4162363428301152,-0.9487741055933813
2.48046875,-0.9781624483795347,0.43180195871876276
2.484375,2.1558395107026027,1.1977833290213933
2.48828125,1.6608345235412403,0.9725483001400164
2.4921875,0.7611516808519007,-1.5857241962011632
2.49609375,-1.2615203541094349,1.5244522969320897
2.5,-0.8083218858485587,-0.532654815001434
2.50390625,-1.5808777644264034,-0.5981822556490412
2.5078125,0.665603633954818,0.3257516659028062
2.51171875,0.827930235619706,0.449261081506719
2.515625,-0.7497517667558558,-1.447485853300278
2.51953125,0.32403603835182526,2.5630157025579323
2.5234375,1.1263661154369282,-1.2513323650243577
2.52734375,-1.873747776984291,1.1093753474356238
2.53125,-1.4680161947945332,1.8162737776959275
2.53515625,-0.07554047877859324,-2.1162896591950946
2.5390625,0.05182644915959378,0.5677447500406609
2.54296875,1.2882044980781477,-0.21781185680472634
2.546875,-1.111310437016358,0.15494038243127176
2.55078125,-1.651777647006822,-0.6875201499082031
2.5546875,-2.135428306812614,-0.02352809714690571
2.55859375,-0.5856197385512636,-1.8651359104685983
2.5625,-0.2934014132369761,0.8506283983302845
2.56640625,-0.6042526840207051,0.622152772026314
2.5703125,-1.072378129647196,-0.683563273343729
2.57421875,0.44532935097297854,2.0762517529480684
2.578125,-0.9720058668858669,-0.6239842394952813
2.58203125,1.1944155413837376,0.27973833960568706
2.5859375,0.05820786340684984,-0.36998377185848585
2.58984375,-0.20596504912871744,-0.05402963763398334
2.59375,0.35356811114669817,0.6219305318990552
2.59765625,-0.7854182197643025,-1.4703259966528035
2.6015625,2.011549633860431,1.4766477933739452
2.60546875,-0.009333586136095617,-0.7226528465921798
2.609375,-0.6557309196067322,-0.49586322622133283
2.61328125,-0.8326901082147276,-0.03279331554221268
2.6171875,-1.2805996895670129,-1.3086467634905297
2.62109375,1.3497484772390242,1.3819842744289723
2.625,-0.5489253959037754,1.4203462945710568
2.62890625,0.6491773212528777,-0.38954495739300693
2.6328125,-0.06912963990710189,-1.0463925046456275
2.63671875,-0.3226236515179131,0.2726668097730028
2.640625,0.6006643899024711,-1.609507208389047
2.64453125,-0.2634794401255467,0.35825957280128373
2.6484375,-1.689631806547651,0.035036773403399515
2.65234375,0.5450411751752924,-0.17818928175439452
2.65625,-0.6405471385944996,1.2945405724743735
2.66015625,-0.010530549270707675,0.8802791075078418
2.6640625,0.8891588209760297,-0.2984312845585266
2.66796875,0.9083760075683432,-0.2778001526897901
2.671875,2.28398651656937,-0.9695806280631928
2.67578125,0.35793604540299223,-1.1447926498716596
2.6796875,0.9348317931147774,-0.7986606054110104
2.68359375,-0.90820042037594,-0.2804302599139296
2.6875,2.0736205644553976,-0.5870266178761864
2.69140625,0.8490245690123205,1.219584533314929
2.6953125,1.050534609497632,-0.8966216317022789
2.69921875,-0.7460266640363608,0.32284265805071183
2.703125,-0.4144420888482247,-0.6229892642735892
2.70703125,0.3449396913444059,-1.280381468432543
2.7109375,0.2924643678146045,-0.21218045172546596
2.71484375,-1.0780015070758322,-1.8235488707790055
2.71875,-2.3195830950365135,-0.014744653859745029
2.72265625,0.18190402413908194,-1.2845625346724472
2.7265625,0.34750800912794566,0.8813613160693204
2.73046875,-0.1731193289342103,0.02403223542671115
2.734375,-0.9613400218747189,0.2277624785128557
2.73828125,-0.9318552659995978,1.4256958504153845
2.7421875,-0.07127797402658051,0.12844545963713014
2.74609375,-0.40269238026588766,1.8243709782381232
2.75,0.8860786279033187,1.1912204092629222
2.75390625,0.12650083224297234,0.9040521645444838
2.7578125,-0.8340489168799575,-1.2903064183801871
2.76171875,0.45036681813039475,1.1663322855818983
2.765625,-0.15147925166346152,-0.7332884077076421
2.76953125,-2.435465738615231,0.1797755798267965
2.7734375,-0.3152395708452277,0.8158732218491598
2.77734375,-0.1507826889743339,0.4610883917178833
2.78125,-0.12500768091062853,1.063781230877356
2.78515625,0.7045142277230193,-0.8425355829043681
2.7890625,0.61062994087546,-0.16575747860559154
2.79296875,-0.3181890457481522,-1.6558865092689532
2.796875,-0.8994607227519772,-0.5673212931116027
2.80078125,0.37635872123751485,1.5004504827298926
2.8046875,1.5124872194398604,0.9145255456205146
2.80859375,1.290612501145436,0.026823231223748897
2.8125,0.4868360885765975,1.4123294995068163
2.81640625,0.8520778865415196,-1.68365813630728
2.8203125,0.1248036766355488,1.3087298586334524
2.82421875,-0.2126614585284169,0.8343957725892954
2.828125,0.7852539710461423,-1.0476945975581184
2.83203125,0.005678493054574874,-0.4477093440426995
2.8359375,0.4451484923199764,0.44515870156176424
2.83984375,-0.31357900978125064,-0.3136842606709978
2.84375,0.31764876804716224,1.2597541247750974
2.84765625,2.225847013121751,0.626302143301782
2.8515625,0.39284702350058254,1.6249015461492147
2.85546875,-1.8498040129658602,-0.4900015396960781
2.859375,1.7139972272296908,1.527139623333507
2.86328125,-0.2879166414609021,1.089880174472159
2.8671875,-0.7696351656024492,1.1619212834351642
2.87109375,-0.703607285643391,-0.876606559061648
2.875,-0.6830144235336906,-0.8378281346586108
2.87890625,-1.4037548673535165,-1.3169083214795783
2.8828125,-1.039620146339134,0.3354931680392894
2.88671875,1.576169397280488,-0.49891096885827596
2.890625,-2.0611428752385352,0.5957891018676411
2.89453125,2.1026052674321174,-0.042864230082083586
2.8984375,2.739683336619567,-1.709742775379922
2.90234375,-1.825820101599887,1.0702454169106652
2.90625,1.6046721601373397,-1.3492111931838167
2.91015625,1.6239064624311716,0.12130596804709895
2.9140625,-0.8997473751482771,-0.9142420016629831
2.91796875,-0.9561697061318231,-0.26511458653316294
2.921875,-0.4145607131237692,0.7228442046036228
2.92578125,-0.041552322938129306,-0.38285258695704366
2.9296875,0.28422776111988945,0.6159087199590922
2.93359375,-1.3900829099440974,0.8095798261358139
2.9375,0.18889356421629885,-0.191353431358516
2.94140625,-0.1620871170180513,1.4879310764761025
2.9453125,-0.3719262746302214,0.19347413957134277
2.94921875,1.421819166301413,-0.546138517766865
2.953125,-0.03681292935385503,-0.9170046100877096
2.95703125,-1.5668030277890614,-1.0581152805351912
2.9609375,0.20094894382149217,0.012315767897704843
2.96484375,0.9648459168031098,0.7192180410880519
2.96875,0.61514838068651,-0.5996902580521948
2.97265625,-1.804812785263295,0.16024402049577785
2.9765625,-1.3787366737322992,0.34938421617111903
2.98046875,2.0125666342416593,-1.1832306814539546
2.984375,0.8960234212045992,-0.5510964689033295
2.98828125,-1.0793494688266443,-0.8825666762173945
2.9921875,-1.2264624924492147,-0.8858975038097677
2.99609375,-0.1760866715864062,-1.0765202189666698
3.0,0.9947821558629103,0.8410405645363116
3.00390625,-0.09016036135160452,-2.025506764500457
3.0078125,0.6216957698710831,-1.4509670444486156
3.01171875,-0.6987264669695591,-1.6059253175754333
3.015625,-0.8740945194829004,-0.783396440141583
3.01953125,-0.8918946029717417,0.5632984731362232
3.0234375,1.7964916406479527,-1.4131689969436259
3.02734375,0.7986463244598576,-0.9717805499899119
3.03125,-0.2598627743339388,-1.1105383790037333
3.03515625,-0.17810545578340295,-0.9096531638358438
3.0390625,-0.5313113391502768,0.16628340944758285
3.04296875,0.40530644254654385,0.20861372175655876
3.046875,0.46397133689717573,-0.9990147548924315
3.05078125,-0.7859498821174072,0.01446953992122288
3.0546875,0.947207581139656,-0.4417008359038502
3.05859375,0.6684172054150944,0.49691170995394707
3.0625,-2.779997120726397,0.9439660023165755
3.06640625,0.09835534831925073,1.0184893076477701
3.0703125,-0.8018628788924229,-1.0924970736255424
3.07421875,0.705202603384239,-0.35369265701462566
3.078125,-2.2174254909445037,-0.7382482983663238
3.08203125,-0.5571749288651253,-0.2843976294956666
3.0859375,-0.7457687271941433,-0.3387792942738243
3.08984375,-0.3104507180200813,-0.7310882597962922
3.09375,0.4234356096006564,0.4183633105065233
3.09765625,-0.7288370113103333,-0.7928313967444858
3.1015625,0.5215111618458927,-1.3157232477224043
3.10546875,-0.9778747710253807,-1.795432209893599
3.109375,-1.3774949828852072,-0.08864359996802706
3.11328125,1.1214849006062317,-1.246843657810509
3.1171875,-1.4492406255944603,1.2869765215087332
3.12109375,-0.0476228295609979,0.2941837172715868
3.125,0.10579313849986079,0.7846954721720542
3.12890625,0.5760584015630664,-0.1260218485212713
3.1328125,0.8686109416437289,0.3280319583141145
3.13671875,0.0646710740987767,0.9738735311617942
3.140625,-2.061914778011432,-0.5720660614433959
3.14453125,1.2920047988410042,-0.2345629447500321
3.1484375,-0.4549723432834031,0.553328958593736
3.15234375,-1.8590452006517981,-0.8072795741823457
3.15625,1.3482683314281587,-0.06269894926183467
3.16015625,1.244118408697317,0.26826198662483575
3.1640625,1.0878172623244877,1.2678181944007978
3.16796875,-1.6631169758522408,0.15495553683218835
3.171875,-0.3702827079279543,-0.7773900170484742
3.17578125,-1.4362853409321559,0.8359385910643139
3.1796875,-0.2457395331790177,-0.49351095107413856
3.18359375,0.6561496207894857,-1.0067430561154898
3.1875,0.39008030033646196,-1.5541335792847981
3.19140625,-0.30854671911547826,-0.9624989581369267
3.1953125,-1.0265069844888668,0.15004589294481216
3.19921875,0.8695943938320764,-1.2907514554569925
3.203125,-1.702188150909092,-0.45542384608572833
3.20703125,-0.1786736152739859,2.0143434864578684
3.2109375,0.5991490512090065,-1.1874433101836108
3.21484375,-0.8937775345845218,-0.5335270609354968
3.21875,0.01678568883173838,-0.9504760398854277
3.22265625,0.5151911962811168,0.33634270319073334
3.2265625,-0.7870387750730188,-0.9132441935780838
3.23046875,0.8512887425449182,1.682983809634485
3.234375,1.2062784365977328,0.0012492245358108073
3.23828125,0.7867207891471368,1.2814476116429416
3.2421875,0.6596665186155245,0.09666365650929638
3.24609375,0.2011883449025161,-0.7845905222337477
3.25,0.13287778562771332,-0.008065701955242274
3.25390625,0.9068042599312185,0.8826090723179413
3.2578125,0.6738343438405974,-0.8851979710628187
3.26171875,-0.671430022475863,0.8975061992277303
3.265625,0.7395867634097744,-0.4610254571063095
3.26953125,0.006366101272670107,-0.37266238786244826
3.2734375,-0.9269666833681371,-0.4180741555777082
3.27734375,-0.1276200120514102,1.3067336542479013
3.28125,0.7067159915852651,0.1764904044134903
3.28515625,0.24743556122396812,1.85323011110514
3.2890625,-0.058434766439117145,2.3440849462019138
3.29296875,-1.6205866858909717,-0.4066573404240862
3.296875,1.286481732662786,0.4498817823730136
3.30078125,0.013730571237922358,2.245500780346087
3.3046875,-0.7494985210132192,-1.2952224815195192
3.30859375,1.4236512512969228,1.4225314385742605
3.3125,-0.6913600522096035,0.08582411853213186
3.31640625,1.210761171695118,-1.2692399986052427
3.3203125,-0.6229263208709909,-0.16736470360229735
3.32421875,-0.3113051826490798,-0.23272492824277694
3.328125,-0.6309722542504294,0.9667900481339414
3.33203125,-1.1080384323702643,-0.05726334007248737
3.3359375,-1.2799634929623604,-0.27743829535563613
3.33984375,-1.0624619353830904,0.9310883712018371
3.34375,-1.609130986548911,-1.2408861784260006
3.34765625,0.48487873381803,0.3444690496286262
3.3515625,-0.8491953810245548,-0.16521678993237365
3.35546875,-0.618967030723014,0.6183743784742152
3.359375,-0.12124150690191692,1.104975165855977
3.36328125,1.0385444575369975,0.3812404578784069
3.3671875,-0.13273328749977034,-1.1655357942070808
3.37109375,1.3689930557334913,0.7260138949250441
3.375,-0.3200531127199625,-0.4109300010097521
3.37890625,-0.40803641168613636,-0.21335173412243083
3.3828125,-2.1987265344927467,1.8932256361077446
3.38671875,-1.0368236266060658,-0.5195897485164565
3.390625,0.6251858593566574,0.21851998296931396
3.39453125,-0.5484647434081836,1.4182845442611387
3.3984375,-0.48470414550221064,0.008076027050597253
3.40234375,-0.5049273721122395,0.3173190398806851
3.40625,-1.1216062488000567,-0.05957707370739814
3.41015625,-0.1375147862591239,0.9689702718582445
3.4140625,0.15797242653977833,-0.44555539538245614
3.41796875,0.6395430111084848,-0.45261451856855583
3.421875,-0.3791325303604187,0.6239392279131931
3.42578125,0.5013725386780572,-0.6770327287123946
3.4296875,-1.280102392921291,0.14334377695455672
3.43359375,-0.026846534735948214,-1.269302300810742
3.4375,-2.0411461805242843,-0.2786981322390986
3.44140625,-0.5436779321628784,0.23026075791778117
3.4453125,2.003942691289868,1.3252551957526697
3.44921875,-0.7331641041554591,-0.0554755360962099
3.453125,-0.005511084935629502,-1.1274230141232817
3.45703125,-2.0220937548311673,-1.9206376113625385
3.4609375,-1.5224637571783457,-0.28472020137158355
3.46484375,-1.9330484890782573,1.5264609871902965
3.46875,0.060996460576741345,-1.1113029668861978
3.47265625,0.9054675340789068,-0.9156018601213941
3.4765625,0.9300902886828902,0.6066013153678572
3.48046875,0.03774397192978843,-0.2679265769963103
3.484375,-1.036282459646001,0.25654416349224224
3.48828125,-1.6296172064088719,-0.6699503271381148
3.4921875,-0.786661285212143,0.18752370254827988
3.49609375,0.5393217330670328,0.047386774406219676
3.5,0.812458369047142,-0.3098307956042519
3.50390625,0.7128064340375683,-0.7200974936017915
3.5078125,0.05545071605957002,0.8017483581546979
3.51171875,-0.4071765114845532,1.3891726176634511
3.515625,0.8671251428801023,-0.329600686821761
3.51953125,0.8245814515160811,0.8091277170062625
3.5234375,1.265106659166563,0.06418753110543239
3.52734375,1.7691063030645884,1.8816206991952498
3.53125,-2.1384467726040626,-1.126590509557123
3.53515625,0.2993113951933313,1.5300404800755978
3.5390625,-0.16205842074897545,1.1321034894900568
3.54296875,1.199973725316858,-0.5030316354121853
3.546875,-0.669578291720415,-0.3438533229717965
3.55078125,0.9658678138080449,2.329743520478962
3.5546875,0.8552201226000251,-0.40240566764507624
3.55859375,0.438952357640326,0.12224110018700846
3.5625,-0.6148076033697362,-0.077275939610588
3.56640625,1.513956102433824,-0.2841283393598431
3.5703125,-0.5245725596698734,1.2723520776410333
3.57421875,-1.796716310473781,-0.8281550415168789
3.578125,-1.0658735117646976,-0.3364353488919219
3.58203125,0.19124492839959764,-0.9895570642905708
3.5859375,-0.12622618842499253,-0.5371825073673041
3.58984375,1.6204417002422469,0.010147819693292875
3.59375,2.0367719259062635,-0.5261539366010004
3.59765625,0.5162248373122966,0.31994482349861547
3.6015625,0.7727871511721793,-0.03602818463967622
3.60546875,0.5588109368198588,-0.12997514348957687
3.609375,0.7768445655509095,-0.5012185453044863
3.61328125,0.5475173015945664,-0.2526162332178973
3.6171875,0.40508918704323643,0.20147975851611075
3.62109375,0.4030636076269999,2.510441298498663
3.625,-0.8051857131758612,0.19410706198183209
3.62890625,-1.9711781935759305,0.06865690260840217
3.6328125,-1.220451572878724,0.7345845108319582
3.63671875,-1.0240249487475792,-0.9147357817817402
3.640625,1.1224614058324656,1.0235177661530956
3.64453125,-0.33041542937677454,-0.21893645950960744
3.6484375,0.9597354990448093,-0.7643112001162219
3.65234375,0.7716335941739506,-0.5195565927104123
3.65625,0.631222363740429,0.024595269842061174
3.66015625,-1.244803236529457,1.7174650019335715
3.6640625,-0.3933557679681466,-0.4359431908634291
3.66796875,-1.1963791881725605,-0.2784948882381969
3.671875,0.5349847585581123,-2.5793975931181707
3.67578125,0.542949725691416,0.33638554386423614
3.6796875,0.04764823573610329,1.1539674850596606
3.68359375,0.25456269932293407,1.7261160941910227
3.6875,-2.424543237709324,0.7859320109656522
3.69140625,-0.49654211378903246,-0.259405853159446
3.6953125,1.887128936000016,0.7385001631834411
3.69921875,-1.5710982169832635,0.40601066691894033
3.703125,-0.5160105046725415,-1.0888762461192718
3.70703125,1.176677874710078,0.6944176344088274
3.7109375,1.4624631019164862,0.5511347971752101
3.71484375,0.27114077454686586,0.3641333968882934
3.71875,-0.34440080936233375,-0.7322219241567021
3.72265625,-0.49437990852027935,0.3028761118681538
3.7265625,-0.46109047090062166,0.7765845914818442
3.73046875,0.0430953533566888,-0.5879631576079385
3.734375,-1.9737178922927743,-0.08482419041034267
3.73828125,-1.4823121837520137,-0.5939297603381181
3.7421875,-0.30875231556089294,0.8164914512288823
3.74609375,0.35855990794312625,-0.17116652011391714
3.75,0.03016591400413306,0.4273333365011677
3.75390625,0.6893180225969178,-1.9114813722367556
3.7578125,0.6902096790959013,-1.490472433916548
3.76171875,1.7041925086394978,0.5419530924453102
3.765625,-0.2012488500987041,0.4770287218253276
3.76953125,1.2334648259647238,-0.9235923308631515
3.7734375,-0.22294550946111197,-1.033689250420532
3.77734375,0.06786294498833133,1.6772151759163392
3.78125,-1.6266580042499763,1.2327752030668606
3.78515625,-1.4811355608308283,-0.21512843339037835
3.7890625,0.4309073910872433,0.20759376395746854
3.79296875,0.978476065324217,0.609526695953533
3.796875,-1.5073973103315133,1.0072054584407164
3.80078125,-0.513385876900745,-0.7291003054445202
3.8046875,-0.5431134486318956,-1.455520217957049
3.80859375,-1.0031029375981821,-0.1416405431721402
3.8125,-0.33892107860130705,-0.1060189359091308
3.81640625,-0.4513997884994657,0.03460309677350195
3.8203125,-0.015028856788630567,0.40152123825473063
3.82421875,-0.28926704949896465,-0.29252368934146267
3.828125,-0.21880805295372796,1.1461623405367591
3.83203125,-0.37046163400758353,2.1142990836640285
3.8359375,1.01820597394402,0.8310426685201449
3.83984375,-2.5075537787879045,-0.3427445670962568
3.84375,-1.9870942303651904,-1.6386865756863214
3.84765625,0.5232268069524791,0.25215655603968734
3.8515625,-1.9498425745937176,-1.2952465245140652
3.85546875,1.07777323020167,0.2140630714195232
3.859375,-1.3357639864778938,-0.5515906864354904
3.86328125,-0.0809677105340974,0.055187938615246825
3.8671875,0.06606933728572192,-0.1324084373350884
3.87109375,-0.1662254533113963,-1.8682622770832702
3.875,0.5235398940460997,1.4329192933591035
3.87890625,1.198853003259277,1.1384403100520537
3.8828125,0.41641452777551546,0.11062652453752844
3.88671875,-0.31787893372822484,0.7211621357448409
3.890625,-0.023423962419169043,0.42714642334308695
3.89453125,0.6667326892890868,-1.793497668164586
3.8984375,0.06976080959793692,0.35722004964809695
3.90234375,-1.2584405848933629,-0.7449083011213391
3.90625,1.9997771388387307,-1.137703149828994
3.91015625,-0.14089996800468643,0.8053707767086482
3.9140625,-0.5981362303548605,-0.7743823908482832
3.91796875,-0.5602106201412712,0.8063269463418286
3.921875,-0.19744635962831894,-1.463742840757476
3.92578125,-0.020965472578074316,-1.7670367023509823
3.9296875,1.2013933862209987,0.31462947469865465
3.93359375,-0.8973281057115177,-0.24916001065304816
3.9375,1.2790782358539845,1.6060672411450705
3.94140625,-0.6016136695939497,-1.7791773105425757
3.9453125,0.029465371653858534,1.386478607150174
3.94921875,0.8311670945189737,0.5962610451166738
3.953125,0.041978502837692895,-1.3055496530087858
3.95703125,-0.08892839586253917,1.098998130945642
3.9609375,2.146394387837516,1.28709789983692
3.96484375,1.1318775298479957,-1.777343883952502
3.96875,1.7898772140236932,-0.41170315326047796
3.97265625,-0.6825502374313368,-1.6811941702114523
3.9765625,1.1492520549652405,0.07349172729315125
3.98046875,0.8625492705136998,-0.4135744594742096
3.984375,0.1913513538278849,-0.41649202453562917
3.98828125,0.8363050991877986,-1.9611007347042793
3.9921875,-1.5012355733440672,-0.8161478318892866
3.99609375,-1.1436414767010827,0.25575823125235597
4.0,-0.013088505374572195,0.1768496145649507
4.00390625,-1.053027612331956,-0.7042748824713145
4.0078125,1.7100852907895538,1.6139269710403377
4.01171875,-0.6464177642261522,0.5046386117058046
4.015625,1.6637588152986058,0.11714814575302307
4.01953125,0.9873144623286814,-1.2916628012559481
4.0234375,-1.8702701650747362,0.8551999452929199
4.02734375,0.4149155343231559,0.0999829421719103
4.03125,0.19019384475754317,1.449712347868617
4.03515625,-0.5750299491543958,1.9054884509999541
4.0390625,-0.2952682005881804,-0.06533847657449363
4.04296875,0.17573268637041,-0.7172728210454017
4.046875,-0.8881670631246926,-1.4404290084325642
4.05078125,0.7577513290573012,0.2510583496979981
4.0546875,-0.8293742346519622,0.7565433773938819
4.05859375,1.790905594678287,-1.0253448102003602
4.0625,0.06208940082689873,-1.178942335099661
4.06640625,1.410106019735531,0.3928830608092818
4.0703125,0.5509860263020944,0.8132151286875436
4.07421875,-0.37515693755949436,-1.006717547081137
4.078125,0.44651837501949615,1.0247110603368161
4.08203125,-0.10634577952467693,0.7694748293995403
4.0859375,0.1763183619187775,0.8158575405300019
4.08984375,-2.0756210456103235,-0.1273799785164535
4.09375,0.5420631135405488,-0.5995303984463166
4.09765625,0.6049222139457564,-0.4936043431369074
4.1015625,-2.327263142339315,0.009874098494322404
4.10546875,-0.9526138289961282,-0.34182727830411047
4.109375,-0.8163412139399997,1.9769628991359842
4.11328125,-1.2006575094686,-0.1471489710731406
4.1171875,0.6123343342132207,-1.3688920699512392
4.12109375,0.820626889128585,1.0670403251276317
4.125,0.9531556004700055,2.2317270250268884
4.12890625,1.297436293260845,-1.2629840735646154
4.1328125,0.1728147599836962,-0.24065379038610915
4.13671875,1.2032119408229083,-1.5108382745660527
4.140625,0.982696163311009,-1.0573538475514357
4.14453125,1.751069442174385,0.6283336052599569
4.1484375,-0.596706887248023,1.3830813209406725
4.15234375,0.027663868558642817,-0.22368734041146898
4.15625,-0.13427308661419135,-0.6902886651844383
4.16015625,0.43593806427806325,-0.7113482535103696
4.1640625,-2.526898475867264,2.330709072774031
4.16796875,-0.4292676449722843,-1.025619140049697
4.171875,0.6390966369359304,-1.8398628275484612
4.17578125,-0.2704064350149322,-0.4632777584643639
4.1796875,-0.44295108343597195,-0.173292124457074
4.18359375,0.8293282421464829,1.2671392393617686
4.1875,2.203454197681979,-1.4237796077245979
4.19140625,-0.672724242555005,0.7479843647621305
4.1953125,0.8582355122495545,-1.0082927526332082
4.19921875,1.0495693030218556,1.263574366716742
4.203125,1.7880145894287107,0.3654215454427003
4.20703125,-1.2334764145855004,1.0244613443433133
4.2109375,-0.22316367305516938,-0.8131398371284981
4.21484375,-0.336056574769345,-0.4489416161663536
4.21875,-0.7470294646020309,0.5810273409238212
4.22265625,-0.45590921853597377,-1.4867644066950436
4.2265625,1.100496324920914,0.233672984279869
4.23046875,-0.6067710889682675,0.7981850770882294
4.234375,1.5602518487618229,0.4450504666835269
4.23828125,1.6813257955824794,-0.734744908373367
4.2421875,-0.753066523130325,-0.9777124146984587
4.24609375,-1.7088398548928267,0.6063071985798343
4.25,-0.6250285155703506,-1.6136413686910487
4.25390625,0.6972977015954829,-0.5839524315147363
4.2578125,-0.978085169591149,1.0683902553233762
4.26171875,0.36882005330523016,0.2908185940319866
4.265625,0.8642656588266997,0.6480536243053793
4.26953125,-0.24306347455291594,-0.4511384506404017
4.2734375,-0.42259497454533557,0.5724756289737405
4.27734375,-0.6100608024572198,0.7118463165838342
4.28125,-0.4885621682643329,-1.3017975732092841
4.28515625,0.8238219469300828,0.6781016235337732
4.2890625,0.13582058787408852,-0.9855429539355065
4.29296875,-0.19661700470343352,-0.5650003829420672
4.296875,0.039904509019365805,0.11033282659625834
4.30078125,1.0737658682634428,-0.34857596117070055
4.3046875,-0.20022689000251398,-2.722231265529494
4.30859375,0.7656646009012924,-0.2822469392463835
4.3125,0.21161720751923685,0.7533192748926363
4.31640625,0.41863598206823077,0.619471833767614
4.3203125,-0.28525352934883363,-1.0583755135241733
4.32421875,-0.07343861621127695,-0.48293470233966296
4.328125,-1.2063241065296444,-0.06552332854294178
4.33203125,0.3081412163542966,0.5696724063185371
4.3359375,0.6239316450090472,-0.3894394571039422
4.33984375,0.9373106622294092,-0.9685657132670301
4.34375,1.1494361766980397,0.8568366179639664
4.34765625,-0.10033987517425316,-0.7768861813799153
4.3515625,0.05985934157697083,-0.8307382874924664
4.35546875,0.4340806622259931,-0.02833362734388082
4.359375,0.7447045390576805,1.2106471119615767
4.36328125,1.0598011168828119,0.7649808309011269
4.3671875,1.284728029107278,0.4030998776833514
4.37109375,1.037267208546383,-1.486745424536251
4.375,0.4506545968419829,-0.08560788009396186
4.37890625,-1.0097375943754576,-0.46549970861042383
4.3828125,-0.6512024470270347,1.5880515492094052
4.38671875,2.0666252284558113,-1.3040184917047475
4.390625,0.12197708349875705,-1.17709318662367
4.39453125,-0.3188925094185131,1.138420551799354
4.3984375,-1.0866770879993257,0.03303038322145977
4.40234375,-0.3628100231082125,-1.1284248083603579
4.40625,-0.2601528718184336,1.1146036052939137
4.41015625,-2.3675511178275936,-0.3474021064485437
4.4140625,-1.0034794633964714,0.38209574787678385
4.41796875,-0.9392135074489925,1.3135286716931627
4.421875,-0.723664711551083,-0.4040475051678584
4.42578125,1.3035918859432172,-2.53975822520757
4.4296875,1.949960640360416,0.40714040167447013
4.43359375,0.44562454534755114,-0.001295520129238041
4.4375,0.10599331934766969,0.11226626752043815
4.44140625,-0.6589370200095779,-1.7634715712131015
4.4453125,-0.05027512758512228,0.02583686062132599
4.44921875,-1.1882600748244339,-0.36399432103339624
4.453125,-0.30697644817778696,-0.9829604848836744
4.45703125,0.5110438415434675,0.32451607889041756
4.4609375,0.0877836021935958,-1.330723449174555
4.46484375,-0.807390972345365,-0.28546363668222136
4.46875,-1.0572377253825396,-0.7564550044608442
4.47265625,0.35784968348876517,-0.1663206929552174
4.4765625,0.22014583893158168,0.8094784591301057
4.48046875,0.3596236046838249,0.2707336780191881
4.484375,-0.49764818845800274,-0.09702175392396802
4.48828125,0.27946848360448806,2.110795842638534
4.4921875,-1.2099360623228077,-0.7655737103238689
4.49609375,0.23241627064420678,0.05584572797170158
4.5,-0.31576979916546294,-0.39175611187775006
4.50390625,0.6000627117195015,-0.5325521961372732
4.5078125,0.6375537750092544,-0.23038514366061894
4.51171875,1.2577135301667832,1.0026407581368195
4.515625,-1.2892255868005853,-0.2380259263214573
4.51953125,0.4533734668948581,-0.26716588533700564
4.5234375,-0.8899023596968083,-0.09163038495255701
4.52734375,-0.8555110683002063,-0.3505323336748631
4.53125,0.3180761138503871,-0.5112594811303348
4.53515625,0.9549621874225256,0.9063964756210351
4.5390625,-1.5493012040117518,-0.5410405477085742
4.54296875,0.11370438102597537,0.41763039809222463
4.546875,1.4772665857058922,0.12622269084081572
4.55078125,0.5604873831129891,-0.05507663701288216
4.5546875,-1.1747119023559351,-0.16539253428265183
4.55859375,-0.051567873962699226,-0.5381576980316854
4.5625,1.9531108711118317,0.7941659265257117
4.56640625,0.006501343367757331,0.45679758809223
4.5703125,0.275475636754729,-1.6052837445981052
4.57421875,1.2841404344576257,1.8955589181172772
4.578125,0.3947887533188472,-1.5228053598592253
4.58203125,0.8368010472609407,0.5821085968707398
4.5859375,0.7733337127226414,-1.2868171253751854
4.58984375,0.462236426996039,0.01122253395638233
4.59375,0.3296114974664371,1.641114583604296
4.59765625,-0.08503120443921429,0.9284759408476594
4.6015625,0.5595187453035493,-1.380858952749552
4.60546875,-0.7557794548512768,-0.01971768111494927
4.609375,-0.2715647938634004,-0.6561963091559574
4.61328125,1.4110141949310613,1.7144116117453518
4.6171875,0.24968877133159564,-1.1086043500379958
4.62109375,0.6156918991881887,-0.25548797006767543
4.625,-0.6920640735068742,1.8821694135323055
4.62890625,0.7970432970946745,-0.3809889380600411
4.6328125,0.6689293123625066,-0.5471465661752238
4.63671875,0.2694888698892098,-0.27930973345209553
4.640625,0.5183356993642065,-0.7325897582823436
4.64453125,0.6059836822775474,1.0781850460298377
4.6484375,-0.6886818646723667,0.015194940940129022
4.65234375,-0.734021161092663,-2.5834034702683035
4.65625,-0.6512474150046285,0.6857076065235218
4.66015625,0.49405628312663624,-0.5689350493666098
4.6640625,-1.4711137184897383,-1.701719830365629
4.66796875,0.06391363238077537,0.3881473616038528
4.671875,1.408725610880357,-0.0004068716190506061
4.67578125,0.45334493136883786,-1.574581679658007
4.6796875,0.006656605151297571,0.8768431608326772
4.68359375,-1.1144854260850592,0.39499621179524763
4.6875,1.2991085081690479,0.17241047380934368
4.69140625,-0.8396863595266719,-1.3905482887566836
4.6953125,-1.8269492198024997,0.052366893665719845
4.69921875,-0.2365361733727872,0.8895780170405014
4.703125,1.1596786864148028,0.02195731024109082
4.70703125,-1.9708087838060322,1.0236056690709836
4.7109375,1.892406476686008,-0.8365009369756684
4.71484375,-0.25714215069049773,-1.762331111852704
4.71875,0.6761365719908511,0.35569615449597636
4.72265625,1.7042347337617685,-0.37117055993226966
4.7265625,-2.019626368522686,-1.1663499274456508
4.73046875,-0.15846995166847136,-0.22915769269425812
4.734375,0.7175699263470307,-0.9137771366710267
4.73828125,-1.0918184940989109,-0.93860854667941
4.7421875,2.6592720032336215,-0.7253973924915892
4.74609375,-0.6839705325489456,0.6194193321016072
4.75,-0.36593958631051876,1.4858339401070373
4.75390625,-0.7231840260098956,-0.7062878246126344
4.7578125,-0.1545135277207879,-0.41176148862768086
4.76171875,1.852575511350765,1.3114135536080218
4.765625,0.2428999921755091,0.5320681910113513
4.76953125,-1.326750137206029,-1.7670796219541176
4.7734375,-2.351704910488928,1.9104578854233973
4.77734375,-0.10335783696535324,0.6568862063813464
4.78125,-1.3816866502536185,0.19893013531142953
4.78515625,-0.2973203631495843,-2.6671841246549617
4.7890625,0.5873165039145132,-0.4876873245128457
4.79296875,-1.0030905490572992,-1.5750501387863018
4.796875,1.2493582424361018,0.2523522615344653
4.80078125,1.8439838991414228,0.9578869475354226
4.8046875,-0.578103075627745,1.9325406805729377
4.80859375,-0.7978976680643152,1.0460743021494594
4.8125,2.1563657038147594,-1.463817934036491
4.81640625,-1.3726013215011954,0.4900685032677727
4.8203125,-1.555524537090332,1.8940888376981422
4.82421875,0.2888250752273643,0.07929982896361798
4.828125,-0.2872388202646922,-0.5880136641541119
4.83203125,-0.4256994403140507,1.0317255641764929
4.8359375,-0.26562557049142976,-0.13384625308899414
4.83984375,0.5851368950420262,1.3330040128285277
4.84375,0.9556634580981817,-0.3268634256247893
4.84765625,1.0631214148805583,0.43363703912957846
4.8515625,-1.2959050097644416,-1.6170914466964612
4.85546875,-1.2808977022776884,1.1102661216391843
4.859375,-0.7773942573070373,0.7407617408113327
4.86328125,0.49997644876949154,1.9199909501310213
4.8671875,0.4141192296749377,2.109923730781101
4.87109375,-0.5189795302174164,0.6555501758080279
4.875,-0.18100559735559846,-1.4219710784592652
4.87890625,-0.7506030732662036,0.5146040333270824
4.8828125,0.33404642139046326,0.33882608845952383
4.88671875,-0.09909423063287225,-0.6412087641949599
4.890625,0.031031432255406673,-1.4564408403574398
4.89453125,0.03636577201786572,-0.905552223967969
4.8984375,-0.17332947405722046,1.226673366726966
4.90234375,-0.9588340547976406,-0.8362120291815985
4.90625,0.07374478409114459,-2.4027694858891526
4.91015625,0.7118325698135817,0.7294130768372499
4.9140625,-0.29922347066376515,0.9785606128123853
4.91796875,-0.10583408729034524,1.034883557719123
4.921875,-1.6763465756880582,0.351439748835524
4.92578125,1.3134143329167065,0.0182705537660326
4.9296875,-1.3002536451562727,0.511183891197787
4.93359375,-0.3521201880598301,0.47176032548192837
4.9375,0.560317118385499,0.768439727363412
4.94140625,-0.7130392276738047,-0.6807620937007298
4.9453125,-0.20000029650048542,-0.2826552435229637
4.94921875,-1.5685546334362026,0.7316329992267132
4.953125,-0.00802840480589319,-0.06629851486748256
4.95703125,-0.40715108873847533,0.48164133822952215
4.9609375,-0.03626993411320709,0.4904383946020391
4.96484375,0.8817477810434307,0.4631836235416942
4.96875,0.17123669617131804,0.6762790045472986
4.97265625,-1.129449624543029,-1.4175084150370483
4.9765625,-0.3796233451862995,0.05133670290664986
4.98046875,-0.15261398640446167,0.7549030909415235
4.984375,0.22689826418746376,-0.10968099871270211
4.98828125,0.5672981524041151,-2.0567912755925533
4.9921875,0.16401793850677435,0.41603125317770906
4.99609375,-0.28078435573899047,1.0795591118741887
5.0,0.14442247052323612,-0.691781808832456
5.00390625,0.5060723433083929,-0.27024658745045094
5.0078125,-1.4051867156645763,0.006665255004429621
5.01171875,-2.45996059795327,-0.31201737825455383
5.015625,-0.020187906223016944,0.1153381256444866
5.01953125,1.6733674664262135,0.9211265108588794
5.0234375,0.6755946030447447,1.5372082773053104
5.02734375,-0.5102751906933373,1.7128146368023538
5.03125,2.543259511769009,-0.14220687553750955
5.03515625,0.9536751986128595,-0.13840276907492355
5.0390625,-0.6300823806115449,0.6130831770095954
5.04296875,0.024118536451760347,1.8934497394917003
5.046875,-0.6271077153906537,-0.9848253557594915
5.05078125,-1.4646683081015264,0.6678323051783507
5.0546875,-0.2576608902684579,0.7494418559365085
5.05859375,1.7221370589138418,-0.7195877287413812
5.0625,0.9361209691827438,0.8509914624552742
5.06640625,-1.8113410586506953,0.27911182687739
5.0703125,-0.4536552185307504,-0.7113366657116268
5.07421875,-0.32568760914100486,0.4565324276617241
5.078125,-0.734860542296718,-0.8341971938421879
5.08203125,0.6533393261411488,-0.7126745327004064
5.0859375,1.8356509280845865,-0.1833909693856785
5.08984375,-0.5441045969588004,1.1035324063502694
5.09375,1.9755879817299826,-1.685320052310548
5.09765625,-1.5342196560201204,1.8329242566076709
5.1015625,-0.5448016918644814,-0.0336597371029141
5.10546875,-0.7029277301009886,0.8714352758396502
5.109375,-1.0872829251628517,-0.30454231296197865
5.11328125,-0.27175336030323693,-0.251313579901436
5.1171875,-0.6138747358575892,1.7109430336824283
5.12109375,-0.10621657416467521,-0.20038706602514073
5.125,-1.481102382247472,0.14235327756276653
5.12890625,0.8368913674447178,-1.4857924638879954
5.1328125,0.20122863229792395,0.8051336080867614
5.13671875,-1.2450137965609849,-0.3091618523803557
5.140625,0.002844414612254163,-1.4036580487344195
5.14453125,-0.241486361259336,0.4768359674297058
5.1484375,0.41827112830399005,0.6549312740126555
5.15234375,0.8414130450114532,0.27935787504972437
5.15625,1.7553977198664448,-0.36601077024631296
5.16015625,-1.8768115716988203,1.147605539091381
5.1640625,-0.03003523256370088,-0.08472216417215049
5.16796875,-0.7427198243274669,0.0325443622066951
5.171875,0.10557627834114344,0.8934324683302798
5.17578125,0.37585746255232644,0.6326165552002213
5.1796875,1.0046417659418536,-0.08065445090961618
5.18359375,-0.646704710112219,-1.109373444536952
5.1875,-1.5959046801584347,1.1804590698867203
5.19140625,-0.10870506091289016,-2.057115751915578
5.1953125,-0.5338626309427998,0.39314145476317314
5.19921875,0.6604152102277127,0.7295120824943521
5.203125,-0.3687511333675303,0.000466757478790396
5.20703125,0.6961472958180599,-0.8214925582961579
5.2109375,0.17167302332828188,-1.0726812141059017
5.21484375,-0.7209931814058448,-0.4211936342591773
5.21875,-0.09744694432934932,-1.5726513205609096
5.22265625,-0.9858862343524023,1.1645525591863377
5.2265625,0.22486527466490713,-0.3351239946139279
5.23046875,-0.7109254868149231,-0.8224352562023598
5.234375,-0.5448626156091505,0.0790713791124369
5.23828125,-0.8578556568247035,0.25964648853606936
5.2421875,-1.0359078950416971,-1.6283312524995122
5.24609375,-1.716100364891827,0.733443657492167
5.25,-0.17371521831996195,1.0053672838278989
5.25390625,-0.3606621418306422,1.2350865777368878
5.2578125,0.9024783089760204,-1.447594006473689
5.26171875,-0.6777473688918363,1.306201217746217
5.265625,0.3510601840847557,-2.4511668664644244
5.26953125,0.071976199954088,0.09530210503883733
5.2734375,1.4045908094650155,0.22481875448835098
5.27734375,0.09640764894647283,1.0617210154579144
5.28125,2.6330676363377425,-1.7714613848528655
5.28515625,-0.8615323887724261,0.607181841281063
5.2890625,0.2511710813516705,1.9102718835871741
5.29296875,-0.28468741162831196,0.8449174883615059
5.296875,0.17675840382964825,-0.3556525700156721
5.30078125,0.46248987006007813,1.701108359064268
5.3046875,-1.3400250947457308,0.0777999253597691
5.30859375,-0.1015448126737632,-0.9568428689643023
5.3125,0.266035317229936,0.04418561243367151
5.31640625,1.5176303716039452,1.3927339755312622
5.3203125,-0.18959068610259203,0.5947465292590843
5.32421875,-0.5072570482053121,-1.4593071805673001
5.328125,-0.15200624556131304,0.03129042052490298
5.33203125,-0.11289560483988935,-0.894580676656269
5.3359375,-1.1034943257949699,0.322788570504129
5.33984375,0.26524728074974135,-0.2425859713130718
5.34375,-0.28342435055402354,-0.1249857352868572
5.34765625,-0.5972511885828196,-0.06570056445188012
5.3515625,-0.7381126011541947,-0.07619305742745307
5.35546875,0.6579119117401333,1.4611677818086535
5.359375,-0.6824703988248342,-0.4314796840277592
5.36328125,-0.9435881637638366,-0.5915356946036973
5.3671875,1.534470349446405,1.9034660974235245
5.37109375,-0.6349858105265955,1.5687852985105388
5.375,-0.4981187877682979,-0.08288490760072659
5.37890625,-1.0700410273003653,-0.9196233476165562
5.3828125,-0.9850548456467447,0.729638861852169
5.38671875,-0.8546729254277482,1.5006742771060626
5.390625,-0.2420007208252118,0.9799495748808279
5.39453125,-0.24841115651937132,0.056290812338175324
5.3984375,-0.38423783419517077,2.353623558218732
5.40234375,-0.005391654618282808,-0.10925854701619263
5.40625,1.1693813768746173,-0.39219648983649913
5.41015625,2.6027915493039906,1.6465182696179557
5.4140625,0.41877909095928434,1.81528345495285
5.41796875,-0.14692837730050934,0.15584968653541925
5.421875,-1.1463619439252826,-0.789316943386242
5.42578125,0.02478226277427166,-0.5262586999735268
5.4296875,-0.4151237104034453,0.49611052420433405
5.43359375,0.5884076438575258,-0.21498341764554824
5.4375,-0.6945875965563943,0.6757247743519481
5.44140625,1.5700023828265075,-0.009441337243997643
5.4453125,-1.1988173757196035,1.486628965267992
5.44921875,-0.2762031647398599,2.4777927349163527
5.453125,0.42301114617860386,0.2930995154462885
5.45703125,0.24999306699319654,-0.5520644168887718
5.4609375,0.7898113786578708,0.08029179691605785
5.46484375,1.205094080623419,1.4460358232194388
5.46875,1.6956275823764502,-0.32110157954303226
5.47265625,-1.4304339249977767,-0.8006994863280811
5.4765625,-0.14458760560598327,-0.6920196075054216
5.48046875,0.6889231387574274,-0.3328372980241471
5.484375,2.348502753578578,1.4605544540439497
5.48828125,0.3004317846537341,-1.0952779857345765
5.4921875,-1.0909071066110068,2.3395091430166994
5.49609375,-2.60190915411934,-0.12692377634998567
5.5,-1.9560683054408843,0.13713444802245947
5.50390625,1.09372695002712,1.9998597349818303
5.5078125,-1.4763599022350995,0.2981484469246575
5.51171875,0.4925379125049544,-0.7730241376672145
5.515625,-0.4729641927071031,-0.8676032075438317
5.51953125,-0.07749609392250677,0.7266681259397043
5.5234375,0.4850029322391738,-0.47265618037036256
5.52734375,1.105323094247116,-0.6434222421640065
5.53125,0.7415981937802094,-1.0546466669913015
5.53515625,-0.5960622410656004,-0.4973491898702291
5.5390625,1.1901025674584789,-0.2564222065395128
5.54296875,0.6357498112174937,0.3583521406840307
5.546875,1.587799662623291,1.225834585740158
5.55078125,1.5737448965194125,-1.8492673358175062
5.5546875,-0.2638615295032732,1.4592107236365774
5.55859375,0.28465025714671416,-0.4189605414072532
5.5625,-1.3648485898919795,1.4506694044833608
5.56640625,-0.17209847034924805,1.316937764268535
5.5703125,2.1574648290805105,-0.5398726657588848
5.57421875,0.27622662675732496,0.33114588079985563
5.578125,-1.2638914511421584,0.7773499480630425
5.58203125,-0.28797250393183305,0.6470559696112402
5.5859375,0.8593707691493939,-1.0879979954236747
5.58984375,-1.1410583685392803,-1.4203153685244236
5.59375,2.524065047672287,0.7581352129465873
5.59765625,-0.21365249372001938,0.5475618793449141
5.6015625,1.8912356763598768,-0.2867397947726707
5.60546875,0.2981661144618698,1.7689561820974091
5.609375,1.5330963911655666,-0.4446878100152495
5.61328125,-0.6025324767681203,0.8270546895124256
5.6171875,0.21611554226554164,0.481038690419153
5.62109375,-0.32773478713936927,0.06591299914335311
5.625,2.524311312570268,0.09649721105922562
5.62890625,-1.8708019304619656,0.8520301647474103
5.6328125,1.1324688943697232,0.4442480957403241
5.63671875,-0.26993458398318876,0.5493753647300698
5.640625,1.0793956323610405,-0.08972150018518746
5.64453125,-0.0942418567679364,-0.9776860399970124
5.6484375,0.09539545228286546,0.809174849072031
5.65234375,0.4936429397892417,-0.6965711824848849
5.65625,-1.5294334452017029,0.3646006251676897
5.66015625,-0.9172569396398517,0.007002344988511391
5.6640625,0.9175151979140022,-0.789395994283777
5.66796875,-1.8225681798657178,0.9927918693496666
5.671875,1.0796816955931652,0.6801555983549208
5.67578125,0.026607851179301603,0.03177663303869336
5.6796875,0.03729521434958226,1.3075724059518865
5.68359375,-0.13807430721275815,0.10330501458579572
5.6875,1.0149309545088723,-1.0604470833819133
5.69140625,-0.24830825284262079,0.3877539671969999
5.6953125,-0.6863226233276687,-1.0466231393667376
5.69921875,0.5663979426797655,0.3494669472089251
5.703125,0.3616545032627382,0.11414648653533326
5.70703125,1.0517466184883832,-1.2617588544090315
5.7109375,-1.063032341368139,-2.2463741102465664
5.71484375,0.22082409178315246,1.5957906926251417
5.71875,-1.626635022270311,-1.5154928198132418
5.72265625,0.5542820908003788,1.7901564522381739
5.7265625,-2.2274480054528474,-0.34454446582861487
5.73046875,0.5414852133054506,-0.2467870333226065
5.734375,-0.9241402809004258,0.20656923688372347
5.73828125,-0.7514330576662441,-0.8471555409531414
5.7421875,-1.2253232995993162,0.6844414720904735
5.74609375,1.4098095364003616,0.2294281423908785
5.75,0.16344260213777115,1.59943375206944
5.75390625,-0.921751315816233,-0.02347439177502641
5.7578125,-0.9546653394554646,1.2822610183473782
5.76171875,0.5931468634678827,-1.179359936212487
5.765625,0.7099423854568877,-0.1745794430252629
5.76953125,0.27347210437525427,0.8522253844849834
5.7734375,2.5780183598969515,0.634040961333976
5.77734375,-1.3099758156575507,-0.6087341241029458
5.78125,-0.24629229296202712,3.071712250917892
5.78515625,-1.3473746158374709,0.4555610512816287
5.7890625,-0.8890121055443586,-1.4469338611751088
5.79296875,1.1463987022141366,-0.4718351389069221
5.796875,1.5381880917930992,0.5895128962926253
5.80078125,0.8472386967508095,-0.22562277122066374
5.8046875,0.9110248738239489,-0.5450255038567257
5.80859375,-0.44357802528663787,-1.0198290625350124
5.8125,2.1932551994667726,-0.25533584006896715
5.81640625,-0.37921502603518653,-1.6268393246255441
5.8203125,0.8333841685319126,-0.6098073658621131
5.82421875,-0.9450959324246909,0.28950159810145215
5.828125,-0.002312113659089665,0.09151768334730595
5.83203125,-1.3685476644365233,1.3881649101248517
5.8359375,-0.7116444589697449,-0.3373626853824037
5.83984375,0.2304384554900316,0.026846827226121233
5.84375,0.04543418731777126,0.09363658038859357
5.84765625,0.24576282038048422,1.6345495124965217
5.8515625,0.0307806551302741,0.9763504252096172
5.85546875,-1.6691588987136634,-0.9436995332344116
5.859375,0.5449711404911632,-0.4666557214350504
5.86328125,-0.47156444174868106,-0.4804419475425102
5.8671875,0.45886957649840804,0.0076421863098066435
5.87109375,0.26919315085753004,-0.08551058888358623
5.875,1.2749081931549244,0.29606666841568285
5.87890625,2.365165901325121,-0.6616081851304193
5.8828125,-0.34575380225559843,0.5514494212702384
5.88671875,0.6677667369518844,0.4895227042156246
5.890625,-2.270860436489636,-1.4959029259345722
5.89453125,0.16314938427419254,-0.9704551329995887
5.8984375,0.4817626459833674,0.3989344310586723
5.90234375,-0.8697377531896832,-1.1546869786278062
5.90625,1.040481778842259,0.4911551178468112
5.91015625,0.6005740476411882,1.3756999875579043
5.9140625,-1.4193265674481645,0.3178014427051834
5.91796875,0.8801948805660605,-0.011913988820200196
5.921875,1.8020345531207198,-1.039851303081569
5.92578125,2.034104365308703,1.177399826167135
5.9296875,0.1860941721617921,0.1025651274354653
5.93359375,-0.27701208854184795,-1.2562913222636634
5.9375,-0.37545676649674403,-0.22807067875730014
5.94140625,-1.3280990070473069,0.7667794620795421
5.9453125,-0.2986438321743702,-0.7640728918763868
5.94921875,-1.0936081281940815,-0.8453062987365947
5.953125,2.00095441752869,0.5983377178601549
5.95703125,0.24365124277581438,1.0061988439010123
5.9609375,-1.2141465379651541,-1.930025628860568
5.96484375,-0.3666249092617691,0.6394710882762732
5.96875,1.160549396893533,0.22302634434962343
5.97265625,1.327278037229907,0.28924967821353664
5.9765625,-2.0632605270606486,1.405131904906741
5.98046875,0.5892693981972346,-2.6446820046964135
5.984375,-0.2148875482222042,-1.273570709501688
5.98828125,0.07751343901969995,0.3674602810341925
5.9921875,-1.089235853235736,-0.4456579436008348
5.99609375,0.9155966084245799,-0.13394350610834438
6.0,0.9091653141358587,-0.6237010990399932
6.00390625,-0.1850035815925363,-1.0551483316722825
6.0078125,0.6079437932956433,0.9012087908167626
6.01171875,0.3188588090841036,0.6515117093459905
6.015625,0.05389556756478248,0.9096062447712304
6.01953125,0.9126817052664203,-0.24533536451355906
6.0234375,0.46367440041584096,0.3419838823864266
6.02734375,0.0732914695552883,-0.5857674714291451
6.03125,-0.7117530487589978,-1.1863366025003217
6.03515625,0.9957273879746731,-0.5957045164928673
6.0390625,0.16048008288198226,0.2649198023931343
6.04296875,-0.7614304249158257,0.9267901236681286
6.046875,0.6406249269158273,0.4977150069964031
6.05078125,-0.292363005482037,0.1425056848309518
6.0546875,0.5573370939415994,0.4733957132967786
6.05859375,-1.363792925403051,1.1639280223117607
6.0625,-0.42025883095300803,-0.14687663887417932
6.06640625,-0.3852657478709275,0.7570617540309876
6.0703125,-0.407872524852359,1.1954890902403241
6.07421875,0.47468528991162473,-0.6043339192563292
6.078125,0.31056287622521145,0.5310239702457346
6.08203125,0.8453733887304242,-0.4259050651413803
6.0859375,-0.8194216271138923,0.6529267421900069
6.08984375,1.4838060891422777,1.0147289337862837
6.09375,0.20734127721540815,-1.3255340452500548
6.09765625,-0.04267799121824439,-0.8973359642247465
6.1015625,-0.11705127701631639,1.0911865906160243
6.10546875,1.925458815942821,-0.32128145057924873
6.109375,-1.2825366387091748,0.2421075446196501
6.11328125,0.5725484240832446,0.16748107464848144
6.1171875,0.8074033490783172,0.11707078965048356
6.12109375,-0.7535575553043993,0.8192689525332972
6.125,0.635452827430471,-0.22541675751087345
6.12890625,1.751654700554938,1.88032883971087
6.1328125,0.38486766387372007,0.9557698869016886
6.13671875,1.8718146725886908,-1.5925944763265747
6.140625,0.16827620841925833,0.9279214926524555
6.14453125,-0.055235347095992406,1.843066462772406
6.1484375,1.785952939768799,1.7429016152877788
6.15234375,1.63908924689861,0.389711979131614
6.15625,-2.209342518874598,-0.3738561174804939
6.16015625,1.0014077618204156,-1.4225113923397736
6.1640625,-1.3484342025684373,-0.5725644627187135
6.16796875,0.24345003496936163,-0.9529439191770744
6.171875,-0.8092545340737561,-0.137617484457794
6.17578125,-0.02248633026584393,-0.9305164879349086
6.1796875,-1.3705588471128785,-2.197816808665784
6.18359375,1.5575346181478211,-0.48194576718975796
6.1875,0.816428249288657,0.010910337583715513
6.19140625,0.25939207655901914,0.49853576395618476
6.1953125,-1.647057982180559,-0.7545412535399423
6.19921875,0.9767301391551003,-1.6805484791250216
6.203125,-0.7189784662669988,-0.16866814395659938
6.20703125,0.19082860224954798,-1.1622683832611371
6.2109375,0.20796167956295786,-0.25013057896705565
6.21484375,0.38163814052747197,-1.4819069742332953
6.21875,-0.08489112278760912,0.8317076821886464
6.22265625,0.22376838530235627,0.432260894289411
6.2265625,0.8984553712436387,0.601905104846048
6.23046875,0.5403703857659055,-0.16336888606051014
6.234375,-0.4465165986149867,0.5387620736512271
6.23828125,-0.2628179748336865,1.254079304885549
6.2421875,0.4638788948437349,-0.5711955107737705
6.24609375,-0.7924333287129839,0.1543388928497561
6.25,-0.9619888336204233,0.4029203546642833
6.25390625,-0.6173704877452802,-0.2944741228952332
6.2578125,0.9437243391403468,-0.8718154868716794
6.26171875,-1.05609270414668,0.45770879791537283
6.265625,-0.6896281507366284,3.348842534914626
6.26953125,-2.826437171777877,0.24417713241283806
6.2734375,-1.1680270896543499,-1.78809913924286
6.27734375,-0.12350826461613028,2.5273300757130803
6.28125,-1.1870556773208178,-0.05596043041659122
6.28515625,-2.210298175786126,0.7645230221781533
6.2890625,-1.085669018218343,2.4567480606208005
6.29296875,0.3580064184908258,-0.16757790935027003
6.296875,-0.45006757098725586,0.3254646720325248
6.30078125,0.3640930419854412,0.34239417339048417
6.3046875,-1.3561259616779942,-0.16237331533476
6.30859375,-0.28127143688712486,-1.003536195003489
6.3125,0.70830530005136,0.41955048635217407
6.31640625,-1.4329341307491876,0.1254159539343001
6.3203125,0.15313015580085038,0.6450675585522883
6.32421875,1.2748226734150614,1.6122625557576593
6.328125,-2.8801310323973524,-0.1136425971149228
6.33203125,0.9648422431956408,0.4740033216979854
6.3359375,0.8851759519511241,0.07934864335769938
6.33984375,0.35039531015690456,-1.0140133382690064
6.34375,0.19568340053041383,0.17999060571318776
6.34765625,2.05743989109416,0.3717954477301887
6.3515625,-1.1747568479910215,0.08652139282466415
6.35546875,-0.791965626902055,-1.227918203882907
6.359375,-0.44449188145273705,-1.2135881824095736
6.36328125,-0.8506808219058626,-0.4231893066507117
6.3671875,0.8927288403714153,1.0600022017474025
6.37109375,-0.40247271259026424,1.0387475468130958
6.375,0.5993317815192798,0.4754193952865842
6.37890625,-1.1573135467200393,-0.5248967413337702
6.3828125,-1.614947115949256,-1.591873380008013
6.38671875,-0.4455664771037786,-2.205496714719014
6.390625,-1.996521189895822,-0.30908164948582945
6.39453125,0.8967769623980106,-2.2425409368351468
6.3984375,-0.8635541958621894,-0.8463964063634402
6.40234375,0.7838238826272494,-0.01619915149293364
6.40625,-0.7269460088350751,1.111056368248477
6.41015625,-1.5883370650464794,1.2109070247796754
6.4140625,-0.7063652967287233,0.2591004670615916
6.41796875,0.2528868914455854,1.5184438148688328
6.421875,-0.7011345855244515,0.39725514049413313
6.42578125,1.123012616152461,0.12959133475346254
6.4296875,1.421861527871234,-0.9255070338315775
6.43359375,-1.4624575332835952,0.9536469380478214
6.4375,2.1112940628758774,-1.1870333410949618
6.44140625,0.8981042534194372,-0.4856907199595295
6.4453125,0.19008933981590415,-0.28035510536880043
6.44921875,1.1106222955143419,1.3119446050945252
6.453125,-0.827942182487758,-0.12887012950734814
6.45703125,-0.46841743440088246,-0.8875472344516737
6.4609375,1.5198949797215513,0.6079280029981863
6.46484375,0.3371205488752208,0.246985125456011
6.46875,1.3138643016484888,-0.564280685890064
6.47265625,-0.6537970104083692,-1.0590225371621393
6.4765625,0.32167188150829845,1.0961939070745472
6.48046875,-1.0011606667479254,-0.7712229496897225
6.484375,-0.3162896145549563,-0.13816366800860438
6.48828125,-1.535620183679065,-1.2171010211937978
6.4921875,-0.3829985593390204,-0.33920842436521736
6.49609375,-1.1072472107605094,-0.6828627712728057
6.5,-0.1799991164358754,0.5051345842929724
6.50390625,0.4230423118590397,0.8891422617642667
6.5078125,-0.4867802182189851,1.8201160371970626
6.51171875,0.13482609531870896,-0.9824309431165976
6.515625,-1.0970960866092323,-0.1921445502491715
6.51953125,1.2648365192243767,1.471665097167202
6.5234375,-0.5357881616111708,-0.10284089960760492
6.52734375,-0.7749610504434453,-1.395054313657007
6.53125,0.4640111360092631,-0.5984005166833113
6.53515625,1.0189508759469013,-0.7151910477425806
6.5390625,1.3192657358761182,0.40714049275689745
6.54296875,0.21093082994152926,-0.3196795851705574
6.546875,0.1167237597911338,-0.8773433685100989
6.55078125,0.9054087548685732,-0.39237772696689355
6.5546875,-0.6399186712611954,-0.6162623572252762
6.55859375,0.7389979422059367,0.6195752704350982
6.5625,0.7314284395376752,0.18250432474123468
6.56640625,0.5822615214350305,-0.5452461796544906
6.5703125,0.22691814191709417,0.719973505724242
6.57421875,-0.5573646082874432,0.5400459458592829
6.578125,0.2649047881411423,-1.4654123092794151
6.58203125,-0.18157467494409646,-0.8364565405367356
6.5859375,-2.3648047325854105,1.159549752622602
6.58984375,-0.19876423232902712,1.1013851846808684
6.59375,1.2035627237453381,1.0146861518212675
6.59765625,-0.13750500504419538,0.7327405159331157
6.6015625,-0.7316230133612879,-0.8258788806938354
6.60546875,-0.28433185559758994,-1.243732689372923
6.609375,-0.3898773385528089,0.3546321029545732
6.61328125,-0.0707535155828122,-1.7268119991409947
6.6171875,-1.2478026808953255,-1.0708217745168829
6.62109375,0.8835381697563619,-1.5912935110272646
6.625,-0.7930740499929257,0.9818077367395022
6.62890625,-0.9323933031958472,0.02923084850923597
6.6328125,-0.5973246786484744,0.9098428080447154
6.63671875,-0.1489360202933168,0.601301683270885
6.640625,-1.0251867249853535,1.0661641074984016
6.64453125,0.09468204886479324,-0.3705293502207866
6.6484375,-0.13733266171688216,0.11301113089687792
6.65234375,0.09555147417640346,0.3509585770583857
6.65625,0.29090192562270784,-1.9673429659661519
6.66015625,0.6871265409509858,0.8398488952147257
6.6640625,0.5595618303411766,-1.4136949282148923
6.66796875,0.8227998490904197,1.4249301922838797
6.671875,-1.5225686809420447,0.8661888011473556
6.67578125,-1.190888805568888,1.5631108319426683
6.6796875,-2.6988530465344107,0.7880612653307634
6.68359375,0.24864658531840145,0.01216499302667137
6.6875,0.4727060255886044,-1.4125920171102426
6.69140625,-0.15619147864638294,-0.18208127746076982
6.6953125,-0.1234050984738352,-1.3949332010855793
6.69921875,1.545829383049725,-0.26283509709329633
6.703125,-0.07506502649836713,0.1433443605954517
6.70703125,0.2526374945029764,0.8780146802627422
6.7109375,-0.3978234083567837,-1.0296435534600954
6.71484375,-0.4447539138745398,-1.6632621181310252
6.71875,0.3192425868111631,-0.14759138210753642
6.72265625,-0.7950190309391326,0.0761839159848971
6.7265625,-1.0324199131722174,-2.2362940152881166
6.73046875,0.30803170524178397,-0.8627776175105724
6.734375,-1.7249891559182924,0.07552269170390187
6.73828125,3.012748740815025,-0.09883338851030406
6.7421875,0.3982767869263839,-0.7258437855787299
6.74609375,-0.8887447315320492,0.5844839720731088
6.75,-0.3895275485937145,0.31704279895088533
6.75390625,-1.1235798628953964,-0.08257140543862543
6.7578125,-1.2499083047201223,1.588586990745831
6.76171875,0.3399298898772355,-2.13368501547504
6.765625,-1.7642813459596287,0.7470985738311514
6.76953125,1.0185656253742945,0.2982724366360922
6.7734375,-0.8689906793947236,-0.5488472472664021
6.77734375,-1.7181499867203847,-0.8516999318097759
6.78125,0.04543753017178753,-0.5126023543112866
6.78515625,-1.0146802922730829,0.38438801647330406
6.7890625,0.5633813047050116,-1.4198536017646264
6.79296875,-0.8357079345549837,1.6832830553684854
6.796875,-0.18941356378168575,0.0249486856974668
6.80078125,-0.12518869189368528,0.17240194427286565
6.8046875,0.7601889809988267,0.4811378506245466
6.80859375,1.186578423711361,-1.0773368211687515
6.8125,-0.7915744395866391,-1.4597779341469992
6.81640625,0.26028295076596475,0.12321926137000944
6.8203125,-1.1783224459890542,1.2576634228700219
6.82421875,0.5965695191355015,-0.207131432667279
6.828125,-0.3290476482314536,0.528442808344566
6.83203125,1.1503132012747175,2.719738182110852
6.8359375,0.3037069515565555,-0.18410129714216286
6.83984375,0.13339364061890774,0.7512770091379897
6.84375,0.3312690557938409,0.549104756378481
6.84765625,2.1790545419345184,0.5304047721601772
6.8515625,-0.8412556698721912,0.2499916910075167
6.85546875,-0.5262780045927189,-0.46933686656076146
6.859375,-0.11481283895322558,-0.16376465199450124
6.86328125,-1.1504265189560061,0.22036959982491797
6.8671875,-0.9413391873102859,0.7831261857434404
6.87109375,-0.23020265538992946,-0.6211941718440427
6.875,-0.3452696784216153,0.7690955973704324
6.87890625,-0.7034092066157032,1.1210560266993486
6.8828125,1.0134919150810093,-1.2545939022061585
6.88671875,1.0885471317015816,-0.009524308740457014
6.890625,1.2255247158212874,0.36591686331115875
6.89453125,-0.6380656225042661,0.9480703210242106
6.8984375,-1.2514585191714316,-1.4230055012996237
6.90234375,1.8304721833687787,0.012824819933625024
6.90625,0.5879269481340169,-0.4870189741463294
6.91015625,0.6879440077686493,-0.008065256373478486
6.9140625,0.13106633545758634,0.2116462973106147
6.91796875,0.26625771015408156,-0.6492386133182383
6.921875,-0.1008276591219622,-0.1728054473045347
6.92578125,2.2608807964139,0.39610403670404915
6.9296875,-0.5296230501733327,0.13443830514459076
6.93359375,-0.4420175092165701,1.4624494995360362
6.9375,0.11036341894012627,0.9424751171843492
6.94140625,1.570694864502353,-0.11649526973221862
6.9453125,0.6476716299453809,-0.9610065300344891
6.94921875,-1.0660428753401403,1.4210498391448712
6.953125,-0.5611960635827099,0.22108177087835285
6.95703125,-0.57865832060301,-0.5057642816501777
6.9609375,1.197035165607369,-0.40266822674379044
6.96484375,-0.8985681217286119,0.05887147534745483
6.96875,-0.09167483528178019,-3.4907497281295012
6.97265625,-0.805346885138672,1.5743093610213867
6.9765625,-0.5016707490537082,-0.4761925637737978
6.98046875,-0.5933161717168689,0.7988024327740484
6.984375,0.9823460577817054,-0.06674521499243459
6.98828125,-0.42433066455102514,-0.6657257304765781
6.9921875,-0.049732245348762937,-0.7122526790476601
6.99609375,0.6364369325492948,0.8783900676750304
7.0,-0.4724609262919249,0.7580604405649399
7.00390625,1.0717429742276925,-0.6633728804890494
7.0078125,0.867676819046008,0.15091745185462194
7.01171875,-0.03370946488227814,-0.8703765558350703
7.015625,-1.1479610502119364,-0.9841046884959757
7.01953125,-1.6388876000024235,0.19924885864478892
7.0234375,1.2411888554179547,0.5783677490885595
7.02734375,0.8319166812684405,0.4285246696284903
7.03125,0.042038448954313634,-1.1042224250149049
7.03515625,-0.5020143778791123,-0.7472279152795928
7.0390625,-1.3192163172087474,-1.300269361643754
7.04296875,1.3337330463966364,-0.6845906976512249
7.046875,-0.38964273560662765,1.6913142811081194
7.05078125,-1.5821957626412264,0.45799851264858504
7.0546875,-0.4426264454398885,0.7966400702279766
7.05859375,0.8719087181564797,-0.42578881144509745
7.0625,-0.8796213729952692,0.4437468601980839
7.06640625,-0.5151520317662232,0.5744043227906585
7.0703125,0.38756370750830765,-2.782527578416317
7.07421875,-1.3985450578142817,0.4640148588728203
7.078125,0.06817270330243265,-0.12337951446558328
7.08203125,0.7548576417569831,0.39917733561289226
7.0859375,-0.9398320125659884,1.0731083147384974
7.08984375,1.840173935473031,-0.9383243618862518
7.09375,-0.9350515754806461,0.8133760654894796
7.09765625,-1.2296896978203629,-1.0442536120356203
7.1015625,-1.865831222762518,0.8341132841760937
7.10546875,-0.747841398583833,-2.3750415852633835
7.109375,-0.02097090489964372,-1.6728001338462366
7.11328125,1.4511446653967668,-1.680438837739815
7.1171875,-0.06548626795411512,-0.2372161127494253
7.12109375,1.045315056440996,0.3114738225165716
7.125,-0.44491749119310053,0.2208613878620866
7.12890625,-0.2591000676964697,0.4100694879285885
7.1328125,1.1851260882821515,-1.5311429917786958
7.13671875,0.26869244266488473,0.7849325765136288
7.140625,-0.5808050115258513,0.7475978445533438
7.14453125,0.6295538644528123,-0.6180983360452058
7.1484375,1.2027374031330702,-2.2630573008325574
7.15234375,0.9644277534478793,1.491085548892881
7.15625,-0.9683008819634639,0.17623866305197394
7.16015625,-1.1901893788255784,0.5408806395317048
7.1640625,0.2970117729610152,-1.2790123916255915
7.16796875,1.3674493530333798,-0.3918352152598779
7.171875,-2.3751872069386386,-0.5692671558056267
7.17578125,-0.2947659465730726,-0.8285032410437796
7.1796875,-0.6671892000036705,-1.060498307370076
7.18359375,-1.8654086518539337,-1.2682687201560265
7.1875,-0.4734568794634188,-0.8007971890186838
7.19140625,-0.45238217888538707,-1.0878312926397955
7.1953125,-1.2537285032481236,-0.01782860518155115
7.19921875,1.5467520395030279,1.2794492159871493
7.203125,0.23372185344267157,1.1265312177872961
7.20703125,0.6370218311525233,-1.3691892734931015
7.2109375,-0.1303589891933074,1.4837422250293644
7.21484375,-0.5775835606067624,-0.5659116534541024
7.21875,-1.3232611234292404,1.0589325416448618
7.22265625,-2.4702200741976297,-0.8865654102284831
7.2265625,0.9478387007506665,-0.6191389728113853
7.23046875,0.12476241524710692,1.4581243819760474
7.234375,1.6789823696257085,0.15353470209540823
7.23828125,0.15262129799009772,-0.18680467137766607
7.2421875,0.23913415700414076,0.6357524624764237
7.24609375,0.8570339641632104,0.3288068891974223
7.25,0.3498606038844171,-0.011823653336322
7.25390625,-0.25021082408923884,0.23424089192326694
7.2578125,-0.18230846776283,-0.6919104211965279
7.26171875,-2.5785630865069398,-1.018798936605924
7.265625,0.7223593041127624,-0.06405152937406079
7.26953125,-1.1210487847576005,0.7955401186220202
7.2734375,-1.734190623338812,0.8454831292608994
7.27734375,0.5072264457532971,0.30242494943481163
7.28125,-0.14347947648986586,-0.7675196320558711
7.28515625,-0.28577356069428855,-0.15953466731583515
7.2890625,-0.7663806248935673,-0.3190998524012368
7.29296875,0.584723754768642,0.8125289601864017
7.296875,0.8287619584415713,0.9179408955892177
7.30078125,-0.2875737014633846,0.1036216763061824
7.3046875,-0.5628369532080371,1.1252998912887922
7.30859375,-1.648657824323903,0.9915851658643211
7.3125,-0.9647302188051242,-0.5037721309144371
7.31640625,-0.877272349628229,-0.6455876033069176
7.3203125,2.063580015665768,-0.740427745579631
7.32421875,0.9696392148122569,3.4988669832197266
7.328125,0.7550765952024058,-0.9941205169318955
7.33203125,-0.33749137337815827,-0.696282154139519
7.3359375,-0.5751648210992942,-1.056717222206761
7.33984375,-0.685825072422714,0.40744920107432225
7.34375,-1.598446603133076,-0.5852265555572524
7.34765625,-1.6820149606348203,1.7275271081864145
7.3515625,0.9265124563913597,-0.7543556012438857
7.35546875,-0.12597649218321064,-1.0899960903497512
7.359375,0.31581883995387344,-0.41621822482714654
7.36328125,-0.6459409971488319,0.41633507757100874
7.3671875,0.6032968324661574,-0.430415759633903
7.37109375,-0.19693337289612478,-0.2806896608040872
7.375,-0.6503566667405282,-0.9902597064648784
7.37890625,-0.8496471245185765,-1.322447489626812
7.3828125,-0.9547958745829617,0.015348734278368368
7.38671875,-2.8223724081928223,-1.0337062638833052
7.390625,-1.9136776945388407,-0.6095821817275524
7.39453125,-0.14505511340915866,1.5154696962419
7.3984375,0.44728579390368434,-1.2678190970063368
7.40234375,0.13870944991690703,-0.30741544160579565
7.40625,-0.8966218299859902,-0.2946128161225095
7.41015625,0.0012292534610887312,0.0301805126636659
7.4140625,-0.025025483147254605,1.164362383894832
7.41796875,-1.7494955223110018,3.7557367695367234
7.421875,-0.8013799511876855,-0.3629563922912331
7.42578125,-0.4082834906797437,-0.7391065304033676
7.4296875,-1.0790691744544931,-1.2907395413627214
7.43359375,0.019294709012475115,-1.1149040562001014
7.4375,0.5236744581647074,-0.24872884624538386
7.44140625,0.7170031218048976,-0.5809760782925936
7.4453125,0.14686102272931922,0.5354255908245901
7.44921875,-0.2209890273347086,-0.0785082977397538
7.453125,-0.5113546042839155,0.18315198870393826
7.45703125,0.09497954190393282,0.4492721532024959
7.4609375,-0.023783476812793178,0.30308226582304537
7.46484375,1.8103857295737087,0.4913658959104473
7.46875,-0.729671462409252,-1.653840433466528
7.47265625,-0.5173384163196412,-1.2009807078866006
7.4765625,-0.7345767229798986,0.3811698925255973
7.48046875,0.01405583747123108,-0.017473642609447487
7.484375,-0.12951140650007184,0.19000824241520378
7.48828125,0.2761104658857119,-0.6978140063295842
7.4921875,-0.321331496496905,0.39418419272508054
7.49609375,-0.8198110353191018,0.737170480027571
7.5,0.5433263814626015,0.1728704606825489
7.50390625,-2.344372052875249,0.7022565368985761
7.5078125,-1.6750538185940327,-0.413896249919243
7.51171875,2.5901317953806386,-1.148551285940586
7.515625,0.07772833148627574,0.3888225766065179
7.51953125,0.13814341537136385,0.022664198703497365
7.5234375,0.6924821973971558,0.7391253622545116
7.52734375,-0.050617201958132296,-0.7022655285175501
7.53125,0.5636733969073799,0.015409402022110738
7.53515625,-0.17082238069880956,2.770793482953408
7.5390625,-1.4958810724510725,0.7830490894511495
7.54296875,-0.7985450369407274,-0.8962148392971842
7.546875,-1.8235305490369134,1.1153274691499537
7.55078125,0.21084592390513085,-0.40422313288857287
7.5546875,-0.30513993113070753,0.9872342347700813
7.55859375,1.3250737940295578,-0.47666087223419157
7.5625,0.5906607681753063,1.9576257717743342
7.56640625,-0.5502586688627344,-1.604495082198591
7.5703125,1.0285355774200537,0.5270694720617645
7.57421875,-0.9914538232341342,-1.405824770515625
7.578125,-0.4327173148543412,-0.30792637231535613
7.58203125,0.19306855400587183,1.1494442332292543
7.5859375,-0.669010674591372,-0.05936139159160988
7.58984375,2.08566284973332,0.47778071246813764
7.59375,-0.8123281684607181,-1.0322067533951798
7.59765625,-1.4750649111268879,-0.015521204726996064
7.6015625,0.15641145085052052,1.7353151648585243
7.60546875,0.7102494136404867,-1.9077649307838804
7.609375,-1.3483837860231374,-1.2435764560023304
7.61328125,-0.3290120075334561,0.16610612399914018
7.6171875,0.8800734657280423,-0.02596654042344745
7.62109375,0.7760314919917339,0.5711874279349743
7.625,0.8134345262616991,0.35198793752794105
7.62890625,-0.3631837512065404,-0.47563154738892244
7.6328125,0.516573660923064,-0.9513410703918215
7.63671875,-0.9516082515901239,1.306966830277164
7.640625,0.02999926589195081,1.9989544981663094
7.64453125,0.32608133991265564,-1.6037172222191325
7.6484375,1.442937541121733,-0.7972192387819637
7.65234375,0.6196670691586322,0.886552509030848
7.65625,0.3687902615796429,-0.06923641381155625
7.66015625,-0.996713819826202,-0.9319132860576368
7.6640625,-2.0761094321316103,-0.5825844402969143
7.66796875,-1.9575552146744095,-2.145126117402263
7.671875,-0.2757987320061512,-0.7374025297508119
7.67578125,0.42756479617128246,0.9667438348902787
7.6796875,-1.3434198367871342,0.5763381568020568
7.68359375,0.023298839882875524,-1.1828677014534064
7.6875,-0.39059949469857247,0.36875811420139726
7.69140625,-0.41156707368446266,-1.1045464268103602
7.6953125,0.19198845958044314,1.2541972543416395
7.69921875,-0.4539885037039959,-0.13039015894023137
7.703125,-2.518948237516845,0.01345966698781437
7.70703125,0.07306675557632919,-0.49693796758052317
7.7109375,-1.6625210158842394,-0.5136408595887244
7.71484375,0.9387047463314142,-0.22919187224204987
7.71875,0.009832636771171556,0.8973760976592455
7.72265625,-1.002640667162561,0.5846965053468487
7.7265625,0.4441140329800677,-0.11657166330836981
7.73046875,1.0453812760670176,-0.6344837601075107
7.734375,0.5713709495457285,1.0245189143254743
7.73828125,-1.9057116701673011,1.003883220501997
7.7421875,0.09712625032273019,0.8380426662665339
7.74609375,1.459333636496788,-1.8656817787118125
7.75,0.14322176610672147,0.2674671022274252
7.75390625,-0.8687406670752548,1.2570960455295321
7.7578125,-0.5003205974622847,-0.21021625332216848
7.76171875,-1.1391102033851441,0.5480430572160615
7.765625,-0.7856245397937371,-0.5805175778858387
7.76953125,-1.8268182814315157,1.7756075266891322
7.7734375,-1.217626737931152,-0.0524455505420826
7.77734375,2.6231819989577745,0.17392346877351586
7.78125,0.08720863183081703,0.0740671811414233
7.78515625,-0.08654945921833672,0.9043475477425246
7.7890625,0.32039130117706965,-0.22035634736221213
7.79296875,0.17023647168467826,-0.7591525123945232
7.796875,0.21119349084623407,1.4393348120514753
7.80078125,-0.6011271950026681,-0.09394974555648274
7.8046875,-1.6246039593730437,-1.4581745314292962
7.80859375,-0.23862850334262534,1.4963223164307848
7.8125,-0.2767319585009964,-0.0855255945901131
7.81640625,-0.6846246934298849,1.1481687050142082
7.8203125,-0.4356113264486245,0.32276858057727337
7.82421875,1.9698563773251168,-0.9323329192019368
7.828125,-0.1223889031466106,0.04322912873524376
7.83203125,-0.6712001370951469,-1.0741072141742112
7.8359375,0.9472176832786562,-0.21354905620425566
7.83984375,0.11106105923794862,-0.8035605673959801
7.84375,0.7245886296240133,-1.2621295918833604
7.84765625,-0.17133753051619963,-0.5334977727818232
7.8515625,0.49637737032923485,0.4680678088940181
7.85546875,-0.40655128664039397,-0.3283292954218832
7.859375,0.11044371861687194,0.13236724117863866
7.86328125,-0.539171435842988,-0.5886557338753643
7.8671875,1.4102956993574232,1.4742374277288826
7.87109375,-0.7765666786654575,1.598898882875375
7.875,2.742468022433723,0.4437098256960776
7.87890625,0.36599364329128126,1.002735347587492
7.8828125,-1.7085224364036844,0.8066087642207367
7.88671875,0.008271609423342766,-0.2375900851409534
7.890625,-1.602374146052641,0.763724780206561
7.89453125,0.3428962313290562,0.2787542623039178
7.8984375,-0.1008385072763598,0.7967031426218862
7.90234375,-0.9031610542309505,1.4368711788083917
7.90625,0.4581650575995752,0.11719657548301843
7.91015625,1.0392356099514242,0.5014419094903791
7.9140625,0.8886000967502117,1.1239269399169738
7.91796875,0.5593294520296014,0.7680183837000997
7.921875,0.3947588946777602,0.6135304186142474
7.92578125,-1.1338621269232338,1.8963270583036262
7.9296875,0.7463067147800141,0.7438528538844141
7.93359375,-1.3776934298056476,-0.3126773836253368
7.9375,-2.1042499378068236,-0.3658775795124625
7.94140625,2.945470603397543,-0.9361308259015088
7.9453125,-0.12287571653868957,-0.43723247690193373
7.94921875,0.7008017061412061,1.0844633464285147
7.953125,-1.0374961982148154,-2.262491440488374
7.95703125,-0.016732887989955314,-0.5112954489203698
7.9609375,-1.0083914490006969,-0.42018218361211507
7.96484375,0.5373509330517047,-0.7079415579920281
7.96875,0.5430299506580396,-0.6509644417329503
7.97265625,-0.4174884176510641,0.4372834755116541
7.9765625,0.2497156339300949,-0.6587495248665588
7.98046875,-0.33437401134425776,-0.46926222980157906
7.984375,0.007076765258435879,-1.223881410655377
7.98828125,-0.9899960867165732,-0.06177376197228217
7.9921875,-1.2832239880721192,0.19481851342855028
7.99609375,-0.381994040913252,0.2911892668973321
8.0,1.7724566505835577,-1.7228501263659917
8.00390625,0.7998512883728094,-1.3662521410640678
8.0078125,-2.3568225126910396,-1.1968775298467986
8.01171875,-1.0892736214704413,-0.6248545748837216
8.015625,1.244595110270697,1.4059078367039595
8.01953125,-0.06887127944366608,-0.059743083411654185
8.0234375,1.1984914800714663,-0.7697090051137809
8.02734375,-1.1743680202901068,-0.15733968497980755
8.03125,0.966881881085481,-0.9554982182994224
8.03515625,1.073293255525029,1.8974990892406511
8.0390625,0.11487659804907362,0.3023747026537274
8.04296875,0.27332730246675224,-0.9318669751813002
8.046875,-0.2235308698475067,0.05831564159552055
8.05078125,-1.1091255390653134,-0.2602840430987541
8.0546875,0.17077992707333897,0.974796116994096
8.05859375,1.704630769592174,0.26923705320678437
8.0625,-1.3533965246043786,-0.12598150017117066
8.06640625,0.5074769277607484,1.05144247109605
8.0703125,0.14122798325406877,2.4258072616734134
8.07421875,1.87885351860604,1.390318996519937
8.078125,-1.0662786451957205,-1.5495806359770552
8.08203125,0.5192998235963218,0.6173278458463386
8.0859375,0.02172762875636154,-0.40225826432211054
8.08984375,1.2977838645116409,2.932278350383572
8.09375,-1.7892518376478266,-0.20793702365945102
8.09765625,2.4347306377568443,0.09549797780897287
8.1015625,-1.012035614647889,-1.4388802373219833
8.10546875,0.06205151691510063,-0.7284030105854927
8.109375,-0.6990149940498157,0.06177430742220733
8.11328125,-0.14121593628807044,-0.21891814531698583
8.1171875,-0.047319872963690564,1.7016784753409786
8.12109375,-2.1708153329076074,-0.8596422207893444
8.125,0.7873977542365843,-1.218386119067494
8.12890625,0.20919299648237824,-0.42959674685728344
8.1328125,-0.30163597211456233,-1.7929929041601824
8.13671875,-1.3941832204458395,-1.2993250817152198
8.140625,-0.06197037980318156,1.2471525208558074
8.14453125,1.2260399833482039,-1.133545529148906
8.1484375,-1.481931939059596,2.024385109946479
8.15234375,1.292900779574925,0.11310167175475092
8.15625,1.5247636688685837,-0.7647965038003763
8.16015625,0.7564971270662443,1.1169998087130584
8.1640625,-0.7040309596169929,0.35039791341318144
8.16796875,1.1112152108154343,-0.8644153850045191
8.171875,-0.27899608354426103,-0.6493918988924421
8.17578125,-0.1739494796124899,0.21866921045791005
8.1796875,0.7711732697013202,0.36304978594947834
8.18359375,-1.4140669181306484,0.4561556810204791
8.1875,1.6321043348613742,-0.30443112981716025
8.19140625,-1.684157181125311,-0.8886127608031151
8.1953125,-0.6565556447863481,-0.7450237717272286
8.19921875,-0.5245409563423832,0.326354251481731
8.203125,1.6902801461476664,0.9183845520161867
8.20703125,-0.7528946854170916,0.1855817660513158
8.2109375,2.533488008503867,-0.3600123977313133
8.21484375,1.2639946873354422,-1.0210255603145524
8.21875,0.9240418098819635,1.7622988767039958
8.22265625,0.5078738544056891,-0.5636933748050421
8.2265625,-1.5202643314652031,-0.1692871683093799
8.23046875,-0.9726462416841252,-1.843942004394567
8.234375,-1.2667493825923661,0.9457546341848851
8.23828125,1.467577165977147,-0.09024153086119609
8.2421875,0.590508681903209,0.5462663365383537
8.24609375,1.5899108620739506,0.7414860309343234
8.25,-0.3568079677663408,-1.2857180423845127
8.25390625,0.6880644135769652,0.07620566369157021
8.2578125,0.19273206260298936,-0.9318009117410316
8.26171875,0.19333323794643018,0.1840151852698179
8.265625,1.4227756363327158,-1.9091281180719608
8.26953125,-0.7301929847726295,-1.631406196980579
8.2734375,-1.654338691403341,-0.5671120843748049
8.27734375,-1.6713653854838646,-0.6019460032737873
8.28125,-1.0473727142394462,0.03150615570774071
8.28515625,1.1092069334367611,-0.17630609775228476
8.2890625,0.5076597155714062,-0.6715373628866855
8.29296875,0.7041748935619151,0.10907928584675279
8.296875,-0.32433766199253544,0.48723732259788843
8.30078125,1.352283889642173,-0.06385303842076184
8.3046875,1.6029001982737228,0.03747784317401757
8.30859375,-0.48802653261911255,-1.7457006747543264
8.3125,-1.0524341876334387,-1.3950307803586255
8.31640625,1.184918852298239,-0.060780462364202585
8.3203125,-0.23789866447030578,1.4463761375719109
8.32421875,0.4797753778593305,-0.4614299266953436
8.328125,-0.5330438956830114,-0.3787548437913299
8.33203125,0.3502453193006575,-0.12040165456023395
8.3359375,0.6806488209084143,-1.2578855964839109
8.33984375,-0.19795451663465966,-0.0841390769152994
8.34375,0.4096784191578082,0.9801189183379102
8.34765625,-0.632182591257307,1.1959407408616296
8.3515625,-0.2086496428192643,0.2264220837451029
8.35546875,0.8864404306736253,0.13735570030162572
8.359375,0.07128960960226503,-0.6938129066756341
8.36328125,0.4022599724863954,-0.8019332509722027
8.3671875,0.10581764812981477,-0.9684644740734659
8.37109375,-0.3220561515725002,-0.35311253608036847
8.375,1.477872197342628,-0.0016285568189520453
8.37890625,-0.3238262159702041,1.2408666081136006
8.3828125,0.6301457603876597,-1.7617146235101222
8.38671875,-0.4715145498748641,1.1225788572837379
8.390625,-1.2979884516456224,0.555243347446325
8.39453125,-1.0153083738622066,1.304455382869817
8.3984375,2.2068743813421627,1.07061795981088
8.40234375,-0.6897149283992604,-0.9206242613070155
8.40625,0.43192374523811305,0.37640428987498153
8.41015625,-0.11881869512747939,-1.0713892650708388
8.4140625,0.12463746513153331,-0.5198251284514867
8.41796875,-1.6080118189423513,1.3683168776893435
8.421875,-0.47317977576374093,0.15623317116489752
8.42578125,0.17869001071725213,0.7339051739897647
8.4296875,2.8441770843014296,-0.17848894816440788
8.43359375,-0.04853860175827961,1.7050830472827283
8.4375,-0.23635626908449597,-1.2726050952380052
8.44140625,0.3190711292107658,0.5911115744229047
8.4453125,0.8076309519424731,0.16581809557109994
8.44921875,1.9338333126650595,-0.6947577471357057
8.453125,-1.763845881134363,-1.7304302141839227
8.45703125,0.5565817249630652,-1.1672125876572983
8.4609375,1.0302864637900675,-1.8012618335217259
8.46484375,-2.277506477058944,0.5886905434848414
8.46875,-1.3781283620063982,-0.07329222614880217
8.47265625,-0.6813073145606148,0.8869822489482075
8.4765625,0.7482931196276409,-1.094261070737984
8.48046875,0.18416589501794903,-0.9108316411423449
8.484375,1.2446437227401774,0.6066776279044879
8.48828125,1.7161822702754652,1.3861269930676297
8.4921875,0.0851417363758099,-0.9078040845531022
8.49609375,-0.44959875496495116,-0.19205877729350943
8.5,-0.8055675136291063,-0.85933280264797
8.50390625,1.4585691892571373,-0.8916658052922969
8.5078125,0.109119473056526,-1.0458961621355343
8.51171875,1.436545772584347,0.34434406807378604
8.515625,-1.141150745093845,1.024434044852174
8.51953125,0.6224596049757833,-0.2092210328393005
8.5234375,-1.7576087230570994,0.4575865284431373
8.52734375,-0.6506750502203007,0.7504075375158453
8.53125,0.6030766516136196,-0.835482556016388
8.53515625,0.8322084950540327,0.684399557704941
8.5390625,0.3271149004553229,-0.30835345674181996
8.54296875,1.1546573721090587,0.33960370167955317
8.546875,0.9756982895520532,-0.10841282899963309
8.55078125,0.1052097804249516,-0.2691558565292426
8.5546875,1.3943604790084088,0.12451153150750914
8.55859375,-0.4169687700592179,-1.1741279641824685
8.5625,-1.5043176555803446,0.8164461361119677
8.56640625,-0.08105636418214285,1.2726495336721306
8.5703125,-0.8919731809849947,0.9277344865852775
8.57421875,0.9081761373393057,-0.5313824848161657
8.578125,0.11653033151707785,1.1622313504606798
8.58203125,-1.5402492636483562,-2.1714257348814257
8.5859375,0.1403727047419647,-0.47637814476264595
8.58984375,0.9430044664445802,-1.7704327006278464
8.59375,1.6583433636394993,-0.21771067426148508
8.59765625,1.0135702652261414,-0.12329413455319209
8.6015625,-1.1969106612918778,-0.12287555275208453
8.60546875,0.37335912947769484,-1.4206748737179509
8.609375,-0.09281311212798983,-0.36496110663914383
8.61328125,-1.42990841454932,-0.4257216915209656
8.6171875,0.8273733598340295,0.19342787114201093
8.62109375,-0.9745200006787617,0.41546431287900476
8.625,0.25266549120439713,1.4118246741499
8.62890625,0.9377736645030507,-0.7970177266474936
8.6328125,0.031929106567325116,0.7930378794894042
8.63671875,0.7000190326758249,0.3058121327197197
8.640625,0.08973087004368117,0.5630478585322277
8.64453125,-0.49025148690464276,-0.5339530677315206
8.6484375,0.37782272643156134,-0.09359793127718248
8.65234375,0.6448809461740904,-1.73023806113565
8.65625,-0.11590909976451319,-1.485613538117637
8.66015625,0.4301500314587564,-0.27150830389290675
8.6640625,-0.7533372942673079,0.8193229754250234
8.66796875,1.6926366096060852,0.8248492737181008
8.671875,-1.0597155281002861,-0.0899737149491882
8.67578125,1.0505469034795654,1.6339038532377783
8.6796875,-1.0857550408228431,0.04629938710504367
8.68359375,-0.2221005650038446,-1.5081634186676949
8.6875,1.4846726431261947,-0.5178328592948801
8.69140625,-0.2034134327333034,1.9204736263817803
8.6953125,-2.0453301609634877,0.38943826640538504
8.69921875,0.5035879106726557,0.3729712348737023
8.703125,-0.7134537919418298,0.37502249910471686
8.70703125,0.4559018043151517,1.3086027053081868
8.7109375,0.3759071635306373,-0.005199236062988768
8.71484375,-0.7650176879394271,0.11933925744767582
8.71875,0.5916624829625963,1.1994393568977186
8.72265625,-2.3351692304843077,-1.0362979765919706
8.7265625,0.9375874701997584,-0.025739988763671333
8.73046875,-0.5748482024594567,0.2448416874958338
8.734375,-0.030388612330892375,-0.3607893734818676
8.73828125,1.1722467155334941,0.725681651725802
8.7421875,0.2743692235948655,0.8593842445531225
8.74609375,0.9230573298450043,0.12143080105001273
8.75,-1.0278818183145488,-0.20918169456263686
8.75390625,-1.475867393172861,0.266017738516618
8.7578125,-0.409014588815392,-0.053550878759116044
8.76171875,-0.031720822456226754,-2.1229099216530294
8.765625,1.2865957393247682,0.22401115902014013
8.76953125,0.2602474736999752,2.020490833192397
8.7734375,-0.5030240369400416,1.1777873269538806
8.77734375,1.2414707093215318,0.4332797605318309
8.78125,-0.3627938469173483,1.589766223179493
8.78515625,1.7973042361944704,0.8345150726447544
8.7890625,2.4458210922083077,-0.5052916029156189
8.79296875,0.9604512311035597,-1.1915152018668707
8.796875,-0.5458058060806538,1.1214403757262206
8.80078125,-0.1745065685305369,-0.5824581073739249
8.8046875,-1.4467768104885217,-0.5027746669834476
8.80859375,1.364843371717694,0.49471180438988704
8.8125,0.8329802507703279,-1.2422265048726908
8.81640625,0.1405646419836351,0.0734922248995768
8.8203125,-0.12177839687678291,-1.1420889771652833
8.82421875,0.8675374943319616,-0.6668320470928637
8.828125,0.16681341843087621,0.48088953023506587
8.83203125,-1.2636441864117343,-1.2196821924409647
8.8359375,1.8745036816454137,1.4813511847464436
8.83984375,-1.0928104942827594,-1.1642080158295363
8.84375,-0.1790748845109193,-0.38855347384525535
8.84765625,0.8020967618223243,-1.91127662673271
8.8515625,-1.9059495281753898,0.6107096046656576
8.85546875,0.5426442827805275,-0.35455818624002616
8.859375,0.8048505775978858,-0.008525493926184057
8.86328125,-2.146865727017372,0.674637041231516
8.8671875,0.7570647076389659,-1.880835069163829
8.87109375,-1.9098118915863742,0.28234197449722476
8.875,-0.9533228304690018,0.11990294917098256
8.87890625,-0.6285568741887658,-0.515448996077464
8.8828125,0.7155850834316705,0.6676486573008569
8.88671875,0.9579356210926824,0.25864196765211434
8.890625,-0.25466143988024953,-0.540351992861459
8.89453125,-2.7101244845572183,1.3184693119591344
8.8984375,0.6281275065798554,-1.325080925649589
8.90234375,2.305097368440088,0.38593524846921073
8.90625,-0.139265690083937,-0.39608575451604394
8.91015625,0.22945144209583276,-0.08871566318376035
8.9140625,0.38576815318766144,1.0914663019193929
8.91796875,0.5208814099849062,0.8683243945063019
8.921875,1.6036150937080715,-0.6148640474362247
8.92578125,-1.5438789034477776,-0.23482641457111855
8.9296875,0.21364535094104348,-0.5354373426619582
8.93359375,-0.3957504481217018,0.37004987176714654
8.9375,0.19509370073743287,0.21686295609852083
8.94140625,-1.6139544868956082,1.1231897239188648
8.9453125,-1.1844073228183976,-1.6077773845544872
8.94921875,0.11146297584972023,0.4872929033440472
8.953125,0.2922035926615972,-0.855875881269634
8.95703125,-0.2336739184842316,-1.9783796839191599
8.9609375,-0.5369133353328088,0.5683984548327116
8.96484375,0.6853183800192331,-0.7988125603511141
8.96875,-0.7673533320056367,-0.3928559451633119
8.97265625,-0.8949603811127007,-0.050705419028280255
8.9765625,1.5868463035415754,0.2407285445458598
8.98046875,0.8149483193406529,-0.5774012841277726
8.984375,0.0669293540689466,-1.5482235333040835
8.98828125,0.6139875637733447,2.29141495320407
8.9921875,-1.6166790887891573,-0.6880237039381847
8.99609375,0.22260389214308476,-0.41540678924518437
9.0,-0.21676998489940363,0.1028185342195839
9.00390625,0.9558751441581717,0.43174321912024366
9.0078125,0.5579305334310841,0.33987410069563206
9.01171875,1.2842830699792809,-0.6958930014190002
9.015625,-0.8292955704245155,-0.7877585302701593
9.01953125,-1.3675705962582811,0.9219696715889735
9.0234375,-0.769783794834595,0.33258013749789617
9.02734375,0.7174453037484904,-1.3156917501098768
9.03125,-0.3542451261374159,-0.6437088336693276
9.03515625,-0.938624088766504,1.7586493825867768
9.0390625,-0.1971770349864725,-0.4356094356523034
9.04296875,0.9298502510473399,-0.5748033429565099
9.046875,-0.9449869902892339,0.11435033150334295
9.05078125,0.45757858210731506,-0.4708443097914562
9.0546875,1.7916035174674225,-0.12302800928638027
9.05859375,0.6303099449014482,1.7968736513617727
9.0625,-0.14545102461872714,-0.934239283407493
9.06640625,-1.0888703419803105,-0.7750124117046919
9.0703125,-0.03131697547418022,1.7916021221205611
9.07421875,-0.9383001448688858,-2.3517170683241133
9.078125,-0.6301795260297866,-1.0387183422572646
9.08203125,-0.3425944114181078,-0.9716610393702625
9.0859375,-1.4139857091775858,-0.2389414931230566
9.08984375,1.9106413870408807,-0.503871907602429
9.09375,-0.837778636234654,1.4435197783365217
9.09765625,-0.13646817152729646,0.11305276620839269
9.1015625,-0.2915675190512172,0.8559475082120965
9.10546875,0.4444878384652245,-0.3998998203803592
9.109375,-0.16545847248892528,-1.5124331226756003
9.11328125,0.5438283700955684,-1.057528334088325
9.1171875,0.7155924226196295,0.1253583233716812
9.12109375,0.10158664673431471,0.7694476458844278
9.125,0.7757847976616612,-0.6957251733341391
9.12890625,-0.6754523033133096,-0.10613485317883746
9.1328125,0.14692120366155167,-1.9131823685457103
9.13671875,2.3596161695331377,-0.5321703338876046
9.140625,-1.0035235797939626,-1.1289401835192234
9.14453125,0.49855297572439855,-2.637318103635734
9.1484375,0.05193850295220996,-0.21492695367515738
9.15234375,-1.2603149194088827,0.6368747437192681
9.15625,-0.5835142090774542,1.4984735756435446
9.16015625,-0.5877727061892508,0.9942749097164714
9.1640625,0.7229829900041782,1.4365499122514374
9.16796875,-2.152776086183938,0.34488605587036913
9.171875,0.1568929676340932,-0.13466599332948895
9.17578125,2.0080583385281705,-0.3975576449434491
9.1796875,-0.3645436318937378,1.2358732009523374
9.18359375,0.468069203867148,-0.672068313622367
9.1875,1.52736811197671,-1.2044434135084885
9.19140625,-0.26534915368296114,0.8827552624021808
9.1953125,-0.8650227568389517,0.17009188628268215
9.19921875,-0.2822131264321458,-0.38874128950799897
9.203125,-0.469921224140787,0.5923372181482242
9.20703125,0.0434663823669685,0.2934142645870049
9.2109375,-1.4860660474178924,0.27680838986409956
9.21484375,1.4787062427765434,-1.4705855601320121
9.21875,0.9401661413663277,0.7804229420289364
9.22265625,-1.8027590702628988,-1.0568988832965722
9.2265625,0.28039396524377075,0.6207645132544901
9.23046875,0.6507585894103809,-0.14503794532655712
9.234375,-0.8986765570853482,1.0730288627686781
9.23828125,-1.058603292502168,-0.21404417194196765
9.2421875,0.20272164401019316,0.07106274436557206
9.24609375,1.246278262717204,-0.031356285460641266
9.25,-0.262396158029675,-0.09795472275039709
9.25390625,-1.222383405248297,0.008876302322050682
9.2578125,-0.5735689836522189,0.4575241495820619
9.26171875,0.65303142445726,1.3545461102760086
9.265625,0.2025355110241078,1.334955550054105
9.26953125,0.4926707413922217,0.4461738284882652
9.2734375,-0.4863093185389684,0.8188473426058874
9.27734375,0.6183644836763549,1.104956294094777
9.28125,-0.6124155560638477,-0.977989083048864
9.28515625,-0.2491984188346346,0.3909783228188722
9.2890625,0.6440577807035623,1.12787446320439
9.29296875,-0.2870706035748249,0.42066104718007846
9.296875,-0.08169831193446421,0.6262120835090765
9.30078125,-0.045543453514882065,-1.5137141200614563
9.3046875,-0.718323501978213,-1.0470330768497926
9.30859375,-0.17951386196256644,-2.3333605052791717
9.3125,1.8049529221039078,-1.028279670104166
9.31640625,1.0326037774766132,0.39535552114138056
9.3203125,-0.09070865424426847,0.37005725849222404
9.32421875,0.10069417772008048,-0.4931974930031497
9.328125,-0.12334791483141429,-0.30130830518437574
9.33203125,-1.173469707929471,0.8559059259580825
9.3359375,-0.0779915235945382,-0.3083294902653416
9.33984375,-1.3657888966771055,0.6674073122606728
9.34375,1.0033796908562533,0.15326769642790936
9.34765625,0.26652265798802843,-0.24035086712728598
9.3515625,0.28056896274545334,2.0451475669666137
9.35546875,1.5716654190008579,-0.32023281166099715
9.359375,-2.0552868457720397,-0.1436045110446777
9.36328125,0.4006451320084059,1.7544843492993916
9.3671875,-0.17704653185488378,-0.1444341480058174
9.37109375,-0.350696305647075,0.6087626200024755
9.375,1.0913850933745084,0.3209570336298394
9.37890625,-0.3177986043633927,-0.17353492720540487
9.3828125,-0.21942009730583656,0.089438192834946
9.38671875,-0.07161587446663539,0.5733302707199801
9.390625,-2.0312561559812337,-0.054021223520882095
9.39453125,0.7487878136758771,-1.000103189873144
9.3984375,-0.6285204363451417,0.1608707111255688
9.40234375,0.55089746527065,0.27128142444929176
9.40625,2.1231776175801595,0.16844919599680278
9.41015625,-0.6445698119637769,1.4405958108076031
9.4140625,0.9672431689151038,-0.5824516933139166
9.41796875,0.8773270881132105,1.152571276101614
9.421875,2.3608831002987696,1.0962662611204195
9.42578125,-0.1879214819882598,-0.7523196112109783
9.4296875,-0.8311825800481315,-0.31710116145230366
9.43359375,-0.27076613425319973,-0.4663732686259659
9.4375,1.1793027200648176,-0.25253884921467096
9.44140625,0.307010157303339,-0.2886035759338594
9.4453125,-0.8867852532000374,1.1666336804734738
9.44921875,-0.17046910417051478,-0.43436931074997026
9.453125,-0.7064761015196083,1.5130028089790963
9.45703125,-0.2232191571270855,0.10460837958473293
9.4609375,-0.5968950909981575,-0.03982166213215891
9.46484375,-0.3801984632174923,0.11386558232698758
9.46875,0.17018649154209,-0.02289802617762281
9.47265625,-1.0506336950302344,0.6247136503151245
9.4765625,-1.1886724190495328,-0.46554901994966735
9.48046875,1.4250329500440821,0.9565402062677482
9.484375,1.1558902935449717,-0.08336496419761509
9.48828125,-0.7398068859200687,-1.0519765898552988
9.4921875,0.23953071285453734,-0.3153843029995026
9.49609375,0.4894817811592245,0.23272955533976936
9.5,0.15056064550952156,0.3514161571162341
