time,ecg,ppg
0.0,1.0797762222322462,-0.8844555484416784
0.00390625,0.8907684790780945,0.5634036464763552
0.0078125,-0.043253004086047916,-0.6684929931898654
0.01171875,1.2834596277032826,1.4848948332037413
0.015625,1.9527825663035505,-0.7837991799991519
0.01953125,0.6537180081873188,-0.10754638604414136
0.0234375,-2.382971033419873,-1.21392966093516
0.02734375,-0.39992725447001287,1.0432648082610874
0.03125,0.08789172676489163,-1.7614137929261915
0.03515625,-1.343065038797772,0.5915121447227886
0.0390625,-2.6131978494732246,2.380238201141577
0.04296875,1.3161569062750114,-0.8386908803780816
0.046875,1.1302059600468128,1.3371473527643818
0.05078125,-0.1768750401718959,-3.0040434401123184
0.0546875,-0.7817457042373678,-2.56583059154178
0.05859375,-0.8238250181356698,0.2903782335258372
0.0625,0.5489361479671389,0.5613780473591304
0.06640625,2.3400667580501944,-0.36606656034557444
0.0703125,-2.136576255306173,0.8052447136808345
0.07421875,-0.8903029395409956,-0.025165254363781565
0.078125,0.1723578370485135,0.01646507948058179
0.08203125,0.3860042984040695,0.47259746902041927
0.0859375,-1.084669717994681,0.4620272152669337
0.08984375,0.20823975376127637,0.04680677201997968
0.09375,-0.5580976108698257,0.5409869382425441
0.09765625,0.4582556467864397,-1.7197107958671758
0.1015625,0.47924625874421034,0.14839914197828868
0.10546875,0.8803506792615525,1.1710595768083145
0.109375,0.43202014586779997,1.8092261546425092
0.11328125,-0.8740296286378312,0.8977255042127352
0.1171875,-1.7486802899918492,-0.06002193292021444
0.12109375,1.4145702214172144,0.005002692794757196
0.125,0.36994060267023215,-0.4152066096040215
0.12890625,-0.509198459680119,2.262661939017605
0.1328125,0.0672787594858605,0.7823993842428283
0.13671875,-0.9676943176803398,-0.5693995012575217
0.140625,0.13322861591730428,-0.18397923157617396
0.14453125,0.8117553966730481,3.2459879083342624
0.1484375,2.121312341548025,-0.365372802776502
0.15234375,-1.8312638794299165,1.0109796716132093
0.15625,-2.1793633148119596,-0.5431656648488847
0.16015625,0.21632922177131286,0.03148668102352222
0.1640625,1.1422372750973016,-0.46686150862643133
0.16796875,0.13617227791016626,-1.2412107267618289
0.171875,1.2103995886335432,-0.39846867398425795
0.17578125,-0.21974167669047104,1.1670723347478351
0.1796875,-0.09116866686600446,-1.5150885713580244
0.18359375,-1.4576331189778795,2.2948215947260127
0.1875,0.900330284898504,1.083600599553279
0.19140625,-0.14971793001745382,1.3153541363107202
0.1953125,-0.30334288030330764,0.7963981173250531
0.19921875,-0.05183148539004066,1.646373309510178
0.203125,-1.7962426547529082,0.14853523527603538
0.20703125,-0.23503377324244953,0.1862060939047652
0.2109375,1.7062410482549735,0.014970812963661035
0.21484375,1.1003294828131969,-1.0379921904020584
0.21875,0.40806416133205425,-1.1542432606282509
0.22265625,-0.7254181727463711,-0.1075307735902644
0.2265625,-1.7012693831350807,0.6418684337525465
0.23046875,0.20729085387560384,-0.7703331847910837
0.234375,2.4948773109375315,-0.4893017776501987
0.23828125,0.351062908531973,0.35988617104090925
0.2421875,-0.5114065222698971,0.37396924225709993
0.24609375,0.41958992525341726,-0.3027941888984848
0.25,-0.8825846874246415,0.2242785831311233
0.25390625,-0.3510901195673352,0.2640399470853996
0.2578125,0.015995521378547563,-2.5012058456524304
0.26171875,-0.08423289514962166,1.660151731216849
0.265625,-0.5450786558618703,0.42483459439797766
0.26953125,0.26931801164655805,-0.5400184146300432
0.2734375,0.23075688880916131,-0.2482975590884943
0.27734375,-0.5542360633349706,-2.2937819701801816
0.28125,-1.0441658417276962,0.7220424111403471
0.28515625,1.3826784632932494,-1.9351428605960515
0.2890625,-0.20074593561044368,-1.0527281238283877
0.29296875,0.04425956626883197,-1.5167343658124182
0.296875,2.332548185254777,-0.38636814872445663
0.30078125,-0.7244405023183741,-0.1357834907055783
0.3046875,2.4435210691466938,0.48261931903569455
0.30859375,-0.21411427804994176,-0.25725724063022776
0.3125,2.448574841997755,0.8077804552637529
0.31640625,0.1573959792121371,-0.18550798568008095
0.3203125,-0.018738327683947304,-0.46053757597753253
0.32421875,-0.609694869231666,0.735259494608403
0.328125,-2.375242160194959,0.007817968121608626
0.33203125,1.0943308390721416,0.49826261013456635
0.3359375,0.5782432130035186,-2.2409236381225535
0.33984375,0.3298521873566983,0.4682748362812089
0.34375,-1.8418962555911085,-2.0938453803784403
0.34765625,-1.2912583956767774,2.4210354885019476
0.3515625,-1.015818236111389,-0.10090826325723744
0.35546875,1.0476599692527448,0.4204967387037121
0.359375,-1.0440615255347154,0.08150692846490636
0.36328125,1.2182591646680458,-0.428833397967808
0.3671875,-1.2194308494500663,-0.33867475018889037
0.37109375,1.0615728329965395,-0.49230542275197386
0.375,-1.2011136516524161,-0.46416106146436426
0.37890625,-0.4616123771043158,-1.0089209938350838
0.3828125,-0.5306655208057274,-0.6085104827840117
0.38671875,1.351593050826983,0.7472960176917705
0.390625,-0.5973794880548744,-0.41018627027253973
0.39453125,-1.2872951424137242,-0.21356085822228973
0.3984375,1.4140114012602627,0.6001178170803448
0.40234375,1.9640537567437801,-0.7625167909879721
0.40625,0.15937643000354168,-0.3389640355911755
0.41015625,0.01580008677683832,-1.74445384976571
0.4140625,-0.523083071660004,0.3844337053350415
0.41796875,-0.07242535528282522,0.9140446275584297
0.421875,0.10961534006703899,-0.36272716946735967
0.42578125,-0.35426381735423385,0.02341229404234834
0.4296875,-0.862765845311778,-0.5353483289125317
0.43359375,0.24274515305161345,-0.5107935722922409
0.4375,1.559598350420502,1.1421916086349333
0.44140625,0.49456516289794333,-0.6279538633418712
0.4453125,0.5917915393032992,-0.6108931362223409
0.44921875,0.567762925470412,-2.0735987248981673
0.453125,0.12510011318794365,1.5162742307502703
0.45703125,0.41467930128551606,-1.2980227426553663
0.4609375,-0.8405139489441391,0.05427053206111438
0.46484375,0.8653045297265217,1.2564738368716246
0.46875,0.4637133668095229,1.0445330497414247
0.47265625,0.07413263344667216,0.07926519535567801
0.4765625,-0.6308909493160879,-0.1321224068691975
0.48046875,0.7708918468832695,-0.2944113937509307
0.484375,0.7443155093350937,-1.1050166441425575
0.48828125,-0.33502343361491643,-0.9903152927555305
0.4921875,1.063463627480951,-0.01434176678381237
0.49609375,-0.13104106077168967,-0.4943127100592782
0.5,-2.044238137095942,0.378511146104471
0.50390625,0.9765479589499922,-1.5686441038661267
0.5078125,0.6764659207878869,1.3419276400177707
0.51171875,-0.373799359192988,-2.2347831774104407
0.515625,1.148453189624213,-0.6334251761564733
0.51953125,2.502066915560379,-0.5348682337026904
0.5234375,-1.987620337619095,-0.6315678448702863
0.52734375,-0.7123819195924171,0.3794279072763465
0.53125,0.8676639326245128,0.7896251522281524
0.53515625,-0.34237873248661077,-0.919329116801387
0.5390625,0.18256505283369465,-0.15329845985869173
0.54296875,-0.2413157074989413,0.8776517774905945
0.546875,1.6522429292552305,0.2880456731713259
0.55078125,0.30503419542432936,1.2619644072498597
0.5546875,1.7493096384155367,-0.9411821860838734
0.55859375,-1.2265002055678766,1.3883371939311158
0.5625,0.5904648129146332,-0.5588907945019365
0.56640625,0.22182184932014667,-0.7335546756205417
0.5703125,-0.0629743349562714,-0.6657237063992709
0.57421875,-0.11472372201370978,1.488112035462393
0.578125,-0.6845398360948788,-1.3422577691026776
0.58203125,-0.6084010054064398,0.7729480906555793
0.5859375,0.5422192686620266,0.6718064898701671
0.58984375,-1.22139469941442,0.40067047266707073
0.59375,1.1703359052318987,0.5326556453380599
0.59765625,-1.924983292572811,0.24630076049897334
0.6015625,0.6322180524703673,-0.8929087668120388
0.60546875,0.15976131602862276,-0.17498670843527056
0.609375,-1.0523580966941921,0.6320144806287002
0.61328125,-1.9747005438766003,1.169224649246259
0.6171875,1.3848662307917434,0.5252444257616518
0.62109375,0.48019191644830816,0.07867921269549523
0.625,-0.10234680246506678,-0.9479345984708601
0.62890625,0.17063359124782893,0.7256871047089789
0.6328125,1.0422240968012977,1.020334629499776
0.63671875,-0.17938292426677857,0.8518415005011887
0.640625,0.1898341465564977,0.300171930704002
0.64453125,-0.7477616087253812,0.7234507935999701
0.6484375,-0.31373636995383297,-0.9026715034815376
0.65234375,-0.24715530375577482,0.006210429648671263
0.65625,-0.2302718647305369,1.6318353145255973
0.66015625,-0.32777883353574977,-0.5610441760306473
0.6640625,-0.6783227076964728,-0.939453182616548
0.66796875,1.548894077912861,1.5134464844294138
0.671875,-1.701612774138852,-1.0015529396570537
0.67578125,0.28449075331299356,0.937206391446208
0.6796875,-0.22441814857349898,0.4097167821626243
0.68359375,1.978131195774336,-1.8399129811609867
0.6875,0.34076624001104583,-1.1024897643365728
0.69140625,0.20055754443628843,1.3037074282712757
0.6953125,-0.5921457383544269,0.8702975835161144
0.69921875,1.7395965440597794,0.8013724265007734
0.703125,-0.36115018243426306,-0.5728270123286439
0.70703125,0.29606732538561065,0.720103536360214
0.7109375,-0.8702524317581786,-0.38767809353686405
0.71484375,-0.2622276034645444,0.30684037822079446
0.71875,1.0504293702100813,0.4694990693813765
0.72265625,-1.7346265957167575,1.2039712639413607
0.7265625,-1.54112857342279,1.029113625193027
0.73046875,-0.8654184878411165,0.28029628779416993
0.734375,-0.577007294052847,-0.7743351590781644
0.73828125,-0.15332827458408801,0.3809221044000749
0.7421875,0.47766678149783925,-0.9505683961036361
0.74609375,0.4676284306412397,0.21818562448649617
0.75,0.8423649332202893,0.9122007187051678
0.75390625,-0.35476589409193987,-0.38128698219536555
0.7578125,-0.7873346684349595,-0.041860914674618055
0.76171875,-0.027857441902713866,-1.0011401596500973
0.765625,0.2832633223479802,1.4070650367696382
0.76953125,-1.0981583674082893,0.32445790104962696
0.7734375,-0.46316750455219907,1.2279693805499068
0.77734375,-1.037821790982611,-0.8325077602639658
0.78125,-0.8385580574448578,-0.06502072337465992
0.78515625,1.0041534847288496,-1.1155718517892972
0.7890625,-1.7056885162736426,-1.3433250726397055
0.79296875,-0.7382594166061074,0.456907837218328
0.796875,0.18532274618613542,-0.21754777084283233
0.80078125,0.18638656314072605,0.8695333482620696
0.8046875,1.1139207697216509,-0.2861840163884222
0.80859375,1.2181144999405178,-0.8643687340813532
0.8125,0.3230427083400573,-1.2078346693245816
0.81640625,2.2942999045689483,0.7427443230001158
0.8203125,-0.8382796624100318,-2.065064970816843
0.82421875,-0.17377491724002309,-0.467754315928674
0.828125,0.4060028307796257,1.0368226911515577
0.83203125,0.205493750595019,2.0405680260652903
0.8359375,-0.00027956187073133144,-1.251336908034043
0.83984375,-0.5125600211459299,-0.738131513639605
0.84375,-1.0188118661433767,-0.12792970877418072
0.84765625,0.72504771383401,0.6658523404307776
0.8515625,0.514527870866933,-1.1227663961172567
0.85546875,0.3419528098619567,2.4982303679778406
0.859375,0.5058631408353211,-0.4260176783272805
0.86328125,-1.462972008721105,0.7313290952569641
0.8671875,-0.22254974524944385,-0.886670862143446
0.87109375,0.6943849774664993,-0.8785586908521731
0.875,-1.3016491336148395,1.9908272542778818
0.87890625,-1.0511162876380415,2.124861231092569
0.8828125,1.1571971312720433,-1.2680205080213023
0.88671875,1.629467824985533,-0.6024434556331348
0.890625,0.04248409999828117,0.6372650041490158
0.89453125,-1.0541296518029344,-0.9593573055074631
0.8984375,0.33371548414015445,0.09408429124354782
0.90234375,-0.4865809946406774,-0.591643478532352
0.90625,-1.0894445192141755,-0.7384402883062762
0.91015625,1.2514657911951843,0.3376913908758146
0.9140625,0.4354991460791829,-1.5912126058339482
0.91796875,-0.5529563493414312,-0.41177557739419735
0.921875,0.8308706067790593,0.15680492922054146
0.92578125,-0.9351300307245182,-1.9271999516994283
0.9296875,-0.943242966318825,-1.174459500183681
0.93359375,1.503744683685218,-0.5169599382615904
0.9375,0.12421866528061178,0.6755121501601876
0.94140625,-0.2251697152281414,0.16751519983142654
0.9453125,0.8225491015840166,-1.1238614343690847
0.94921875,-0.2722411419620216,-2.5250183623243743
0.953125,0.04688169385831427,-0.49236265053171213
0.95703125,1.4230127146894331,-1.0856264360839962
0.9609375,-0.6816519335581133,-1.8116910140128075
0.96484375,-0.01649454530534495,-0.5517601842747266
0.96875,-0.12797968823199596,-0.7890572860481275
0.97265625,-0.7253673866144061,2.6042798022020337
0.9765625,0.4809138428185398,1.3020649295434696
0.98046875,-1.1105123603894567,-0.2504029276721495
0.984375,1.0903603252196103,1.8446304797588773
0.98828125,0.47961045618964576,-0.5698578566749717
0.9921875,0.2019400795305707,-0.7674376342616919
0.99609375,-0.4220284592812527,-0.6745871129943856
1.0,1.0651638278603615,0.930131383377377
1.00390625,-0.6836875142581614,0.00018863338725803478
1.0078125,0.36647075374114985,0.6473471044282213
1.01171875,0.6017916686296341,-0.4823395074086807
1.015625,-0.2540749726723857,1.6363549443531302
1.01953125,-0.6787332214059034,0.024992730168496246
1.0234375,-0.3310673079951931,-0.2212106238165098
1.02734375,-0.11139575553393957,0.5796635354250023
1.03125,1.2149187254214244,2.2295682825964254
1.03515625,-0.17985873001336689,-0.902700415831558
1.0390625,-0.5840160095326539,-0.6642662362616781
1.04296875,-0.8718636859475656,0.36232819666004557
1.046875,-0.12670056718432918,-0.38460546977647286
1.05078125,-1.642770666728486,-1.694264907240733
1.0546875,0.45532904844993066,-0.18248582391825724
1.05859375,1.1541678049439932,-1.0418556101647571
1.0625,-0.6668214254919556,-1.0682102806474403
1.06640625,0.7698394736950107,0.5618711923250843
1.0703125,-1.0858182381143318,0.36899941354090826
1.07421875,0.5847040001848095,-2.045937743015605
1.078125,-0.806780355365365,1.0683874893771206
1.08203125,0.5608045496338174,-1.15068334845882
1.0859375,0.8057378057580572,0.05745505554838302
1.08984375,1.473591347157031,1.96382499673854
1.09375,0.10944019130196864,0.7278445593862649
1.09765625,1.138509469973255,-0.4126475217880771
1.1015625,-0.4633708822404704,-0.33700136420015664
1.10546875,0.5221223119534923,1.2277803190068197
1.109375,-1.0324781227141326,1.35849682592149
1.11328125,-0.8418192496534633,0.06634786524219208
1.1171875,0.8992912489282551,0.5050851825833683
1.12109375,-2.202188857212276,1.2884368312052688
1.125,0.1057013368522002,-1.9288244234523295
1.12890625,1.6084554718051542,-0.5628909794817161
1.1328125,0.14786505842328732,-1.5176634707854464
1.13671875,1.7463663368911309,-1.170655830216941
1.140625,0.3278826597182936,1.3318597041176106
1.14453125,-2.2075621082030423,1.3235234327595895
1.1484375,-0.41112440016089585,1.0479947388978734
1.15234375,-2.4112118013630948,-0.0944476496984984
1.15625,0.762111636522443,-0.9241306556176115
1.16015625,-0.7864926322592108,1.1014805124454663
1.1640625,-0.2645257220817764,0.26607957143340233
1.16796875,-0.1678771392500163,0.6173375899881841
1.171875,-0.8628426123154104,-1.0985881266167865
1.17578125,0.420612346507359,-0.04940636630278633
1.1796875,0.01905678876414439,-2.5591620880488586
1.18359375,-1.082243439701068,-0.018787910306198478
1.1875,1.2842008923945325,-0.0262207173396247
1.19140625,-1.5326670497951187,0.2806348970205612
1.1953125,0.716802017378596,-1.575515208399892
1.19921875,0.08497814764158695,0.4533608273796127
1.203125,0.3296893455261898,-0.7073451728435894
1.20703125,1.4007135485500721,-0.6110023691780987
1.2109375,-0.3481325522298661,1.0787925762925539
1.21484375,-0.41095388969034324,-0.026837780903977582
1.21875,0.8253967615108907,0.758433917614319
1.22265625,-0.7776329279978971,-0.527899952151989
1.2265625,-0.02739747232623072,-1.1132512742859755
1.23046875,0.39868025463203843,1.2137035442316846
1.234375,0.12680137256320956,0.9964618223844119
1.23828125,0.16553060368990327,-1.1319294220104161
1.2421875,-0.24949082064319325,0.3898623314677623
1.24609375,-0.1945032392944722,0.8627512272469425
1.25,0.17960665672657847,0.6126474135552107
1.25390625,-1.6898066365477895,0.7748740249568348
1.2578125,0.5710313487329122,0.05730228012457737
1.26171875,-1.4189796704602649,-0.33730997209301594
1.265625,0.5356859533484727,-0.3922600690635823
1.26953125,-0.4992992461778679,-0.8284932479003286
1.2734375,-0.6944234363627487,0.17118852438388862
1.27734375,0.6576963324331828,-0.26057257428373487
1.28125,-1.032819555005298,-1.1210490237968138
1.28515625,-0.6932341853146413,-0.6846664119275508
1.2890625,1.5274208928765411,0.5533478158513941
1.29296875,0.9871482839288261,0.465140507089308
1.296875,-0.8039702266987696,0.3462953839438574
1.30078125,1.5234544497081288,-0.9834766242490735
1.3046875,0.28114437727959196,-0.583842497597803
1.30859375,-3.3359044578523878,0.7534200910388945
1.3125,0.4965696263081511,-0.07719892421134732
1.31640625,0.3481521134432872,-0.024246211096793993
1.3203125,1.3534404659441297,1.2940257328895575
1.32421875,-0.6055545676977472,-1.9265280147553583
1.328125,0.456241858024615,0.3505458075114659
1.33203125,-1.8668501438936953,-2.0716453225172082
1.3359375,0.829839554335022,0.7402909451421321
1.33984375,1.4717424762050448,-0.4549355242223198
1.34375,0.25710780303058733,0.3805103495177346
1.34765625,-1.2302126637350514,1.5517514444179366
1.3515625,-0.8838826289413347,-1.1922753278617444
1.35546875,-0.03224736942832716,3.1910764773172726
1.359375,-0.664176379020437,-1.4187308140126706
1.36328125,0.5403492206103351,1.1477964737082247
1.3671875,-0.7600170483878778,-0.44409930308411694
1.37109375,0.9859065290291605,1.1069662265726379
1.375,0.8488637213171465,0.4472791030332831
1.37890625,-0.08559702428010822,0.0011573896406449874
1.3828125,-0.44380381183099665,0.06559726463669806
1.38671875,-1.0880889377848133,0.6848280608890144
1.390625,-0.3382862591885459,0.006319025064589912
1.39453125,-0.23147789040944466,-0.5883002055168824
1.3984375,0.8928216830934584,-0.695636792581723
1.40234375,2.033845549447421,1.5678551829443421
1.40625,0.1623259106535901,-0.46309205117005686
1.41015625,-0.41009753246125913,1.2017771010279048
1.4140625,1.0488631090977298,1.1442448853596097
1.41796875,-1.3218080967555648,-0.013110455811380943
1.421875,1.1868508522323162,0.6808757166836116
1.42578125,1.6034137086131475,0.38577933250426133
1.4296875,-0.42013147278576224,0.24207296077209361
1.43359375,1.493024887608516,-1.2008536770572336
1.4375,-0.3503120914868321,2.1579073770136117
1.44140625,0.4269313099143165,-0.18195520052603179
1.4453125,0.0956459135916266,0.45822158701000165
1.44921875,-0.879527889777823,-0.1518148852366213
1.453125,1.1110284612663808,0.49924817368009267
1.45703125,0.33148312206512115,-0.7366405128367057
1.4609375,1.916673749177976,0.23149086936552885
1.46484375,-0.0920259141136423,0.7260588201437845
1.46875,1.094128648611952,1.284567393623113
1.47265625,-1.1429020780251657,-0.6585370843772125
1.4765625,-1.2799372546546715,-0.4638091524284508
1.48046875,0.8908763466459958,-0.06331353923968204
1.484375,0.991296467030061,-1.4817986308710112
1.48828125,-1.1097463506819845,0.3955294474826561
1.4921875,0.12279040958515869,1.8724955152126168
1.49609375,0.37118634189097305,-0.2673184100387355
1.5,0.08680577047815347,0.28394081632591417
1.50390625,-0.14610471997145227,-0.4328521352439681
1.5078125,0.7200865410096924,-1.484487261115458
1.51171875,-0.4798519155271298,-1.8695323268800612
1.515625,-0.4619998976065173,2.039328338910693
1.51953125,0.33255570757325664,0.8875223228143578
1.5234375,-1.0177579830501389,-1.0614302004564178
1.52734375,-0.40336160559797535,0.6654441371401815
1.53125,1.055952956729145,0.16598542424066526
1.53515625,0.7856355855162563,0.27385249608573164
1.5390625,0.9795766291407463,0.8020712167432276
1.54296875,1.072258638499443,-1.270793977615808
1.546875,-1.3472838380980925,-0.27926831174319944
1.55078125,-0.018067233845157633,0.0790093412023949
1.5546875,0.6524600055137096,1.0170597350603752
1.55859375,1.551502890418726,0.78985871624298
1.5625,0.2681351727408554,-0.0424203297765276
1.56640625,1.04211753555826,1.4618863898936745
1.5703125,-1.789171755781975,-0.778927405521608
1.57421875,-0.46822071611783594,0.7249171868686283
1.578125,-0.1525863836687253,0.6284743769924973
1.58203125,-0.9305439775910697,-0.1523076117028413
1.5859375,-0.31562672619949267,2.1219381940355326
1.58984375,1.0618676957116582,-1.447625731929782
1.59375,-1.5386966203000723,-0.28588419518167874
1.59765625,-1.8674779118782567,0.03666028478806394
1.6015625,-0.27893739281520963,-1.4026889487390397
1.60546875,-1.1872091168461885,0.06060358428071284
1.609375,0.6738498148297203,-1.1714386246286725
1.61328125,1.6297259054884636,0.2703364026874579
1.6171875,0.2581911247555896,0.23937589821315222
1.62109375,0.32325172942870717,-0.5224404905494696
1.625,-0.6136909066510365,-1.3417802700639725
1.62890625,-0.3636036654953801,0.4524585620057569
1.6328125,0.2750670265625228,-0.8024097326475029
1.63671875,-0.44225357156927264,-0.14896744934292894
1.640625,-1.0107629741012487,1.264594230163443
1.64453125,-0.9674846069418128,-1.4415029972250417
1.6484375,1.4165759957010209,-0.0009496730354630971
1.65234375,-0.0660094621353082,0.09923473934129161
1.65625,0.10031206218851946,-0.027365691005972588
1.66015625,-0.12488923918811795,0.7313757350435014
1.6640625,0.5924686775264683,0.2606893966874308
1.66796875,0.7584535804740571,0.5050527521934562
1.671875,-0.5213653345399926,-0.8215393787477208
1.67578125,0.6935309705947994,-1.4508823033253606
1.6796875,-0.011961760130678019,-0.05848918041904823
1.68359375,-0.7949325838431449,-1.0016915590309612
1.6875,0.6371500757960834,-0.9791087039098008
1.69140625,-0.3319241332475693,0.991333592398355
1.6953125,-0.9581111046203277,-0.025257536635544316
1.69921875,0.04290979410821008,-0.5252081413718351
1.703125,2.1189174468990215,1.0003563323364966
1.70703125,0.5013847758017059,1.3459260465640421
1.7109375,1.6749762806455084,0.5644045690430731
1.71484375,-0.7196807831877082,0.7380339407034944
1.71875,-1.7468585934959764,0.2759145601954977
1.72265625,0.9226191605586082,-0.5487552013054705
1.7265625,1.0570072252409677,-0.20692180647851013
1.73046875,-0.48906265302687935,0.2728394986331189
1.734375,-1.8136951879272796,0.35663174462307945
1.73828125,0.22026319007531817,0.33948745570659683
1.7421875,-0.7467867890767897,-1.472678043836262
1.74609375,0.24032843768711112,-1.1454547716260002
1.75,0.4190779677911151,-0.1327867804963343
1.75390625,-0.7991266772405184,0.562579851525266
1.7578125,1.9086844146224018,-1.3754326953806688
1.76171875,1.0575428064486154,-0.5311887433125304
1.765625,1.5473662195154123,1.1981345887695396
1.76953125,2.438614142499563,1.0614150607739785
1.7734375,0.24634478587052783,-1.0599803557264833
1.77734375,1.840769574588454,0.4514227416682479
1.78125,0.10574647227518119,-2.151736934203083
1.78515625,0.6888431579408423,-0.28665018953259686
1.7890625,0.507782070197652,-1.4953189261373305
1.79296875,1.4441124001821135,0.1808708977092701
1.796875,0.27641245465414677,1.3743023779822823
1.80078125,-1.373969716819239,0.4938683023727638
1.8046875,0.8066627676315419,-0.10262007998773151
1.80859375,-1.8713207870075974,0.44745415833948915
1.8125,-0.792524456357568,2.2265782073642093
1.81640625,0.12606943359203368,-0.6206454769600228
1.8203125,1.4943547830916069,0.5884702793085713
1.82421875,-0.7930709512920731,0.8654817048997434
1.828125,0.08210029626009956,-0.22015666363930012
1.83203125,0.7252913995275829,0.3545975313378284
1.8359375,-0.6981722424333998,-1.336095973728449
1.83984375,-0.3865394936922345,1.8204888506538237
1.84375,1.3171206207869495,-1.2460017570841186
1.84765625,1.5302858306495484,-0.9476154765044026
1.8515625,-0.08212431212534459,-0.01903846791484186
1.85546875,0.09261971611478374,0.859186795288948
1.859375,0.23388375926155258,-1.5377996548859751
1.86328125,1.5453308784382138,0.20187724209710275
1.8671875,1.1911775039437071,-0.5328648232104213
1.87109375,0.4627380105518303,1.2718948281622162
1.875,-0.21854421138178806,0.12599311693572662
1.87890625,-1.6160373637098937,-0.7325729327434843
1.8828125,1.4506546843236252,-0.8633321435955265
1.88671875,1.0440334016884902,-0.6375428773286561
1.890625,-0.4785223628695693,0.39723649750865436
1.89453125,1.3154651135254918,0.5944164944250732
1.8984375,0.34051473780927244,0.923138690437675
1.90234375,-0.22880841496116827,-0.1454155986060474
1.90625,0.4337226951439183,-0.3546071937264875
1.91015625,0.6066875233032192,0.08856777258966692
1.9140625,-0.5318770967538708,0.4783065912187391
1.91796875,0.8847167158805876,-1.3495070027316725
1.921875,-1.1978985550844623,0.35704594552713836
1.92578125,-0.6593599768636129,0.7413053512293611
1.9296875,-1.4500621239229776,-1.318027780992679
1.93359375,0.3884149129852029,0.5413838788889646
1.9375,1.3293909314780472,0.2364319868027765
1.94140625,-0.5071752764217923,0.7071365010281021
1.9453125,-0.35193507809651836,0.14576168273056603
1.94921875,-0.04798484216194258,-0.3178108601539793
1.953125,1.2017483888435017,-1.163730910334615
1.95703125,-0.7886273438987287,0.8386190465144036
1.9609375,0.02575256987620523,0.9401296481123261
1.96484375,-1.2321744447213314,0.4386616600409839
1.96875,0.8938107197659723,0.0843029456097849
1.97265625,-0.27853594346097504,-1.8029628045552755
1.9765625,-0.7949076684670975,0.0893160358907767
1.98046875,1.0440908382197458,-1.2633784553993772
1.984375,-0.588249617231322,-0.5512877163802095
1.98828125,-0.7663901380662316,-0.23554208511486338
1.9921875,0.6872799771394952,2.4763629166388266
1.99609375,-1.0552857143382872,-0.36584528687988005
2.0,-0.10267607195463238,-0.7479329203808791
2.00390625,0.664821918292586,1.04733351796623
2.0078125,0.5953434567909968,0.36278856019358136
2.01171875,-1.2748034385758942,0.15463350193864875
2.015625,-0.1781094818534196,-0.8959349325063782
2.01953125,-0.4430696504804555,1.7407729567310564
2.0234375,0.05610526430454894,-1.4633177142790634
2.02734375,-1.1535236882328077,-1.2145793147366348
2.03125,2.493499788955259,1.1549795324006134
2.03515625,1.2177057178089556,0.6753403870668084
2.0390625,0.6419082881959318,1.1620252060839855
2.04296875,-0.3180183737414851,-0.10229654996222186
2.046875,1.1552958732823393,1.015777163654096
2.05078125,-0.20897127991119124,-1.2444847702625876
2.0546875,-1.3371792063190675,0.14873958873567403
2.05859375,-1.3376307533431475,0.2007744871616887
2.0625,-0.2531547434192423,-0.5473180890345026
2.06640625,0.19842962821276555,1.7926963259461701
2.0703125,-1.746616055043973,-0.2922820137539228
2.07421875,-1.0696148246987645,-0.19425078480269373
2.078125,0.5721467454755553,-0.41552179693558994
2.08203125,-0.8230854168383023,-0.47757280114732054
2.0859375,1.0363181297333552,-0.15011992593872642
2.08984375,-1.027277235307372,-0.30151242180846216
2.09375,-0.22295216115039576,0.0715972168752534
2.09765625,-1.2211234649431237,-1.565977980757674
2.1015625,1.2243772666848498,-0.5120141335161449
2.10546875,0.5321896358927415,-0.10801151627640253
2.109375,-1.0495765884987485,0.11745786264536552
2.11328125,0.8141012663803358,0.5464150502977341
2.1171875,-1.1031867279920184,-0.010467078042942526
2.12109375,0.44371270989122635,0.03559625323584447
2.125,0.9031206392527646,-0.9389347416362243
2.12890625,1.1348737952756878,0.15268273739964353
2.1328125,-1.5125287759686603,-0.021681798973873043
2.13671875,1.2692051372012974,-1.526232863220422
2.140625,0.08095787923788322,1.7756831459926483
2.14453125,0.6988513606349235,-0.2949860310804688
2.1484375,1.4404299743862996,-0.7397203382082166
2.15234375,1.1668997084593813,1.6383626640564195
2.15625,0.09440324900982963,-0.3660782961046598
2.16015625,1.686335260695442,-0.8746742696501209
2.1640625,-0.3703855929629545,-0.4052408327531892
2.16796875,1.5758537990881858,-1.0177666752844996
2.171875,0.11758193169014514,0.445481299533214
2.17578125,2.1776224585801978,1.0795609518758948
2.1796875,1.6751754761659348,0.9278139779761455
2.18359375,-0.32980986096873094,0.6761215530282735
2.1875,-1.4928411855284613,-0.6764781834354731
2.19140625,-0.9023802128355225,-0.8560322824027167
2.1953125,-2.158395556121775,-0.001933980400133451
2.19921875,1.5384836108969941,0.5393718777204228
2.203125,0.18308038446260314,-0.532560854115354
2.20703125,-0.04563079474565558,1.1593592232491943
2.2109375,-0.3127213429708243,1.4648785814305607
2.21484375,-0.6861889350502526,1.1374934769445026
2.21875,-1.5570769167653715,-0.829294881926961
2.22265625,0.47405696278956166,-0.7794238505212234
2.2265625,0.16346345470160328,1.11606027852188
2.23046875,0.5474272752757512,-2.2292564225794838
2.234375,1.4948792197553507,-0.6032018884885685
2.23828125,1.0626029035971503,-0.5609532874280287
2.2421875,-0.45755512080692645,-0.8918814835615919
2.24609375,-0.812589913708675,0.9463040439667725
2.25,-1.093958221380977,-0.7129695290514664
2.25390625,0.033321142620917815,0.7399690437747457
2.2578125,-0.9859064402515905,0.6204469793538779
2.26171875,1.0268194086354365,1.3444320714463198
2.265625,0.6311458526753204,-0.6309329447709893
2.26953125,-0.9125946188899329,0.5812853303436758
2.2734375,0.07996801214770817,-0.170773580683322
2.27734375,0.4244634519085137,0.2673687272042359
2.28125,0.28236241672345475,-0.0441880128483091
2.28515625,-0.1745658318401958,-0.7025231748633611
2.2890625,-0.07731968449409297,-1.2736374109674973
2.29296875,1.2504497471683809,0.40135239946400997
2.296875,0.6774537641901256,0.866595312788085
2.30078125,-1.2825543116094187,0.2448595247252996
2.3046875,-0.06389628300397691,0.538074257234211
2.30859375,1.5160879816978312,1.102469092725374
2.3125,1.1775370012448416,0.08392907184029476
2.31640625,-1.1622056729634935,1.51056079929541
2.3203125,0.6840955824969839,1.0037486187079452
2.32421875,-0.2474485807725009,-1.889489445539269
2.328125,-0.06779395059228792,0.017134125393301114
2.33203125,0.05758575123645247,0.7818697567264079
2.3359375,1.207482816750199,-0.23871249686142065
2.33984375,-1.7193842439351221,-2.248502520740457
2.34375,-0.13614881743002274,1.7434950552330175
2.34765625,-0.633171367347273,-1.0614424702642702
2.3515625,0.5662923434031133,0.7957300894453907
2.35546875,-0.8082425313147058,1.695294296917106
2.359375,0.5246190220000063,-0.9418880540833363
2.36328125,0.23787469552296445,-0.5354335065411179
2.3671875,-0.5515118865916456,-0.7586903050986651
2.37109375,1.545870458037218,-0.7992056516409536
2.375,-1.0830697461222833,1.1660617162645472
2.37890625,0.10524865704719456,-2.271350312994368
2.3828125,-0.6739546713671185,-0.5722992982570069
2.38671875,0.6884369880094039,0.8559130573691542
2.390625,-1.0555782093958563,-0.007897905571185585
2.39453125,1.0889728389258746,-0.43864952338699276
2.3984375,0.590336588055875,-0.1928037854621469
2.40234375,-2.535550103677965,1.4739711764584207
2.40625,-0.33231954792246493,-0.9913782613246469
2.41015625,-0.41168285491644324,0.7051446214882691
2.4140625,-0.3433503056980558,-0.604053271839185
2.41796875,0.8063824962875001,-0.41131713077689663
2.421875,0.5683865337828764,0.2923142027348506
2.42578125,0.5030896884627233,-0.14054975186669105
2.4296875,-1.2658402325125722,-0.05685627738773882
2.43359375,0.08034484406405494,0.930694464872075
2.4375,-1.8163627705817889,0.6302557080271705
2.44140625,0.19041337623797247,0.44673456490255875
2.4453125,0.9168451537328849,-0.6182741618571278
2.44921875,1.0710864002641005,-1.5769086885502914
2.453125,-0.5696101516782343,0.8970784214794747
2.45703125,-0.10075014393698804,-0.7107571634299417
2.4609375,0.8091667116922582,-0.8166457600110898
2.46484375,-0.0647731955257322,0.8437285567441396
2.46875,-1.7693066591742186,-0.17420197195651285
2.47265625,0.4402077352127465,-0.735635053900394
2.4765625,0.4303373604559897,-0.16577413874137953
2.48046875,-0.2522895554755283,-1.03234877042213
2.484375,0.23095273751221276,-0.064362869272728
2.48828125,0.07689368536995903,0.05050411021317314
2.4921875,0.31760908564336426,-0.6829711987892435
2.49609375,0.09985200291401662,0.864019684127808
2.5,-0.9771126280585956,0.15757891601647417
2.50390625,0.2810151912830782,-0.29148836709730735
2.5078125,-0.6031029798772249,1.9776127296799646
2.51171875,0.6170663011105034,1.026907900203026
2.515625,-0.923063999827364,-0.579418061103099
2.51953125,-0.6561619383147709,-2.523003457291017
2.5234375,0.12820828091835312,0.6874726047178307
2.52734375,1.5198637840537845,-1.316778334133129
2.53125,-0.5409771655294411,0.6285849792780173
2.53515625,-0.3366612920581656,0.08287530239578686
2.5390625,1.005901057189627,-1.5122725230768084
2.54296875,0.2744343990066066,-0.5474782242365904
2.546875,0.3557743563232407,0.3111670918105454
2.55078125,0.805785039839565,2.581022779023788
2.5546875,0.2600875831041383,1.7747468459727478
2.55859375,0.7643801386559507,0.6296821554277542
2.5625,-0.1312378221796488,-0.013479056442486564
2.56640625,-0.46370294798457123,-0.869939409333266
2.5703125,0.4144862376189661,-0.714917928581511
2.57421875,0.6093742463403028,-0.008956642544065786
2.578125,0.9961343077361693,1.0474767565047665
2.58203125,0.8904149967326308,-0.831328883842002
2.5859375,0.35555377209310607,0.940898091792154
2.58984375,-0.20892241347841572,0.24845105003076262
2.59375,-0.3771706046653577,0.2953588618982854
2.59765625,-0.2593169153116596,-1.0574621222862395
2.6015625,0.5739870103653076,-0.2410606999468207
2.60546875,0.20970992923537554,-0.3034925094563483
2.609375,-0.09064624423276724,0.9903224901800944
2.61328125,-0.49745583655706394,-0.38153110952155
2.6171875,1.2056707204956418,1.068428920356414
2.62109375,-1.0739014050238584,1.702640593991663
2.625,-1.374056736933369,0.9528172696836872
2.62890625,1.2744351331755912,2.3996664074491436
2.6328125,-0.38214615825875237,-2.206173828526683
2.63671875,-0.41596674257541105,1.266420454326963
2.640625,1.8147601769660078,-1.9173903578851754
2.64453125,3.0427923187697146,-0.04131149372868503
2.6484375,0.3300690341916197,0.24243274071169266
2.65234375,1.0988339754736307,-0.07052935695481007
2.65625,1.2192274547689217,-2.0713690147020554
2.66015625,0.6195179399116821,-1.5842754708269728
2.6640625,0.1283419891657566,-0.6549066383263571
2.66796875,0.7479674064435706,0.09435212882840976
2.671875,0.7576179231641751,-0.8678482771062278
2.67578125,0.7383539703104957,-1.2351637028314244
2.6796875,1.823805446288945,0.028170387325057538
2.68359375,0.23020442841394834,0.9203413272042642
2.6875,1.0264701773311555,1.574223937338725
2.69140625,0.3984277111110272,-0.029625926614540343
2.6953125,-0.8524399285465604,-0.49668471720278623
2.69921875,-0.8521506765557796,0.6110500254341934
2.703125,-0.9374981243218079,0.47805679561781655
2.70703125,0.3712437819527594,0.8227130311565312
2.7109375,0.9999156748046113,1.0539841926194253
2.71484375,1.4744686441592902,-0.26159473128827715
2.71875,-0.23812284230905623,2.975843942792681
2.72265625,-1.540101394924853,0.6622516905349675
2.7265625,0.6907886989870621,0.7215427145846967
2.73046875,-0.8892831616217013,0.5502028856663823
2.734375,-0.5539621264169139,1.1306251145991277
2.73828125,-0.7703706736369623,-1.0857544907452596
2.7421875,0.7035149655417023,-0.21140500455463876
2.74609375,-0.4547257703141159,0.4299092344419731
2.75,-0.565923871708829,1.6526700319994
2.75390625,-0.12391028841811222,-0.9563820210205211
2.7578125,-0.4894379823294854,0.3358122046413581
2.76171875,-0.40773891755300945,0.9371629385435898
2.765625,0.6390642991845121,-0.8115542798909429
2.76953125,-3.0228690571179824,1.2503632054549563
2.7734375,-0.8604655407763028,-1.7791321140771086
2.77734375,0.5852789269493998,0.6446410358332697
2.78125,-1.7757403438038912,0.7219772638488868
2.78515625,-0.21343207346694418,-0.11257560448561083
2.7890625,-0.15492466458058526,0.15350490497129252
2.79296875,-1.8066688999634517,-2.115513344549313
2.796875,0.1996047760209983,-0.442805123509734
2.80078125,-0.1521905217312712,-0.38460218470970786
2.8046875,0.4212440367411424,0.8208293952341925
2.80859375,0.08830566165479575,1.3225301598455248
2.8125,-0.18924911527665894,0.06164802879211208
2.81640625,0.3809748271437165,-0.21823613046557663
2.8203125,-0.820900639333079,-0.14798946224228665
2.82421875,1.0607138210637137,1.1940920527846408
2.828125,0.011978828742494512,-0.9396857325689407
2.83203125,0.6401853007293772,1.1349948012912703
2.8359375,0.21354071531001345,0.5183694075586605
2.83984375,-1.082684203477708,1.9387073051440682
2.84375,-0.45150804416032214,-0.04188543301544988
2.84765625,-0.30930512682132005,-0.8992050539065546
2.8515625,-0.14956448755654064,0.01616105188206894
2.85546875,-0.05896491391105069,-1.4034410270757007
2.859375,-1.0661511741504857,1.7599781108118107
2.86328125,0.38601713192222414,-0.4337160123146739
2.8671875,0.17714099464581534,-0.44204730160284583
2.87109375,0.5463593263153464,-1.3068239691821084
2.875,0.13783847586174466,0.537967434537947
2.87890625,-0.8430971454138424,0.29308319803228666
2.8828125,-0.48146769585301585,-0.5142360520198037
2.88671875,-1.077656768375642,-0.10814335523984721
2.890625,1.4736163545108198,0.3004404878251672
2.89453125,0.25688141508047446,-0.49477179318311426
2.8984375,-1.476335970617502,0.09614853873022446
2.90234375,-0.6080054838923036,0.9826404559106016
2.90625,-0.7191858244590988,0.6671203155956151
2.91015625,1.2743412014305624,-1.1556713692305538
2.9140625,0.7682610415963913,1.0475669780900538
2.91796875,-0.12255995792680291,-1.057213855660864
2.921875,1.3589818241354135,0.22448093980874542
2.92578125,0.7031568003666119,-0.2963027708896158
2.9296875,-1.4176026894088996,-1.7109920433377412
2.93359375,-0.9613888483914489,-1.0065527947916155
2.9375,-0.7864925692575836,1.3716620653026965
2.94140625,0.48364747622214566,-0.1745092155767921
2.9453125,0.11513895836744736,0.8393227082363969
2.94921875,1.795750941004862,0.2767540835286682
2.953125,-1.452816704212274,0.12292107111314247
2.95703125,0.24716814680078703,-0.16890836903724007
2.9609375,1.6169275740678166,1.0684261734396112
2.96484375,0.6490599055151748,-0.9569480276017965
2.96875,-1.9824875510580782,1.4968246371552774
2.97265625,0.5923189634481558,-0.32688584461807735
2.9765625,0.11159321705952517,-0.32253196409088286
2.98046875,1.0492389721040145,0.024724996304778337
2.984375,-0.9367103558125962,1.1241280131056037
2.98828125,-0.24866760870785992,0.7686413277586032
2.9921875,-1.2184582974308948,-0.2174967661535434
2.99609375,0.12375389433665303,-0.4459424371934699
3.0,2.089537654833476,-0.30348515490227324
3.00390625,-1.0999020984064396,0.6477525331252236
3.0078125,0.3852135905078725,0.562837800134849
3.01171875,-2.5736165100893786,0.7169796044157611
3.015625,-0.3568668151494181,-0.417805988074989
3.01953125,-1.8368924724504485,-0.09613890567937212
3.0234375,-0.8616042979197498,-0.23928428091636836
3.02734375,-1.0344316027166505,0.6929351196110193
3.03125,0.8014108415679643,-0.9090722184070463
3.03515625,1.0359027391612055,-0.1910122159696524
3.0390625,-0.8932505927800974,0.4743607729245868
3.04296875,0.19144584826298733,0.4183827809477983
3.046875,0.5780097048527923,1.215015890541701
3.05078125,-0.2778424517716401,0.58132255520274
3.0546875,-0.33975666269948673,-0.5096356628331595
3.05859375,-1.5001004617349067,-0.3357863826192382
3.0625,0.9608921405078543,1.0225607234583431
3.06640625,1.2208892540623617,1.7693835744263664
3.0703125,1.1504273805143705,-0.34148520139393634
3.07421875,-0.2596434765545769,1.2647603864530605
3.078125,-0.3436410382723654,0.031177283226359143
3.08203125,1.4563574647506974,-0.6939732368235226
3.0859375,0.29010150802065476,0.5917516143993401
3.08984375,0.04402352007561499,-0.2977570928326508
3.09375,-0.9242549856461999,1.475635907760065
3.09765625,-1.9013039594800523,-0.021757814157479932
3.1015625,0.7170849499510474,-0.1282477813638778
3.10546875,0.7489918170512543,-2.374770194345959
3.109375,-0.07484752413389319,-0.41597326469338275
3.11328125,0.08463195190665863,0.46354246360028273
3.1171875,1.5118289614136982,0.02734440411997636
3.12109375,0.6117784639154865,-1.8585179891268517
3.125,0.508329853167059,-0.9477304092108295
3.12890625,1.3089483431292326,0.48890622232308517
3.1328125,-0.13620033433436923,-0.48081065988004273
3.13671875,-1.045585611931612,0.3111040468306781
3.140625,-0.834738069563025,-0.46436188719659177
3.14453125,-2.5856924191163,1.2218026298957365
3.1484375,1.6221117092338952,-0.5822005931548366
3.15234375,0.7434940524148712,0.19251903287999722
3.15625,1.0073205649950254,-0.9494718989050173
3.16015625,-0.4000996018367942,0.7197383407825939
3.1640625,-0.5432375237196252,-2.187385766931228
3.16796875,-0.2810547932835797,0.017414376282117002
3.171875,0.309463247713665,-0.20674436980696187
3.17578125,0.25800512333767256,0.6436760016577024
3.1796875,1.4869955884687516,-0.11900284222572095
3.18359375,-0.6708600018176026,1.326028809282464
3.1875,-0.08048574899672951,-0.960639242344269
3.19140625,1.2381816140933126,-1.0205310027588954
3.1953125,0.22683401976796433,-0.15118742118680736
3.19921875,-1.284415958215457,-1.3582279230368632
3.203125,1.3530418227080208,-1.0426709257814182
3.20703125,-1.0757293570603499,-0.33249365551270893
3.2109375,-3.7198735288975633,-1.318150737323152
3.21484375,0.37059917153246047,-0.12821607453129677
3.21875,0.5643407391949662,0.41812483253972604
3.22265625,1.2519103068600435,0.39873912874157136
3.2265625,0.639558616681751,0.5676689777991778
3.23046875,-0.4623773162348029,-0.09204676282550549
3.234375,0.7699055639517561,-1.9953786471589692
3.23828125,-1.5278975126496503,-0.09814550356169521
3.2421875,-0.2262701649884106,0.6345716813948101
3.24609375,-0.056444691298108,-0.22033651098521864
3.25,0.3680417826872297,-1.4034868699897147
3.25390625,2.9510424006843716,0.7973266722289448
3.2578125,-0.35572888635244426,-0.46544914784322305
3.26171875,-1.4744269035544308,-0.5556317295247525
3.265625,-1.0283863490031704,0.48443758483869753
3.26953125,0.6682171996897689,-0.33820852027751497
3.2734375,0.03538551108826663,0.3692579193847245
3.27734375,-0.8900910905414413,-1.3031470915481906
3.28125,-0.016838778588274855,0.7061979926148634
3.28515625,0.952227660277013,0.045722907558715595
3.2890625,0.7523659378257417,0.3374472244658124
3.29296875,2.2704073176478463,-0.23330875894203196
3.296875,0.6907638929730185,0.5969377379406651
3.30078125,-0.35850520562224863,-1.0929483090446654
3.3046875,0.2428312199880675,-0.3380868198996861
3.30859375,0.04647562353110061,0.41874083688261815
3.3125,0.027408149566443742,0.12751322581529898
3.31640625,0.9067296739061262,0.331845421651551
3.3203125,-0.7601387119694675,0.18320050315804254
3.32421875,-1.8709134043303601,0.23586553616141664
3.328125,0.3174339571257774,-0.25444871297384913
3.33203125,0.733586797524709,0.23021579976842757
3.3359375,0.6369227286409285,0.9010087646177201
3.33984375,-2.136116518386682,-0.29636806245513664
3.34375,-1.0152752604973643,0.4263121972904802
3.34765625,-1.0415693194460958,-0.1206701171001845
3.3515625,-0.7750198158258339,0.43426152025468473
3.35546875,2.3296354773288295,0.62331539131948
3.359375,0.7678650616132231,-0.34242997756604104
3.36328125,0.9208513202595631,0.7165748526662284
3.3671875,0.6842585481309952,-0.9716854739587191
3.37109375,-1.877226160667127,0.44754051542202705
3.375,0.7837051901324248,-0.6168675361922031
3.37890625,-0.45563238472448175,1.3199880701666353
3.3828125,1.2222055228804503,-0.8584423593987708
3.38671875,-0.5245241197425969,-0.21651702271301967
3.390625,-0.03977417471947225,0.6552832658581106
3.39453125,-1.1050591847585236,0.4385622353796263
3.3984375,0.6934867264564769,0.26393709262298737
3.40234375,-2.1379813791133,-0.5839958871822661
3.40625,-1.1080330477892042,-0.17830953803041427
3.41015625,-0.34325953359638595,1.8109585519035165
3.4140625,0.12410410335442063,0.3084965320235982
3.41796875,-0.9210429156486579,-0.16801159353862677
3.421875,-2.733251676358948,0.045111387992139165
3.42578125,-0.6556065899701691,-0.16059767256090224
3.4296875,-0.564478081470843,-0.4787104218555091
3.43359375,0.20188281824556756,-0.39712833491413574
3.4375,0.3726031550836499,-0.3288627349733789
3.44140625,-0.5362287583465547,-1.4177707336691612
3.4453125,0.6423264160188807,-0.06450328198981109
3.44921875,-0.32291780718370006,-0.49666798817116425
3.453125,-0.447550795083659,0.6455641222473446
3.45703125,-0.4089405041014138,0.3522007290608302
3.4609375,-0.7519165121576414,-1.2769804034283672
3.46484375,1.1800880333104824,0.45995443190153223
3.46875,0.39647908627126294,0.8008728285954276
3.47265625,-1.296551718502813,-0.8578231350997604
3.4765625,-0.7236639696266722,1.5649719511587477
3.48046875,0.8647772157701067,0.6088932234393835
3.484375,-0.2540087566039558,-2.1209465314029603
3.48828125,0.8855060336728373,-1.8208475918402907
3.4921875,-0.18868317271345572,-0.647637615521135
3.49609375,-0.5649256798281753,3.1795676729669284
3.5,-0.3074197261856081,1.7476134007145139
3.50390625,-1.2333143173166752,-0.25631894183990583
3.5078125,1.659165226454199,-0.7108657751738106
3.51171875,0.5447169005780916,-1.1460343211682453
3.515625,-1.0488470037355018,-0.36510903633159103
3.51953125,-0.41436051049088624,-0.42106427813476066
3.5234375,1.046506847249433,1.5491697071226873
3.52734375,0.1840569796399637,0.42091074158694824
3.53125,-1.1101980270051746,-0.09068233530672763
3.53515625,-0.9512319506899337,0.22737496239349242
3.5390625,-0.614137677708155,-0.38170046901856547
3.54296875,-0.3832440069311524,-0.46785270830650294
3.546875,-1.0258517688879325,0.23099611301448875
3.55078125,-0.6907486721364307,-1.123064464914404
3.5546875,-0.5582714244446304,-0.2313683381124833
3.55859375,0.16565429568647158,0.021290935298518037
3.5625,1.2398545223156163,-0.13937323734398327
3.56640625,-1.4140312129492243,-0.3579272620545153
3.5703125,-0.6963855908557108,0.6245646672110629
3.57421875,-0.5935685960106609,0.2554464432821592
3.578125,0.6744581425660842,-0.8106018340701203
3.58203125,0.3315945117954116,-0.39646672330656535
3.5859375,0.14280391101771978,-0.4550621629480339
3.58984375,1.2945969746180583,-0.037393889914007765
3.59375,0.0536290975612715,0.349078651991692
3.59765625,-0.030274199332811804,0.17978413172420296
3.6015625,0.619289344589086,-0.5885718775113876
3.60546875,-0.9993655188673003,-1.1882844378327528
3.609375,-0.8363431419312566,-0.43793827872652646
3.61328125,-1.4347214068732717,0.9695847890478103
3.6171875,-0.8720316390479214,-1.6570185163714117
3.62109375,-0.1933839180882813,-0.4597850271016728
3.625,0.17782317757953833,2.73208493162177
3.62890625,0.5280021802040552,0.2222773022101802
3.6328125,0.9274159759433378,-0.39665987581162304
3.63671875,0.40729060268682465,0.1729587512624071
3.640625,0.13893473214122137,2.2248827482069045
3.64453125,1.3205664790030318,-1.6338159565586945
3.6484375,2.886331854989059,1.9873587859189308
3.65234375,-0.006472265119650359,-0.02389421614580546
3.65625,1.196664228900764,-0.7157984910729389
3.66015625,-0.4998999305163588,-0.07667015224364361
3.6640625,-0.49813465759440384,-0.49268019768869686
3.66796875,0.41936636534271104,0.35123553300333193
3.671875,-0.2858818929980519,-0.9034589563810934
3.67578125,-0.01981716396473552,0.25333733732322555
3.6796875,-1.8164640866301625,-0.19524626285278068
3.68359375,-0.19337985136143093,-0.46604619921349505
3.6875,0.5321735160128005,-0.8405623787687589
3.69140625,-0.07894167031336306,1.7638204996426545
3.6953125,0.8358445580420159,1.4383045924712181
3.69921875,-0.5403298316518912,-0.9589776489843803
3.703125,0.7672297324847501,0.5610847791695431
3.70703125,0.17116693105346925,-1.0303789813540336
3.7109375,0.08944093544121932,-1.2430559237698848
3.71484375,0.8914681545683213,-1.1004187340603486
3.71875,1.1533317771526561,0.5677401711500585
3.72265625,-0.5246142150809309,-0.2077997274207604
3.7265625,0.6625322223141451,0.2680568061787838
3.73046875,0.1989095020483033,0.41656353922399825
3.734375,-0.6634586728319359,0.7010631604828408
3.73828125,-2.0654858467572814,2.211369190109627
3.7421875,0.49402090366146184,1.9153062196952007
3.74609375,0.7276338816850161,-0.32008032050965235
3.75,2.7061228237905666,0.3889541212735957
3.75390625,-0.9410495518758502,1.068633121523218
3.7578125,-1.3827585655315582,0.20556845598197193
3.76171875,0.027817566273274006,-1.4584389482431561
3.765625,1.4381423265201738,0.6067502849001768
3.76953125,-1.1125408640618268,-0.7976726346367092
3.7734375,-0.8402886569880164,-0.5300967445904808
3.77734375,-0.5217593459790668,0.31250403470029225
3.78125,0.043411569573634075,1.7746949374835632
3.78515625,-1.7621237629574862,0.5308541735262117
3.7890625,-0.16786283279924843,-0.7822834419889915
3.79296875,1.8473091981628138,0.19315865152353248
3.796875,0.28586098981550223,1.499205165055131
3.80078125,-0.9607053145597415,-1.8295649740340008
3.8046875,0.5436467817068212,0.9400286519615765
3.80859375,1.038019888675461,-1.728499271082338
3.8125,0.8835627808789788,-0.04882407423272115
3.81640625,-1.062125001760404,0.2755024189331304
3.8203125,-0.8329805418893738,-0.4868081301747346
3.82421875,-1.149660189650403,1.2125768891020425
3.828125,-1.4459289971551004,0.5281540859788608
3.83203125,0.07284922950706982,-0.00956667460732706
3.8359375,0.40979205096136906,-0.9574589770883288
3.83984375,-1.744752762815376,0.7981038233453963
3.84375,-2.366694230343478,-1.3846207076304926
3.84765625,-1.9947303138683554,-1.8791525572617769
3.8515625,0.6881293501077009,-1.42291351686956
3.85546875,1.6733444443531342,-0.7303778062909634
3.859375,1.2680318522192675,1.7979914366789553
3.86328125,0.11692871427061832,0.30602714809045206
3.8671875,-0.08075248523912654,-1.5679894151920386
3.87109375,-0.38931922734186086,-0.2853628763483682
3.875,3.1827951496575153,-1.041829202600065
3.87890625,-0.627076649358484,-0.24835081355610036
3.8828125,0.5902776800435127,-0.5200445223763233
3.88671875,0.7931966574866247,0.9968826119353884
3.890625,-0.48427433100670714,1.4607006347841924
3.89453125,0.32857626199044704,0.7888702601968504
3.8984375,0.799578468376732,0.816144544150688
3.90234375,2.1554852552152353,0.5191741786021328
3.90625,1.111379077759305,1.492993308638338
3.91015625,0.5421771587276843,-0.16880755079067863
3.9140625,-1.3042824400225412,0.7880214270315854
3.91796875,0.8413385726324807,-1.6535408261716944
3.921875,-1.2957337348664686,-0.0747531916424099
3.92578125,0.8376300580904584,0.8924516898293129
3.9296875,-0.2581865464527677,0.2895452102163617
3.93359375,0.2517232690971939,1.9815036979697411
3.9375,0.4490081654514067,1.897971798585062
3.94140625,-0.9839065132949281,0.803023583303335
3.9453125,-1.0560912577027666,-2.2681531042878302
3.94921875,-1.7329962624906847,1.7662407634523767
3.953125,-0.21767023077331205,-1.5878103735801712
3.95703125,-1.439993643571094,0.4042166076261735
3.9609375,-1.0969948532853346,0.8874447602711377
3.96484375,0.16586341649229988,-0.43442267142598145
3.96875,0.6284611053360184,-0.34339074777062434
3.97265625,-0.40545370928720686,-1.144627367742008
3.9765625,-1.0273120976149908,0.16379125250769555
3.98046875,-0.22103910855532233,1.134851438183377
3.984375,-0.2623953907942259,1.2813845389003482
3.98828125,1.6796514410343808,-2.316420944338641
3.9921875,0.14159757143810942,-0.29762984389208896
3.99609375,0.8262975367768173,-0.2397260825477982
4.0,0.8289770816985901,0.21444155245830987
4.00390625,0.3939531076455584,-0.7553447908552802
4.0078125,-0.8378954779081899,1.8249134073767475
4.01171875,-0.5721357815351765,0.31646839601649335
4.015625,1.360033551724586,1.5284445400405764
4.01953125,-1.4409987662488017,-1.5286860544522316
4.0234375,-1.1012781291782028,-0.1932350672558988
4.02734375,0.6520571971992516,0.04356042187338169
4.03125,-1.1810034371692661,1.1327722821587916
4.03515625,1.351171045213473,1.6255473604526407
4.0390625,-0.1038474024701018,-1.0608101825084901
4.04296875,1.1448230513753717,-0.7785959616451766
4.046875,0.1413622922498013,-1.7687374758061092
4.05078125,-1.2357862679353089,1.79934782717588
4.0546875,-0.7860791102962474,-0.21030449564925183
4.05859375,-0.9381450988334196,-0.543067928658763
4.0625,1.9636867644103788,-0.4372782907708017
4.06640625,-0.6529081378134729,0.32603930304173057
4.0703125,-1.2838861371403452,0.8989871983541766
4.07421875,1.2189319905675589,1.7601624446916908
4.078125,-0.8089944084421983,0.118384855437461
4.08203125,0.4467563468617681,2.0690785041348887
4.0859375,-0.19793079467227603,0.5145580899220311
4.08984375,1.6364428388649699,1.3728584729856415
4.09375,0.5107312837086158,2.9856777398341414
4.09765625,0.12185075140777284,1.5100242127424097
4.1015625,-0.42773884690228364,-1.1114602109089269
4.10546875,-0.5237545064142888,0.9604241680731994
4.109375,-0.20056297164853962,-1.3445147517593607
4.11328125,-1.2598241070818788,0.9608367899919629
4.1171875,-1.314811164379923,0.739101515599961
4.12109375,-0.07455011717190889,0.37692978935244886
4.125,0.8556428388369262,0.3000145974699636
4.12890625,0.7484927659129449,1.215769995626737
4.1328125,-0.054484662071071915,-0.5383568359113258
4.13671875,-1.327268424668096,0.7387173688931636
4.140625,-0.25765903666603535,-0.07432134164841671
4.14453125,0.9902686290101467,-1.1071071667502739
4.1484375,-0.26770350215088806,-2.0451240600944915
4.15234375,0.8056467198770879,-1.8298808590524902
4.15625,0.6790691219763824,-0.7783403196371057
4.16015625,1.3546158559036703,0.842256316662908
4.1640625,0.06628139056959734,-1.577991381681137
4.16796875,-0.3481492046986938,-0.8693468135013382
4.171875,0.7925330247135741,0.6788639448922041
4.17578125,1.544373057344208,0.43933173063026165
4.1796875,0.2706144602832031,3.264702444108342
4.18359375,2.8552086140413127,0.6153453990200372
4.1875,0.1818427646190071,-0.36986431108178136
4.19140625,-0.757654868454708,0.024261457299910076
4.1953125,-0.8193473883478771,0.802624852629822
4.19921875,-1.4605400076376307,2.0882123983619705
4.203125,-0.7100255380748005,1.6006737358821181
4.20703125,1.3685977166820316,0.034704003207755546
4.2109375,-0.6732285369950046,-1.6734873877980252
4.21484375,-0.5333621997711242,1.834162583452029
4.21875,-1.1326886502191924,-0.1717077233082124
4.22265625,1.0585292589512056,0.011170622957867084
4.2265625,-0.5207717125094534,0.058838415814975877
4.23046875,-0.4365118735885161,-0.6384297198072821
4.234375,0.3221950667802594,-0.2937836139555554
4.23828125,0.18101863418935027,-0.04761535990666346
4.2421875,0.33792844453498383,1.6955066597669806
4.24609375,0.3824644430946897,-1.532342466883396
4.25,1.2288542672268037,0.6712793450852387
4.25390625,-0.7954897749415153,-0.7932834930922693
4.2578125,0.32919837124958645,1.3515990142745138
4.26171875,-0.02452486250518082,0.3234838569761594
4.265625,-0.41176903093380773,-1.1543770184240627
4.26953125,-0.45055982219238094,0.7306949261908738
4.2734375,0.8490116478733475,0.10562866733395503
4.27734375,1.2309674599666263,-0.5135143954728937
4.28125,-0.346944766278009,-0.2759271552711745
4.28515625,-0.6847387826286623,1.3969617802007053
4.2890625,-1.5106270852013588,-0.036188436310948174
4.29296875,-2.508090736446387,-0.061152382222363966
4.296875,0.2982440230264997,0.7377250729435431
4.30078125,-0.49976251477710176,0.3142121071541907
4.3046875,-1.17629850546031,0.6222212184932995
4.30859375,1.0140022938991726,0.8714552016249019
4.3125,0.10826628226903703,0.6011567017237444
4.31640625,0.6116720932436731,-0.446315415544003
4.3203125,0.6882848241676898,-0.12084458762477364
4.32421875,0.12727766895021042,1.661965333468826
4.328125,0.2588463256875739,-0.289178489234106
4.33203125,-0.24474075427429692,1.0520217979078186
4.3359375,-1.5141120369519876,0.9119492207335942
4.33984375,-0.6112686594112825,-1.1229046616240037
4.34375,0.9590381317809237,0.23213667252396158
4.34765625,0.1458901006010228,0.48038490870505696
4.3515625,0.6578735602229802,-0.5251445844259474
4.35546875,-0.609813543139878,0.6061929173427185
4.359375,-0.8629448240401474,-1.4287542850455544
4.36328125,-0.2970054128535234,0.47572226118571925
4.3671875,-0.5029209482019019,-0.14991422526854203
4.37109375,0.043293835209229914,2.5066025419530664
4.375,-0.6027607216409513,-0.6910393235203378
4.37890625,-0.18117488208516871,1.0574318866050187
4.3828125,-1.7384310162030143,-0.745984693128702
4.38671875,-1.20265816651482,-0.8101151260938723
4.390625,-0.03136538179960346,0.13316769867873973
4.39453125,0.1892242020362043,-0.6561440518978323
4.3984375,1.9975420774586927,-0.42286475378768457
4.40234375,-1.407446509784884,-1.4656519964673504
4.40625,0.060267252242102665,-0.46009125185853017
4.41015625,-2.4600816875234033,0.2778449138606721
4.4140625,-0.6644046852603692,1.4074191175613648
4.41796875,-0.8688664316076686,1.0121677437596015
4.421875,1.0755961978503845,0.17633746217500404
4.42578125,0.10352388689707644,-0.11243560091545804
4.4296875,0.18365002461769725,1.177111077884532
4.43359375,-0.9480418829948093,-0.13201601642168206
4.4375,-1.7380740680293485,-2.3298764826605383
4.44140625,0.7985043959416745,-0.6434508721374191
4.4453125,-0.37127766093979236,-1.196069896086121
4.44921875,2.3398675509260847,-0.12899588967792072
4.453125,-3.699185416342345,-0.3123483636242861
4.45703125,-0.2015780847474973,0.04546913725767023
4.4609375,0.0324622814580235,2.097353719697038
4.46484375,-0.8550222448521735,-0.44978298749812273
4.46875,-0.043265861395372605,-0.06473933999081127
4.47265625,0.9274636878838965,-1.4771431366530632
4.4765625,-1.0692239130156584,-0.0992099273034511
4.48046875,1.0028679234949098,-0.7112030156690022
4.484375,-0.2551218885176504,-0.879281121405885
4.48828125,0.39159936019343516,0.40756812029265815
4.4921875,0.4141011535054767,0.35083069269286954
4.49609375,-1.8610231340118983,-0.7305081383338067
4.5,0.10940960354969237,1.6771182342866677
4.50390625,1.1240866386647825,2.129352785352429
4.5078125,0.7975458385231945,-0.27359630258040624
4.51171875,0.31000907846366504,-1.6060195767805643
4.515625,1.1771998092694944,-0.3061835863979945
4.51953125,-1.5657340086493703,2.155041923497697
4.5234375,0.3058943141095245,0.8441013934775707
4.52734375,0.599619593317127,0.8399477949009306
4.53125,1.7365827842602255,-1.255567150836984
4.53515625,-0.08625641785708181,-0.13590886413918082
4.5390625,0.17675853718749562,-0.9690399149023309
4.54296875,-0.969253817773169,0.7785649125850325
4.546875,1.5369275424888775,-1.2846921041939174
4.55078125,-0.7683076091255923,-1.1991509134791323
4.5546875,0.026513117409145488,-0.20195030554972654
4.55859375,1.1749495927545226,1.1115190429349548
4.5625,0.7372829092251082,-0.4666895816662638
4.56640625,0.5313069864471185,0.38302635234863547
4.5703125,-0.5599477462957503,0.1002308123679846
4.57421875,1.098428837968566,-0.21926502545269075
4.578125,-0.8035868204636218,-1.6260437271062915
4.58203125,-1.0726533459524585,1.0404837622828456
4.5859375,-0.1741705970678724,-0.5874115786800391
4.58984375,-0.7772541476010493,-0.6772505281388981
4.59375,1.2351984637389741,2.537345272116246
4.59765625,0.9094637180510735,-0.29747357130183416
4.6015625,1.9422539236519614,-0.9900830718244522
4.60546875,0.40662942796031487,1.724849202186786
4.609375,-0.7157398084653923,-1.8112390034916588
4.61328125,-0.4640500463763233,0.3291197776385186
4.6171875,2.105904116634009,-1.6253744227240101
4.62109375,-1.0920984630346153,0.6158847728025697
4.625,1.2288809370640572,0.05710644918541612
4.62890625,-0.5082124204660078,-2.48078184447098
4.6328125,-0.8095528896983242,-1.7235923764186583
4.63671875,1.6097952208802464,0.2873200742058796
4.640625,-0.4100993927139834,0.5978582951845617
4.64453125,-0.21192140188764827,1.5507138182857039
4.6484375,0.06841259472072338,-0.0725169483845603
4.65234375,0.11674040128724847,-0.1935414145532673
4.65625,0.8431993975374997,-0.865280899511895
4.66015625,1.2634667876525527,-0.15281834339146408
4.6640625,-0.6678589869201543,-1.1261171921240074
4.66796875,0.4252968929678107,0.824460703637
4.671875,0.24765293446949874,0.06399686097083669
4.67578125,-0.407299772190133,1.0128212387957336
4.6796875,1.1383458257242083,-0.35519813196183136
4.68359375,-1.3501800068213023,-0.6598044533634285
4.6875,1.464706893772043,0.6530740029151445
4.69140625,-0.3597549379456488,-0.6657360863726252
4.6953125,-0.48569128624472807,-0.7836277219456377
4.69921875,0.06215321165496548,0.436122192455542
4.703125,0.0915221791780347,0.7078787568344029
4.70703125,0.5239213792145162,-1.7817334435427412
4.7109375,-0.7897368193292089,0.24069827632262888
4.71484375,-1.256655101290449,1.4892296043838866
4.71875,0.8627838396396413,-0.5103681831822274
4.72265625,0.8715558070805115,-1.7742363560145866
4.7265625,0.6295309150965734,-0.8411355226541009
4.73046875,-0.15636511976915662,-0.03205732560849801
4.734375,-0.777402311258406,2.0245137333204988
4.73828125,-1.3570514221706707,-0.3467328262064541
4.7421875,1.4323159398001628,-0.4150005386657413
4.74609375,0.14152339128616306,1.8218058152168646
4.75,-0.45051954476422423,1.35346136831704
4.75390625,-1.032368923175091,-0.6741889612071505
4.7578125,-0.3103215367011156,0.07745037987400687
4.76171875,-0.29297247230232437,-0.5748748056267708
4.765625,0.4674703216912236,-0.7157503517302831
4.76953125,0.8845341688539718,-0.2813675603653655
4.7734375,-0.7583699195963611,-1.1310580325183046
4.77734375,-0.35553580601500345,-0.19798701050283693
4.78125,-0.669609845957132,0.4861466599736726
4.78515625,-0.5509465143848973,0.966192843576597
4.7890625,-1.130282543217089,1.6739681440481633
4.79296875,-1.711190578361221,-0.786539430496083
4.796875,0.17041061812425948,0.2690295677168648
4.80078125,-0.7865444503086658,-1.7116970173770556
4.8046875,1.01414541717451,-0.24423531898860035
4.80859375,0.06959599763010568,0.1819309806110919
4.8125,0.39165255741583166,0.5104691057558551
4.81640625,0.1299672348862537,-1.3563813257229786
4.8203125,0.7072569982927219,-0.4048733708660948
4.82421875,0.3692896459571073,-1.13228794568976
4.828125,-0.3897359424858294,0.12850626252044312
4.83203125,0.8403861427717437,0.08735530516099115
4.8359375,0.19815006224343928,0.5491703940377435
4.83984375,0.670988982583956,-0.5529160384946602
4.84375,-0.3330804108823515,-0.6288373004057595
4.84765625,2.471484339914933,-0.21577757990356167
4.8515625,-1.7764641665691265,1.4972627508400997
4.85546875,-0.5100534958113235,-1.2624250191293667
4.859375,-1.5003443545697301,0.41024313294535597
4.86328125,0.8922259562466192,0.1206872770195049
4.8671875,1.602010518982026,0.3826225121479114
4.87109375,0.1669432561347677,1.1775332361597188
4.875,-0.5800891597817076,0.5919586905906286
4.87890625,-0.453756744057543,0.5876468586399762
4.8828125,-1.4971087792096223,0.5504028489180849
4.88671875,-0.25808409359395484,1.179235846109983
4.890625,-1.19842503404846,-1.3144360438002964
4.89453125,0.4706062974029456,-0.1849200557100547
4.8984375,0.11303977907041597,0.8831436617997628
4.90234375,0.8161652905257694,-0.7916882477719888
4.90625,-0.43663114855741003,-0.9261994966959854
4.91015625,-0.2238239712704579,-1.6917044121506553
4.9140625,0.5855488554886475,-0.28264046545392885
4.91796875,-1.364478530930004,0.9716866564962068
4.921875,-0.4804717453668141,-0.6081539411298647
4.92578125,0.9432008580648246,-0.6286852503666387
4.9296875,0.41075984469349885,-0.2970521695998196
4.93359375,1.0087026374735868,1.1782969751237438
4.9375,-2.598713393928075,0.19157536972167125
4.94140625,1.7867816369632947,-1.3331803321084077
4.9453125,0.0033460750413836487,0.007500643209050482
4.94921875,-1.5562904470233951,1.2581502822084145
4.953125,1.1438145771568233,0.30129063064399814
4.95703125,-2.78451142708328,2.165068098457114
4.9609375,-0.6854648417067094,-0.9020654417086286
4.96484375,1.0123592104770351,-0.8740256532474531
4.96875,0.5487248028542665,0.4349738366275049
4.97265625,-0.9327250729579913,-0.1013763633743403
4.9765625,2.144489973187249,1.0963718285977035
4.98046875,1.0623413300464164,-0.10714458130860986
4.984375,-0.06048587432123991,1.2248992062607016
4.98828125,-0.8937980079797341,1.940185249741714
4.9921875,0.6847271046015404,0.38192657943203007
4.99609375,-0.833861077914857,0.35988598653976006
5.0,1.3565322685785743,0.22558178442554952
5.00390625,-1.1628842373376889,-0.687860779101803
5.0078125,0.6958429494574014,0.0006087114569234684
5.01171875,-0.46523433382468415,0.21608865595481166
5.015625,-1.5726836000163669,-0.19044060191026965
5.01953125,-0.8193982864953276,0.7796760011934125
5.0234375,-0.9355721943281015,1.6460968199786836
5.02734375,-0.08285303319101792,-0.17768951633822705
5.03125,-1.2889039454819244,1.0581928963318141
5.03515625,-1.1184574616620693,-0.580919402293874
5.0390625,0.8263827772250112,-0.8518816070216801
5.04296875,-0.6549834646163684,-0.5661817056980908
5.046875,0.3043185968798868,-0.8459866949799135
5.05078125,2.60553379362274,-0.02680697979393266
5.0546875,-0.1954111739618033,-0.6135393463292393
5.05859375,-0.30782586496803616,0.5227152560698479
5.0625,1.294601186835387,-1.0101495234527977
5.06640625,0.22938037022453953,1.2309952688460668
5.0703125,0.4135328856366676,0.6378898671099769
5.07421875,0.3014514763447931,0.6540748586128632
5.078125,-0.8086695006504375,-0.11672451358223995
5.08203125,0.253376680640655,0.9276040928918786
5.0859375,0.39609951426904444,0.9284553659651396
5.08984375,-0.16348114945295,0.7661748687189162
5.09375,1.1418791179723051,-1.0126680127596035
5.09765625,2.0438665937867073,-0.5531944356307513
5.1015625,-1.535214284979908,-0.8120396108571973
5.10546875,-0.4185696909747143,-0.6550400920691516
5.109375,-1.2051516046750106,0.4059601144439435
5.11328125,-0.6759388361828229,-0.4891786067040513
5.1171875,-0.9497179847504706,-1.4579906542954852
5.12109375,1.655243338447088,-0.5701523028882048
5.125,-0.6244840757341574,-0.07092564108038356
5.12890625,0.686288469073417,0.3880081016199791
5.1328125,0.7730510482621763,1.0896925704759317
5.13671875,-1.3487382471849023,-0.32431082772411446
5.140625,-0.5812257830219487,-1.0617203614823907
5.14453125,1.112314264644163,0.058855732697337036
5.1484375,0.4882911199219544,-0.3335912967453939
5.15234375,-0.9154593586319829,-0.9082895781555094
5.15625,0.7513984025991942,-2.5396640858244806
5.16015625,-1.8393600541005153,1.7458354406380303
5.1640625,0.6797832992866205,1.3844187194678115
5.16796875,2.864270985824612,1.710287649982858
5.171875,-0.5321311701301378,-0.39854948635252485
5.17578125,-0.37770621083234973,0.5027899410409236
5.1796875,-0.5890135983753944,-0.3109532658420178
5.18359375,-0.8103828109021282,-1.4988954079636445
5.1875,-0.07986798168527709,0.322648802381134
5.19140625,-0.23895344265628685,1.0562492314617968
5.1953125,1.216072525552041,0.5785105272293378
5.19921875,0.47512991627017936,-1.1684286106199828
5.203125,-2.19133834155023,-1.2854532411692758
5.20703125,0.5443308189021856,-1.5867752927870573
5.2109375,-0.35865555661857795,0.35437283160359123
5.21484375,-0.1587504574685922,0.4281753104260857
5.21875,-0.9683902817657876,1.5688002616140415
5.22265625,-0.6806335554578048,-0.62783883070186
5.2265625,-0.559247453744303,-1.5690139875200464
5.23046875,-0.17908784689844262,-1.020529196845807
5.234375,-1.2765587050323695,0.07605814977678615
5.23828125,-0.43129700895671075,-2.254075656747881
5.2421875,0.3654043705021061,1.773892507972149
5.24609375,-0.4527465748785982,-2.1119036548292867
5.25,0.09554081266603996,-0.9243820044299123
5.25390625,1.6012410361432052,-1.8334618044160365
5.2578125,0.08554466929590192,-0.4668153918703655
5.26171875,-0.20266545725135107,-1.5530933815858643
5.265625,-0.26961046361683716,0.2065343546741712
5.26953125,-0.16731929093003897,1.452241524817522
5.2734375,0.619653340458816,-1.1748123625299158
5.27734375,-2.0728533604631956,1.1378804024893665
5.28125,-1.0260747194796747,0.31018524609702774
5.28515625,0.12080083704597094,-0.6475534843860865
5.2890625,0.6348260400363933,-1.5623098475706918
5.29296875,1.4093548061641812,-0.7744989883238547
5.296875,0.2532616753402447,1.099864512797964
5.30078125,-1.6134196227552762,-1.061204792110878
5.3046875,-0.09656058269544116,1.2138973176550967
5.30859375,-0.0017615482999797075,1.1580253426568556
5.3125,-0.5951457709441049,-1.3339325206865016
5.31640625,1.0405343124797972,0.08004120838199108
5.3203125,0.08026371693591597,0.4979317807403085
5.32421875,1.6436602702637675,1.4686755055867982
5.328125,1.3474028697085567,0.678476929450274
5.33203125,-2.276186137584629,1.1380761980192746
5.3359375,-1.6948059923226073,-1.5998867120718028
5.33984375,-0.14568283318702174,0.2880082021907952
5.34375,-0.44202918650919326,-0.7472480008724103
5.34765625,0.7605046998322781,2.326696789485192
5.3515625,-1.0732348252505373,-0.4282785526424065
5.35546875,0.22928613194590414,0.5826903010975996
5.359375,1.9034582877162078,0.6882549002415737
5.36328125,-0.8496521000161629,0.46473393093162263
5.3671875,0.5318634787066776,-1.2090005808785018
5.37109375,0.5226689348086831,1.1690418827977669
5.375,-0.9874021400791961,0.11056472699997866
5.37890625,-0.5300343119805587,-0.8997971640614664
5.3828125,-0.6790669692922193,0.3709439597092138
5.38671875,-1.2581538846711806,1.2224680813129352
5.390625,1.442447024755406,0.2581799438753059
5.39453125,-0.2880255209293666,1.1019352784370602
5.3984375,0.6014096120371494,-0.13007087482996676
5.40234375,1.0800139082967126,0.27267397362389634
5.40625,0.0005612934593900084,-1.6850097211584927
5.41015625,1.4431083264226874,-0.3381928100021477
5.4140625,-0.20380376033403144,0.9880563568720928
5.41796875,1.4004396926444749,0.08359379363922598
5.421875,-0.2882850466134359,-0.30547658297881936
5.42578125,-1.1578574942930147,0.809650456107191
5.4296875,-0.03390486114301395,0.2663607199567686
5.43359375,-0.22990554573959374,0.29620061941785136
5.4375,0.2808619620342127,-0.07673437964873255
5.44140625,-0.10299635357014504,-0.981371087790316
5.4453125,1.8544226336538099,-1.4984879823887993
5.44921875,0.9504069562869191,0.2632279766025292
5.453125,1.4652761912025194,0.036523866885410025
5.45703125,-1.355654695412041,-1.8785107364560678
5.4609375,1.177596308984597,-1.2334484791469098
5.46484375,1.0645052855117343,0.18953301141058088
5.46875,0.1625332819204503,0.8745185875006888
5.47265625,0.5101688017026321,0.2971276245556232
5.4765625,-1.654334224731583,0.5164017452275997
5.48046875,-1.002005210386276,-0.8488523378094245
5.484375,0.10147987292868861,0.036556519532550014
5.48828125,0.1699576997061401,0.32992345762789627
5.4921875,0.7757814262659429,1.0680380171961326
5.49609375,0.8419748206738118,-0.23299147636987744
5.5,0.5230097253283637,-0.0025284320945272547
5.50390625,0.23123858845362072,0.1681280881836479
5.5078125,0.08876840743487094,0.3623646898293522
5.51171875,0.42497398350358934,-0.573690135654063
5.515625,0.2875448916511315,-1.2405541298916334
5.51953125,-1.2483396388909767,-0.6495070562298424
5.5234375,-0.19116776522391604,-0.4366226408059134
5.52734375,-1.0096698274874918,-0.8871763550462101
5.53125,0.8497117409044046,-0.9032190057657695
5.53515625,1.297337807225126,1.901978768450526
5.5390625,-0.6348150032118716,-1.9325407796116678
5.54296875,0.18451106765440523,-0.9938651770464663
5.546875,-0.566378027673762,-0.7860507657440144
5.55078125,1.7124465886838702,-0.17138143004205592
5.5546875,-0.5189235010465397,-0.46639266390817435
5.55859375,-0.5617648573606949,-0.7877420324750048
5.5625,-1.2638799910467313,0.019798901426429406
5.56640625,1.3590769810959045,0.19041621126388952
5.5703125,0.10976891847980567,0.5103165163370347
5.57421875,-0.4458249477312378,-0.41082233566744186
5.578125,-1.51262306700841,0.6415670500076485
5.58203125,-0.45704807670560993,-1.5909665109954148
5.5859375,0.19889763498194302,0.163282935084916
5.58984375,1.5209154033632526,-0.8943724564863093
5.59375,0.8705020040299809,0.313137113989244
5.59765625,-0.2603708873267003,0.8600179917208532
5.6015625,0.08227614304055704,-0.9376662576786176
5.60546875,-1.4362131259781659,-1.7024459326602916
5.609375,-1.9620496875334275,-1.9697702698146198
5.61328125,0.791284377128904,-0.40243658912142033
5.6171875,-1.1418727061665213,-0.671068443101928
5.62109375,0.6111415089626203,-0.5787356726412699
5.625,0.8858124629132161,-0.7537461320242325
5.62890625,-1.6373901244255422,-0.8329621781232516
5.6328125,0.22169341282910407,-0.8178584420904079
5.63671875,0.533934382663697,-1.1584435049694024
5.640625,1.9720244743661768,-1.4386928046520868
5.64453125,0.5191439675619756,-0.22996534536460228
5.6484375,-0.17135031797079572,0.23231577430972183
5.65234375,-0.7570318155343153,-0.8591903709315948
5.65625,1.149894544034771,0.007242065544306324
5.66015625,-2.1564415318491417,1.2108461504458234
5.6640625,0.4969781432209824,0.8011167291080021
5.66796875,-1.0974503994854097,-0.8050424349770129
5.671875,-0.9487295226344313,-1.2844754338432176
5.67578125,0.1598122968984679,-0.01146388891655182
5.6796875,-2.1768065175125826,0.6219474130737587
5.68359375,-1.8004397902002143,0.47916253269046943
5.6875,-0.6551437668341468,0.7994333272758766
5.69140625,-0.16743878985154645,-0.4468645269452592
5.6953125,0.5593687075174552,-0.7643941958188966
5.69921875,0.7411400450489273,0.39674432478224436
5.703125,-0.5579808088051945,0.21364069505300715
5.70703125,-0.5339030374336056,0.00697261603206351
5.7109375,-0.6358150134054588,0.17688332656373904
5.71484375,0.07718649243193569,0.7914508935943941
5.71875,-1.2922417366118526,-1.0764609063465485
5.72265625,0.12446408067617709,0.5480672311047387
5.7265625,0.9664352886233779,0.5020291716991803
5.73046875,-0.3659412912270169,-1.7290061703959436
5.734375,-0.1746707533403115,0.7503789419519213
5.73828125,0.4467348743802873,0.9091208118196951
5.7421875,0.6741059177343282,0.7945456665807041
5.74609375,-0.1990833151943734,-0.47168721484058285
5.75,-2.0782725238116293,0.030111319553731045
5.75390625,-0.4393925739609345,0.3660474893343319
5.7578125,0.014186449455045982,0.2962904818758468
5.76171875,1.4903353225076714,-0.5592202432102172
5.765625,-1.6795338159111055,0.8590809306733921
5.76953125,0.4851138523928338,0.13543777410228675
5.7734375,0.7533488528533432,0.553152555734277
5.77734375,-1.4928862382519517,-0.04435517438093929
5.78125,0.6988481723319189,-0.5571233952507005
5.78515625,-0.3892419073095225,-0.8842620945964603
5.7890625,0.6039059101609072,-0.48332381702273786
5.79296875,3.248332271266739,-1.0976375572241237
5.796875,1.023359991578965,1.1034586522648075
5.80078125,-1.6769551451661069,-0.7868748102977655
5.8046875,1.627087598934758,0.811533939022037
5.80859375,-1.0308569382249124,0.1887948035622748
5.8125,-0.48748265631294835,-1.2005436372798637
5.81640625,0.1654814845261012,-0.10926269214554439
5.8203125,-1.8202298480213401,0.3521571563262743
5.82421875,-0.7092197483391213,1.5104303616187065
5.828125,-1.0772100465891061,0.16324057133467373
5.83203125,-0.5311196081860843,-0.6400400993638036
5.8359375,-2.0605529597618024,0.9301301631141282
5.83984375,0.04809174089128708,0.08538946947330414
5.84375,1.681859312201276,-0.2657246908726599
5.84765625,-0.4157499301511854,0.8025895808341028
5.8515625,-0.5243422215933977,0.11151517135397883
5.85546875,0.15425852002669213,0.5358741296101894
5.859375,0.846942536435562,1.3057841705730897
5.86328125,1.315570166123174,-3.4624976500674656
5.8671875,-0.5504306514192119,1.7102794050300427
5.87109375,-0.1745900447494688,0.27836945324759155
5.875,-0.8326785241281892,-0.801995852591879
5.87890625,-0.1924718325475777,0.684400232012768
5.8828125,-1.757283032737909,-0.5573007596002815
5.88671875,-0.5667863474972035,0.5243698332188613
5.890625,-0.585890863525853,-0.06461169015511832
5.89453125,0.520658105931197,0.29169772027276014
5.8984375,0.030079481398250105,-1.0132574243354424
5.90234375,2.1313783877439496,-0.42077120044410216
5.90625,1.2392596590788585,-1.0060677833424552
5.91015625,2.3866607384451664,-0.6481174333317309
5.9140625,1.402649839356926,-1.1150997134956344
5.91796875,-0.3136449621260459,1.5200288549999472
5.921875,0.8012489365599017,1.9789546791659793
5.92578125,1.3910653335325298,1.5804966493381551
5.9296875,-0.25829808980109825,0.1878373844703148
5.93359375,0.13708831032517005,0.808139331162268
5.9375,-0.5792924791274661,0.1334402307791581
5.94140625,-1.11044801084391,1.7345047076172468
5.9453125,-0.29100897868964853,-0.2768656970674309
5.94921875,-0.6290724891143087,0.21612158381326887
5.953125,0.024406036500795585,-1.0548614366037898
5.95703125,-0.6163736949640887,0.39003823248672925
5.9609375,-0.9196733519515854,-0.26995632696775584
5.96484375,0.3258527899716059,-2.3458325668943334
5.96875,0.2110085829666805,-0.4551843317290939
5.97265625,-0.6670864764002579,0.05283342096918474
5.9765625,1.742461201308292,0.8783958883992261
5.98046875,1.2736463806744531,0.33978878613395713
5.984375,0.48404097228900056,-1.1938516810355395
5.98828125,0.5203868022193866,-0.7858177185399803
5.9921875,-0.6768253876559649,0.24787534595341704
5.99609375,-0.9144268110360115,-0.6710668286068032
6.0,1.8394890445822574,-0.3472282793428512
6.00390625,0.20795384464669547,-0.7521126939856665
6.0078125,-0.6784801767328201,0.5343891856938416
6.01171875,0.03857315028177739,1.5140987302442948
6.015625,-0.3942377446589108,-1.3629237900420414
6.01953125,0.2748459525646732,3.2093495440619915
6.0234375,-1.668123163362333,0.4621721498607519
6.02734375,0.8495396957478641,-1.005364097383508
6.03125,0.6566189983821974,-0.18305573162087913
6.03515625,-0.3722673816811526,-0.949474338094685
6.0390625,-0.5809037786224701,0.4772923154576692
6.04296875,1.1406786360117351,1.2038956083494152
6.046875,0.07161625256681117,1.529862231558003
6.05078125,-0.6077126546504489,0.01356122198617432
6.0546875,0.3986440145071057,-0.13273581288056419
6.05859375,-0.13580027262477143,0.0017833151536672486
6.0625,-0.31933180570416214,-0.4436992539354032
6.06640625,1.3964576511809004,-2.441772040509102
6.0703125,1.2108622022484739,1.5809104949102366
6.07421875,-0.03804532517241286,0.4875962409775716
6.078125,-0.35052699875210847,-1.4543172900238293
6.08203125,-1.657171630890296,-0.7058586472827793
6.0859375,1.9077127004637968,0.7994403692675978
6.08984375,-0.652398720667137,-0.16270721500784605
6.09375,1.6860817581307599,-0.5758823542805093
6.09765625,0.7821539022042423,-1.3924560414372313
6.1015625,0.48115127902929433,-0.42274107049241294
6.10546875,-0.24111312215897082,1.0746151340076437
6.109375,-0.12728947580188799,-1.0184442407942074
6.11328125,-1.118751407321102,-0.3202713409239782
6.1171875,0.6163718460773386,0.924113866342738
6.12109375,-1.3778905936760262,-0.845106159280917
6.125,-0.2678281920358029,0.18632986294763393
6.12890625,0.6254395063630374,-1.1337850856080645
6.1328125,-0.9078797557664601,0.00850063888829876
6.13671875,-0.4679096697711721,-0.14776878691629314
6.140625,1.7734288551487376,1.2277824405013804
6.14453125,0.3165142651594544,0.6866326055809415
6.1484375,0.3483081934752396,0.002512442332885138
6.15234375,-1.2341941220631056,0.5205576384986854
6.15625,-0.8093776986268326,0.1568821892143609
6.16015625,0.5264071597676244,0.07292646279854786
6.1640625,0.12357530774124413,-1.5601615321301727
6.16796875,-0.07182525776600729,0.45039074135632806
6.171875,1.252022446436056,-0.821957634261347
6.17578125,-0.9008717116918951,0.8693550755193011
6.1796875,-0.6934208875460921,-0.8065392237749408
6.18359375,-0.6190046710522213,0.20527724898295702
6.1875,0.7387741140023169,-0.8056183525031994
6.19140625,-1.0302647780023082,1.381781705763364
6.1953125,1.4709008975312055,-0.13121462828232114
6.19921875,0.16774371035785,0.6605210008100539
6.203125,0.03984255836157638,0.34630843454339855
6.20703125,0.6478079014041696,-0.7867663136489147
6.2109375,-1.081286787188924,-1.1436888709466884
6.21484375,-0.4455548391601322,1.2120032281833912
6.21875,-0.760471411838551,-0.5887456877017565
6.22265625,-0.08225264989532059,0.7969870195695962
6.2265625,-0.1280757878014217,-0.2067075572447824
6.23046875,0.5289217161535147,0.3110406175420014
6.234375,0.5505605593477936,-1.7861325185606756
6.23828125,0.4552731087681678,-0.5158261436234753
6.2421875,-1.5219650635281792,0.030426853084479476
6.24609375,-1.6198989495423732,-1.5197999438444096
6.25,-0.8246764428478752,0.33402108925687546
6.25390625,-1.1419207616019684,1.0203665831864113
6.2578125,0.3897750001544613,-1.170876842899895
6.26171875,-0.9804960161763062,0.4558933038209068
6.265625,-0.8692763544586858,1.0317526703074589
6.26953125,-0.49040251466687734,0.1946066769118299
6.2734375,0.017644358176753288,0.523986689973702
6.27734375,-1.6507386810865146,-2.731782696036549
6.28125,0.28958212466990646,0.8668199942856757
6.28515625,0.10883719914323867,-0.014291011235270283
6.2890625,0.02040732379168347,0.23520320097562825
6.29296875,0.7907865856182981,-1.5175396246706814
6.296875,0.5056020324405124,0.8471116527458782
6.30078125,-0.6807085884737156,0.27916310770610203
6.3046875,-0.32755310405819416,-0.3699000541554086
6.30859375,1.2707695182040357,-0.3482003812200276
6.3125,0.10987117011370243,-0.4569011337309583
6.31640625,-0.6450612839058671,-3.285942823283336
6.3203125,0.1995429583619773,-0.2458240698933318
6.32421875,0.547795845889019,0.7527365436341177
6.328125,0.6612791286681001,-1.2620324963524774
6.33203125,2.1518172444837584,1.226831955575172
6.3359375,0.01389736839996464,-1.5458024286971837
6.33984375,0.2976915628988956,1.648329103906906
6.34375,-1.8112617424252917,-0.3026701279213025
6.34765625,-0.7717270335569503,-1.8529934387393079
6.3515625,0.5511092926816861,0.5971785870709999
6.35546875,1.275890906707676,0.416194004908507
6.359375,0.4414099493503304,1.4695490944518903
6.36328125,-0.2145920436203692,-0.769784765655341
6.3671875,0.19996705142026494,-0.4654048873269759
6.37109375,0.18371162429688911,0.20535567595766818
6.375,-0.96033604334591,0.31446338075625757
6.37890625,0.3922619769395701,-0.12791062881527707
6.3828125,-0.706109757307744,2.2957152404273833
6.38671875,-0.579856359537828,0.3098221780932105
6.390625,-1.3051403038078773,0.3731966858292337
6.39453125,0.8150138867446862,-0.26226624154135325
6.3984375,-1.7795320085238715,0.42066828384209204
6.40234375,0.4787736975926206,-0.6188805998452602
6.40625,-0.5185517109700574,0.5066957624625456
6.41015625,-0.037160096424552626,2.005792728327991
6.4140625,0.5580628211127966,0.18109763251184793
6.41796875,1.4639948767033764,-0.27981750071222355
6.421875,1.007141546030997,-2.592747172169537
6.42578125,-0.48561287726732333,0.6243816971746675
6.4296875,-1.1056084580104395,0.418457835499313
6.43359375,-1.3368857119806747,-2.080373783076852
6.4375,1.2326891643810407,-0.302507013822115
6.44140625,0.2540769546090695,-0.4479715305336294
6.4453125,-0.22564517670586207,0.13387385646239666
6.44921875,0.02977526392830519,1.522237528221898
6.453125,0.19869941673790756,-0.8081152678042689
6.45703125,0.16574311719966112,0.3263584584739667
6.4609375,-0.6966890947777664,0.3897825678742105
6.46484375,-0.02769020086885974,-0.5273594873121396
6.46875,-0.7213231701353509,0.30600468197204106
6.47265625,1.8132417987065235,-0.6719471113191963
6.4765625,-0.28535947925230887,-0.6650014582696485
6.48046875,0.33928415862504985,0.5897686496126372
6.484375,0.4514497543668844,0.48641929439521875
6.48828125,0.07178173084387413,-1.4012561579466174
6.4921875,0.11450541152976143,0.7425259783228942
6.49609375,-0.5155111372944121,-0.8928535454114827
6.5,0.34683314467162385,-1.622854331075647
6.50390625,-1.95558783646953,-1.5801419427398482
6.5078125,-0.26985783113072676,-0.9318381818856946
6.51171875,0.06977802472577505,-0.07136736499285963
6.515625,0.3386714602674013,1.8435088840073846
6.51953125,-0.4736184165809113,-0.08046017054838332
6.5234375,-0.1750407833949067,-1.680852490019387
6.52734375,-1.2872296495671423,0.6160860419930334
6.53125,-0.16455168821620325,0.9326314803770898
6.53515625,0.682347472465518,-0.08496994394112771
6.5390625,-0.2245917143478015,-1.4059758836668363
6.54296875,0.1137622975335982,0.9625414396068075
6.546875,0.03106431100243304,0.9117240348856523
6.55078125,-1.2387159470711944,0.5034677957031994
6.5546875,0.14123411328623828,1.3336636313854178
6.55859375,-0.6971655167897716,0.6278940838664984
6.5625,-1.4885278195250053,0.8498961883604144
6.56640625,-1.3361030847653181,-0.6011037270051164
6.5703125,0.14267653492574306,-0.7101719865439782
6.57421875,-1.2616701932954955,1.6846685838904445
6.578125,-0.3898386464736745,-0.7753081171908337
6.58203125,-1.3374216561450216,0.5611798093897739
6.5859375,-0.4440130695921626,0.3133343179147043
6.58984375,-0.963760059267606,0.17179218615148653
6.59375,-0.23164064756747024,0.41084713548123075
6.59765625,-1.0180008836778882,-0.24109729057803383
6.6015625,1.0341129038416892,0.22149654622502665
6.60546875,-1.8103380312051376,-1.163813038403585
6.609375,-1.781117345812167,-0.352213321829158
6.61328125,-2.668217665975251,0.4264680738143316
6.6171875,0.6287326458428696,1.3881971037379748
6.62109375,1.1323902913735115,-0.2544092258011075
6.625,1.2392589004055596,-0.24195011189921423
6.62890625,1.0600038747084755,-0.21083012345360205
6.6328125,-1.022288127717863,0.35275847979337815
6.63671875,0.27999557604728925,-0.4509403217953304
6.640625,-0.6489658007192849,-0.25349599145925833
6.64453125,-0.42416746268182315,0.060150925667949814
6.6484375,0.8960311345084883,-1.048194765048948
6.65234375,-1.7282434614717481,1.371051304276704
6.65625,0.5041640399826811,-1.3764433378391125
6.66015625,-0.28901680734315033,1.713601397252935
6.6640625,0.6284571977717426,0.13886497726609218
6.66796875,-0.8717241531721981,-1.7032545019364596
6.671875,-0.8678007668523722,-0.6237765919961705
6.67578125,1.5950563926381716,-0.5040258913686518
6.6796875,-0.9853541190730294,-0.4233194358905277
6.68359375,1.9059302095488908,-0.7206410085874337
6.6875,-0.039493382440633294,-0.9613726029733112
6.69140625,-0.5126643965759345,-0.8038364117699702
6.6953125,-1.3726516379936473,-1.2294614015369343
6.69921875,-0.08520998891255693,0.009522708668108476
6.703125,1.3029919488200497,1.261020893280903
6.70703125,-0.09008716436753993,0.07210975923222013
6.7109375,-1.2355327991920482,0.15563065092509906
6.71484375,0.2042150865671779,-0.04500835732744633
6.71875,-0.15886974622076766,0.5807971921229403
6.72265625,0.11908939832804206,-0.6569556332872089
6.7265625,0.0557099464089738,0.5678004573224806
6.73046875,-0.24121196543372814,-1.5317852286652405
6.734375,-0.6985629632548117,0.4597522900075442
6.73828125,-0.8240361082701293,-0.5079369285715282
6.7421875,-0.40036296793134074,-0.9433485142719786
6.74609375,-1.001391756048182,0.35923773640477324
6.75,-0.016678112463584832,-0.6839809178506431
6.75390625,-0.26191058598994443,1.5641081924247806
6.7578125,-0.9679642550735693,-0.363250594334419
6.76171875,0.3361494940028292,0.3494368845720361
6.765625,-0.042164164096650115,0.7676161730720122
6.76953125,-0.039294943449436015,-1.2476469922211046
6.7734375,0.917444797639159,-0.68413804754342
6.77734375,-0.2063696828089512,1.5418366456244246
6.78125,-0.055398339797459915,-0.1916588006737497
6.78515625,0.33770527693041597,-0.7904254687825663
6.7890625,-0.6243246250089056,-0.9665009169672382
6.79296875,-0.07900288589026612,-0.11587353095048254
6.796875,1.3763113562133633,0.5083241576421128
6.80078125,0.5812336387315903,1.5436811380996849
6.8046875,0.803060103701337,-0.6351123505150797
6.80859375,-1.3280880866525822,-0.2578573787170771
6.8125,0.3859715748488923,-0.9946504760515734
6.81640625,-1.8580210529780448,-0.859767954942964
6.8203125,-1.4209539270056497,-1.0930896106451684
6.82421875,0.3981346264121384,1.4955106019719693
6.828125,-0.9164511321624514,0.11762948418108275
6.83203125,-1.8848675876812502,-0.4919985563119276
6.8359375,0.17398394108348342,0.8864137404385928
6.83984375,1.1186469472361067,1.0452895794462906
6.84375,0.7539766663698211,0.37321263768266405
6.84765625,0.6724107210843493,-0.34801730070163545
6.8515625,0.6717652889595577,-0.30334238611316006
6.85546875,-0.6444476531688941,0.2960955048708092
6.859375,-0.5062199760493197,0.6087104020231291
6.86328125,-1.958534568577776,0.6792984265585462
6.8671875,-0.44307451793337765,-0.9448422683706359
6.87109375,1.6862233623441827,0.3805737674463124
6.875,-0.5138529163136325,0.28679233179322744
6.87890625,0.023583413969702028,-0.5993191502836944
6.8828125,0.12560130827005853,0.830897421405441
6.88671875,2.086076525071673,-1.0080745377124274
6.890625,-0.40058328364090073,-0.7468527660236604
6.89453125,-0.10977393809680358,-0.1727486991613437
6.8984375,1.476594137102391,1.7202962176792065
6.90234375,-0.899593906949101,0.08940236761120911
6.90625,1.337666694326349,1.1794993611883386
6.91015625,1.0617553549224938,0.5056933324168259
6.9140625,-0.010348505072302838,0.7812238107418129
6.91796875,0.2963843182923432,2.310446418713634
6.921875,-0.28932158370578565,0.5030284067795411
6.92578125,-0.8335276856321128,-0.39788001316281263
6.9296875,0.679265003429578,-1.6381126915572572
6.93359375,-0.47628682097977165,-1.3839914863826126
6.9375,-1.1295728331609038,0.18210678447946482
6.94140625,0.4588949947416161,1.1619815161831386
6.9453125,0.5373378862089568,1.1247386263177532
6.94921875,1.208992844112731,-0.6919283477175249
6.953125,-2.2169355966235234,-1.4996832383361602
6.95703125,-1.174803297730476,0.281488885287822
6.9609375,1.5818547336095774,-0.3136200952144109
6.96484375,-0.17502525540011946,1.3025926280667002
6.96875,-2.208510202948202,-0.994500262407654
6.97265625,0.13767426982289274,0.3313203334955114
6.9765625,1.471701344414388,0.01451097368930014
6.98046875,-0.6812840096071234,-0.14131380121301126
6.984375,0.5930201698541508,-0.0635298663834318
6.98828125,0.5159535572910059,-0.000820598775043212
6.9921875,2.5342368540087308,2.786211769097241
6.99609375,-1.5119056467333534,-0.23718852375637317
7.0,0.4594903418604426,2.313010981940871
7.00390625,-0.28026810547245107,-1.9129467316871573
7.0078125,-1.0535799845559122,-0.7487969778521316
7.01171875,0.30972578218253277,-1.1896997312654958
7.015625,-0.6967685777638185,-0.6774111597219356
7.01953125,-0.5206252290421655,-0.4033536974394494
7.0234375,0.9121792240348604,1.8312293084269835
7.02734375,-1.3265845808917944,-0.7690999815288446
7.03125,0.7197872833564338,0.5254936856948024
7.03515625,1.8979411832029183,0.21595606205514972
7.0390625,-1.291346167542353,0.16356204070003166
7.04296875,0.2526710736081914,0.29091701066595116
7.046875,0.2672684674948443,-0.30889737804216055
7.05078125,0.2274357027211393,-0.2790948313829786
7.0546875,0.29445886154686524,-0.5332566488209612
7.05859375,-1.5587126024516722,0.3609938816168518
7.0625,0.024605835783774437,-0.9140170906555114
7.06640625,0.8076784749534603,1.3006707178321828
7.0703125,-0.097391407979807,0.4317670587345264
7.07421875,1.199698138531357,0.3481392633491547
7.078125,-0.03601218879285332,-1.6787748985060018
7.08203125,-0.30643868054159573,-1.681929402183633
7.0859375,-1.5450566765178007,-0.38128232379864485
7.08984375,-0.7860302856325189,-0.5779956487770328
7.09375,-1.243420505386213,-0.3917366116590185
7.09765625,0.7701067129613548,0.8908233624720333
7.1015625,-0.027269238329548754,1.2049793251961567
7.10546875,-2.328221013989677,-0.5825405065057446
7.109375,1.106204685961486,0.679121189949918
7.11328125,0.9415341552184432,0.18888543501281543
7.1171875,0.32469418185975785,-0.23914899748299373
7.12109375,1.9034729693954913,-0.444172677166717
7.125,-0.5067357718578562,0.7540280164357124
7.12890625,-0.8739426754690911,0.34476551734129546
7.1328125,0.300313960677198,-0.5961595927396259
7.13671875,0.14031133723902062,-0.930396344196805
7.140625,1.297322374238853,-0.15925648059565595
7.14453125,-0.8219367909309996,-0.9738450633052669
7.1484375,0.8732689893303268,0.8127246806375065
7.15234375,-0.6594654270032293,-2.4190832136691633
7.15625,0.20853716415794257,-1.2049734949997823
7.16015625,0.7001096089309934,1.6239845252660925
7.1640625,0.03582089869007003,0.0503254649653592
7.16796875,-0.981783549693262,0.28237822262177925
7.171875,0.41207394213573395,0.633179769492366
7.17578125,-0.3604965353337182,-0.5856836794152791
7.1796875,-0.6754152336478252,1.4010591392716878
7.18359375,0.4398342551687639,-1.590146125195081
7.1875,-0.159414844610403,0.5071257608948488
7.19140625,-1.2180729456143862,0.7489145850653813
7.1953125,-1.9039862794432878,0.3254888510062075
7.19921875,0.29981248199397936,0.03382103727916407
7.203125,-0.7423310040552004,-0.047771778567285386
7.20703125,-0.8370726868328157,1.3780953140821024
7.2109375,1.420206674745418,0.2077493563256529
7.21484375,-0.5044956304978928,0.6291296029423872
7.21875,0.5571871850156118,0.11865479919572404
7.22265625,-0.5746314840424451,-1.2277414677795957
7.2265625,0.2667658707400295,0.770398218470313
7.23046875,0.20805472983701676,-0.5919990948793026
7.234375,0.9113454684877105,1.1859833187757445
7.23828125,-1.6063955559820735,-1.1283317578812062
7.2421875,0.6585494959232374,0.619443208322014
7.24609375,-1.440183356910474,-2.381660724096437
7.25,-0.011902918625662133,-1.7247342491347974
7.25390625,-0.608709195033877,-0.10645033752853385
7.2578125,0.6977460442326177,0.20198960406498423
7.26171875,0.9647287125518687,0.3967244317007221
7.265625,-1.7977474641647824,-0.526068520185513
7.26953125,-2.0585659548582864,-1.782626472422674
7.2734375,-0.46324140849110723,0.7644684694493916
7.27734375,-0.9782499679602832,-0.650908399937571
7.28125,1.4236535878119054,0.5216645816060661
7.28515625,-1.4973159588837608,1.0136133172930906
7.2890625,-1.2470264594604328,-1.0026713034260406
7.29296875,0.23855624093665204,0.2874704881462494
7.296875,0.20897497131253914,-0.3103148427918259
7.30078125,0.2099426564947946,-1.0620857165874806
7.3046875,0.8795542381798095,0.4113610007012319
7.30859375,-0.7777728488837534,-1.4446246548388333
7.3125,-0.7959195290255131,-0.8125758942783379
7.31640625,1.7927525016423886,-1.1111689014231896
7.3203125,1.1557231200222913,-0.28146126942897104
7.32421875,0.19648949504710495,-1.4209675793903425
7.328125,0.03445132806014254,0.7276853128180581
7.33203125,0.5525100456097186,0.4692948546312029
7.3359375,-0.20811960564463267,-0.3191699251237095
7.33984375,1.8672002420792615,-0.13531301305859558
7.34375,0.9298381585613925,1.6965799278718359
7.34765625,0.5870926522752556,-0.28279515071740197
7.3515625,-1.9052534687126814,0.11951820154530048
7.35546875,-0.42280949729905243,0.25436361826029025
7.359375,-1.024538413910615,-0.5911783891676448
7.36328125,0.13905100652028698,-0.9774175059653553
7.3671875,-0.319680750286643,0.8169217810605954
7.37109375,-0.8994539697550858,0.7032724260899794
7.375,-2.026448133520833,-1.2401719148590424
7.37890625,-0.3823105613273158,0.4376500905987521
7.3828125,0.5236893206279196,-0.802542859582299
7.38671875,0.1469456442914442,0.15178256123002862
7.390625,-0.508925389153693,-1.748443775386522
7.39453125,0.46914903470457603,-0.7495591220406513
7.3984375,-0.4037568577592065,-0.7370778759511608
7.40234375,-0.6842906082289532,0.9985056542392149
7.40625,0.695688137028644,2.184661442443863
7.41015625,0.8755519337730737,0.502587949239391
7.4140625,-1.8496123381876206,-1.1254988021983385
7.41796875,-1.2321255953410386,-0.48479563785538965
7.421875,-1.2809132578033247,-0.32408102367075975
7.42578125,-0.6550628127169257,1.216938658083696
7.4296875,0.10599240093153173,-0.5439083874856073
7.43359375,-0.7354945586416521,-0.9065702261726057
7.4375,-0.6177386587615656,-0.940192991029974
7.44140625,-0.41036726923397565,0.027400664492955418
7.4453125,0.1745710896491203,-0.7141418814411072
7.44921875,-1.1250993893193957,-0.3295836514230095
7.453125,-1.141705866780375,-0.14545125782242377
7.45703125,1.4767245061934835,1.6245184043341565
7.4609375,-0.01843193888849734,-1.1498124042001256
7.46484375,1.0121176471723206,0.6086451324717155
7.46875,0.5694372031367424,-0.03822378522385085
7.47265625,-1.4533359396505086,-0.22214309306607716
7.4765625,-0.9295375480793889,0.10406578590687433
7.48046875,0.22201078909740324,2.092249033096424
7.484375,-0.528398725446318,0.25958281923804033
7.48828125,0.4750811178745778,0.9916792438900882
7.4921875,-0.8389137762780561,2.4214846966566754
7.49609375,1.0340675060226736,-0.4288762429873551
7.5,-1.064553223944703,-0.0911869561645977
7.50390625,0.6637155461379568,2.070814619340963
7.5078125,-1.0707802387756156,0.5659375845968536
7.51171875,0.20282251954642844,-2.1955884890176494
7.515625,-0.10800035401577586,0.7236034706971588
7.51953125,0.0938940053628251,0.8351995761794329
7.5234375,0.8866591273478407,1.9452719677665309
7.52734375,-0.08428747764007588,3.1199813228328583
7.53125,-0.37921546161980724,1.4882724131768568
7.53515625,-0.9672084378607364,1.0065373041216328
7.5390625,0.9043024666274442,-0.7044248206970903
7.54296875,2.1158999980375968,-1.175739544508211
7.546875,0.5427413423275211,0.05570411626753467
7.55078125,-0.19516755354063792,0.05388906782947222
7.5546875,0.2535133772762003,0.00471335811983976
7.55859375,-0.02660890521079201,-0.6394860237629797
7.5625,-0.5147060966940338,0.07059957462273299
7.56640625,0.9441414992980303,-0.5674009753842858
7.5703125,-0.5203402663534664,-0.4684835888408178
7.57421875,-0.33174287129116997,1.001069851905849
7.578125,-0.6572281026741634,-0.9781106456845654
7.58203125,-0.5746563544110308,-0.059005535093985435
7.5859375,-0.7006945959766844,2.218452768358859
7.58984375,-0.0887811771434351,0.8394036708123163
7.59375,-0.9622492379077628,1.0750980484774375
7.59765625,0.07841061421708909,0.22371631632986222
7.6015625,-0.4613127420805194,-0.2764578864811326
7.60546875,0.9560692913868545,-0.6337927669606526
7.609375,1.2261721212889698,-0.12456878880262062
7.61328125,0.6621779640590834,-0.12908795037615675
7.6171875,-1.3199493887942768,0.6214415031552013
7.62109375,0.38470313151494623,-1.1641556431476567
7.625,0.1853383407675549,1.801734834473706
7.62890625,0.5227349151709111,0.06638337537314996
7.6328125,0.16432085438357083,-0.4914421359270609
7.63671875,-0.5357170334076304,-0.29454466104619376
7.640625,-0.5844198601430832,-0.1971221747949393
7.64453125,2.092198709351725,-0.5151856321036872
7.6484375,-1.7113404970981132,-1.267684045906492
7.65234375,0.3985555019384896,-0.17172461862037297
7.65625,1.259281463664046,-0.5945125821869388
7.66015625,-0.05065476517282841,-1.5451494224873858
7.6640625,-0.4454411143816266,0.01774537786275037
7.66796875,0.882079315091532,-1.3400506248924013
7.671875,-0.022926768238296518,0.6520712493842282
7.67578125,-0.2536116264840922,1.0780592712142794
7.6796875,-0.2558122552030459,0.9355683924357915
7.68359375,-0.830689351165792,-0.8501521106773047
7.6875,1.2386167039457832,1.276045131021528
7.69140625,-0.5105761724896394,-0.9992032783376817
7.6953125,-0.6298193900329171,0.13002356859354303
7.69921875,2.2984279253009765,1.1060960659105397
7.703125,0.5798115614115321,-1.9245762318361375
7.70703125,0.5112824851492841,-0.8123971457114036
7.7109375,-0.7129851396457279,0.4781088036884368
7.71484375,-1.3539469737894778,-1.4622741511080848
7.71875,-0.9646975129546039,0.7630306627038396
7.72265625,-0.9652495026621969,-0.5904960276045034
7.7265625,-0.4742414547295477,0.13769592451326892
7.73046875,0.9464657201149927,0.4305823532003714
7.734375,-0.8545757206352295,0.0937069324060438
7.73828125,0.5337003898240507,-0.14544557346619202
7.7421875,0.8518177783684822,0.010314293018652297
7.74609375,-0.3677003488137657,-0.7733705258945114
7.75,-1.131869731233899,0.04753705552730657
7.75390625,0.3253522872784726,-0.40927029179035673
7.7578125,-0.2039574078905982,0.44035681736666815
7.76171875,-1.1222179707087871,0.9918567297542827
7.765625,-0.6152686762663697,1.084116397307551
7.76953125,-0.7794139723604918,-0.6268902627860461
7.7734375,-0.3838552440394057,0.33660580002144014
7.77734375,1.340257405834113,-0.25963007405492144
7.78125,-0.33455709905635,-1.588741270961208
7.78515625,0.5219993198995166,-0.9233983373134329
7.7890625,1.2158375219666555,0.3645925835710485
7.79296875,-1.8887744888485796,-0.8046281415953334
7.796875,-0.7096346228448186,0.6901029076133403
7.80078125,0.6731040762848773,0.36868518438532527
7.8046875,0.8654212923878016,0.4250991951162025
7.80859375,0.8939782814652232,0.4135050647908449
7.8125,0.27354740873305955,-1.6557090236249028
7.81640625,-0.08536926507322375,0.5214755601389915
7.8203125,0.031529316315719626,-0.43757214199484334
7.82421875,0.4130316398727819,-0.0861753877633866
7.828125,-1.1480938313115758,-0.43632702716278154
7.83203125,-0.2915457043161897,0.15767224695320733
7.8359375,0.5072015993356034,-1.6084393034210274
7.83984375,0.816279906186101,-0.9399623754737556
7.84375,0.6518259360933837,1.1691540832658895
7.84765625,0.1292915557749281,-0.10511805065213059
7.8515625,-0.7585671955764184,1.5695417267485132
7.85546875,0.21025418626867032,-1.1868849859909958
7.859375,-0.7829107499052103,-0.5578608869466434
7.86328125,1.5895043036653722,-1.3606653539036837
7.8671875,0.01827591421359819,1.8854550198790758
7.87109375,-1.3751920127328068,-0.6257861513476257
7.875,-0.3104984716722652,0.792305269736775
7.87890625,-0.7652338291539348,0.25406635454193777
7.8828125,-0.7980458758486145,-0.3066374856755884
7.88671875,1.2011444621501859,-0.5492008284416761
7.890625,0.3455421233750274,0.6469731692352859
7.89453125,-0.15892971055550142,1.0145768805275088
7.8984375,0.7693896895454249,-0.5186105891098955
7.90234375,0.10828428529103622,-0.36475759793306356
7.90625,0.9612480153719386,-0.04293539197100218
7.91015625,0.26142831528537247,-0.3703178810909615
7.9140625,-0.45563582822253507,0.6698412815071194
7.91796875,-0.06622001911308033,-1.9741685896153351
7.921875,0.7504967576492364,0.9502778045070491
7.92578125,-0.3175069588284427,0.3291332034546246
7.9296875,0.3069930687889564,-1.4719228681630039
7.93359375,-0.3732054303824832,0.9815338261062146
7.9375,-1.131349941042815,-0.05771754848508329
7.94140625,1.4596354399130373,0.050285185219820144
7.9453125,0.4699845553221876,1.9871732044065364
7.94921875,-1.9979397839908148,0.28255492806700244
7.953125,-1.6783675024687714,0.9483977436221359
7.95703125,-0.5576516485576966,-1.9933877587537405
7.9609375,1.5288060430276316,-0.9967671476829377
7.96484375,-0.7515124425279748,0.5062913677937714
7.96875,-0.31548998168681025,-1.1975684686690193
7.97265625,-0.004157572890701638,-1.102808768614101
7.9765625,-0.4324609840711944,-0.09199224852664335
7.98046875,0.4630699747128112,1.1966925360341638
7.984375,-0.16868343518117157,0.5742035917177295
7.98828125,1.5763107315541707,-0.7072571161167011
7.9921875,0.6566923075382519,-0.5950533436987815
7.99609375,0.9592744663687693,-2.0513916166129604
8.0,0.26634710676864837,1.8996060928716378
8.00390625,-0.2262810975218502,-1.2305858140919137
8.0078125,0.8656827756189922,-0.609163612905344
8.01171875,0.3970254779888481,-0.310444636790252
8.015625,-1.4344419561690855,-0.7250620888349776
8.01953125,-0.334725739653702,-0.5307502683186764
8.0234375,0.8017552896227265,1.3968848393123137
8.02734375,0.17087441417245894,-0.22807673724978506
8.03125,0.3795274944013693,0.6177416847007318
8.03515625,0.20879597569755962,1.9628137650045168
8.0390625,-0.14496630699326116,1.0713882854483714
8.04296875,0.18612779340433727,2.063206340834632
8.046875,-0.8287669899093759,0.3971645500769035
8.05078125,-2.2144680978352125,0.3803404176769945
8.0546875,-0.7505914794812356,-2.879379666685847
8.05859375,0.16884999710284276,-1.190655871506787
8.0625,-1.270958484823607,-1.2820285077734503
8.06640625,0.9742327805240637,-0.5014956054524059
8.0703125,-1.4763330358676092,1.7958327989354572
8.07421875,1.4625378722103743,-0.09803296350014253
8.078125,1.192632087077764,0.3861792789312689
8.08203125,0.7066226179249616,-0.8180098911158723
8.0859375,-0.15424757032349137,-0.46297925848231336
8.08984375,-0.8782015236425741,0.3905193921301276
8.09375,-0.2631454838424682,0.25642333994608907
8.09765625,0.3540474662904154,1.1114364985561322
8.1015625,0.3617603731856867,0.783733265935689
8.10546875,0.15273609138592997,1.0958050927096592
8.109375,1.1813527670975732,0.32452963799870316
8.11328125,-1.0615335514378381,1.4827704294611843
8.1171875,0.39996686328946557,-0.5827708532342288
8.12109375,1.6239902995545639,-0.20385939707541442
8.125,-0.0827633954002692,1.2079530956237892
8.12890625,0.6203050922653932,-0.8449896215194995
8.1328125,-0.8485705996839035,-0.9674898685219645
8.13671875,0.6769554273591336,-0.5577188020613902
8.140625,-0.24218748047373206,0.05472151282871582
8.14453125,0.5502755167257863,-2.1255861969211134
8.1484375,-3.097543981864767,-0.2220965657293154
8.15234375,1.2994062331680183,-3.4639274384809013
8.15625,-0.7323210628459879,-0.023542446380245982
8.16015625,-0.22097066701442195,0.1996852551020177
8.1640625,0.6985301225641747,-1.2686618690950449
8.16796875,1.1916970816969523,1.2624915820689078
8.171875,-0.03742091782375754,0.24131582538143687
8.17578125,1.6460815649404807,1.4605589520092503
8.1796875,1.005952825582777,-0.4930983681273724
8.18359375,0.9629149915071739,-0.06337814345781172
8.1875,0.864103962451813,-0.8763213756398442
8.19140625,-0.6094595974686927,0.2601952885900796
8.1953125,0.8866353218742712,0.9900208722837592
8.19921875,-0.34228610154428446,-0.7398211645966355
8.203125,-0.681862635084139,0.6008864406426604
8.20703125,0.3744198205061289,-0.273124263484384
8.2109375,0.41477373829028713,-0.5528295953161081
8.21484375,0.21580211457727952,0.18378153881322057
8.21875,-2.1307491374393854,-1.2220413669532175
8.22265625,2.0136813088025374,-1.292901211682236
8.2265625,-0.7717790374169565,0.8589428884597506
8.23046875,0.3526545583941583,-0.3579198029501495
8.234375,-1.0477230548050258,-0.0901119662705011
8.23828125,0.042818540851805705,0.6580144485816547
8.2421875,-0.02445128993218426,-0.7527704675340862
8.24609375,0.24750920672836974,-0.3963975204349279
8.25,0.07180930109323931,0.3781039185924021
8.25390625,-0.9352675282694861,-0.8255929608052524
8.2578125,1.6671162729114881,-0.882299603560046
8.26171875,0.36493929463189123,-0.8352531512461514
8.265625,-7.818634789290525e-05,-1.5144608111481426
8.26953125,-0.5487387719163722,-0.3515375702929093
8.2734375,-1.019888974786784,-0.26560626404339066
8.27734375,0.8212862522548564,1.2397792046223874
8.28125,-0.8880004530078496,0.35715346352007027
8.28515625,-1.406359021857327,-0.11599010510597119
8.2890625,-0.9231032581366035,-2.3276088514995856
8.29296875,-1.406955059624092,-0.20853914006540522
8.296875,0.559223252402249,-0.3296996790513533
8.30078125,-0.20277580150273006,-0.4501836726466978
8.3046875,-0.2248514135190279,0.8243316182115819
8.30859375,0.09482179067155899,-1.3125587389152364
8.3125,0.09769089334193859,0.9488861545301374
8.31640625,-0.7257722245912499,1.2079133038681436
8.3203125,0.9299582377117716,-0.0475657762507956
8.32421875,0.48688564148585395,-0.17612354960702395
8.328125,-1.4342201666134353,1.1765307011880648
8.33203125,1.7523159967614805,-0.5059702422175366
8.3359375,0.06239042856451402,-1.1088966761628967
8.33984375,-0.12107309426637752,-1.6451187611899807
8.34375,-1.1875863606917259,0.018525124185438446
8.34765625,0.30183504427998253,1.2261040947734907
8.3515625,1.304169672189439,-0.32847729212905447
8.35546875,1.3048627429494681,-2.1287762324227844
8.359375,-0.006208027304914118,0.18074055472429307
8.36328125,-0.19149408780685157,-2.2219540800215536
8.3671875,-1.0748897961317434,-0.6696978072569534
8.37109375,-1.2004660859323497,0.5659567785686763
8.375,-1.7453988612773177,0.25145371868349575
8.37890625,-1.5024709514117436,1.2335763477012955
8.3828125,0.1105472871241985,0.4421644475073218
8.38671875,0.9040482034922529,-0.4695107154010071
8.390625,-0.3207911701490161,-1.1368063650436815
8.39453125,-0.06253581966247608,-0.0077311824030889785
8.3984375,-0.25599536380593363,0.6300239775134744
8.40234375,-1.389136632866655,0.07182511431568951
8.40625,0.3187462080752174,-1.5547956721169416
8.41015625,1.5532615466615185,-0.032086369322458695
8.4140625,1.2135899110597996,0.47135280854332146
8.41796875,-0.47263723129823365,0.6482096505431126
8.421875,-0.6464083956945007,0.39184704463961967
8.42578125,-0.7540922176325935,0.8994395657492733
8.4296875,0.9985539628834639,-1.212436098517473
8.43359375,-2.369042310257257,-0.007839357306091388
8.4375,1.0744958748573479,-1.3131570357710072
8.44140625,-2.0045044607898905,0.8952510776951836
8.4453125,-0.996084405448742,0.08998221462617444
8.44921875,-0.9596431408996853,-1.293198199564256
8.453125,0.26352422225457517,-0.7143188279609056
8.45703125,0.7227851940626047,-0.8533094619011112
8.4609375,-1.1768527355056408,2.8249180513699366
8.46484375,2.0548270653613523,0.14426080288154575
8.46875,-1.771505638061744,-0.6651229478512459
8.47265625,-0.9548001905236213,-0.06941353566738785
8.4765625,1.4395153247029036,-0.37636164970147584
8.48046875,0.9366597768170085,-0.8279359819764074
8.484375,0.30464438513481923,-0.9280937572375837
8.48828125,-0.47436061199783053,0.359105057821405
8.4921875,0.38287676602398624,-0.10405530796847363
8.49609375,-1.0239738107132195,-0.045752761429272995
8.5,-0.502168882105002,-2.612698699268394
8.50390625,0.11723880382130095,-0.15056071029511137
8.5078125,-0.5884667228797026,-2.3992765182732656
8.51171875,-0.8443286702928968,2.3730498531848294
8.515625,-0.9764944888930909,-0.29811753047227924
8.51953125,-2.263706601133761,1.93712380553839
8.5234375,2.1094084504962396,1.6560944872714842
8.52734375,-0.4435605575851024,0.757810177077713
8.53125,0.14754587961462243,-0.8997121371156857
8.53515625,-0.6573850254473905,2.179997558624993
8.5390625,-1.0672238855165401,0.9124905485341752
8.54296875,-0.2945682842005581,-2.330935986917796
8.546875,-0.4958870176539897,-2.3024406903348598
8.55078125,-2.262464261521412,0.9767008312913555
8.5546875,0.25649309092218575,1.2086264963199944
8.55859375,0.5059837429930394,-0.8294583334878303
8.5625,-0.7948907584052205,0.18977082612859267
8.56640625,-0.4814821300697809,-0.0839595163205921
8.5703125,1.1259690500865354,-0.900994425585322
8.57421875,-1.7136343581401452,-0.5865933535519463
8.578125,-0.2983019992363472,-0.2783870334022333
8.58203125,0.8503788232884241,0.09637253765938696
8.5859375,-0.09483389915484097,-1.113594136309725
8.58984375,-1.573944216584686,1.6821184291493965
8.59375,0.2766883510834021,1.6439991314770448
8.59765625,1.341799096796928,1.426209576124
8.6015625,0.14511327825342316,-0.11859320434815256
8.60546875,-0.1939032379284416,-0.06784266920721643
8.609375,-0.8126671086592162,-0.2835857475348028
8.61328125,0.61209315172328,0.4942160160933349
8.6171875,0.47381081089803173,-0.5594052800389459
8.62109375,0.7828014783625105,0.8833585591268874
8.625,-0.9319698161031023,-0.728919575903431
8.62890625,0.07096122758576479,1.444316133736536
8.6328125,0.6713993201319084,-0.9059756137876005
8.63671875,2.3251183748661157,-0.7606168354807373
8.640625,-0.14395361649859964,1.1270819961910583
8.64453125,-0.6859657064430386,0.1053182074985107
8.6484375,2.2706147577848896,0.2541776680109326
8.65234375,0.9817644734492585,-1.6915599507276204
8.65625,0.6424795218973789,1.6985639906843657
8.66015625,0.24706279686317656,1.1785530318813184
8.6640625,-0.8294671714861507,0.5996254780947828
8.66796875,-0.4570503435254541,1.4422309546881804
8.671875,-1.5328190897857967,0.7454764937789056
8.67578125,1.7937263629320923,-1.5266065476567003
8.6796875,3.0077860714421476,-0.5199591559870745
8.68359375,1.3291485810564514,-1.132858251809698
8.6875,0.7372750318996572,-0.398197549809304
8.69140625,0.5774070478966498,-0.030540644808007517
8.6953125,-0.6916644880496565,0.11506332225034133
8.69921875,2.441538377080308,-0.04085777643160478
8.703125,0.36506056549506355,1.7347880591774703
8.70703125,0.808222143184946,-0.021613633342734476
8.7109375,0.6596410090540293,-2.1089852439186787
8.71484375,0.2693324036240974,-1.0214816720607571
8.71875,-0.5066239225698014,-0.3513513496227932
8.72265625,-0.6229806144472003,0.44544632946343327
8.7265625,-1.4885848644267625,0.09535798645313723
8.73046875,-0.5035951806618267,-0.3356873180827166
8.734375,-0.48007968098922477,0.3877814074209311
8.73828125,1.9525025699173233,0.28508029087900005
8.7421875,0.33840768349721956,0.6566675639974243
8.74609375,0.38755780016453945,1.2661646243872107
8.75,0.4395308926994428,0.8185768308153506
8.75390625,0.9255686531212738,0.006924486578381693
8.7578125,-0.6440775408704257,-0.14374577131855448
8.76171875,-1.1721393042673076,-0.6129744614537675
8.765625,0.2950552531408328,-1.9749691945805694
8.76953125,-0.18742712807165512,-0.2667049764360118
8.7734375,1.550703927488648,-0.18256425810307467
8.77734375,1.6805647752183208,-0.2518258088890489
8.78125,1.2050350383144504,-1.5350968994586067
8.78515625,1.2264679274709431,1.3750242117598261
8.7890625,0.6480084548076025,-0.3395249334726462
8.79296875,0.24524114593290958,0.6609600423907754
8.796875,0.3879997309176162,-1.0884198581841102
8.80078125,-0.8150993398928134,0.9045695247086539
8.8046875,-0.21502855478417834,-0.5502481320775888
8.80859375,0.2336292825017759,1.4682268969740828
8.8125,1.0796382557438,1.1149616817942842
8.81640625,0.45010964932668707,-1.2673555864114063
8.8203125,-0.10531485010150042,-0.005221133709606168
8.82421875,-0.4617520233447354,1.3208754723043583
8.828125,-1.0043331692671962,-0.03925863399991732
8.83203125,1.0378564469365428,1.6329082060209077
8.8359375,1.7190813842463866,0.059961654466763666
8.83984375,-0.16603373819779105,0.7822180273097729
8.84375,-0.23453999514787324,0.9305684752433608
8.84765625,-1.4412826809178256,0.6467425246769847
8.8515625,0.9105711176010345,0.7337899413723796
8.85546875,1.2658172119921904,0.9726313654612324
8.859375,-2.290407899566244,0.42762362767992484
8.86328125,-1.2761144165987308,0.6969818622052192
8.8671875,-1.788401821642642,1.6262931558255
8.87109375,0.7210460742705759,-0.8456302711368204
8.875,1.7934996141733792,0.49147402945272367
8.87890625,-0.6114923296981551,-0.1960932126041353
8.8828125,0.5146842009040643,0.8964132824117622
8.88671875,-0.42613571101769016,-0.03849143775239141
8.890625,-0.8484745982364496,-0.5018904872791005
8.89453125,-0.822245019523948,0.7765994054134422
8.8984375,0.5280525886291497,-0.15917890284459457
8.90234375,0.22930509310699423,0.7704943388780398
8.90625,0.4764960303215952,1.3218575919921514
8.91015625,-1.8452675727333434,-1.382298269589959
8.9140625,1.7767628801770063,0.5955492053846332
8.91796875,-0.310403206238912,-0.42489793232637746
8.921875,0.8348056879991245,-0.24912883522117055
8.92578125,-0.13725801395139095,-0.7980459538744599
8.9296875,0.911936213458786,-0.8339818283609297
8.93359375,-0.7548670232809132,-1.7237728954559333
8.9375,-0.19370994653194032,-1.1960034754042574
8.94140625,1.1095020901004884,1.6587785819141467
8.9453125,0.5596334480599262,-2.3992359420790805
8.94921875,1.1514203292698206,0.5286600318613729
8.953125,-0.551560885814968,0.4897797122006553
8.95703125,0.8721795618623104,2.0098274047109177
8.9609375,0.18369880225305904,-0.42360398155133916
8.96484375,-0.5318566853003314,1.3940128825242288
8.96875,1.211346026093356,0.5525149407727012
8.97265625,0.1137293196800919,1.1936948858788243
8.9765625,1.411876985194333,-0.12313223344644617
8.98046875,0.9394266872866088,0.3606231353100602
8.984375,0.08915529957787557,-0.41514698554467827
8.98828125,-1.357538197734763,0.5569385022204157
8.9921875,-2.3071479300487425,-0.33505599831331734
8.99609375,-0.2433733401048884,0.8276881900901543
9.0,1.499217842921747,1.9491492301691755
9.00390625,-1.1365607893266225,-0.84867890263031
9.0078125,3.4474651285634477,0.32805097476079453
9.01171875,0.9477721077707283,-1.022876336636526
9.015625,1.8109127319429692,0.8103040809783598
9.01953125,-0.8721590121028132,0.9633348720789654
9.0234375,0.09676388558933977,1.6117199859383273
9.02734375,-0.1978404900588889,1.3408695149338477
9.03125,-0.1765295145108034,1.0821897314106201
9.03515625,0.009527322416019002,3.1258961857929264
9.0390625,-0.25841248221206214,-0.19970133710625232
9.04296875,2.262352747098266,-0.3065771911705
9.046875,-0.8689463374401061,0.2585705453856346
9.05078125,0.9521413754274204,0.5122026435008025
9.0546875,-0.7515484675857996,1.0668171187115765
9.05859375,-1.1426369020827605,0.7643469387171129
9.0625,-0.7404244496588299,-0.12082587488321983
9.06640625,-0.7193416678860717,-0.4718738403634298
9.0703125,-1.1660599318494922,0.6896569258010202
9.07421875,-0.44463436675091794,-0.21648220038327354
9.078125,-0.5789143596790256,-0.4862134912174377
9.08203125,0.09627892670050957,0.11617526917084703
9.0859375,0.04981301173454813,0.17880934117082217
9.08984375,-1.559925882673317,-0.16010919154308326
9.09375,1.7128954891334907,1.5325667485195
9.09765625,0.15610524506607715,-1.0061289691173079
9.1015625,1.8517968605596622,-0.1978282591291519
9.10546875,-0.09546072662647756,-0.30546874231385
9.109375,-0.1047734959108634,0.08204766301002114
9.11328125,-1.2539160642738014,-1.3622209249446673
9.1171875,-2.386861936657532,-0.7516722032488111
9.12109375,0.6467748019381642,-0.8477164787979065
9.125,-0.6933410110971088,-0.21211890833062907
9.12890625,0.2556935904490235,0.23363044796001406
9.1328125,-1.377321855132762,-0.724589005877708
9.13671875,-1.875282454404416,-2.041481080927042
9.140625,0.7874450558726409,-0.7908471952874107
9.14453125,1.0389758272511782,0.06690124328601582
9.1484375,0.22539269007495707,1.5139416352974637
9.15234375,0.5486495062350029,0.24974766910851373
9.15625,-0.2182460325165355,0.5164142638362955
9.16015625,0.6124879958648982,-0.1515971346961148
9.1640625,0.7333892397446063,-0.052016335546105415
9.16796875,-0.40463088238399936,0.9735252600730577
9.171875,-0.07403933312037829,0.7283705992255843
9.17578125,0.28221687323975436,-0.8017844138203125
9.1796875,0.08205134296264982,0.06754885962746308
9.18359375,-1.0914801546565336,0.6994501658902642
9.1875,-1.3318533011178015,-0.9999495696701103
9.19140625,0.5574206425728971,0.17927010849420053
9.1953125,-0.78117455678722,1.4709658179498277
9.19921875,0.9998139953170658,-0.5534848208008208
9.203125,-1.4663127275441064,0.22117567813780362
9.20703125,-0.9735656098745763,0.21170971385704487
9.2109375,-2.3205645106916353,0.19937235350901802
9.21484375,1.0549176346019,1.2751000566105393
9.21875,1.5843093142217688,1.2291425438511763
9.22265625,-2.5158387987232667,0.9244891865609869
9.2265625,-0.3261333756939127,0.05581829275140256
9.23046875,1.9473604326103127,2.5865209976154313
9.234375,0.15909876731924077,-0.4270444615278346
9.23828125,-0.9020987871010101,0.01944218819062251
9.2421875,1.5993777418642403,-0.9764078870114717
9.24609375,0.13509686845427127,0.5564119120126596
9.25,-0.23237652528920508,1.3154094106047327
9.25390625,0.976656723057453,-0.31075591995821444
9.2578125,-0.40588445797130274,0.15352336716746873
9.26171875,-1.3519654789054982,0.32518313964737444
9.265625,0.608200575896783,0.7137336456046266
9.26953125,-1.0721876056917161,-0.970515012838516
9.2734375,0.8923628489051775,0.9036820580756014
9.27734375,1.6976048293709562,-1.4927627670670667
9.28125,-1.018180123605133,0.761338438888404
9.28515625,0.6232911315936072,-0.15180727992230122
9.2890625,0.1471354804451819,0.9996221408670194
9.29296875,0.9111527165536545,-1.383311226342529
9.296875,-0.1344457407899355,-0.4014788847258497
9.30078125,-0.7594350450201887,0.13393636882629104
9.3046875,-1.4909008892820332,1.4957593286725726
9.30859375,1.0604406903145436,1.2170998869595673
9.3125,0.6799798821037316,-0.6984893000580301
9.31640625,2.0369485625738903,1.7798557411641676
9.3203125,0.31528132981106216,-0.4713017716485275
9.32421875,-0.6677321771392598,0.7622042756436376
9.328125,0.43438033765832396,-0.3561268828587018
9.33203125,-0.33779902971539083,1.2285875338631396
9.3359375,-0.9597138679792617,-1.0988940824708444
9.33984375,0.5171275835818108,1.1719813446941367
9.34375,0.08395418906979507,-0.02827902831431947
9.34765625,0.5436290356293808,-1.2973173989565547
9.3515625,-0.23696463332531084,0.9314504909432217
9.35546875,-1.0438550277453482,1.5992138814374246
9.359375,1.7761334647058042,-0.9234878911928314
9.36328125,1.150390279395252,-0.4242699964250434
9.3671875,0.044058982498473696,-0.050349905274927886
9.37109375,0.8295234784223541,0.8123843106994185
9.375,-0.9194783823887105,-0.8309161680868171
9.37890625,-0.4698829105078212,-0.654901362296295
9.3828125,-0.7941563744646517,-1.771089087997402
9.38671875,-0.9418179575822161,-0.062355926094397864
9.390625,0.6632808817407804,1.3197436004406156
9.39453125,-0.8365296638333776,0.38444604067784643
9.3984375,2.3000226086147135,0.541476000374835
9.40234375,-0.2784971920319525,-1.3454340051579707
9.40625,0.03497847779167427,-0.06791436586083181
9.41015625,1.5884584701166395,0.6002331794848406
9.4140625,-0.2357192914445069,-0.773748864663254
9.41796875,-1.2698527312244945,-0.6876460869999069
9.421875,-0.654430099933153,0.6927324943010363
9.42578125,0.4127084148709608,-1.2943098107792659
9.4296875,-0.04829952779684249,1.653160353882039
9.43359375,0.2961668213054675,0.1654156846235794
9.4375,-0.018507196615997607,-1.3835805699113686
9.44140625,0.8160049618691776,-0.5792343718553463
9.4453125,-2.031706239857807,-0.027848855064853118
9.44921875,-0.8354872526607903,-1.1345689105266341
9.453125,2.470177008056389,0.5306741428363242
9.45703125,1.5794666849818364,-1.1210312725658693
9.4609375,0.13326989038220763,0.9188472188796292
9.46484375,-0.06628542676480173,-0.005782994558421021
9.46875,1.896124081450518,2.14940228554124
9.47265625,0.7250884001167506,0.540645615730163
9.4765625,-1.425799809169395,-2.312416445378269
9.48046875,-0.4751265790418933,-0.12093668897973944
9.484375,0.48535794484039385,0.4374704390214072
9.48828125,1.4593844008003471,0.5415105725912248
9.4921875,2.1239603276535646,1.1564658642286525
9.49609375,-1.8315635285342833,-0.38719402378398676
9.5,-1.9409182410866908,-0.7779739037324291
9.50390625,-0.32405857030258367,0.5847370806569163
9.5078125,-2.5089438193681364,0.788208543753187
