time,ecg,ppg
0.0,0.383609147018249,0.4910190658167356
0.00390625,-1.2820699237456175,-2.300591535798769
0.0078125,1.4261623976200992,0.7341952245511557
0.01171875,-0.005473163694749718,-0.36602282628347793
0.015625,0.2861599005778729,0.07188073247500655
0.01953125,0.121182877116875,-0.18459569796821415
0.0234375,-0.6533558852259516,-2.572488598589819
0.02734375,2.264275559188874,1.5419161910961403
0.03125,0.8458642070169813,0.42912746800017515
0.03515625,-0.24700250500659482,-1.0550004548478658
0.0390625,-1.499564301727617,-0.20304444909263247
0.04296875,-0.4015715924887197,1.6539084984293229
0.046875,0.10347452533466901,0.1162567062297065
0.05078125,-0.37756002196213284,-0.6826599872709598
0.0546875,0.6448227716093432,-0.7212143581906512
0.05859375,0.5579889572899522,-0.4358192264064961
0.0625,-0.7477040862636117,-0.016354115573177
0.06640625,0.8644878478245017,0.8874180564055216
0.0703125,-0.6035129744854306,-1.078010747708893
0.07421875,-0.46854401431171505,-0.7977287548137648
0.078125,-1.3809129239265792,0.2914748478236339
0.08203125,2.3320026455823633,-0.40020734330260804
0.0859375,-0.8285066721490114,0.6783104031113149
0.08984375,0.7919958699310108,0.9296044392840466
0.09375,-0.16839193495834556,-0.34563810356928826
0.09765625,0.24434454554277515,-0.47071057097111735
0.1015625,0.869520295964706,3.2311405243775533
0.10546875,-1.7386548316595687,0.7016705161927101
0.109375,-2.1716045842752747,2.1230318506366674
0.11328125,0.18639793193543186,-0.6718288489243142
0.1171875,-0.07614362509693023,1.450526085563219
0.12109375,-0.5640012247221661,-0.8612476289782168
0.125,-1.239007596153864,1.1309084010407977
0.12890625,-1.507768796289308,-0.03850775803442429
0.1328125,-0.36604963437098004,2.0994391541708275
0.13671875,0.2521555708453362,0.1546474127218509
0.140625,0.353365477051669,-0.34908239419553655
0.14453125,0.7348911602239013,0.8941850920353185
0.1484375,0.18381556468442373,-0.8509364062441422
0.15234375,-1.2385286221956122,-0.07370344550071538
0.15625,-0.1308121807979845,-0.11395764248045863
0.16015625,-0.8915632732077499,0.3990823997768373
0.1640625,-1.6352342349162432,-0.5981940677467537
0.16796875,-0.6453792134411758,-0.12426743514700644
0.171875,-0.7373758846084223,0.6753949436771219
0.17578125,-1.531962628276569,1.0508599399500684
0.1796875,-0.20196637946780582,0.5993706507478093
0.18359375,1.4302807727256945,1.2181499214370946
0.1875,0.3966056385594993,-0.4512051427752071
0.19140625,0.3012457261173528,-0.4300278787437059
0.1953125,0.2603457426557283,-1.7049668221438605
0.19921875,-0.3061073414483966,-0.8845045242474477
0.203125,-0.34578742070354085,-1.1138021244835352
0.20703125,0.05139452118029467,2.4301589613303896
0.2109375,-0.0009456503684758347,-0.8506973448404367
0.21484375,-1.3149385287179118,2.484646897203204
0.21875,2.4363185595794783,1.0961683865853173
0.22265625,-0.8551713556757082,-1.5239862149374097
0.2265625,0.30066687224869254,-0.7587110607731665
0.23046875,-0.10604789498263809,1.1752299991495734
0.234375,-1.6275762661802178,-0.3326401953669462
0.23828125,0.32298693256706146,0.8553030218390405
0.2421875,-0.8252965518692592,-0.06229250663353628
0.24609375,-0.9487045079815422,0.3517217701168726
0.25,-0.517863338707664,0.3945481855197339
0.25390625,-1.9541280118838973,-1.2351252092702945
0.2578125,0.15627575233182295,-0.9786948718155405
0.26171875,1.041546960079625,0.20833247945329422
0.265625,-0.7410972470951553,-0.0712908480473143
0.26953125,-2.4323847504595464,-0.5056621683445802
0.2734375,0.5134371822494419,-0.3513258599146216
0.27734375,0.23805585302882845,1.3156053655293944
0.28125,-0.5904697180011543,-1.591318074578121
0.28515625,0.13962899764855538,2.5778916929198283
0.2890625,-0.6409608433219804,0.20421105989683003
0.29296875,0.12601962016919827,-0.15817939726684155
0.296875,0.6930776799016163,-0.08447068526487414
0.30078125,-0.9311607449945057,-0.35496125227619735
0.3046875,-0.11900178939760461,1.704913178137919
0.30859375,1.3856750327065703,-1.191238066672109
0.3125,1.1399403875871352,-0.3390863018347139
0.31640625,-1.3863188715102759,0.6154179953405744
0.3203125,-0.4685051866424796,0.9933709899784665
0.32421875,0.43159293527246156,0.7984306630367275
0.328125,0.5235044890570628,-1.4262661961573986
0.33203125,0.22865069993332168,-0.9148154690198586
0.3359375,0.32749096472415123,0.3567643529457739
0.33984375,2.40947966616503,0.8817490401136442
0.34375,0.6549339036099159,-0.6690500255268698
0.34765625,-0.9174238351884256,-0.8027197071899302
0.3515625,0.08319505502971028,0.35413240037728155
0.35546875,0.39887931765024387,1.318065718359435
0.359375,0.9573447085801101,0.4053739147396719
0.36328125,1.9935891552536325,-0.8846612053219418
0.3671875,0.40406971064374014,-1.5504196896668898
0.37109375,0.9337943159308021,-1.504969349938669
0.375,-1.2419992130695052,-0.24634351133734825
0.37890625,1.207325120959256,-0.02605864581438058
0.3828125,-0.2034359127695234,1.0402244347821161
0.38671875,-0.5960977910719322,-1.3247792299800207
0.390625,0.4907179254796398,1.2324680805821484
0.39453125,0.6783939840381736,-0.6194919434600629
0.3984375,1.9850926600403442,1.5430333776942262
0.40234375,-0.34912904156308605,-0.20358862104073944
0.40625,0.054496451970044636,0.3770991113262165
0.41015625,-0.09442240143683797,0.09733519305779341
0.4140625,1.1565298575862828,1.6202861243412956
0.41796875,-0.9627758332310951,0.49497756895856265
0.421875,-1.77781934379296,-0.7077489731258019
0.42578125,-1.5859866307967003,1.676457868554834
0.4296875,-0.40430919680781463,-0.036501697093876226
0.43359375,-0.5279672480458575,0.3602104275834685
0.4375,1.1546674527867966,0.27663036354475606
0.44140625,1.4140866104244385,-0.7230866102887686
0.4453125,0.6736520354756286,0.8946679707375176
0.44921875,-0.17015677728997136,0.5309620091206367
0.453125,-0.24875682207885583,-0.5717641293239799
0.45703125,-0.8559324789597049,-0.45968771491259336
0.4609375,-1.9814082500644565,-1.9992049757046966
0.46484375,0.8097768961561622,0.3923479595446176
0.46875,-1.662187836144403,-2.024426098820135
0.47265625,-1.6484436507114741,-0.09732073315508906
0.4765625,-0.6890145323549318,1.6293725127413519
0.48046875,1.4364141584840828,0.9238378050411293
0.484375,1.096718681385245,0.5901261551339585
0.48828125,1.2573711392658473,-0.3803265112103695
0.4921875,0.07029168234590635,-0.4735577666134538
0.49609375,-0.14802997433037682,-0.05463088415228555
0.5,-0.9438736250198101,1.8278827385454934
0.50390625,2.195009752095609,-0.42599438448113464
0.5078125,0.06697815131828434,0.4418776295873814
0.51171875,0.6816944955198475,0.46790640330466343
0.515625,0.3800730889075862,-1.1447715183483231
0.51953125,-0.2871016722683867,0.011701926386642605
0.5234375,-1.3424748040938803,-0.9649908022183588
0.52734375,-1.601905393824422,-0.23484100151463508
0.53125,-1.2984161956224367,2.407064113765717
0.53515625,0.4717789795627099,0.23408968337699732
0.5390625,-1.2873770489941716,-0.19405689745598317
0.54296875,-0.8741656054165613,-1.0066572966028202
0.546875,2.6439534506413387,-1.1909305318248165
0.55078125,-1.4096811957438413,-0.8688709141995029
0.5546875,-1.0854695645506254,1.9490675531840267
0.55859375,-1.2421079184139496,0.6483713635317195
0.5625,1.1840547075096908,-0.23901540018932887
0.56640625,1.8665225734240523,0.1396563069719714
0.5703125,0.2987596599104812,-0.2601015130667266
0.57421875,0.566427635063292,-0.8262458619579549
0.578125,-1.239459238961359,0.17071461810585742
0.58203125,-0.7198237136168659,-1.1537523306927753
0.5859375,1.26827449333679,-1.169890365531318
0.58984375,-0.008607265889880101,0.4553728116919757
0.59375,-0.2662631548696874,0.4312615132413475
0.59765625,-0.05290662463297736,0.8576931310518953
0.6015625,-0.1135632292302228,-0.1194633563341207
0.60546875,-1.5734603817649837,-0.023248619609488375
0.609375,1.3140374138407567,-0.28677983720788236
0.61328125,-1.0575113344305558,1.5921564148099203
0.6171875,0.018467910570016625,0.3556641932866229
0.62109375,0.7220745916622685,0.27881638849251433
0.625,0.24267901812666753,0.23223118359465983
0.62890625,0.0721304722248338,-1.0629576905649918
0.6328125,0.6181902338081272,-0.6684679570477574
0.63671875,0.17275724848809992,0.96981331052663
0.640625,0.023369619426776216,-2.7096016050901857
0.64453125,0.9996248660861174,0.011947511683912592
0.6484375,-0.6691803044926415,-1.1335862325579356
0.65234375,-0.5425952149436367,1.3337141346429071
0.65625,0.9221372895519709,0.7000875184556438
0.66015625,-0.29460045448913963,-0.35242449650736607
0.6640625,0.5003805909408245,-0.79980898300732
0.66796875,-1.3740871262072263,0.23048112035800977
0.671875,1.9303966936009884,-0.19236220263025658
0.67578125,1.6462749716258855,-1.068593891487864
0.6796875,-0.3221864764222866,-0.3022593885905207
0.68359375,0.15230499382901605,-2.174625605409183
0.6875,0.8960217022122196,-0.9751518486972991
0.69140625,1.008745927741566,-0.5181335603049642
0.6953125,0.6076970601023267,-0.960043840004595
0.69921875,-2.5178410820329584,0.20046479925828203
0.703125,-0.2705407381681394,0.052667204951357544
0.70703125,0.7190972060564533,0.12450504341422484
0.7109375,0.47170629244904344,1.627473206646537
0.71484375,2.414295447571185,1.176130774830269
0.71875,0.4126220319023435,-0.2847738752597978
0.72265625,0.20060002744579877,-0.5885333222715912
0.7265625,-0.628905398722904,0.9763026920446685
0.73046875,0.3549934128623961,-1.5968420455510044
0.734375,0.45097576871874023,-1.1591477783487605
0.73828125,1.0513907354622318,0.7456461626966101
0.7421875,-0.5376395898004729,-0.6254754471582423
0.74609375,-0.5297832472380064,-0.9256652149752205
0.75,-0.4595546159775212,0.2734263686893491
0.75390625,-0.5305308546376328,0.24198314413102506
0.7578125,-1.9611744147680252,0.153253534059705
0.76171875,-0.8819001958459719,-0.020660903313342926
0.765625,-0.28056437503642095,0.24784210022382994
0.76953125,0.5973606394279911,0.24834867069486
0.7734375,0.7073914087289777,-0.7176409851603195
0.77734375,1.1790339979241384,0.34819890096177336
0.78125,0.5506686756485986,0.04166854078393044
0.78515625,-0.7495620735716957,-1.9403322085215287
0.7890625,0.7920528842354533,-0.22044716660879526
0.79296875,-2.1478490217199178,0.24863061594857333
0.796875,-0.8023893766140756,1.021765875258143
0.80078125,-0.24837604035589478,-0.14959632320820765
0.8046875,1.1296482194125534,-0.7003366324105044
0.80859375,-1.0370103646691964,1.2833951821478622
0.8125,0.07072704741971157,-0.33368890574104393
0.81640625,0.15814636928898862,-1.6299647377394761
0.8203125,0.27901964358637726,0.6707758550761108
0.82421875,0.6356637240470518,2.346563793498715
0.828125,-0.36116999150113266,1.0797416547610783
0.83203125,0.07071981702418548,-0.7488257983226116
0.8359375,0.46421489435458874,-0.986785590885788
0.83984375,0.7195111407407454,0.33930614260596
0.84375,0.584694543773368,0.1450270397614561
0.84765625,0.6383319380556675,0.04133967660804068
0.8515625,0.6836593758670483,0.3261756191540299
0.85546875,0.2752974956970992,0.24003804826989603
0.859375,0.0649098467471528,-0.10106740227586274
0.86328125,-0.04849926399776663,0.5478203961391325
0.8671875,0.4235210348074429,1.629922072281031
0.87109375,-1.6763415596582452,0.7372721990881385
0.875,0.406754740599885,0.6361988733665822
0.87890625,-1.6545704897307703,-1.2287016204359602
0.8828125,1.4094539166301319,0.902203707783773
0.88671875,-0.022809302040781333,0.9971069932509483
0.890625,-0.27384054348720205,0.026586445547600077
0.89453125,0.20353058136248547,1.4451858041862773
0.8984375,-0.5942129748828252,0.8001438138476799
0.90234375,-0.5791788284423249,0.8701155117381434
0.90625,0.7274223188829998,0.8750058341260594
0.91015625,-0.8769732921738421,0.41787213247731214
0.9140625,-0.28105578725045866,-0.9769905138131464
0.91796875,-0.6388988729068402,0.038418584968530366
0.921875,1.8704339996853983,-0.36701566927111456
0.92578125,1.0639908623415755,-0.4739511446925304
0.9296875,0.7991110428281013,-0.7870968851569637
0.93359375,2.272411000337783,-0.7506860589595098
0.9375,-0.814519286170233,-0.7197801861141591
0.94140625,1.1374828387486289,-0.30113075889036967
0.9453125,-0.21997880577624213,0.3354643112156796
0.94921875,-0.9184329619040817,1.364411049765399
0.953125,-1.0026084696436728,1.6785571550865772
0.95703125,-1.716923122324521,-0.2757952588939028
0.9609375,-1.7320138166056496,-1.545044535828777
0.96484375,1.4013259939423826,-0.06844537398153457
0.96875,0.5332198764853792,-0.3193381954809679
0.97265625,-0.5994054173964585,0.5239345978587439
0.9765625,0.6131432339183747,0.029139215894205216
0.98046875,0.10801011166825154,-0.9136431449440002
0.984375,1.2670515726080487,0.5371250643423645
0.98828125,-0.11122768206905409,0.235371919316948
0.9921875,-0.8130252081084617,-1.8898408592022196
0.99609375,0.5792440541288059,-1.1673881166861804
1.0,2.0921097748644195,0.7991837285806426
1.00390625,-0.6025166148936792,-1.005059043198902
1.0078125,0.3423550198286573,-0.7308102601564842
1.01171875,-0.8665353287752066,0.7836877678952604
1.015625,-1.9978554152300514,-0.20021894732635076
1.01953125,0.14420685644859943,-0.682577558815789
1.0234375,-0.12371648114408464,-0.8904052108756941
1.02734375,-0.5889678608307812,-2.248547120212775
1.03125,0.5382054228868318,1.6097295385667765
1.03515625,-1.8041454353327913,-0.6819636273766964
1.0390625,1.5184476638074587,-0.3745235502182909
1.04296875,0.7381322471134284,0.37208727410038617
1.046875,-0.9091075377381795,0.07593009516862245
1.05078125,0.5318102579472037,-0.49755747276842516
1.0546875,0.18566685564183824,-1.36744600243678
1.05859375,0.9913162351237829,-0.35151964620179876
1.0625,-1.5910721199095876,-1.9542524686794756
1.06640625,-1.4922741340516077,-0.9279120794027159
1.0703125,0.40514401818510803,1.4873343407736548
1.07421875,-0.23107126197537542,-0.5120541971369785
1.078125,-1.2604210382554495,-0.30306816448739504
1.08203125,0.6864470102943492,-0.5600328635192628
1.0859375,0.8665532774073954,0.3793234203297268
1.08984375,0.4742529866266239,0.009194433617637674
1.09375,-0.35601120794688734,0.010422444917512931
1.09765625,1.3280822098364824,-0.5004689301935265
1.1015625,-0.3395938388454366,1.3274248607996058
1.10546875,-1.372475897947362,0.0816069072952519
1.109375,-0.6912016002060174,0.06674532965317193
1.11328125,0.059343622335858326,1.3453590710867969
1.1171875,-0.2304845227633826,0.10437728987426484
1.12109375,0.2562574565407795,-1.7994242766625084
1.125,-1.1254926795584739,-1.7187386340923159
1.12890625,-2.399088412332416,1.9530410977275252
1.1328125,0.0946114142940626,0.04036071930687178
1.13671875,-0.6347883836503921,0.009251459176209067
1.140625,-0.45291087030416094,-0.39410799094803883
1.14453125,-0.06779555874105059,1.6573044731220625
1.1484375,-1.754407841854265,0.07645787704754542
1.15234375,0.17082866591077706,-0.4502952468010432
1.15625,-0.5645308335824918,1.5368806651369216
1.16015625,1.2460299115636455,-0.6665304307490839
1.1640625,2.3778773099337602,-0.3867058068167886
1.16796875,-0.6257031963646473,0.4132363299574078
1.171875,1.5240860362368491,2.4990525344166663
1.17578125,0.8170047771338532,-1.2304207085780134
1.1796875,-0.8136535103881699,-0.5331385733201948
1.18359375,1.4477903793558227,-1.3632480877452473
1.1875,0.9548043905935194,0.9202496101557512
1.19140625,-1.6912449195020833,-0.15378230715913316
1.1953125,-0.3008538828028286,1.1140079255874782
1.19921875,0.37520489575004623,1.1323042696848824
1.203125,-0.6938792856213456,1.6779529222912855
1.20703125,0.018880595757826947,-0.42392639974084234
1.2109375,0.5581674925353961,0.4446607722461456
1.21484375,-0.20781446988560004,-0.5793523926454361
1.21875,0.3314956090025903,-1.909955117548445
1.22265625,0.21716699976710357,1.3324549360187936
1.2265625,0.1910757280198783,-0.6633892850649546
1.23046875,0.42950192663796755,-2.0146179870353103
1.234375,0.15745769573737023,0.322964392070568
1.23828125,-1.8504521197474402,-1.7677342922347496
1.2421875,0.5518199744451846,-1.424951888578635
1.24609375,0.8373685168031013,-0.4898912982601218
1.25,0.89900546694068,-0.20026677071785512
1.25390625,0.4666750222170981,0.8823265134841554
1.2578125,0.2691013778246884,0.7672817573823045
1.26171875,-0.9596741782245554,-0.3200594573126023
1.265625,-0.18884296906489012,1.3234795170367426
1.26953125,1.3569403454916042,0.666780909410555
1.2734375,-0.5505475406205897,-0.39800050975332607
1.27734375,-1.5616614985252109,0.31259861705311415
1.28125,-1.7239315580150698,-0.3620580275445851
1.28515625,-1.2423929208332916,-0.08605441809339459
1.2890625,0.7499360537031178,-1.376920039314698
1.29296875,1.1231642077327184,0.7583901098593208
1.296875,0.028936124821303578,-0.5415702720125263
1.30078125,0.16354808945593677,-0.28968284306584596
1.3046875,-1.0893677101312504,-0.880362805668454
1.30859375,0.9827855331739946,-1.4411854722021378
1.3125,-2.1575792543657624,-0.37930131994854593
1.31640625,-0.7287186070916487,0.11617111286400648
1.3203125,-0.5820410021669785,1.4950923421757571
1.32421875,0.7066413272431957,0.14993243594043731
1.328125,-0.9824423379322472,-0.987162210323583
1.33203125,0.13657404203497608,-0.7272290030097746
1.3359375,0.5021861650198662,1.238425925633068
1.33984375,-1.5161325811785775,2.3346274519085624
1.34375,0.47883982500291417,-0.22472809493702445
1.34765625,0.0791265508814593,0.3407201616605693
1.3515625,-0.3775337906416435,0.36519715489412014
1.35546875,-0.25408171146339537,-0.3034166875435447
1.359375,-0.9366384470201027,-0.16044176008917493
1.36328125,-0.08250614348985014,-0.8836950520628305
1.3671875,0.24216961093950018,0.06758475625150365
1.37109375,-0.7431138060446382,-1.7537161222926116
1.375,0.08017262618138127,0.7378403468750117
1.37890625,0.43616450519315536,-2.2116377625435018
1.3828125,0.2881645324467293,-0.7596038792063846
1.38671875,-1.594143911841558,-0.9299734170600272
1.390625,-1.1428313669240726,1.6480917097676429
1.39453125,0.38161209104475113,0.5407696244473852
1.3984375,-0.5360349784191312,-0.8044232972364431
1.40234375,0.33014494425454605,0.6778370544336552
1.40625,1.1475703143528244,0.5182316198365757
1.41015625,-1.140911965159078,-2.0503085646261603
1.4140625,0.43877280550929926,1.3129120296298011
1.41796875,-0.23662253634762007,-1.1030720290623486
1.421875,0.8940378584490132,1.116680279100541
1.42578125,-1.681318660632297,0.7575535652921738
1.4296875,0.23391570802817088,-1.3740473401290692
1.43359375,-0.2641792772926472,1.028344074128027
1.4375,1.1657096312775226,-2.298515526572342
1.44140625,-0.6285482540486037,0.07384090174009968
1.4453125,1.096807037503659,-1.3031256806964049
1.44921875,1.2417638310599433,0.3905838885695564
1.453125,0.09221052088714905,-0.20189274698745022
1.45703125,-0.6514590833551768,-0.40706936629137236
1.4609375,-0.16018883479115123,-0.5229805782346995
1.46484375,-0.4029118999609905,-0.703675670405957
1.46875,0.28678174091756703,-1.6274690154130753
1.47265625,-1.0497855367440483,-0.5176096322435286
1.4765625,-1.5689492988742921,1.7851809886281176
1.48046875,-1.379361087164823,0.5446554282583663
1.484375,1.6042310467776852,2.0099064038919527
1.48828125,0.9011567927847589,3.6238963331907654
1.4921875,-1.3238226203343149,1.0115000589976921
1.49609375,1.2822233095727256,-1.1724766746041493
1.5,1.9469128782443177,-0.6850132201980929
1.50390625,1.0143462694645533,0.7026686377897816
1.5078125,-0.3017153696118972,-0.21555705116336915
1.51171875,-1.688237866195005,-0.3663011483279803
1.515625,-0.2671879400350291,-0.3401817186089497
1.51953125,-0.11048256598047505,1.6291170284422802
1.5234375,0.2871601141076358,1.9790400625421647
1.52734375,-0.4681846395142873,0.03545292821369231
1.53125,-0.41477520689405273,-1.2820844081057372
1.53515625,0.7147170622885207,0.47637078413948375
1.5390625,0.9257987509562444,1.3214925615837148
1.54296875,-1.124505747106067,0.24833527444672937
1.546875,1.173742192580814,2.14869502178979
1.55078125,0.5546698857896211,-1.790857204823468
1.5546875,-0.3359175825927091,-0.8684535129586528
1.55859375,2.384215900493092,0.3425274466890995
1.5625,-1.3741081379007636,0.17680400123326334
1.56640625,-0.085701299509185,-0.13298005823217338
1.5703125,-0.06727681618819419,-1.0464090657527927
1.57421875,0.8898977708399484,1.8351071708105664
1.578125,0.6889043806174234,1.8056401109236513
1.58203125,-0.5386685312784658,-0.48525189051841733
1.5859375,-0.7912046176943434,-0.3444219123080879
1.58984375,1.6726876100549246,-1.2018682747995069
1.59375,-1.5665780826994686,1.4811145561452277
1.59765625,0.34557212632487244,-2.038881165671354
1.6015625,-0.25767027652093694,-0.12677864805117595
1.60546875,-0.7549371755040158,1.5811179318470983
1.609375,0.4972441519682267,1.0946805878657206
1.61328125,-1.8900409053637584,-0.31946134830786604
1.6171875,-0.5643492929732388,-0.5459201928981835
1.62109375,1.7394491916988872,-0.27865230637872357
1.625,-0.1588376513510638,-0.6990811057884923
1.62890625,-0.9284501316195067,0.5906275316012226
1.6328125,0.8853164671261192,0.5588018441823766
1.63671875,-2.6482914140255684,0.5692992057620898
1.640625,1.0054329056217608,0.02346384038365317
1.64453125,1.4382911319982776,-0.30002871192590674
1.6484375,-0.425734814509771,1.3793400554983808
1.65234375,0.24402931850437753,-0.1984478014867821
1.65625,-0.6228692147272876,-1.4235824634986385
1.66015625,0.46654907267387363,0.3710769775370135
1.6640625,0.036885127526512886,0.38583151092635354
1.66796875,0.07549594420410423,1.3691693625840355
1.671875,-0.6457228145547268,-0.26938881879801124
1.67578125,-0.6113184315420811,-0.49657450550661003
1.6796875,-0.6723267770478176,1.325779343577362
1.68359375,-0.16628146429331286,-0.6228826272306068
1.6875,0.9000414587843335,-0.3543137019948209
1.69140625,-0.8377676391090381,1.3473297151359809
1.6953125,-1.264848519301186,1.8226031984120354
1.69921875,-0.5697138270040741,1.1756321674054282
1.703125,-0.9171973496412,0.8288890857631749
1.70703125,0.5177629847495284,1.244448060106044
1.7109375,-2.4327633842533563,2.7924154447630114
1.71484375,-1.0747051575533688,0.05546244271206247
1.71875,-1.2329452345390897,-0.21901680045710792
1.72265625,1.7156669970495806,0.11076969684436236
1.7265625,2.5321401191204833,0.27024436066604896
1.73046875,-1.1577332229175794,1.1423030574321085
1.734375,-0.7952204840215076,-1.5313987309187458
1.73828125,0.2910480919645386,-2.108856397468074
1.7421875,0.41488574771529724,0.12817451642617955
1.74609375,1.493847679981367,-0.83382491132087
1.75,0.7281778198779887,1.473077043191631
1.75390625,0.9163123500528976,-0.4417984714788311
1.7578125,-0.06826347952293092,0.2645362092004616
1.76171875,0.1794758959731577,0.29913041006396734
1.765625,0.367038796206608,0.16911947478573972
1.76953125,1.1545312083419832,0.020150409793298026
1.7734375,1.8881759958854765,-3.0535337494219634
1.77734375,0.5664622907153379,1.2144820898886317
1.78125,0.5117456119959712,0.9424686192257788
1.78515625,1.4266558429652676,0.1924932145189966
1.7890625,0.3624877255681924,0.29922331704139943
1.79296875,-1.7747756900683176,0.0775501245052233
1.796875,0.10803986920011827,0.27501461914197334
1.80078125,2.267175998881759,0.3102559165422311
1.8046875,-0.17380443838687518,-0.9113982772407111
1.80859375,0.15535561002524173,0.2866028786824434
1.8125,1.2459325879623038,1.8496954928395495
1.81640625,-0.5506495264103901,0.8756488879499932
1.8203125,0.48752279589799297,-0.5722840951700622
1.82421875,-1.1814040579428928,1.51416288783997
1.828125,0.6006388006161003,-0.05715512258740307
1.83203125,-1.2696830688686283,0.8063448551057324
1.8359375,1.0095367184791613,1.2865460635199262
1.83984375,0.6558442685590301,-0.7040998311745992
1.84375,-1.2926457360456591,-0.23312397362584925
1.84765625,-0.31927832809149737,-0.09244014222984645
1.8515625,0.058873217687165705,0.14663584921972053
1.85546875,0.3479339867080227,-0.6567898149121092
1.859375,-0.016410871641711556,1.5657238969241094
1.86328125,0.25717459672878124,-0.9738053923858094
1.8671875,-0.14864491530663398,1.0545225211530616
1.87109375,0.5880002103941965,-0.7205618267924038
1.875,-0.8050149487364957,0.09771251262153606
1.87890625,0.8734356204715031,0.32348201295125745
1.8828125,0.609335720523545,-1.3545007168141001
1.88671875,-1.2419402842692444,0.10660255004445261
1.890625,-0.6286282321130412,-0.08916367283517257
1.89453125,-1.0962455157255935,-0.29986364723108505
1.8984375,-1.852845136509797,0.006129151239178948
1.90234375,1.004272096685799,0.14248165607832514
1.90625,0.2443868733040697,0.5300412127633406
1.91015625,1.2192827473019645,-1.503120332437663
1.9140625,0.2443174159641897,1.3573006280685025
1.91796875,-0.902778087271321,0.42738723115748434
1.921875,0.7654589756867448,0.3026164284695572
1.92578125,1.9521426289846695,-0.16004319056296817
1.9296875,0.2805692642430585,0.663921756741601
1.93359375,-0.17386429594463448,0.0033914047532792205
1.9375,-0.2919651432930936,1.0591915099671012
1.94140625,-0.02643455826852997,1.148052926162393
1.9453125,0.5823235060313815,-3.0065651452320727
1.94921875,-1.1629651595963735,1.1988887666558643
1.953125,0.049899377342499066,2.2967528113603493
1.95703125,-0.526157744686869,0.30681143307429204
1.9609375,0.71694195252587,1.607615865102571
1.96484375,0.18071127127314698,1.124787175136717
1.96875,1.791675551925202,0.29264032632523174
1.97265625,-0.0644155638572793,0.04849388149913368
1.9765625,-0.9921215076301114,-1.8669314225100961
1.98046875,0.43599969719820447,-1.0851541493994132
1.984375,-2.015549010913047,-0.25877990954850766
1.98828125,-0.1512821120100477,-1.3014884515124496
1.9921875,0.20477282129336982,0.47714135222406145
1.99609375,-0.8853156139100117,-0.021991977166225227
2.0,-0.20952550266983483,-0.2058435330457743
2.00390625,-0.04818580405845402,-0.05112644026837639
2.0078125,1.7917436356926884,-1.1183376457805754
2.01171875,0.49728294863295375,-0.12334768827287051
2.015625,-1.528882286235009,0.15001978014674716
2.01953125,1.187906010791859,0.8828897363771904
2.0234375,-0.8346930124095877,-0.874694630066713
2.02734375,-0.11224926551364854,1.914276174329349
2.03125,1.327229661074518,-0.14512708961125134
2.03515625,1.6480563769045513,-2.1049081768130926
2.0390625,-0.2417631990049528,0.19721725401144966
2.04296875,-1.073829450419685,1.5854207418930955
2.046875,1.1307118380993009,-0.4638708932137645
2.05078125,1.0738261639677293,-1.2962265211939161
2.0546875,-1.3652838086756198,0.039212661119415
2.05859375,-0.7493078477274403,-0.8962669998298489
2.0625,-1.5805047288048204,0.15339917074233272
2.06640625,0.7717542085833837,-0.7084343876770071
2.0703125,-1.827317665173711,1.2139428915026345
2.07421875,-0.7656001946628196,0.21327337126622825
2.078125,1.2001230972600772,-0.18176930097129132
2.08203125,-0.7742123444895769,2.1250237349461965
2.0859375,0.9449583366405954,1.0909762000712122
2.08984375,0.396017376634456,-1.3731345917583535
2.09375,-0.7464121097485038,-1.7108780589605357
2.09765625,0.3322719832490536,-0.17657453859115066
2.1015625,-0.4938316905041422,0.2049957389278285
2.10546875,-0.9735598908680906,-0.2147736322352354
2.109375,0.8500003500948604,1.4515996762150665
2.11328125,-1.7436609468679514,-1.0229668583782574
2.1171875,0.07214255357292983,-0.7067656050267747
2.12109375,-0.22956295200063187,-1.1254942920296103
2.125,-2.058716990864622,0.2775598384629218
2.12890625,0.5956321102993585,-0.1570689175011052
2.1328125,0.7340474826201586,0.8975965226620622
2.13671875,-0.028978056658483582,0.7159175477458305
2.140625,-0.6446605628947314,-0.6014692093956312
2.14453125,-1.3292762847822264,-0.8840276752451138
2.1484375,-0.028790557879875382,-2.1185286007069184
2.15234375,-0.13310210396646302,0.20496165147790144
2.15625,-0.41380017792174545,0.8326636439377252
2.16015625,-1.815123148846272,-0.9687020641569813
2.1640625,0.7405308407596741,-0.08693813068594218
2.16796875,-0.8442628899116003,0.15122527027619806
2.171875,-1.170707274102076,-0.28553457610593724
2.17578125,0.4597817998572612,0.1065390178894208
2.1796875,-0.4021960894689051,0.4714543621802036
2.18359375,-0.8879181549972539,1.8462850103599981
2.1875,-1.5508667651530548,0.4911332749590162
2.19140625,-2.533140583187955,0.11479635649027572
2.1953125,0.8996784785924671,-1.0948816618179957
2.19921875,-0.5696652429972452,0.19713265264731256
2.203125,1.0070554821250697,-0.06355189515827336
2.20703125,-0.46865711511580754,-1.5345877280845204
2.2109375,-0.9846467088911492,1.2574470665641357
2.21484375,0.6603453667939548,-0.13367542697208676
2.21875,-0.06592690555057103,0.7750385464512359
2.22265625,-1.261766263262603,-0.2858483027277616
2.2265625,1.0756259737522136,-0.19223023915736348
2.23046875,-0.4429698354061227,-1.4008582855563556
2.234375,0.6439291168428903,-1.2082761992217599
2.23828125,-0.8243414959513198,0.7774150295872004
2.2421875,-0.041284712174876774,0.21346994439806374
2.24609375,-0.17734371488917838,-1.2804806399409643
2.25,-0.7479722611517298,-1.250473239901858
2.25390625,-0.6200483061679704,-1.291146700674752
2.2578125,-1.0662095441545005,0.4679623581522195
2.26171875,-0.12239663195021036,-0.7426408127891526
2.265625,1.5223842419554872,-0.732870383786035
2.26953125,-0.2788240952876609,0.16668565050352785
2.2734375,-0.44441183764069303,-0.34776691306891977
2.27734375,1.160732252448923,-0.03223242540607828
2.28125,0.09552931711392251,-0.09098430844295176
2.28515625,-0.1325702481045892,-0.05950847270994465
2.2890625,-0.745716954000427,-0.0186936651847299
2.29296875,-0.08996903882553903,1.0270288522967288
2.296875,-0.5280289565191811,-1.5810091660020529
2.30078125,1.5488815529153792,0.8332207512232481
2.3046875,-0.46070282682075797,-1.5632313326870324
2.30859375,0.28879264511128067,0.4987288456819237
2.3125,-0.9603071881055751,-1.780395720253826
2.31640625,0.7988903313427564,0.19554237441346511
2.3203125,2.233253141861705,-0.5179679684580831
2.32421875,1.0004977418879948,-0.769629522335938
2.328125,-1.7484156055112687,-1.0079298673628783
2.33203125,1.0764206629500146,0.8794118419762557
2.3359375,-0.5712212315662488,-0.6098444100038602
2.33984375,0.2747694996509404,1.2772065619326387
2.34375,-0.19326674355148102,0.004767033806129815
2.34765625,-1.8543806545357957,1.3780942738428288
2.3515625,0.9550433745660868,-1.3357201927370317
2.35546875,1.6713749768553798,0.8774090751036929
2.359375,0.963424145314138,-1.127592713352844
2.36328125,0.05278135163899804,-1.858606473268748
2.3671875,0.6675472889668422,1.5918676357419788
2.37109375,0.8414479528589361,0.6457488776626893
2.375,-0.07905149428300742,0.6583782376078131
2.37890625,1.7637093618817068,-2.050517720823231
2.3828125,0.8866429891586775,-0.41942880640188435
2.38671875,-0.7664286136855161,1.2223598219637228
2.390625,-0.5006693050967072,0.14067290274379912
2.39453125,0.7287971201595307,-0.41914048599475195
2.3984375,-0.3896177085851009,0.5449211992006343
2.40234375,-0.428200241177927,-0.9056197548459837
2.40625,-1.367609867511279,0.23011238436544995
2.41015625,-0.5211926017025391,0.029320771208376888
2.4140625,-0.9010847886072583,0.6586925859437441
2.41796875,0.4851640501204537,1.0703366114316493
2.421875,0.4937084566035858,1.0901041327293262
2.42578125,0.2212180519629124,0.41338714791408954
2.4296875,-0.8574106003824332,1.3778933907769204
2.43359375,1.088861846268283,-0.6104372529281852
2.4375,-1.4687451639207434,0.39425252364080804
2.44140625,-0.18052750893627334,1.2563620075155209
2.4453125,-0.25785570354003823,0.5340428703254603
2.44921875,0.7485582578620873,0.5759969470337617
2.453125,2.374515583788012,0.7279783369756739
2.45703125,0.056693561337385213,0.23781297122328776
2.4609375,0.6226158826875744,-1.6297942280257338
2.46484375,-1.4720206311770547,1.14963059992564
2.46875,1.9374807380864456,-0.47870355069244913
2.47265625,-0.2367278742740853,-0.35028044322458735
2.4765625,1.0603143300958273,0.05145065722443765
2.48046875,-0.4470078123423945,-1.4547552974975002
2.484375,0.3647118909459385,0.7126578189146419
2.48828125,-1.0732130449414021,0.6743325687096549
2.4921875,1.7691497502190414,-0.45732578978600796
2.49609375,0.04200359584324183,-1.4143012913756456
2.5,0.6479739618225853,-0.7546530477606022
2.50390625,-1.3090091579414673,-1.105287184107552
2.5078125,0.8357846979316635,-0.2363779106258058
2.51171875,1.193543186015932,0.25813908082497294
2.515625,-1.3264027931093487,0.4382624151671916
2.51953125,0.01541707449352715,-1.1744053768178697
2.5234375,0.25190983597005484,1.163991461531907
2.52734375,-0.3320815940385673,0.6393253836957034
2.53125,-0.020792054741224007,0.254133310955441
2.53515625,-0.6566048881449645,-1.3670972745199272
2.5390625,-0.28821250527939085,-0.9272919565709218
2.54296875,-1.6110367778398904,0.7329057766834932
2.546875,0.6032468247139365,-1.0217571938601775
2.55078125,0.0011240424549399772,-0.9242008822878996
2.5546875,0.6228213105475923,-0.5105099998070481
2.55859375,0.03491627753770336,-1.0432300701868324
2.5625,-1.2472654017085483,0.8128322242769804
2.56640625,0.8763889759728486,0.306369062073096
2.5703125,-0.7737374290300972,0.09314154362783876
2.57421875,-0.060188956964322235,-0.15144209901582317
2.578125,-0.6860256914036899,-1.638293828067069
2.58203125,-1.6968658203785665,-1.7950275349586073
2.5859375,2.045419938111538,0.1745271488368691
2.58984375,0.7531239433515301,0.9377134414169016
2.59375,-0.3772311289517134,1.6213795242246343
2.59765625,-0.6959163809794192,1.566343328724521
2.6015625,-0.9653173795539906,1.0063282595564438
2.60546875,-0.7292979323456021,0.31818998695582945
2.609375,1.2378118125921778,1.6393484783034495
2.61328125,-0.8412400045216019,-0.5543846308871264
2.6171875,-0.3670151797873324,-1.2739874880318904
2.62109375,0.27807252870331384,-0.673659106749207
2.625,0.1855108608541368,-0.1403417252888755
2.62890625,-1.1863324858557074,-0.7871605486606335
2.6328125,0.7059451107741548,-0.23883064814053137
2.63671875,0.31223928284067887,0.14502504230696908
2.640625,0.4083743006747019,0.3254960296413839
2.64453125,-0.20160933801419528,0.5750998802205547
2.6484375,0.3712716856569663,0.15871990398058514
2.65234375,-0.5631663670492003,0.2036635221041978
2.65625,-1.8424199129200236,-0.13952488426699905
2.66015625,-0.36067616384711676,1.039623925760988
2.6640625,-1.0128052126211176,0.32184215464109067
2.66796875,-1.949941244836606,-0.18765791581361968
2.671875,-0.19532741678079138,-0.8312135053876579
2.67578125,1.5345157979884996,-0.21554418457234945
2.6796875,-1.8847423790096614,0.25790934716502545
2.68359375,0.8212819162793041,-0.5676365901533694
2.6875,-0.45098822319597986,0.5424777515192959
2.69140625,-1.0940766266770308,2.1741677103331916
2.6953125,0.037808201412117444,-0.5800076874014584
2.69921875,0.42851206517560153,2.400730534910029
2.703125,-1.0571860976035075,1.9692588385175887
2.70703125,1.7575988142882712,-0.11935879523043455
2.7109375,-0.7653158147492453,0.28245554727678546
2.71484375,0.507967956573716,1.0304398261090668
2.71875,-0.4830436244065594,-0.1827387743427933
2.72265625,-0.24393915346247813,0.011270938738672414
2.7265625,-0.235353260861396,-0.740616653980074
2.73046875,-1.2406079943358355,1.3749613196802684
2.734375,0.9989880873895561,0.42119906151635916
2.73828125,0.2241217265783968,0.8971568323628829
2.7421875,0.38600546934272767,-0.04947153630469227
2.74609375,2.4397227129730283,-1.3577729210770109
2.75,-0.9818583465094791,0.7599825801295454
2.75390625,-1.1106848701087622,0.05494500015136729
2.7578125,1.997484946517935,-0.5014055487347095
2.76171875,-0.9909531183008493,-1.6917834581726807
2.765625,-0.27312296465070285,0.209058004538149
2.76953125,0.39879845570640704,-1.5379964660874645
2.7734375,1.0849610324675232,-0.6170092258045567
2.77734375,0.2854812004032764,1.5432531093108337
2.78125,-0.5466871939781057,-1.207459519453238
2.78515625,0.3135317652462038,1.3977662929087775
2.7890625,1.1926029944318033,-0.3486760376556292
2.79296875,-0.8825607837434706,0.41996509995485753
2.796875,0.35471266464064566,1.2563408660136863
2.80078125,-0.7697199216702387,0.6527284420875946
2.8046875,1.96322707954019,0.0968531652592608
2.80859375,2.1056522751663405,0.44790577969962336
2.8125,1.4529192679272147,0.6457836891621294
2.81640625,-1.0487480159510632,-0.6737775737015721
2.8203125,0.03526657886837633,0.49749383126468566
2.82421875,-0.7074615819289547,-0.6557549456241786
2.828125,-0.613827385485904,-0.2707226986061996
2.83203125,-0.9256508859609754,-0.4977140556323151
2.8359375,-1.5002606582956912,0.4959733287901299
2.83984375,1.5692399862474515,1.0666932254600727
2.84375,0.9705658659801454,-0.6353165744344768
2.84765625,0.48639571142738247,0.0620672643617225
2.8515625,2.1713907500845515,0.12163779840703966
2.85546875,0.022475153098332437,-0.7465459686475102
2.859375,0.6221804916945135,0.14556582514975724
2.86328125,0.7998997007884913,0.45917612092579646
2.8671875,-0.6718124890572084,0.914975268832327
2.87109375,-0.20555679391603887,0.3484339920057718
2.875,-2.186542173008939,1.0237812367031947
2.87890625,0.004932622669408108,0.3518666900239632
2.8828125,-0.040569673213837275,-0.23481428734917212
2.88671875,0.819771620706205,-0.4970476828084008
2.890625,0.15021733945037447,0.7911706322879307
2.89453125,-0.7433170645684011,0.43385861383417557
2.8984375,0.8095382039356068,-1.4820686306954078
2.90234375,-0.479450055845874,-1.3294899273488694
2.90625,-0.2044147609880515,2.594294882369454
2.91015625,-0.9476125203710201,-0.017123360788892525
2.9140625,0.10931767337428815,-0.37832521425372123
2.91796875,3.2915189732168852,-0.01492645655222043
2.921875,1.6850623839772618,0.45757206226259245
2.92578125,0.9775513927693431,0.7482374652747877
2.9296875,0.20333354282427826,-0.5929943853037059
2.93359375,0.24176528575742026,0.7707511853961845
2.9375,1.554612292155569,0.07614227976492492
2.94140625,1.0103573117533793,0.027619231613128428
2.9453125,0.03124561908793665,0.28900276430710214
2.94921875,0.9540322756148508,0.007961235488594553
2.953125,0.43403160901464033,-0.8554922565859876
2.95703125,0.5164200537069866,1.0354874551553988
2.9609375,-1.4996291069859005,-1.839537422995294
2.96484375,1.9658197511872622,-0.8904573234725519
2.96875,2.0477683586701962,1.266550421265404
2.97265625,0.8736152084862192,1.4749811739147336
2.9765625,1.3420340183629704,0.8942882992035044
2.98046875,-0.4757337151232818,0.19800980697921228
2.984375,0.4850534899085422,1.955885932510016
2.98828125,-0.09834016634026856,-0.6654263680752902
2.9921875,-0.9701071055769124,0.11914870805354646
2.99609375,0.4690867055446138,0.192448233949636
3.0,0.009517414780645769,-0.02314650388563457
3.00390625,0.8990382349810251,-0.33293828378877227
3.0078125,1.6074529285334207,0.32387811624478907
3.01171875,-1.518957888535603,-1.6088774761488571
3.015625,-0.15994273711259827,-1.6189052731185984
3.01953125,1.4058861895332362,0.16557378127918065
3.0234375,0.5330363957828381,-0.14526153018295995
3.02734375,0.7224281860136912,-0.49862724827489924
3.03125,0.2442510139873553,-2.596411189308179
3.03515625,-0.5763054653757566,-1.5107591795141622
3.0390625,0.5283113394756142,1.2742104400102727
3.04296875,-0.5934558584261368,1.8301658929325004
3.046875,1.5182677714185981,0.7927586432548721
3.05078125,2.294665274170122,0.2564611142663188
3.0546875,-0.5306124330925933,2.588317104179954
3.05859375,0.6209706921455616,-1.2733915308363655
3.0625,0.6687148896554462,1.1951079782486105
3.06640625,-0.024385706452131915,0.9528804040096965
3.0703125,-2.064478589408927,-1.2293243968475318
3.07421875,1.2960305259215683,0.06419222339840196
3.078125,-0.010547403116925085,0.9761114712111819
3.08203125,0.35730155476840086,-1.1993799821649027
3.0859375,-1.6182406595668328,-1.106087675236771
3.08984375,-1.8529799294552916,0.2176998593120203
3.09375,2.287307437536761,0.8692255997057574
3.09765625,-0.7326582087718373,0.20045275041965532
3.1015625,-1.8631514203168342,-1.02631385571365
3.10546875,0.18147250129342404,-1.6497850626186448
3.109375,-0.24247227007313674,-0.3433246266965166
3.11328125,0.22687597627589112,-0.47544536349196925
3.1171875,0.8778680937773932,0.38798937331824307
3.12109375,0.9197725537044539,0.8986785941382024
3.125,-0.5655108998232118,0.46750533713258857
3.12890625,0.7171701533187206,0.23001893827652523
3.1328125,0.8977783540166276,-0.7038731764283885
3.13671875,1.3859897275567503,-0.6001854150727995
3.140625,0.42134565186519707,0.1697919026818689
3.14453125,-0.05551570907704196,-0.9545580225489518
3.1484375,1.4497997679040557,-1.2168795664227983
3.15234375,-1.2726977257318508,-0.5420122640055678
3.15625,-1.9044481088298715,0.4624747616244075
3.16015625,0.3338561336376311,1.5830941087498511
3.1640625,-0.874553950750063,-0.8925396172124436
3.16796875,0.7187125573681655,-1.131130274714137
3.171875,-1.4561164081483453,0.3924193686020878
3.17578125,0.9852677335388174,-0.8664967779105066
3.1796875,-1.4846808768259716,0.6737360278944364
3.18359375,0.8166168674658363,0.3511580145413609
3.1875,0.21650440566640797,0.3255537675934681
3.19140625,-1.5211137763403626,-0.4099642098255279
3.1953125,0.3571076278925723,-0.03140469466817526
3.19921875,-0.6222614158949495,0.7684067782778319
3.203125,0.42851170182614107,-0.4844927765601183
3.20703125,-0.06312018499274732,0.6199397837569847
3.2109375,-0.3158315250871786,1.071744549026479
3.21484375,-0.783393429797399,-0.24581448754280932
3.21875,0.49992265856433915,-0.9948231522112271
3.22265625,0.3853961903027475,1.12258767623075
3.2265625,1.3468911050121914,-0.7340001516138666
3.23046875,-0.5920938964336732,0.43285349354423613
3.234375,1.045390430155753,0.34516187995101427
3.23828125,1.1357556816947607,-0.9742281644492744
3.2421875,0.427998674667601,0.38537620536568945
3.24609375,0.5992046161504821,1.281647657242634
3.25,0.9672911560475704,0.21113455457634214
3.25390625,-0.6273293386732007,-0.7891402977524428
3.2578125,-0.38160285538782196,0.5090852349881124
3.26171875,0.20373171098754506,-1.3884919160297966
3.265625,1.0388600216732953,-2.1497026047839447
3.26953125,-0.017130454847693783,-0.37567137599592504
3.2734375,0.8695461688254544,-0.38694490066143805
3.27734375,0.8006750591455353,0.9577339530380292
3.28125,-0.5885001945014977,1.802002699548195
3.28515625,0.5923389591795387,1.5313418569893096
3.2890625,-0.28759095822634506,-0.005748646055976043
3.29296875,0.34338132119523956,-0.1890721106686126
3.296875,0.49337090944658935,-0.6094517499451924
3.30078125,1.9896101368757826,-1.051779056774611
3.3046875,-1.60772937899734,0.06341970705927061
3.30859375,-1.4133348890547142,1.035746867397322
3.3125,0.22394888533616614,0.37854033380925983
3.31640625,0.2703985177924266,0.8106810649683236
3.3203125,0.8838783179293226,-0.9535215046704718
3.32421875,-0.3597994930111881,0.37389941302035573
3.328125,-0.5510091678080172,1.0734564911767113
3.33203125,0.38843637912271195,-0.18614697165755395
3.3359375,0.0071676799801853415,1.4928244485244453
3.33984375,1.2268274071967238,-1.2715973461990981
3.34375,-2.4863855619512534,0.25758278851526933
3.34765625,0.14037025790095833,0.937829323205275
3.3515625,-0.5145690485651122,-1.0451900091873043
3.35546875,-0.5379050400082219,1.9032680193291125
3.359375,-1.1670722750543538,-0.520647591937642
3.36328125,-1.120561794488205,-0.47722044419310977
3.3671875,-0.7067308216061867,-1.1902594427295918
3.37109375,-0.24787387750960718,0.5834797354328114
3.375,1.5089091074204692,0.41171758280320775
3.37890625,-0.8386520019834457,2.7490447129127524
3.3828125,1.7774418733087696,-0.876145946202342
3.38671875,0.565835399517523,0.26403931313704415
3.390625,0.7463811718102762,-1.4958746874655784
3.39453125,0.8038790506476093,0.42576489902535636
3.3984375,-1.0142685057260414,-0.48797756534143133
3.40234375,-0.005107082980048407,0.0508125563605675
3.40625,0.200139393935538,0.2979674753054321
3.41015625,-0.30288863390125387,-0.7207984245314332
3.4140625,0.02371878701229349,0.31631324685778617
3.41796875,0.13454212902184845,1.7381391000556636
3.421875,-1.8250308725281474,-0.6792542290769364
3.42578125,-0.8547906838543633,-2.2313285863707755
3.4296875,-0.9356076531029283,-0.07146934960932835
3.43359375,0.034301283439480336,-0.7185563967446972
3.4375,1.3737690278091355,-0.3475449536303393
3.44140625,0.6505066163651697,-0.7441684167565239
3.4453125,-0.1859198556553847,-0.07672554752004965
3.44921875,0.09214064140536754,-1.9807014016251279
3.453125,-0.35373326441497305,0.0749173705678577
3.45703125,-0.9585568214692997,-0.8676807275093931
3.4609375,-0.3833846296100065,-0.24064462244490029
3.46484375,2.0764030681725107,-0.5572253989636224
3.46875,-0.5617323369352867,-1.3606572587094832
3.47265625,-1.0416033120802013,0.3209369742315661
3.4765625,0.5672579133031386,1.3070839411787778
3.48046875,1.7312330288728677,1.3555379915751067
3.484375,0.73320801792661,1.3929521243428198
3.48828125,0.4189003990374247,-0.6388232553654856
3.4921875,0.024097555052023437,0.536045770770592
3.49609375,1.3436418572082727,-0.21502967064138914
3.5,0.22192421985693397,-0.20864894040425053
3.50390625,-0.21466577941003553,1.4966706602404718
3.5078125,-1.0828769981656596,0.37138942301686895
3.51171875,-0.5220226503179416,0.14452718677155088
3.515625,-0.036836584032482175,-0.801197488515501
3.51953125,-0.8512636733653179,-0.7103838219526183
3.5234375,0.18568353199132154,-1.0687452770822405
3.52734375,0.8717492253707492,0.33741609363456315
3.53125,-0.24283032017641804,-1.4778557780918464
3.53515625,-1.6944086554933175,1.3987921507924512
3.5390625,-0.42702591411835067,-0.7467286685528054
3.54296875,1.6736940042352344,-0.11166381462980833
3.546875,1.4561377842509742,0.8573843874647685
3.55078125,0.20949346860818951,0.19001684893164653
3.5546875,0.8984397578466959,0.23413298158668067
3.55859375,1.7422824493591746,0.9601610143667836
3.5625,0.8946742940144805,-0.5644358592201787
3.56640625,-0.832357990859447,0.8253540017091134
3.5703125,-0.17666578383051149,0.3357797902630786
3.57421875,1.05937796814668,0.09337620639301346
3.578125,0.1446386817405561,0.21730007658825998
3.58203125,1.4977629739647746,0.14710436883450514
3.5859375,0.26434526593071755,-0.5017769347849186
3.58984375,-0.2119082334282892,-0.07665976885594973
3.59375,0.1465052062760425,1.184650239552974
3.59765625,-0.680560997223121,0.2319962333669374
3.6015625,-0.28509939348930374,1.0302298102697038
3.60546875,0.5573919115723829,-0.027405992829198977
3.609375,0.5830790103324037,0.30398804623368575
3.61328125,-0.942233759269584,-0.3066763474579403
3.6171875,0.043514967470224826,-0.06337109452693353
3.62109375,0.19527792110223435,-0.2735282581526679
3.625,-0.015480007665589261,-0.09909579419805126
3.62890625,-1.8568001369592508,0.9670405480141478
3.6328125,-1.0498909053620769,-0.14287262523339414
3.63671875,-1.8821878177594351,0.5755999238716614
3.640625,1.0030716949206053,-0.8400621592292646
3.64453125,-0.6154243286127725,-1.438031483790062
3.6484375,-0.3736365738931838,0.6158281513441696
3.65234375,-0.37720028760555774,-2.193772044695385
3.65625,-1.1478929027003768,0.7885557888712406
3.66015625,-0.7630068187866461,-0.3098199548190084
3.6640625,-0.49683747632339553,-1.2126505187999408
3.66796875,-1.5126845644281204,0.2799350608534871
3.671875,-0.7869199963286642,0.5889942965188082
3.67578125,-1.060708425929549,1.0653375671466585
3.6796875,-0.3595822066073108,-0.5964590983770729
3.68359375,-0.5993071754084177,0.17781276705668003
3.6875,-0.2905903265585997,0.4192342094076538
3.69140625,-1.1059086013330237,-0.5981397364768032
3.6953125,-0.25562997793013587,0.7238308529820163
3.69921875,1.3333671843684252,0.6424775905429602
3.703125,1.0486114274885976,-0.8425754526292196
3.70703125,-0.3975454937798361,0.4364057283946666
3.7109375,-1.5925973408956762,1.2541281824809327
3.71484375,-0.7893352633718659,0.6102310325494174
3.71875,0.8100869203323436,-0.6678776337489676
3.72265625,-0.19289375241373402,0.9968502903099565
3.7265625,-0.8848497167296099,0.324266990570916
3.73046875,0.609619230856377,0.21608030042029672
3.734375,-0.47114747091721987,1.5580601949861397
3.73828125,0.8218197631520505,0.1449697070328774
3.7421875,0.40648712139692206,-1.953178373648908
3.74609375,0.37414381302779526,-0.8193567822529277
3.75,-0.9737445369865,1.6536397323468925
3.75390625,0.45770685295088015,0.9251157816053078
3.7578125,-0.9903691215934368,0.9062400608534907
3.76171875,0.42699912882457025,-0.8663252794728385
3.765625,-0.7085955450662441,-0.48773038603284
3.76953125,-0.8033131133716481,-0.2622396406287679
3.7734375,0.8856454489950512,-0.6203387675299462
3.77734375,-0.25062968414115583,0.03359455327376689
3.78125,-0.1882709126123143,1.2704172370544502
3.78515625,0.5533558842425208,0.3208924428526746
3.7890625,0.038572263835624704,-0.9200418566683571
3.79296875,1.3430602285787359,0.10356591784991641
3.796875,-0.3392564719446567,1.6429182494164645
3.80078125,0.4155378305649584,0.5533163866845459
3.8046875,0.4536639511428391,0.07197398973134395
3.80859375,0.5633929496225395,-0.8600814010275275
3.8125,1.2852545238793456,0.6065925161912363
3.81640625,-0.5886016950039699,1.939859777993605
3.8203125,-1.5357117826427358,-0.12375977962419192
3.82421875,0.20251772377913346,0.4175930720409439
3.828125,1.1235244919748646,-0.7995074317736323
3.83203125,-0.44318080749472194,-1.3452949138096686
3.8359375,0.1569706330962868,1.921198603188266
3.83984375,-2.315513492077495,-1.3183272529989325
3.84375,0.16846828464820565,0.48977101913500576
3.84765625,0.4406678258530724,-0.36698890506855725
3.8515625,0.6511173765976491,-1.4091572569674895
3.85546875,-0.7182251827740946,0.5388468058772908
3.859375,2.2993358119817198,0.10112577123234205
3.86328125,-0.3626529866041795,1.3879876642024467
3.8671875,-0.3165739198765637,0.3981155127510609
3.87109375,1.37128859616055,-0.14272280619757508
3.875,-0.914849748282132,1.7880181693640727
3.87890625,1.3438453283450802,-0.9759440048792902
3.8828125,-0.35071380353345755,0.7068052631306871
3.88671875,-1.7535166808869196,0.8484879286356372
3.890625,1.479463542078233,1.3397516177336852
3.89453125,0.276374440909216,-1.042543776732828
3.8984375,-1.1578533866588632,1.9904119810893077
3.90234375,-0.8740366905523869,1.1157729463527182
3.90625,-0.9568577507316802,-0.5686585505295989
3.91015625,1.0649156010415264,0.8466900447780304
3.9140625,1.0375888204198285,0.968346917919821
3.91796875,-2.4710666351537616,-0.3158553425078119
3.921875,0.7087887554332539,0.26898982056353354
3.92578125,-0.26477031977776316,0.46159290735064007
3.9296875,-1.8363440682348784,2.0258703139656014
3.93359375,1.4695823763744125,-0.5309642082082183
3.9375,-1.295951603749193,0.966077403798458
3.94140625,-1.5873647029411497,0.4068129433471523
3.9453125,0.8580785996677659,-0.9118060882476426
3.94921875,-0.7867227593053558,1.194746063147196
3.953125,-0.011952176936842033,1.471789661421445
3.95703125,-0.21831600536534448,0.35499405014858193
3.9609375,-0.15051372046606382,-1.1746964603983123
3.96484375,1.6960892363418842,0.6511425405775794
3.96875,0.7872080478594875,0.8308766034603425
3.97265625,0.6099787713453851,-0.3667947297006517
3.9765625,-0.2133952212257464,-0.8639023286846528
3.98046875,-1.4008779102084814,-0.6121615090964928
3.984375,-0.05244053434912062,-0.4193246977282934
3.98828125,-0.23457341807181462,1.0053138412215101
3.9921875,-0.2639761516788175,1.2879494555822144
3.99609375,0.24422465528615367,-0.6436653368775018
4.0,-1.897741256065649,1.4331378417610945
4.00390625,-0.29970005514047643,-1.0620842367123189
4.0078125,-1.455051847318053,-1.020039657628572
4.01171875,-1.0119563979892008,-0.7540739125472073
4.015625,-0.05592381561818721,-0.262918412193295
4.01953125,-1.4573147848338146,-0.3183986050151806
4.0234375,-1.3670815728371015,-1.3623367401412503
4.02734375,-0.47691603449034903,-1.2872375317947675
4.03125,1.5910712482799991,-0.7513511451866355
4.03515625,-0.8122992754024965,-1.8261090344422681
4.0390625,-0.042800084767328356,0.7389012300779081
4.04296875,-0.40592106299029884,-1.2816410795038042
4.046875,0.09741811217403727,0.9985900980181182
4.05078125,0.025554641056115348,0.48537858592061156
4.0546875,0.501800244702446,1.398895618257034
4.05859375,0.8291200347779677,-1.53493514132189
4.0625,0.16950285463234563,0.06319546480799622
4.06640625,1.3416140953087454,-1.219679893393978
4.0703125,0.19284296159325956,0.7677923087088423
4.07421875,0.060688118756936,0.1235851334320808
4.078125,0.9059304146400425,0.41571155195610204
4.08203125,-0.7254338995651355,-0.33885759613616034
4.0859375,-1.798503081103882,-1.0898594442699756
4.08984375,-1.0796035822456467,-0.2088570404168604
4.09375,0.22170348618046667,0.5243047889439754
4.09765625,0.17614760206135485,1.9714965644850508
4.1015625,-0.5401064539442544,0.15580694552588487
4.10546875,-1.2110615589562204,0.553088852010222
4.109375,0.3900066971172944,0.8757525112885458
4.11328125,2.0571414430589354,-0.3287798371367519
4.1171875,-1.6066181882280266,-1.8243001353453037
4.12109375,0.8859088644085433,-0.4615411825736599
4.125,1.286949308292081,0.9649357495098012
4.12890625,-0.6197593862515576,0.47439167864350595
4.1328125,-0.7027358737553951,2.0579258067829493
4.13671875,0.22238441749018562,-0.3226479301246414
4.140625,0.8071745706820379,0.2225381291745139
4.14453125,1.1426369533112755,1.043576897487431
4.1484375,0.15153918860061974,-0.16477907963105665
4.15234375,-0.0673693196488552,0.7755093820759373
4.15625,0.6670831512203225,-0.035823146796568936
4.16015625,-1.1717069233001398,0.025604118256254676
4.1640625,0.016610021229746474,0.4786664860957066
4.16796875,0.7583178613151257,0.10050102784739678
4.171875,-0.6976442191532372,0.032513898160539824
4.17578125,-0.633048867248336,0.9311626109563411
4.1796875,0.9071828746526928,0.48402512288513116
4.18359375,0.7718044754164388,0.6287091888442363
4.1875,-1.4390373614953667,-0.7144515210758021
4.19140625,0.89712669270082,1.253756675450627
4.1953125,1.40506518212215,-0.8575282757791685
4.19921875,0.048776886301730764,0.34230462005479795
4.203125,0.32499607326994745,0.38831426894345006
4.20703125,-0.6516637213177727,-0.041743360673359216
4.2109375,0.8120061018771036,-0.9680289376625169
4.21484375,-0.5698507498468788,0.7006810353152287
4.21875,-0.04714665999704194,0.1650636748289234
4.22265625,0.5734982481297899,-0.6738113777570799
4.2265625,-0.2010478751853305,1.1789601216829027
4.23046875,-0.5359345125872443,-1.2434432937241717
4.234375,-1.8670665634157488,0.5285129917116159
4.23828125,-0.2095631197820069,-0.1897402307674742
4.2421875,-1.8732783191969204,0.11936031944032188
4.24609375,-1.045407277285886,0.635561469193523
4.25,-0.4069823054889048,3.200014646119878
4.25390625,-0.27994269086196855,0.12111978173738257
4.2578125,0.11373401040423299,0.05693073922955654
4.26171875,-1.094421380615738,-0.0063174107854597344
4.265625,-0.7898172595797432,-1.3759782287697575
4.26953125,0.3755661353340068,2.1310158700573436
4.2734375,-1.6272381827870364,-1.8822289077230467
4.27734375,-1.4386775743806248,1.4031759706837434
4.28125,-0.18222202203734025,0.508571793956555
4.28515625,-1.6685171352821562,-0.45475030638046066
4.2890625,-0.6562252782800914,0.38037302813925516
4.29296875,0.19342395878176846,0.21457071093040894
4.296875,-0.029248458987442768,-0.15954454725282555
4.30078125,-0.49182249579711196,1.2831129765958833
4.3046875,-0.83641492014998,-0.25744691461575264
4.30859375,0.7046783185364361,-0.07025593356629221
4.3125,0.4806224756132129,0.49408519465089007
4.31640625,0.3322481616033827,0.8046861793240778
4.3203125,-0.22574251623761132,0.6468640034267983
4.32421875,1.2532882147408142,-1.337933988420681
4.328125,0.6362641297382267,-1.4860854340847225
4.33203125,0.3392991975954742,-0.5241417666647059
4.3359375,-0.0833575106857749,-1.3400364205777653
4.33984375,-0.8959760896470927,2.9109263407206174
4.34375,0.7743622338152037,1.093945027520427
4.34765625,-0.3214054714992582,-0.14824651439958575
4.3515625,1.5440065791408035,-1.0577584375150135
4.35546875,0.09356849142656166,-1.5062678755127428
4.359375,-0.3253266059671609,-0.7261754555828672
4.36328125,0.8706830497141904,-0.19531203523504953
4.3671875,-1.2014403074044087,-1.6927478282025525
4.37109375,1.1926293603719365,1.25559533233257
4.375,-0.4546521658665775,-0.6261423430909907
4.37890625,2.074150703021003,-1.1489853811345134
4.3828125,0.8376818233594856,1.1682390967550094
4.38671875,0.37848143335419215,-1.279583188581368
4.390625,-0.8484249157427084,1.1048264559899554
4.39453125,-0.5789878368639082,0.7968356661364544
4.3984375,1.7403951215231874,-0.21128145567181264
4.40234375,-2.0096977013288044,-0.0786882875896376
4.40625,0.18036795818314108,-1.527809447198146
4.41015625,-1.7366822722129325,-0.2164950961276635
4.4140625,-0.8521873989639029,1.6605369357924373
4.41796875,0.1867466051301069,-0.05145833503024352
4.421875,-0.8481977807647055,-1.0481044763784912
4.42578125,-0.23259602341010474,0.8976889042621697
4.4296875,-0.022874106356089937,-0.8405216261309482
4.43359375,-0.6370816230080284,0.3280017675491381
4.4375,-1.0367814253933325,-0.14015545792793815
4.44140625,0.6223743838703233,-1.5358821761925185
4.4453125,-1.420915997754461,0.6296128210117791
4.44921875,-1.5091187799294996,0.32279957506517976
4.453125,-0.025645564837992976,-1.8583298447694274
4.45703125,1.2898545181755752,1.5231990271049876
4.4609375,-2.348370225064796,1.334804603346446
4.46484375,0.21475540665373266,0.19728782151780358
4.46875,0.4552296692668189,-2.022052134795451
4.47265625,0.33045519414486996,-0.7432754369640507
4.4765625,0.28842195869260695,-0.8612532650194513
4.48046875,2.519555520423185,0.07166985524461049
4.484375,-0.1866987084865895,0.9663705758563681
4.48828125,1.1023576416337515,-2.541128613732361
4.4921875,0.7075163425240707,0.5480864036029851
4.49609375,0.8419560933894567,0.8463052289441485
4.5,0.3860377925961354,-0.7964162366453833
4.50390625,0.5780410595917608,-0.03653155611724216
4.5078125,-1.851998078750388,0.05036860876008942
4.51171875,0.3784320583991174,0.4576854457541153
4.515625,-1.1819013590263983,-1.7589302214406344
4.51953125,0.3025219582205711,-0.6065227207942763
4.5234375,-0.8535672569996271,1.3399935347081653
4.52734375,-0.1838025937459004,0.7742986048738323
4.53125,1.6183585787420682,-0.4908966254921104
4.53515625,1.1917417708591722,0.3115582622197549
4.5390625,1.1148815568690427,-0.4335910389531837
4.54296875,0.8692548206951259,0.8300599921104358
4.546875,-0.37358034693311903,-1.4791333526896817
4.55078125,0.789304879177344,-1.7634132618587608
4.5546875,0.4412106613219056,-0.17265880196194147
4.55859375,-0.33718818534574313,-1.9037395498153469
4.5625,1.5610351279950976,0.6604352187237956
4.56640625,1.1977479245207134,0.5580067177955408
4.5703125,-0.5273992652363908,3.5935652495453057
4.57421875,1.323842425942766,-0.47814422745880886
4.578125,-0.2142048032154775,-1.1764374830513151
4.58203125,-0.5813881788040209,-0.7502631144760881
4.5859375,0.1852532174704296,2.8160724221374838
4.58984375,0.14522460332373124,-1.1194430861727263
4.59375,0.8135404704549425,0.989205625236195
4.59765625,0.8451612273118391,0.7600298747110451
4.6015625,0.8830978043698345,-1.43022283469494
4.60546875,0.5496788793818422,-0.10415914966191152
4.609375,0.37308411914122797,-1.619797770376401
4.61328125,0.5020666039121827,-0.8582364675258376
4.6171875,-1.3701925807737687,0.4542197786551578
4.62109375,0.8736063931118722,-0.39504469562878447
4.625,-0.9214309678314535,-0.7681939142348588
4.62890625,-0.1191537754660315,-0.12668671733607353
4.6328125,0.03825758966392699,0.31808109521178446
4.63671875,-0.2699443838845531,1.0366804098915763
4.640625,-0.22062380473337312,0.11083066883336101
4.64453125,1.865533872206178,1.4663322660134777
4.6484375,-2.106520503173638,0.4588311244334912
4.65234375,0.7415298236278841,-0.8401994138772136
4.65625,1.4689802433022958,1.3468168340359612
4.66015625,-0.6475198333980327,0.5565901884910065
4.6640625,-1.220618838871423,-1.263319472443361
4.66796875,0.7571636421869933,-0.8381832372309541
4.671875,-0.6571596902246444,0.6414657940345202
4.67578125,-1.220547506213972,-1.9440516493406177
4.6796875,1.3270246381505317,0.6342897823650453
4.68359375,-0.6788353640145232,1.8437329275181016
4.6875,-1.972574086190921,1.5547423888430663
4.69140625,-0.1453313757597732,0.8758274392623302
4.6953125,1.3736385132762436,-0.43321970160559337
4.69921875,-1.3727478885084434,0.8857239041236998
4.703125,-1.5974764777269754,-1.008497699030612
4.70703125,-0.6472747621598649,-1.2121712083756178
4.7109375,-0.09014325576378765,-0.9536851623668882
4.71484375,0.5559395519086273,-1.15005869245298
4.71875,-3.1679122099513273,-0.3294581087086103
4.72265625,0.3882135177175677,1.467342373323955
4.7265625,-1.223624421138332,-0.4846210081724035
4.73046875,-0.17267867290212793,-1.037268719739327
4.734375,0.4564403512516515,-0.044348669631176146
4.73828125,1.3017290826874643,-0.5703102991704891
4.7421875,-1.264458419858124,-1.093705649600342
4.74609375,-1.4640344818247812,1.1395641242862662
4.75,-1.9460568369793037,-0.7910061865240519
4.75390625,-1.0345931255355743,0.44498004589790535
4.7578125,1.6762094488708517,-1.4487174242386933
4.76171875,-2.1088008590590253,0.4014257049876834
4.765625,-1.4329377233157994,0.4087768309475998
4.76953125,0.518678933634074,-0.25236336851559804
4.7734375,1.3047050516969878,0.37135118437613024
4.77734375,0.22345250239469894,-0.3478754477976205
4.78125,0.3379305084725629,-0.41167902055128924
4.78515625,2.1112179467063616,-0.2108823102760869
4.7890625,-0.4573927108861014,0.036601562247416494
4.79296875,0.40570790513299987,1.8763735974438198
4.796875,-0.24628796276545273,-1.0177483678469559
4.80078125,-0.48795758476953505,0.11237760467655283
4.8046875,1.100220993389211,-1.0330861965309606
4.80859375,-1.747402452136209,-1.1709720397684564
4.8125,-0.1917506730334191,-0.5914675408066675
4.81640625,-1.8040804580512626,0.49168268738033455
4.8203125,-1.0479528447098048,-1.3725505655866679
4.82421875,-0.4098237190103984,0.3523124678853959
4.828125,2.869491362740002,1.1802280476070042
4.83203125,-0.1596116520387949,0.9757068006455061
4.8359375,0.23620856633089243,-0.8519575951797775
4.83984375,-0.6391655357636549,-0.03897157727655108
4.84375,-0.23434629709180066,3.0266154842551067
4.84765625,0.8088401680538059,0.1813332827376011
4.8515625,0.476362312596625,-0.25138699573558854
4.85546875,0.3497218338646302,-0.9589227492303345
4.859375,0.8955354463967153,0.06315644491024286
4.86328125,-1.2344385727222404,1.1687041998795433
4.8671875,1.9486012540142872,-0.23446221890517815
4.87109375,-0.7765029390153853,-0.9223466235171228
4.875,-1.3798032948732868,0.7884533456198222
4.87890625,0.47292162216123756,-0.6929518235405469
4.8828125,1.921926728784772,-0.7544861316568081
4.88671875,0.1813812927803931,0.5495630294280482
4.890625,-0.8823992388248486,-0.1514084031522853
4.89453125,1.2311268075378725,-0.704814210384089
4.8984375,1.4325215937520182,0.6326123207444605
4.90234375,-0.3547822192754592,-2.569449136915197
4.90625,-2.391183956526726,0.1436008289603972
4.91015625,0.36247440100109674,0.09736555542895058
4.9140625,-0.2944556237699353,-0.8716209334144728
4.91796875,-0.21802925961121467,1.2635786559007172
4.921875,-2.059770755568514,0.9230322764152177
4.92578125,-1.3637545496491885,-0.5692301208087734
4.9296875,2.683291081603242,-1.6837394529358434
4.93359375,1.3546817291369753,0.4548822614532836
4.9375,0.04184574836620105,0.45231176709034526
4.94140625,0.06884534514641943,0.3457006584538342
4.9453125,1.1637105405947668,0.20954203539914568
4.94921875,-0.5856926984420356,2.6932178840182894
4.953125,0.6506599962980307,-1.6005265535204047
4.95703125,0.011780579291274032,0.4143846310376499
4.9609375,1.0743450356576325,-0.36380091209726945
4.96484375,-0.987731992194998,0.8214987448999947
4.96875,-0.8788525359067139,0.0863886338180052
4.97265625,-1.3442684471485167,0.7004143885514917
4.9765625,0.6465575347544954,0.079830679689593
4.98046875,0.6086017931516544,-1.139234529421764
4.984375,0.9394021702848534,1.5955780613408201
4.98828125,0.31542772903731603,0.22735282802743256
4.9921875,1.3421071322917904,0.46759044824107426
4.99609375,-1.1280162244061067,-1.9117637789481938
5.0,0.7057518536257503,0.9005921352110726
5.00390625,-0.30712506115667965,-0.020903474280995604
5.0078125,1.8976461999716325,1.0800351666299608
5.01171875,-1.754252035297435,-0.07419989493054993
5.015625,-1.5225651751455256,0.1419197712138397
5.01953125,-1.021293427955963,0.8696960559387875
5.0234375,-0.05716720118003154,2.6256902008487852
5.02734375,0.004288955393684324,-2.145066087700676
5.03125,-0.24285476663357328,0.282729087733782
5.03515625,0.47903711663200205,-2.1729641005238225
5.0390625,-0.4761905053420032,1.0709676942605741
5.04296875,-1.7343970012800027,-0.5873542868687622
5.046875,-2.3567894327358587,-1.8503909358789243
5.05078125,0.6806616958018714,-1.6783899224108938
5.0546875,0.45144792399885497,-0.7691053993970242
5.05859375,-1.4435436218572317,-0.2595611110079307
5.0625,-0.3180619380538218,0.47573027862726963
5.06640625,1.4279695601809919,0.5001251339824291
5.0703125,-1.6763287603720567,-0.42360576624163593
5.07421875,1.8577760250789561,-0.3756701374689766
5.078125,0.7997779806908787,1.3167841763440602
5.08203125,1.4291306842493467,-0.8927925190534313
5.0859375,0.2351897703932113,-0.07357575368337899
5.08984375,-1.3553811911134024,0.1567480585898929
5.09375,-0.010410007445416336,-0.2626381561488553
5.09765625,0.14525149352770178,0.4353560458484977
5.1015625,-0.24756732761661018,-0.09102762944838338
5.10546875,-1.0386999513246282,0.9242929235978621
5.109375,-0.30361985055584495,-1.392348564608995
5.11328125,0.19034966067114406,-2.0677776797278025
5.1171875,1.077619873115982,-1.5863852984987536
5.12109375,0.3966145862182806,0.6489753840011555
5.125,0.0024972886059420273,0.8848117311793782
5.12890625,0.05343424910392932,-1.4108208765900816
5.1328125,-1.6180204821379076,2.4882529552367694
5.13671875,0.17962945452190726,-0.9698961159611083
5.140625,0.05245819837237093,0.6945668649078454
5.14453125,-2.4497456420873505,-0.3173956064257371
5.1484375,-2.441938519574059,-0.14477167092957297
5.15234375,0.759902350135865,1.113600873110916
5.15625,0.6097218162993348,-1.205164785001693
5.16015625,0.9360151272548288,-1.0486597816826921
5.1640625,-2.2455162952197125,1.577878082665622
5.16796875,2.347146897411006,0.5494709057720127
5.171875,0.2151219406388957,-1.8036883744852559
5.17578125,0.5836723068835595,-0.6482801702893796
5.1796875,-0.22981877203292245,0.9315099624910598
5.18359375,0.2547760553172388,0.09645415962413459
5.1875,0.7140798826460135,0.7298266068737437
5.19140625,1.242750488767937,1.0870586504744484
5.1953125,-0.031503076556419644,0.3760643037454198
5.19921875,0.7483153267254945,-0.7143614726165237
5.203125,0.3508417100907961,-0.42870269936293215
5.20703125,-0.6628985899904543,0.7215570379948303
5.2109375,0.25118418769211187,0.28765731530754224
5.21484375,1.4418468921177627,-0.6607736715452405
5.21875,0.4929472550215109,-0.3070251352074429
5.22265625,0.47222080121489235,1.622690266312156
5.2265625,0.586567378733541,-1.358761103985942
5.23046875,-1.8516041427421501,-0.21560975356381476
5.234375,0.14667446242170243,1.6752330362312704
5.23828125,-1.0121411904873627,-0.7574391116823231
5.2421875,0.08361869189343267,0.04600349958528662
5.24609375,-0.13236958432773405,-1.7824295149030165
5.25,0.4729677140997532,-0.5887463429564842
5.25390625,-1.483084195742027,-0.32049672275851687
5.2578125,-1.6002575133044432,0.3030783348304395
5.26171875,0.05705990117891103,0.08597106664607417
5.265625,-0.5978359357731462,0.9345878559188477
5.26953125,3.2456641460379694,-0.8310877313582876
5.2734375,0.31324866810347274,-0.10313344918039374
5.27734375,2.2331586748689625,-0.7813952837278905
5.28125,1.3730193131931254,-0.344451639523195
5.28515625,-2.310903049075085,-0.5142404185256849
5.2890625,0.2514482540355377,0.7313855985195089
5.29296875,-0.07144860629522412,0.3651047485585543
5.296875,0.8855095956638785,-0.15637932690386536
5.30078125,-1.1684572335875747,-0.30063518113457477
5.3046875,0.09234873546861336,-0.41226896299115395
5.30859375,-0.583857164497789,-0.8368842649146554
5.3125,-2.2424376005784543,0.3857494692017225
5.31640625,1.574020055718535,-1.3915166250575248
5.3203125,-0.8774872565895323,-1.2693853949377114
5.32421875,-0.7485240564340863,0.553766674013963
5.328125,-1.3713197661988257,-0.016375067983147043
5.33203125,-1.9813620490624146,0.5459815810385209
5.3359375,0.016981144836062848,1.900121025730818
5.33984375,1.382032944328204,0.0640827363648631
5.34375,-0.5984799371680704,0.5487934333827222
5.34765625,1.0676288676034185,1.6534820981176963
5.3515625,-0.5180896716973278,-0.7804791624342357
5.35546875,-2.7388379777823304,-2.2128807919743028
5.359375,-1.0433374159155846,0.8160103085587858
5.36328125,0.3265933895527708,0.21806747161180423
5.3671875,-1.602622372352548,-0.7421761010810147
5.37109375,-0.04977729534633269,-1.1905722301974127
5.375,0.3652905177399936,-1.9721495879330555
5.37890625,0.25837752508458595,0.18175312653629272
5.3828125,0.20135752773075005,-1.4276588904156988
5.38671875,0.43666829798925183,1.9615561788405786
5.390625,-0.8504016001458206,0.802955558382687
5.39453125,0.6383110641778958,1.3068147044563656
5.3984375,-0.3453863856711367,-0.4244237627904868
5.40234375,-0.6167753718301022,-0.893081135657324
5.40625,3.0449160026159454,0.21698084171875284
5.41015625,-1.4602628496970302,-0.055380870997049275
5.4140625,-0.4824059851255503,1.2238493382889224
5.41796875,0.010767433798097137,0.005257474067182484
5.421875,-0.0441632020601461,-0.8404135909420649
5.42578125,0.5797696307272164,-1.0907001007193513
5.4296875,1.3589351476352376,-1.1146995733195952
5.43359375,0.8557088086995805,-1.9409117245820158
5.4375,1.04781236669842,1.3156703667807015
5.44140625,1.1722855384429878,-2.1585162407756346
5.4453125,-1.6619928624709357,-0.7581965044957615
5.44921875,0.8365008603550234,-0.9015942565146476
5.453125,-1.320464378140196,0.5122466906508767
5.45703125,-1.425958785158806,1.1866573104136882
5.4609375,-1.5909761605869863,-2.1858866305026523
5.46484375,-0.5422885742887807,-2.5298598985484335
5.46875,-0.9448505781931932,1.5127760860461739
5.47265625,1.3773889429266473,1.281388874917138
5.4765625,-0.24374277981759046,0.4608434664852455
5.48046875,-0.3902202994188192,-0.21011195650755216
5.484375,-0.08890707639493199,-0.851234422162297
5.48828125,-0.7122372497095837,0.20729410488463634
5.4921875,-1.0308808346525486,-0.5749358919017046
5.49609375,0.5412122562388973,-0.11482433482893585
5.5,0.44145142455986613,-0.04812715977660021
5.50390625,1.827364428793484,0.2659255440449365
5.5078125,0.5598678241354039,-0.7777239480946941
5.51171875,-0.2602242458917355,-0.8018106753560118
5.515625,0.21670087869618385,1.1448719895053614
5.51953125,-1.180260817609445,0.6460558372497986
5.5234375,-0.2764426551759457,1.5652804065684338
5.52734375,-0.5227670801945609,0.1370272150166323
5.53125,-0.637263108618387,-0.5789662991877186
5.53515625,0.4390023082507019,-1.459844933376764
5.5390625,-1.5533988750435797,-0.05888346078152453
5.54296875,-0.4643521095913033,-0.399671418518463
5.546875,2.421962192576475,-0.4110075776880952
5.55078125,1.0430022307261593,-1.3718007650407773
5.5546875,0.9364763539971459,1.380427596332432
5.55859375,-0.8005872350974687,-1.0235441096945586
5.5625,-1.8315940862037672,-1.5351601629443339
5.56640625,0.20498529293384063,-0.6943522619203334
5.5703125,1.34771843357986,-0.0768926790019236
5.57421875,-0.8287825918287047,-0.44558734159372887
5.578125,1.6780860076132762,-0.5108561698499038
5.58203125,0.40110623081576324,0.979174269434667
5.5859375,-1.299582681398338,0.6267368700962538
5.58984375,-0.9292917169383647,-0.2276225904032699
5.59375,-0.24150524531537107,-0.33709475816420437
5.59765625,-0.6888004072984246,0.010496644273636275
5.6015625,-0.3336296073044564,1.0587043821743656
5.60546875,0.07062003589681892,-0.8478572867960162
5.609375,-2.509461522761677,0.23294400239850208
5.61328125,-0.15926695506351546,-0.014211788325946268
5.6171875,-0.613206744623946,-1.8842214541560922
5.62109375,-0.13855071393536572,-1.3313065608632881
5.625,1.798935141744544,0.7111668445553256
5.62890625,-0.8434725049486529,-1.6806729686379636
5.6328125,0.6304636569150095,0.7278377161969027
5.63671875,-0.38782634373332814,0.023615927858513335
5.640625,1.111102428917888,-0.2442286560169432
5.64453125,0.6338909723625198,0.3448715271470196
5.6484375,0.24102337046790326,-1.18503316008086
5.65234375,-1.0756605203535794,0.4208932010292549
5.65625,1.2360504872486073,1.085931188979269
5.66015625,0.13059141673073213,0.24556362741925294
5.6640625,0.8329431131661598,-0.4173015664265459
5.66796875,1.623275214770422,-0.8533006708410589
5.671875,-1.5102851733993006,-0.1751649184445787
5.67578125,-0.2855776413949804,1.7605443582145297
5.6796875,-1.05259701049245,0.3501152699592636
5.68359375,-1.0487726708074174,-1.530657700335791
5.6875,1.9705881475434261,1.1028421135088775
5.69140625,-1.161420012479461,0.28481492549536763
5.6953125,0.21525068294960287,-0.7128709914858286
5.69921875,-0.6351960547820523,1.4093564100593763
5.703125,-0.5289134367879702,0.9345264129509295
5.70703125,-0.365982144328927,0.6240253559439973
5.7109375,-3.056362904387698,0.20991299249036244
5.71484375,-1.5973434276416318,-0.0753269693514316
5.71875,-0.20805138036642315,2.5499978398659153
5.72265625,0.1109241582720299,-1.0111916886850776
5.7265625,1.593802602677236,-1.0622155406814424
5.73046875,1.2682708991112892,-1.0486065139095537
5.734375,0.09405779888814896,1.6958814048264332
5.73828125,-0.7363318949925994,0.22707426614285467
5.7421875,0.8383706559438823,-0.25332049676469964
5.74609375,0.12410301881688801,1.0951647272489862
5.75,2.2681398490398395,-0.18585535544029183
5.75390625,0.9835789652603588,0.5449200306176202
5.7578125,-1.3229222869078008,0.5448882529059962
5.76171875,-0.6575644512903346,1.6040430177851854
5.765625,-0.798107431079252,-1.0895295161897343
5.76953125,-0.3364050771307327,1.0524196493451794
5.7734375,-0.4041759948755635,-0.8129662411648785
5.77734375,0.44029158065681184,0.2499356222993794
5.78125,-0.4211508239482272,-0.3103045363149466
5.78515625,-0.2907719609957592,-1.1775653152474563
5.7890625,0.2217870812767178,-0.8148097052219854
5.79296875,-1.0337184376068878,-0.30639415647379037
5.796875,0.5697103422731008,0.6498069031878659
5.80078125,-0.07655302724852289,-1.0138238568425366
5.8046875,0.1742508859897604,0.22868295696885424
5.80859375,0.05046339498556587,0.3141388855881529
5.8125,-0.6074071921968281,0.34524628770998383
5.81640625,1.1072001567512375,-0.2965141204534866
5.8203125,0.2914844607810175,-0.8615681272474582
5.82421875,-0.12668904812126455,-0.14456051513827992
5.828125,0.396221337625485,1.168418375509836
5.83203125,-0.8454243228202412,-0.8738478789719345
5.8359375,-0.7251216126110106,1.0413058375328035
5.83984375,-0.49799314438648046,-0.8343365712655635
5.84375,0.14440721655178845,-0.3268583856758524
5.84765625,1.155339926248868,-0.8962014808388605
5.8515625,-0.1809551252379032,0.3901379769927352
5.85546875,-0.4732872357107493,1.2768498385315243
5.859375,0.5599373687791916,-0.16713351629331566
5.86328125,-0.6061560373404453,0.11581291730634498
5.8671875,-0.38646366961066836,-0.7797299293049104
5.87109375,-0.46889872768905516,1.3951930694483792
5.875,-0.06554078098003167,1.6986973058904136
5.87890625,1.6713579383659258,-0.5852738834519438
5.8828125,0.0032639643564843822,0.7178312809256177
5.88671875,1.1308463208925446,0.23510659621809693
5.890625,-1.9276961737729035,-0.35180512106335454
5.89453125,-0.29853942696083985,0.3931016366743806
5.8984375,0.4088319047799848,1.6413335176465305
5.90234375,-0.8965364631576539,1.2225521905069745
5.90625,1.6597672693623413,-0.0018934336018045575
5.91015625,-0.8742061892965516,-1.2301352761244537
5.9140625,-0.1158164437703119,1.8887714281046946
5.91796875,-0.16127464678541353,-1.4175095142296255
5.921875,-0.8483574992189542,-1.1365169758206881
5.92578125,-0.21198394768757708,-0.7305566070235737
5.9296875,-0.6489790714638912,0.8709400517887085
5.93359375,1.123175248207522,1.352650166085227
5.9375,-2.2781965256629517,-0.8950450236062548
5.94140625,0.48767809967241893,1.064902913225913
5.9453125,-1.7837063197904495,-1.7029779478687759
5.94921875,1.1434254522849687,1.2463650940814912
5.953125,1.0765154494221099,0.6105472750151499
5.95703125,0.22917366367482034,-1.131487142142156
5.9609375,0.36956493481586344,-1.3180335612833132
5.96484375,0.5195666301572519,-1.050334795492175
5.96875,0.7151238199230395,1.3973842700931283
5.97265625,-0.7986639034469738,0.0928502652336611
5.9765625,-0.852686887030659,-0.4781588616876367
5.98046875,0.327953160581545,0.604913871355033
5.984375,0.5904852919796908,-0.44219564353823765
5.98828125,0.36401321542064097,-1.8465726335375625
5.9921875,0.3246532888403862,0.6310936384780856
5.99609375,2.56444082635449,0.7385407871195055
6.0,-0.10568662661974247,-0.37878248835798745
6.00390625,-0.6664232846374004,-0.9651970299209132
6.0078125,0.3666117792054068,-1.018193865316542
6.01171875,-1.513276148613338,0.10895669867777062
6.015625,1.5068571862928541,0.18686851941034507
6.01953125,-0.23181823821831818,1.9071428652126299
6.0234375,-0.2567361112404821,0.3867955085266451
6.02734375,0.008107677228709692,0.34178755696203905
6.03125,-0.6899071418798721,-1.072865732434394
6.03515625,-0.034702837742547815,1.0829181809572395
6.0390625,-0.26114715875185796,0.6892581796985211
6.04296875,-0.22202468465574446,0.5038054039483482
6.046875,0.08763538269595757,-0.27221820515853673
6.05078125,0.564490490335329,-1.4196293547578949
6.0546875,-1.1014791667856305,0.21260255181274265
6.05859375,1.0813384757162319,1.376282300785382
6.0625,-0.7108971299694191,0.18101383469586232
6.06640625,-1.21055236121134,-0.49988562702432665
6.0703125,0.3272287127565822,-0.33802823500442913
6.07421875,0.33426911885348815,1.3832521349010811
6.078125,0.07376624658347247,-0.9214088502283518
6.08203125,-0.08728901979977921,-0.1681706259376965
6.0859375,0.21125569180255702,0.463435758186324
6.08984375,0.755437145550485,-1.03644812800645
6.09375,-0.5078961588939424,0.7242425764353442
6.09765625,-0.1708982360608029,1.2170262466173702
6.1015625,0.18292967222485487,-0.03534577945498427
6.10546875,0.24448908740731165,0.2733397718945151
6.109375,3.4809895438744647,-1.2372816855991915
6.11328125,1.0807668364743617,-0.15701207062880546
6.1171875,-0.07034805220060726,0.43524894421476484
6.12109375,-0.24383580205465924,0.01088604998894923
6.125,-1.6069339135871292,0.442388314454186
6.12890625,-0.9523768816639483,-1.9671035556458065
6.1328125,-0.3857546880543801,0.8696294416780566
6.13671875,-0.46006787100843416,-0.3154384989365092
6.140625,-2.4083585075807354,0.6782523627224293
6.14453125,-0.5862014072727509,-0.39423220932976233
6.1484375,1.1435217598134042,-1.3733699966545476
6.15234375,-1.1133120635736053,-0.8037901895908792
6.15625,-0.4200762804987916,-0.2563420488735237
6.16015625,0.6284840955074202,-1.3360041494586983
6.1640625,-1.3770881274385138,0.849346385366105
6.16796875,0.20614263170801425,0.524906684708247
6.171875,-0.042554261694934474,0.47943364097651037
6.17578125,1.1811450386499034,0.8257225280347256
6.1796875,0.23259921831976194,-0.7716043284420849
6.18359375,-0.04618123080603043,-1.6778698574425155
6.1875,1.098670332591802,-1.070368262521837
6.19140625,0.9775092782854645,-0.3843216012984356
6.1953125,0.1389527090389107,-0.7607789801352837
6.19921875,-1.7768089936779354,0.5968049995595688
6.203125,0.1098774330564497,1.3287482915317321
6.20703125,1.5922010431422011,0.4443365857302109
6.2109375,-0.8568018549503401,0.17983118378099505
6.21484375,-1.2503337400415202,-0.13679530879279156
6.21875,0.06502427868361449,0.22346121872333985
6.22265625,0.1258344270791071,0.04940645923516104
6.2265625,0.3939160038587102,1.1659598727881435
6.23046875,1.7748173120578692,0.9828990393308987
6.234375,-1.0790384811298481,-0.8939305042187539
6.23828125,-0.13419211322408764,1.311282480312376
6.2421875,0.5687637012581039,-0.45910721304845836
6.24609375,-0.014293232450781335,-0.5387590659043472
6.25,1.4850664304579169,-0.7244721178786269
6.25390625,-1.9819479914610252,-0.8424966472285172
6.2578125,0.8019802096570503,-1.4857389565146293
6.26171875,-0.2837369619590137,0.7071869546567573
6.265625,0.7164728511811704,-1.682714810638735
6.26953125,0.07000537598615252,-0.5587719923320464
6.2734375,0.44486158136753373,-0.44116538928235866
6.27734375,-0.749430046873809,-0.42695723077955944
6.28125,-0.698902154760805,0.02162009040745593
6.28515625,-0.8940549980635342,1.2388717939040965
6.2890625,-0.06279209932672256,0.2212824547050274
6.29296875,-0.5166360457436996,-1.2066684931804386
6.296875,0.5373299902299368,1.3298106355132973
6.30078125,-1.2673171485517913,1.2324404491951035
6.3046875,0.21759113814328318,-0.40191047023553556
6.30859375,-0.050328932995396404,-1.3081298595060156
6.3125,1.7237558068086931,0.12064909061354812
6.31640625,-0.5388075686994801,-0.4184499698357103
6.3203125,-1.4622800143209653,-0.7875198056447275
6.32421875,0.4347966800230525,-0.41289064692149136
6.328125,1.7205390984705966,0.43440155532907565
6.33203125,0.15284873183552966,0.48386243110695315
6.3359375,-1.6027466782424484,0.37056976133808384
6.33984375,-0.5144325528591113,-0.8301054157497482
6.34375,2.472354491728423,1.6578090407235355
6.34765625,-1.5552853860874223,1.786419175950999
6.3515625,1.3240430929570064,-1.2670443263282605
6.35546875,0.2613964778354156,-1.4270483685967703
6.359375,-0.8985036236370666,-0.5390129537017778
6.36328125,2.4770936907068735,-0.5317124782868798
6.3671875,2.038156833323619,0.255513163439833
6.37109375,0.025140587530966176,-0.1648516134301987
6.375,-1.3289533555033812,-0.8704923927074993
6.37890625,2.0007966718761394,-0.20496952001034685
6.3828125,0.03408021858208765,-0.35163418085672427
6.38671875,-0.6549191189258293,1.3891850392155745
6.390625,-1.0077774521527483,0.9264753286282081
6.39453125,1.0053870506235134,0.15093015866219817
6.3984375,0.45291493399822613,-1.59694132055388
6.40234375,-1.9771210591276198,1.4122631438593456
6.40625,0.8018614037560241,-0.909383320265572
6.41015625,0.8239129815413623,0.1158407359064397
6.4140625,0.48274578871849083,0.0057595852354561695
6.41796875,-0.5079110966239405,1.1037671741391908
6.421875,-1.0515446317950197,-0.506994334439943
6.42578125,-0.9340516959964958,-0.5412075532046006
6.4296875,1.1354691503102363,-2.026440519968562
6.43359375,-0.7657191582205262,0.7836481359093017
6.4375,1.701387768528059,-0.6266078661122508
6.44140625,-1.2519602268083947,0.5024632056513231
6.4453125,-1.3561871251267212,-0.9457897624962246
6.44921875,-0.46944045542322954,-0.5588503222767386
6.453125,1.2008859152130784,0.24204445871326663
6.45703125,1.8459471863385293,0.9066814249352235
6.4609375,0.5251692462512271,-0.08878473667038247
6.46484375,0.7753132142872708,-0.3106864237940467
6.46875,-0.2841934451577972,-0.5317119359305765
6.47265625,-1.222230817731155,1.4279449705277527
6.4765625,0.3182995184729314,0.5334225123413532
6.48046875,0.11871527471951118,1.0288871851681742
6.484375,-0.18853239535497182,0.7888660242315025
6.48828125,-0.1337521915526566,0.6936212623773248
6.4921875,0.3377549218936991,0.09206802096351659
6.49609375,0.19837666630220252,0.14528089380572845
6.5,0.1396795738885616,0.5260619891382675
6.50390625,-0.022524013375978164,-0.4779470722899039
6.5078125,1.0686178556410304,0.2695563367214698
6.51171875,-0.3407203675102136,-0.19461806573801826
6.515625,-0.05923671010313415,0.029155822779148972
6.51953125,-0.7250206178161895,0.848250877628587
6.5234375,-0.045591451938690145,1.6399261625295343
6.52734375,-0.9708261646094705,0.7291019821863371
6.53125,-0.2663744987461535,1.9161279759687333
6.53515625,0.555992659040324,-1.1224959258516336
6.5390625,0.41907971354239887,-0.08087264575806839
6.54296875,-1.0016929550355047,0.7529654638543016
6.546875,0.30788238474637686,-0.7390515817279708
6.55078125,-1.2218047418809217,0.505186408157446
6.5546875,-0.39801680537706435,1.2394571332312738
6.55859375,-0.03004699930303009,-0.22531409324398063
6.5625,-0.42326145503419466,-0.1300531892708507
6.56640625,-0.9928200008019575,-0.4258953836799449
6.5703125,-0.5864670854036208,0.06703872733169568
6.57421875,-0.6110417933451792,-0.39367898252977274
6.578125,-0.28468658764334664,-1.4401174832261971
6.58203125,-0.6330473732590552,-0.4890384310928337
6.5859375,-0.7273149358251666,0.8780823784359485
6.58984375,0.8748712804464878,0.2195855291256723
6.59375,-1.9649246579708397,-0.015272916290902673
6.59765625,0.6745835791676255,0.29055371600640234
6.6015625,0.3071412028709197,0.2632060504468911
6.60546875,0.5510375665060931,-0.6352027640288251
6.609375,0.4033892049963083,0.8492009085800787
6.61328125,0.009514407558519062,-0.4652804657341576
6.6171875,0.759683356685886,-0.05918804123397258
6.62109375,-0.5652582723090106,-1.3905401905322572
6.625,1.0742613700370582,1.531053641532266
6.62890625,-0.4945904989949969,0.3209060247993996
6.6328125,0.08101194333561891,1.4738051905873486
6.63671875,-0.11074019021115908,-0.179212817085181
6.640625,-0.5768705253770211,-0.48160785937938155
6.64453125,0.13025122340697726,1.018904336844289
6.6484375,1.222567746207268,-0.6804197484052372
6.65234375,1.9913259137685195,-0.2982637582487621
6.65625,-0.12211682864332199,-0.32727656762153357
6.66015625,0.13444287887982664,1.0530985246085431
6.6640625,-0.49917224294169293,0.19491856916272216
6.66796875,0.9269535729876044,-1.5215498787460102
6.671875,0.016686978308051683,0.5505406593919921
6.67578125,1.332169846054052,-0.6794454962421368
6.6796875,1.1592602193512525,0.22808983447327588
6.68359375,0.7722665494439583,-1.2403232076027786
6.6875,-0.7938885517477055,-0.02121985575326429
6.69140625,-0.7859529342349953,0.8503600636473574
6.6953125,0.438117435789604,0.012657176964221414
6.69921875,1.8695551334912202,-0.41418640754905894
6.703125,-0.33795941058337076,-1.4242262666043324
6.70703125,-0.45156376416596133,0.09170529154595242
6.7109375,-1.1796941722171737,-1.0539868890802808
6.71484375,0.6401575653777857,-1.5314240450295316
6.71875,0.16433238187943852,-0.05301374794443247
6.72265625,-0.6412991708792359,0.4163241224764101
6.7265625,-0.6014980441402443,0.12106896939081671
6.73046875,0.959149106469759,0.6003731180572459
6.734375,1.9155681660059831,0.1127681820866733
6.73828125,-0.5670048529710986,2.07508619452049
6.7421875,0.9975703570777388,-0.5691258448375478
6.74609375,1.267679323012297,1.4395370416363216
6.75,-0.896373535985909,-0.15178055521485553
6.75390625,0.07035772273180006,-0.5283286038290647
6.7578125,-0.915897920137731,0.7718837721214272
6.76171875,1.2992288159817074,0.010404425670798328
6.765625,1.5628472496463355,1.3733554583517626
6.76953125,-1.2778007730126748,-0.7744155328274605
6.7734375,0.6854595176996232,-0.5471037413745017
6.77734375,1.565142434294884,2.3160783679462527
6.78125,-0.9622619683819765,-0.6551608962673328
6.78515625,-1.219894424953327,2.68126525426281
6.7890625,0.3759983098939259,-1.092922157728922
6.79296875,0.7465583996275624,-1.2726897871283513
6.796875,-1.1532847251161664,1.7926756217246225
6.80078125,-1.2021557353373686,0.7628629358459945
6.8046875,-2.456423525726409,-0.2592848842511121
6.80859375,0.4543194614212289,-0.22061734407018166
6.8125,0.8031299859439164,0.6216378413292192
6.81640625,-0.5343964957765768,-0.2941002704999182
6.8203125,0.22726586521336856,-0.6627458066569865
6.82421875,-0.9469400054423749,-0.6751676232039875
6.828125,-0.8625452694297022,-0.6522239353648925
6.83203125,2.432290125002291,-0.5986718521546244
6.8359375,-2.059865651121258,-0.6363930141493628
6.83984375,-0.6049890405535899,0.41155743755339225
6.84375,-0.048044308391375676,0.698536694664868
6.84765625,-0.08655313594820421,1.6348404110382446
6.8515625,-0.4418637815703734,-1.0840478682398784
6.85546875,0.8587474871335087,-0.11370851701001293
6.859375,0.05547693348715932,-0.25988221345514667
6.86328125,0.2615863609148414,0.8355295939144892
6.8671875,-0.8079311649978935,0.010494978505308198
6.87109375,0.5094064326678265,0.34406344389547144
6.875,0.6059493075377403,-2.2746320086457548
6.87890625,-0.15477399955709933,-0.09101356229480306
6.8828125,-1.977842263452529,1.6418394880461864
6.88671875,0.41264680767917855,-0.03173200658309431
6.890625,0.7500530875029057,-0.6721354151315072
6.89453125,-0.851841256325709,0.5910686474962912
6.8984375,-0.8253995702682807,0.3820129112567032
6.90234375,-0.7259675240198484,-0.7214504451086888
6.90625,-2.1327265306394634,-0.5821810507699633
6.91015625,0.7277324619650927,0.7035465805867575
6.9140625,0.999214163170907,1.2482331470515244
6.91796875,0.6519845751248937,1.0871682515718224
6.921875,1.8500086191381913,1.0379539543931515
6.92578125,0.6203093067913312,0.8771283886584528
6.9296875,1.755482235836735,-0.9119208425559459
6.93359375,-0.3087363816990916,1.6925109753361876
6.9375,1.880143532897543,-0.745245517785591
6.94140625,0.719560388223254,-0.948473641460026
6.9453125,1.3249665321232642,-0.9678817972556882
6.94921875,-0.19596425494646155,1.46407253941978
6.953125,0.641363212195425,-0.7173277671358531
6.95703125,-0.10889938795120893,2.108161615512831
6.9609375,1.0633648155324398,-0.14451696827128707
6.96484375,-0.9801474179503978,0.4254066521669746
6.96875,1.2738256851366947,-1.0954978422957333
6.97265625,0.5780767739495843,-0.6611094089323016
6.9765625,0.7757548046793367,-1.2142232698666462
6.98046875,-0.7139678031405327,-0.3605604383065477
6.984375,-0.46244180339750784,0.5108329225130976
6.98828125,-0.6537692999463022,-1.5702259287379532
6.9921875,-0.5215811245268764,0.28524723790569617
6.99609375,-1.9392094893512495,-0.04937715875842999
7.0,-1.2918324303223334,0.06722758251761539
7.00390625,0.6636422103548301,1.0704009210360383
7.0078125,1.745974885043508,1.1902218476072342
7.01171875,-0.2606990518736403,-0.42276697642170163
7.015625,-1.9148259784377812,0.7169468108793142
7.01953125,0.4739307243318443,0.8594790729239301
7.0234375,0.028349992908824246,-0.4804714102665387
7.02734375,0.3725479403718396,-0.7947700533084596
7.03125,-0.589703890165397,-0.49098977610896716
7.03515625,-0.7868496824670483,1.2127294527682482
7.0390625,-0.2761735938099446,0.46420059326246854
7.04296875,-1.7239403908178677,-1.272730339356138
7.046875,-1.3048937203702469,-0.8416118992482614
7.05078125,-1.6239304708543425,-0.0307877737853137
7.0546875,0.5490700644241256,-0.6079862935807057
7.05859375,-0.27582741956421847,0.3475562154894548
7.0625,2.0310313854688675,1.3350631095609162
7.06640625,-0.42138562897059784,1.0365186570569045
7.0703125,-1.4650839104028999,2.293138497522441
7.07421875,1.0088415510238766,0.6917615338069687
7.078125,0.8734652876678535,-0.1786171072034568
7.08203125,-0.13659907657244563,0.9944267686038923
7.0859375,-0.33488336005077735,-0.7094277977416062
7.08984375,-0.6709095684513613,0.9079161249754631
7.09375,0.2856041788823107,0.2642889483466229
7.09765625,0.05746863846919604,0.6424171323048281
7.1015625,0.9103017167219329,-1.7143859197771076
7.10546875,-0.3319158696630191,0.34021111538958826
7.109375,2.0715423255365453,2.1428201836920735
7.11328125,-0.049073807451125946,0.904621215562778
7.1171875,0.9604166586653335,-1.261900541737073
7.12109375,-0.11803654628878063,1.1168284062733818
7.125,0.9793248459871262,-0.8890164375229759
7.12890625,0.2705855223413579,-0.42494482138046896
7.1328125,0.2613459179932638,0.6046924438785809
7.13671875,-1.4778204076372268,-0.17134712732063445
7.140625,-0.8459002314524988,-1.0383949146299651
7.14453125,0.3331903686538402,-1.4676419159971652
7.1484375,-0.3114629258439222,-2.489635615968714
7.15234375,1.3632220548557588,-1.6194962151951768
7.15625,1.7191133008084045,-0.178232992652703
7.16015625,-1.843617182458635,0.43605716151879453
7.1640625,-1.0580040295013837,-0.6564699744452082
7.16796875,0.02560624891135415,-0.37247011057808505
7.171875,1.0040200114966886,0.06680249875475154
7.17578125,-0.36537475021396143,1.2633510069308072
7.1796875,0.057477219959262235,2.244629592475146
7.18359375,-0.21525577986120728,-0.14569520033902614
7.1875,-0.5014697994376901,0.6969396703525264
7.19140625,0.04660251178400865,1.9603520718107381
7.1953125,-1.797285052221307,0.785841804424551
7.19921875,-1.0365798019425614,-0.22347639345208942
7.203125,-1.0239490114220888,-1.5513608622669335
7.20703125,-0.579863468189201,-0.14256925840272713
7.2109375,-0.1686156067207926,-0.5615579395885069
7.21484375,0.3399221579648813,1.1986744733712666
7.21875,-1.4627411613015031,1.058458946218567
7.22265625,-1.1669502042548403,-0.4593589460171889
7.2265625,-1.0350819995303013,-1.1466683706774996
7.23046875,0.14129702005628084,1.3647026870013688
7.234375,-0.661338165309791,-0.6582994918436456
7.23828125,2.55861473250407,-0.15412694107414024
7.2421875,-0.2737882954293906,0.5462279070051266
7.24609375,1.6049491645627183,-0.7287938570556972
7.25,1.422362240918061,-1.0122737543617935
7.25390625,0.2594539576645043,2.0120490214358986
7.2578125,-1.0921320717565635,-0.4716402338997951
7.26171875,1.4909644686481183,0.2923645639786604
7.265625,-1.2048249342345079,0.5165101728975658
7.26953125,-1.6115072747801669,-1.2531408450987145
7.2734375,0.85630187983124,-0.2794401371114097
7.27734375,0.5042449217395332,-1.7576364944166232
7.28125,-1.7356792997396973,1.185724456769056
7.28515625,1.2097342064056165,-0.9809651949728844
7.2890625,-0.5861077013043378,0.664933772457473
7.29296875,-0.25773227096286516,-1.1387842916558024
7.296875,1.0928573909367074,1.400257581111445
7.30078125,-1.1309256770912008,-0.5960721021955794
7.3046875,1.204785866268838,0.5241549495981126
7.30859375,-1.0685378958260467,0.0988696297678735
7.3125,0.7499996229807363,-0.5209275261265007
7.31640625,0.7655318818840474,-0.7063371892674771
7.3203125,-1.1690412839750168,1.5084340223075083
7.32421875,-1.1502306901539987,-0.3114356622780354
7.328125,-1.30973174727465,-2.1724582574943887
7.33203125,1.0603791354151304,2.6975458273182626
7.3359375,0.8324986082549399,0.42233903536664263
7.33984375,0.4760274403029383,0.433387742107547
7.34375,-0.57621120591842,0.1739283742172555
7.34765625,0.7377115749156936,0.4854465695243381
7.3515625,0.6822917379425704,0.816750515799271
7.35546875,0.5560153587989077,-0.20928536276610346
7.359375,0.21281011517620177,0.34912214269832226
7.36328125,0.2820080305726373,1.149576795499732
7.3671875,-0.4226488061329777,-1.2587969465189048
7.37109375,-0.26482584315092134,1.3341885110313272
7.375,-0.6248508803469867,1.1790710631108554
7.37890625,-0.32198969580504605,-1.1245387957385908
7.3828125,-2.4007117148509702,0.7235807176071221
7.38671875,-0.1456764546599908,1.9912196923840817
7.390625,-0.2215369272544081,0.26205267874416444
7.39453125,-0.03525301996423804,2.6364894126414975
7.3984375,-1.019796012497162,-0.34152089313785283
7.40234375,0.10996195539816701,-0.010520919815195104
7.40625,-2.2378134769232263,1.2325869165285974
7.41015625,0.8374033644270326,-1.7444065898258083
7.4140625,0.2126857774088963,0.14162923267344635
7.41796875,-0.6123570163752463,-0.13607300194446942
7.421875,-0.280568983208257,0.6136615644392093
7.42578125,0.5545582405955883,-0.48197472214030146
7.4296875,-1.1952280641178705,-0.026853874909357818
7.43359375,0.5373026211177703,-0.2009909597103431
7.4375,-0.6431245438644632,0.8864112219802732
7.44140625,0.18152776702518492,-0.0582946145496181
7.4453125,1.5225137824760433,-0.736486417873407
7.44921875,-0.8757900366527491,-0.3581868205652119
7.453125,-2.223552371108906,0.5732316635314044
7.45703125,0.6945882305931435,-0.5700804714997909
7.4609375,0.377478486219958,1.1529205264051368
7.46484375,-0.06407837930396873,-0.8110328406100127
7.46875,-0.721401907106435,0.5578849082898321
7.47265625,-0.7382753411424232,-0.5436111684911175
7.4765625,0.9635245366403605,0.9217456789621793
7.48046875,1.809190294816464,1.1530547729034957
7.484375,0.16039819547931722,-0.6445886466846451
7.48828125,0.720027741487308,-1.6641605615432162
7.4921875,-0.49862623433422054,0.04299956989551289
7.49609375,0.0650320315272168,-0.5063319817586176
7.5,1.7153452222049728,0.9331353370099928
7.50390625,0.16499070305732275,-1.7854792906530224
7.5078125,1.5288094228845623,0.2762714784394339
7.51171875,-1.0090430837940965,-0.18331065879540615
7.515625,-0.5644858706255207,-0.3660447588392767
7.51953125,0.17007058289799848,0.3212150498537467
7.5234375,0.8820731850736597,0.10445188484220755
7.52734375,-0.7467764353046547,-0.3346663656744132
7.53125,-0.6485160559911098,1.6344948338196683
7.53515625,-1.9364855905956788,1.0448829191261935
7.5390625,1.2825494402064153,-1.5014393184154373
7.54296875,-0.16401140125351865,1.052682448247207e-05
7.546875,0.6115028480393074,-0.4239125341671978
7.55078125,0.17576376454325623,-0.8560481230746015
7.5546875,0.5283249454554702,0.8747901110355691
7.55859375,1.4144496035489997,-1.254437406008252
7.5625,1.2110511883859485,0.3588066094222495
7.56640625,0.9741520179510441,0.6704641199368312
7.5703125,-0.07244255011966123,-0.4612679463839759
7.57421875,-0.01605453091705536,0.09536556606157574
7.578125,1.0518367708359873,0.4090133131251149
7.58203125,0.036461088862454166,0.05875753655868526
7.5859375,-1.419792280557702,-0.45291797200621287
7.58984375,-0.5885510612022282,-1.2298313258026956
7.59375,0.32887088673950127,-0.7842764415855565
7.59765625,-1.032309450888757,0.9407654292949547
7.6015625,0.6311016605099042,-0.192059541123208
7.60546875,1.668427979225278,-1.436515264831001
7.609375,-0.8330956248391929,-0.7466584763091423
7.61328125,1.5403868874349584,-1.1914998136205317
7.6171875,-0.11358529279249685,-0.41453132834742606
7.62109375,1.7800348896783424,-0.391907228506629
7.625,-0.862804907012743,0.5716772730100474
7.62890625,0.29035472477969887,0.7504077171006655
7.6328125,1.4455294860781838,-1.164010599969758
7.63671875,0.7428154117295728,-0.28302931975781925
7.640625,1.0737932482298305,-0.1266376604518189
7.64453125,-1.5079347315084668,-1.4558216668721609
7.6484375,-0.1468722817850107,-0.9273676167954701
7.65234375,0.1762049277710092,0.08436829138181055
7.65625,-1.897427254553882,-0.7651838000484668
7.66015625,-1.1461870784098849,-1.4144025345653868
7.6640625,1.3519510444771368,0.6515692216341021
7.66796875,-1.1436133880197534,-1.7673172242862794
7.671875,0.8998569409765044,1.174942137518371
7.67578125,0.4017705125417734,0.14955130547043333
7.6796875,-0.5107287737719703,-0.21633238148248923
7.68359375,1.3881656171306254,0.6501828325459373
7.6875,-0.8164733315182413,-0.33352439550232565
7.69140625,-0.30575451535345627,0.14802169364636245
7.6953125,0.9406296099332526,-0.3800024879556094
7.69921875,-0.783343548769966,0.4914014821972612
7.703125,-0.8198015463712318,2.427910755150859
7.70703125,1.2500242562242736,-1.2530043646225162
7.7109375,-0.8461583227955515,-0.5715771193278729
7.71484375,1.5626252921696837,-1.1887816155806543
7.71875,0.6447464342696274,0.37631884817718547
7.72265625,-0.6603409436024374,0.7189059686380791
7.7265625,0.046272024325940214,0.019931150731232392
7.73046875,-0.6515475260711702,0.3723389232748878
7.734375,-1.5233378444251529,1.9079710968580814
7.73828125,-0.34447221019062274,-0.7272461880309207
7.7421875,-0.4132627676321202,-0.14907659442672522
7.74609375,-1.6106943189321283,1.3133928035606965
7.75,-1.617408577165308,-0.672894747308406
7.75390625,0.4861154421960818,-0.8142104052438279
7.7578125,0.8089365833067578,0.04670789132008633
7.76171875,-0.021168758552886923,0.32778231376384137
7.765625,-0.6414448726632933,0.668717896153275
7.76953125,0.9425540429407879,1.1327056399637334
7.7734375,1.2323486390925722,-0.846078298330023
7.77734375,-0.0297691552271753,0.7212309495450808
7.78125,1.0519541209156515,1.6781469559467972
7.78515625,-1.2174096386461477,0.2978575950160299
7.7890625,0.49543042349090505,0.7747081634455042
7.79296875,-1.7608708883319275,-0.2576697198345409
7.796875,-0.19768114843766454,-0.5979626492489026
7.80078125,3.6972751520178186,1.0131192035766579
7.8046875,-1.1900334872588207,0.6107003330448688
7.80859375,1.4435713235465772,-0.5004746340230467
7.8125,1.6036311696212184,1.185090294197156
7.81640625,1.2210813363429043,-0.8718487756080125
7.8203125,0.5941507061349437,0.016977060666591222
7.82421875,1.0528752232904692,1.5312151281828406
7.828125,0.44619320499295206,0.24863150342608567
7.83203125,0.01397793030931052,0.4591104872468313
7.8359375,0.4671655396915913,-0.6616749001665673
7.83984375,-1.0332310367947484,0.12341315928837986
7.84375,-0.524205488771071,-0.5194002967784571
7.84765625,0.37535218939469867,-0.9308948532057648
7.8515625,1.2507300915335333,-0.7667572621559527
7.85546875,-1.5042671110883783,0.3786728248986146
7.859375,1.888469797086224,1.6013307682432936
7.86328125,1.6747087299567338,-0.3404686865880148
7.8671875,0.33104446050497566,0.095720567630259
7.87109375,-0.5856712024490408,-3.1920604682255624
7.875,-1.5124323698957942,-0.6005392529808006
7.87890625,1.8286628111037513,0.44899461842197297
7.8828125,0.5829280143629916,1.2418167068782715
7.88671875,-0.0700116227703506,-0.2058186318057621
7.890625,1.077202868805814,0.44780057290613473
7.89453125,0.7849356670973335,1.5618364846616724
7.8984375,1.1655380197848366,-0.088116721784342
7.90234375,1.0885937388331728,1.2639628849094136
7.90625,-0.552646289450667,0.12185264134273785
7.91015625,0.22074520387576596,1.892817148962474
7.9140625,1.044195337430287,0.3462674881530203
7.91796875,-0.021251306414679053,0.4204891336217176
7.921875,-1.0365404318447697,1.5484856648741054
7.92578125,1.505628252952717,-0.7165031437340691
7.9296875,-1.6010999307160079,0.39302836367200056
7.93359375,0.9342926004395149,0.038803341233467945
7.9375,-0.9128136864837582,-0.7231574068840351
7.94140625,0.043701399151784774,-0.607728485867445
7.9453125,-0.7395284401480395,1.3416803022417112
7.94921875,-1.1520087986418415,0.33930692435573084
7.953125,-0.8427302674858146,-1.515600595299956
7.95703125,-0.6024900729194781,-0.5885097673201832
7.9609375,-0.4447691372991078,0.8417573880844667
7.96484375,-0.166861994747699,1.2583114502819155
7.96875,-0.5038697835237359,-1.5499682373187496
7.97265625,0.904599438077963,-0.20185561742798408
7.9765625,1.8594936515027185,0.2697631491991028
7.98046875,0.0353217063013656,2.173236514180186
7.984375,-0.61543470022238,-1.356219463696158
7.98828125,-0.2476380668291969,-2.0228876714773407
7.9921875,-1.4756057399100397,0.9658544081915306
7.99609375,-0.2019531853494222,-0.5789329330315917
8.0,1.1225653903949389,0.10685269300646787
8.00390625,-0.13851549935064675,1.1349995704998628
8.0078125,-0.49271391103476153,0.8338117016561526
8.01171875,-1.7707615082813681,-2.1614995936179375
8.015625,0.7313929522203808,0.22195041707135996
8.01953125,-0.8342774538106634,0.9769009201543554
8.0234375,-0.4815735161556591,-0.5999596737145718
8.02734375,-0.5077687822982322,0.32612373767190095
8.03125,1.8210655408245338,-3.0335898573299236
8.03515625,0.0034526431771432615,0.958143947782909
8.0390625,0.08065208033248356,1.0080745884757458
8.04296875,0.9229359287293,-1.1480062727821903
8.046875,0.6229342391090796,1.498933895701365
8.05078125,-0.20646502454698626,-0.6505875807401729
8.0546875,0.19467434983208018,1.6795938344298307
8.05859375,-0.8018865605654826,1.8043000041088428
8.0625,-0.2700279699791199,0.31630419740147
8.06640625,0.3552880669156505,1.4903301868171728
8.0703125,0.551030265889737,0.4534242495193871
8.07421875,0.07836681090119935,-1.7126626770614441
8.078125,0.13989990351537032,1.570335011721231
8.08203125,0.8656492887823758,1.39105059309008
8.0859375,-0.45457280569661457,-0.7979486617048828
8.08984375,-0.6534426494615505,-0.7885131563328079
8.09375,0.4068406732430049,-0.7253104661844555
8.09765625,0.2501090154850305,-0.905309495490354
8.1015625,-0.36047470394428316,-0.8065792148471771
8.10546875,2.368958165171103,-0.3100806523281567
8.109375,0.41945492968218623,1.6596875182411515
8.11328125,-0.6234819241848681,0.6007077811915713
8.1171875,-1.4237345335869085,-0.07432878115692232
8.12109375,-2.468015602171479,-0.22984157722929072
8.125,-0.06164377709143416,0.23726151420723282
8.12890625,3.582551413096843,-0.4167816363205149
8.1328125,-0.0308742277482602,0.9752397034244563
8.13671875,0.2842911675594758,-0.5763445420836825
8.140625,-0.4532887512691066,0.33112120487809377
8.14453125,-0.8240002134013855,0.054254864906850976
8.1484375,-0.32846213852903794,-0.007785191193335953
8.15234375,1.3043368484893867,-0.9238131049544055
8.15625,-1.038487707444369,-0.6756349281835401
8.16015625,-1.0311695447378382,-1.261144770085367
8.1640625,-0.20637097089246992,0.7216456589638266
8.16796875,-1.1737961392082572,0.21908844443125253
8.171875,-0.7912256749299916,0.8891908365105764
8.17578125,0.5438281732737021,-0.4408287958192821
8.1796875,0.0008832342899337072,-0.4606253537921867
8.18359375,1.691131936900212,1.0125441146855043
8.1875,-1.1511664245671462,2.0225897911354216
8.19140625,-0.048628340618843094,-0.5116327435946285
8.1953125,-0.6986368829306709,0.22309871322337652
8.19921875,1.1025623337562633,-0.19353857367264532
8.203125,0.6221004909696842,-1.1897094860493098
8.20703125,2.1438126407257108,0.41513314193237894
8.2109375,-1.284085689710326,-0.8935576492116742
8.21484375,-0.5788123284160493,-1.1173904559501553
8.21875,0.008176574064800553,-0.3917482102034374
8.22265625,1.206716536311127,-0.4301091516158778
8.2265625,-0.21473640097755978,-0.7082155939436097
8.23046875,0.340209051882977,0.1256793280775569
8.234375,0.21265488320870551,-0.6306177851261037
8.23828125,-0.897537954065864,-0.2615440706505424
8.2421875,2.0108276333158144,-0.34939298154712745
8.24609375,-1.2026065650663602,0.3323816697428608
8.25,-0.11061252998312919,-0.6483408750550931
8.25390625,1.0106583603603139,-0.1223485053654349
8.2578125,-0.9355039003549178,1.432936261484164
8.26171875,-0.28824413790798237,-0.463885388124259
8.265625,-0.31155441721014926,0.6210798921320665
8.26953125,-1.1453573988014667,0.9895740067231957
8.2734375,-0.08641154187948637,-1.221944439945664
8.27734375,0.27866446982348875,1.8137919221555294
8.28125,0.4148093145196451,1.088555071147457
8.28515625,0.8651347734030469,-1.273935388207473
8.2890625,0.5140685067474443,-1.5727674608851883
8.29296875,-0.6788574492577216,1.2383903163228867
8.296875,0.6872453403332327,1.6235270147287773
8.30078125,-1.1716795396299597,0.32927940637574266
8.3046875,0.7896677018721507,-0.43597689053229793
8.30859375,-1.687455040223048,0.337458869322166
8.3125,-0.7754986442078365,0.6962533039365627
8.31640625,0.705838964982863,-1.5292287896194499
8.3203125,0.33432732634122814,0.7902181585337954
8.32421875,0.5577905387131218,-0.8579487393282964
8.328125,-0.6960157487115488,-0.5551507860996509
8.33203125,-0.732656203197169,-0.734759117474169
8.3359375,1.0548701705574564,1.3863571521579543
8.33984375,-0.8397771568778193,0.7508821611488167
8.34375,1.285982403380843,-1.0846374780660766
8.34765625,-0.13357127542551686,-0.10599902951833064
8.3515625,-2.0299990729417394,-0.27677663431148064
8.35546875,-0.18378956573959085,1.254815891930598
8.359375,1.4408546961881272,1.2524465446857456
8.36328125,-0.24352856878500487,0.8973235533528792
8.3671875,1.1137208900038018,0.003167638162138856
8.37109375,-1.1153429909529609,-0.6316000388078016
8.375,-0.8950533546220334,0.9773203616167039
8.37890625,-0.6260195644906811,-0.12347809609629631
8.3828125,2.70735166757155,0.01882625537419874
8.38671875,-0.5700775167858498,2.2734710757415675
8.390625,-0.3623319531510615,-0.12008197009786395
8.39453125,-0.6534609452507969,1.4796270795668536
8.3984375,0.036061972360096,0.2157640435388957
8.40234375,0.3367816374007972,-0.6282226063875898
8.40625,-0.9273884059102916,0.4265767657297976
8.41015625,-2.135192189330967,2.0879047847730683
8.4140625,-1.0549908138674875,-0.11292335480496896
8.41796875,1.9102971114171972,0.5204716879811832
8.421875,0.2790583334685816,-0.11893661601078478
8.42578125,2.3805801076065163,-1.7589972652558512
8.4296875,0.6130523750675824,-1.8457751678355356
8.43359375,-1.9244418648292483,0.9397136056804593
8.4375,1.537332746077798,-0.017722021455917197
8.44140625,-0.7082702923975426,0.4471642785776441
8.4453125,1.7989088773153987,-0.3734499072883903
8.44921875,0.5761070751013584,0.3208874503743283
8.453125,1.1779866949868008,-1.2359171419251485
8.45703125,-1.2836483469511524,-0.3582926051068966
8.4609375,-0.10802890690340983,0.47677223954878994
8.46484375,1.7707092164748819,0.8887882504286261
8.46875,-0.9542100619711658,0.3043038502416809
8.47265625,1.0851392561145228,-0.4073878540391305
8.4765625,0.9347611490051128,0.5401447481236653
8.48046875,0.555993628384933,0.5472591446411488
8.484375,0.1879788288887961,-0.15684159361940653
8.48828125,-1.8899750667562853,1.4902910915174021
8.4921875,-1.0035847626798347,-1.2328974321048727
8.49609375,0.06942778522133938,0.253845519228456
8.5,0.46780783449292673,1.7236608810983407
8.50390625,0.5735988762382632,0.0055628789641861765
8.5078125,2.623835142649641,-0.7908749415831354
8.51171875,-0.6860768652319305,0.3294957724579345
8.515625,0.9692542937284859,-0.10270963625586921
8.51953125,-1.26736755324051,0.3254182043440422
8.5234375,-0.6661827965924184,0.9499554514294828
8.52734375,-1.1874210600152462,0.48419954201085047
8.53125,0.23924884130023874,-0.28459591591278377
8.53515625,-0.19949952549545263,-1.8399125129013612
8.5390625,0.24418088729299714,1.032799566744514
8.54296875,-2.1410015802023374,0.6577917162735409
8.546875,0.3586062029261929,0.5887937090101992
8.55078125,-0.561114476584397,-2.230306148924401
8.5546875,0.049977546057367775,-1.367045936114328
8.55859375,-1.1055901051835821,0.7634822861063559
8.5625,-0.11459091718045325,1.2004941177352229
8.56640625,-1.1402781589410653,1.8060624827916474
8.5703125,1.0992415468602599,1.6460371571671415
8.57421875,-0.38422653408975843,-1.2987874176536354
8.578125,1.0983037860755878,-0.036085929188971
8.58203125,1.2917488113675568,-0.025806313644365433
8.5859375,0.8964397184081132,-1.2484616098851817
8.58984375,-0.8695576722366591,1.4036137284702657
8.59375,-0.010605621707111273,0.6506575244444318
8.59765625,-1.5798953876012294,0.29538661255825654
8.6015625,-0.7289364117574054,-0.41311844070225884
8.60546875,-0.12234630053872889,0.8241587270310553
8.609375,-0.1584119067904354,-0.908624905606791
8.61328125,0.22819207941763361,-0.28443007423494504
8.6171875,0.786331313528096,-1.4119437807995503
8.62109375,-0.35385954521449364,0.7058811914338899
8.625,-0.12239870649044565,-0.011188471662214624
8.62890625,-0.6106890596111909,1.9620885117431999
8.6328125,-1.0034287660581935,-0.5246952013009629
8.63671875,0.4346048175896458,-0.5113863114385818
8.640625,0.50116842704117,0.11628315987594019
8.64453125,0.3998570606649018,-2.286516951650053
8.6484375,-0.5727812837151399,1.0914737811998791
8.65234375,1.004892566522958,0.0790714406704929
8.65625,2.4895088694428718,-0.32003206093812003
8.66015625,0.22400960225116273,1.3247382016260785
8.6640625,-0.7613549435120783,-1.4396385492384256
8.66796875,0.8963603885329342,-0.20806602403643787
8.671875,0.7299441290301678,0.43234265078747874
8.67578125,0.29564697105419485,-0.04431969830290566
8.6796875,0.5821387216371446,0.7665671708617757
8.68359375,0.06243700476750763,0.6797256570876807
8.6875,-0.8303390411289969,-1.1131947903344297
8.69140625,0.5003632680318606,-0.39946375336394824
8.6953125,-1.5996845216272682,0.4864027180053117
8.69921875,1.8229294607784836,1.6127716598959
8.703125,0.2810363691834248,-0.5608712261975336
8.70703125,-1.020702412750912,-2.3893431170144814
8.7109375,0.05776340450167644,0.93994682866084
8.71484375,-0.6651005274501236,0.07127447368003693
8.71875,0.8186557541367239,-0.27853428567994515
8.72265625,-0.6640879858068138,-1.4167568688332115
8.7265625,0.17563533351347818,0.4774056558397728
8.73046875,0.8858685592821711,-0.5778330327163423
8.734375,-0.2516958375929703,1.4716509091779653
8.73828125,1.991028198814045,-0.5767447527578925
8.7421875,1.211867214817699,0.8600827208843318
8.74609375,-1.8756108636730893,-0.2238902937314989
8.75,0.053740686094429224,1.2404368373281716
8.75390625,0.9579416481374091,0.9595445526962684
8.7578125,0.9994782473823799,-1.758798361957675
8.76171875,-0.29139355255468896,-0.6890503960548244
8.765625,-0.09732953330014799,0.3262806519370858
8.76953125,-1.0710244402910776,0.12499296151944517
8.7734375,0.1747363044032637,0.0034038783743336135
8.77734375,0.31680692694681933,0.8264976566507867
8.78125,-1.2095057852216444,-1.136109964105664
8.78515625,0.905829420250231,-0.10209440864823427
8.7890625,2.1208524218661973,-0.17651361694450263
8.79296875,-0.15035785438585622,-1.6788307324427405
8.796875,0.28123054428277133,-0.5738999164351594
8.80078125,0.5753164310246849,0.12531913019528412
8.8046875,1.2027777887730624,0.8975173817272056
8.80859375,0.29050991295983075,-0.8142727170760049
8.8125,-0.7002743116206004,-1.1947193520113102
8.81640625,0.45583071413574666,-0.6829815168836112
8.8203125,-1.2703848620753835,-1.9872398589295603
8.82421875,-0.08395245386244798,0.4814291651444975
8.828125,0.411212058615099,-0.434976874147567
8.83203125,-1.2351541682003095,-0.3545047503314983
8.8359375,-0.2052494398903884,1.0486152116397833
8.83984375,-2.0983446249700175,-0.6392071538734944
8.84375,0.1276267415383078,-0.289053534114344
8.84765625,-0.347457132723213,2.467396831578378
8.8515625,-0.19685577607103558,0.6881185777105167
8.85546875,0.10595037129347354,1.1500661173582098
8.859375,-0.2988866068485195,0.33260494175845395
8.86328125,-0.14414078448769876,0.7926224411091677
8.8671875,-0.6534660440351985,1.922937767849038
8.87109375,3.0107835589146696,0.07136525768122677
8.875,-0.6116034979238384,-0.5987887877361604
8.87890625,-0.14707979261629794,0.61631866806274
8.8828125,-0.8067304983837522,-2.152846772897403
8.88671875,-0.5651726630031985,1.9405805684780626
8.890625,-0.17826406497593789,0.007533794049405523
8.89453125,-0.2687432278326032,1.3198237768519308
8.8984375,-0.17702860018711164,-1.9084898285947904
8.90234375,-0.13501846896925196,0.6177432981370271
8.90625,-0.24904625980375303,-0.2034145618579733
8.91015625,1.1381073577656033,0.7068714656349956
8.9140625,0.8759223943342521,1.4348813647242724
8.91796875,0.6284646710864346,0.8252397654316647
8.921875,-0.40283486125558393,1.4163439010920185
8.92578125,-0.055386496257223944,-1.4290419638661127
8.9296875,0.4927514482599532,0.5416739710143187
8.93359375,0.5923299230249851,-0.36173596076922065
8.9375,-0.388204151532447,0.44394276488136336
8.94140625,-0.4033141284155854,0.05940644989947859
8.9453125,-0.3524909919766262,-0.5610361806678431
8.94921875,-0.08773191799163195,-0.9386881813119632
8.953125,-1.3028495758262182,-0.6226806146529527
8.95703125,-1.296238175878323,1.2853512324340448
8.9609375,0.0935576302163774,0.4703034184235216
8.96484375,-1.8556770861686036,-0.255316268333427
8.96875,-0.5304472633138342,1.1165918960829235
8.97265625,0.5012972840605311,2.5202809165244577
8.9765625,0.9823975904974799,-1.3095173299245433
8.98046875,0.01782186957663313,0.7951536307495294
8.984375,-0.6285262316058287,0.8007635418187625
8.98828125,0.9241464273682678,0.5927236207039105
8.9921875,1.9385976838216528,0.8388534205375177
8.99609375,-1.0817382416467736,0.17756153037248856
9.0,-0.08646043286495532,-0.6576100026078806
9.00390625,1.2524421832793722,0.3678731449798256
9.0078125,0.2943828458944738,0.4303505324264324
9.01171875,-1.1775013296943961,-0.08385258077408421
9.015625,1.7033828643570998,1.2172509424098994
9.01953125,0.2159793474757595,-0.1347187321506959
9.0234375,-1.4208155736345678,-0.02441965351462174
9.02734375,0.25912989230745576,0.708438921257441
9.03125,0.5668911990636666,0.5805570957970667
9.03515625,-0.6499889491563816,0.5317882718311694
9.0390625,-1.1157163673916388,-1.169968364500949
9.04296875,0.10884347228764894,-0.005993460294243887
9.046875,1.271781422763509,0.42335045051140874
9.05078125,1.139571272026094,1.074360323308212
9.0546875,-1.220597539023403,-0.570398963349513
9.05859375,0.890332731065124,-1.878058660518501
9.0625,1.1771725835355913,-0.09844359643880471
9.06640625,1.3582607409453546,-0.44607151720318267
9.0703125,-0.2790600534067118,1.0259098110023932
9.07421875,0.3928484754645016,0.2650555515659239
9.078125,-0.9786407866275351,0.11967826876093746
9.08203125,-0.24723167156266315,0.24662953657062278
9.0859375,-0.36418096822841367,0.21483405953300408
9.08984375,-0.9608750816002558,1.1102921810491788
9.09375,0.932946333689625,-0.7066058686503027
9.09765625,-1.1141532587050103,-0.08904686923961358
9.1015625,0.22718336115389273,0.3722020689648568
9.10546875,-0.1095558324952402,0.9574925276072038
9.109375,0.11359846533715391,-0.6660013996568528
9.11328125,-0.9615857558900264,0.6063446553553363
9.1171875,-0.6934372920241185,0.5342121809943737
9.12109375,-0.04170980685504848,-0.06208325080380317
9.125,0.03913336492897046,-0.44317486372770315
9.12890625,-1.5299077399923353,0.46793209020097326
9.1328125,0.27057897842014167,0.3097527477887334
9.13671875,0.9570753264872867,-0.1927040630876579
9.140625,-0.4058500857393184,0.9421668824243666
9.14453125,0.33408452509953496,0.677198464331051
9.1484375,0.7484176807142842,2.0113751528036055
9.15234375,1.029983304887343,-0.5674801804296515
9.15625,-1.4897635014520088,-1.1916857869574033
9.16015625,-0.6486539174118798,-0.965878210753232
9.1640625,0.3884445110714616,0.39885114123559345
9.16796875,-1.212564329158436,-1.8479801580386592
9.171875,0.8772923873004687,0.6435773902226168
9.17578125,-1.5304483256807297,-0.261903365084511
9.1796875,-0.3963758167243982,-0.4476220507486166
9.18359375,0.545335620370306,-1.101688254586787
9.1875,-0.4506569134833521,1.6469263417983315
9.19140625,-0.903831237868198,0.8057981799730881
9.1953125,-0.9472924712396911,0.4109778609957817
9.19921875,-0.7144968796117623,-0.704023189293636
9.203125,-0.5627859759183604,-1.2161451432383172
9.20703125,0.879231152482179,0.15246163506805874
9.2109375,-0.773218895633292,0.28163066392107533
9.21484375,-0.11160134544992727,-1.1434932671184708
9.21875,-1.6247556740148397,-0.662424665755388
9.22265625,2.193500405494475,-1.3385491551077118
9.2265625,-1.3053021551945247,-0.939433553628761
9.23046875,0.6032626340545388,0.6781250237263965
9.234375,0.9805150733887309,0.023972589294811712
9.23828125,-1.2068180424512456,0.5198925868836926
9.2421875,0.5428405560920032,0.4027368031267376
9.24609375,2.2030498247557113,-0.7056009284657607
9.25,0.6400044904126825,1.2609951528937033
9.25390625,1.1132374586784997,-0.0400597408723101
9.2578125,1.8956951521303471,-0.5383843733579007
9.26171875,0.951741865387724,0.3861127436232434
9.265625,0.8938661455912491,-1.9409706240188709
9.26953125,1.0174519168180332,0.21069737115234463
9.2734375,0.17866089268744534,1.3830619677355829
9.27734375,-0.7052307388574865,-1.351327640613298
9.28125,-0.7422186097067929,0.1020120981786117
9.28515625,-0.8981557761551179,-0.4383543408831614
9.2890625,-0.21931398645067696,0.2819485518526677
9.29296875,-1.3879940094016292,-1.0085500987841738
9.296875,-0.3004652748359933,0.8081578135938975
9.30078125,0.015782387412742488,0.1923779651484006
9.3046875,-0.6168784066459702,-0.20823583439816487
9.30859375,-0.047590612551924504,0.5949044972992232
9.3125,0.4025642383616093,0.5897389680383683
9.31640625,1.2121294125607287,-0.9192647933010937
9.3203125,0.6056110597016652,-1.6583733908342275
9.32421875,0.5701073624182061,0.4733780775874966
9.328125,0.47968520273865584,-1.6021550510314284
9.33203125,-1.2603232571022778,0.9727733223059662
9.3359375,0.8853339760367809,-1.2126699803397074
9.33984375,-0.4334376681909238,-0.5361217575953849
9.34375,0.18851088941083918,0.2256315073320166
9.34765625,0.1409377775055468,-0.7032040123427648
9.3515625,-0.8441432565158105,1.3399650209957545
9.35546875,0.612515490214554,-0.24590747645349267
9.359375,0.27605834359027903,1.314175865046751
9.36328125,-0.31827306541313405,0.10847039290862921
9.3671875,1.3248910164943182,0.05469303204773542
9.37109375,0.7071433058400258,-1.614960803962585
9.375,-0.7372452528857193,0.1758891953576427
9.37890625,0.10932328417680373,-2.0312231127776554
9.3828125,-0.2968445324288371,2.0551172396278963
9.38671875,0.12669806870165273,-0.32421204374004886
9.390625,-0.3992086583056504,0.8498951952047423
9.39453125,-1.5015772616860117,-0.39081156318721444
9.3984375,0.17452998238630485,-0.17767316797496546
9.40234375,-0.13635598658203388,0.0362307357724234
9.40625,-0.16562174192355633,1.4521707974948443
9.41015625,0.42092665618805347,-0.7383908872970657
9.4140625,0.01959984402838884,1.4824928289748485
9.41796875,-0.10338784922322312,-0.40668484174740643
9.421875,1.6217898627980356,-1.0329670883261313
9.42578125,-0.6145708869404811,-2.3780237782181253
9.4296875,1.4836256779421022,-0.16091204683259028
9.43359375,0.5954316331250877,-1.0491541814096674
9.4375,0.9102441743665208,0.042599240381783816
9.44140625,1.1999723624211507,0.20904571219608953
9.4453125,0.13079247499574492,0.7282262578778608
9.44921875,-1.4850242580075106,-1.8264516997329578
9.453125,0.18028146703805026,0.31975092021124374
9.45703125,0.026813838807189107,-0.45705537607598457
9.4609375,-0.3358730959728867,1.0540679106209283
9.46484375,-0.7445093879002743,-0.11835951688960104
9.46875,1.0434283708934835,1.2297979659861726
9.47265625,-0.060147244069926005,-0.2046887942563181
9.4765625,0.5341003480047696,-1.020916535240299
9.48046875,0.30578701838659317,0.028770699489805224
9.484375,-1.352227661554795,0.4664703520379878
9.48828125,0.9394454083361101,-1.5320084852039921
9.4921875,-0.4182268838324251,-1.372888235957582
9.49609375,0.11555632869842213,-1.5734160042199918
9.5,0.0500980668427024,0.7799364549429629
9.50390625,-0.9225217325522259,-0.9706287456362273
