time,ecg,ppg
0.0,-0.8994460573170749,-0.08934718120225074
0.00390625,1.5931492935133085,0.637443827006241
0.0078125,-0.5363077291521557,-0.1296346583218365
0.01171875,-1.643052596840392,0.08709977338862769
0.015625,0.4854671414125047,-0.18084082857587908
0.01953125,0.9028867948914663,-0.7933199900919767
0.0234375,0.6691957251940747,-0.6303740984208035
0.02734375,0.13713120111516272,-0.18488205958572412
0.03125,0.15956002969565383,0.14802984988862325
0.03515625,-0.25110110641257244,1.8950103242351617
0.0390625,1.1173969194163886,-0.7647349105317511
0.04296875,-1.0606059210238505,1.4119970472819896
0.046875,1.121271832181967,-1.0739244107528252
0.05078125,-1.275575010023077,0.782235025815915
0.0546875,1.8484994760550981,-1.130092080482002
0.05859375,-0.5134340387950059,-0.14335900842100402
0.0625,0.8100298432661632,1.5084851106920103
0.06640625,0.6735675312290403,-0.30990676386998867
0.0703125,1.0141563596010852,0.24157847584684747
0.07421875,0.2679280132948282,-0.5575098066420614
0.078125,1.495654752946163,0.42979600152512115
0.08203125,-0.19148863017421594,-0.4163308578323043
0.0859375,-0.20165764447640158,-0.8909002424218291
0.08984375,1.1905496799350845,-0.7347939814447917
0.09375,0.14989646793701766,-0.8352717846720312
0.09765625,1.0754896334181867,-0.91440956521363
0.1015625,-0.5664626241844946,0.28863086515086833
0.10546875,1.1059105142904226,-0.5947829229599295
0.109375,-0.7727874146566602,-0.44671824402437527
0.11328125,-0.7131217649890356,-0.2594011366494764
0.1171875,0.06613834461371178,1.10186410421472
0.12109375,-0.48095148768084245,-0.6933992191746258
0.125,0.06400471175420355,-0.36208627401911464
0.12890625,-0.6638485356930539,-1.532702169019656
0.1328125,-0.5505226160789743,0.49215006723599547
0.13671875,0.190079726022848,-1.0447378582078743
0.140625,-0.6717701504818123,1.1123346320690606
0.14453125,-1.061989648812347,0.7247958444494169
0.1484375,-2.4457371895141504,0.6033312110078529
0.15234375,0.12031492046087373,1.4921349286945398
0.15625,-0.45558849040987776,0.5625911751937724
0.16015625,0.5080366939018244,1.1319598799357278
0.1640625,0.20555746774384687,0.36751005598144176
0.16796875,-0.07199278732343785,-0.6778403436862558
0.171875,-1.035942739611134,-0.6687668155559103
0.17578125,-0.1966088283049208,-0.3280756520772024
0.1796875,-0.0820414385368128,0.7346133332399747
0.18359375,-0.4863614328261505,1.0161901021779673
0.1875,0.8388313129230295,-0.47226704428092015
0.19140625,1.8676354808078166,0.44192122799807354
0.1953125,-2.4576626831325825,0.3896500589332445
0.19921875,-0.4384948723146309,-0.04343751281946833
0.203125,-0.1671946407734578,0.07209516032403991
0.20703125,1.2846121005512654,-1.5091991324952985
0.2109375,-0.13773630763951997,1.4000429142512114
0.21484375,-0.04379898715189446,-0.11209232715057614
0.21875,-0.9079502468512154,-0.20814657759145436
0.22265625,-0.4106587504822787,-1.128457433801921
0.2265625,-0.56206698286005,0.6050082671176888
0.23046875,1.1897091951684078,-2.9106603505127913
0.234375,0.956049048932637,0.4974052439826879
0.23828125,-1.288468537589785,-0.04926446790034916
0.2421875,0.3316705630401469,0.7246571294860192
0.24609375,1.2662243689875212,3.1712200402717867
0.25,-0.4421778278709033,-2.887895275337065
0.25390625,0.1266665585790834,-0.053190256832616106
0.2578125,-0.32765700553875726,-0.08761903099640465
0.26171875,1.1342110786688968,0.3983460906662382
0.265625,-1.5920296806314052,1.246073205271397
0.26953125,-0.10925404270974515,-1.3578388160460513
0.2734375,-1.7710207868177867,0.3698604464627899
0.27734375,-1.4857632038593171,-0.060423532547183946
0.28125,-0.24652996673228314,-0.8299340980685901
0.28515625,0.6916562030192164,-1.1540056113029236
0.2890625,1.276588705100918,-1.7510606354966587
0.29296875,0.05521016985149164,0.29740697468393923
0.296875,-0.5352173771177509,0.8493191567483461
0.30078125,0.9032211812020924,1.3840437783286448
0.3046875,-1.3136465693274935,0.10761367658952688
0.30859375,0.530537601258701,-0.7958106265313735
0.3125,-0.15694593364311812,0.7327365352716242
0.31640625,-1.0305563298912839,2.357312975143342
0.3203125,0.42547170458832595,-0.47317231669881954
0.32421875,-0.7475859842375637,1.630454749924169
0.328125,0.9259933268400232,-1.3997928020165697
0.33203125,-0.18935577858476826,-0.3096126876121988
0.3359375,0.5989546082710855,1.885254893784898
0.33984375,0.4101262754062833,-0.5694881459009935
0.34375,0.1790262764682931,-0.6283715068876049
0.34765625,-1.009443260121443,-1.2242861051200344
0.3515625,-0.9463032214505933,1.8667144968952205
0.35546875,0.5375817126957846,-0.7819381473430504
0.359375,2.1351835138362865,-0.4724349217540927
0.36328125,-0.8520068121939801,-1.045151939207824
0.3671875,2.0244378342184626,0.8901575548103011
0.37109375,-0.1408227257543983,-0.4529603213223325
0.375,1.6783303525470057,-1.1955454024639365
0.37890625,-0.15069248415391404,-0.2865920073450419
0.3828125,-0.22729924928228631,1.946991144272065
0.38671875,1.6227482504669881,0.35182304501610845
0.390625,-0.8898745269144642,0.8778307591418043
0.39453125,1.230198794578988,1.1051777658752084
0.3984375,0.6447780234369273,-0.031232447177543546
0.40234375,0.996829746197372,0.9601907774988732
0.40625,-0.43491600445303596,-1.788948596270734
0.41015625,-0.6881414994770029,-0.7858054943547892
0.4140625,-0.8422745697795937,0.1392960773624133
0.41796875,0.7361504705379855,0.16465485804436003
0.421875,0.8721837795298721,-1.2119857642109235
0.42578125,-1.4970871628796862,-0.3248857035698687
0.4296875,-0.6876184834461715,1.467233181565575
0.43359375,-0.30870223572235145,-0.7662065613758151
0.4375,1.5471487250967426,0.46615020997530104
0.44140625,-0.6762120068672792,1.4676969672901388
0.4453125,-0.9436719093600423,0.5924276662337981
0.44921875,1.039802598780169,-0.714517993839516
0.453125,-1.844551647626969,-0.6864020387281172
0.45703125,0.05222484387782552,-1.0960223493577583
0.4609375,1.0171037341135518,-0.591138709148699
0.46484375,-0.9617202503942065,-0.7004661063371823
0.46875,-1.892411480711292,0.7874077871745647
0.47265625,-0.6714404775937501,-0.15278210740203557
0.4765625,0.7437907820685369,0.46704090515204444
0.48046875,-0.7771746887011293,0.6873267616681841
0.484375,-0.23275684781098113,-0.7520181233726092
0.48828125,-0.5116675549117343,0.5722169447592159
0.4921875,-1.2767465249872838,2.378693482616576
0.49609375,-0.5659299418392151,0.2524996679865682
0.5,-0.7056367819268584,-0.2879334159858737
0.50390625,0.9768974656399737,-0.727148242283056
0.5078125,-0.5801519169231549,0.13541549187878768
0.51171875,1.327921322834809,-0.24378206115093057
0.515625,-1.107442523046926,1.1988587026017647
0.51953125,-0.11373220553919629,1.497323305731098
0.5234375,0.6160037675573149,1.1601185297234888
0.52734375,-0.20968880341372195,-0.010350882799478264
0.53125,-0.7899244091739709,-0.5689082535273479
0.53515625,0.5716011288318605,-0.01672726002884751
0.5390625,0.2306884431270187,0.6079828072038358
0.54296875,-1.6859268006869792,0.7893465338214205
0.546875,1.2372453526855878,-0.08163198655700711
0.55078125,-1.7138538289684706,-1.287495803832596
0.5546875,1.5502910569072932,-0.2898682137088106
0.55859375,0.041052062676719625,-0.5498678175955583
0.5625,-0.12143025433648158,1.3156832799699705
0.56640625,-1.555041064159099,-2.0377047856375077
0.5703125,0.05316824407667339,0.3693573085975642
0.57421875,-0.15645884936396823,-3.181640787173083
0.578125,0.97477636200396,-0.6891384493027533
0.58203125,-0.3826088530314232,-1.5910933259347815
0.5859375,0.005136968579334732,0.9990885897211219
0.58984375,-0.18694412540580277,0.5726979267254652
0.59375,-2.519389870562776,-0.08962645844132401
0.59765625,0.30818539271972933,-0.7773587715932337
0.6015625,-1.3081374243932111,-2.3157356287332247
0.60546875,-1.3158161437745015,-0.01705189191137441
0.609375,-2.6473463145852763,-1.1617978479950226
0.61328125,1.0180121936887196,-2.101802609716074
0.6171875,-0.39010530888555406,1.9375404893101715
0.62109375,-1.4634160327345,-1.9609000319794403
0.625,-1.7095624851114277,0.34870043799541933
0.62890625,-0.8590848490123086,-1.4811037638354294
0.6328125,1.7537452024086642,0.12844568891342667
0.63671875,-0.5056050584151057,2.4133366882466563
0.640625,-0.2708557487984845,0.4388295877594585
0.64453125,1.2233643175375433,-1.0901795044782043
0.6484375,-0.9601403908341559,1.9441529180148807
0.65234375,1.4228564496758183,0.4337118294342794
0.65625,-1.395606235323915,0.5418178519959064
0.66015625,0.07608542138944807,-1.1078545346768738
0.6640625,-0.455566341215639,0.9676374366486205
0.66796875,-0.46623730820373027,0.8349726421771883
0.671875,-0.8045952212492993,-0.6387231840708603
0.67578125,-1.0004336309082105,-1.085978255703271
0.6796875,-1.078282065426623,0.07154726680973289
0.68359375,-0.30830993099703724,-0.6826127036574084
0.6875,1.8147797926540392,-0.4193674442913033
0.69140625,0.20729587725680715,0.17621498406788383
0.6953125,-0.7585618243398495,0.2340787506382855
0.69921875,0.5926399122413125,0.042618637422999234
0.703125,1.0953184500247832,-0.26225672377894754
0.70703125,0.6676197579201955,1.2005738469852454
0.7109375,-1.381352344744156,1.7679370574994229
0.71484375,-0.8384427112140186,-1.3371866960880627
0.71875,-1.2790108188363467,0.011144299576062307
0.72265625,0.8106244203370795,-0.3435409852004382
0.7265625,-1.4669884384210126,0.31827329255149844
0.73046875,0.346701206900033,0.7806467126419554
0.734375,1.2513218107646213,-0.14737569499991324
0.73828125,-0.6502530319119754,1.8685631296210572
0.7421875,0.8904954460506793,1.2206338555974272
0.74609375,0.5725680812755419,0.6000727737017539
0.75,0.7118897062355304,-0.9696500907653899
0.75390625,-0.870962036401023,-1.088016617527819
0.7578125,0.3322271552703155,-2.1566794291192575
0.76171875,-1.155477723816339,0.7521267847443864
0.765625,-1.363781283628943,-0.6114024317814918
0.76953125,0.06336454897032726,0.039305989554653316
0.7734375,-0.5743865010410151,-1.1983344514254508
0.77734375,1.243806908757942,-0.5016083153611176
0.78125,-1.0141625435726231,0.262018626354426
0.78515625,-0.35769330395934584,0.7635584663494117
0.7890625,0.5121252812913137,-1.8849227750640218
0.79296875,-0.7157040160343933,-0.7546732342074516
0.796875,-0.865354423356478,0.14516511826161482
0.80078125,-2.039339115281793,-0.9118602430325795
0.8046875,-0.8153663604929265,-1.0914740920925492
0.80859375,0.20409888527955716,-0.6267166284665897
0.8125,-0.6216921272253518,-0.11051865202224347
0.81640625,-0.47293429543268284,-0.6395913770740294
0.8203125,1.0573552212404709,0.5973980368517509
0.82421875,2.184013006316487,0.6206432091345423
0.828125,0.4833744689165855,0.3485301250083292
0.83203125,-1.1675939117871832,0.44914405853950123
0.8359375,1.0555718937072194,-0.4112607250178318
0.83984375,-1.277375286122643,1.0715443043126527
0.84375,1.5358113807139444,-0.020307275199188884
0.84765625,0.7015209364145643,0.9609002733932104
0.8515625,-1.1218418885923533,-0.4827278310873054
0.85546875,-0.9018917730426785,1.7788472073624944
0.859375,-0.2809947817308137,-0.49165948443547564
0.86328125,-0.13840475591243775,-0.36580735919231583
0.8671875,0.47722922786109273,-0.26573890146222345
0.87109375,-1.189952615622033,0.12216415248533125
0.875,-0.5259108180013281,1.6390271923124622
0.87890625,-1.561312871961666,-0.5675253573728066
0.8828125,-1.4551895474538408,1.1482605063639741
0.88671875,-0.7638261081382279,0.7306347862031682
0.890625,0.11904662039907296,-0.9450605287825311
0.89453125,0.25738364095069166,-0.5474240293747729
0.8984375,1.4542700787626388,-0.13334946014617935
0.90234375,0.7032146103873491,2.1078251058698965
0.90625,-0.334582932517978,-0.33363225043247763
0.91015625,0.06137292449792696,0.532470534725684
0.9140625,-1.7768004351860929,0.5848843426273039
0.91796875,1.1326663023844186,0.6542408467373672
0.921875,-0.39049043276230044,-1.9183789247063363
0.92578125,0.5997892541172918,-0.021479861377479547
0.9296875,-0.13375595325194292,-0.9435592264641665
0.93359375,-0.4114496335575796,1.4353386963601187
0.9375,0.4853505887547407,0.5027541467880049
0.94140625,-0.3410461201633099,-0.15035665858844827
0.9453125,-0.28077372718449956,0.1033230999865507
0.94921875,-0.3240694784110114,1.1177034671993489
0.953125,-0.8794293445078304,0.594095729937321
0.95703125,0.22138292485031852,-0.4402281980919183
0.9609375,-0.14565852046494387,-0.5347436359260753
0.96484375,-2.4291439218877633,0.7266665927927421
0.96875,-1.203981479394358,-0.5585418745892906
0.97265625,-0.3175104238404343,-2.031025993695614
0.9765625,0.10736844803085156,1.037950380248939
0.98046875,-1.831604458878202,0.5430319954180177
0.984375,-1.0831096002977465,-0.5282237471141175
0.98828125,0.3438021903080322,-0.2809763320861239
0.9921875,1.6738660227710498,-0.513533768370425
0.99609375,1.1729900559041553,-0.32386053583193364
1.0,-0.3817877926743578,-0.17004287555952755
1.00390625,0.7615591733206161,1.1651616785473229
1.0078125,1.6645289245825272,0.07700893077911647
1.01171875,-0.9504605660239046,-0.644316724477891
1.015625,-0.0452269052604847,0.7555376310433113
1.01953125,-0.6101055043650119,-0.30936323704468055
1.0234375,3.4060117704591493,-0.43578697051702864
1.02734375,0.3836796650929975,-1.5676639246900157
1.03125,1.4261159228125226,0.05805879189436384
1.03515625,-0.031804718589324474,-0.8634518906165477
1.0390625,0.28557655674625954,-2.1044574228675312
1.04296875,-0.924002753753078,-0.424590965910845
1.046875,0.04145850330934878,0.6652559654784073
1.05078125,0.9787390949724325,1.0616318313042348
1.0546875,-1.0320801553823418,0.19340011327704518
1.05859375,-1.1333479361556218,-0.4928089518718618
1.0625,-0.24038150053947857,-1.1379722292416041
1.06640625,0.9262671695510685,-0.3953469782882271
1.0703125,-1.8482897231296205,1.7296196592145432
1.07421875,-1.7831713355031513,0.09108452560916418
1.078125,1.9456271437725732,0.023309731652879796
1.08203125,0.7501849267246511,0.5645633772828624
1.0859375,-2.843467415784974,0.03819424925571205
1.08984375,-1.1802993416711,-1.2603498480087745
1.09375,0.5266519438142995,0.742249010116286
1.09765625,0.2803057065608777,-0.02780601333761634
1.1015625,0.27618939831038525,0.36220317950593023
1.10546875,-0.4498734392593559,1.879352943832176
1.109375,-0.4160724861932522,-1.1768228682931758
1.11328125,0.021473038692217006,0.10201359753835133
1.1171875,0.3078223998509475,0.8504851733509763
1.12109375,0.09283655187334981,0.10545755885035044
1.125,-0.06315571639874477,0.7433137801454461
1.12890625,-1.2425859800346228,0.07509042673978268
1.1328125,1.8182025687886194,0.4060756967748163
1.13671875,2.6103503352677895,0.6733114223549758
1.140625,0.21480859929897353,1.1687343716648335
1.14453125,0.05620179577388352,-0.7049450804818628
1.1484375,-2.073208891452387,-1.3283809687741848
1.15234375,-0.020219545489677363,-0.9493880031154858
1.15625,-0.3940014296929291,0.022518081329837437
1.16015625,1.0063956376982048,1.575367849497347
1.1640625,-0.01916966382484419,0.10808354151708582
1.16796875,-0.8472163694625622,-0.779610672788831
1.171875,0.30100330036774414,0.6205634992917533
1.17578125,-2.4733951355963306,-1.1483268707390863
1.1796875,1.1860745681036982,-0.5835688271362738
1.18359375,0.4198039765953246,-2.365352302716326
1.1875,0.4618590529610125,1.3698072016929717
1.19140625,0.6710811260300255,1.9631341179602912
1.1953125,-1.7048751313148518,-1.3327560628734534
1.19921875,0.46565305128042067,-0.6627102144316287
1.203125,-1.7163666697589879,1.2492298207905719
1.20703125,-0.1517381971427745,0.7144295398435118
1.2109375,-0.6903971113800143,0.84996600747189
1.21484375,-0.4241314507648288,0.5726537899746189
1.21875,-0.35183528353937216,0.6747152299883441
1.22265625,-0.04375894563129493,0.012336722726718551
1.2265625,-1.0988126671182512,-0.33047824427610684
1.23046875,0.5135300093317712,-0.4499017470702953
1.234375,-0.014737928209912977,-1.092486605963697
1.23828125,1.5104261055070258,0.6025262063186209
1.2421875,-1.4725021834120569,0.5290441403541715
1.24609375,0.7425140551861878,0.520473821718811
1.25,-0.5664354104312794,0.5152644072672574
1.25390625,-0.05468379350305375,0.4974889793764492
1.2578125,-2.0009342717298977,0.5763253422851259
1.26171875,-0.5389560024149574,0.9453412732139544
1.265625,0.28167784101729276,-1.644382523958041
1.26953125,-0.3969275700558413,1.2176719843878185
1.2734375,-0.30443657359265647,0.0617585453747438
1.27734375,0.7100888933781733,-2.2568060469121587
1.28125,0.26078866263336326,0.8854488729488753
1.28515625,1.0892099316951995,-0.34049099996168963
1.2890625,0.4230320987556117,1.3108947379247748
1.29296875,-0.22359098811716085,0.27017648580165826
1.296875,-0.8042505623640952,0.1660040251481435
1.30078125,0.7220470781472867,-0.264435504366267
1.3046875,0.49017274998166765,0.06882441250369846
1.30859375,-1.1638826644527906,-0.45882463445811916
1.3125,-0.8391047883869984,0.46722881121684684
1.31640625,-1.0376026674570382,1.0408810933164971
1.3203125,0.8460268801491881,-1.4224384097838112
1.32421875,0.7843486936268674,-0.25199008133616163
1.328125,0.3393054314700673,0.4868271662852251
1.33203125,-0.8658090329722049,-0.848365628050143
1.3359375,1.7413567408941875,1.1069387549859502
1.33984375,-1.077572769952657,0.31621925627849334
1.34375,0.7291153057507914,-0.010335297305711979
1.34765625,0.07709471002573763,0.6218521001076428
1.3515625,-0.11542664384162579,-0.39086551911906836
1.35546875,-0.9725503224162062,0.5548690569146859
1.359375,0.34109339224198365,-0.8204842597537569
1.36328125,-0.12441103584129364,-0.06086261871986937
1.3671875,-0.66949582052737,1.2743888262434777
1.37109375,2.084866782230455,0.34132940202266693
1.375,1.1642085927682728,-1.5485375158006662
1.37890625,0.40922881072419365,-0.1338385688520286
1.3828125,-1.380168316944301,1.1566268258445729
1.38671875,0.5052450934458187,0.9880028685843676
1.390625,1.2730006862751218,-0.38137605470886665
1.39453125,0.38270607655544153,0.10806900053304605
1.3984375,0.48402463669996404,0.63569273624496
1.40234375,-2.4434426703964345,0.3205016129353629
1.40625,1.152560268503229,0.24388045983861015
1.41015625,0.3349340708347112,-0.29533558053708114
1.4140625,0.4292348831651499,0.3200710003193134
1.41796875,-2.2273513181580618,-1.5612298884690285
1.421875,-0.7023366157946511,0.2624504516940022
1.42578125,-1.5556227678800965,-0.5165645980933447
1.4296875,-1.552346035739456,-0.5537568037548389
1.43359375,-0.5051156296042213,-1.0269374056006626
1.4375,-0.660638541551656,0.09079618798895063
1.44140625,-0.09157508608351042,1.306097928348021
1.4453125,-0.16761753627584952,0.2901076303256728
1.44921875,-0.23504412742134986,-0.6858313493290056
1.453125,-2.415434017613376,-0.23474846315421682
1.45703125,-0.10950988596778079,1.6479336163792184
1.4609375,-0.340170499573524,-0.18443546834563534
1.46484375,0.8447275172068119,-1.537551573417645
1.46875,0.11803186717897274,-0.4571309406528073
1.47265625,-0.5145143451123373,0.9404870285608001
1.4765625,-1.4256727427545561,1.5013934677722425
1.48046875,-0.4328580671180561,0.2505142346832457
1.484375,0.40473785019813746,1.1082141816356408
1.48828125,1.7361574750390145,1.6433531280100928
1.4921875,2.424845953664917,-0.37377856027974676
1.49609375,0.6547147473960313,0.15049029735415004
1.5,0.2382848773670276,2.3284331317094065
1.50390625,-0.7842791300019941,-1.0866918706679591
1.5078125,0.5980383197309171,0.27676956950974163
1.51171875,0.16484818916343716,0.7056895221132904
1.515625,-1.496202930366381,-0.0897930843359626
1.51953125,-0.6152846573461153,1.716699591749081
1.5234375,-0.9262719210466809,-1.104942567354415
1.52734375,-0.3172549414040414,-0.7029151313603712
1.53125,-0.048247023345927564,-1.2553582604569913
1.53515625,-1.798665190128793,2.000949870223429
1.5390625,0.6180415769843114,0.8011415450420581
1.54296875,-0.027014717959422004,-0.5536258231085215
1.546875,-0.9571358573713672,-1.1592079943612184
1.55078125,1.0949434655804648,-0.23681482899936954
1.5546875,1.9200581287513803,-0.8388798732009686
1.55859375,1.3167018470212513,-0.6865378109838061
1.5625,0.3501478888972902,0.08967110095953551
1.56640625,-0.34738669826084123,-0.2734686598234115
1.5703125,-0.37138082833118435,1.2977668228958736
1.57421875,-0.4249966836602904,0.6710739202287507
1.578125,-0.5823025974999573,-0.23012130857696295
1.58203125,2.2984699851095303,-1.5001998807234562
1.5859375,1.0598616585568004,-0.9411117084886041
1.58984375,1.5708760441385636,-0.08966114146191496
1.59375,-1.7638789854459092,0.9718596126191743
1.59765625,-0.13547172997886867,-0.206978727291967
1.6015625,0.04272205229218099,1.240941357440392
1.60546875,0.29425020901195414,0.656681919893828
1.609375,0.7646372006046311,1.63510643978458
1.61328125,0.40123415901165527,-1.0940864847075493
1.6171875,1.2875489920184875,-0.19629732272093142
1.62109375,-1.5026525131256125,-1.8239286161153145
1.625,0.6589086138418384,1.3275440725639036
1.62890625,1.1775010856405104,-1.0889548388916175
1.6328125,-0.010385044900781206,0.013527152359503193
1.63671875,0.49475613192277157,0.9472218602356253
1.640625,1.285633377445661,0.4615703346925806
1.64453125,-0.41250953638202686,-0.26161687225312524
1.6484375,-0.8570482828519254,-0.13285860102214841
1.65234375,1.7312940485250812,-0.7882380008025318
1.65625,-0.4564066904739154,-2.2775007833028043
1.66015625,-0.5571280867349788,-0.5476309080566832
1.6640625,-1.0797918164807043,-0.05716080671980115
1.66796875,-0.354748941359831,0.46167955630078966
1.671875,-1.3503153779911878,1.0212279710602727
1.67578125,-2.060738044855053,-0.0077303397118899065
1.6796875,0.47177455965472886,-0.8730781829429743
1.68359375,1.3531459414814038,-0.17795069002847358
1.6875,-0.02801213344329474,1.7106210427140394
1.69140625,-1.852635986943839,0.625838148629788
1.6953125,0.24153730079456354,-1.1594055282581557
1.69921875,1.0101974673638112,0.7790164726846946
1.703125,-0.2894116004467848,0.25247858152362457
1.70703125,-0.7791225847406309,1.0515932644717882
1.7109375,-0.9908338645426171,-1.349414685216795
1.71484375,-1.1087255914893033,-0.8577552063096034
1.71875,-0.21212406353877125,0.4251231076501043
1.72265625,1.269072138796616,-0.4967781788208406
1.7265625,1.3145571604303736,-1.2580978589807021
1.73046875,0.2836710057657428,0.1326595701819134
1.734375,-0.21061723734992888,1.9187729362443733
1.73828125,-1.5621708773615435,-0.84276215295432
1.7421875,-0.47249773994001687,0.23193800194242356
1.74609375,-1.575416597877304,-0.3022719825583846
1.75,-0.38456857828873986,-3.0815156258534806
1.75390625,-0.09729504981633562,1.0813038531678076
1.7578125,-0.4100662286566334,-0.5598518834752182
1.76171875,0.15698488872818905,-0.29110873157997463
1.765625,-0.08531963458412091,-0.647810048466112
1.76953125,-1.9287462076997697,-0.17567612103874997
1.7734375,-0.2114005904488927,-0.28656167393430393
1.77734375,0.5809386028571507,0.43752415147113827
1.78125,0.49878435900192086,-1.095141933103583
1.78515625,-1.3196967367781913,2.132340047939031
1.7890625,0.669956636829546,0.47458155009135516
1.79296875,0.13131257348944872,-0.9637252568682945
1.796875,0.3068160200125626,0.8526477779974737
1.80078125,-0.8289429035423029,1.1982732040485722
1.8046875,-0.39804219210900044,0.9284532454421363
1.80859375,-0.711857772279333,-0.7642300513454671
1.8125,-1.6271565135762929,1.3824743635032164
1.81640625,-0.4459933782528888,0.058258703724804614
1.8203125,0.5159777160292908,-1.1825018605874935
1.82421875,-0.3916520490728644,-0.7072390089330741
1.828125,-0.788462427143633,0.32467134334085507
1.83203125,0.8963809230260762,-0.6618129052448479
1.8359375,-0.7400854250399655,-0.6153766191405822
1.83984375,-0.17533066790232724,0.4429482313449859
1.84375,-0.7996983571213764,-0.17367278763398308
1.84765625,0.757278816491399,-0.5001176799900503
1.8515625,-0.5572943999041795,-0.9284761161064801
1.85546875,1.0813405261643023,0.8435223273490047
1.859375,-1.8828933595671307,-1.9473611341529444
1.86328125,0.23819408607937376,-0.3722046397932288
1.8671875,-0.37742883494943497,1.0110668499902873
1.87109375,0.8055278638229927,0.2674337985872938
1.875,0.8130968544201826,-1.2853575927417658
1.87890625,-0.2832995802748651,0.5760558463720116
1.8828125,-0.6272002297694332,-0.15137067455700354
1.88671875,-0.6816837611850649,-0.34119839872372126
1.890625,-1.5948250205645549,-0.22457789617327023
1.89453125,-0.24474681446097762,-1.1871719359302586
1.8984375,0.8356619597116777,-0.06797002199249848
1.90234375,-0.01631578632532925,-1.3625558852688437
1.90625,1.227881571756891,-0.8365412905263439
1.91015625,-0.4860269760271856,-0.27114004271411957
1.9140625,0.9521908930603257,0.6808021231202476
1.91796875,-0.15497501174351203,-1.3113237173982175
1.921875,0.16536086745005688,-1.2572730879884604
1.92578125,2.021594289951305,0.1585954330083644
1.9296875,1.0882943433761385,-0.4893417247203804
1.93359375,0.08013756108602658,0.5429181095353919
1.9375,0.9200652607299094,1.6754489208632672
1.94140625,-0.5210734285567433,1.3328777393999764
1.9453125,-0.513486366670406,0.6868783293275109
1.94921875,0.41446423940757543,-0.37113909703516834
1.953125,1.959718650324771,1.4854775026908396
1.95703125,0.7132903736368539,-1.4345005286107169
1.9609375,-0.6902676910002836,-0.6010283764248048
1.96484375,-1.3520996098094975,-1.3908303340500394
1.96875,0.9470860881795804,2.291922742170394
1.97265625,-0.34698586175592633,0.5744320534368337
1.9765625,-1.1317585680832156,-2.0941286707833906
1.98046875,-0.20860306609582557,-0.46956911069069945
1.984375,0.1758132310267505,0.7217414546450005
1.98828125,0.08471345176017661,0.5752550568357477
1.9921875,0.33169421037902624,-0.679405262713284
1.99609375,0.42408333314395485,-0.6220697578600738
2.0,-0.33379172629387066,1.541569038289968
2.00390625,-1.5187060864865967,0.7085909069619697
2.0078125,-0.3609684336460704,-0.3446803663811435
2.01171875,0.47804001727009543,0.14561543468504676
2.015625,-0.2267982188029983,-0.30613675521104106
2.01953125,0.28441709899865847,-0.452058089146851
2.0234375,-0.39782576934101493,1.8153677554789047
2.02734375,0.008600736250446484,0.7517556065872066
2.03125,1.419855339159194,1.2762210849200029
2.03515625,-0.4178842778338602,0.5043025349201627
2.0390625,-0.908028917486257,0.17911015916106984
2.04296875,-1.6251487302764387,-0.5036574514449498
2.046875,1.3591625303387058,-0.04268668073500276
2.05078125,-0.9574620703382019,-0.37736778615805966
2.0546875,0.8991253068233822,0.6511737356686508
2.05859375,0.03894744754445788,-0.6748721872039667
2.0625,-2.562016279768308,2.1099991096359827
2.06640625,1.5541668266668764,1.0865463641021498
2.0703125,-0.25537404495667726,0.8040842824634237
2.07421875,-1.11122054434288,0.29522672912620124
2.078125,0.9323776592402467,1.3862032698820592
2.08203125,0.08095616735944719,2.032506873858546
2.0859375,-1.292780595333685,-1.377235686651768
2.08984375,1.6969465717305166,1.4901741450462187
2.09375,-0.9378284072099571,-0.23360551688155318
2.09765625,0.4555892926883362,-1.74983922285431
2.1015625,-0.394776617198046,-0.361458785855744
2.10546875,0.8187938767619491,0.15927209481163043
2.109375,0.8895934218760653,-0.21711038922071965
2.11328125,-0.6393054477996902,0.6042350858169248
2.1171875,-0.868586602037013,0.5728411893986004
2.12109375,-1.5008109567979036,-1.284605876811084
2.125,-0.8205670965649974,-0.5113337542334728
2.12890625,-0.6275047852557148,1.960094394739366
2.1328125,1.616285761335225,-1.0032167513745227
2.13671875,-0.4285257490056738,-0.3373608312252004
2.140625,-0.31961701582770075,0.22064603857415532
2.14453125,0.6720999746327339,-0.021789540779864634
2.1484375,-1.9272570864398253,1.6600394651100607
2.15234375,0.20482826365954668,0.3116312035731468
2.15625,-0.29914226305941427,0.022390104108907204
2.16015625,-0.8008666426670331,0.3002635465838766
2.1640625,1.0047500291305418,1.911882370051018
2.16796875,1.4207337598423804,-0.5017478744285735
2.171875,0.2595729919750025,0.3608641068392284
2.17578125,0.33649841827247395,0.6139909973647065
2.1796875,-0.2760577930991717,0.4856902550170787
2.18359375,-0.0006321713059696274,-1.1225233913553938
2.1875,0.2662917860583475,0.31368441748751213
2.19140625,-0.5085843726370161,1.6901856103472486
2.1953125,1.0346626102907697,0.6789346939974894
2.19921875,0.37616348622827667,1.7659400326468753
2.203125,-0.11565230784196347,0.6799710082490441
2.20703125,2.1556601841804537,1.0452035493613274
2.2109375,-1.6001231176472224,0.3836024175030912
2.21484375,-0.4448023531268433,-0.3035978408628668
2.21875,3.281927557935895,0.8398016869931149
2.22265625,1.4072244260705782,0.9046007335711168
2.2265625,-0.16269310982314247,1.0394770159219924
2.23046875,-1.133554044897541,-0.13751522256098075
2.234375,1.1774431520357438,-0.8566675356992454
2.23828125,0.03357555645934051,-1.1052853845148105
2.2421875,-0.3219661942565885,0.15957190393127763
2.24609375,-1.3979734898355776,1.0876478229066526
2.25,1.223767948864878,-1.442592679948061
2.25390625,-1.022658975514659,0.9974160303924141
2.2578125,-1.2213691513735474,-2.297391143841502
2.26171875,0.16733645271533806,-0.12016801407420041
2.265625,-0.40888152744267875,2.3723787595810775
2.26953125,-1.3456303428931409,-0.6096219751249868
2.2734375,0.8720769422474157,1.4403009977337158
2.27734375,-0.016727105910188746,0.7746034385661766
2.28125,-1.61664634130502,-0.5492441474793033
2.28515625,-0.17344083171149094,-0.4622958301112414
2.2890625,-0.3774247884195145,0.6318355626830559
2.29296875,-0.27895274210722876,-0.6446045376860609
2.296875,1.553335871577179,-0.11222021920597829
2.30078125,-0.044780387534451904,-0.30971911256393087
2.3046875,0.009289289576883245,0.2967154582770277
2.30859375,1.3930446950773023,1.8639076451466292
2.3125,-0.4311226123224969,1.0495990078215727
2.31640625,-1.3927786049217639,0.5932761384533121
2.3203125,-1.320656829698564,-0.3483929320816483
2.32421875,0.1515858257495313,-0.34845422971241974
2.328125,-1.2076019962313038,0.9205587972423481
2.33203125,-0.5955522579161341,-2.024413230196199
2.3359375,0.2004978339159702,1.7285225753600448
2.33984375,0.9647297823330427,-0.4183157088799168
2.34375,0.31096240404593095,-0.438613010211663
2.34765625,-1.4175690982485283,0.4212858805482241
2.3515625,0.7002394007709868,-0.2595023933342912
2.35546875,2.1237987843559445,1.7662625745803189
2.359375,-0.12634057080783134,1.403055359166004
2.36328125,0.7681704107271052,1.5962749961405984
2.3671875,0.6610455447314163,-1.0772531699925423
2.37109375,-0.17170260207969076,0.11989980976500351
2.375,1.2773958033423694,-0.8207713676003578
2.37890625,0.16060473318597276,-0.9622246321326045
2.3828125,-0.7314137200814799,-0.9874812550786529
2.38671875,0.8151035911481173,0.30455774935189556
2.390625,1.5773543213597583,-0.274511982230039
2.39453125,-0.2684214576012219,0.9041788503613639
2.3984375,-0.04047731199823488,-1.1294166582581602
2.40234375,1.1301827064714938,0.3057396052978045
2.40625,1.0035624310027897,-1.1047004337654738
2.41015625,1.670393456562375,-0.051993466914625336
2.4140625,1.633062672877279,-0.6720754303068721
2.41796875,-0.5987648848075956,-0.20332907508742346
2.421875,0.9974973773420691,-0.7639099018952685
2.42578125,1.3751967396589266,0.16347309916531338
2.4296875,0.029694625306245177,1.1152005080111589
2.43359375,0.8910491095075147,0.635260399737063
2.4375,-0.2648623930604545,-0.511521487792947
2.44140625,-0.004626739434606659,1.7071264626004548
2.4453125,-0.8262818491012166,-1.5332596765439102
2.44921875,1.4000016579403305,-1.601213962603296
2.453125,0.7585030480788731,0.3242636335715873
2.45703125,1.620246954727914,0.521075329074928
2.4609375,-0.3075032744702263,-0.5137714086193933
2.46484375,-0.9738308100990806,0.938431575382129
2.46875,-0.010972052025034677,-0.5583642053618465
2.47265625,0.5461566249394888,-0.9829082921520597
2.4765625,-1.2822567714411184,0.27614965325412444
2.48046875,0.12593085818225053,1.3108035530706745
2.484375,-0.20047331448460814,-0.5112676109737175
2.48828125,-0.34702572566376283,-1.4836224140250083
2.4921875,-0.18137516376259877,0.14632728056485164
2.49609375,-0.3047242936328299,-1.023952424034541
2.5,0.01476086344621438,-0.17830510107274017
2.50390625,-1.2811980862038876,-0.18175278548562768
2.5078125,1.6514004790193506,-1.9395017921297737
2.51171875,0.5417599994655486,-0.3738976194850577
2.515625,-0.09445351965173245,1.4646934728612946
2.51953125,0.4053473783099147,-0.8395665352783686
2.5234375,0.1803453359304082,0.8393430812725011
2.52734375,-0.5986940625863978,0.26505103340107433
2.53125,-0.7611973711215002,0.6447704631114962
2.53515625,0.7547946885239626,-0.9089771197602261
2.5390625,-0.620108307490316,-0.9390684650631849
2.54296875,-1.330607991295394,-2.047404535263951
2.546875,0.3798542123005506,-0.4290415028712245
2.55078125,-0.2336673638252476,-0.03498224257300019
2.5546875,0.8302330200914019,0.22740686849868952
2.55859375,-0.7226480172050865,0.6677726707263631
2.5625,-2.033201554399503,0.22972077162939727
2.56640625,0.35375306091098196,0.8631105357961663
2.5703125,0.460185020202043,-0.463238819793451
2.57421875,0.4037570097362541,-0.5661716665807099
2.578125,0.29318959224642743,2.2912599158256888
2.58203125,1.3740903423710653,-0.7323194088893948
2.5859375,0.7429277200954287,0.05522584895262386
2.58984375,-0.30499150353546295,-1.6290818016801778
2.59375,-1.545211559485003,-0.4243717888830469
2.59765625,-0.08661071791128372,-1.701683140854532
2.6015625,-1.0842307192279597,-0.33616958560617766
2.60546875,0.8876809254472563,-0.24385601838945423
2.609375,0.012262828720137127,-0.8062429700388811
2.61328125,0.500444505442489,-0.3037732514150787
2.6171875,-1.3018698820611676,-0.8915286215297187
2.62109375,-0.3374600388829791,-0.19738499286632433
2.625,-2.4578434998444543,1.5854427965423328
2.62890625,-0.16288989110083826,0.15517183579486626
2.6328125,-1.4915719445743194,0.5219748932797481
2.63671875,-0.9318177155029783,0.7570443516751664
2.640625,-0.8874942837091101,0.6441317868269506
2.64453125,-0.16304388855400692,-0.978295167952655
2.6484375,-1.3459668401760736,0.1700175601867013
2.65234375,-0.7990348409127269,1.474699184396093
2.65625,0.3261875307696924,-0.058483901853843674
2.66015625,-0.026520920267504144,-0.6593402228431102
2.6640625,0.8053067569580312,1.902758091443291
2.66796875,-0.4078246571033009,0.3431030606033988
2.671875,1.7574934126549866,1.5480743208598469
2.67578125,-1.3134871276531945,-0.6745971993374369
2.6796875,1.6918928335646621,0.8848790542578234
2.68359375,-0.03804723959202291,2.2404906029491767
2.6875,-0.7039791749738386,-0.5702598543071639
2.69140625,1.2057322528595753,-1.7291796950866645
2.6953125,0.12961375382599438,0.03779258872299031
2.69921875,0.8612480578094761,-0.22707137021242457
2.703125,1.099900249111757,-2.2837053479600717
2.70703125,1.0144177906380687,0.727013270201892
2.7109375,0.3921926302655412,0.42516549225604766
2.71484375,-1.2763916337205101,0.6925359134402495
2.71875,-0.6558813972196822,-0.28938858664147543
2.72265625,-0.17064377678746168,0.07364504721939485
2.7265625,0.88378007585495,0.24026621914534133
2.73046875,-0.24048396986131962,0.758741082967296
2.734375,-0.21238870147916966,-0.6420780151165144
2.73828125,-0.49817653879594326,-0.6406720712947369
2.7421875,-0.4458697042632759,-0.4454219496787247
2.74609375,1.1953624306578632,-0.3199127886752738
2.75,1.2163941664625393,0.08509611385934851
2.75390625,0.35629668032201417,-1.9043594760728846
2.7578125,2.0311169173106163,2.121428917471359
2.76171875,-0.006194766466503646,1.0755400433853375
2.765625,-2.209339628086572,0.7422947402549764
2.76953125,0.048618719798723474,1.7362935289306456
2.7734375,-0.6432824055421787,0.3950042711221459
2.77734375,0.4873448708103837,-0.7288241651802602
2.78125,-1.2928562368105114,1.2385910289409492
2.78515625,-0.6485580511787862,0.37235496991865813
2.7890625,-0.26768334570881147,1.7369374757455622
2.79296875,0.12510274380185962,0.838244183160094
2.796875,-0.7199931890865978,-0.09008264751461074
2.80078125,-0.38092620857581155,0.5534277749708228
2.8046875,1.5601429443111159,-1.847614991873905
2.80859375,0.7624615732400002,-0.7594580774587671
2.8125,0.7334221467773883,0.260855842124736
2.81640625,1.2760565801261883,0.4737249792692574
2.8203125,-0.28225805186705843,0.45031784547248543
2.82421875,-0.15544643672826913,1.0387245866624022
2.828125,1.1174066764923696,0.8699735068596948
2.83203125,-0.693304997198014,0.3660805285937944
2.8359375,0.5885444552771593,0.40721457187165605
2.83984375,0.8014154145203719,-1.4702008426525863
2.84375,0.5417175584109784,0.0068845117196496795
2.84765625,-0.27575945675316244,-0.38968148735608915
2.8515625,1.067519665149974,-0.04575885502651971
2.85546875,0.9715767240719031,-1.7067870093875803
2.859375,-0.14985605359547977,2.887484024406395
2.86328125,-0.2116092529836488,1.160362912616955
2.8671875,-0.5279973890924043,-0.45427726865083984
2.87109375,-1.3093298145726384,1.5841093350914315
2.875,-0.40198379593140554,-0.8620321217344361
2.87890625,-0.4634480218551084,0.08253809092494321
2.8828125,-1.1684804756008733,1.5014331670237728
2.88671875,0.6543327942352412,-0.6735392552721906
2.890625,-1.0821360909931566,0.6111723333801987
2.89453125,-0.9371240313975472,-0.0141755033008652
2.8984375,-0.24680833063456573,1.579360626618933
2.90234375,1.0785197886032902,-0.2915415956964268
2.90625,0.31380542024275415,2.6583629124469166
2.91015625,-0.3407992107513717,0.11265677532059033
2.9140625,0.5399573584494255,-0.12388788173759549
2.91796875,-0.0009786846838476524,0.8916941683460348
2.921875,0.48724696065721856,1.6639708885841706
2.92578125,-0.27510476730649414,-1.1585393673904045
2.9296875,-0.39819467664090447,0.7092935367958865
2.93359375,-0.23922886513595673,1.4965004854916641
2.9375,0.44753051594042126,-0.5700167172198427
2.94140625,1.116690964030778,-0.5537901223696172
2.9453125,0.2126929576496877,0.6241241387903446
2.94921875,0.2202856383505603,0.07354041431684295
2.953125,-1.5003908445410277,-0.09205860389133774
2.95703125,-0.6421658732590879,0.14942483840811546
2.9609375,0.5543624867568048,-1.087753053185135
2.96484375,0.35135299437932016,-1.6828261804248381
2.96875,0.16027985860628222,1.6882434426407835
2.97265625,-0.2782588891516294,-0.002560634986345344
2.9765625,-0.6801098500714036,-0.43805189132749656
2.98046875,2.053012787805482,-0.33754897802422024
2.984375,1.4732878326453147,-2.9354192991968935
2.98828125,1.0503855347027993,0.5138687480596088
2.9921875,0.8421670363197692,-1.0559346334963011
2.99609375,1.3347604748567066,0.1485074793827368
3.0,1.057672951831629,-1.1375153980170798
3.00390625,-0.6781625996992765,0.17282131446683052
3.0078125,-0.516317603918967,-0.5153314940174174
3.01171875,0.2281775101282786,0.5668069016036001
3.015625,-0.16002887323318885,-1.0039003471954706
3.01953125,-0.9918508374385235,-0.6887809766411528
3.0234375,-0.40766672223066075,-0.7951176599283847
3.02734375,0.11058927682592974,-0.8588676523702691
3.03125,-1.1366052427922235,-0.8089791927915171
3.03515625,1.6068553507429326,-0.2633431120737559
3.0390625,0.713677293689583,0.6211208398202026
3.04296875,2.4320835951431397,-0.06555939379534118
3.046875,-0.682530273422997,-0.9130193505771789
3.05078125,0.06795246253465399,0.15383100056094026
3.0546875,0.7949039415814362,0.6008991067430698
3.05859375,0.12920865148058153,0.49686762686115893
3.0625,1.0850394837983475,0.9580829832640773
3.06640625,-0.6604934103246076,0.8287614714736338
3.0703125,0.08563439258492422,0.9310547012932247
3.07421875,0.5380977504850142,-0.6512253366176545
3.078125,-0.19712506157837065,1.0651563013016712
3.08203125,-0.9322528722964295,0.32632559639956904
3.0859375,1.3108810127852517,0.9158513177925699
3.08984375,-0.4317372019958132,0.6679526164288234
3.09375,0.7656400462403273,-0.8578188226247674
3.09765625,1.1327310909581263,-0.2728438087428591
3.1015625,0.21386298269411327,-0.37175959585966417
3.10546875,1.1016166753983685,1.0573609789282563
3.109375,0.40856202947840137,0.32002439179355674
3.11328125,-1.711738167169835,0.02751799084490627
3.1171875,-0.6581277642339305,-0.044070232282163
3.12109375,-0.2773442784821277,0.2352759372748361
3.125,0.1620185173959404,-1.478965881900505
3.12890625,-1.0359392713878974,-0.6207049961779003
3.1328125,-1.5341284704992257,0.2772211295937347
3.13671875,-1.2434809286161814,0.7696595583199632
3.140625,0.9477539558999682,1.7129860749930292
3.14453125,-0.11789396342418831,0.8728032115503032
3.1484375,2.0886994689803635,0.19913178376444304
3.15234375,1.852629704371875,-0.23250576761434066
3.15625,0.5519198571070839,0.35848037705858576
3.16015625,-2.3454140727646258,0.32543072246162513
3.1640625,-0.7477819617801742,0.005343587803691476
3.16796875,-0.9105396574282283,0.05966284448195483
3.171875,-1.3732257069066016,-0.405177029413372
3.17578125,0.3015820251593161,-0.9344507025461203
3.1796875,0.38630554815374063,-0.39930736916660986
3.18359375,1.4115071397759018,0.12930411439397269
3.1875,0.5651475146322258,-1.4185456218743633
3.19140625,0.5547028083528978,1.4149742060628636
3.1953125,0.14544144911520474,-0.17350801366532967
3.19921875,0.08998324751371631,1.755750583209619
3.203125,0.16533820286568346,-0.1457326351532808
3.20703125,-0.7859050439702095,0.830847605388331
3.2109375,-3.1572468358595756,-0.4325657422294589
3.21484375,1.9784328641554452,-1.2062369619046254
3.21875,0.9701369809387679,-0.582619502306556
3.22265625,-0.6884030198905798,-0.40147934184488393
3.2265625,-0.6775750407644248,-2.6959976007713156
3.23046875,0.2984037813577537,-0.5997548754179017
3.234375,-0.861410376042293,-0.6249237313245466
3.23828125,-0.9825350785763567,1.9577742679481405
3.2421875,0.19947826195611387,2.3968535420960433
3.24609375,1.039749004784773,-0.9409229254815867
3.25,1.3239170654022039,-1.6783652016624817
3.25390625,0.28986646797698384,1.5527306723567038
3.2578125,0.03860647684014695,0.9306028023260886
3.26171875,-0.3116578280845363,0.14739773755591154
3.265625,-0.6460533829643529,-1.1032228200379897
3.26953125,-0.388330136994447,1.2955981374448502
3.2734375,-1.673571381257197,-1.2655978620606885
3.27734375,-2.595721735639005,-0.4630133266148018
3.28125,-1.0535292293441227,-1.7558800260397416
3.28515625,-0.856617189944795,1.435570809321636
3.2890625,0.9782818438259776,-1.4038054733930154
3.29296875,-0.87148040963058,0.0013276691278479025
3.296875,0.2455967709560685,-0.912230420663525
3.30078125,0.810086555143771,-0.5514630150121301
3.3046875,-0.7529938778386822,-0.009445824832607261
3.30859375,-0.5846771004093697,1.0913215627851534
3.3125,-0.572580896774006,-0.7937975568188398
3.31640625,-0.8707338549134521,-1.02585660717811
3.3203125,-0.1672391481736247,-0.21909177902440044
3.32421875,0.9679583428635804,1.071379866784621
3.328125,1.05233755490594,-0.548172443242565
3.33203125,1.4144155690453943,1.8339730306045545
3.3359375,-1.0119166054672735,0.3681557547493612
3.33984375,0.21021716824099695,0.3682927670938848
3.34375,-1.1739430907665884,-0.713875787436956
3.34765625,-0.8199835834647031,-0.17996625099223856
3.3515625,-0.817609401007252,-0.985051121513224
3.35546875,-0.6623881589264468,-1.2596894993630736
3.359375,-1.2397477966521835,0.7308058884580804
3.36328125,1.0550892429442844,0.27882760619434327
3.3671875,1.323287298830915,-1.7418066624989226
3.37109375,0.02434133421144719,-0.1524788084641757
3.375,-0.39505987353764394,0.7121625320796533
3.37890625,0.9593918861661158,-1.9800454645530592
3.3828125,-0.21517879192475856,-2.306452834350448
3.38671875,-1.1969226670341948,-0.4721201898686484
3.390625,-0.8623120634133103,-0.07207644744648112
3.39453125,-2.401711251710178,0.19117991418234628
3.3984375,-1.1705335767423264,0.09403481851849504
3.40234375,-0.7504916168330775,0.9487017576029433
3.40625,0.37167416507685075,0.0458429189707643
3.41015625,-2.5152591282928904,0.8127955119664824
3.4140625,1.2800956382158926,-0.7681702019136397
3.41796875,-0.4216146177152991,0.8245433959840068
3.421875,1.7010277873887172,-1.5844194942145116
3.42578125,0.9673720088662624,-0.8079183357829393
3.4296875,-0.7317829744003895,0.5520994089286294
3.43359375,0.3794177635554352,1.4113552619519756
3.4375,0.40057886156624767,-1.9108745061627257
3.44140625,-0.7793471178394389,-0.6056084036504757
3.4453125,0.6419431456093782,1.1436180618374667
3.44921875,-1.1017028215221765,0.5838661566379724
3.453125,-1.3810829176618844,-0.9904019681209558
3.45703125,0.0015707545291961955,1.2672365666560674
3.4609375,-0.36713619126547853,-2.1803602407471785
3.46484375,0.06100090322116827,-0.14004256802624032
3.46875,-0.43409499188852413,-0.5268045970933839
3.47265625,0.7153311321137859,-0.28748084529442025
3.4765625,0.4321803962348949,0.6076899131488714
3.48046875,-0.5713518219126693,-1.0921056969721024
3.484375,-0.8367548304281707,1.1193413962434524
3.48828125,0.04487821359366878,-0.09370013234403765
3.4921875,1.3622713864937315,0.1778088129838129
3.49609375,-0.746216988266212,1.3159459012794545
3.5,-1.1560983198164818,-0.32436790064928184
3.50390625,-0.18529815418030826,-0.60661547226633
3.5078125,-0.49957562627462365,0.8043839916528738
3.51171875,-1.3685978931404426,-1.3769457308043362
3.515625,-1.480133372078796,0.5848660673386051
3.51953125,0.014771084910730694,2.536007562652195
3.5234375,0.7615749777603505,0.19585434120466716
3.52734375,-0.9828538987122831,2.1928764778384218
3.53125,0.5284964881864389,0.13923413799539291
3.53515625,1.787596570911545,-0.8957020326826085
3.5390625,-0.3922449306907341,-0.4064016184165001
3.54296875,-0.6497054357761244,0.3428102302306908
3.546875,0.7224130042958528,-1.6206348289095998
3.55078125,0.6715133082588471,-2.0745451797741414
3.5546875,-0.7787217496095942,-0.30566223778052154
3.55859375,1.280423440550232,-0.1796174596986014
3.5625,1.245856632241869,-0.47514165257324675
3.56640625,-0.32475261402865185,1.939968820247645
3.5703125,1.838528427816996,0.9537249737278485
3.57421875,-0.8480613818409766,0.6438069994265524
3.578125,-0.42131726071407005,0.3063592253300223
3.58203125,-0.5349313426601673,-1.0963231143307233
3.5859375,1.1162057363502942,1.7472227087975782
3.58984375,-1.2345355515936762,0.32126414024017474
3.59375,-1.469567133586235,0.9189935490025116
3.59765625,-0.6483552591108156,1.457009628497683
3.6015625,0.36068830681615716,-0.5175596995044595
3.60546875,-0.556894732232433,-1.8332624563351032
3.609375,0.2295470857447819,-0.06928388723895348
3.61328125,-0.24227537406696192,0.3030474304320954
3.6171875,0.688216966431203,0.702637639264006
3.62109375,-0.794238013578152,-1.0296594580255236
3.625,1.7131833139745383,-0.4747904181161236
3.62890625,0.07966007837948515,0.032246949635643736
3.6328125,0.0652296348750278,0.05269416278996651
3.63671875,-0.9834570961021302,-0.8390906454203968
3.640625,-2.2895325288539725,0.4936267595027851
3.64453125,-0.408687904829639,-2.1835118460168794
3.6484375,-1.3270566831922161,-0.08993992348948109
3.65234375,0.5046982210167279,1.0761495739578677
3.65625,0.0493848605810511,-0.7643420601561552
3.66015625,0.0747542805918561,-0.021253578312037336
3.6640625,0.27050938133998664,-0.04490436330879174
3.66796875,0.7738597474174576,0.09098338060450843
3.671875,1.1285919059172378,-1.4003105899777446
3.67578125,-1.0760531131816828,-1.5451313413205252
3.6796875,0.10931237736608694,-0.9227115073507887
3.68359375,-1.1137982169238427,0.5119527132134504
3.6875,-0.45055068732589393,-1.7588931348272763
3.69140625,-0.1753420079995702,-0.7902990584601858
3.6953125,0.5862512011151761,-1.4000940378496858
3.69921875,1.2370060431057837,-0.6274640110229025
3.703125,0.4501944681794161,0.08748840549536642
3.70703125,-0.2935122284846952,-0.20935200766435277
3.7109375,-0.12322864996070694,1.3136646908141019
3.71484375,0.4693297794806934,-2.3988005540033495
3.71875,-1.268832187052879,0.9232297954532552
3.72265625,0.7694610601762807,-2.828312578320101
3.7265625,1.210634536342532,0.930809330377599
3.73046875,1.2662694523704172,0.07696525175534445
3.734375,-0.4418331971396256,-0.4675309196069987
3.73828125,0.4688664044316891,-1.3669824783660602
3.7421875,-1.0258785259672472,-0.5323592099361939
3.74609375,0.6414431606031614,-1.9221768259936605
3.75,-0.0214529672522699,0.055106232414952175
3.75390625,1.8521279553188683,0.41361309010175284
3.7578125,-1.4435267166161525,1.5868230073489236
3.76171875,0.45793246350633754,-0.2717113267066804
3.765625,0.2694290188581639,-0.25287676307402573
3.76953125,0.12156957565609482,-0.28713515850995025
3.7734375,0.220781068297133,-0.8529036467769282
3.77734375,1.14836662716894,1.0920637849351345
3.78125,-0.2614380096129571,0.6902205946059765
3.78515625,1.3445696913449734,-1.3085714863235423
3.7890625,-1.0543151682247656,-0.7174944221277039
3.79296875,-0.551496335178769,-1.5508089916386132
3.796875,-0.15206637044507176,0.47510426154915736
3.80078125,1.7761494777332767,0.8570488390602747
3.8046875,-0.36030192867549554,-0.3333256836357263
3.80859375,-0.8080538006603621,1.042762185691692
3.8125,1.4233837573942805,-0.1936277473879664
3.81640625,1.0898539848467097,-2.4455189667303063
3.8203125,0.9931596664541712,-1.2945822462265837
3.82421875,-1.1773357592258664,0.11299634801955158
3.828125,-0.8857716150004946,-0.29000733561683095
3.83203125,0.32963269951457674,-1.7905203971300876
3.8359375,-0.4886033105768879,-0.5476691745121651
3.83984375,1.27979705368212,0.47709801727573703
3.84375,1.0763917049919354,1.7108637875509534
3.84765625,0.7173560028931364,-0.5489269244952774
3.8515625,-0.8746299312745682,-0.9358941622306116
3.85546875,-0.9377701014445269,2.4768535366080116
3.859375,-0.7056384587910957,0.9269066366246492
3.86328125,-2.0191717594750416,-0.7588218368746066
3.8671875,0.2906925294179159,-2.08972568250487
3.87109375,-1.7444282094440373,-0.9037236751616037
3.875,-2.1516963084055383,0.4416485565032273
3.87890625,-1.2774581682304942,0.48779563876663345
3.8828125,0.011353077271778318,0.06122872443532757
3.88671875,1.9722857144980763,0.749212746571296
3.890625,1.6973845554796039,-0.39411373167974206
3.89453125,-0.2856276732805654,-0.0007998818590831509
3.8984375,-1.0212994677151583,-0.3600558530297906
3.90234375,0.9289756188690509,0.12544854745536504
3.90625,-0.3920686888620171,0.6411319556906723
3.91015625,0.27396120367586857,0.5106237316482994
3.9140625,0.4017203615840957,-0.996616907136965
3.91796875,-1.5441933233632508,-0.10677708539809198
3.921875,1.237571320396249,0.8713532540472515
3.92578125,-0.1565992003764312,0.05110414997999233
3.9296875,0.02666478419123936,-0.8766397270552853
3.93359375,0.41785855382197523,-0.2832665537432204
3.9375,0.3272848769092393,1.4125940898323484
3.94140625,0.39322204482643697,-1.099023857968431
3.9453125,0.06978425130353699,-1.2015066108791506
3.94921875,1.2752204994713565,-0.1752752030280489
3.953125,0.10695848276521576,1.3692613771934887
3.95703125,-1.2686046958633577,0.4525083911567024
3.9609375,-0.5921371023014318,1.0729206229710226
3.96484375,-1.6026008774956702,0.6620526418976146
3.96875,-0.41389144495957536,-0.8510900783561586
3.97265625,-1.1378454943452696,-2.232201884574679
3.9765625,0.4884045440369479,-0.8372350812486034
3.98046875,0.7276525031292391,-1.244697147461815
3.984375,0.8298474040026609,0.3890631400327726
3.98828125,-0.8673131841745023,0.5300816424628538
3.9921875,-0.14955411604282595,0.5076661094374234
3.99609375,-1.1120822166442756,-0.03101568306758581
4.0,-1.7268747050520217,0.6036640965642888
4.00390625,-0.8621336436164417,0.30756276848334735
4.0078125,-0.4528839816688833,-2.3391790752035404
4.01171875,0.03327156308152192,0.09539042395269656
4.015625,-1.3099192332069167,0.27014549043373226
4.01953125,1.1605082078318958,0.37202199690652676
4.0234375,-0.21625452844947055,2.906657009572331
4.02734375,1.6218447299587215,-1.305056240493585
4.03125,-2.774551617913707,0.2096509103757693
4.03515625,0.26821058292831434,0.8534898991649965
4.0390625,-0.3787295957117208,-0.9729208001260787
4.04296875,-1.2278787504835569,-1.2138371827472336
4.046875,1.00659293234814,0.49016482015344565
4.05078125,0.6793273409153634,1.100894809843973
4.0546875,-0.7827392656896078,0.608443816053741
4.05859375,-0.26095960957799247,0.5414048008030288
4.0625,1.8077210467727223,-0.46842412197731714
4.06640625,-0.7755382437081055,-1.7532668429409384
4.0703125,0.004835820708928207,1.3773740170159499
4.07421875,-0.27917115865473835,1.0048773233368804
4.078125,-0.39989412055359874,-0.7771071645535994
4.08203125,-2.212276213650075,-0.8302241807270018
4.0859375,-0.6265398435908328,0.9662065230397191
4.08984375,2.2424144120442557,1.2894373199109657
4.09375,-0.2168752108570242,-0.6972717012879555
4.09765625,-1.6361625905020152,-1.398147699515548
4.1015625,-0.20746927634491005,-0.49851140159399987
4.10546875,-0.6858512679561884,1.1131903329363935
4.109375,-0.1794602932014455,-1.5040875482343452
4.11328125,0.5404241108446758,1.593305907629454
4.1171875,-0.07719705360076312,-1.003878007780384
4.12109375,0.7321295824550362,-0.6213605030656051
4.125,-0.7973529178867191,-0.14553553808119002
4.12890625,1.2357114745196252,-0.13568108491349223
4.1328125,-0.4145074258674607,-0.36975772874415447
4.13671875,0.412210040264633,-1.560662539116482
4.140625,-0.16634510187905283,-1.0144240375899722
4.14453125,-0.3827643747887692,0.1635893883610231
4.1484375,-1.7989381535189353,1.042048996004046
4.15234375,-1.4066778231384558,-0.07599878469000437
4.15625,0.6037798008424773,-0.4017188962550819
4.16015625,0.6653105812816399,-0.48490600083106405
4.1640625,-1.2920568268112642,-0.4813923260618133
4.16796875,1.689251113847087,0.008490211013778564
4.171875,-0.19842112595578973,-0.8569103490891441
4.17578125,1.4737214870496465,0.2993101626411733
4.1796875,0.7607444073208477,0.07966423804714556
4.18359375,-0.04499481725559353,-0.7544455013732543
4.1875,0.04577341560360987,-1.5700696429704393
4.19140625,0.5890104371839577,1.7303872694502
4.1953125,-0.41840402659647,-0.6120016124209077
4.19921875,-1.8028356978193014,1.0784282015147075
4.203125,0.5762830943216597,-1.4804138772395106
4.20703125,-0.9009223318581193,0.4993388859110516
4.2109375,0.4125778562780749,-1.5509179759429834
4.21484375,-0.42071939765835953,-0.6149567963983669
4.21875,0.30644203529661823,0.4034963150315359
4.22265625,-1.4462901672670818,-1.1470242948779166
4.2265625,-0.1391318552448632,-0.39132482497873905
4.23046875,-0.344053146358108,-0.06706101019092522
4.234375,0.3330783348043016,1.4653577231885446
4.23828125,0.8277027241270557,-1.2826417333906253
4.2421875,-0.05122787546434147,1.2708343793975614
4.24609375,0.5459248051005141,-0.06605684197185355
4.25,0.35636292367470884,0.8353137822315201
4.25390625,-1.4105529375168298,-1.4220848013437868
4.2578125,0.27555242949196984,1.213469572375839
4.26171875,0.5148833897691096,-0.11456092178173012
4.265625,-0.5502557755993143,0.9751522311938001
4.26953125,0.4589831859389219,0.9349003399125033
4.2734375,1.334980965355091,0.5815902082331026
4.27734375,-1.1240255304430367,0.022158710150335537
4.28125,1.077936801040058,-0.05495523944751737
4.28515625,0.024521617991107515,0.33586157333827465
4.2890625,0.4327726133335555,0.5715520638077205
4.29296875,0.1471778888410782,0.23262415069639372
4.296875,-0.09909781366047976,-0.10396076098575557
4.30078125,1.7903118016562365,0.9247042512739514
4.3046875,0.07209831080808984,0.16098990412621905
4.30859375,0.04735354642780208,-1.6571010238965653
4.3125,-0.3086877979724825,2.901750720758524
4.31640625,-0.5676480027332773,0.5426580120346918
4.3203125,0.038500014548279456,-0.046050798262776624
4.32421875,1.1440003252531166,0.10403710350401944
4.328125,2.3392600729174564,0.5204844798400227
4.33203125,-0.6335402277525729,-0.8090655926500696
4.3359375,-1.8448791739831016,0.3623268413204937
4.33984375,-1.1706039450572097,0.36998821004051985
4.34375,-1.580229841893659,0.8951808079011759
4.34765625,1.5012339348770345,-0.6242760319930784
4.3515625,-0.04487043427038322,-0.19507990585150137
4.35546875,0.34076070072045206,0.30453426045870735
4.359375,-0.15376242722478697,-0.14050329680416027
4.36328125,0.6961092419779282,-0.7012641758460938
4.3671875,-0.3353300894155088,1.4674040695928494
4.37109375,0.7609054023739775,0.35758168700024584
4.375,-0.1583237994031723,0.44060290059645046
4.37890625,0.8305898204731256,-1.8853014933612127
4.3828125,-1.8605371825862806,-1.7610765265249628
4.38671875,-0.18923740700607813,0.07812683791722645
4.390625,-1.153751406637202,-0.5997740152233598
4.39453125,-0.6788082341195242,-0.18942131799216583
4.3984375,0.5997747894637424,-0.8184015261726809
4.40234375,-0.17016378989320938,3.136985025369404
4.40625,0.2947382674293458,-0.727699664627892
4.41015625,0.3146115694748861,0.2548720195060596
4.4140625,1.0052910485441204,0.4412976537480145
4.41796875,0.38935752526717227,1.0459898220788153
4.421875,1.0043917309067036,2.322035483194246
4.42578125,-2.1747160897590843,-0.6980409107374699
4.4296875,0.13459148229432225,-0.13393851433257856
4.43359375,1.8284133369160382,1.607429873386152
4.4375,0.7140565679883543,0.323916406940585
4.44140625,-0.0312583165274246,1.0562210415741229
4.4453125,0.444448222043876,-1.7799257180943058
4.44921875,0.6467172248239423,-1.0472952905058184
4.453125,0.2224404782998531,0.49156532437506567
4.45703125,0.4314688309763055,0.25576068443498784
4.4609375,-0.6198799668116729,0.6830386352526776
4.46484375,-0.9434613570527542,-0.19253110112448268
4.46875,2.4103576003921883,-0.5879586363893813
4.47265625,-0.7635405293354955,0.24538830954246635
4.4765625,0.9308803081432117,1.1273714431912814
4.48046875,0.6899515318551793,-2.1329606627732933
4.484375,-0.6086103551005794,1.1284148599173809
4.48828125,1.5271406274687676,0.040715917261155664
4.4921875,0.06729357364693478,0.08859274228780616
4.49609375,-1.4143924733983444,1.255997976830357
4.5,0.3342639019289298,0.677682308316963
4.50390625,0.7912412020556095,0.46874820221378305
4.5078125,0.7479647646187216,-1.163292095853794
4.51171875,0.040351560102008334,-1.0756958191904331
4.515625,-0.20906250665074855,0.08075566654535157
4.51953125,0.8135235139827812,0.8089583257865276
4.5234375,-0.6411719599611909,3.7335502904166447
4.52734375,1.6370633300417008,1.5208478734793967
4.53125,-0.17468494142646,0.27784783498785637
4.53515625,0.8668349124506324,1.3083722525068333
4.5390625,0.08421593728168413,1.029011865806635
4.54296875,1.3390051579517994,0.28692600040201066
4.546875,1.2421509338020638,-0.7824399534645673
4.55078125,0.17438637936204254,0.9610645142360423
4.5546875,-1.936670267692953,-0.6861728966292779
4.55859375,0.04703212404903313,0.6265398061749095
4.5625,0.1716182958071687,-1.4137319649612807
4.56640625,-0.475617603542562,0.8148948920418275
4.5703125,0.7235402586189981,0.4116171795735032
4.57421875,-0.04302548598937491,-1.2811952069831893
4.578125,-0.7421794226474647,-0.18218668872811528
4.58203125,-0.22388325350483138,1.0293076646601416
4.5859375,-1.3991517237159419,-3.2970981575756
4.58984375,0.35849143488465113,0.7900296352850305
4.59375,0.2301173429529826,1.8978510042686483
4.59765625,-1.4374946635436574,-0.4522536302831164
4.6015625,-0.8790772809762017,-0.831469334310928
4.60546875,-0.20686391962612272,0.8060720374593706
4.609375,-1.3328142362178945,-0.8532856010280258
4.61328125,0.3078945341720491,-1.1845952221287257
4.6171875,0.0547759539868785,0.8429636605562515
4.62109375,0.2865841570048643,1.5079296134108666
4.625,-0.604436440722706,0.8527731394375374
4.62890625,-0.6464955568755512,0.5704964952653226
4.6328125,-0.5578959337147095,-0.1683637516884271
4.63671875,1.0237262577614903,-0.1898079765119986
4.640625,-1.9609208403280545,0.9178667089060616
4.64453125,-3.2064862624078905,0.17676768597285814
4.6484375,-1.7458101215355053,-1.194872633024191
4.65234375,-0.404748902686926,0.432593046903868
4.65625,0.27282293409314406,-0.5858121975518559
4.66015625,0.9530912246537241,-0.3899750331810001
4.6640625,0.22834808507370893,0.5715796466142924
4.66796875,-0.7324022014597299,-0.83681559859225
4.671875,-2.5109959174388523,-1.469787258009288
4.67578125,-1.39268277358257,0.3443350310737958
4.6796875,-0.29139414739067343,0.333820868733213
4.68359375,1.3323697527596727,-0.05086122577892369
4.6875,-1.3217761208771068,-0.9289026267476812
4.69140625,0.8432860141147945,-0.5180467424445098
4.6953125,-0.8200123312383116,-2.1009302718522656
4.69921875,-0.051601865162364445,0.9785466657624431
4.703125,0.7631347916958968,0.46715702252163355
4.70703125,0.31422250433280025,0.371130868137881
4.7109375,2.168080881579199,-0.5347165371966053
4.71484375,-0.3005971450729056,-0.2902864366514317
4.71875,-0.5669547471967442,-1.1828991331500143
4.72265625,-0.6350624958512734,1.8563954955182094
4.7265625,-0.3567985166923123,-0.39453476780335295
4.73046875,-0.49622966215993913,-0.26793592635791935
4.734375,-0.16417430077809478,-0.1413677758885383
4.73828125,1.170434244703222,0.5883250960162363
4.7421875,-0.33950121646495296,-0.03831839806721262
4.74609375,-1.1197880344310753,0.9226183144043352
4.75,0.30220513877810334,-1.7254496790548748
4.75390625,0.3783150031079399,-1.9714638666471391
4.7578125,-1.4658805721393862,0.0955577972598627
4.76171875,1.0213539393317244,1.2207034367563903
4.765625,1.8706916286514934,-1.3281399814177735
4.76953125,0.9262607986160951,-0.5246669521961125
4.7734375,1.100473348005951,0.47488142664010274
4.77734375,0.6897898891675839,1.446695911983496
4.78125,1.5559950575741979,-0.7019244439308285
4.78515625,1.84560399211247,0.8997458623205454
4.7890625,2.0382092301481864,2.765722631703954
4.79296875,1.5499259002744625,0.9135354574039928
4.796875,-1.0000565649855442,-0.17404227224766283
4.80078125,-0.4952477488978809,-1.3778624813614508
4.8046875,1.6094106863177542,0.8334795274403806
4.80859375,0.6204131869703753,1.0601745895192218
4.8125,-1.1702250425770935,0.510127044013754
4.81640625,-0.6690049462822989,0.6340805926353312
4.8203125,-0.3155739353854664,-0.6505996007478526
4.82421875,0.7442041643876034,0.49508440606840703
4.828125,1.1234135299532355,1.9456612894798841
4.83203125,-0.4071195736892003,-1.5946623994381415
4.8359375,-0.018584482910448192,0.06076599364207356
4.83984375,-1.0970729666689163,-2.179224227102003
4.84375,-1.882262563571856,1.253306758358837
4.84765625,-1.8588278310237258,-1.1591670306115558
4.8515625,0.8885164064115172,0.796186268036406
4.85546875,-0.7889022497153714,-0.05610534924553219
4.859375,0.36428726570224906,1.1872466920080094
4.86328125,0.41702229521078715,0.6114787835452141
4.8671875,-0.5289182068606452,-1.343722113138283
4.87109375,1.020142140636426,0.9520567029078167
4.875,0.26794524228602135,-0.17528656088761962
4.87890625,-1.266021097632633,0.14222951365497494
4.8828125,0.3063902131604155,-0.9133276317064818
4.88671875,-0.8042565508917361,1.0095120795855612
4.890625,1.6442033690634112,0.7441961109875298
4.89453125,1.7305426894529747,2.3736085609855193
4.8984375,-0.31926087687566623,-1.5598678850758774
4.90234375,1.7143724362821533,1.2183530211699443
4.90625,0.21377563892443113,1.2625440263801353
4.91015625,-0.11531049671066086,0.8933627911536846
4.9140625,-1.5007714653750035,0.9110067178775869
4.91796875,-1.229417006015773,-0.4072020813226494
4.921875,0.5212134705811965,-1.2929975662401332
4.92578125,0.8448311214859908,1.0447729414395037
4.9296875,-1.218030744407696,-0.070353181808218
4.93359375,0.07229389603403581,-1.2560677497165964
4.9375,0.010281267901292393,-0.11564076301625989
4.94140625,0.6175521224078553,-0.42356630940710543
4.9453125,1.4490567329977149,-0.3015419031514498
4.94921875,-0.7972782294265949,0.04394693229928994
4.953125,-1.893764136888972,1.6364384784736443
4.95703125,0.18399551042342616,2.041341706988097
4.9609375,-1.4656872012404614,1.23040862466495
4.96484375,-0.4200258727895357,-0.9336326758451375
4.96875,-1.750159662498021,-0.27967425610106916
4.97265625,-0.296903684914149,-0.06644438817365608
4.9765625,-0.31164471659934473,0.26844655325616373
4.98046875,1.932777401985802,0.587708524334943
4.984375,2.3805213676634795,0.9716139607533578
4.98828125,0.5577698943591038,-1.8595075884679606
4.9921875,-0.9766983947978052,-1.035552771457144
4.99609375,1.5402853495271356,-0.15860572591114422
5.0,1.235839771109178,0.771514128320585
5.00390625,-0.5439735679919158,0.19673476949054358
5.0078125,0.18065701852992574,-0.027142404720871396
5.01171875,-0.5802894040981994,1.2065404406369988
5.015625,0.20679930843711047,-0.7232459582379284
5.01953125,0.033939489633877856,-0.8035891378525167
5.0234375,-0.7529281335898514,2.5097683433316282
5.02734375,1.6471418965173548,-0.886478120075501
5.03125,1.8174747261301862,-0.0721801652601741
5.03515625,-0.7392775266366512,0.17292936365407469
5.0390625,-2.2848234932485374,2.1872232391735857
5.04296875,0.9131889017572695,0.5570076531945299
5.046875,0.38210272423998776,0.08099500624747347
5.05078125,-0.05121779367961131,0.37640539512718807
5.0546875,1.5554422658307598,-2.668501009874403
5.05859375,-1.5741089609818568,0.837799253232007
5.0625,-0.15891079848521308,-1.2394659537164074
5.06640625,-0.9977658433910276,-0.705441074969236
5.0703125,-0.09030598183079903,1.1707801712808825
5.07421875,1.0513668425656082,-1.1287738544355697
5.078125,-0.28926949966295235,0.12009629412843521
5.08203125,0.991778053590251,-1.2580625090213355
5.0859375,1.1416685529098012,-0.1908154665156228
5.08984375,-0.7962981702713873,-1.475301409725503
5.09375,1.062487746553238,0.8480256933042315
5.09765625,-0.031231397049285518,-1.0777362636679544
5.1015625,0.9983912623588366,1.0475216827506808
5.10546875,-0.7648270207658785,-1.43289168094397
5.109375,0.6359117847592137,0.5944207233132602
5.11328125,-0.36808729569421844,0.4933042202313916
5.1171875,1.0895286118656156,-0.9002030466882276
5.12109375,-1.0275854596008072,-0.10743444626191467
5.125,-0.0865096431347959,0.1536560998963001
5.12890625,2.932235874299439,-0.6656170433902674
5.1328125,-0.2543982660084773,-0.8661769287251246
5.13671875,1.8818006084812267,-0.29331532061996607
5.140625,0.07981595947099242,1.4599923690545746
5.14453125,-1.474884118108937,0.6391868676693855
5.1484375,-0.3790487716368095,0.0948749569576521
5.15234375,0.6386656707214909,-0.052577109245443544
5.15625,-0.09087037465667178,0.13159476285772193
5.16015625,-0.9590075387516273,1.454767271695338
5.1640625,1.4081612936437577,-1.4720689180240478
5.16796875,0.8248315812327107,0.312740439668642
5.171875,0.6438439831475656,0.08015292909342997
5.17578125,-0.05976391720748488,0.6342924429097272
5.1796875,0.11510319266465821,-1.4647294139276603
5.18359375,-0.9188649224726445,-0.557713710083537
5.1875,0.5345367316596944,-2.049081191864405
5.19140625,-0.033790464554048605,0.4420626084950539
5.1953125,0.657380879909476,-0.09502726089319824
5.19921875,-0.4888004605309596,-1.2253264811145297
5.203125,0.2721040245309766,1.036476726167669
5.20703125,-1.144287306748941,-0.6210814395825198
5.2109375,1.2187560978500478,0.036703687000104644
5.21484375,-1.3342575769801246,0.5460911031794018
5.21875,-0.17891687988726016,-0.17154049070194582
5.22265625,-0.5012807540660119,0.12250460383043357
5.2265625,0.3444907582009185,-0.03246655087790147
5.23046875,0.1329264404955949,0.2543497015240216
5.234375,0.1694717773661903,0.3875697278194149
5.23828125,1.0182120598497253,1.1387455103792745
5.2421875,1.1671311234469657,1.3370656326324495
5.24609375,0.021040167657240216,-0.6138389055869077
5.25,-0.006617139484177696,-1.0599484217824882
5.25390625,0.8805858558558975,-0.5106347086389961
5.2578125,-0.9348181041616112,-0.4357706269881394
5.26171875,0.21419595522333446,-0.04823261142527081
5.265625,-0.10106023230686612,-0.9053621079327825
5.26953125,-0.21265241466300247,1.495643531079773
5.2734375,-1.6439014030579189,-1.116175939680985
5.27734375,-0.4791452794842854,0.7010983678635011
5.28125,1.5168227034008128,1.2415625985492986
5.28515625,-0.09048211327153188,0.689264100657688
5.2890625,-1.0311237152151598,2.0709180326767003
5.29296875,0.5717466541961898,-0.2184868737807848
5.296875,0.7413343952597783,-1.331988970357132
5.30078125,1.1303903172116962,-1.349710423695326
5.3046875,0.13157133014076636,0.9691605017528921
5.30859375,1.0738270543043276,-0.520262425288002
5.3125,0.6909358138148566,-0.4951274145855448
5.31640625,1.4650725759824628,-1.4307490575618336
5.3203125,-0.6890747795657096,-0.3240278835897642
5.32421875,-0.8257451222906359,-0.5925588257537572
5.328125,1.0499041658896338,0.24521873709734668
5.33203125,0.33153339441734647,-0.9578628990549307
5.3359375,0.0006316225273184777,-0.024110953770829897
5.33984375,0.7435084165554194,-0.5338144567901848
5.34375,0.16146392986540797,0.4708124585286479
5.34765625,1.2474348038295298,0.9717947722579807
5.3515625,0.9194350023402801,-0.6777439374945413
5.35546875,-0.13493665161363577,-1.3020003250198902
5.359375,1.163179748377051,0.3233690825676318
5.36328125,-1.38070305189018,1.1945596186452747
5.3671875,-0.7927361634786005,-0.7671094063020363
5.37109375,0.050767850774679414,-0.5197761735802574
5.375,-0.3833199591367682,-0.2088566155243987
5.37890625,1.2236398290178434,-1.573716707552223
5.3828125,-0.6066652843795136,1.5857253350693088
5.38671875,-0.39054016105282957,0.22062924884534982
5.390625,1.8658643805442325,1.6698522574550905
5.39453125,-1.6157019039501372,0.9052190687476371
5.3984375,0.3974077192778884,-0.4585187568586005
5.40234375,-1.1109308171521912,0.05833691605342964
5.40625,0.9083410177695509,0.4814884588296117
5.41015625,-2.063361170328317,0.7376743976540707
5.4140625,-1.6692107518771049,-1.6903036078495055
5.41796875,-0.9652561487498811,-0.19581269080048985
5.421875,0.17026173871594164,1.280818425016127
5.42578125,0.9490143490874801,-1.232862846547954
5.4296875,0.3743816134138006,-0.39361923458235143
5.43359375,-2.118018462620943,0.35632105620636556
5.4375,0.5391246519567984,0.015269519319710566
5.44140625,0.43649288831376143,-0.7174819436674099
5.4453125,0.611895219641706,-1.1956841705546548
5.44921875,-2.4145035882095156,-0.001892845915990545
5.453125,-0.016199768380677212,-0.35521149242903977
5.45703125,-0.26474460799018096,0.8104955012349621
5.4609375,0.8763257829572413,0.6195640629130088
5.46484375,-1.1574843196182987,-1.4680570945399498
5.46875,0.0756045832417159,-0.27515759789853844
5.47265625,-0.4405770403443248,-1.2753865415994718
5.4765625,-1.054637434857248,0.3927122249924676
5.48046875,-0.46149752026430996,0.7330682083329688
5.484375,0.42163902444131457,0.511065654302733
5.48828125,-0.7364691155893193,-1.8611724264757743
5.4921875,-0.7151881353325497,-0.10734532699319647
5.49609375,1.3115918570188165,0.8176611006286983
5.5,-0.289875962588701,-1.3077557500975772
5.50390625,0.027071206212903928,0.2537604424850208
5.5078125,-2.261132322462192,0.5183225174531151
5.51171875,0.8475640830147012,-1.2742653734133922
5.515625,-0.5134030730254896,0.8322775603659436
5.51953125,-0.5987542821086987,1.3545494305172707
5.5234375,-1.1527738666095502,0.36859730562650095
5.52734375,0.5950435744622443,0.6858447509551048
5.53125,1.6561107345556236,1.8195769603068366
5.53515625,-2.0330586507907675,1.473012617669678
5.5390625,0.31662076589838767,0.010796194181180396
5.54296875,0.419544565102333,-0.8482863245511622
5.546875,-0.8312043463174266,-0.35741840452167994
5.55078125,0.8122332629815171,0.6249383387438177
5.5546875,-0.3168583960075011,0.6787530728036293
5.55859375,-0.3759461853807745,1.512489844561366
5.5625,-0.7149248157077672,0.2327653187551728
5.56640625,-1.3830664421069503,-0.5718734867336112
5.5703125,-0.049660039552289495,-0.01821097816085139
5.57421875,0.7933763339034013,0.08901362864475383
5.578125,1.4038933368203665,-0.5606996245273209
5.58203125,-0.1385197694382186,0.8216654755458356
5.5859375,-0.13763537928506167,0.6338084539641282
5.58984375,-0.2609158910746575,0.9195624495461897
5.59375,0.3110392096777489,0.17361213319184943
5.59765625,1.005036377247862,-0.4800381453195024
5.6015625,0.594735925454409,1.3010149445897623
5.60546875,-0.8621940888630837,-0.44090124967494154
5.609375,1.0885829635314817,3.0834609510750517
5.61328125,-0.5441674163211947,-2.228807940438752
5.6171875,0.5518036621437322,-2.185286056650828
5.62109375,-0.5488699697418173,0.9571227245572896
5.625,0.040734539855562406,-0.3917425509630969
5.62890625,-1.0424622801347445,-0.11734413204161147
5.6328125,0.6616153215447476,1.6100063766367376
5.63671875,-0.21417025326277622,0.19314197334584446
5.640625,0.34011731518781246,-0.15556868761732973
5.64453125,0.016657879422123087,0.43198403777651656
5.6484375,-0.5571550828271075,-1.4697658361945827
5.65234375,1.189223891556461,-0.042551304493029234
5.65625,-0.1226620808021955,0.32389721860343823
5.66015625,0.34300008315242525,1.267811084373677
5.6640625,-1.3326033099037515,-0.7131321610148873
5.66796875,-0.1657081861040995,0.4478181879279407
5.671875,1.6055939048151313,-0.09079948959602228
5.67578125,0.4150029885006124,0.5143313115814475
5.6796875,-1.5496475551893676,-2.1092280010322697
5.68359375,0.30666074883262767,0.014032414680412613
5.6875,0.4423599860134642,-0.18543707278732555
5.69140625,-1.3215570533049754,-1.5642333005632745
5.6953125,0.3450073531313185,0.53656429844815
5.69921875,-0.505615789975043,-0.697957940410759
5.703125,-1.1435880851677334,0.9963776521385613
5.70703125,1.015659936714129,0.9489137221298991
5.7109375,-0.032529297456943745,-0.456979562324652
5.71484375,0.15268528267188314,1.9520746655844556
5.71875,0.7673318212154207,-0.7278678840492128
5.72265625,-0.5343970509470215,1.4715794056074154
5.7265625,0.44577002760495743,0.16009044429515457
5.73046875,0.1998516161219339,0.598557526047703
5.734375,0.7131464615865766,-0.14019283972230212
5.73828125,2.065285101566998,-0.034201530249678126
5.7421875,0.9010530462670663,1.4424653638455553
5.74609375,-1.6497893682408504,0.0029974669366797284
5.75,-0.43075390408574954,-0.7138142762163664
5.75390625,-0.723077064152254,-0.31212035031268454
5.7578125,0.17856782643449245,1.2611541202468286
5.76171875,-0.08406115023825453,-1.3905086924870544
5.765625,-0.07314505019875686,1.127254266368454
5.76953125,-0.051824552388774356,0.38350029989473744
5.7734375,0.45774027798627187,-0.7275886552572672
5.77734375,-0.07861689515832083,-0.43865595880822483
5.78125,-1.367807610654052,1.720792254682508
5.78515625,-0.223622796489369,0.8735239110765955
5.7890625,-0.5451212931010995,-0.05397243947422386
5.79296875,-0.7278460558769865,-0.7162960518755012
5.796875,-0.7445902144963343,-0.37749786697854726
5.80078125,-0.3212625648581374,-1.1251720075227842
5.8046875,0.8022156785278254,0.7848148580048498
5.80859375,0.9475935693014701,0.41095388140349803
5.8125,-0.8595507293861596,1.3925320859670667
5.81640625,-0.364259174089191,1.9503835658674278
5.8203125,-0.0035691760209368827,-1.3036864427139456
5.82421875,0.619250871060016,-0.12947152940742324
5.828125,-0.3279332349446998,0.2647921942520325
5.83203125,0.3297406611232949,-0.5814251213706761
5.8359375,0.5833417984363682,1.9709501880149143
5.83984375,0.2128527813777777,2.838735638281091
5.84375,0.8039777973040436,-0.08850952332045635
5.84765625,1.439379640304038,0.04239206551729572
5.8515625,1.4842577249077298,-0.1703248442954205
5.85546875,0.1700711000752325,0.04962386438345046
5.859375,0.5781623877974632,-0.9309913883881867
5.86328125,0.9919136057184739,0.46259269759494087
5.8671875,-0.042160367955831,0.37772054334894206
5.87109375,0.7783196523442608,0.706338589122997
5.875,-0.7000632391099999,-0.5970393315416511
5.87890625,1.744165832445707,0.41912495640070774
5.8828125,-1.6737611743956946,-0.27366431817432346
5.88671875,0.6167340823996772,-0.17381781815934472
5.890625,0.11265602683755825,-0.8348668020376372
5.89453125,-0.5454339758286857,1.5795101520686525
5.8984375,0.22450927874889273,1.6839138314905369
5.90234375,-0.09089405820154911,1.2296237054125057
5.90625,-1.1357637670374239,-1.5215804788693201
5.91015625,0.9029879284436272,0.2756254819038736
5.9140625,0.4189404760434127,-0.20523032440488811
5.91796875,0.4401013117301079,-0.06778315872216185
5.921875,-0.007845178137435212,-1.0636514828141244
5.92578125,-1.3827802323306422,-1.2254602785856468
5.9296875,-0.718307860802991,-0.728285377468453
5.93359375,1.1345027937613368,-0.014252563640383693
5.9375,-1.085272775918689,1.0519783788046575
5.94140625,0.4646046411585306,0.3588682956130161
5.9453125,1.297443799347575,-1.5325116526808573
5.94921875,-1.4529479807070407,-0.7873941603301587
5.953125,-0.7321396568690022,1.106354904536583
5.95703125,0.13515604370613293,1.0158730111165275
5.9609375,0.39565089515340873,1.0033338969693442
5.96484375,-0.11945125756957026,1.2604359823576152
5.96875,1.5933483532338184,-0.8373662413242691
5.97265625,-0.2614817746769962,0.08739524637838975
5.9765625,0.4733249353229214,1.0304281663847026
5.98046875,-0.5161316910614049,1.532953209215045
5.984375,-0.5528530833726213,1.0210748185800769
5.98828125,-0.7209004702389694,-0.16282272979241588
5.9921875,1.9006289520550945,1.037188528199279
5.99609375,0.35518895047729665,0.6109425448727783
6.0,-0.6158422135781384,-0.7279913440327441
6.00390625,0.522877469120231,-0.9174614603495745
6.0078125,1.3878075737471571,-1.4984675894784265
6.01171875,-0.49038538447704794,-2.1925772622696877
6.015625,1.1073345012127656,1.496063252716136
6.01953125,0.9027879581355341,-1.2101085120383883
6.0234375,0.909521623012078,-0.3938877870939456
6.02734375,-1.8586195992289,0.7944550782786897
6.03125,-1.016254052098738,1.8398013775066933
6.03515625,-0.6754000687539571,0.6359203167972595
6.0390625,0.28277563454901394,0.17485163207604518
6.04296875,-0.6975939257393703,0.16516054651601014
6.046875,-0.27452457751909276,0.316110658688923
6.05078125,1.52238458173389,0.20532652900881807
6.0546875,-0.33236734576886084,0.3547494300574515
6.05859375,-0.7390748479935696,-0.4023564747242932
6.0625,1.0675720858326703,-0.16880490450149366
6.06640625,0.35360921810557217,-0.18808890621700156
6.0703125,-0.09010727316208854,-0.18782500410037392
6.07421875,0.05184448705181844,0.10720965725150618
6.078125,-0.6107381524387091,-0.6673422141746271
6.08203125,1.3768408771472913,-1.4537426312100457
6.0859375,0.6905113403580477,-0.5490446063462378
6.08984375,0.7099315752900113,-0.04684636439385306
6.09375,0.6722036246324951,0.5470326003762456
6.09765625,-0.7816800024697727,-0.4824073289491306
6.1015625,0.6113953016457835,-0.6407144265669303
6.10546875,1.0887763626900262,0.9191160279477583
6.109375,-0.803638692789448,0.9647269209103002
6.11328125,0.5185868955402441,-0.6540872115134472
6.1171875,-0.8733558411019613,-1.3187331474505146
6.12109375,-0.5827799524875207,0.8473172941277684
6.125,0.2461120937186539,1.1611836216229114
6.12890625,0.5792714182548739,-0.7704920842593539
6.1328125,-0.5839959107390243,-0.7951789993870507
6.13671875,-1.1091579686893898,0.8357213124758484
6.140625,-1.5218346077050766,0.2354664893442566
6.14453125,0.0695444809210476,0.3560707046211813
6.1484375,-1.001156768979797,-0.8263209723096442
6.15234375,-1.5046056691295018,-0.30988065264948195
6.15625,0.1602907089521117,0.5163366929664046
6.16015625,0.5040167016423082,0.4392283282515796
6.1640625,1.047415104464794,-1.6741947808165836
6.16796875,-0.11710986697344958,0.7204198316058754
6.171875,-0.38154329503356776,-0.2543614502913691
6.17578125,-0.4679933685147822,1.5967386218405357
6.1796875,1.5493480334326786,-0.05108137113002052
6.18359375,-0.5552938156214781,-0.2823388734858659
6.1875,3.2826376840789573,-1.5181794530498836
6.19140625,1.5545317798335125,-1.1357874894147049
6.1953125,-0.1562957454227317,1.3424728130485741
6.19921875,-0.970744174576364,-0.26951029202817095
6.203125,0.7488862292701709,0.07193683515424737
6.20703125,2.1531616977985553,0.40595768201758825
6.2109375,0.6730933753039678,1.168598190708953
6.21484375,-1.9471859600016046,1.302722403245705
6.21875,-1.5721817748741986,2.1340446880652197
6.22265625,0.4398897194884292,0.835380183961908
6.2265625,-1.7234212682577994,1.2942457051633804
6.23046875,0.34008727872836275,-0.09347297687980345
6.234375,0.665042229671433,-1.3982189083119565
6.23828125,1.4367519612420088,-0.7158075636075198
6.2421875,-0.5769422253502361,-1.0816399209612362
6.24609375,-0.6909608530533784,0.9212160550305181
6.25,0.7948945180376241,-0.22926136483711368
6.25390625,-0.09371915183492655,0.23045654817192304
6.2578125,0.5889641394708109,1.961015681184763
6.26171875,-0.3264656764601903,1.0688479069933212
6.265625,-0.24700300850449378,-1.1453872175594353
6.26953125,-0.13470306819711356,0.1483383956154951
6.2734375,0.07148284271118507,-1.8117225157735601
6.27734375,-0.4824184409537666,0.7598862286601846
6.28125,-0.7210664459251204,-0.2738098118648595
6.28515625,1.3621068596431463,-0.5579286534224956
6.2890625,0.19917524137239018,-2.014749433009689
6.29296875,0.482843183448706,1.0007387826000653
6.296875,-2.37488849182681,-0.38670613779071367
6.30078125,0.19934255096404338,-2.0419574829953846
6.3046875,-0.37056494259916933,-1.2940986196406905
6.30859375,-1.1194666778942144,-2.4787791315049432
6.3125,0.6984027740365095,-0.10361175348511117
6.31640625,-1.8220800780297048,1.0387784283388077
6.3203125,-2.2447881678748582,1.2752441374365562
6.32421875,-1.8819570565875994,-1.2193800918099926
6.328125,1.405169239287982,-0.715374395727744
6.33203125,0.4374777905044117,-1.0807823538077455
6.3359375,-2.448128954996905,0.9114241465085258
6.33984375,-0.5251610028242547,0.26626303424512743
6.34375,1.7805435208519633,-2.3386859503142787
6.34765625,-0.4956718595756501,-0.14195970992914683
6.3515625,0.32671772753510264,1.6298647041073513
6.35546875,-0.16611245948891057,-0.386915138193307
6.359375,-1.3281867334883801,-1.3658857169403853
6.36328125,-0.21225708591257555,-0.5739959306969129
6.3671875,-1.199982207225739,-0.21120806965410485
6.37109375,-0.3328151820476555,0.1269611099684933
6.375,-0.22901295890208634,0.8763365603038493
6.37890625,1.1244799935283676,0.8990729000615342
6.3828125,1.061064215131128,-0.6746338975782389
6.38671875,-0.12093886171085942,0.2889562701980671
6.390625,-0.763931973579995,-3.515843675985799
6.39453125,0.8681300967188416,0.08635746796808091
6.3984375,-0.24101328606873906,-1.3013980234275466
6.40234375,-0.04985480283937938,-1.316212599601516
6.40625,-0.8745677065388445,-0.42876019825013384
6.41015625,1.090708028954785,0.5378156061347176
6.4140625,-0.15401213040076236,-0.337904015864231
6.41796875,-1.198314629250412,1.2882316944983536
6.421875,-0.1258978433399911,0.3247457071613456
6.42578125,-0.9030173688562814,1.3938205353382604
6.4296875,0.0020028023526818626,-1.2640081915488397
6.43359375,-1.168521852866621,1.3744444343361928
6.4375,1.212494832081751,-0.915340516730001
6.44140625,-0.022086915388724312,-0.7914894472666222
6.4453125,-0.010191642700498719,-0.1433385686929059
6.44921875,0.4912478105792067,0.6203309282740845
6.453125,-1.4798652539131136,0.8925669898730592
6.45703125,1.5733480217242188,1.7739620312876696
6.4609375,0.4691160896329304,-0.8443058214900186
6.46484375,-0.9841525747200471,-0.6206125596368581
6.46875,0.31052614097033704,-2.5720248551580793
6.47265625,-0.09190425232278583,0.3462497530231696
6.4765625,0.03695810513430182,-1.165000773418784
6.48046875,2.5522980047412807,0.648293291713378
6.484375,1.6792458224368896,0.5967961628777945
6.48828125,-2.060639927385024,0.5770346894381262
6.4921875,1.2878160410921355,-0.6756947731269278
6.49609375,0.6229421058425786,1.0350075957737153
6.5,0.34024730319377366,0.6938439046051195
6.50390625,-1.3712995881104182,1.36136013109743
6.5078125,0.5792461260858663,0.3095120671635124
6.51171875,0.13426365813634836,-0.22994299666056187
6.515625,-0.07494525656579404,-0.4319010874479584
6.51953125,1.1766874741503681,1.2620885151689785
6.5234375,-1.4559145246737821,0.21479837013674707
6.52734375,-0.9971514841832659,-0.8319961216096687
6.53125,-0.352280176366139,-1.3640960378534006
6.53515625,-0.7244402620255548,-0.39301440777727487
6.5390625,1.221207597603333,0.19594513685672857
6.54296875,0.323938059560031,0.7064531359471686
6.546875,0.028687806717428113,-0.296393953215676
6.55078125,-0.6122570229847197,-0.08984605389903116
6.5546875,0.46831337768543807,-1.366437068335719
6.55859375,0.5488926352401245,-0.7154195077656031
6.5625,1.1754060412908718,-1.7129927735596686
6.56640625,-2.812987660320638,-0.7938648234221605
6.5703125,-1.028646077666146,-0.21547296116005535
6.57421875,-1.4502734198573146,1.0550074683987363
6.578125,-0.3351803615616471,2.1993116932724543
6.58203125,-1.1147912576995518,0.5262789259493886
6.5859375,-0.7281826249028033,0.025142897125062527
6.58984375,2.9163096267060205,-1.8279587575617595
6.59375,-1.342476167023221,-0.8803550923033755
6.59765625,0.8060548821561652,0.1192488015548514
6.6015625,1.9173294132729066,-0.23964996154510476
6.60546875,1.1817589549517233,-0.09510571215117032
6.609375,0.11596567414155302,-0.7183900683313623
6.61328125,0.034560092935338675,0.6215414982151605
6.6171875,-0.25872952667394855,0.18009486714042433
6.62109375,-0.9296962305123714,-0.7846463582234199
6.625,0.8387302928516427,0.6154349354868205
6.62890625,-1.4936625892405309,-0.7247271760426223
6.6328125,2.7898206012284725,0.12947075002810648
6.63671875,-1.4479200014520899,-1.001035482001202
6.640625,0.3180463161745395,-0.05186802130281227
6.64453125,-0.1536514409034879,0.17582165212802364
6.6484375,0.03925744419850288,0.5474811262405869
6.65234375,0.8744987713985851,0.48193372686066455
6.65625,1.1004368641416808,2.1171872535802243
6.66015625,2.183480397849222,0.6149474873876118
6.6640625,-1.9562972090726067,0.44380328957396553
6.66796875,-0.470229504162771,-1.5836357385557138
6.671875,-1.0979652805938072,0.21468745317383067
6.67578125,-0.02655163088880877,-0.11365503856882923
6.6796875,-1.3646204250623264,1.0527179479508089
6.68359375,-0.9206630798290093,1.2402175817395797
6.6875,0.693308655594368,-0.45837515025762576
6.69140625,-1.2191887777965464,1.1661576499077269
6.6953125,0.07309339942675848,1.398076180836381
6.69921875,0.18182688403584646,0.81297949672565
6.703125,0.17279025118282337,0.3580862439892143
6.70703125,0.4537711390261702,-0.2574071652294456
6.7109375,0.9134401705422578,0.7035621703894466
6.71484375,-1.2658315222023473,-2.1300280797710047
6.71875,-0.3950884493614996,0.7661874405161547
6.72265625,0.5449200739812923,-1.0413823440643775
6.7265625,0.42085756096354854,0.8863171182466584
6.73046875,0.07572413599715033,0.06916065754288844
6.734375,1.0239539339241157,0.2918776771647037
6.73828125,0.7544869414892673,1.1826001404238935
6.7421875,-0.022242187939087717,0.9447408984975032
6.74609375,0.27594248638823254,-0.9063265280186988
6.75,0.14380481525899083,1.167844891870713
6.75390625,-1.0381081345234642,0.21098621644502205
6.7578125,0.2915565802431213,-0.48566745313951565
6.76171875,-0.7303559265519312,-1.1700886543683255
6.765625,1.457064850059281,1.3488463795786356
6.76953125,1.010493064893356,-1.2357524328255
6.7734375,0.2427659157807285,0.14813632933162924
6.77734375,-0.8684379170727794,0.8712357024672103
6.78125,-0.2748090297538441,-0.20566122009375923
6.78515625,0.47527336830903916,1.684401808319633
6.7890625,-0.21675771445707134,-0.3300902764922501
6.79296875,-1.3668336940976171,0.5854785570048382
6.796875,0.42607526531600204,1.5415986462045552
6.80078125,-1.16021815617054,-1.3889209123020907
6.8046875,-0.0032524836334509163,1.141087421471123
6.80859375,1.0995096803049904,-1.1829246137364655
6.8125,-0.21057288424421947,-1.6113743803461584
6.81640625,-1.6485665757791816,-0.07514352376852329
6.8203125,-0.8507815034033241,0.35761705868142607
6.82421875,0.1653364370681263,-1.2471304465236672
6.828125,0.5206643914877129,0.07418112072502683
6.83203125,-0.866019971099762,0.10876568267754065
6.8359375,-1.4543982292404296,-0.5922332328684631
6.83984375,-0.16335119892889285,0.6565449675413687
6.84375,0.4662689912061695,0.7298872499659482
6.84765625,0.9502200105236371,1.0286687172252738
6.8515625,-0.7673509750673488,0.10413970945122447
6.85546875,-1.603795490164507,0.8756012432541326
6.859375,0.044945048228625224,0.6411624494003929
6.86328125,1.358080839689092,0.13913735243978342
6.8671875,0.052416943679938925,-0.3959989367318983
6.87109375,-0.8891485364105658,-0.716399679040324
6.875,-0.0029948603547327955,-0.15005866698266748
6.87890625,1.1051078188036365,0.7941661495375836
6.8828125,-1.2086964342033393,-0.452776981131574
6.88671875,2.320006752792526,-0.9858259395475953
6.890625,-0.12185551364902282,0.3450200380164169
6.89453125,1.2983075900137107,0.7345519055206384
6.8984375,0.9476477411234803,-1.6413466943009063
6.90234375,1.2400930922123359,0.57229194838846
6.90625,0.7837010066453803,-0.000787286033123364
6.91015625,-1.336185354623779,0.004264224709474628
6.9140625,0.015820686916735195,0.8495699586092503
6.91796875,2.123413579281393,0.28842897533856066
6.921875,1.374352601155243,0.5767443086397527
6.92578125,0.6717756517240481,0.3706326564290375
6.9296875,-0.3185775839682814,-2.6546221248985926
6.93359375,0.06482606475156495,-0.08120477342039076
6.9375,-1.7035450022214094,0.25566005765826705
6.94140625,-0.20392068241118125,0.2573964501143662
6.9453125,0.45689247280928746,1.5854229410470584
6.94921875,-1.3187506700979343,0.887957987674046
6.953125,-0.36568753970392137,-0.3099924461702524
6.95703125,-1.4270331322733347,0.7500489443259453
6.9609375,-0.32456737215625725,-1.7844424407944643
6.96484375,-1.643324014992253,0.06611697875653971
6.96875,-0.9438832180593772,-1.0606221658816644
6.97265625,-2.3129700648917026,0.542586655739271
6.9765625,0.2045120526646172,-1.448065369300626
6.98046875,-0.5544490266113091,-0.03587069468840187
6.984375,0.7949377765157757,-1.364065270284307
6.98828125,0.50365874681277,-0.6620179555978483
6.9921875,-1.2456392418631272,0.2313448777621185
6.99609375,0.9741332268029187,-0.07631622567837493
7.0,-1.3127834760830743,0.5385140277508141
7.00390625,-0.7774504329196029,-1.6043100198934854
7.0078125,1.6397164274047564,1.0372828143921866
7.01171875,-0.03817647178250156,-0.19432312698215987
7.015625,-0.6587758081728018,0.3757529848122014
7.01953125,-0.9146423999663742,-0.5215062178802864
7.0234375,1.4347145053069887,-0.8877851880351927
7.02734375,-0.466662135735426,0.5488462983281599
7.03125,-0.757172046908206,-0.6069481682527931
7.03515625,1.7667074618369922,0.6844979460699464
7.0390625,-0.8881214341402026,0.5406459222739746
7.04296875,-0.04017540620377489,0.8261036040899334
7.046875,0.42345709432230544,1.2605783646333777
7.05078125,-0.4498162000780655,1.4251654334191242
7.0546875,-0.34363813285112627,0.13498979041865114
7.05859375,0.49659736476831107,2.589660308634907
7.0625,1.885989917315565,-0.6383371533558254
7.06640625,1.670695961918227,-0.839119152547546
7.0703125,-1.6464714671617051,-0.2924873675097445
7.07421875,-0.49832913158522985,1.6339444914530048
7.078125,0.9047325413628271,-0.11421795602564419
7.08203125,-1.2454687848215065,-0.042713649320020135
7.0859375,2.2816620448360725,-0.6673370662050726
7.08984375,-0.37047027986147885,0.1659241946940192
7.09375,1.2473081006806308,-1.0163260586551495
7.09765625,2.9675842770688408,1.6691161887834067
7.1015625,-1.0101459968891477,-0.6880724872425306
7.10546875,1.4614887214910903,1.1046713535687225
7.109375,-0.5248975173707997,0.5038527468526766
7.11328125,-1.6761690904952309,2.1348708985199547
7.1171875,0.15383750548030375,-0.12132262096363756
7.12109375,-1.46441588429842,-1.29823424369222
7.125,-1.55059590213246,-0.09886130658738587
7.12890625,0.35994697088130023,0.38126756625142993
7.1328125,1.9539342477628654,0.12355767424490005
7.13671875,-1.388805135756698,-0.14649967884059398
7.140625,1.323675071086351,-1.1051100552323039
7.14453125,-0.3004082099359624,-0.13854936272169902
7.1484375,-2.558076194084711,-0.7484488689917278
7.15234375,-2.2784602677882226,-0.3733148376816344
7.15625,-1.1797052077681058,-0.28897953921005987
7.16015625,-0.10582844648971419,-0.5513047815203536
7.1640625,0.006298041467417557,0.118716429127543
7.16796875,-0.5194800422874276,-0.01837312934937735
7.171875,-0.9577834085420108,0.6064280528320359
7.17578125,0.8306198488730777,-1.2877227046133208
7.1796875,-0.7684767325101364,0.4141454082903286
7.18359375,1.6943568230573185,0.6892820130795941
7.1875,-0.34718489967670757,-1.1717318944389845
7.19140625,-0.7229148175661149,0.7132572194299409
7.1953125,-0.7027454921903887,-0.07000170362691119
7.19921875,-0.18804707554517414,-0.12866616290025035
7.203125,1.19684125887568,-0.22435388844321275
7.20703125,-0.8791720894694465,-1.7086583983653274
7.2109375,0.0577282048383078,0.15518410288179893
7.21484375,0.3525166825934585,-0.2712656577279297
7.21875,-1.0392493973568304,-0.3892803829380611
7.22265625,-0.14830907832752901,0.5211109082732632
7.2265625,-1.8332745981656309,-1.5263385658990911
7.23046875,-1.316526205931961,0.6482613593459795
7.234375,0.9620302375053289,-0.005460736097429833
7.23828125,0.4873779231453748,0.43460366439212367
7.2421875,0.8553380242321315,0.6194882332832021
7.24609375,-0.09480465953977836,1.0131104047557327
7.25,-0.8272285066621916,-0.09222077982732796
7.25390625,-0.15285124382644255,0.873509073891055
7.2578125,-0.4809480679180037,0.3692588123417803
7.26171875,0.502124222158258,2.177533533676361
7.265625,0.9710969054692835,-1.9480936952016386
7.26953125,2.2333994509276978,-0.16729557526015942
7.2734375,-0.8269430293659702,-1.901379569394069
7.27734375,-0.20267745688290287,1.0953866488751929
7.28125,-1.6254916307393164,-0.523824836647628
7.28515625,0.16955177408304306,-0.8732096140525838
7.2890625,-1.7380168878645554,-0.7080771433810813
7.29296875,0.5421196483490003,0.5002165318988465
7.296875,-0.6379654935655907,1.5971107061181307
7.30078125,-1.0792721386139856,0.16770002458312624
7.3046875,0.5244170333341869,0.10289314494964996
7.30859375,0.27465386307660344,0.36082871735022887
7.3125,1.380424909119739,-0.44757188055207103
7.31640625,-0.11191257272999187,0.09069531949983937
7.3203125,-0.23449617246676555,-1.3675427609006672
7.32421875,0.14032297716548406,0.8859658890983332
7.328125,0.7965173803723536,-1.4114399176148806
7.33203125,0.5395366573826776,-0.8931824428506184
7.3359375,-0.7179980664094182,-0.062313941836451614
7.33984375,-0.38973697362440907,0.5388122759676768
7.34375,1.05918624967131,1.6598216483589976
7.34765625,-1.8536085798039812,-0.8661707299313016
7.3515625,-0.5224005440722699,-1.1027970718240054
7.35546875,0.057320196975222004,-0.7664126156968194
7.359375,1.9155090804878696,-0.4856358279400034
7.36328125,-0.7149902969927335,-0.3673092427940979
7.3671875,-1.1728495850398155,1.411518656970063
7.37109375,-1.0104339288570892,-0.046795922896168976
7.375,-0.3773905432705264,0.08895091951262594
7.37890625,-0.2604136054561658,-0.6955755865059733
7.3828125,0.5877054456948488,1.8779724019571977
7.38671875,-0.3520910559384614,0.2103385592499652
7.390625,-1.6367544334414126,-0.20189678513482961
7.39453125,-1.548855828161793,-0.7191246451717835
7.3984375,0.6613130514787836,-0.20769654465789747
7.40234375,0.3622736800357767,-2.0544497319062547
7.40625,-1.3466389420553353,0.7241376780587244
7.41015625,-0.9798713465517511,-1.2585150829342124
7.4140625,-3.1578977852359067,-0.33994261692592176
7.41796875,-0.5405288643871414,-0.24752556745798612
7.421875,-0.662620811269987,-1.6660880450910582
7.42578125,-0.3794734951330063,1.6082925002207127
7.4296875,-0.01548641346334346,2.3019750356073354
7.43359375,0.14079968275724453,0.23566389536968627
7.4375,-1.111264414908865,0.45637340209500243
7.44140625,0.6064873488606819,-0.19573366007927775
7.4453125,0.41374306649793147,1.6720651198526424
7.44921875,-1.046303914095315,0.6527996638117737
7.453125,0.7520666060148304,-2.115489120465252
7.45703125,-0.9137013122005148,-0.4458061689841053
7.4609375,-0.4730118148973001,1.1072619212507904
7.46484375,0.4683500098043119,-0.2638438178719807
7.46875,1.6982935844157192,-0.3491737011916671
7.47265625,-0.5835544360856334,-0.9110660789209902
7.4765625,-1.071692530782504,-0.9362925747455324
7.48046875,-0.14587024944187924,-2.2090938858678766
7.484375,-1.0437573200697394,0.30536891962015633
7.48828125,0.22817637843325647,2.680532362267038
7.4921875,-0.402063792427557,1.0272575120621497
7.49609375,-0.5223720788283954,-1.7856154932545727
7.5,0.953071453676786,0.5978346755527121
7.50390625,0.49408996962884383,-0.7813716569325546
7.5078125,0.7014711188173374,-0.08510971176738563
7.51171875,-0.4768263527941715,0.8580188783670659
7.515625,2.129380150850914e-06,-0.5000877702776765
7.51953125,0.5135908074488759,0.9914980178729762
7.5234375,0.329856387775928,2.313128291702821
7.52734375,0.09012960744918881,-0.8320819140070482
7.53125,0.5384671338385002,1.731318407429254
7.53515625,-0.004470663913016449,-0.6998742118826379
7.5390625,0.36385746213817194,-1.7939204435962581
7.54296875,-1.3511632087274494,-0.7828566211288012
7.546875,0.49052778574100553,-0.5178861890857858
7.55078125,0.1391924120534433,-1.0459623585330413
7.5546875,0.5227069699766849,-0.7253199191189654
7.55859375,-0.2031398704639744,0.7157520375904832
7.5625,-0.7933389420708067,-0.7964866324605594
7.56640625,-0.40567453081441895,2.4834658463382495
7.5703125,-1.8037948369895,0.5977806554154892
7.57421875,0.6261065747709108,-0.1633539641538003
7.578125,0.14344923737729054,0.9324252800048504
7.58203125,-1.42591054747813,-1.8727287933567418
7.5859375,-0.04975446151703607,0.4218497787538394
7.58984375,0.6345386545894747,0.6410299879494857
7.59375,-0.36499619456308,1.1424985604419313
7.59765625,2.444787178705899,1.1063881575716943
7.6015625,-0.5017282489312693,-0.8870178527773034
7.60546875,0.5342764726371401,-1.6077824277676531
7.609375,0.22864600266917617,0.009676893422802648
7.61328125,-1.0552071869618302,1.47532388384616
7.6171875,-0.5069937840107517,-1.2550454848871175
7.62109375,-0.5479289054610664,0.9503884706809804
7.625,0.9123123147641414,0.8102436717990393
7.62890625,-0.3230483926311838,0.6019217618631086
7.6328125,2.0155289083580636,0.6897758353451481
7.63671875,-0.31055427508049455,-0.31946554080896916
7.640625,-0.5229115466193912,0.8294276870681782
7.64453125,0.699949426548783,0.18785730389753
7.6484375,1.4884381377263436,-0.49964718849433115
7.65234375,-0.28424747037761233,-0.13737107455519737
7.65625,0.7491244285368459,-1.9574306698666344
7.66015625,1.441461094632808,-1.7267376829307794
7.6640625,1.854896636597551,0.6241699019399405
7.66796875,0.4128784165802115,2.4518762040765107
7.671875,0.638432642199308,1.6732945182345706
7.67578125,0.5383279087586121,0.7030327638416187
7.6796875,-0.5234596893933895,1.2167991095227455
7.68359375,1.0800074134576438,-0.7839083503834035
7.6875,-0.8722782376269484,1.207348443003188
7.69140625,0.11534035845238523,-0.31356565495769667
7.6953125,1.5086827881490492,-0.8579332113155069
7.69921875,-1.556160365241729,0.31135233093435827
7.703125,-0.08624505151159925,-0.9153910280740979
7.70703125,-0.5983773706169749,1.6718616709788263
7.7109375,0.3743448668428159,-0.4326432185036764
7.71484375,0.1653537441927856,0.4993892949271449
7.71875,0.7077807807364594,0.3627342468688118
7.72265625,0.92503895774151,-0.6402265754161118
7.7265625,1.7523280945295048,1.9436070939457146
7.73046875,2.1780597768071845,-1.2820341751818973
7.734375,0.22977924060823618,-0.3663681626487512
7.73828125,-1.6562850883532405,-0.6973840470889597
7.7421875,-1.1373333788370377,-0.1663320452980578
7.74609375,0.3069436815755372,-1.947885861921942
7.75,-2.700951741057928,0.01631450648711995
7.75390625,0.21435762329655078,-0.4640207307619471
7.7578125,0.19583863781020738,0.5643809451366207
7.76171875,-0.5277282270140111,-1.1002841222161992
7.765625,0.5171749663755342,2.109618120463495
7.76953125,-1.814451375070493,0.6403700330220377
7.7734375,-0.6527851430968503,0.2552289854064414
7.77734375,-0.468710733629568,-0.37096930199873435
7.78125,2.061628195397922,0.3402260740175395
7.78515625,-0.2956184214731519,0.721771469929798
7.7890625,-0.6154596379056251,1.3952150887669437
7.79296875,2.024532696647915,-0.800710385763565
7.796875,-0.19935664737492123,-0.2564940285642637
7.80078125,-0.3863915707645156,-2.3806112617480504
7.8046875,-0.7189658201630176,1.6603980356857035
7.80859375,-0.6187151146900854,1.6078883331527287
7.8125,1.3782650624370543,-1.4892030164542012
7.81640625,0.8230887124798294,-0.42032782839592436
7.8203125,0.6111826431921883,-0.07197700114241158
7.82421875,0.9312724217037268,-0.6169089237571176
7.828125,1.6256261678114916,-0.32779537940626063
7.83203125,0.8159187570210913,-1.5745698185993147
7.8359375,0.06280566344518393,-0.41837928257443174
7.83984375,0.7575416401909683,-0.2248288212135795
7.84375,-0.700021711398329,0.31372091350448383
7.84765625,0.984538730957998,-0.15776170109810045
7.8515625,-0.261283503708861,0.5829684777508896
7.85546875,-0.12395140319450935,-0.32883361846742115
7.859375,1.6535458248142578,0.32154373146760784
7.86328125,-0.43659343385046795,1.9856966304608192
7.8671875,-0.8333002182699014,-0.44602715863328424
7.87109375,-1.5571988422436407,1.4235863450865582
7.875,-1.4139698196055768,0.6678529277068099
7.87890625,-0.7161933327836207,1.3227589359448537
7.8828125,1.047905132689017,-0.8040611973538623
7.88671875,0.5347675170715819,1.5361642095044619
7.890625,-1.230381623234009,-0.21161668110092027
7.89453125,1.6477828727907262,0.15318331170027236
7.8984375,1.0176378092179768,0.0660337404482073
7.90234375,-0.16990510034487688,0.7722975202499571
7.90625,-1.9367553225254306,-0.796439270018179
7.91015625,-0.4869960754173203,-1.2175306582620853
7.9140625,-1.2853786950984682,-1.3086779826623964
7.91796875,-0.16628425138686884,1.9466609895109608
7.921875,-1.1361403517263302,0.45969808119139
7.92578125,0.05342808101993943,-0.1852682297172835
7.9296875,0.02193253879605015,-0.1059854609814483
7.93359375,-1.738897115465003,1.48231902490508
7.9375,-0.28340983717422785,1.6174940802293511
7.94140625,-0.45683928615831226,0.06376157070091971
7.9453125,0.6705610032910814,0.22548338102908083
7.94921875,0.44930255840062283,-0.4182375381750998
7.953125,0.24682447018031678,0.43899313209846214
7.95703125,-0.24376770778370765,-1.8606185045789259
7.9609375,0.3048084234532319,0.22931688819875848
7.96484375,0.8927710314981167,0.4648938443648503
7.96875,1.963267683647102,0.01961273230530801
7.97265625,-0.8238184751335781,-0.5364021350261189
7.9765625,0.27536642571311465,2.321684026940705
7.98046875,0.9018580484412163,-0.6113977302164763
7.984375,1.9049759592450544,0.16500110662650866
7.98828125,0.7066281646155687,0.45823148104039746
7.9921875,-0.567967885520086,-0.8013613726655774
7.99609375,1.318627287501131,1.3024470857998969
8.0,-0.033908823830501804,-1.2124815842312948
8.00390625,0.6679311431755203,1.207719632375691
8.0078125,0.46846004233412375,-1.1612895810400055
8.01171875,-1.2925955358199954,-0.8150361543034624
8.015625,-1.0661607848327312,0.9932973860737725
8.01953125,-0.17820250972227067,0.2887704225409714
8.0234375,0.3074748180965546,-0.16533229344917108
8.02734375,-0.8280201782289999,-0.5996189309131448
8.03125,0.2714089126844346,1.0336800903103198
8.03515625,-3.4267231652943977,0.6874616477840484
8.0390625,-0.648443771439761,0.2874058594789042
8.04296875,-0.20078750428605519,-0.37779999268220327
8.046875,-0.25025895841879797,-0.07656141485695611
8.05078125,0.9476082424243145,-0.6797213957375794
8.0546875,0.19259178357752238,0.27325759876495254
8.05859375,0.42438445706808986,-0.7120432378344873
8.0625,1.1547509975065664,-0.6263875791369649
8.06640625,1.0811226182308362,0.7360808565926867
8.0703125,1.0596344182274027,-1.8464287718358652
8.07421875,-1.2467634825411913,-0.013993060502992875
8.078125,-0.0067292958075028855,-1.2729183882163682
8.08203125,-1.5656208379885348,-1.5390345386100652
8.0859375,2.241148053960225,-0.9561601155381091
8.08984375,-0.2790685147555074,0.610748666436681
8.09375,1.7336394323573285,-0.7123759517431183
8.09765625,-1.1915189729324152,0.527201307271443
8.1015625,1.8521947795054483,-0.5780989248225972
8.10546875,0.7874385207372882,1.2000731191438996
8.109375,2.021230228729983,1.0368597940610185
8.11328125,-0.6064761603304416,-0.1588801660672484
8.1171875,0.9007762866612488,-0.49419907160879095
8.12109375,-0.9689248795221346,0.04576591532854555
8.125,-0.22392664829286718,-0.11351391000888437
8.12890625,-0.19619499363647977,0.2844960285431258
8.1328125,0.9643616275113265,-0.661156503300586
8.13671875,0.3615962829238761,1.0353987954659751
8.140625,1.0741519511226676,0.19364445941941041
8.14453125,0.08221014284269328,-0.7142406278859887
8.1484375,-0.017859197917555986,1.7987902638595556
8.15234375,0.10267544350099116,0.3760052509330699
8.15625,-1.057266113938909,0.8116079033630832
8.16015625,1.3908086344374164,0.31158800684736376
8.1640625,0.4259365866757472,0.45637027432352517
8.16796875,-1.2138822008393095,-0.35470588971699907
8.171875,-0.13820943327392068,1.1696947604706036
8.17578125,0.274117829086211,0.6915652852970788
8.1796875,0.44107941737574347,-2.3136278235697847
8.18359375,0.15245883799838444,-1.461111780953844
8.1875,0.1371470118992308,0.7261854338246607
8.19140625,-0.2534361154146087,-0.02020315695652043
8.1953125,-1.7671693454353843,-0.10671481752036002
8.19921875,-0.7751677290954745,3.248245457221898
8.203125,-1.1537336395564146,0.799609986907482
8.20703125,-1.2399386521096412,0.18284126257096897
8.2109375,0.9899819283406738,0.25131077578751426
8.21484375,0.6438884937885826,0.4057160298099611
8.21875,1.2663651972082348,-0.22119624437353472
8.22265625,0.4851278880890518,-2.785155824849997
8.2265625,-0.42489800866615846,1.3111754710128039
8.23046875,1.4577863763451737,-1.0658465186558512
8.234375,-0.11639043707517163,0.5676636806905042
8.23828125,-0.4777586231769523,-0.5274144070258101
8.2421875,0.2494850226799094,-1.0949943537247575
8.24609375,-0.8822961840637548,0.24636843753998253
8.25,-0.1321017376061036,0.13083061046354244
8.25390625,-0.04145926449752273,-0.6300210217188877
8.2578125,-1.1000163030862444,-0.0018968365130151703
8.26171875,0.9642446264449074,-0.7591317586675115
8.265625,0.1635458478585311,-0.700420886593839
8.26953125,0.5910122663697769,-0.1294992935920131
8.2734375,-0.5267626199434742,0.056590823850669096
8.27734375,0.2786696329933544,-0.050026581658627015
8.28125,0.22786678787113737,1.010227516691801
8.28515625,-1.2697714319480973,0.1710376201908591
8.2890625,-0.8166274182632537,-0.522699605919957
8.29296875,-0.2239579480068405,-0.641032245446858
8.296875,-0.8766357605930871,1.7295769277235982
8.30078125,0.393520827255207,-0.4262608581518775
8.3046875,-0.5437046676778728,0.5843959367464086
8.30859375,-0.6454429579565769,-1.1571224808170226
8.3125,-0.7954248560015524,0.7375005994113407
8.31640625,-0.3749497519386367,1.323262732645081
8.3203125,0.10281118824603176,1.479806251309424
8.32421875,-1.4141458126376212,0.9756285187177169
8.328125,2.247093339628207,-1.6379348607887798
8.33203125,0.1795025513547554,-1.0749557093514361
8.3359375,-1.2032967315863254,0.24965390012877803
8.33984375,-0.8519583807536935,0.1654251744212549
8.34375,1.5188276140178676,-0.21572485951054846
8.34765625,0.5287117600961784,1.134955599042263
8.3515625,-0.8018692960834745,-0.7271118686418239
8.35546875,-0.05933751313245907,-0.4635281002339534
8.359375,2.2379438241100438,-0.05580582468208356
8.36328125,0.3688257174040034,0.07847780847234473
8.3671875,0.4395730525854036,1.102539759737135
8.37109375,1.93518031217791,-0.7484719760530575
8.375,0.07163183196232695,-0.7527460229396983
8.37890625,-0.8831327305305936,-0.5053392623430543
8.3828125,-0.747546661000549,0.15483151364639797
8.38671875,2.251302689551113,2.2465516264551892
8.390625,-0.6592068198028361,0.820271158136977
8.39453125,-0.4036980990510914,-0.4134934779742153
8.3984375,1.4720890369158641,-0.6763052908974864
8.40234375,-0.7329670304225705,0.014650315689179879
8.40625,-0.5816186670683337,-1.6984215124869668
8.41015625,1.67046278730075,0.14555715373224198
8.4140625,-0.967994363217265,1.4357638678444316
8.41796875,0.022020620949991198,0.4001558956360282
8.421875,-0.28295298278648556,1.2025762914156997
8.42578125,-1.284863336227011,-1.5852487459541864
8.4296875,0.2814082825524349,0.4075696149198049
8.43359375,0.37096197405040887,-0.9945535576798623
8.4375,-1.25722177817458,-1.2477059877038177
8.44140625,0.021436320826397022,-0.48945622212480894
8.4453125,-0.25353816865965056,1.959047308434928
8.44921875,-0.05702497529005729,0.02773345141997365
8.453125,-0.34779685349815503,-0.1336746919578766
8.45703125,1.5148641283970623,-0.9521321162753777
8.4609375,-0.98707583352111,0.2814938820022179
8.46484375,1.055833073576943,-1.0007598670242035
8.46875,-0.13038249076541888,1.3141954698580227
8.47265625,-0.06781541860601192,-0.3037116354851497
8.4765625,1.3962783208615523,1.5414132303384314
8.48046875,-1.4795811941952324,0.70990445124625
8.484375,0.8707105544754049,-1.1640269681456132
8.48828125,0.806409452256248,2.0537849896635154
8.4921875,-0.27808690381684703,-1.2196591020806578
8.49609375,-1.2969030511539004,0.08551725546332012
8.5,-1.3202821043012773,0.3580352181830847
8.50390625,-0.5697367129891285,0.2395053458775445
8.5078125,0.13160263594329408,-0.35010361940715296
8.51171875,-0.44595101716019503,0.3218222280964803
8.515625,1.5974156795165086,0.07283361030228257
8.51953125,0.9158832589910113,0.41016821952405264
8.5234375,0.8336475939249114,-0.08418870439890827
8.52734375,-2.2324026311226812,-0.013961706354848537
8.53125,-0.2896522515532424,-1.4295414097903614
8.53515625,-0.4656040347808706,0.8602290164371358
8.5390625,-1.6268668032191445,-1.4456158699383308
8.54296875,-1.2584234870178597,-1.9674739355356285
8.546875,-0.38273190105685234,-1.8020728015250558
8.55078125,-0.3050527773221928,-0.1542416796907494
8.5546875,0.6210437317808432,-0.1457805748971496
8.55859375,0.751416342671102,1.8121823599988816
8.5625,0.8283068925436893,0.05154753734074406
8.56640625,1.4604887365389596,0.16594242352339258
8.5703125,-1.6913086500457502,0.2367184028311867
8.57421875,-0.6264663674708336,0.9956958139668682
8.578125,-0.6148065975465524,0.7387398918866306
8.58203125,-1.381228244799497,-0.10524496333660772
8.5859375,-0.0720085799625199,0.23871261356668494
8.58984375,-0.8766232475843566,-0.003815421396594401
8.59375,-0.9371373102439076,-0.7011960018601185
8.59765625,-0.9976404760320774,-0.2654462890117839
8.6015625,0.32034448353603123,0.9440043146679333
8.60546875,-0.03026871999803768,-0.9816890323087184
8.609375,0.22218957789690863,0.48297633915211236
8.61328125,0.08877524226624277,1.0556507831607413
8.6171875,-1.2733816892443373,0.623455349591403
8.62109375,-0.19538517994509808,0.4305673266615915
8.625,-1.7082095988173105,-0.3784018672088874
8.62890625,-1.5086237198851793,0.22863584486910313
8.6328125,-1.18516937967165,-0.8079461621957436
8.63671875,-0.6561366656744764,-0.7777749435982195
8.640625,0.5631725366512247,-1.4776637807011876
8.64453125,-0.7819240245022087,-1.5698608411375694
8.6484375,-1.1616762467416422,-0.8619311309310469
8.65234375,0.4511390141149415,-0.21068211199851733
8.65625,-1.4051609580791462,-0.6497308603781593
8.66015625,0.5447842549809218,0.41436199557931275
8.6640625,0.12478642386717342,-0.5319449580924379
8.66796875,-0.8660896928771743,-1.3582371504047495
8.671875,1.4499441595295877,0.6712250965816124
8.67578125,0.5882747977372821,-0.8430383624585663
8.6796875,1.3070112766969104,-0.6500287928718781
8.68359375,-0.5112580482739755,1.2648917408469817
8.6875,0.6097833561518894,-0.7034059815495026
8.69140625,0.26895935792614073,-0.23133361210206652
8.6953125,0.6208923711383995,0.5124553097848906
8.69921875,-0.29206029192206584,-0.1662072510110615
8.703125,0.73613440805768,-1.2581362362256638
8.70703125,-0.7363351991897117,-2.1111147971379087
8.7109375,-1.4914153204960572,0.38274443343729325
8.71484375,-0.9035448759222061,0.6323241937935488
8.71875,0.7610663140339533,0.2486729635248167
8.72265625,1.2414508060669178,-1.4867219239969818
8.7265625,-1.1556746964355358,-0.7664587779180266
8.73046875,-0.4557846493347934,-1.0227063146186108
8.734375,-1.0355138855702846,0.4351963426805846
8.73828125,0.5795649564731282,-0.28906412897233014
8.7421875,-0.3419314802837211,0.7644963294737616
8.74609375,-0.47061858949933755,-0.7516953157570897
8.75,-1.2981269179851431,-0.6000317819385779
8.75390625,1.9810254348594352,-0.2663515362708454
8.7578125,-1.4077645671913237,-0.5220275359547296
8.76171875,-0.2544510810450541,-0.6818049228943779
8.765625,0.5308617559441897,0.1749682581872285
8.76953125,1.449557209427558,-0.6504506546124311
8.7734375,0.047943576192968705,-0.6773166598964246
8.77734375,0.4195190661360199,-0.8714503453417747
8.78125,0.7616302818502487,-0.21416587157109968
8.78515625,-0.1126086608048557,0.7916482468044451
8.7890625,-0.668574277879016,1.3988884801659254
8.79296875,-0.2820469207130249,0.5070174553150928
8.796875,-0.046478703997760475,-0.6474688329107785
8.80078125,2.3117716874971515,0.14400941057042096
8.8046875,-1.1456887768628548,-0.33310384351152716
8.80859375,-0.2812697342452744,0.624015042200266
8.8125,-0.8871741971945001,0.2946958716352545
8.81640625,-0.9177129837068962,-0.12280406086364733
8.8203125,-1.8628067023782435,-0.184111115316937
8.82421875,-1.2904712477180942,-0.764669515168864
8.828125,-0.01084428587989263,-0.5772924775814222
8.83203125,0.09078456499402768,-1.9575900793425225
8.8359375,-0.416708143261906,-0.7578217031270043
8.83984375,-0.17904283113864652,0.32922055534206063
8.84375,0.6670553803698517,0.2218813427858518
8.84765625,-0.7877448704400751,0.7649681379449197
8.8515625,0.9284766308542536,0.08288383408803761
8.85546875,0.30755292351260005,-0.8356737329361946
8.859375,-1.613746998394547,-0.45569528155039174
8.86328125,0.9562048940993468,2.1932096002875303
8.8671875,-1.9800278303180285,-0.1175956239693928
8.87109375,-1.6964008503021644,-0.7836524877991006
8.875,2.0649208157750647,0.88948036315728
8.87890625,0.6557502975737728,0.1941591189688195
8.8828125,2.076744694214954,-0.7345290695122705
8.88671875,-1.5066893911540549,0.5350906083966962
8.890625,0.6388686061992084,-0.16314674853002276
8.89453125,0.3448047363294492,0.41132082199752334
8.8984375,1.2123873709866122,-0.3718559647594504
8.90234375,-0.8739171150570625,-0.3553977051723232
8.90625,-0.3126501864429784,0.26704796469996384
8.91015625,0.387773360108408,-0.3436512960750174
8.9140625,-0.12300418906953146,-0.7438613208677063
8.91796875,-1.0444177870129656,1.2674003685241917
8.921875,1.559235977604878,-0.02912687582613905
8.92578125,-0.3467625205985054,-1.2529583397945672
8.9296875,0.3804810005658881,-0.090541620765957
8.93359375,-1.370704457370509,-1.5000674609457805
8.9375,0.9569944993057726,-0.7180305870196237
8.94140625,-0.0074928775126264025,-0.27978989812346994
8.9453125,2.028290431261159,-0.22497126199455397
8.94921875,0.09788283928514448,1.1705509962909357
8.953125,0.2113055394212596,0.6092445132827513
8.95703125,0.4358867587290616,2.033595348953106
8.9609375,0.19761428884019586,0.3906519727500828
8.96484375,0.8695303777021567,1.6311459805022874
8.96875,-0.16250587703264283,-1.0383031736914556
8.97265625,0.3716681998835573,1.222113972228779
8.9765625,-1.768920539102394,-0.01598555886525188
8.98046875,-0.2593527780792232,-0.0271843280861273
8.984375,0.2945961281032554,-1.4728009710157475
8.98828125,-1.5816669624774384,1.5545351256215816
8.9921875,1.9524636952694467,1.5715073326455975
8.99609375,1.8061394742585575,0.4707310516830689
9.0,-0.8902432270682956,-0.308855036941293
9.00390625,-0.7503662490594987,-0.18703268470102982
9.0078125,0.685287981649308,2.053814433965296
9.01171875,-0.5150910014852211,0.9682132022476941
9.015625,0.8532482159587991,-1.9611792438217055
9.01953125,-1.0432801250002668,0.06965572700278959
9.0234375,1.974819748247984,-1.1803783741986251
9.02734375,-0.5001578569534995,1.7537192467185012
9.03125,2.6621944960021517,1.582745278915266
9.03515625,0.7100036499784552,0.25972686504922504
9.0390625,0.38568010802499963,1.35019283246872
9.04296875,0.4662720716249192,-0.12047040416586983
9.046875,-0.4374969511071535,1.5632009774254427
9.05078125,1.1806170188834788,0.9499785721530288
9.0546875,-0.5700211031671798,0.39886239105922616
9.05859375,0.7762779055209554,2.6425530123254517
9.0625,-0.8782439677160861,0.20579739577232006
9.06640625,1.031573036761279,-1.437165520801426
9.0703125,-0.8287624151503796,0.5354140341483785
9.07421875,-0.3880893440790414,0.1452189492423657
9.078125,0.8256537140164711,-0.5619600177209625
9.08203125,0.35056372096814925,-1.0908171079194915
9.0859375,0.261243253093965,1.6872122641143774
9.08984375,-1.9027168443924518,-0.04265231408022611
9.09375,-0.8768210668463667,0.79051574229741
9.09765625,-0.8306802339874115,-0.3288918282586631
9.1015625,-0.08682211074756312,1.1561243136554944
9.10546875,0.35728614231143574,0.5887316139976646
9.109375,2.412899268532837,1.2684300564648026
9.11328125,-0.9727394877357859,1.565018195885194
9.1171875,2.221036736758714,0.5915973075069192
9.12109375,0.42834354566510313,0.5208903386035466
9.125,-0.6550015540453081,0.6389544575375594
9.12890625,0.1914627784721369,1.664900348264122
9.1328125,2.460113115096342,-1.1382861478525435
9.13671875,-0.43263613248513483,0.967101399065977
9.140625,-1.102505495265836,-1.9652710434269498
9.14453125,1.5761795988998366,-0.19279073614533002
9.1484375,-0.01873056299970563,0.5930578675617518
9.15234375,0.24523081661619248,0.8052468153733593
9.15625,0.9356625617683193,0.006194555236511738
9.16015625,0.9782523263557835,-0.6897372983235878
9.1640625,0.4505236674217529,0.9322144489483174
9.16796875,-0.23095473032096886,-0.4768366355786132
9.171875,-0.515672662355757,0.566280648575148
9.17578125,-0.22777857257318038,1.4349199936169958
9.1796875,0.7027091863986294,0.1841183302486898
9.18359375,0.5868842889989307,-1.695188392146735
9.1875,0.46266820205866793,-0.13973021482534614
9.19140625,-0.4559179430037704,-1.2814284350545329
9.1953125,-0.18027747649408704,1.3488374996678834
9.19921875,-0.5906725523855086,0.2536303471344031
9.203125,-0.7643339753022332,-0.2455489823776906
9.20703125,-1.6792408532360852,1.465960663080354
9.2109375,-1.444722643801639,-1.2315067750084767
9.21484375,-0.3649196376915618,0.84307515005468
9.21875,1.6674869134506742,0.27307278634797677
9.22265625,-0.5680476292583091,0.367430151442245
9.2265625,0.7548072160521184,-0.9251044726981745
9.23046875,0.7050034072338675,1.939559963222035
9.234375,0.7747184957175323,-1.0656110701346397
9.23828125,-0.4445413679550274,-0.8935733896494754
9.2421875,-3.073400722387297,0.6262704191315575
9.24609375,1.0625824391532892,0.2415967302925844
9.25,0.2616150976633596,-1.8467398019168328
9.25390625,1.7634174893588326,-0.10250946178173397
9.2578125,0.34105459460532844,-1.406737349643002
9.26171875,1.6203624819021292,0.13081777605142697
9.265625,1.2641500314510747,-1.4467426146351696
9.26953125,-1.5875318417488167,0.9441197793340025
9.2734375,0.012768411392957035,-0.6614696282251575
9.27734375,0.13593291823207412,0.9580766045755806
9.28125,1.0905340819880316,0.08691613616579927
9.28515625,-0.5204825409713381,-0.3799544003968791
9.2890625,-0.11713829062653816,0.7233106368862626
9.29296875,-0.15846101006169064,0.468406636664959
9.296875,0.45198030735548045,-0.29207859448446677
9.30078125,0.10304800720076335,1.2363458303901687
9.3046875,-0.18885954144178174,0.7639382958197837
9.30859375,-0.763459432265185,0.40008243734812304
9.3125,0.01120765594484604,-0.6172185026408227
9.31640625,0.08969140080513235,-1.2873968715557151
9.3203125,0.06336458778297409,-0.6637842161844782
9.32421875,1.6887248527803187,-0.5966871937263081
9.328125,1.1830158622074634,0.38794867877909667
9.33203125,0.25899666733531757,-1.4410601666468787
9.3359375,0.61450626526513,-0.10459793659506911
9.33984375,1.4332061358600694,0.4645951490769044
9.34375,-0.4952334944970945,0.08969907433160564
9.34765625,-0.8775154321708957,2.5379689121606597
9.3515625,-0.8909368829913509,0.5704409298778566
9.35546875,1.711520967180561,0.1700997518176909
9.359375,-0.06818579820001583,0.2400429376385522
9.36328125,-0.04596484352935915,-0.2948220531810226
9.3671875,-0.7043790992351903,1.367728515226875
9.37109375,-1.6589235993209854,0.5388404154564544
9.375,-1.6749801964063766,-1.270037599812581
9.37890625,-0.8407771989301023,0.2644564385958392
9.3828125,0.3262512940624082,0.7364901012542239
9.38671875,-0.22369744788807397,0.22239210302086918
9.390625,1.5826429437446008,0.7871327804202423
9.39453125,-1.1125355634398066,1.2486607294468812
9.3984375,-0.2862735551267322,-0.47520001385737953
9.40234375,-0.6225792399733825,0.8048283258393326
9.40625,-0.4664434603012617,1.3135453405937985
9.41015625,0.03829484385439925,0.3548939597060701
9.4140625,1.0498936799100917,0.2234629653814672
9.41796875,1.698534082714623,-0.2602955463737638
9.421875,0.1182585788134206,-1.620789520797877
9.42578125,-0.3621606567154924,0.9065597544031295
9.4296875,-1.7994418143656672,0.3216071994243245
9.43359375,-0.4894704134499446,-1.8488587109670689
9.4375,0.2981350127823452,1.2615560159407426
9.44140625,-0.468109707661987,0.4763283627383641
9.4453125,-0.4161925211873931,0.6365951920118095
9.44921875,0.1287744252523076,0.12170129163917912
9.453125,-0.7881999300637521,-0.04620088740021503
9.45703125,0.23903741928992836,0.06481355383311825
9.4609375,-0.41807536825967145,0.23350094704158592
9.46484375,-0.7860411064915374,-0.22301304492509205
9.46875,0.7041224895460029,-1.6565839193174798
9.47265625,2.7449694474759587,-0.29686204475710437
9.4765625,-0.2652953124990093,1.4140914079927016
9.48046875,-0.47235952619886773,1.0929224024813022
9.484375,-1.8925898788815114,-0.37422824346292777
9.48828125,0.5941289817099333,-1.6228972074351795
9.4921875,0.16081299982091243,-1.109745343288702
9.49609375,-1.158757626595332,-0.8288890853557273
9.5,-0.33864033782247144,-0.3089828148310893
9.50390625,0.4037145736471542,-0.051784374624946686
