time,ecg,ppg
0.0,-2.789548028143173,-0.004094326227642411
0.00390625,-0.305002859091258,-0.6976699026301425
0.0078125,1.5589348351252583,-1.400063893946787
0.01171875,-1.1072879433875433,0.30133310489399573
0.015625,0.7439078403702136,0.2823288244378075
0.01953125,0.8738668355805774,-0.2914874286625748
0.0234375,0.4313459702812982,-0.4348587508200962
0.02734375,0.6385143006109181,0.3055639178785308
0.03125,-0.1065973006364036,1.0078402436360172
0.03515625,1.7065055969706466,0.04937482777549145
0.0390625,0.0029466399865790854,0.6691773575884243
0.04296875,0.3810535266459725,1.004617703508255
0.046875,-0.670017790256869,0.2827619449506788
0.05078125,0.7422335707436292,1.6357888571440768
0.0546875,0.6111713474594422,0.2657826203420507
0.05859375,-1.4227379885515676,0.9789712272214603
0.0625,0.3850605607065178,-1.2665139406745423
0.06640625,-0.14827339515805424,-0.5643196697734454
0.0703125,1.5625088446811137,1.025610064707777
0.07421875,1.1067209550727168,0.05938271148724303
0.078125,-0.26670244882344946,0.15467142961880614
0.08203125,-0.20129317621905135,0.48157098596264675
0.0859375,-1.4809761566170863,-0.3005422882705036
0.08984375,0.5772558095768682,-0.9922861646588303
0.09375,2.1766204714498687,1.208069424468503
0.09765625,1.5756439138290832,-0.4259409863903804
0.1015625,0.9689924514836448,-0.22782232152771317
0.10546875,-0.6790591626814231,-0.14536682057147385
0.109375,-1.1191252669541547,0.7670782234599384
0.11328125,-0.7283759441380144,-0.8257198060716108
0.1171875,0.379364122126855,-0.35328457833181914
0.12109375,0.07236928830056431,0.7281962514620285
0.125,0.017064573661021768,-0.005892952613188464
0.12890625,1.8285942325206666,1.4817052781681168
0.1328125,-0.28180535948038904,0.5583823006242029
0.13671875,-1.457147865970601,-2.3256594901321006
0.140625,2.9630102700440575,-0.187047304201235
0.14453125,-0.2376256300510763,1.1746373838260755
0.1484375,-0.26101600761399785,-0.6838480127410805
0.15234375,-0.014715321328163822,0.4044580545749851
0.15625,0.6552015204846536,0.7169196377331424
0.16015625,1.3895274993752527,-1.7381258429666568
0.1640625,-1.11612491307663,2.6811748087633656
0.16796875,0.14244938313632383,2.201556065177653
0.171875,-0.5361924154543123,0.43417478953363364
0.17578125,-0.19397551871131916,0.38691898873035574
0.1796875,-0.018654845303608076,-0.18024708746783683
0.18359375,-1.9367917600010631,1.2839154183153692
0.1875,0.5058679945901202,0.5086267904114213
0.19140625,0.05100131146018562,-0.77999564262459
0.1953125,0.6873627684054884,-1.1967078232053128
0.19921875,1.623521327538686,0.15259215595245124
0.203125,-0.05635187649183479,-2.362866243063652
0.20703125,0.2628083313844916,0.253871915593802
0.2109375,0.8039470931658852,-1.0020541321316252
0.21484375,-1.0952290468605428,2.0147105742771076
0.21875,-0.05987722199798097,-0.9715320492727242
0.22265625,0.2095229259536528,-1.8041690875234002
0.2265625,-0.9242113711590453,1.2787463125287912
0.23046875,-1.8929532433054128,-0.36795013515346076
0.234375,-2.3048943053487627,0.6026632198813142
0.23828125,0.8930373889116309,0.492403429913922
0.2421875,0.8424522671817508,0.465421333145284
0.24609375,1.1934855139878429,-1.2115297751939198
0.25,0.38430303078968225,-0.5126898412564906
0.25390625,0.5371619086728834,0.6305670060941471
0.2578125,-0.5470782908606426,1.8604390744998194
0.26171875,0.9981187870629163,-0.9773544555025652
0.265625,1.86484929526038,-0.9338019208932364
0.26953125,0.3195600547266769,-0.6195667465730322
0.2734375,-0.7675641319958608,0.2046527360561815
0.27734375,-2.3428828027320376,1.3362942630991212
0.28125,1.2480793926939215,1.1346386667398138
0.28515625,-1.4822761660957973,0.3347836096908254
0.2890625,0.088613561976583,1.4494512683693885
0.29296875,-0.27698264900384667,-0.9775940160733365
0.296875,0.9922160902334399,0.6670529079306646
0.30078125,-1.7924548316574496,0.7562187045062108
0.3046875,0.18091226870794694,-0.41102153681648973
0.30859375,1.181985128511188,0.6989088776540988
0.3125,0.9683914611765024,0.035851882065928785
0.31640625,-1.0005236940200128,-1.9854085159700228
0.3203125,0.24762306955351787,-1.7659980663781834
0.32421875,-1.3559746582678784,-1.1072244644092302
0.328125,-0.7896154081639559,0.20203218962259512
0.33203125,-0.21013650027236716,-0.29781484908303385
0.3359375,-0.954196276143575,-2.3294902821263648
0.33984375,-0.026404477258279057,-1.6425606073141863
0.34375,1.7372560095986123,1.1399932076135582
0.34765625,0.2171468932502499,-0.5714276733447741
0.3515625,-1.7310033901035253,1.89686989579497
0.35546875,-1.1897094112691375,0.12911495771759143
0.359375,0.4539750326326006,0.8938787266317788
0.36328125,0.387740590309202,-1.3521608286954967
0.3671875,0.23165078227408414,0.8430230140726027
0.37109375,-0.369473883546781,-1.060897975247558
0.375,1.1952903216109267,1.941276922740685
0.37890625,0.9017579985875355,-1.6306257786961837
0.3828125,-0.3135314395661775,-0.1544079864875375
0.38671875,1.0910937578907987,0.19827718999765748
0.390625,1.7972018857518415,-1.8184449176557067
0.39453125,0.04042656506048835,-0.6958056822035247
0.3984375,0.1609011006616746,0.756651642659016
0.40234375,-1.423509148784893,0.36334020274834355
0.40625,-0.12232746091727564,0.6972374016886381
0.41015625,0.5020118178937445,2.3803302660622996
0.4140625,-0.07936353861136909,2.195944296665553
0.41796875,1.5003020801594174,0.6280942278388538
0.421875,-0.4134530741666853,-1.7808337228442879
0.42578125,0.8108567772351893,-0.6568547910332694
0.4296875,0.9742846314832871,-0.05767093597632476
0.43359375,-0.7211459615937655,0.512423179939241
0.4375,1.501455734993973,1.2592905907046168
0.44140625,1.2956745105341134,1.5948026366615224
0.4453125,0.35724909492430856,-0.8864236779652661
0.44921875,2.3290982868517043,-1.4768025577743171
0.453125,0.742399540064318,0.5889833482440959
0.45703125,1.0346162253982896,0.4362903413880752
0.4609375,0.6698294780261798,0.26247035593300205
0.46484375,0.11844761561550127,-0.11854993866022007
0.46875,0.6374304156575439,0.2206461865127264
0.47265625,-0.8251931940272597,-0.5167521570046472
0.4765625,-0.47372459308092113,1.3220116064471843
0.48046875,-0.8099921623844111,1.1244689334522175
0.484375,-0.9621595324308351,1.4268172755960293
0.48828125,-1.7259624184255553,-0.36438366473929734
0.4921875,-0.33333594267732414,1.4944445235456112
0.49609375,0.568593051922157,1.8467267310951612
0.5,0.44992930869727044,0.45482354093789035
0.50390625,0.5694623474059017,-0.43808804022047115
0.5078125,0.4642175606649706,0.6493933777150483
0.51171875,-0.00019161851466770083,0.6588013140749002
0.515625,-0.33170262955189045,0.38462491039151525
0.51953125,-0.3880598326862497,-0.7330549049564598
0.5234375,-0.06057362920413943,0.09577706146510835
0.52734375,0.3619314707088692,1.9137558338097171
0.53125,0.13845739518030625,-0.6641630637528665
0.53515625,0.2065782793580503,-1.2498472506078664
0.5390625,0.4266246526065266,0.10741346883773979
0.54296875,1.5036652203296732,-0.47018792374763707
0.546875,0.6140436621080062,1.0662928314113542
0.55078125,0.5158151004888822,-0.346927100722971
0.5546875,-0.7841177998640507,0.9394096750750661
0.55859375,0.2231692344498451,-0.2981941789972103
0.5625,1.6090939621271778,-0.6417650758577428
0.56640625,-0.012492867194557935,1.2542104367933968
0.5703125,0.8876973332122495,0.693897423824293
0.57421875,-0.1582487243444493,-1.3377613898075098
0.578125,-0.7979145324440603,-1.606629495073824
0.58203125,-1.429644721080351,0.14048042114441772
0.5859375,0.814913339573364,0.5609218254995527
0.58984375,0.3183362216280784,0.05814180841145163
0.59375,0.4631178571640226,0.09503624818563597
0.59765625,0.1757315924836567,0.1722936868034142
0.6015625,0.6826585303427002,-0.32648252484326334
0.60546875,-0.23110450848690467,-0.5971380140955457
0.609375,0.39497137101452884,-0.505950136864524
0.61328125,-0.014684756454021545,0.8928704281879706
0.6171875,-0.1665164635323038,0.8593377025228781
0.62109375,-0.4372924594540377,0.9556247076916129
0.625,-1.2590965639897962,0.7680597112815168
0.62890625,-1.9639638835532536,-0.07293437198965118
0.6328125,-0.11833161207722963,1.6302948735341887
0.63671875,-0.44064055702248595,-2.043801157723599
0.640625,1.0485803804923006,-0.793438147002585
0.64453125,-0.26012777035156803,-0.14185732362812434
0.6484375,0.3108334333838479,-1.0399566910270401
0.65234375,0.4978628917269316,-1.3742136049940716
0.65625,-0.015374939285845155,0.09089465209500187
0.66015625,-0.007248337650388271,0.27361633479566394
0.6640625,-0.24150185893145415,0.11118806110470243
0.66796875,-0.8057960576539862,0.20348167780353874
0.671875,0.4040854397169588,0.8128112683834618
0.67578125,-1.4200140064617965,-0.2931831104803558
0.6796875,0.5800724893000856,-0.7775791885487582
0.68359375,0.35050704950882444,-0.278667646392099
0.6875,-1.9332831685317662,0.22207393837315814
0.69140625,-0.08366945862208408,-0.8691871806881607
0.6953125,-1.3834219682615603,0.7753462437794881
0.69921875,-0.9644861372300783,-0.11524798787634231
0.703125,-1.2254435411837925,-0.03811184274838047
0.70703125,-0.06408245136038959,0.5584148241655243
0.7109375,0.22199408241162796,0.08450932502626209
0.71484375,0.6520104202508705,-0.7804621465167978
0.71875,0.8812648717678855,-0.4857567956942598
0.72265625,-0.10550661335032424,-0.3989200640116789
0.7265625,-1.2974985086724808,0.26401100022756124
0.73046875,-2.204354438335597,0.3398963634364597
0.734375,2.5209122489069022,0.07650857431743043
0.73828125,-1.0755676133772198,0.4432607223560179
0.7421875,0.7452349799025922,-0.30661971039222774
0.74609375,0.1893870359410531,0.33151089636176573
0.75,-1.5440648651659374,-0.3464719242675448
0.75390625,0.4391221063142469,-0.7348071768915175
0.7578125,0.3388233096778887,-1.341890594829288
0.76171875,-0.06247803449516034,-1.2000334417382477
0.765625,0.3574388528490302,-0.22760817511268122
0.76953125,-2.0532175992773642,-0.13369802160953378
0.7734375,-0.8369488378184564,1.0191657627419966
0.77734375,0.8244265709536912,0.2943009437181851
0.78125,-0.03329575077833391,1.5279838124329082
0.78515625,0.04937725298434702,-0.3119232280616767
0.7890625,0.5411945821606935,0.3992583504681992
0.79296875,-1.0531362924570322,-1.3661452487418622
0.796875,1.0534062866632827,-0.2380228851377723
0.80078125,0.08771071972178696,0.8482988914333798
0.8046875,1.1754429246562215,0.9772867222488903
0.80859375,-0.40216701351984724,0.6421672806186889
0.8125,0.2867833329967609,0.22828019208966743
0.81640625,1.5382758005689365,-0.6359145364915498
0.8203125,0.38317919809051965,0.03853910112913201
0.82421875,1.5984515344088142,1.5876332610151787
0.828125,-0.25759521022753384,-0.5952766851884819
0.83203125,-1.1381443533252578,-0.01930341457108314
0.8359375,2.252072651143659,-0.06227161729716923
0.83984375,0.02288342642081305,-0.9115023071446625
0.84375,-0.24281501220250676,0.10367767731462978
0.84765625,-0.016851282502476528,-0.3347242345697255
0.8515625,-0.2962472012994955,-0.5753730500892009
0.85546875,-1.040687624184661,-0.3944190417647501
0.859375,-0.32701031684538173,1.3484234741833985
0.86328125,0.5903003865158436,-0.5906681879337128
0.8671875,-0.2836418881907188,2.8917831667775715
0.87109375,0.31971946399679446,0.6914120498642203
0.875,0.7422995404024326,-0.2298329769920254
0.87890625,-0.15060106138135596,0.20288909024960872
0.8828125,0.17569323934565362,-2.0734357852877565
0.88671875,-0.3361953523101022,0.5823076074029551
0.890625,1.9671512652096785,1.1013638520528943
0.89453125,0.2742447049600244,0.00030537352318759953
0.8984375,0.9752166947194688,0.3595202034484598
0.90234375,-2.050548654757685,0.729044678313902
0.90625,-0.8491375474404488,-1.1829376243460408
0.91015625,-0.09443804463509681,-1.151648860975114
0.9140625,0.5200463579134628,0.28624089337922165
0.91796875,-1.3292607889660584,-0.5653889558611181
0.921875,0.2902166431583059,-0.2279088936887643
0.92578125,-1.1917607188680388,0.5594809731924212
0.9296875,0.752521369990749,-1.2506180612411144
0.93359375,0.6756846589001404,-1.0261873248020177
0.9375,0.56414896181591,-1.1241657490744887
0.94140625,1.3597345540927968,-1.3830383802893427
0.9453125,-1.1448359825107937,-1.1970455467363568
0.94921875,-1.6989387403812544,0.5778210112389995
0.953125,0.2995936302492378,-0.36043671192276483
0.95703125,-1.322298496879813,-1.2626393807697982
0.9609375,1.9989812212086862,-0.5627380818572565
0.96484375,-1.0780988579722461,0.6070213068227134
0.96875,-0.06985111665621217,0.20995812454817328
0.97265625,-0.14803703071042257,0.5209650669822155
0.9765625,0.7677860664509126,-0.1965691517051594
0.98046875,-1.1200231055642516,-0.4018574996595622
0.984375,1.9172308099268218,-0.22380059549550693
0.98828125,0.9986481747693751,1.3617361826909302
0.9921875,-1.485933498256001,1.7960338504347368
0.99609375,-2.2844810807105227,0.5893302631689354
1.0,-2.359648444746874,-0.1773470407209303
1.00390625,0.9084843986218115,-1.3554633004959282
1.0078125,-1.3804820818760284,0.01441977006451298
1.01171875,-0.3804924550908326,-0.9137770420228705
1.015625,0.826501667133818,0.014414026538964194
1.01953125,0.17028481680181173,1.5483780620369054
1.0234375,1.2564795243067652,-0.136954215544791
1.02734375,-0.313997914640903,0.12055969624178998
1.03125,0.5065218951903396,0.24673483174344396
1.03515625,-1.1534388776296371,0.6228721864759378
1.0390625,-0.22160622779858602,0.740109378293795
1.04296875,1.2879741363699875,-1.812526981524839
1.046875,-0.2540141077596854,-0.5242088383026576
1.05078125,0.3043979044081987,-1.9497601497682884
1.0546875,0.3169979919074561,-1.0261835053860138
1.05859375,0.627636852591516,-0.26401334347759764
1.0625,1.2481783755730906,1.1001887036277105
1.06640625,1.2660768391307406,0.8841421449122052
1.0703125,2.5085045397289316,-0.439617926738099
1.07421875,-2.0772594928038055,0.06554816204854193
1.078125,0.05058489349555847,1.0870981491416483
1.08203125,0.25165800340095895,0.37474267629015134
1.0859375,1.5341148034691248,0.7864003869742067
1.08984375,0.6969815856358571,-0.2706789686936773
1.09375,-2.207725295239962,0.4591881576475418
1.09765625,-0.40348490337089077,0.4797856944434183
1.1015625,1.009317091008319,-0.7397026080923759
1.10546875,0.2550633579221133,0.636048732973945
1.109375,0.6676036349850739,-0.3950895222759764
1.11328125,-0.5425211829233766,3.3674590811745033
1.1171875,1.578092231465427,-0.03009844945448479
1.12109375,-0.45609398030817655,0.9029685369809125
1.125,1.3985728654111909,0.3549700752488623
1.12890625,-0.529473874561515,0.04709892756571613
1.1328125,-1.1966079383804542,1.0808803412547943
1.13671875,-0.4445215986499097,-0.6541249170968343
1.140625,-1.1291380886094673,1.33867192518402
1.14453125,-0.3748083898310217,1.551280119704973
1.1484375,0.18290945087651816,0.7654599885406276
1.15234375,-0.21616666921713895,-0.3233213312026627
1.15625,-2.39858088456814,0.28883385801054534
1.16015625,0.1186629446842643,1.5332932933259946
1.1640625,-1.7575835817565182,0.019162387240775857
1.16796875,0.7064599349714908,0.11868651916027234
1.171875,0.23553644720259642,-0.6326950908774649
1.17578125,1.3887966241328993,0.7717198063585596
1.1796875,-0.2522211669751433,1.4571782065181327
1.18359375,-0.11018819867955557,-0.3102072747933297
1.1875,-0.8275946279876132,-0.7006686344755758
1.19140625,-0.4728192386621614,0.908579282441236
1.1953125,2.5222437004567717,2.08469969044024
1.19921875,1.6548989426158793,1.1005416174500897
1.203125,-0.33658929424882356,1.3585494575056511
1.20703125,-0.06719600528042194,-0.23650423864936296
1.2109375,0.006329467710803847,1.1902233244689282
1.21484375,1.0581661566779332,0.9539014825400222
1.21875,-0.41869299058052906,-0.270240515179709
1.22265625,0.7407769548567372,-0.5705463846578854
1.2265625,-0.8085159373942603,-0.5458462460817674
1.23046875,0.8779509470283823,1.950613044095649
1.234375,-0.120491132668938,0.650832570689287
1.23828125,0.19553760787673585,0.5261708508991529
1.2421875,0.40600919185604184,0.0699059489905923
1.24609375,-0.737616540329481,1.2294093957977843
1.25,0.037399125381831405,-0.17536962943434392
1.25390625,-0.5356638928650171,-0.31973813049432087
1.2578125,-0.4500449747694118,-1.0785191072291518
1.26171875,-0.29706345361787695,0.016980539725803205
1.265625,0.4546052812571723,0.6255404942158267
1.26953125,-0.7975538265449771,-0.2181386126095847
1.2734375,0.46387771554420315,-0.8623635840134294
1.27734375,0.30518674940564966,1.4448995598491776
1.28125,-0.5894200650934882,-1.3820437042321592
1.28515625,-0.3256323878001083,-0.608306949171186
1.2890625,1.3155192463312657,0.31346179779694355
1.29296875,2.1431644933067426,-0.5495451614996646
1.296875,0.3568904557585711,1.812289226456919
1.30078125,2.2226460175407956,0.5133458139945694
1.3046875,-0.8264368476413999,0.8984263007823051
1.30859375,0.5847856940814389,0.3186747520342243
1.3125,0.6542646368207942,0.8071118423950893
1.31640625,-0.17232963748213334,-2.4076257157567986
1.3203125,-0.05194565366617413,0.2188661531044168
1.32421875,0.9700251962939138,1.0217471228655357
1.328125,-0.9646666025243305,-0.38945117917508904
1.33203125,-1.4663125211113086,-1.0495466579267536
1.3359375,-0.28504628499219486,0.510176149608856
1.33984375,-0.44268137696406745,-3.1039679897134658
1.34375,-0.39809951013851097,1.431483006048242
1.34765625,-0.8982602428261437,-0.9328586627835591
1.3515625,-1.1936830176632551,0.3466933606239438
1.35546875,-1.989386023136384,0.036964679412432
1.359375,2.0027582738678973,-0.5708918244879913
1.36328125,-1.1115286344708148,1.1169915846191965
1.3671875,1.360925874198442,1.351947273036022
1.37109375,-1.319365234712205,-0.16545015314182493
1.375,-0.27142643498203656,0.38887308053676267
1.37890625,2.050468922387898,-1.7363478745779763
1.3828125,0.4714087772219815,-1.5706597363602905
1.38671875,-2.1150578410452954,-0.13489798062870886
1.390625,-0.5884625014099185,1.6468312975281085
1.39453125,-0.06208083607786338,2.0531685848307295
1.3984375,-0.009073870727256876,-0.1372374694649682
1.40234375,0.36908018174851254,1.0161151082621953
1.40625,-0.9252887397060169,1.0532149040738277
1.41015625,0.819808917988877,-0.1737586269047109
1.4140625,1.3066144236312984,0.7123125282404207
1.41796875,1.4181305048987038,-1.3686073967910641
1.421875,-1.0736735283406385,-0.03621339754202634
1.42578125,-1.1401715391208571,-0.14042479873098881
1.4296875,0.8796400143436113,0.6294162303999095
1.43359375,-1.9076276507779466,0.8605381034119766
1.4375,-0.29687445443442295,-0.6252951549745308
1.44140625,-0.8231288794480797,0.7941139790850549
1.4453125,1.1351857979398454,0.14637234434622565
1.44921875,1.4009582852024731,-1.5429967213939653
1.453125,-0.7030456734737469,-0.6555793387682742
1.45703125,-1.9194079959044443,-1.8049695813013285
1.4609375,-1.1961265815777622,-0.49164658974952763
1.46484375,-0.5551788817274843,0.3738862716478836
1.46875,1.4576332369643017,2.2428636830763375
1.47265625,1.2321393810730494,-1.4224040001925604
1.4765625,-0.24268567015575152,0.37423845362574615
1.48046875,-0.9250847172932875,0.28283336964283634
1.484375,-0.7802738384879997,0.9735496956452192
1.48828125,0.17948469753199195,0.2807587327158353
1.4921875,-0.3981422968778072,-1.2209894883539552
1.49609375,-2.0130001696307254,-1.0267109467895927
1.5,-1.3170819688509068,0.3503639313845134
1.50390625,1.4405984979720112,0.1981625599165344
1.5078125,-1.2527765254073515,0.3431171048605585
1.51171875,-0.6542812594486128,-0.7990552716110805
1.515625,0.029734432839096225,0.9118338318724836
1.51953125,0.98280162642943,2.4062942851247104
1.5234375,0.21824327031521398,0.5115070674782148
1.52734375,0.6980487901629779,1.8783372815516117
1.53125,0.06346400663850237,-0.4374066268603887
1.53515625,0.981440765916916,-0.7965904758960557
1.5390625,-0.08027151707026456,-0.8886415219418151
1.54296875,1.9801076671478193,-0.32903836746819587
1.546875,0.3464014115455394,-0.02097289262390434
1.55078125,-1.37970192024038,0.5236207903166505
1.5546875,-0.8552259519784114,0.7240845079982838
1.55859375,0.33553978449532174,-0.4898439815411788
1.5625,2.8631977816377665,-0.545430280806803
1.56640625,-0.2599474913012602,0.15888507026359347
1.5703125,1.3435612220182755,-0.3144192620368647
1.57421875,-0.8746052899895786,0.25883752616575484
1.578125,0.9508971828026358,-0.32914866281264094
1.58203125,0.5420846580543329,-0.03541372036198824
1.5859375,-1.752682406326095,1.446885507517601
1.58984375,0.9893890532012188,1.0685517383463843
1.59375,-0.009615028849651002,-0.5576417173053123
1.59765625,0.13921609887467062,0.6324445898998773
1.6015625,-0.3341296323959497,-0.7380095892111986
1.60546875,0.5467173071937097,-0.6573009358043921
1.609375,-0.3238939882532318,1.8874973511867947
1.61328125,0.11960408745122413,0.8140331353290207
1.6171875,0.9615306650100397,-0.30638268488756193
1.62109375,-0.6980262037214737,-0.9053351439206067
1.625,1.2860012418676927,1.035235984295551
1.62890625,-1.3512455717701732,-2.6134499163485847
1.6328125,0.02239351598059936,1.228770488640194
1.63671875,0.34954902495719214,-0.7735610723834123
1.640625,-1.2245357336230538,-0.0040133490202528465
1.64453125,0.39610166899121924,-0.5659513588490725
1.6484375,-0.3920542953263216,-1.0545397413722282
1.65234375,0.7330849685225354,0.23983428706440674
1.65625,-0.563721171507106,1.0448461578429218
1.66015625,1.1791377511406667,1.4845735326176839
1.6640625,0.11075156636060865,0.33788427195769744
1.66796875,0.22537831423712662,-0.7600861987199989
1.671875,-0.4974093562980925,0.9928067505357426
1.67578125,1.212563114288527,-0.4630617676782815
1.6796875,-2.6854696673052665,0.3639438197217049
1.68359375,0.37546066551858565,-0.988104782291799
1.6875,0.7803683804910906,1.3346168105034648
1.69140625,1.5338625038945226,-0.39063405639951143
1.6953125,-0.465129467246423,-0.2912617398537262
1.69921875,2.167236804823011,-0.19862447807431277
1.703125,-1.8226745389920034,1.3189482356113356
1.70703125,0.3695214140679228,0.29421496260899177
1.7109375,1.651509534599505,1.514612215920495
1.71484375,-0.541648114635071,-0.9636164541564548
1.71875,0.9854581128412192,1.332067566448687
1.72265625,0.4965753076706608,-1.5288797189732892
1.7265625,0.9603298836140813,0.4081376226951134
1.73046875,-0.4820720578250055,-0.03375292237396615
1.734375,-0.3936995050564638,0.23814861306873972
1.73828125,0.5050845293344273,0.608717415482332
1.7421875,0.3159704894974828,-1.270453999558684
1.74609375,0.5734574511255806,-0.9216931340189879
1.75,1.0755479725790063,0.013353119959098608
1.75390625,-0.4921852277900862,-1.0558080837099113
1.7578125,0.782825619146293,-0.4763224607086451
1.76171875,-0.11858022889477801,-0.15205657084154753
1.765625,0.5791124978085003,0.4997252997877315
1.76953125,-1.149305579361713,-0.23915843441404694
1.7734375,0.7187999003417839,1.0286958141081295
1.77734375,-1.0341039486825738,1.0240094439940242
1.78125,-1.2676007575312451,-1.4443163844135587
1.78515625,0.00363667923679504,0.17643054647352402
1.7890625,-0.015812302839313397,0.6816131217080915
1.79296875,0.667080696317153,-0.08599552892959382
1.796875,0.06858726977969248,0.16949509658644704
1.80078125,-0.19293864608291952,-0.40949985543701484
1.8046875,-1.7111236247715624,0.3350020639365242
1.80859375,0.5199638106480862,1.4946298236613555
1.8125,0.5801547111345717,-0.461454728730022
1.81640625,-0.06673749405872496,-0.3960514115141702
1.8203125,-0.2816280290359251,1.3703077307875746
1.82421875,-1.5333895284781116,0.1497147443230412
1.828125,-2.277588933367412,0.2620631505301402
1.83203125,0.21307719625702742,-1.3997527550458118
1.8359375,-1.5465448717874462,-1.4421664909636067
1.83984375,0.22844539504215503,-0.9685727756403054
1.84375,-1.3839235460028916,0.06858974198962277
1.84765625,1.723195236090484,0.330798714659685
1.8515625,-0.4927177957421872,-1.6360366521017828
1.85546875,0.10452937394124016,0.8098759817307525
1.859375,-0.1775236724487031,0.9497610775832062
1.86328125,-1.0457041187812814,0.07346275679606301
1.8671875,0.3633930564281621,1.1961850727040129
1.87109375,-1.1064741675669991,0.011029674308781294
1.875,-1.4999541836754307,-0.365493619383527
1.87890625,-0.1996367507498089,-0.08918687553119684
1.8828125,-0.33192651544652446,0.7945837826853829
1.88671875,-0.020527267334692192,-0.19587679915853357
1.890625,1.4761705644828416,0.5810659258812116
1.89453125,-1.4129729852253956,-0.8003118827379958
1.8984375,-1.233053313944869,1.491645078131459
1.90234375,-0.07675552523265325,2.649964885457626
1.90625,-0.023126649395001135,-1.8087508693165044
1.91015625,0.5659617751870217,-0.1551396498063608
1.9140625,-0.5991136250220962,-0.7519664629876961
1.91796875,-0.3479885775649441,-0.24506893478207786
1.921875,-2.4356575304988404,-0.49433002813144217
1.92578125,-1.9044626763606087,-0.645569476926163
1.9296875,0.15266921427553176,1.3291276451799972
1.93359375,-0.24016784234625452,1.6681018913536096
1.9375,0.14099666777323505,-0.7510763939892864
1.94140625,0.2795072707626883,0.16876368060999242
1.9453125,-0.6569940810287618,-2.241781023984515
1.94921875,-0.4953973861858398,-0.48443937230994977
1.953125,0.8523353068887293,0.6004511962191074
1.95703125,2.4218533196961083,-0.10838869018867779
1.9609375,-1.4926837209418389,0.189305465942254
1.96484375,1.1648438958346252,0.47000892318384935
1.96875,-0.4779678756451303,0.05983119986699159
1.97265625,2.025905853778992,1.6428561044818988
1.9765625,1.6357898594769074,-0.4526498091610292
1.98046875,-0.12991873390561412,0.6628241389891676
1.984375,-1.5376800695297212,0.11017760281698637
1.98828125,0.6296279296113848,-0.3371798070617416
1.9921875,-0.9096237239916533,-0.07092259733770677
1.99609375,0.4739701495897553,-0.1696462792877673
2.0,1.0170488800590758,0.2874988951980841
2.00390625,-1.1500777059489968,-1.3165147034584537
2.0078125,1.0698996276729573,-1.3388948493053034
2.01171875,0.9011279357771567,1.0291652576588661
2.015625,-0.8458253507036022,0.9239777746545439
2.01953125,-1.0860742426271777,0.4411933559985162
2.0234375,1.5515797826855968,0.4324123247900699
2.02734375,-0.052562689221743605,-0.8416766793388994
2.03125,0.36745062798115813,1.6235814749953013
2.03515625,-2.222771445532859,0.21476471844915268
2.0390625,-1.6438364224434965,-0.9871633614709532
2.04296875,1.8703830263804069,1.6690924576599702
2.046875,-0.16459372374534453,-1.1308988055152092
2.05078125,1.7255522822060871,2.724966284026364
2.0546875,1.2496328879714451,-0.8682435558492486
2.05859375,-0.2849298153190539,0.3099308772221038
2.0625,0.9731949682784937,0.00986887249333607
2.06640625,-0.5906781308318564,-1.3139171344714649
2.0703125,1.7917871394178488,1.8180120559177932
2.07421875,-0.3035902011292174,0.6704628784924803
2.078125,2.1872139552524157,0.382278667885018
2.08203125,-0.4462833518216078,0.19715682845337112
2.0859375,1.1834490069204668,-2.0119321283421217
2.08984375,0.09107239243711134,0.12385054462819792
2.09375,-0.14640079792813385,0.49195110744681464
2.09765625,1.4459857602456279,0.7454278140619814
2.1015625,1.3503752340914577,-1.4136559659948604
2.10546875,-0.6682017962539986,-1.5122552733326822
2.109375,0.4305272657466088,0.31370580681162036
2.11328125,-0.011273156015215101,-0.31151200834632475
2.1171875,-2.155439471764134,0.39597471506928783
2.12109375,1.7963899062096516,1.5958311152094429
2.125,0.9903131906153253,-0.19126697025774494
2.12890625,1.447356607195644,0.8788799516472383
2.1328125,-0.5051417088352211,1.853614726539759
2.13671875,-0.5377674030929751,-0.8264416580283467
2.140625,-0.45880195652880773,-0.35078853017997697
2.14453125,1.586097962672058,0.4297218556954432
2.1484375,0.6417339274713587,0.7636785506179445
2.15234375,-1.3936831297784766,-0.6055162436295045
2.15625,0.2887658662551607,-1.3390136062588378
2.16015625,-1.476245616342068,-0.23388668659700676
2.1640625,-0.23881195761514828,-0.4786952964739033
2.16796875,-0.5206189110766904,-1.797889373057228
2.171875,1.4847778125452782,0.026888807462429203
2.17578125,0.7645847015317035,0.13015298167410966
2.1796875,0.07560267613010772,0.009261902653816692
2.18359375,0.13306731378469705,0.7906246984748233
2.1875,-0.6770060862377982,1.1734411291955889
2.19140625,-0.4072146749885907,1.493941890627043
2.1953125,-0.7600848876084242,-0.9709891384371079
2.19921875,-0.14012993978169777,-2.4581669887992703
2.203125,0.46324459999895784,1.0529750497365875
2.20703125,-0.4825448221252097,-0.007861645798274914
2.2109375,0.3890209820727672,-0.6546079217188603
2.21484375,0.5250192102661081,-0.40274199188842197
2.21875,-0.600489278503745,0.8448672401465318
2.22265625,0.11525149311347797,-0.02917248168656559
2.2265625,2.0118765286255416,-0.6170413500611615
2.23046875,0.4425149603442423,-0.066235531722433
2.234375,2.358647761141568,-1.0026987087723853
2.23828125,0.7313660394170671,-0.4452542198397963
2.2421875,0.1522436384565891,1.315238647041553
2.24609375,-0.8945835717226979,-1.2120065729826273
2.25,0.8369987177968912,0.6664410779948957
2.25390625,0.971964933353942,-1.481471912206323
2.2578125,1.2056276280892033,2.76134133067377
2.26171875,-1.3810591189857244,0.33860274946620705
2.265625,1.4220023567704718,-0.07938416007275946
2.26953125,-0.3843790556774617,0.22433073242225443
2.2734375,0.29350441118428694,0.5407613174127934
2.27734375,-1.1109792497164468,-0.08620487349707212
2.28125,-1.4729853020495718,-0.17390167937835918
2.28515625,0.5142334810893614,1.0623151923039105
2.2890625,-0.7722309905468351,1.3800305708120795
2.29296875,-0.6888187768924214,-0.49341814043445675
2.296875,0.2582352641890965,0.6448055465275885
2.30078125,1.2613918390509005,-1.485228190734118
2.3046875,-1.6976306514838344,-0.6634229799446429
2.30859375,-0.509707026896972,0.1652197667179036
2.3125,0.11654620390934517,-2.0163875965602536
2.31640625,-0.2907972068494634,-1.8359739335747252
2.3203125,1.6943261671689513,-1.141186222919722
2.32421875,2.349257981737617,-0.10032107453885288
2.328125,1.238949104463397,-0.11459791463181944
2.33203125,0.1909572917751195,0.1066235533140647
2.3359375,-1.1975421842643035,-0.2645104500680211
2.33984375,-1.6133031449438449,-0.45809793398382415
2.34375,1.4355032847496874,1.9239326893647364
2.34765625,-0.9452467983689168,0.8253567263444657
2.3515625,1.4014449047790902,0.24008213669542278
2.35546875,-0.29886496242892324,0.9506848761326367
2.359375,-0.09095482595696093,0.6995002134093486
2.36328125,-1.0528251416703414,-1.1852398577560423
2.3671875,0.8638302241876277,1.332002104141892
2.37109375,-0.33080325997890453,-0.31125230516435115
2.375,-1.1944393417410262,0.8643951233909992
2.37890625,-0.7448484344407234,-0.8550575993728168
2.3828125,-0.7031852851870269,-0.2893496050868403
2.38671875,0.6941689542551104,-1.0835948306024976
2.390625,0.3092775781634022,0.43838960033272206
2.39453125,-0.004193468850521297,-0.9705784928109946
2.3984375,-0.529168949062543,-1.210302387881761
2.40234375,0.6042880416746151,-0.48869351282118
2.40625,0.41247287830549945,-0.1950463353367079
2.41015625,0.7250576085599997,-0.8535309950220188
2.4140625,0.8994154708346411,-0.5768899535300077
2.41796875,1.0305354912272193,0.2843721401688672
2.421875,-1.566506387766044,0.08416877988687717
2.42578125,-0.04803283824976547,-1.7163756719712315
2.4296875,-1.5475139059669512,-0.6861397185815399
2.43359375,0.6106533623417798,1.9186832745508948
2.4375,-0.9994415843984419,-0.005632905130952003
2.44140625,0.46863969624780394,-0.05419307274006146
2.4453125,0.77360503162362,0.8666544016756792
2.44921875,1.326820183950978,-0.16496254860134194
2.453125,-0.060194649486167595,0.04029846067690464
2.45703125,-0.2775795969975058,0.14807967002761027
2.4609375,0.642197647040881,2.4046549333521066
2.46484375,0.8668930317664751,-0.6589551704209606
2.46875,0.1405872351459175,-0.6202282715019045
2.47265625,0.20842296952611844,-0.9487829125519193
2.4765625,0.6408839423822593,0.9109154001634471
2.48046875,0.03238367574097435,-0.8602467329582849
2.484375,0.6537120075132378,0.42679761464633015
2.48828125,-1.0084694334537845,1.0980370782418287
2.4921875,-0.5350083034266953,-1.1497070914355263
2.49609375,0.2457391483146307,-0.029741769072323256
2.5,1.2049271842419258,0.39976148883449664
2.50390625,-1.1957555860328115,-1.2285329959438074
2.5078125,0.20822703345442464,0.5169347831602089
2.51171875,1.292000959768617,-0.3061055800731245
2.515625,-1.5897229849164591,0.013247699505861528
2.51953125,0.9501843815225679,0.46366162018373563
2.5234375,0.5418102852504065,-0.1333556031948584
2.52734375,-2.328965825223166,-0.4923247038865708
2.53125,-1.027889557473093,0.04853075628215098
2.53515625,0.5620194392656547,-0.2129020268036483
2.5390625,-1.2197874189489282,-0.22180393802786652
2.54296875,1.103164331397888,1.3190125287516599
2.546875,1.46745103327204,-1.0362735909794822
2.55078125,-0.7669941942147498,-0.41392698039715364
2.5546875,-0.9558071729363614,1.3555481114539778
2.55859375,0.7044904999615502,1.1739945811113626
2.5625,1.0899883145445106,0.7617713346875711
2.56640625,-1.2979564122183553,0.00033262783543635264
2.5703125,0.9812138359064905,-0.6162839992938484
2.57421875,0.6822773992572212,-1.3913378741810232
2.578125,-0.20311342845746538,-1.2566450712487258
2.58203125,-1.3889206515806565,-1.32991723701228
2.5859375,0.0229476021398325,-1.4889034702471817
2.58984375,-0.242039663485504,-1.2238835791337404
2.59375,-0.7352520451152524,0.8075992589869879
2.59765625,0.21164835088791636,-1.001408843855068
2.6015625,-0.016729055466774983,0.8632642302742455
2.60546875,-0.4914385764831841,2.150152648617441
2.609375,0.7106097307832179,1.167326293396359
2.61328125,1.5496612923861102,1.120194514385663
2.6171875,-0.35092738073998175,-0.753504398981702
2.62109375,0.676212723893704,-1.3680794347509644
2.625,-0.629710033915519,-0.8728168149224729
2.62890625,0.39306494756318133,-0.510934992042123
2.6328125,-0.05163032992880647,-0.45191229956018303
2.63671875,0.9931617563943269,0.777323802311407
2.640625,1.3574885784171735,0.25899765403222536
2.64453125,-1.2178672456304123,-0.2507096913745745
2.6484375,-1.325514948153964,0.9965450748226045
2.65234375,1.5614092951614014,-0.06048032593666755
2.65625,-0.7411299911187048,1.6673018864434905
2.66015625,0.24540431138360072,0.5475945087748558
2.6640625,-0.6099358291098801,0.13247619008796138
2.66796875,-1.7884903482923742,0.3173037246377933
2.671875,0.8209870047498784,-1.801797425095802
2.67578125,-0.2834671298708514,1.0205433180887133
2.6796875,-0.8680814458879866,0.3461958083408257
2.68359375,-0.478961129338727,0.9162952113505126
2.6875,-0.8715352508287612,-0.43445756236516037
2.69140625,0.35964561642684834,1.4840672257761418
2.6953125,0.27942926958103065,0.3719860576273435
2.69921875,1.1138694552923243,0.34947332326104974
2.703125,-0.8695927978161377,0.6615739886182144
2.70703125,0.9030240237562571,-0.20572968127393995
2.7109375,0.36576236553115654,-0.6554384348311638
2.71484375,0.3209061042729896,1.5205573071766454
2.71875,1.215899820911489,0.3862013884933245
2.72265625,-0.5246478557814225,-0.3316818330848821
2.7265625,-0.38084447749588574,0.8802946520050732
2.73046875,0.6427986453611032,-0.7586072149949978
2.734375,-0.33124340463310015,-2.71029550382991
2.73828125,0.7864578654199494,0.24909608097023678
2.7421875,-0.04831307225467964,0.7417570429056813
2.74609375,0.276047203364128,1.027314882695761
2.75,1.1092558905352887,-0.8815788894924746
2.75390625,2.72440199718276,-0.5961632904337512
2.7578125,-1.442671319623301,-0.28117746991755993
2.76171875,-1.3334636686138004,-0.9073601168603475
2.765625,0.3405160426076902,-2.2608966406012176
2.76953125,1.9924848021152444,-0.166927188554775
2.7734375,0.13200459382808027,-0.10094413557372334
2.77734375,1.4706724722891336,0.16874881487145288
2.78125,0.3736267648055741,-0.9490637651456205
2.78515625,-0.04012350894919291,-1.5972115828386837
2.7890625,0.7084137533882661,0.10736521441027921
2.79296875,-2.37277843469627,0.19583354653070975
2.796875,0.6608093193894956,0.038187259217141716
2.80078125,-0.9470693035375276,-0.3114805209384166
2.8046875,-2.6432045908124926,-0.5074930391542731
2.80859375,-0.8260265627636119,-0.5437403253328282
2.8125,0.561100467213365,0.10469620978740196
2.81640625,0.7800006612033676,0.9065754299817779
2.8203125,-0.14886078787473317,-1.506236634972963
2.82421875,-1.1001775198337145,-0.9979490119592443
2.828125,-0.47956597427868647,-0.25501823291586406
2.83203125,0.10471062843733277,-0.7108607217811324
2.8359375,-2.0342946156635824,-1.3813967766613688
2.83984375,-0.5859893262830858,-1.36860574700845
2.84375,-0.14461439420770852,0.34140597667963113
2.84765625,-0.09967826011484594,-0.9450335404146057
2.8515625,-0.7185939656417194,0.03777261657670161
2.85546875,1.338673220043839,1.1123281682107569
2.859375,-0.3735188948523693,-1.2908915528318243
2.86328125,-0.8011563595167741,1.2938954331872734
2.8671875,1.2559860992496434,0.062405858594203424
2.87109375,0.8082837806048017,0.33720618484030307
2.875,0.1468190814100481,-0.5882266368245306
2.87890625,0.7155566822284409,0.143413055591219
2.8828125,-0.9045849702203369,-1.293645272758723
2.88671875,0.57439411655244,0.4552795474401807
2.890625,-0.16028890667607965,-0.4277074719557585
2.89453125,-0.4362463607492402,1.0918456741544684
2.8984375,0.4533380622205048,0.8466525992870503
2.90234375,0.44121568290128904,-0.5901495808268616
2.90625,-0.34060224275940515,-0.6215099179307376
2.91015625,-0.7540379603431427,2.413639434665704
2.9140625,-0.5087234916713004,0.4151487114694781
2.91796875,-0.09474837901866755,-0.7664269202989449
2.921875,-0.8920633989071585,1.343279231969423
2.92578125,1.2449375000829903,1.2889969102804963
2.9296875,0.13430304820044806,1.1716277017504848
2.93359375,-1.3223317008498177,-0.9863556915690257
2.9375,0.10477592161706845,-0.39779378741235505
2.94140625,-1.4483658632722298,0.13947142829053225
2.9453125,-1.6116805782017682,-1.5343319971684033
2.94921875,-0.014957404312900224,-0.7616104175002834
2.953125,-0.45785209602992955,-0.9787284872282462
2.95703125,0.31037787708532305,0.723609705100416
2.9609375,0.11400742736964974,-2.2153723376064525
2.96484375,1.2854978775807198,0.4350534142874845
2.96875,0.36573289344320387,1.0412119239308155
2.97265625,-0.7731189537808113,1.3356854946293573
2.9765625,-0.6092964021287501,-0.40506146197849746
2.98046875,-0.004916728212260639,-1.2720011525128627
2.984375,-1.3892339586430706,-0.3700334525107528
2.98828125,-0.7420222790164784,1.0293027783861812
2.9921875,-0.42619863369515487,1.3984922339400394
2.99609375,0.6080065109866233,-0.7699306957067025
3.0,-2.8214020112353824,0.6244157107930551
3.00390625,0.6687674833890651,0.16334823835422124
3.0078125,0.35884515688247953,-0.2236615661269356
3.01171875,-0.6313047237612234,1.017061682240705
3.015625,0.4133792569671154,1.364427577711054
3.01953125,0.8133709824893479,-0.2868492977863587
3.0234375,-0.837723080737305,0.17237414000695914
3.02734375,-0.35035042849276377,0.9190355865033296
3.03125,0.9912435305644479,-1.2159255253447008
3.03515625,-0.8187666271658051,0.8833557677149263
3.0390625,0.34750679916829513,-1.5145630156721155
3.04296875,-0.5580870462593026,1.033509061796362
3.046875,-0.5496199342538917,0.9595911412847509
3.05078125,1.9303537577208638,0.6736951846975828
3.0546875,0.6214126505819105,-0.003840278666919458
3.05859375,-0.5723286792810498,0.6334713540518063
3.0625,0.5285735312325913,0.6955118341743234
3.06640625,-1.2237805668654735,-0.597340672044592
3.0703125,-0.749708995119379,0.058565815487562234
3.07421875,-0.590518369402387,0.07889921707558036
3.078125,-0.501200723297056,-2.5924933462671707
3.08203125,-0.2669620706236178,-0.26326334261756296
3.0859375,0.6751518823028492,-0.17620165225885062
3.08984375,0.44941348376334167,-0.1664539958021168
3.09375,-1.1884453086004292,0.03484585846726365
3.09765625,-0.09614496281763754,0.9153353210362065
3.1015625,-0.10340576987267106,1.1841273744542924
3.10546875,-0.0030376563801879017,2.1275911756626855
3.109375,0.20191801383614652,1.5239142566538284
3.11328125,0.22116091237520616,0.2602666078809748
3.1171875,0.19010289478526596,1.0947807348905378
3.12109375,-0.242368164352568,1.5185374179246476
3.125,-0.47755609827223655,-0.6258462750062469
3.12890625,-0.474844439242461,0.19730723518988313
3.1328125,-0.8472026423946921,0.5157831345311451
3.13671875,0.6691289595627055,-0.47416845560943394
3.140625,-0.0828225575870807,-0.24582967810770853
3.14453125,1.596273292955917,-0.7032193118650513
3.1484375,0.06224464901349036,0.7327140160079971
3.15234375,0.1822133232623588,0.45949384469746724
3.15625,0.4875385201111773,1.2542200533686834
3.16015625,0.1896488491693948,-1.5044956610175122
3.1640625,0.5095121575150761,-1.7783222096064044
3.16796875,0.04057865769700512,1.5096910058136703
3.171875,-0.23221806002153764,-1.2533977233022753
3.17578125,2.4043761886759762,1.3671870580176073
3.1796875,-0.4062706205525082,-1.5205690072709894
3.18359375,-1.521166655984412,-0.11007097454799844
3.1875,1.0088603872558524,-0.05550758212268958
3.19140625,0.6661430556550464,0.9777198405611651
3.1953125,-2.4224480105501955,-0.5747141802523348
3.19921875,-1.088270297813876,0.7059929692026624
3.203125,-0.15979093681884543,1.1897990236021398
3.20703125,1.3796563507202793,-1.8122480387129467
3.2109375,1.2123698203556437,-1.935839159091521
3.21484375,1.1353090918313005,0.13074386543461824
3.21875,1.0019285620611218,-0.5325161473584438
3.22265625,0.7215796747686611,-0.13651777255336614
3.2265625,1.9519084603734775,0.9226077817105394
3.23046875,-0.12119433405414598,-1.0193158586451692
3.234375,-2.0875780216039015,-0.7094913039158156
3.23828125,-0.5896615891267711,-0.41194620009595867
3.2421875,1.1578168206577497,1.5318605702882258
3.24609375,-0.7462685902193975,-0.8753563192944337
3.25,-0.962479374364138,-0.4151274885088953
3.25390625,0.16737737370405334,1.1849902780190151
3.2578125,0.4673738207693188,0.6092397843001107
3.26171875,0.5826894050850584,-1.9723057415397862
3.265625,0.09805192413949478,1.577134047717217
3.26953125,0.30358872310024354,-0.4175283202123453
3.2734375,-1.2010322598213439,-1.4223135552380841
3.27734375,0.10356857068264279,-0.5414502342537537
3.28125,0.34368156911156217,-0.23663480088431713
3.28515625,1.1616603222146,-0.8918432275235011
3.2890625,0.5285334064105243,-0.7253350362928445
3.29296875,0.9652796129260769,0.5876494685431073
3.296875,0.20334686629112977,-0.46427004620002105
3.30078125,1.4445740388571136,0.12730084670203015
3.3046875,-0.28725122658647456,-0.27121166761400567
3.30859375,-1.0964422232467255,-0.8354774994895967
3.3125,-1.0769917861470335,0.05069655800190533
3.31640625,1.8676617422689086,0.9598420610752615
3.3203125,-0.031254751418968746,-2.922992637889518
3.32421875,-0.2905268312926586,-0.9017000110493999
3.328125,1.1429121248810739,-0.39589329601619283
3.33203125,1.7951733057555435,-0.22552855758036297
3.3359375,0.22032792668303866,0.6144524024920629
3.33984375,-1.087565792226855,1.8050518861248321
3.34375,1.5610418200039746,-0.19791048514342288
3.34765625,2.06645270415204,-0.3825147386621693
3.3515625,0.5892157378920867,-0.24408195168337998
3.35546875,-0.4020916811049662,0.9841073268289972
3.359375,-0.8573665917031474,1.9271793367495706
3.36328125,0.26776762541732946,1.5303143735131695
3.3671875,0.23894552086336882,1.311203206321116
3.37109375,0.4750834422742945,-0.6950026834788223
3.375,1.1980980738909506,0.4885861071061902
3.37890625,0.09930921912713893,0.5030881422141817
3.3828125,-0.5234826435581432,0.3347315241135031
3.38671875,0.6080787813697999,-0.032120611400821494
3.390625,-0.9589396886005911,-0.12941129529739218
3.39453125,-0.12078806983089536,1.3378231937592606
3.3984375,0.3702191111331469,-0.6645979413294799
3.40234375,1.991114128129782,1.4554221755305234
3.40625,0.5430071559740527,-1.0612345810014296
3.41015625,-0.7955284217546006,0.7965379299572891
3.4140625,0.5669505976412096,0.9896232290382097
3.41796875,0.21595591880846063,-0.5072410532216073
3.421875,1.3355899205661816,0.5506505704345651
3.42578125,-1.7692979874305699,-0.6774248321421529
3.4296875,1.396297925813507,-0.33259927464872585
3.43359375,-2.0568926312480618,-0.42305754802544254
3.4375,0.6422913970681546,-0.039743594170512486
3.44140625,0.09731412042263528,1.7887204642780117
3.4453125,0.9344092912296016,-1.3622680778380356
3.44921875,-0.33310622608878765,-0.15813617718023323
3.453125,-0.8057861759274323,-1.0558736347455713
3.45703125,-1.0688479426833928,-1.2637510730522878
3.4609375,1.5194513060509152,0.5742212783016831
3.46484375,-1.1439092378709852,-0.1553370759058657
3.46875,-1.7289310337715162,-1.3770730919312346
3.47265625,0.49363053870650764,2.370200858738097
3.4765625,-1.2349443892523841,-0.5751494607752952
3.48046875,-1.9423050948452547,-1.4360288906569474
3.484375,1.0602897342148874,0.7169307923524718
3.48828125,-0.4908167986616597,-0.5691260570263675
3.4921875,-1.0824497977259462,-0.6216379118074455
3.49609375,0.6377216305853736,-1.19358682070138
3.5,0.46829622991348824,-0.2655456236396232
3.50390625,0.4893202306087151,1.535658183066947
3.5078125,0.8466045902442252,1.3993065800006992
3.51171875,1.491911895805967,-1.748609081951068
3.515625,-0.6577297135006654,2.1319433588886247
3.51953125,-1.720305040565258,1.9016041320393222
3.5234375,0.7203890404037024,0.802584901778549
3.52734375,-1.9239487930352386,0.3770963506365899
3.53125,0.331851190186184,0.6083181955392362
3.53515625,-0.3914687723875812,1.0548332864045311
3.5390625,-0.22759382848573273,-0.37392206424878244
3.54296875,-1.309048309068918,1.6196742042388963
3.546875,0.9817498174640112,1.048884572373002
3.55078125,0.07328392267635707,-0.6673323682330735
3.5546875,0.3483424281811701,-0.8255162874444998
3.55859375,0.7987906618324638,0.6209855805083535
3.5625,-0.6579139670921014,-1.7586005201722477
3.56640625,0.6769276126589774,-1.3298765344484005
3.5703125,-0.2059867656445487,0.0171506511621106
3.57421875,1.4377165634902922,-0.2972471357792049
3.578125,-0.2681321087295112,0.390019097448331
3.58203125,-0.47155132467971933,0.8278869091495498
3.5859375,-0.7101248265833229,-0.48765581874772296
3.58984375,-0.457677876707659,1.4344102561150625
3.59375,-0.5566862151027255,-0.8688941525472844
3.59765625,0.4940627568287722,1.511473044092423
3.6015625,0.4160643513798277,-1.953234263018259
3.60546875,0.4336614295233518,-1.2934646916517292
3.609375,-1.3784456601270283,-0.2839732658885348
3.61328125,0.4333011251041123,1.2634708380895643
3.6171875,-0.44647957065478466,-0.7289812580840506
3.62109375,0.20427016921102284,0.728262511143501
3.625,0.2686898558088105,0.8747139086834103
3.62890625,-0.3281398909988055,1.7160965969963282
3.6328125,-1.180819770308931,-0.4929160072039507
3.63671875,-2.4844213659677115,1.5300108753625943
3.640625,-0.330667118181695,-0.36635133184670227
3.64453125,-0.2943305564814811,0.9385346503978849
3.6484375,0.37985888472478846,1.1920600005050148
3.65234375,0.2667558734277244,-1.3346473823447864
3.65625,-1.969269466074462,0.3816250757452933
3.66015625,0.5403047052440006,2.4216982092849717
3.6640625,0.7482036759595575,1.0233361452683707
3.66796875,0.17624982393637564,-0.27053950847433356
3.671875,1.079819372413747,-0.1547728013245425
3.67578125,-1.3736858373807688,0.47576381445860944
3.6796875,1.2921178019425668,-0.3100721533251397
3.68359375,-0.9312227566538386,0.3717790659551236
3.6875,-0.540942140964607,-0.9551384921097923
3.69140625,-0.351156056195712,0.18091163424148146
3.6953125,-1.7761597967933227,1.1926089733006007
3.69921875,-0.22875160465732117,-2.258824664555745
3.703125,-1.639351044440742,-0.14428529797833872
3.70703125,1.250324426511075,0.5391847922670945
3.7109375,0.4476542960246384,1.133261252318765
3.71484375,-0.27543852729064755,0.19769836519104778
3.71875,-1.0310474461569183,-2.038264915376415
3.72265625,-1.1375564825210855,-1.9007732584692456
3.7265625,-0.13438829801182614,-0.6329476250130633
3.73046875,0.6914781777003949,1.3023390994352642
3.734375,1.0860522258559866,1.2713423485892021
3.73828125,0.003703208484759387,1.8969202713293285
3.7421875,-0.06398960908211425,-1.7837710019001571
3.74609375,0.2770046370557948,1.8520092945829663
3.75,2.0036219221284086,-0.14858012740905008
3.75390625,-0.5409101499393969,0.9390360765815818
3.7578125,0.6493759766147452,-1.212959387539243
3.76171875,-0.018011973847367586,-1.6985990612741524
3.765625,0.3020490982638018,2.1362840826636447
3.76953125,0.16527252368346135,0.9074776034621012
3.7734375,-1.5193127441327599,-0.4830321633152398
3.77734375,0.7185873841785162,-0.4059549635824216
3.78125,-0.24890666787993104,-1.0224476961986027
3.78515625,-1.2039088055270875,-0.33346873112697883
3.7890625,0.7139630322131917,-0.1869175341895812
3.79296875,-0.13358290660791053,0.5569010872048006
3.796875,-2.8278365097619917,0.5133374018039951
3.80078125,-0.1393542483445869,0.8638274859507332
3.8046875,0.07449710860842787,-0.5189145895871672
3.80859375,-0.5630860905561212,0.5185280619715763
3.8125,-0.3065099281734673,-1.590334436856631
3.81640625,1.210523611560846,0.29150749607809934
3.8203125,1.0268733746805379,-0.6886444823090655
3.82421875,0.8535432821864426,-1.7255911057202118
3.828125,0.6614627232957085,1.6232846724485845
3.83203125,1.9968909450604255,1.2834931312383362
3.8359375,-1.0145200813080002,-0.1851272202309361
3.83984375,0.20967285374678218,0.3448574091526322
3.84375,-0.8373535823229868,-0.2599528929959831
3.84765625,0.3653585608821622,-0.7722175498621788
3.8515625,-0.10690987426142237,0.0017679112229189143
3.85546875,0.9577421782840274,1.1925885899777071
3.859375,-1.0838955053851378,-1.7180776170360057
3.86328125,-0.4519131997730876,0.3580249511138679
3.8671875,1.6482288717341844,0.3044744032002116
3.87109375,0.35891343927562386,-0.8910271426145382
3.875,-0.4614703015124194,1.6452928743417095
3.87890625,1.4499933474801618,0.4800437082706787
3.8828125,-0.2953496923889815,0.1812665094924595
3.88671875,-0.6064308347434104,-0.9327464471722159
3.890625,-2.390684616376809,0.4197315507373777
3.89453125,-0.469056306906925,-0.562994065172832
3.8984375,0.4097477697147369,-1.562888726929263
3.90234375,1.318792390887025,0.12219166680495572
3.90625,-0.5040260427262119,0.334599186555654
3.91015625,1.1070732582592973,0.14135926136135135
3.9140625,1.8718775970058923,-0.4966314605791585
3.91796875,0.053346544360728686,-1.1223069697460626
3.921875,-1.6627963423937264,0.8558744696607252
3.92578125,-0.733000732362352,0.20784416317479693
3.9296875,0.4004384933972019,1.7746129905204495
3.93359375,0.10871576826372949,1.5848462028876686
3.9375,-1.312817148018394,-0.14111838519483838
3.94140625,-0.6508631389719179,-0.11953688301047397
3.9453125,-0.8722091254656703,-1.4126589654044512
3.94921875,-0.7795322878501487,1.0679000213755623
3.953125,1.9214044302765438,1.535334381740938
3.95703125,1.3580021990603333,-0.7414228539644255
3.9609375,-0.3982359267958636,-0.40085959007837213
3.96484375,1.3403363156322299,-0.7501082736492376
3.96875,0.3042303342635087,-1.2154705920505036
3.97265625,1.2528852572570668,-0.33333170492495273
3.9765625,-1.4936471068161867,-0.4069720845143412
3.98046875,-0.6552730132453017,-1.8740155760239021
3.984375,0.19625332135837564,-1.4890433392233096
3.98828125,-1.0938011925316298,1.0704196501252288
3.9921875,-0.09059187625781921,0.08718463141500124
3.99609375,0.2335519957064554,0.3436051099230293
4.0,-0.6290118996679929,-0.18929755944870072
4.00390625,0.4462614916036773,-0.2347552873153001
4.0078125,0.5579752890256935,-0.25619819234576013
4.01171875,0.23529329070821878,0.0008173645030358777
4.015625,-0.0037590584955199424,-1.4323867793919787
4.01953125,-0.5884304876567419,-0.7259160382414678
4.0234375,-0.30188613199072917,0.8624429186862934
4.02734375,-0.9963963861243134,0.5000199410245952
4.03125,-1.6642229005534537,-1.013330296808556
4.03515625,-0.5376036460913034,-0.7866100900133416
4.0390625,1.2174502435562233,-0.2383453644053315
4.04296875,-2.1304456499006728,-1.3740525021048393
4.046875,-0.529712493875922,1.007763947258711
4.05078125,0.5072076912692186,-0.5533402574747366
4.0546875,-0.07775365259942348,-0.6145252962507209
4.05859375,-0.5737911065845784,0.4828970603083472
4.0625,-0.08943918935815971,-0.8436544762603324
4.06640625,0.2162922754425032,1.8510259330112686
4.0703125,1.1863707889468742,0.32609606242777683
4.07421875,2.2103796214625047,1.425052639554307
4.078125,1.4354242422897736,0.3461625238973006
4.08203125,-0.03090436484583426,0.7060286624526076
4.0859375,0.8619385241673528,-0.1829032704676085
4.08984375,-1.1712261490114286,0.24086047742771585
4.09375,1.2412492263347912,-1.2834303779936755
4.09765625,-1.1524795519833229,0.7906387610560905
4.1015625,0.6402592654831591,-0.8962718614845919
4.10546875,-0.27702353488929116,-0.1587712808780556
4.109375,-0.415184149867779,-1.0861330925866783
4.11328125,0.5074390190173911,-1.1610380565627338
4.1171875,-0.5893768954825024,0.3895484212015087
4.12109375,-0.08748861034127578,1.445948754889134
4.125,0.23659835706407928,0.3665149233867238
4.12890625,1.3277144283454845,-2.539284766738093
4.1328125,1.3394044750763352,0.4647593277375051
4.13671875,1.250252500102434,-0.7328517248899985
4.140625,1.775428268226712,-1.6423225004098227
4.14453125,2.6423333003616194,0.07805325570923109
4.1484375,-0.9246532432757384,0.019370993907148217
4.15234375,1.6109572482272219,-0.11463704017742635
4.15625,0.032062694592292405,-0.1163694840745461
4.16015625,0.8507696013529471,1.6630130388479347
4.1640625,0.7982177679183291,0.5783203654562804
4.16796875,0.02705518976862145,0.39445204871783524
4.171875,-0.2583934761545386,-0.5399919798860667
4.17578125,0.6192631902030479,-1.5590299051051923
4.1796875,0.13482130781096505,0.18580472572235415
4.18359375,-0.45617503493932865,1.708498312154225
4.1875,-1.136348104416068,0.15606647919302438
4.19140625,1.4404376735680375,0.6192980175821582
4.1953125,0.6996217970254563,-1.5323347966446403
4.19921875,0.26531597754565345,0.8401961438021063
4.203125,0.11478095822435284,-1.3638622073930053
4.20703125,-0.16668820062583448,-0.7200486712474001
4.2109375,0.23447149148684227,1.1616242412699558
4.21484375,-0.9040357343872609,-0.584666225070603
4.21875,0.2570249969894273,-1.003656765734087
4.22265625,0.3109522640951489,0.6133138293138664
4.2265625,0.19501353621530676,0.24126577374103667
4.23046875,-0.45914183277909504,0.8039153016725789
4.234375,-0.5131717742249879,-0.7600494830423409
4.23828125,-0.14442494167964653,1.4414735142997632
4.2421875,0.12214848436356834,-0.5586655548747986
4.24609375,-2.015665854259132,-0.6793780952107085
4.25,0.6149249633328195,-0.32597729309545326
4.25390625,0.10525357597311616,1.1878786564766013
4.2578125,-0.8910714081174592,-0.520364354721415
4.26171875,1.7330525760697095,0.7151105335522017
4.265625,0.33529702586213667,-0.957019696477991
4.26953125,0.40501778479235057,-0.38097055881688563
4.2734375,1.1926139979494652,0.46563850403825735
4.27734375,0.5680286978909045,0.41750046721900785
4.28125,-0.8406085278901699,0.735248361127072
4.28515625,-0.01255945808931796,0.7425969461135397
4.2890625,-1.5547784814614503,-1.557374966880266
4.29296875,1.6808705871638534,1.7803466662024972
4.296875,-0.7452153667878944,-0.0940709792725472
4.30078125,0.17157000829928162,0.2680019866408788
4.3046875,0.8829347445011618,-1.205742851400069
4.30859375,0.4455304844302532,-0.11320171205154717
4.3125,0.010921542895751223,-1.7285216479374115
4.31640625,0.4075275847409217,-0.36863071942764397
4.3203125,0.9821933579903742,-0.1973191006332401
4.32421875,0.39442264061829285,-0.04201235150373827
4.328125,-0.5516953208382432,0.5943995434418798
4.33203125,0.2246986193511055,1.1404652012539684
4.3359375,0.8508023335102535,0.5939845814975137
4.33984375,0.74049328712259,-1.9655318478548496
4.34375,0.1899577386351521,-0.34051410079187455
4.34765625,1.666982040243679,1.0295502630243616
4.3515625,0.4356287933554044,1.4452150036128684
4.35546875,-0.9355292307253945,0.9690709949573761
4.359375,-1.5715783248707926,0.11814771338800377
4.36328125,-0.5093682602952707,1.9255419457488043
4.3671875,0.9368656921477572,0.42079663254293953
4.37109375,0.8377066798790687,0.597617801603458
4.375,1.4306772290469176,0.7446005757896983
4.37890625,0.1286953286328678,-0.6739571871937146
4.3828125,-0.2576565290081212,-1.20549423911134
4.38671875,-0.022744985738669593,-1.3008734706322715
4.390625,0.044353475973243794,1.1203430047248768
4.39453125,-2.329473110951749,-1.3250861522469646
4.3984375,-0.15165854621702324,0.30620066152756115
4.40234375,0.5309628059244966,-0.07599923535923873
4.40625,-0.17151182940191173,-0.08968135353219908
4.41015625,1.1772239750711098,1.6815741810734426
4.4140625,1.7263473756224108,0.2808812896281692
4.41796875,-0.31821279363359667,-0.013300089940547972
4.421875,-0.3214030908220278,-0.10965213445220573
4.42578125,-0.9695516516790547,0.12917288800117022
4.4296875,1.304329408507829,-0.5030421404297762
4.43359375,0.5355896621052889,1.6860405708486326
4.4375,-0.3748948584109672,0.9861260017379366
4.44140625,-0.979426498376132,0.3603271131990014
4.4453125,-1.2552850480464581,0.40255526886714
4.44921875,0.6001607035940818,1.343645468124915
4.453125,-1.3341311015022121,-1.210271001852891
4.45703125,0.1902544493449625,0.05809840187894164
4.4609375,-0.2173768383117085,-0.5561137494304604
4.46484375,-1.0518692789907438,-0.23118940767421362
4.46875,-0.8060978119731945,1.2328941718671156
4.47265625,0.5348052061974867,0.4521696135628063
4.4765625,-0.5985815924732621,-2.4543505275779984
4.48046875,-1.7106085098237456,0.1324040430056387
4.484375,-0.15115619770887742,-0.18056771936879193
4.48828125,-0.6364455809095659,1.0790350588999753
4.4921875,1.0096939804274867,0.28879346706619075
4.49609375,1.1405532593235546,0.6388390965119992
4.5,-0.38068337074199904,0.04454637462691347
4.50390625,0.7812717753832261,1.1620186006074638
4.5078125,-0.6179418319422944,-1.1435945334317617
4.51171875,-1.8727766011569993,0.09121501835978754
4.515625,-1.0762209310880242,-0.8171347750888287
4.51953125,-0.2946887696085827,0.11023028855738737
4.5234375,1.2187516044691804,0.6819104812608898
4.52734375,-1.1179187729965279,1.8859318148436819
4.53125,1.6322074621555416,-1.5845448568911655
4.53515625,-1.8236035040560512,-0.6705756050457004
4.5390625,1.1279092316031476,-1.436593748936234
4.54296875,-1.4025026974330363,0.6324053184947086
4.546875,0.6869439190861654,-0.22903500859499606
4.55078125,-1.0407609823921833,0.5334950678006283
4.5546875,-0.25694740064858573,2.024987680138798
4.55859375,0.792382189584269,-1.651795360346331
4.5625,0.29975040470944175,1.0440613695820447
4.56640625,0.2500893921929379,-0.33188065490459234
4.5703125,-0.04843728262562856,0.35132938915758344
4.57421875,-1.4991511352178946,-0.3547447160190856
4.578125,-1.3204992074119326,0.5670027547768861
4.58203125,-0.07539805764440388,-0.15982599365630115
4.5859375,0.3202288409435087,0.4794653330036081
4.58984375,0.9486228908487305,-1.3283204137428637
4.59375,-0.8225383409855175,-1.8843309106767567
4.59765625,0.7103934911153664,0.5485893924210963
4.6015625,0.01329340916785983,-0.7293667130562167
4.60546875,1.8018106455435052,0.35302796202663966
4.609375,2.2432569012622112,-0.4572741356149376
4.61328125,1.8494216725933361,0.011029281353857232
4.6171875,-2.117433822061378,0.08601705753849642
4.62109375,-1.8700326715221631,0.4023576931380811
4.625,-0.778984348693765,0.28176453882655256
4.62890625,-0.6266338544080106,0.09111010427333782
4.6328125,-0.04631024916605698,-0.3631693868990248
4.63671875,-0.13867565086063594,-2.3435466322096534
4.640625,-0.8247004822544124,1.5152240377795956
4.64453125,1.4538219660254972,0.1044368547326573
4.6484375,-0.7132976046261427,-0.3763189695546886
4.65234375,0.261733876018186,-1.539647096988857
4.65625,-0.058950264641643976,-0.04828450244797038
4.66015625,1.1057455311389754,-1.7995735194367548
4.6640625,-1.8639741737960644,-1.7592372295194827
4.66796875,0.4832554477678385,-1.169161084867863
4.671875,0.39832209518858946,-0.03161124559332015
4.67578125,1.0575253815441945,-0.3965275270460769
4.6796875,-0.38284929686693436,-0.01122402661066606
4.68359375,-0.8555293253223251,0.9363595987000385
4.6875,-0.8277249268212754,-1.7467319103648817
4.69140625,0.0487746574340353,-0.03773001754327999
4.6953125,1.1173988589403174,1.0722991924351915
4.69921875,-0.19274692969810164,0.4864342717874172
4.703125,0.2177101261956188,2.094235785216453
4.70703125,0.5001850014797375,1.6246814342591072
4.7109375,-1.6523613265764383,0.02300531126221137
4.71484375,-0.21374428582989902,-1.6515933064099761
4.71875,1.7319464540423863,0.845406624560439
4.72265625,0.6723689688473975,0.306771776330684
4.7265625,-0.9026391171315192,-0.361781892901033
4.73046875,-0.32852452197999127,-0.7275750065231426
4.734375,-0.42030972552265516,-0.9181997471790936
4.73828125,-0.34558246343199417,-0.37632158800966137
4.7421875,0.10041471560067688,-1.0584995450983046
4.74609375,0.32880360685224475,1.1066739675887054
4.75,-0.2172011598125963,-1.0688259640142816
4.75390625,0.8733588391438775,0.5328244726491329
4.7578125,-1.3696676326085282,0.9061464611768322
4.76171875,1.68840759271837,-0.49055153734004514
4.765625,0.2303205848614041,0.013401655529342344
4.76953125,1.6881963700211051,-0.6662853274876055
4.7734375,1.4905394844012267,0.2546273852188125
4.77734375,-2.3054151215098537,0.024513657470548997
4.78125,1.4823822589065758,1.1114890411645661
4.78515625,-2.792649665225487,-2.2907667100293385
4.7890625,0.024877432369095013,0.46341300125293394
4.79296875,-0.08810704963302349,-1.2365278990696713
4.796875,0.2703767663076888,-1.8228851268278639
4.80078125,1.041213649473025,-0.9693196201026486
4.8046875,-1.6553187026893195,-0.06529859721600238
4.80859375,0.5418308503620789,-1.6988518748389654
4.8125,0.861273094908036,0.40156813800986413
4.81640625,0.34294695692057986,0.47554436700917396
4.8203125,-0.8865082205486204,0.06617802895188056
4.82421875,-1.0196264240109936,-2.0455859157646015
4.828125,-0.497373413144007,1.3104909028782903
4.83203125,-0.4693699186837585,0.07102903795736645
4.8359375,0.025134306365210322,-0.22659981673953455
4.83984375,1.9767442054994762,-1.4437575451232125
4.84375,0.2765883044004104,1.6907658016463252
4.84765625,1.9646570275186346,-0.38408318587161294
4.8515625,0.044192907751502794,0.6771194738646008
4.85546875,1.3199465173628213,-0.4815262762529444
4.859375,-0.3286687240338369,0.8060126730228525
4.86328125,-1.1430631988431865,2.4911175895591295
4.8671875,-0.07817995773104966,1.2641547844196506
4.87109375,-0.8558441159634037,0.09378555273642802
4.875,-0.9541207598436949,1.257320150683326
4.87890625,-1.0264610806730272,0.7731417229250703
4.8828125,0.7027650861919719,1.0546811371981284
4.88671875,1.1075936806423599,-1.909921090042262
4.890625,1.1291808656331266,0.5209844129513109
4.89453125,2.0145034711313228,1.7943703183691735
4.8984375,-0.8516651368355905,0.6668891317122362
4.90234375,0.10796650095910716,-1.9882985391642225
4.90625,-1.1100311839492603,-0.6563877740323292
4.91015625,-0.4654759835930242,-1.689636940698558
4.9140625,-0.3859443005487937,-0.8255514474963308
4.91796875,0.3904653670315669,0.6274242071062825
4.921875,0.3776047133420716,0.5640520272488174
4.92578125,1.8197844341035767,0.8528902390393885
4.9296875,0.6534805525175675,0.2548388726300786
4.93359375,0.06574896369823241,0.6015223188291624
4.9375,1.121606132259151,0.23747281300848053
4.94140625,-2.353117353703923,0.5171483249728875
4.9453125,0.1841885472066929,0.2779890334246433
4.94921875,-0.36420869703016634,-1.8265310097948262
4.953125,-0.5171781195963696,-0.44515144169567555
4.95703125,-1.774624530357751,0.7131129998412015
4.9609375,1.1101694618885432,0.793004930619086
4.96484375,0.06759086425918118,0.09520139896121589
4.96875,-0.756328488797833,2.62260147143454
4.97265625,-1.3214494054979307,0.7099432831672007
4.9765625,1.1023252813087008,-0.2622335546121906
4.98046875,-0.05480922654534323,-0.7361733770460841
4.984375,-0.9563268792689255,0.968029030267547
4.98828125,-1.5654285212718286,0.299397478026555
4.9921875,-0.33087746142136076,-0.34938455695590753
4.99609375,-0.46511590994829566,-0.05816019791003836
5.0,-0.16322419351514916,-0.04254044266672548
5.00390625,0.385417514826248,-1.354586092092798
5.0078125,0.2104256162827102,0.3395832616203796
5.01171875,-1.000900759370552,-0.40654606668192605
5.015625,-1.3139582957141942,-0.7382834668287235
5.01953125,-1.4246063742666593,0.4136042832833912
5.0234375,1.1715845329059815,0.13732967603673998
5.02734375,-1.8498563153101293,-0.5316740985792042
5.03125,0.4110301377591735,-2.0625810702784366
5.03515625,-0.6278458446359785,-0.6279121870811959
5.0390625,-0.21612778267197374,1.1122994080162294
5.04296875,0.6457007615101007,1.7544062088564194
5.046875,-0.2095892881177481,-1.2518777445483773
5.05078125,0.5416205919220688,0.2507524949468932
5.0546875,-0.0707449604475528,-0.9387786817634282
5.05859375,-0.059085612532365654,-1.0205536407883116
5.0625,-1.0904506190680368,0.5189219991144723
5.06640625,-1.0732907478399705,1.0197171288478895
5.0703125,1.953858765192912,-0.855901342735197
5.07421875,2.1191833980955073,-1.285363101685901
5.078125,-0.7900931439828868,-0.9719446161918118
5.08203125,0.8967878096719922,-0.39555396678279847
5.0859375,-0.028439315824576508,0.11965759591787734
5.08984375,-1.649354788688453,-0.8540413988935768
5.09375,-0.7183496747713503,0.752319040144433
5.09765625,-0.3083558053455434,-0.24510755914820137
5.1015625,1.0088094095998326,0.4280068844654431
5.10546875,1.1747089345512463,-0.10669709653888597
5.109375,-1.334472168274095,-0.3896387569487324
5.11328125,-0.15150594689057764,-0.9938117990500288
5.1171875,1.3664108338787908,-0.025527599451435082
5.12109375,-0.3547020839057934,-1.4015970434905942
5.125,1.2475142303935212,-0.6245504173419028
5.12890625,-0.012415670161988497,-0.8222948678793061
5.1328125,1.1889363423753716,0.31062790383040967
5.13671875,-0.36312023703807367,0.9146337697927892
5.140625,0.9870102489374484,0.895220596992932
5.14453125,0.7854404776748835,1.9154555053579096
5.1484375,0.7480465301450486,0.25882402905833984
5.15234375,-0.6032360654907766,0.8788534401587742
5.15625,-0.008322309057855371,1.3910488685507818
5.16015625,-0.22196427497644294,1.0960689118601872
5.1640625,0.5862717816863335,-0.7137908764967046
5.16796875,1.1015061910331396,-0.980280023263651
5.171875,-0.9352744041784502,-0.835340596501929
5.17578125,-0.634439436534451,-2.300757037989552
5.1796875,-0.7119019426501507,1.408461313012725
5.18359375,0.38228443358439174,-0.37153760963027516
5.1875,-0.25319700494193015,0.5282474176500827
5.19140625,0.537626515922809,1.6455026931224772
5.1953125,-1.548401652791005,0.9108837015738861
5.19921875,0.07576269051459959,-0.7525902518643303
5.203125,-0.4565579224640608,-0.6483623002109653
5.20703125,0.9158559367918816,0.1754834386988312
5.2109375,1.4201431906256634,-0.5148584539870179
5.21484375,-1.8812946960179286,0.5887923688360194
5.21875,1.6531766742076912,0.9296022962226341
5.22265625,-1.1163379945291687,0.8455947010726417
5.2265625,0.03263823664710443,-1.2311719984349454
5.23046875,-0.8976451480741279,0.16003429261065955
5.234375,-0.9988519352801547,-0.07378516148793243
5.23828125,0.939049644353607,-0.9832741456095626
5.2421875,-1.9349476652921023,-0.9600104436870809
5.24609375,-0.6484832204755339,1.3611735817025856
5.25,1.2118669763331216,0.7613051730372593
5.25390625,-0.3526157876822719,-0.23255184906273038
5.2578125,0.715514496599492,-0.3228127806481183
5.26171875,0.9759397805303773,1.4144293399812733
5.265625,1.1175268286609932,-0.42124514116677475
5.26953125,-0.7164293493968152,-1.2887727961555115
5.2734375,-1.113765718703751,1.1842970309863476
5.27734375,-1.5529434944743659,-0.4543294787689924
5.28125,-2.210062977788915,-0.3680365271854244
5.28515625,0.43386862848102514,1.0394248182410508
5.2890625,0.9371660230777143,-0.2826409098210245
5.29296875,0.8283727571124888,1.1966668961196452
5.296875,0.47401181538049425,-0.8932254388085215
5.30078125,0.7998228086328,0.030889428514701976
5.3046875,-2.5277459094071686,-0.8811368528526423
5.30859375,-1.2413662425916976,-1.7071269350331437
5.3125,0.2930014100997586,-0.722169882385042
5.31640625,2.500870412653012,-0.6671409937482022
5.3203125,-0.9563581820377473,-0.0819541878524721
5.32421875,-0.28580359385137893,-0.3738480886115447
5.328125,1.6984791491745812,-0.49075396338047217
5.33203125,0.19777812173491333,0.37581126635250517
5.3359375,1.2548386636803672,-0.5611312306081983
5.33984375,-1.4650839477689517,-0.26937113061202017
5.34375,-0.28989604344289427,-1.3385648020087513
5.34765625,-1.259720777906472,-1.668152176215694
5.3515625,0.2228354846212656,-1.1537639849809052
5.35546875,-0.4941183136731585,-1.0741961868788736
5.359375,-0.2544586312724474,-2.262311251202058
5.36328125,0.3610859802863934,1.3113966098950771
5.3671875,0.22476894445938908,1.356778816930702
5.37109375,0.5555628966712322,-0.599445649069957
5.375,-1.2126898918341844,-0.5962667436097704
5.37890625,1.3809939951056742,-0.5602467182782802
5.3828125,-0.41044281920357195,-0.8654514794610614
5.38671875,-0.45407629697573954,-0.5263847918135338
5.390625,-0.720424084344343,0.869989383702502
5.39453125,1.0198350843269355,0.9953262655619167
5.3984375,1.8005968091320923,-1.312882582827756
5.40234375,-1.1267600153509483,0.23686413087645486
5.40625,0.19165052838988794,-1.1317985383696703
5.41015625,-0.8958945004854996,1.4440741146384746
5.4140625,1.4288518163602784,-1.2787597914569504
5.41796875,-1.1229198851029623,0.8592358159041257
5.421875,0.5574922692282358,-2.5799816429285016
5.42578125,1.0691363034617496,-0.023838935498926978
5.4296875,0.8885810716059653,0.33346034638224115
5.43359375,-0.193691550333411,0.3821097275575128
5.4375,-0.5430881885361334,-0.195409384077889
5.44140625,-1.1306616143001897,0.363099493478791
5.4453125,0.5481946550754768,0.23719139535564487
5.44921875,0.7459805495873421,0.028395915439574027
5.453125,-0.010012245978959907,0.5086688107923604
5.45703125,-0.08520435559395897,-0.7154256368418649
5.4609375,0.9425257288079295,-0.06851710860117483
5.46484375,1.4400334948676015,-0.23751116410684706
5.46875,0.734879486391962,1.2408486999140862
5.47265625,0.14444701754175188,0.4714414465276545
5.4765625,-1.157460460461852,1.2188275719827597
5.48046875,-0.46497615699592704,0.6163426949858978
5.484375,-1.397669360953109,1.6157277586009504
5.48828125,1.4327261903286819,0.6996620637237023
5.4921875,1.2940946150987926,0.18311108126918024
5.49609375,-0.11636824596270823,0.03127750578256669
5.5,0.27792205318966345,-1.5794165650622052
5.50390625,-1.4898474481810744,0.5967678335853029
5.5078125,-1.0925303087009142,0.22402975418829074
5.51171875,0.7809844171601342,-0.36214788244481916
5.515625,-1.345805978828458,0.7905587571119032
5.51953125,-0.47346423193866155,-1.394854640345221
5.5234375,0.3807559023789604,0.27763957099007763
5.52734375,-1.3015552774387547,0.1652025632193007
5.53125,-1.6836211050602832,-2.31544658258738
5.53515625,-0.6954101126281278,0.20193391429524074
5.5390625,-0.3842562866078612,0.40029613271340897
5.54296875,-1.0900090417466672,0.38148264538095217
5.546875,-0.7644070288672424,0.6027148896113906
5.55078125,-0.6703094747938971,2.183737654629707
5.5546875,0.22095225879911484,0.5244387266577512
5.55859375,0.06396388113108988,-0.06560636634884343
5.5625,-0.5335246085936705,0.39442527227267127
5.56640625,0.3503522912056806,-0.9785638534926276
5.5703125,-1.0233898874599725,-0.4653853020413052
5.57421875,-0.29858191060933764,-0.43638394684757
5.578125,-0.5683592410820699,-0.8869983180616643
5.58203125,0.8611500160473805,-0.3894426180524354
5.5859375,-0.8367052647044712,0.9916470850383095
5.58984375,-0.31893114423864205,0.03746098073442708
5.59375,-2.327222981230903,-0.08880828721822617
5.59765625,-0.33084974636725745,-0.4238616212094337
5.6015625,-0.10043775757208902,-0.041900512979296346
5.60546875,-1.0182956322390981,-0.2543245525651297
5.609375,-2.320713470854986,-0.13730849769324313
5.61328125,0.5962821805629518,0.1713290560584914
5.6171875,-0.29983086241231865,0.7619122575750783
5.62109375,0.404281062556142,-1.8252158046208733
5.625,0.10286184458908772,-0.13682369915339337
5.62890625,0.4500317754390638,0.1672230716926424
5.6328125,0.6352528062988437,-2.577435615398247
5.63671875,-0.8970151316314763,0.6098388306526744
5.640625,-1.1375430549263834,-0.03274223865910682
5.64453125,-1.3257741209777154,-0.5277998609077562
5.6484375,-0.8517917161701986,0.9648352580510118
5.65234375,-0.5489737036053838,-0.5616236275766083
5.65625,-0.17313827323479014,-0.0404402965355501
5.66015625,-0.24546147974692606,-0.616024675144544
5.6640625,0.6596161982789797,0.35045887582869345
5.66796875,0.802145781883915,-1.0676877743765747
5.671875,1.0368132492398234,1.0066972987124954
5.67578125,1.3453256232834205,-2.265709940409528
5.6796875,-0.12631504216164205,-0.8903516597731039
5.68359375,-1.368447218119102,1.7312502082065189
5.6875,0.8166862064469631,-1.399600306040529
5.69140625,-1.36705802908668,-1.9997270753009595
5.6953125,-1.1437423262014372,-0.09976499154990827
5.69921875,-0.573485606319587,0.7564398350059012
5.703125,0.7350311662823541,0.340349752241813
5.70703125,-1.0011251864517596,0.42809296196706725
5.7109375,-0.6770963054051917,-1.027293103990279
5.71484375,2.711758544273962,-0.4234092391093433
5.71875,1.048416718873982,-0.4736352090427703
5.72265625,0.6300547538768998,-1.406562579525374
5.7265625,0.37652237970922303,0.6130814945548891
5.73046875,-0.4338699997731055,-1.4580265979257852
5.734375,1.9657372351658577,-1.8340526130940173
5.73828125,-0.03872848012882977,0.5402052409695524
5.7421875,-0.9089105255549366,-0.2822831303339648
5.74609375,-0.26625961264575054,1.9068099658228197
5.75,-0.9633322376120842,0.3396975304040575
5.75390625,-0.008432100983065367,-1.4919742774259042
5.7578125,-0.6832576547573084,0.1968588879475777
5.76171875,-0.05481326449420872,-0.024258620783407937
5.765625,2.363053539467556,-1.0255123663508285
5.76953125,-1.5398770024481134,0.2661543240028631
5.7734375,-1.8601698030504192,-1.2836384223950714
5.77734375,-0.6455676827266593,-1.1732721099584984
5.78125,-0.3446805437821976,0.0033045224906842145
5.78515625,0.7292922987404968,-0.8917647721014162
5.7890625,-0.3314727882474658,-0.13022637411213928
5.79296875,0.6806273143494205,-0.8257735642130624
5.796875,-0.5947755321625948,0.5221115136165868
5.80078125,0.2584282012092035,-0.5471381886607404
5.8046875,-1.4697004557646347,1.8076835361854857
5.80859375,0.23302336286458747,-1.9324932909865873
5.8125,1.1199974002010928,-0.007922224104025398
5.81640625,-0.17826904994738063,0.8605486595694842
5.8203125,3.0974364899982176,1.325843638374729
5.82421875,1.5853523428218899,0.000944300482402683
5.828125,-0.40699644619491526,-0.734256134789259
5.83203125,0.9791425613587191,0.2834775150582529
5.8359375,0.09705741422981796,0.08101103859428481
5.83984375,-0.13195974760912166,-1.638880750601462
5.84375,-0.7598607372066238,-0.7788460114600162
5.84765625,-0.45318737990514474,-1.0804970964669347
5.8515625,-1.2154736932509458,-0.2026291941423768
5.85546875,0.8956640864234633,1.5705831004601905
5.859375,1.0221470728200592,0.06896585955204897
5.86328125,-0.8765707571511268,-0.8911648550663384
5.8671875,2.390719125298758,0.047257893103884334
5.87109375,0.6397165074411965,-0.26664093534940336
5.875,-1.4286879460705626,-0.4248529599486231
5.87890625,0.015188063636423787,-0.9968425774742242
5.8828125,-0.24371777334864772,0.9653219010989078
5.88671875,-1.0027958259071688,-1.1247377065926574
5.890625,-0.04406773001002069,1.6347799389708584
5.89453125,-0.8095398642903806,1.2172746244005914
5.8984375,0.45060964741786125,0.36124789196369667
5.90234375,0.19189220301285137,-1.903487171860294
5.90625,0.088062319759339,1.6585226991994202
5.91015625,0.009012517583617293,-0.6873472234704542
5.9140625,-0.6704917500646926,-0.6111083042880902
5.91796875,1.5539809652528127,0.6799428368834173
5.921875,-0.5530463645355723,2.104215505453016
5.92578125,0.9004524113878055,-0.11343495782975074
5.9296875,-0.08986527279076671,1.006397239598377
5.93359375,0.5837061590535357,-0.06353592337246758
5.9375,-0.23391115316244454,0.675168985641211
5.94140625,0.016493453302281535,0.06925450600099355
5.9453125,1.7486663367607544,1.9038513947773925
5.94921875,-0.6367647668086496,-1.2439744313778152
5.953125,0.46881289844341695,0.7822723950423784
5.95703125,-0.539396354083282,-0.01482466515072627
5.9609375,-0.11015661947199287,1.4578030614728184
5.96484375,0.4782406471642005,0.3223509131104863
5.96875,-0.8549891003955654,-0.588165644261156
5.97265625,-0.8381041366517578,0.5577244347649306
5.9765625,1.3834160607775643,-0.34427765886480755
5.98046875,-0.7820890700711959,-0.6716834142070914
5.984375,-1.0938774551595767,0.27610327699032156
5.98828125,-0.22631247118806436,-0.04272223862677301
5.9921875,-1.4087119173294658,-1.064894120046301
5.99609375,-0.3206188643361815,-0.2530123419706147
6.0,0.4635311691922336,-0.16756171020748784
6.00390625,0.23951448301169806,2.5072322753261056
6.0078125,1.0885070574354359,1.0572554750187817
6.01171875,-0.9994467804521943,-0.0842032811511733
6.015625,-2.3446637814594578,-0.007582607851509427
6.01953125,-0.26799295554852826,-0.40836099827425726
6.0234375,-1.500520283414437,0.011026332792191217
6.02734375,-1.7970160912834354,-0.6392273680093608
6.03125,-0.2724469990268305,0.26889530573247805
6.03515625,-0.6724120635853095,1.7253052825592503
6.0390625,-0.11282960315138517,-0.37508762030916326
6.04296875,-0.547955494553076,0.3024155008699656
6.046875,-0.2972443885862829,-0.20680564583661945
6.05078125,-1.7717212337039314,0.06609281097316437
6.0546875,-1.4321187734270193,0.11228011541091001
6.05859375,0.05075168746379659,2.2885466785401807
6.0625,-0.05410445548223426,-1.640929856469181
6.06640625,0.567692330929454,0.3710506825002761
6.0703125,-1.1597378740627016,0.41557025328865155
6.07421875,-0.21672402097096108,-0.34941525458068534
6.078125,-0.07270261983636048,0.838060963882165
6.08203125,-0.1846145270023944,0.3482062619136348
6.0859375,0.24597819335140791,0.16934512988118558
6.08984375,-0.26848556564603143,-1.007064315468416
6.09375,0.6664450098712165,-0.9924087169713266
6.09765625,0.3967637573490667,-0.9658084885232087
6.1015625,0.607322363350928,0.5017659313769004
6.10546875,0.8860419824982632,1.0236294987490508
6.109375,1.0665668457617796,1.3749158775715862
6.11328125,0.5052978334073053,0.6596574949787182
6.1171875,0.4792261473394064,0.18048458440806156
6.12109375,-0.5720053375352504,0.19748568244815962
6.125,1.5331494735651787,0.5159853145138253
6.12890625,-1.0528601603559944,-1.5383357719176602
6.1328125,-0.9326084610112819,1.3253000188935253
6.13671875,-0.35644610068760313,2.113587704122446
6.140625,-0.8112678961620045,-0.7406545255445399
6.14453125,-1.9010344892488735,-1.714744940066591
6.1484375,0.1965184829443149,0.44304331426308163
6.15234375,-0.41305936550317035,1.5457286139814432
6.15625,0.8020576429752757,0.30890865206232765
6.16015625,1.631872666827026,-0.8747251747056938
6.1640625,1.1948543484246026,0.6791312888517481
6.16796875,-0.8707589301276611,-0.8621303601228637
6.171875,-1.408139850797306,-2.119132342590296
6.17578125,-2.2868852088687177,0.3634723652126344
6.1796875,-0.12938522854648693,1.0759401872437693
6.18359375,0.2949705430473627,-0.31896581704651905
6.1875,-0.1488505615949349,-1.3682063479716229
6.19140625,-0.15141920531161093,0.16904268420182267
6.1953125,-1.0360585200484524,1.5429859081724455
6.19921875,-0.3253340471015476,-1.2717925653206763
6.203125,0.9554899973015308,-0.6592084148819989
6.20703125,-0.9812228996873126,-0.16644198911880193
6.2109375,-1.75209056948564,0.001431465556675267
6.21484375,-1.837683832795771,-0.10892120100182204
6.21875,-0.9180950051851479,-2.079293512446907
6.22265625,-0.46883942605609275,-0.31210067012710463
6.2265625,-0.7521203205752204,-0.33130142893990083
6.23046875,0.029342455662904485,0.055820894778003026
6.234375,-0.686274194823674,1.6802725545985702
6.23828125,-0.5480833624939442,-0.531986159658657
6.2421875,-0.8545781791473058,0.28999311104071385
6.24609375,-0.9646928532280733,1.1636440159750627
6.25,0.7760663831385585,0.25848434189334596
6.25390625,-0.4477693678613893,0.5326767531658866
6.2578125,0.6634857250215402,1.0593338183076104
6.26171875,-2.165824494411248,0.5101312869935263
6.265625,-0.13954669850886905,-0.2948966070687651
6.26953125,-0.1089579689615113,-0.8560635172873705
6.2734375,-0.29548005186859105,-0.953474203813177
6.27734375,1.8417979068020487,1.1568263184126908
6.28125,1.2381583541846166,0.0350762110887839
6.28515625,-0.2964476075176775,-0.9206065882505663
6.2890625,-0.510831302763152,-0.95281754622451
6.29296875,1.1139657955692623,0.42075729238402665
6.296875,-0.7590218165428233,-0.2592372162377717
6.30078125,0.5575196272736936,-0.9064776003042133
6.3046875,-2.64749931255573,2.5157287994962307
6.30859375,-0.28640271824960983,0.49858700209616497
6.3125,0.6499280826954681,-1.1660847673255543
6.31640625,0.4176080219196607,0.1632917845524214
6.3203125,0.2255855017687875,-0.16443244640542276
6.32421875,-0.964050975772303,-2.0648657924359335
6.328125,0.6439733420352901,-1.3309220323267967
6.33203125,0.5020368040566019,-0.4081938001045559
6.3359375,-0.5888967457156778,1.5233985183228576
6.33984375,-2.04321650587025,-0.014977225604088713
6.34375,-1.1303857616520268,-0.6598467636619183
6.34765625,-0.4719463950560657,-2.327255452740146
6.3515625,2.5946070998507467,0.7336307779724538
6.35546875,-0.6143676126023878,-0.05316806613087807
6.359375,-0.6986580007785129,-0.3816337107823867
6.36328125,-1.2689151647293364,-1.4087434033922124
6.3671875,-0.6720438475161638,-1.3196471739690847
6.37109375,-1.194726879818878,-0.33188970055974854
6.375,-0.5721970099197775,0.8563306403432177
6.37890625,-1.335638348981741,-0.9873784958233708
6.3828125,-0.24599166634526828,0.018540608278162132
6.38671875,0.28784104919114273,-0.08842473177024812
6.390625,-1.3330469989790752,-1.8987062722127663
6.39453125,-0.18954415644737221,-0.8905081504229818
6.3984375,0.1984396047293611,-0.18579074772613766
6.40234375,-0.846533072031801,-0.6316292522554189
6.40625,-1.6133226986331215,-1.515136881790913
6.41015625,-0.07100036973006707,-0.5597757153206043
6.4140625,0.22201194770588623,0.5198633470022739
6.41796875,0.9494951327824117,-1.4282531192031407
6.421875,0.3320420900505667,-2.7351904725982923
6.42578125,1.4099418952504355,0.08653983879914412
6.4296875,-0.6011387671040456,-0.4570453009906636
6.43359375,0.11900567150439245,1.378334465218946
6.4375,-0.2973556270843845,0.8688600043201297
6.44140625,1.8396226415050034,-0.6391819947442828
6.4453125,0.3098146245130725,0.1457239333186376
6.44921875,-0.13228005979328825,-0.49701759763352316
6.453125,1.4945260179366218,1.0763421997847678
6.45703125,1.2474883251742446,-2.299215835535223
6.4609375,0.3270357458885864,-1.0339635207426503
6.46484375,-0.2334429792448568,-1.4842526449325693
6.46875,-0.18564475773391353,0.011889141531073694
6.47265625,-1.5763288680377638,1.6201567010074738
6.4765625,-0.7035762945163598,-1.1529771220827685
6.48046875,-0.8291109007554243,-0.983450315342864
6.484375,-0.8361535328861506,-1.1694708715453688
6.48828125,0.18727343632176208,0.7469920619073904
6.4921875,0.6483264173537493,0.17724245705419692
6.49609375,1.1681568833018636,-1.2285683349553633
6.5,-0.5323342724177672,-0.7254047058973012
6.50390625,-0.12881028171640133,0.5898419861515795
6.5078125,1.6662780524164527,1.9734778480964692
6.51171875,-2.1009705689020044,0.2379086386090359
6.515625,0.6811169983652025,0.34900825693214305
6.51953125,1.637766922942246,-1.4104747192024987
6.5234375,0.2041376591379246,1.2666865436531451
6.52734375,-2.1015075747482865,0.3741039751112203
6.53125,-1.1249013924313058,-0.7523466842701914
6.53515625,1.3558324987708843,0.18647991147566806
6.5390625,-2.96421381196718,-0.7645324300135892
6.54296875,-0.6504028040338528,-1.7781030371748086
6.546875,0.6112464801251069,0.3098518556922997
6.55078125,-0.3361646958506441,-0.5342929637520696
6.5546875,-1.3099323133574183,0.8753035982692772
6.55859375,0.7511467342953403,-1.541891803865047
6.5625,0.667560889203803,0.26861049849967467
6.56640625,1.0884225234856733,0.7614971842033991
6.5703125,0.012133290738087147,0.06380010681918856
6.57421875,1.0012022901956439,-0.41041863215669433
6.578125,-2.2041030682883513,-0.8939450865264505
6.58203125,-0.817319329126606,-0.5602563259498455
6.5859375,-1.4572327959084135,-0.40093145242693995
6.58984375,0.7862458438309592,-2.2099908078134503
6.59375,-0.29128375090925945,0.9649711316404874
6.59765625,1.3190921187669902,1.6010456614969713
6.6015625,0.056643817747884635,-0.6009848965763217
6.60546875,-0.585905570118182,-1.9191909058106391
6.609375,0.5586211938501151,0.3507882522984954
6.61328125,-0.07144555806414794,0.8758558344469318
6.6171875,-0.27142829856271533,1.4975238405423403
6.62109375,-0.9282835696174703,-0.0032872655841765493
6.625,0.554711762390704,-0.035695143190699635
6.62890625,0.029057955607492327,0.6549174952136841
6.6328125,1.0598842663456227,0.13096351700276038
6.63671875,-0.23785324734161575,-1.0006567255361525
6.640625,-0.07065506258846575,-0.4321186797469736
6.64453125,1.1957536096330554,0.06702443213808973
6.6484375,1.2664676547135132,0.5970115644901572
6.65234375,0.9382571471786507,-1.2514523540994418
6.65625,0.45713103947731,0.45400700432024216
6.66015625,0.05368338399740792,-0.4008224057658555
6.6640625,-0.48489512671082363,0.07345353828031617
6.66796875,-1.3291164968977411,-1.8108124351915513
6.671875,0.9390385909759814,0.9267193703503787
6.67578125,0.43836653032560163,-2.7324933689446462
6.6796875,0.9512166728592836,1.8203811789743995
6.68359375,-0.7997245344382371,-0.3819278545617931
6.6875,-0.9855152260289911,-1.5457159490918198
6.69140625,-0.7760193807318603,0.15048186179325104
6.6953125,0.15816144305075663,0.38339286480802875
6.69921875,0.9772181767739605,-1.1076171633961038
6.703125,-0.9571817867445328,-0.19149866998291695
6.70703125,0.7396668475207405,-0.052743067478230043
6.7109375,-0.058165396980393795,-0.34660443730510365
6.71484375,-0.6534467486482659,0.6377597832738037
6.71875,-0.20486303117896784,-0.5974676180666718
6.72265625,-0.9134113135265581,-0.9009241533642586
6.7265625,-1.6621302784199616,-0.24081354535741378
6.73046875,-1.719986989635776,-1.3376813328547876
6.734375,1.4711465381257833,-0.5537909428667611
6.73828125,-0.7956134417200911,0.28516711278486706
6.7421875,2.621450299119671,-0.31928290380587865
6.74609375,0.7406947591074334,-0.608290395560172
6.75,0.0035523790045788547,0.9160639959463616
6.75390625,0.47110607687012535,-0.8110094167689115
6.7578125,-1.9422260866654353,0.03171859931228029
6.76171875,0.5969616200027453,0.8564969601434032
6.765625,0.29559685950237174,0.5925616174644451
6.76953125,-0.5955167969991082,0.6832487487059345
6.7734375,-0.47391750740697597,0.4244496518385593
6.77734375,0.40111814148785946,-0.5914977341651557
6.78125,1.3989334712233181,0.09961935866014626
6.78515625,-0.8708054650679075,0.988511116389005
6.7890625,1.0940547039781898,-0.6832929024405433
6.79296875,0.17553805367375186,-0.24990442336496801
6.796875,-0.5407829349669235,-1.1150394928542808
6.80078125,-0.813034892834205,-1.2526901978501723
6.8046875,-0.7618430476240639,-1.7002045804738846
6.80859375,-1.0786775379782536,0.6352455289494138
6.8125,0.6050070138671518,0.7039388782264784
6.81640625,0.06799231511464456,1.2978779158774283
6.8203125,-0.5271703973777225,0.051925670563595025
6.82421875,1.264932253194526,-2.23582241421771
6.828125,1.3113237938687217,-0.7316790180851378
6.83203125,-0.4183638921250999,0.2732379511384786
6.8359375,0.6724810459783047,-0.5964627804700778
6.83984375,-0.04065564445374049,0.9020673121844022
6.84375,0.9592309891854428,-0.26838437655955544
6.84765625,-1.6044139678683502,1.0861507783918227
6.8515625,0.428848160885315,0.5354563382296865
6.85546875,0.5508482479055347,-0.20173796664853091
6.859375,-0.8492844656823133,-2.2768749805280977
6.86328125,-1.4765179398297998,-0.45990092613123035
6.8671875,0.1614821176438441,1.6932683953620238
6.87109375,-0.49710306379779823,-2.5106635757841227
6.875,-0.1541748469047797,0.35615037236092945
6.87890625,1.258830286966815,-0.32259413214879284
6.8828125,0.8527405598246965,-1.1776783574073202
6.88671875,0.3028325997922812,-0.8833993348310548
6.890625,0.04810012096107656,-0.3845464421637862
6.89453125,-0.21273546180139233,-0.5701052383478623
6.8984375,-1.0143958277810707,0.4603700993981919
6.90234375,-0.6715026905965159,-1.236634403866149
6.90625,-1.1051138828071814,-2.148742821641101
6.91015625,-0.5391967303599468,-1.1910825110614864
6.9140625,1.0194149517855626,0.9084518799589918
6.91796875,-0.8633600502054906,-0.20800249737978094
6.921875,1.1224358333636806,1.3760264326178284
6.92578125,0.3977983597199603,1.51097952125328
6.9296875,0.06710387269386238,0.9948723347157329
6.93359375,-0.9351580231325697,-0.017640137831281315
6.9375,1.7440648510897758,0.10103295335180629
6.94140625,1.0191592910509166,-0.9254925333322036
6.9453125,-0.3177253545697012,0.26630976465566253
6.94921875,-0.6651188251878201,-1.3527319538972913
6.953125,-1.2155642181104784,-1.4631260151478807
6.95703125,-1.1367399883823688,-0.22084231332910503
6.9609375,0.9706955754284566,0.5349967597126295
6.96484375,-1.281321470464016,0.7389137394890632
6.96875,0.8402946395249248,-1.441999207933155
6.97265625,0.3419950553883783,0.6633539313052811
6.9765625,-1.1047050462972656,1.7340277940706104
6.98046875,-0.2467603341195162,-1.291762427854408
6.984375,-2.018805611743328,-0.300243875316371
6.98828125,0.9075255531303708,-0.5951051812309199
6.9921875,-1.006809699282563,0.8049312518614632
6.99609375,-0.28373857386994406,-1.2813216964997467
7.0,0.35911049768295294,-0.8883042319874336
7.00390625,-2.0111035654671183,0.6998812169190374
7.0078125,-0.14967658581994964,-0.7454639669806099
7.01171875,-0.16651657180522203,-0.65978593496497
7.015625,-0.40932784271332845,0.16513321466779074
7.01953125,0.5492254673810493,-1.3777058981818877
7.0234375,0.08821331586668407,-0.5741821164485521
7.02734375,-0.14842104517597043,0.1643885026564794
7.03125,0.8539856134250139,0.17078524429243006
7.03515625,0.7458604157565915,-0.6624130322096018
7.0390625,0.6439179672419151,0.6546312613291951
7.04296875,0.39412635556000164,-0.11266875109653669
7.046875,-0.5782932990456044,0.6117855916539278
7.05078125,0.297340546487007,0.6931495564198983
7.0546875,-0.3588566743409161,1.642003204649983
7.05859375,-2.330534206545745,-1.3213594844042604
7.0625,0.7953123010389571,-0.35483388798236926
7.06640625,0.011315232512394026,-0.4736299157139957
7.0703125,-1.5596342136004622,-0.2678379062724034
7.07421875,0.03448519936959608,-0.4779329108345744
7.078125,0.1920177593128593,-0.10541403277130144
7.08203125,-2.13635908881837,0.4044879955012092
7.0859375,2.4216738127359068,-2.0423177658724136
7.08984375,0.263701033575921,0.7857371013697556
7.09375,0.18888924163120757,-1.3574225039133732
7.09765625,0.14120091786967304,1.5556255015440505
7.1015625,1.3579730362982945,0.7211060739137921
7.10546875,-1.3853689782670404,0.7359393973969246
7.109375,-0.16286915089018628,0.26699330927142595
7.11328125,1.0983422365357711,-1.6226088994153292
7.1171875,0.652066968901044,1.0905569294097401
7.12109375,-1.1589143536929756,-1.1775028065372632
7.125,-0.8013369705453515,0.7771421345425574
7.12890625,-0.6562228925270795,0.7290709450120599
7.1328125,0.9936514683989071,0.38062829871437537
7.13671875,-1.6238298718691229,0.418185705792128
7.140625,1.9078932739639862,-0.5515259826940551
7.14453125,0.6649567876348108,1.4054358626239063
7.1484375,-0.7867147575701775,-1.706270386782768
7.15234375,-0.2809303911615371,-0.684573768817996
7.15625,-0.3487356177017414,1.7839443506924808
7.16015625,0.552981632138428,-1.6448157138967443
7.1640625,-1.2688628076620747,0.7090983313661094
7.16796875,-0.29955940783138685,-0.6613447083491454
7.171875,0.3418520224512008,-1.2070658626972672
7.17578125,0.44391864718686275,0.8299892987912058
7.1796875,1.0774941762379489,-1.2145297553547418
7.18359375,0.33565836553508294,2.474755471327217
7.1875,1.0693094250335335,0.07213154629329023
7.19140625,-0.38416498098830176,-1.9503070153263844
7.1953125,-0.7539583185753082,-0.7010723844062579
7.19921875,-0.6779774634293303,0.9286767366661787
7.203125,-0.0024920871178780828,-0.09872158133668128
7.20703125,0.32005750588369763,-2.3004701190165533
7.2109375,0.17031853086089155,0.6941152513045223
7.21484375,0.297876155328515,-1.4145326428520621
7.21875,1.5130190782892496,0.18768101724594496
7.22265625,1.5340960509069987,1.6170633888509067
7.2265625,-0.8076478289647915,1.4630146187042563
7.23046875,-0.14711103876664833,-0.32496000430318134
7.234375,2.102195708240413,1.0272087946237038
7.23828125,-0.642134827416804,0.24370786154714996
7.2421875,1.5408335012025862,0.6197288096365677
7.24609375,0.7724957075543325,0.5744587484436845
7.25,-0.5089357860621238,0.554421995237439
7.25390625,-2.313932855395128,0.6915623211647574
7.2578125,1.5560237223866114,-0.9131520635047562
7.26171875,-0.859277865972142,-1.3425676919372347
7.265625,-0.11494187114056961,-1.212929324195373
7.26953125,0.3012515160651387,-0.3289618581920828
7.2734375,0.9693231613884589,0.9994740905506466
7.27734375,0.7574126221600262,1.1137230998391807
7.28125,-0.6784633750012138,-2.00214259479991
7.28515625,1.003055692740284,0.4602832118017539
7.2890625,2.108807511854208,-0.6960793891464442
7.29296875,-1.662240298852474,0.7008212508471119
7.296875,0.04055130566061362,0.48805141087431153
7.30078125,-0.22834700283841528,-0.4416969637147142
7.3046875,0.31478344889696835,0.5663835184508795
7.30859375,-0.8878629519532123,-0.6027275615434325
7.3125,0.32082916434459985,-1.1680762971625556
7.31640625,-0.6555863070563169,0.7957711607152803
7.3203125,1.06728102931517,-1.0361644718695122
7.32421875,-0.5679222658865376,1.4303789640366358
7.328125,1.876848391217082,-0.2654704594708286
7.33203125,-0.9733165735323446,0.4218712308241724
7.3359375,-0.2356936464045448,0.10743363747604581
7.33984375,1.146068137935389,-0.9143156834781929
7.34375,0.28663741984846214,1.6252790104122463
7.34765625,-0.47454945315483416,0.8347760794100741
7.3515625,-0.12827484970710104,-0.4128730335930217
7.35546875,0.7172416472969116,0.39251905276946686
7.359375,-0.3608918868648318,0.7455789859836885
7.36328125,0.889621208647026,1.1492267266192642
7.3671875,-0.02873301004544239,-0.36139117304772594
7.37109375,-0.09657853992317818,0.1930804342939885
7.375,2.1772803425014238,0.09589397513986754
7.37890625,-0.22064100552344698,0.23476924544822925
7.3828125,0.5342609515699193,-0.1115320569955191
7.38671875,1.775656588834419,0.12102100866248693
7.390625,-2.2077401189229775,0.33841870703299065
7.39453125,0.33765391721598836,1.5124107680678398
7.3984375,-0.43880315707786094,-0.2985140081487105
7.40234375,0.33476184081614996,-0.6900328364464822
7.40625,-0.7707578064814457,0.6015656616673178
7.41015625,-0.2358390585235001,0.4557002920869152
7.4140625,-1.5556309561638655,0.8662584146648669
7.41796875,-0.18427317835623455,-0.41413054756749973
7.421875,-0.3530593051703787,-0.2695612550159758
7.42578125,0.511886959418093,1.121874049212423
7.4296875,0.7434873958287943,0.8276831400803472
7.43359375,1.5208911023293203,1.4878502768493045
7.4375,-0.45338911685303035,0.17347129177769943
7.44140625,0.5750828637844103,-0.8067577584297045
7.4453125,0.9632557483813855,-0.4729501542464197
7.44921875,-0.49413716579591355,0.9951505043031038
7.453125,1.0231655960183634,1.0330610914242062
7.45703125,-0.32546243262331076,0.5600767320489112
7.4609375,1.2309652029560494,-0.2913546937126883
7.46484375,-1.136875201388613,-0.9959494060576976
7.46875,-0.11519309598062095,-1.5200811297645858
7.47265625,0.12946503505352483,1.3000409773849948
7.4765625,-0.22135304017674062,0.08566193126919076
7.48046875,1.179547598222402,-1.6444843912824978
7.484375,0.2685718950489399,0.6715877734814659
7.48828125,-1.0060903954928857,2.7337575854454896
7.4921875,0.2639363125340464,2.348003555530545
7.49609375,-0.29615477412372926,0.8500452685857635
7.5,-0.24624719656853997,0.8679651775023424
7.50390625,0.33179477655465833,1.8386216700235787
7.5078125,-2.2494746091357753,-0.9935715237264149
7.51171875,0.2609344380325621,-0.8952557018887856
7.515625,-2.1001834890009348,0.5474116634369871
7.51953125,-1.0768662448468473,0.8117859683108882
7.5234375,1.3688598215007646,-0.218370475339373
7.52734375,1.2800908474046278,-0.8449787760474756
7.53125,-0.9841546167713089,-0.805308476478674
7.53515625,1.0605314699220243,1.4945870762911448
7.5390625,0.7585716254925783,0.32253658339733865
7.54296875,1.6962095257873597,0.509951592752367
7.546875,0.6887199218004687,1.8687134495755116
7.55078125,-0.3849819568556006,-0.2839529827997969
7.5546875,-0.21897599602539278,-0.03213957807263654
7.55859375,-0.17673526422868086,-1.4286376263261193
7.5625,-1.2259354764534287,-0.5953095791501337
7.56640625,0.3278139964722231,0.918332279133834
7.5703125,0.7535330176674421,0.38903539371733636
7.57421875,0.6113302965580034,-0.7832257232569922
7.578125,0.12300769649663269,-0.1431153680353221
7.58203125,-1.5605454344500649,-0.8335027201997608
7.5859375,0.34915813283799557,1.1845617646116793
7.58984375,-0.17801005686379312,1.1438177630256756
7.59375,0.0912475897730908,-0.5082136303043212
7.59765625,-0.8482831852020907,0.6639258317816603
7.6015625,0.46113524131594047,-0.17943830798900523
7.60546875,0.43456556506215516,-1.2038424319615153
7.609375,-0.49155834489019523,0.08206321338203632
7.61328125,-0.20827541705097224,0.8976425878299905
7.6171875,2.0330599711453528,-2.185022865069035
7.62109375,0.8116374300833472,-0.32346606199925465
7.625,-0.7713232296337558,-1.2258245820048947
7.62890625,-0.06418233077780656,-1.2104731351455384
7.6328125,1.3615539006039312,-0.8175723707315228
7.63671875,-0.03126094401377943,-0.8928526737069716
7.640625,0.026137183379652585,-1.0862703140924599
7.64453125,0.0767606714285654,-0.6183489291377624
7.6484375,-0.5904461605582918,-0.824681965001725
7.65234375,1.9599143783824569,0.9639343198218377
7.65625,-1.0206980439492472,1.2160464438304726
7.66015625,-0.3916339104778373,-0.7822632179700368
7.6640625,-0.6768775254322043,1.4293391244700973
7.66796875,2.3986740895463616,-0.2493145116742044
7.671875,-0.7943828484557446,-0.0803979922656805
7.67578125,0.3357858310252916,0.6725393287781064
7.6796875,-0.0389476954051405,1.306500476274117
7.68359375,0.6994861043640073,-1.2025465702975466
7.6875,-1.2342219162368624,1.372127470036662
7.69140625,-1.354543957234903,-0.5179409185991944
7.6953125,1.2424261238304528,0.7981044865963094
7.69921875,0.0029559784376255887,-0.2030481947281551
7.703125,0.17366473241084998,1.4069361752193543
7.70703125,1.1625797460930702,0.9063327922553724
7.7109375,-0.34105951336436635,-0.9017743456427155
7.71484375,0.09279059789848294,-0.13617951605281906
7.71875,0.3578005590653166,-0.5401394844348062
7.72265625,-1.5141062272393635,0.13670815804122063
7.7265625,-0.8724138735810257,0.6793342048234665
7.73046875,0.4028743274252483,-1.5701885297062241
7.734375,0.1276496527422611,-1.8770491578780157
7.73828125,-0.5731030305086192,1.4424747264850808
7.7421875,0.44538384021867566,0.22671116654307516
7.74609375,-0.046561259096854136,-1.5078746039951003
7.75,0.28310331065093314,-0.9135758923689629
7.75390625,0.4867664920008244,-0.7273753985169488
7.7578125,-0.5514299996744553,0.7630854745946297
7.76171875,0.808680802307556,0.3500463948838111
7.765625,-1.380942789706288,0.4116973934003206
7.76953125,-0.0594519569776917,-0.7395567512262106
7.7734375,-0.5582002679004905,0.26589021654839023
7.77734375,-0.45397643514284675,0.3782810296252038
7.78125,-0.1303823646357395,1.4083397976543217
7.78515625,-0.9880704817647729,0.19640437282993567
7.7890625,-1.141235156843039,-0.9840775731821608
7.79296875,-0.9952701583955387,-1.0066159734359945
7.796875,-0.3614531560883599,0.7073409898749511
7.80078125,-1.3844629051433146,-0.5723792665007407
7.8046875,2.402655224378048,1.7913405914967557
7.80859375,0.2917915695578513,-0.143837649924082
7.8125,-0.04466278608334011,0.4089724818926756
7.81640625,-0.004881744686525163,0.17537228578464303
7.8203125,-0.9858647513517688,-1.277092643016394
7.82421875,0.5678778577505911,-1.39759606902131
7.828125,0.09856626733630458,-0.05262930687433364
7.83203125,0.682903407134283,1.091462823277999
7.8359375,-0.18758775506762618,0.49844311897745597
7.83984375,0.7881238235609035,0.9182155029808361
7.84375,-0.15176916768498697,0.7280031234552369
7.84765625,2.0229319221727726,-0.421093747320207
7.8515625,0.41856632122561294,1.5407521544846474
7.85546875,0.7033996957046034,-0.6202391168348526
7.859375,0.37209005603723344,0.9571033761694069
7.86328125,-2.125505149331251,-0.010254167327114443
7.8671875,-1.7504440464514452,-0.9470864103782748
7.87109375,-0.15481280316829832,0.6166997506934067
7.875,-1.162637349476544,0.33507872730794336
7.87890625,0.09507572351061012,-0.5543449980074878
7.8828125,1.179868158454308,-0.15141740582875196
7.88671875,-1.142247273221562,-0.7792167312124296
7.890625,0.33471029744833114,-0.09741792183224798
7.89453125,-0.7628651651310256,-0.27542364852438356
7.8984375,-0.06728343117736081,-0.19143659502331106
7.90234375,-1.182748998035555,0.17120389537204597
7.90625,0.2623774729693629,-0.7368377822451716
7.91015625,2.3315321588441393,0.7683462315561044
7.9140625,-1.7290629994138005,1.0922481887973705
7.91796875,1.0212444118970079,-0.022967714148040323
7.921875,0.03782234013108363,-0.7822642952977462
7.92578125,1.7213008449529321,0.1586969534272857
7.9296875,1.2197491376334944,1.904209268862202
7.93359375,0.041190323167355554,0.8992239166869723
7.9375,-0.013245072321066795,-1.0338578583962201
7.94140625,1.4575342486571934,-0.2155925936818389
7.9453125,-1.3059071739710528,-0.7064891692278897
7.94921875,0.13896486201776692,-0.7255469978749767
7.953125,0.42249794371596117,-1.4151150223092102
7.95703125,0.21740591183722985,-1.1882554459322856
7.9609375,0.755747017583559,1.370482606246214
7.96484375,0.917526347353938,-0.300033002922371
7.96875,-1.770137881413459,0.8548011811839956
7.97265625,-1.372074773771694,-1.1151367862087926
7.9765625,1.129021508763282,0.8267777525727119
7.98046875,-0.12940938934697852,-0.08375450666682331
7.984375,-0.16769379837590703,-0.2580746566269965
7.98828125,-1.9444716123084618,-0.12249393641591373
7.9921875,0.16031874966396284,0.43846151425873103
7.99609375,0.5356208087632834,-0.20052533390520638
8.0,2.9009006874863354,-0.7861118451129813
8.00390625,0.1674784082960121,-1.054501396273503
8.0078125,-0.8096736140297275,-0.297353571518832
8.01171875,1.9426365713219553,-0.9698104171830313
8.015625,0.03214015338342754,-0.5560614431576263
8.01953125,0.5670185405116335,1.0984314350068
8.0234375,1.1659332219081817,0.5249115675123579
8.02734375,0.5336155236339654,1.8537592952426445
8.03125,-1.443081068047776,-1.1898623003031907
8.03515625,1.4770478673471998,-0.618311448249964
8.0390625,0.25756973160326846,0.9798712973865893
8.04296875,-0.19924045435569934,2.24973503989931
8.046875,-1.0238453386094475,0.14895857468817564
8.05078125,0.34327971841508054,0.6414670620599368
8.0546875,0.14360521420618516,-0.6164291122883125
8.05859375,-0.1957232821531822,-1.3030459513455914
8.0625,0.13895045501567976,1.5552574917398758
8.06640625,0.9408471819193023,-1.0917952194537102
8.0703125,1.6798655179282487,0.9564808917522415
8.07421875,-1.4718850901894618,0.12494811916201701
8.078125,-1.253491318042429,0.5093107706088814
8.08203125,-1.4658919914876822,-1.1014294630781174
8.0859375,0.8632020846705942,1.9155225897907135
8.08984375,0.6489590755003982,0.30408831541058556
8.09375,0.8572964158588957,0.7564618387113612
8.09765625,-1.0138632457169308,0.31351339968429476
8.1015625,0.3715888780202703,1.3831720969649441
8.10546875,0.2878099119921604,-0.29359150344360363
8.109375,-0.36684432380721294,0.9860706077873851
8.11328125,-0.5125647917529026,0.8203766652637886
8.1171875,1.8200069585450505,0.7699223616256815
8.12109375,-2.2575693607679232,0.7488246994090175
8.125,0.7493210569555495,0.2489784288234067
8.12890625,-2.2683681167341145,1.770549466714813
8.1328125,-0.9671986337088418,0.4446602299093505
8.13671875,-0.41380174518784807,0.5973728541345347
8.140625,-0.9089794697470203,0.09073216900867193
8.14453125,0.03057728532428868,0.7242619925892697
8.1484375,-0.5948164601648007,1.3764978239460484
8.15234375,-0.3912329283930569,-1.368701535821496
8.15625,0.2559801764200085,0.6648771704920735
8.16015625,0.6615708677053119,-0.4744160419893339
8.1640625,-0.31283191303655883,0.6406918157855142
8.16796875,0.9794047621331189,-0.8799164820546965
8.171875,1.1899035504865008,-0.7287961348497638
8.17578125,0.6638516988501753,-0.46591058722463063
8.1796875,0.5574529486064858,0.27886830790459977
8.18359375,0.9153096699096558,0.06442491428783655
8.1875,0.0629243381571017,1.1946850227499664
8.19140625,-1.2827781630021629,1.5393523891335796
8.1953125,1.5533833441233018,-1.2443254537540656
8.19921875,0.9941363461983715,-0.20671331702451198
8.203125,-0.008928525857542067,-0.6683173811134954
8.20703125,0.5421685135417589,0.23429709146983566
8.2109375,0.41762614960368627,0.4125733021842126
8.21484375,-0.20054891332875574,0.6016746271534003
8.21875,0.068020384469506,-0.22687004380887046
8.22265625,-0.9415801347990106,-0.3253476897481349
8.2265625,3.0815885733689887,-0.15628901428710526
8.23046875,0.777006764738938,0.23805405055133416
8.234375,-1.6674569282247476,-1.3867746068132218
8.23828125,-0.21140246129447574,0.2346185926704048
8.2421875,1.8387577845790988,-1.5937045052791312
8.24609375,-0.13271622395291302,-0.21457012670358003
8.25,1.5527057479167605,-0.37763549730967416
8.25390625,-0.2639829819054638,1.0941296367180604
8.2578125,1.7056614006497197,0.6626285468438671
8.26171875,0.8026045562283078,-0.0699948678868205
8.265625,0.40507866741235676,1.5070240800849464
8.26953125,0.7082355455672726,-0.5950051196153401
8.2734375,-0.11231828783321235,-0.25671867573149
8.27734375,-0.10565466216467918,1.3905938849141366
8.28125,2.3512255690684647,-2.62552626752333
8.28515625,0.9423317394540539,-1.2889702078818508
8.2890625,1.2913328626409553,0.6241764038065436
8.29296875,0.42443217212452067,-0.5346875297194962
8.296875,0.11612036245646512,0.4101936616247236
8.30078125,1.6615454850286608,1.0141533569087413
8.3046875,-0.1963423125570208,0.4538523412742911
8.30859375,0.295720916235639,-0.26058349351877663
8.3125,0.8820736137218158,0.8014030789856968
8.31640625,0.89422083482502,-1.2490927047761766
8.3203125,-1.2607521802264428,0.6548848018075452
8.32421875,-0.04006705347355232,0.09122825891684738
8.328125,-0.35038829858487625,-1.0883647290411254
8.33203125,0.360563966756397,-0.6091950009636601
8.3359375,-0.08699038433244367,0.14095497155840084
8.33984375,-0.1216074245296645,-0.22335646547645727
8.34375,0.06129705053772455,1.0412543981032591
8.34765625,0.42565572480685754,-0.23636579077603315
8.3515625,-0.2747994407741373,-0.24514831764220596
8.35546875,0.35079346311641524,0.3553549618386266
8.359375,1.4524463500168254,-1.1736187853568836
8.36328125,-0.6053233595289158,0.3988205100557469
8.3671875,0.0826957537826732,0.30667169139885175
8.37109375,-0.2534256973469188,0.557755215725529
8.375,0.9972573476881601,-1.4779743034931565
8.37890625,-1.468748355075391,0.5527245049262248
8.3828125,0.031526941034418055,-1.0181878262979183
8.38671875,-1.2369701030909594,0.7595181383787281
8.390625,-0.5730206964007014,0.29135869929654296
8.39453125,0.47289288423308296,1.1265803641697902
8.3984375,0.48914833849500317,-1.5433395136013146
8.40234375,1.5508366302558634,0.30955681609781605
8.40625,-0.3849343053824569,2.226124167805974
8.41015625,1.576532741412413,-0.196665077474855
8.4140625,1.1426226049369876,-1.654815955719285
8.41796875,-0.020422022071722744,0.13288925462339482
8.421875,0.4833351735987093,-0.6317577767004077
8.42578125,1.5908910519270303,-0.3585363427682987
8.4296875,0.14113548266012887,1.6231518825394646
8.43359375,0.7541618862703627,-0.790541662697441
8.4375,0.09099687466606486,-0.7463696839056665
8.44140625,0.15295931350416564,-0.41640721930694546
8.4453125,-1.1328687358020277,0.7554146757355443
8.44921875,1.2856810680073847,0.4717420658115474
8.453125,-0.4391484496282706,2.112829295185859
8.45703125,-0.5884313651535448,-0.5691582834718137
8.4609375,-0.9567708858359123,-0.5865028622590925
8.46484375,0.9512662935800366,0.5917142989957762
8.46875,-1.1604146277736018,-0.3745903679382899
8.47265625,0.4962759228372891,0.45169609628267904
8.4765625,0.32326412065318305,-1.4934866279914465
8.48046875,0.07370729960287738,1.0325043450133438
8.484375,-2.2206851092584694,0.14332279350541238
8.48828125,-0.5412968624525096,-0.2432088847933083
8.4921875,1.5814149506147952,-0.6628327611417176
8.49609375,-1.0786471730519054,1.1187075201391081
8.5,-1.4215473919248218,0.14736796518877288
8.50390625,-1.0281402267439608,0.3878670366677757
8.5078125,-0.18988385515206405,1.5282992239048765
8.51171875,1.250443774756722,-0.2117382746290482
8.515625,0.3892812541066357,-0.45119242732711545
8.51953125,0.44019202096808374,-0.3666417999870228
8.5234375,1.2315567298922137,0.3184338195256613
8.52734375,1.2283538672311913,1.2629904760728796
8.53125,0.05099993819122142,0.9886049236479263
8.53515625,-0.3511053700533582,0.30674725090431176
8.5390625,-0.43383776355793646,-0.2983165878256165
8.54296875,0.39877697628265507,-0.5149364223634668
8.546875,3.3024395526824724,-1.1329219406584126
8.55078125,1.2220953747493954,0.9091803477640481
8.5546875,0.1684647789795327,1.3938133744315107
8.55859375,-2.068839638275795,2.643984536411007
8.5625,-1.2042795661001158,0.0296996099813394
8.56640625,1.8245895978121929,1.1957862280985918
8.5703125,-0.9291587052450602,0.3218129835395461
8.57421875,-0.9946856143062839,0.17200440130719352
8.578125,-0.5338590253240042,0.4496939036333677
8.58203125,0.40241339316219005,-0.8373114004131239
8.5859375,0.245207604614393,0.7587184621589365
8.58984375,2.527706865618719,-0.2918798675378831
8.59375,0.3546113816886285,-0.91262850097534
8.59765625,1.0408789904804225,0.7144908952859221
8.6015625,-0.583544418947841,0.959083105842688
8.60546875,-0.4438703260515944,1.2068858456682279
8.609375,-1.7127961870452364,-0.8420479699750877
8.61328125,-1.0225762392616382,-0.013604280184865859
8.6171875,0.5094521779272134,2.54452572180375
8.62109375,1.1593521671550513,1.1166572318995636
8.625,1.1899483161350535,-1.7134760160990934
8.62890625,-0.8501221824894325,-1.1900713865236043
8.6328125,-0.7373950044511204,0.2947185080270417
8.63671875,-1.9907864263525414,0.8413093511897648
8.640625,-1.654863617579288,-0.3454257600455753
8.64453125,0.5430649471099613,0.6009043884307951
8.6484375,-0.5279587545033135,-0.5082229928878915
8.65234375,0.8707373617532423,-0.8122998362424636
8.65625,-0.7276027234742796,-0.4257638113248915
8.66015625,-0.818123820061918,-0.8436987118456124
8.6640625,1.18223841189495,0.29825575182396025
8.66796875,-0.4593893153177864,-0.9940034796158392
8.671875,1.2598389850946712,1.6159236875933667
8.67578125,1.1138510606403675,-0.40132499661765225
8.6796875,-0.35535618120501794,-1.017931955893302
8.68359375,0.9656803218324027,0.2581989000715765
8.6875,-1.0222384821906507,-1.740965486761239
8.69140625,-1.4072292758317204,-0.6658249402913856
8.6953125,-0.19053444473219275,1.0689656331769177
8.69921875,-0.8799207261953138,-0.13260399941893225
8.703125,-0.5047854343777033,1.5522477603005667
8.70703125,-0.8331058577514046,-1.8437720575281988
8.7109375,0.7317794202929149,-0.32560125652846256
8.71484375,0.3567581239821353,-0.761823498293476
8.71875,0.29363839075874926,-0.36558358737994967
8.72265625,0.3477278092569866,-2.7401702215662556
8.7265625,-0.7270989835184191,0.03739523605343827
8.73046875,-0.7328246042700268,-0.665339145170818
8.734375,-1.750495941353703,-1.5247400388013093
8.73828125,-0.5782146140377834,1.0212038235517016
8.7421875,-0.8115912842010523,0.4673596187232469
8.74609375,-1.6428025714303691,-1.3561452425044083
8.75,1.1982556936858269,-0.017623589785264897
8.75390625,-0.2592672396459496,0.9486528671987488
8.7578125,1.027314318055183,0.7566045072497486
8.76171875,1.8710663534530465,-1.222198059456671
8.765625,-0.8827579583933656,-0.7972120587429904
8.76953125,-0.5844240230467234,0.6634067980208843
8.7734375,-0.5198442922712865,-0.7149838003349851
8.77734375,1.4118356317055945,0.8099324799965689
8.78125,-0.03019399023951397,0.665502019127666
8.78515625,-0.6003197587642216,-0.6704179718295097
8.7890625,0.34444359624846377,-0.948085749736294
8.79296875,0.22931541050110013,-0.08486355591429905
8.796875,0.1426323826450389,-0.23656263099944885
8.80078125,1.7129396109242239,0.14494644245589033
8.8046875,-0.5181759010192972,1.0498814342684886
8.80859375,-0.4484316179225377,-0.7123637624087467
8.8125,-1.277209120596687,2.008217136800084
8.81640625,-1.2661409736750557,0.4502396713140485
8.8203125,-0.7259538664877719,0.1420992106338729
8.82421875,-0.6742797994577919,0.7751759905381301
8.828125,1.712201442408874,-1.1746789335432746
8.83203125,0.46296060533085065,-0.6639126420609834
8.8359375,0.5242870895959846,0.7963371522845588
8.83984375,-0.8767703581269162,-1.2224920482040218
8.84375,-0.7144136729687807,-0.04029501520353217
8.84765625,-0.4000059052528805,0.3810699056801665
8.8515625,0.06206801521231263,-2.05857712339616
8.85546875,-0.004773502990972101,0.7988984899209044
8.859375,1.5559873150356358,-0.37130742621945856
8.86328125,-0.46746912879043645,0.8472862175255813
8.8671875,-3.1410683565628514,-0.7453336975030277
8.87109375,-0.4922987801022588,-1.914555304521018
8.875,0.4003828478100022,-0.4566547365248957
8.87890625,-0.25609704135259487,0.17949579020587
8.8828125,0.2515465973106384,0.0009822911446236305
8.88671875,-0.4491335423258745,0.15277364571515928
8.890625,-2.0189798224317586,-0.3942099020997632
8.89453125,-0.415678611648852,1.8892839743586023
8.8984375,-0.3367732419624178,0.25132289628538457
8.90234375,-0.2946675272403967,0.5743303510466999
8.90625,0.260391186691124,0.7041253360357711
8.91015625,-2.3693991139075927,0.782338784735313
8.9140625,-1.0691242657136761,0.14688055466506236
8.91796875,-1.4644499506816226,0.8361125677118594
8.921875,0.4193403941503117,0.7288103497314785
8.92578125,-0.37361032307561326,-0.17775414362158035
8.9296875,0.2516048922176635,0.5820926127952701
8.93359375,-0.9645766817492749,0.041397620982805236
8.9375,-1.9334981835777132,-0.648714662063985
8.94140625,0.5310662060177423,-0.6920197254766037
8.9453125,-0.3432180776964213,-0.531018911572537
8.94921875,-0.6827399142692754,-0.8218465767511713
8.953125,-0.3481279646433647,-0.17216844558170652
8.95703125,-1.1813955874233515,0.19595573588856063
8.9609375,-0.8189250636949754,-1.1090380776944029
8.96484375,-0.831014800838426,-0.30935359089664943
8.96875,0.27191773021001564,-2.098913117758403
8.97265625,-0.05286485525334853,-0.3529845664852462
8.9765625,-2.461857754016336,-1.713791356563117
8.98046875,0.49679029341123115,1.4169600967538076
8.984375,-1.1351266909875877,0.691904666319973
8.98828125,0.4351917596795187,1.382442847960248
8.9921875,3.250536033651584,0.7751415520547029
8.99609375,0.0011411949898306897,0.01483887190240824
9.0,1.8014095328779123,0.6555593424143077
9.00390625,0.3444605809702648,-0.29339081611057793
9.0078125,-0.34254275435392806,-0.9091900255027069
9.01171875,-0.5486167784619959,-0.7187806097647889
9.015625,0.9296093950368273,-0.469190804661416
9.01953125,-2.224393383223303,-0.7227454529372398
9.0234375,-0.6866828443765228,-0.4259215661455022
9.02734375,0.2767916387317569,-0.8085655380506968
9.03125,-0.05395944272585109,-0.37979455567221104
9.03515625,0.05208809137372716,0.5087651808596203
9.0390625,-0.024193912324102593,-0.9071061579934017
9.04296875,0.13143858365005176,-0.9044443114030962
9.046875,0.9621836219371889,1.1769469751250883
9.05078125,0.884244256009624,0.4060209589922411
9.0546875,-0.7206383896134211,0.12023992875422794
9.05859375,-0.6013880370337918,-0.6514974731166077
9.0625,-1.034406581377102,-0.11825668575565441
9.06640625,0.33697402228247897,0.9044515144074322
9.0703125,1.3274130140140696,-1.458042118912177
9.07421875,1.0590319796959367,-0.40829222235450974
9.078125,0.07768527996942359,0.2603140895467418
9.08203125,0.028537500488864283,0.589592626654196
9.0859375,-0.1531229290953508,-0.12510694288390276
9.08984375,-0.6414058751510044,1.2447158199582902
9.09375,-2.218853959624386,-0.896508491867862
9.09765625,1.3255826246435922,0.02163029693664835
9.1015625,-0.569065700952758,-0.30891348075753255
9.10546875,-0.7831168808359167,-0.4443485820593549
9.109375,-1.1397271685871382,0.8388381781327751
9.11328125,-0.14010377007518504,-0.7539072957898518
9.1171875,0.8984563830725267,0.16861273058558413
9.12109375,0.3507235147779573,-0.2973892595663458
9.125,0.35413152376660506,0.6590791329527913
9.12890625,0.5116288626039204,1.6515587588825407
9.1328125,-0.36893697271656956,-0.2525749236322625
9.13671875,1.1430975003990747,-0.862642102330414
9.140625,0.1821942455226307,-0.5867777751653809
9.14453125,1.089361624202561,1.5523944845229325
9.1484375,-1.6154016874115422,-1.1052545186938514
9.15234375,-2.0320676488361595,0.772102954672923
9.15625,-0.5832971738411636,-0.8999322844898059
9.16015625,-0.7429513444634516,-1.9541354354598028
9.1640625,0.64699892058457,0.7643319333047996
9.16796875,1.3027487500974555,-0.12236632551387874
9.171875,-0.4823623366223337,-1.1528433186623295
9.17578125,-1.013679599069216,-0.7405786504597378
9.1796875,0.3733427467503053,-0.8779643664163852
9.18359375,0.9687376966219641,-0.6620614770280411
9.1875,1.388567349645119,-0.48048843960538873
9.19140625,1.01809258684659,-0.1894345415951407
9.1953125,1.544992271282879,-1.1016653330951978
9.19921875,0.45452342679419044,-1.0091957673569534
9.203125,-1.6735377288518523,-1.42133077440434
9.20703125,0.1588303641659116,0.07722631293606069
9.2109375,-0.07108268492768212,0.1611090947384984
9.21484375,-0.17524047863597747,0.6366313742621027
9.21875,1.398123109152981,-0.648105065358415
9.22265625,-0.2463923677504388,1.7891010585795475
9.2265625,1.4025360620052776,-0.7526581227598149
9.23046875,-1.2405370098834225,-1.6806530303296858
9.234375,-0.9374878619596888,-0.2534940943174958
9.23828125,0.5712023612394417,-0.6928290845996419
9.2421875,0.018276911567218345,0.6775597520320124
9.24609375,-1.532983114617282,-0.7276647220884945
9.25,0.2601066732758561,-0.5460634278678673
9.25390625,0.037015499110989704,0.7116411819101139
9.2578125,0.07192892469242623,-1.0481697658618137
9.26171875,-0.9621752679843278,-0.8689401245571077
9.265625,0.9832941929164991,-0.24306014480545396
9.26953125,0.8670807533302084,-0.979421109847819
9.2734375,-0.22788453566529202,0.7195265074394294
9.27734375,0.5808780113911368,-1.4491501554597752
9.28125,2.05818676934043,1.235351745467926
9.28515625,-0.3814692920419498,1.0774063644395295
9.2890625,-0.45834698831812565,-0.6554237191080079
9.29296875,0.38888728983795595,-1.223526129747712
9.296875,-0.17718881781164944,0.7100392513685868
9.30078125,-0.2725389046101244,-0.5700850049533804
9.3046875,-1.0408047689728885,-0.06946724387284617
9.30859375,-1.90106486250614,0.9105367279864582
9.3125,0.7772000765510002,1.0297865330416338
9.31640625,1.1137397003963883,0.7976426719714713
9.3203125,0.7315800831385117,-0.10958086080879026
9.32421875,0.7727041736751807,-1.5227052133163812
9.328125,-0.37810989749109386,-0.321074548102489
9.33203125,-0.08392835443432667,0.640945808508267
9.3359375,-2.053637996329122,0.8434237573714229
9.33984375,-1.2894018219864378,-0.9944035937950726
9.34375,-1.452045098147675,-2.235849975044961
9.34765625,-0.026015241325766388,0.5948628736453578
9.3515625,-1.528860679398851,0.9854050734409461
9.35546875,0.7397958572069908,1.1463579543302698
9.359375,0.574152007018113,0.04557702657143096
9.36328125,-0.25792031845843777,-0.3830245137741252
9.3671875,-0.976299645822072,-0.30302360824832086
9.37109375,0.1553148944907876,-0.2487911107091396
9.375,0.5148006765619577,-0.06745681405323051
9.37890625,-0.8276692783442055,1.2450069668396808
9.3828125,-0.396213354348349,-0.37453295001662124
9.38671875,-1.430059036151231,1.1387926953826226
9.390625,-0.0710147725950142,0.9801649061568585
9.39453125,0.12751255776047957,-0.12084206109936878
9.3984375,1.263878467866084,-0.47452969257559935
9.40234375,0.3431131293467361,-0.03337385034248401
9.40625,-0.8005529171843775,-1.6160080772605214
9.41015625,-0.7463371942718625,-0.3304011754899649
9.4140625,0.6653670917334288,-0.6356796886833654
9.41796875,-0.4169457216124587,0.17926277869332038
9.421875,-0.3840137414049742,-1.1360583630189438
9.42578125,0.7473325786134103,-0.3495669988660876
9.4296875,0.9339342068060423,-0.22983954833712322
9.43359375,0.4340125968248344,-0.22168819156037373
9.4375,2.1125026014705726,-0.4057023089026449
9.44140625,-0.7758349273215839,-0.11380279890580239
9.4453125,-1.0773786283620432,-0.2969226916729516
9.44921875,-1.3433413449185518,-0.6580376627642099
9.453125,0.5840348464561088,-1.800869800751606
9.45703125,2.147130564562533,0.22627460125025248
9.4609375,-0.558931691800646,0.10326942696230879
9.46484375,0.7724013927427078,1.164593821540402
9.46875,1.2630726245060826,-1.9763569551131692
9.47265625,0.8773302334472585,1.483751131446167
9.4765625,0.6404576332508682,2.4182064285225247
9.48046875,0.9748091858738286,-0.25040251839440775
9.484375,-0.45022176278007386,-0.04907325977610697
9.48828125,-0.2333787536444977,1.350181022751251
9.4921875,-0.4958201730108458,1.719802738170508
9.49609375,0.10022206376497281,-0.54243924204673
9.5,1.2719600208387127,-0.8957537934924216
9.50390625,-0.4436287526639326,-0.8463963725287416
