time,ecg,ppg
0.0,0.8171493242290553,-0.2278675015979845
0.00390625,0.139559736117473,2.0799663579764682
0.0078125,-0.5669085656037408,-0.004336483707238399
0.01171875,0.9539228545936603,-2.366001711169055
0.015625,0.2274838276091332,0.4915672650280137
0.01953125,-1.1575166133243209,0.40036502764819093
0.0234375,-0.40199564624195294,0.5008546209927152
0.02734375,-0.9639596864388484,-1.145754065840245
0.03125,-0.2938769834029269,-0.4772113632385709
0.03515625,0.7066711198051868,0.482784780206272
0.0390625,-1.305054404836839,0.05284925543787081
0.04296875,-0.7568140016932196,-0.5434627720549291
0.046875,-0.721523017874608,-0.45308040744696426
0.05078125,1.795495607134738,0.13416491767125896
0.0546875,0.5284571862234638,0.04771476484870408
0.05859375,-0.5212624415590102,-0.40116904232838313
0.0625,1.1334304438227698,-0.8662358242206055
0.06640625,-0.8942583648741605,0.09336700388916483
0.0703125,-0.24119429688179286,-1.0817989717778371
0.07421875,-0.517807596940027,0.7402877223617275
0.078125,-0.5240540235320391,-0.06518299803425871
0.08203125,1.1743656561544054,0.20549465955023472
0.0859375,1.696324473056183,-0.7527079191020205
0.08984375,-0.4928863781947947,-0.7401618400529754
0.09375,-0.24123217100530098,-1.6660903466965107
0.09765625,1.2202157771844961,-1.8015224991056928
0.1015625,-0.26226956459088163,0.9032292501088555
0.10546875,-0.6020639854675879,0.44725570718438123
0.109375,2.135344899641945,-1.3338958647697214
0.11328125,0.2967803313662515,0.5530902527948742
0.1171875,1.0206017038539732,1.236766636100819
0.12109375,-0.042805067734120204,0.6632083526390485
0.125,0.907633789179839,1.5292604623389339
0.12890625,-0.9397690160094677,-0.05512156439731256
0.1328125,1.2043602411611458,0.7503811333141456
0.13671875,0.8188783175900847,-0.3582353562674472
0.140625,1.1367175606985294,-0.3979992247672958
0.14453125,0.1794863075764014,0.37147187980388396
0.1484375,0.3127232180953015,-0.3503272288653185
0.15234375,-0.7341195669610598,3.2821386906400902
0.15625,-0.8007985075171716,-1.5915297919811735
0.16015625,-0.45464037762892795,0.5252572353444628
0.1640625,-0.11576391938504736,-0.23310502642366698
0.16796875,-0.6627874033945015,-0.1512553964986316
0.171875,-0.9779006783427912,0.31108975797615546
0.17578125,0.391881169422338,-1.942363187801221
0.1796875,-0.5715751806387848,1.2394523589924002
0.18359375,0.35713515593528655,0.39123228164899093
0.1875,-0.9553552802366617,-0.9652532084172861
0.19140625,-0.4430241162588497,0.5659713138472113
0.1953125,0.9342289211256863,-0.8354835572617595
0.19921875,0.690616798210737,-0.9193730480782498
0.203125,0.5885726981786712,-1.3292281318912178
0.20703125,-0.6377299955878124,0.5281156163101457
0.2109375,0.20477383078244427,0.009152284816921059
0.21484375,0.4066548867017441,-1.3118544048558503
0.21875,-0.2886917247774708,-0.7822641351868231
0.22265625,-0.07595287476200495,-0.4811364503295834
0.2265625,3.273683425420893,1.827193434533915
0.23046875,1.478805563060289,-1.1361547445115263
0.234375,0.4764740210899529,-0.8898369634939364
0.23828125,-0.7516866880549103,0.39673165939093147
0.2421875,0.9741077474067027,0.5907405854318193
0.24609375,-1.7146963340006403,0.08812024674712113
0.25,1.6499142960263609,0.47958057855334907
0.25390625,0.975353142024694,0.608217712071551
0.2578125,0.688570625722784,-0.8454225978784071
0.26171875,-0.333654538805539,-0.9026141375268152
0.265625,0.1909750945075965,0.029697669013813457
0.26953125,0.605279676509726,0.7359004494585043
0.2734375,0.41775608781221035,-0.35883951662138547
0.27734375,0.45613639329638633,-1.22099339438854
0.28125,1.489881850013955,-2.44668543478194
0.28515625,0.09894721968111002,1.2852032013497827
0.2890625,-0.6085577642451006,0.08624694664573437
0.29296875,-0.06528140373256325,-1.3784836854784757
0.296875,-0.5606389403491261,-0.6876630860512266
0.30078125,0.8401493909459996,2.292607585130846
0.3046875,1.476095210061936,0.04156941284866759
0.30859375,-0.06410922502642581,-0.3570030199024773
0.3125,-0.48454764609275447,0.008060121339405675
0.31640625,0.7666022506028559,0.6359532641760521
0.3203125,-0.4885113743957007,-0.9006976590657882
0.32421875,2.1198692581160206,0.6652335608683273
0.328125,-0.36490372877459026,2.2082797846957076
0.33203125,-0.7722965706198848,-0.1592515275805708
0.3359375,0.37554546583545023,-0.2642711035494197
0.33984375,-0.6259546782824389,-1.0226208039307243
0.34375,1.8111869435249395,0.983944631599948
0.34765625,-1.171863425437279,0.03529248930639096
0.3515625,1.6296456554524568,0.08668740272127069
0.35546875,-0.06728304035943185,-0.8478489898243076
0.359375,-0.49175187334555864,0.1312868966668029
0.36328125,-0.0844402861007593,-0.37522753716410134
0.3671875,1.823131027937788,-0.7678928945772995
0.37109375,-0.5150481173182906,0.4058442032175549
0.375,-1.0314543971742425,0.04470933205521604
0.37890625,0.2487863854774881,0.38845296931480094
0.3828125,0.2701648571219326,-0.2340992097491794
0.38671875,-1.098896070023328,0.5809311447169864
0.390625,-0.6545735699015016,-1.0966333256906127
0.39453125,-0.04968603198358667,0.2252388780904708
0.3984375,1.4253937852380705,-0.8686376841000597
0.40234375,-1.340370566679222,-0.6589496360779652
0.40625,1.9405666044811642,-0.7042649933993751
0.41015625,-0.9809495786516347,1.4978746998779566
0.4140625,0.9132242584602888,-0.1714042956656967
0.41796875,-0.27431359963529717,2.2353747700880713
0.421875,-0.03931031981261592,-1.1787619088355799
0.42578125,1.5051005165865514,-0.2788891152379968
0.4296875,-0.8372575013179475,0.9265860437150317
0.43359375,1.3215354259309156,-0.11479000160278467
0.4375,-0.8796140788426933,-0.511044597399256
0.44140625,-1.0953706271013706,1.151745525701124
0.4453125,1.2919214622347994,-1.4920198188779403
0.44921875,-1.1067060601563155,-1.86618491749475
0.453125,0.14700210892702034,-2.193627988000646
0.45703125,0.35868425768513906,0.23826009438656168
0.4609375,-1.013947941602248,-0.0526033614606541
0.46484375,0.5251431749657308,4.1344394678163106
0.46875,1.1293566401198527,1.946125027644319
0.47265625,-1.2845333285835545,-1.229003949492556
0.4765625,-1.715463382275618,-2.3967744216188884
0.48046875,-0.9713853623503205,-0.36770595346439877
0.484375,-0.4903547497094631,-0.27388178472515734
0.48828125,1.17261442118405,-1.5858985863878237
0.4921875,0.35177069335309946,-1.9183802253443005
0.49609375,-1.4443623593731785,0.5829561437083098
0.5,2.430750488219574,1.6264003289153504
0.50390625,2.137128611649581,0.5083706216948366
0.5078125,0.20163247413333193,-0.4844121490041443
0.51171875,-0.21909209886550968,-1.2371169503100958
0.515625,-1.2829023608016508,-0.8414852080213157
0.51953125,0.11600876412133553,-0.2825153738710035
0.5234375,0.6019712655310434,-0.5106612399512058
0.52734375,0.01342540942064482,-0.8627103853538436
0.53125,0.4312204862695472,0.4150765032046749
0.53515625,0.1514181399068397,-1.2827278333881518
0.5390625,-0.14883897677084135,-0.7668006313226742
0.54296875,0.42859772311306005,1.0821357036900339
0.546875,-1.0345194160780873,-1.8661456219577264
0.55078125,0.02953055494739503,-0.5924363493936321
0.5546875,-0.4464198574634977,-0.5727879536110113
0.55859375,1.4814178467218015,0.25463330444241145
0.5625,-0.31704955506489646,1.6059590568226896
0.56640625,-0.03650064511166204,-1.1073655864610294
0.5703125,-1.1604321130201474,0.5463225919997394
0.57421875,-1.0782248800236316,-0.4401760251497574
0.578125,0.4851789967476592,0.2711879807854377
0.58203125,-0.23815755932123808,1.1368836099720354
0.5859375,0.4858443229621282,-1.5378999916951248
0.58984375,0.09051195282256827,0.35892467502957204
0.59375,-1.1073118818975989,0.36992521270739664
0.59765625,-0.41976329950301994,0.02654189081654217
0.6015625,-2.9103637411525547,1.4386778034121939
0.60546875,0.3612037190676691,1.6862989853257977
0.609375,-1.080370842579987,-1.6149211458227914
0.61328125,-0.3508169512657772,-0.14727596263491877
0.6171875,-1.2566332404645588,0.5499192035547275
0.62109375,1.8996890814381417,-1.1406590571208775
0.625,-1.369806269403707,2.2839335467875483
0.62890625,1.257616611303895,-0.33340839458065186
0.6328125,1.0669006272577268,0.41843320494646213
0.63671875,0.3667119987205461,1.0062451448082348
0.640625,0.15886855549447307,-0.8247122627234547
0.64453125,-1.0302711650967502,-1.4265744139790042
0.6484375,-0.47311197703247954,1.0805119112200396
0.65234375,0.008399737316252365,-1.7619611833557716
0.65625,0.032637408148027965,0.30221986325464206
0.66015625,-0.06781741520784079,-1.435560384675876
0.6640625,0.7365687547615429,-1.9247904177579394
0.66796875,1.0101062437204198,1.2976400468229037
0.671875,1.3874170246824211,-0.23118058198429461
0.67578125,0.2849703995735124,1.029062479656716
0.6796875,1.076981711549714,1.0282892786793363
0.68359375,-0.6998692045681943,-1.1345754653848728
0.6875,-0.39357707154348753,-1.5037741930400241
0.69140625,-1.62272364261841,-0.12252643980446998
0.6953125,-0.5854953980568435,1.5176740631973382
0.69921875,-1.6732489150548095,0.04973926863569663
0.703125,0.07837742136484771,0.23450546393493812
0.70703125,-1.0642064500416881,-0.3404192742581511
0.7109375,0.96905685023974,0.10970571584239759
0.71484375,-0.28846969934126965,0.5341766020570314
0.71875,-2.1974599173687905,0.15231618793698606
0.72265625,0.07283867747434582,0.4788218077453531
0.7265625,-0.03779687249158247,1.384917187700095
0.73046875,-0.43180822260168167,-0.5451145615085856
0.734375,-0.27895919006218745,-1.1755638187749768
0.73828125,-0.8908589556890085,-0.10263657374300558
0.7421875,-0.779879502819288,-0.6767493803437851
0.74609375,0.5892039627081916,1.0910832937044224
0.75,-0.5656075860557321,-1.1966784989812798
0.75390625,-1.3562268991498332,0.631486553462708
0.7578125,-0.5649659367454658,-1.6566861698360462
0.76171875,-0.13369930201543384,1.314299195441172
0.765625,2.1611432637873116,0.013906105694088051
0.76953125,0.1277069294098701,-0.14025453392097278
0.7734375,-0.4186297299481674,1.8832546748346009
0.77734375,0.42741457226510593,-0.09687952871389843
0.78125,0.40285760812385185,1.7281392734384546
0.78515625,-0.5426896157283441,0.45950077010744145
0.7890625,0.9085930361162776,-0.17930119463409525
0.79296875,1.0866826477046372,-0.11922811485153936
0.796875,-0.21448788901255264,1.6484118572779831
0.80078125,-0.6360552065348866,2.029459481777657
0.8046875,-0.46275239546958735,-0.299738646812062
0.80859375,-0.6661019608627685,0.10834247783702664
0.8125,0.01093839578526504,0.949832833154947
0.81640625,-1.2268423370316324,0.28013742353440835
0.8203125,1.7273641527018857,-0.7329615288032235
0.82421875,-0.6027331566510518,0.08979084242896754
0.828125,0.06752591943659472,1.1538044233320661
0.83203125,0.9218250286932389,1.8541630901915978
0.8359375,0.9343009337245303,0.7169147203037778
0.83984375,0.8561246970650008,0.8235712069856073
0.84375,0.3007957349297171,0.1880937723258352
0.84765625,1.2514324354064932,-0.8549713924374169
0.8515625,-0.06508777898551464,-0.3058291979013269
0.85546875,1.1408859641013074,-0.152941582612487
0.859375,0.17639455837749468,-0.3803468823378688
0.86328125,1.46619963873845,-1.8596355156524969
0.8671875,0.285783031170628,0.43759416225221576
0.87109375,-1.7766989261116222,-0.6875460958573824
0.875,0.16675441972710567,-0.44256099188057696
0.87890625,1.609976507716685,-0.8301283570334361
0.8828125,0.252828164300479,1.5957885080006335
0.88671875,-1.6566942162491114,-0.18715515546171432
0.890625,1.085891894070349,-0.8550707410444421
0.89453125,-0.08582370545424368,-0.5012057648764857
0.8984375,1.197207856598675,-0.2295966191165197
0.90234375,-0.6118444790370066,0.6233918845110221
0.90625,-1.5032944916290212,-0.1110568269378337
0.91015625,0.5053649123808884,1.9147102877942201
0.9140625,1.479127925415407,0.44256784300656354
0.91796875,1.2700292432825222,-1.802985547541302
0.921875,-1.8797841894733551,0.5999579434363688
0.92578125,-0.04528775078444956,-0.41486450812046644
0.9296875,0.2848819603183582,0.30921072970234437
0.93359375,-2.105883840342116,-1.2524229938809692
0.9375,1.1490842298774873,0.4828620425027277
0.94140625,-0.4230275588864096,-0.7273121629465742
0.9453125,0.6683877165659388,-0.9872639636542064
0.94921875,0.36836547670351183,-1.4690925550910776
0.953125,0.7662636544250122,0.6871930054979511
0.95703125,-0.4213639289840874,-1.1152246113825726
0.9609375,-0.24052336589690956,-0.7923745049868126
0.96484375,-0.7146262618542797,0.5962542369349779
0.96875,-0.43045673093855896,1.852292561729769
0.97265625,-0.3155595089760395,0.2713601520658243
0.9765625,2.0263486161073136,-0.02297423543054668
0.98046875,-2.5659794247839884,-1.1711480255086113
0.984375,0.0073367124951970696,1.6224181494647827
0.98828125,0.4032214978051704,-0.11678798742122126
0.9921875,1.6071318157661623,-1.3107176264844804
0.99609375,0.837641168549917,2.339513401371093
1.0,1.0271961013972901,-0.5168206561382916
1.00390625,-1.5164776221750789,1.590560438873876
1.0078125,-0.5634800803402261,-0.7058834761902975
1.01171875,1.4008247824807571,1.620699017914365
1.015625,0.2297489150687127,1.6961550789242132
1.01953125,-0.0957543927269869,-1.4982846558434497
1.0234375,-1.921856053605184,0.08044694427977274
1.02734375,-1.37295961065446,0.2401836687910472
1.03125,0.6884391186829545,-0.376310199460593
1.03515625,0.2149434875322272,1.0743120910891808
1.0390625,-1.1670965160479896,0.5076475968074026
1.04296875,0.2273276549396568,0.1456757002351842
1.046875,1.039096690031754,-0.38458887452070667
1.05078125,-0.6230337176843093,0.2795162109634147
1.0546875,0.9241707858534702,-0.8880110246912113
1.05859375,0.4171531487136576,0.07817043522394261
1.0625,-0.4116259728552016,-1.075943773102528
1.06640625,-0.4053956374223299,2.7574864815925904
1.0703125,0.351149166460847,-1.5490701287393343
1.07421875,0.6586030453830535,-0.21508947552580795
1.078125,-0.6191986706494451,-1.7082333052381073
1.08203125,-0.6271743450622544,1.1841041091624205
1.0859375,-1.2017815727255503,0.8559419594525204
1.08984375,-0.7858375675582228,0.9515947533893442
1.09375,-0.9539437602764219,1.5458695152903412
1.09765625,1.2518006966480801,-0.2879960709476873
1.1015625,0.7783084902120043,2.8431318607424614
1.10546875,-0.7670981649844905,-1.2018417241477317
1.109375,-0.8362524365005362,-0.32681558874548444
1.11328125,-1.107204668638881,-0.3313007964285857
1.1171875,-0.6788796915209823,-0.43474170982333515
1.12109375,-1.4750028092783798,-0.1266284155034034
1.125,-1.142302046506941,0.3136223317757825
1.12890625,1.50060924392526,-0.9026100074300673
1.1328125,0.3612700009581741,-0.6388631841544857
1.13671875,1.1174339920166554,-0.1640905711312952
1.140625,1.2569302254601569,-1.6903235743529397
1.14453125,0.4013868628838264,-1.2087985354358488
1.1484375,-0.17236469268728105,1.0007177425791873
1.15234375,0.31470544132458605,0.1852638973588406
1.15625,0.7209740147163153,0.18612548124241557
1.16015625,-1.1050781299090995,-0.528857410246143
1.1640625,1.2053509203749682,-0.6555208434726931
1.16796875,0.6705651205781152,-0.3778061476309141
1.171875,-0.0627243051134811,-0.9824587358544532
1.17578125,-1.0459097791887861,0.5362196187635772
1.1796875,1.3475030835590227,-0.728990729518133
1.18359375,0.03081652244841063,0.39090617919364334
1.1875,1.1856604907274242,0.1101183623318707
1.19140625,0.25164180089177673,-1.2394736895753695
1.1953125,-0.9678073601966629,0.3952661932681138
1.19921875,-0.8331608858611554,0.456453327154283
1.203125,-0.395522462201343,-1.1869723546832391
1.20703125,0.6965621045967628,1.2824081989324247
1.2109375,1.6586104699410331,0.9019334228791648
1.21484375,0.5522100095172596,-0.2740268093388206
1.21875,0.6811581566172487,0.5134576475785123
1.22265625,0.5594011952920841,-1.688066262370366
1.2265625,-0.3969750291058361,1.0751954099618564
1.23046875,0.47933506541144894,1.190144685625329
1.234375,-0.30773358876740986,0.20621279336103845
1.23828125,-1.5526633546717488,-0.5619481136083111
1.2421875,-1.6375217035079983,0.07515268559083883
1.24609375,-1.12311914022013,0.04680736319503845
1.25,0.2950867811966622,1.5638945445892731
1.25390625,-0.45627418796036434,0.8759666027505183
1.2578125,-0.47395647060882634,-2.0415449075928485
1.26171875,-0.6881581313445821,2.8461609092395723
1.265625,1.0801357791172834,0.011620121846379484
1.26953125,-0.11168228975459563,0.9172592533343782
1.2734375,0.164474631099462,-0.2008908590980895
1.27734375,0.34465914533275216,0.7628814578181361
1.28125,0.7077884394387595,1.0750597121584755
1.28515625,-1.0968616332573287,0.8165863217168757
1.2890625,1.2222269267289763,-1.5433706075844489
1.29296875,2.19920925018359,0.1716827224832294
1.296875,-0.842010796120185,-1.8705680415745012
1.30078125,0.09558372897326511,-0.49850391172283365
1.3046875,-1.0348998712058575,0.2797442521650781
1.30859375,-1.0817359103659625,0.06368203217679301
1.3125,0.4093036222192198,0.6565068166563345
1.31640625,-1.304488273075167,-0.467172383094351
1.3203125,-1.0424992343118413,-0.495503380987065
1.32421875,1.8082249820698977,-3.105511936339661
1.328125,-0.963025844889671,-1.1824536513563884
1.33203125,-0.6900634320907764,-1.5729386479718879
1.3359375,-0.18807691321331976,0.7131327162756672
1.33984375,1.331552000778255,0.8754917905775769
1.34375,-0.10317881947633771,0.31414773805018853
1.34765625,1.8299815583496086,0.6281778321668805
1.3515625,0.7379560414039441,2.6769681520745285
1.35546875,0.3903955829731924,0.44820726633748253
1.359375,1.556513032426958,-1.4209309727205883
1.36328125,-0.9785974334405785,1.0467714396506653
1.3671875,0.18645770016956176,0.21807164102357557
1.37109375,0.13317720416283815,1.390949249819473
1.375,0.5405769443406898,-0.32134852765920835
1.37890625,0.9928622549647653,1.299733951770235
1.3828125,-2.186084113791779,0.39185618892151447
1.38671875,0.15496741958322652,0.4531589636152993
1.390625,0.1613915535775211,1.4240081775536186
1.39453125,-0.4967894797411002,-2.3393865096486954
1.3984375,0.9141994175187148,-0.27273366758912226
1.40234375,-0.7638405184478956,1.3364097894620453
1.40625,-0.32346137742097025,-1.1103215252179546
1.41015625,-0.22329827135774472,-0.6735706239269444
1.4140625,-1.5704951954334232,1.3431822878043649
1.41796875,1.5350040392209656,-1.3526600193187035
1.421875,-0.02585674995655995,0.44356125797584267
1.42578125,0.10778917918770298,1.3826675032337767
1.4296875,-1.0725563952475134,-0.15078810852591382
1.43359375,-1.6354876807336143,1.0130897531988925
1.4375,-1.1609440823796024,0.13822386895591543
1.44140625,0.1945666878263838,-0.6962360492764057
1.4453125,0.8450078443262712,-0.18771482639389547
1.44921875,0.942665300816673,-1.644597838424568
1.453125,-0.03707378596061588,0.07434723056451258
1.45703125,-0.5440158324744228,-0.11696891821579757
1.4609375,0.732514468093533,1.3283300948779173
1.46484375,0.023452297419813424,0.38635125413777766
1.46875,0.09432090688728227,1.236426731189035
1.47265625,0.4712677241248412,-1.3293080328813633
1.4765625,0.8358254849488448,-1.39085631862855
1.48046875,-0.26618642705123907,-0.25564160837822336
1.484375,0.6883371792286627,-1.5615869675811223
1.48828125,-0.34401932080610115,1.0960732046870667
1.4921875,1.7293611970982434,0.32882862989348566
1.49609375,0.4917551430324443,-0.9403581758449424
1.5,-1.8858739442447492,0.24164273390764865
1.50390625,1.2587195316803395,1.0977475350944972
1.5078125,2.3220977159968865,-2.2803818347040106
1.51171875,-1.1556888516828987,-0.7811800335536587
1.515625,1.3817268810573398,0.9029318598445517
1.51953125,0.6030792950758673,0.04194065960095492
1.5234375,-0.14290195366103237,1.0285479654464869
1.52734375,-0.31278320747948474,-0.6459128468307357
1.53125,-0.5161086700518803,1.3852470216132626
1.53515625,1.3634466067567645,-0.5315369286171191
1.5390625,1.374399551880497,0.04354633796126866
1.54296875,0.19043041034258765,-2.0113162313243445
1.546875,-0.6447360213023262,0.38843658759106997
1.55078125,-1.6710234347577824,0.8158665733684984
1.5546875,1.3023747733173778,-0.02519144452594467
1.55859375,0.7263003372583373,-0.9986729207449886
1.5625,-0.14129968807568877,0.050420164777370755
1.56640625,0.7330796296055792,1.6364017068934331
1.5703125,-0.3124978615398655,-0.3287188753558999
1.57421875,-0.49525066328789324,-1.2776625287506382
1.578125,0.18451809544133155,0.09871616400436423
1.58203125,0.20284936082658453,0.6249915385073546
1.5859375,0.0949406141561165,0.35493738926974955
1.58984375,-1.0530769539130889,0.9095346045322333
1.59375,-0.23627754553166794,-0.8131610750170633
1.59765625,0.30574452806278307,0.9530853344225827
1.6015625,2.143579179949918,0.5983309036588872
1.60546875,1.9894985874930053,-1.4460497214004389
1.609375,0.4820929866188436,-0.8136168163026324
1.61328125,0.6482959690534593,0.42391519313891524
1.6171875,-2.2651267452485015,-0.3398924779899069
1.62109375,0.6527712467510578,1.6808335563413142
1.625,-0.3634802348779617,-1.419649279792013
1.62890625,0.9417816093964195,-0.2635584459231202
1.6328125,-0.22337753938617574,-1.444402191782513
1.63671875,-2.0159748198102467,-1.8002340059814834
1.640625,1.9312165579314204,-0.2995847459945501
1.64453125,-0.5078087837912529,1.8235339336403298
1.6484375,0.32911394705621344,1.4696949114904134
1.65234375,0.21139951372532445,0.19878211268320106
1.65625,0.6798349462674778,-0.45926359932145
1.66015625,-0.08071982972851903,-0.4416536843491835
1.6640625,-0.439220054897675,-1.8047097795282991
1.66796875,-1.1278856406249231,-0.6078089193115511
1.671875,0.9901750340265039,-1.2295415175536573
1.67578125,1.407396027515931,-0.020161197312705686
1.6796875,1.5763580733302707,-0.024791412479111215
1.68359375,-1.5088651503443422,0.6189596283907153
1.6875,-0.43639882830031057,0.3451681525517418
1.69140625,-0.2158888041201841,0.21066217668045548
1.6953125,0.17560680124906386,-0.18783273110573026
1.69921875,-0.05885832465448567,0.34167898324652285
1.703125,0.8525673483172764,-1.006697754794022
1.70703125,-0.15241105009729475,-1.16147801665035
1.7109375,-0.8072923426515046,-0.12983324583110406
1.71484375,-0.046769896346394245,0.02851730422612387
1.71875,-0.38929374015698376,0.0028678637787569847
1.72265625,-0.15333862919721641,0.8423515983504849
1.7265625,-1.2724722599286893,0.7519758875279495
1.73046875,-0.8575932003877768,-0.36238406194438616
1.734375,-0.8706436357999341,-0.40454609173296213
1.73828125,0.2641868184160646,-1.0919183882881214
1.7421875,0.39875121287555065,1.2747227173265447
1.74609375,-0.42549647129281587,-0.02209792375223824
1.75,0.651466784296379,-1.051989517626117
1.75390625,0.14271762916790048,-0.6712795204426166
1.7578125,-0.2174464620387889,-1.665333732916074
1.76171875,-2.337197233378156,-1.1587135336872287
1.765625,0.7075716570526654,-1.0644454078995274
1.76953125,-0.6575204513053888,0.49729533179550406
1.7734375,-1.612182160172169,-0.747044898155854
1.77734375,-0.370516832375103,-1.0355307013515105
1.78125,1.7997594740102123,0.9537512251601185
1.78515625,-0.6896155627842505,-0.10606699709402537
1.7890625,0.9900093033168123,0.15464503983684502
1.79296875,-1.117752170057283,0.2918767931513337
1.796875,-1.8632401078018945,0.041994238119701884
1.80078125,0.787143766672116,-1.7407092828418669
1.8046875,-0.4406828659519847,0.3753402172642246
1.80859375,-1.6571811792786484,-0.3834450245016714
1.8125,-1.191892531982098,-0.7355317946495693
1.81640625,-0.24015254725548701,1.5927152178591035
1.8203125,0.9895191875601598,-1.8419528487225454
1.82421875,1.2031136559066644,0.963939393752834
1.828125,-0.8971126109720865,0.18583871344577463
1.83203125,1.4422242098050888,-0.16295084072660146
1.8359375,0.1298354297792473,-1.33279840979193
1.83984375,-1.7319245244777703,0.263813302313581
1.84375,-0.8783692458906391,-1.3098707021087908
1.84765625,-0.796398203797267,-0.9618906950283406
1.8515625,1.7254248028944006,-0.03444302046825686
1.85546875,0.24326449270211692,-1.8237580077932847
1.859375,0.0385925120582672,0.9353659216419243
1.86328125,0.11763092496456033,0.9279338855193409
1.8671875,-1.242771496765495,0.4660772401566263
1.87109375,1.8124737588934656,-0.9374908420010182
1.875,-0.5164450284610068,0.6388283321043966
1.87890625,1.1119019039621263,-2.7300800366054916
1.8828125,0.4078149830765311,0.2562745264899944
1.88671875,0.2825592762779218,1.3818549731975966
1.890625,-0.3552924876368452,-0.46589459342007034
1.89453125,-0.592713842953396,-0.41492070221111704
1.8984375,-1.193799712884085,-0.6062510943795049
1.90234375,0.028713172808961147,-0.9672048168943003
1.90625,-2.068712539297121,-0.0003702091493738866
1.91015625,-2.1776877926113083,1.5243809559818868
1.9140625,0.3161176264425357,0.6525945268355047
1.91796875,0.2743200808768245,-0.9517084377970559
1.921875,0.9859832056016401,-0.024786440170106505
1.92578125,-0.2018279953113936,1.5021244554971553
1.9296875,-0.2667806676239757,-1.2953339369200092
1.93359375,-1.6275032584182516,0.2386293866809829
1.9375,-0.09086654316667013,0.7301489562991702
1.94140625,-1.2604343478380842,-2.6219565066749038
1.9453125,0.38109525683512097,0.9117011635870853
1.94921875,-0.2192746968095388,-0.16547047265783435
1.953125,-0.9827086438655454,0.32982921114851305
1.95703125,-1.7748301277682867,-0.729072967117441
1.9609375,-0.6143183717539725,0.4717976535599598
1.96484375,0.2435062463734184,-1.0783238365577117
1.96875,-1.2271524919721208,-1.1068232923081278
1.97265625,0.09952658312807712,-2.78726653166988
1.9765625,0.619742456971142,0.06077295023516375
1.98046875,-0.698464330217936,-0.29103415611419753
1.984375,0.5131160061102179,0.9860218400882079
1.98828125,-0.11341128635770288,2.6598710838814723
1.9921875,-2.23832631384233,-0.3876653334781934
1.99609375,-1.1493062970371275,-0.6091337903641274
2.0,0.6286478619063097,-2.012532934832947
2.00390625,0.6464982250682437,-0.147538117217635
2.0078125,-0.4320158487305371,-1.267696952209973
2.01171875,-0.9908627008907637,-0.3850592774549323
2.015625,0.1891269772615765,-0.3961713280586075
2.01953125,-0.5635705471322336,-1.258036560852299
2.0234375,1.179937698928556,-0.7856178627692368
2.02734375,-0.3411478134654631,1.117844127418555
2.03125,0.2925461091405454,-0.15890382274867815
2.03515625,-0.5646159158592355,0.6351826817039979
2.0390625,-0.5548694464009908,-0.8958127151657587
2.04296875,1.0789890946000775,0.3153481137779999
2.046875,-0.1543532428555732,2.7243972005443773
2.05078125,0.6469591857495183,-0.70107938530916
2.0546875,0.4980419345631652,-1.9647250112513643
2.05859375,-0.6727649991748618,0.33553743772419553
2.0625,-0.6411557017692352,-0.6382208313786781
2.06640625,0.4426405944918291,-1.7768951444101737
2.0703125,1.494376659838399,1.3304702535840787
2.07421875,-0.5163358555728343,0.7724160395017646
2.078125,0.08730261848278187,-0.06375879356380632
2.08203125,-0.7233851370428913,-1.6214794781331172
2.0859375,0.5661045113619594,0.4725564817873917
2.08984375,-2.457919971968365,-0.4258615982319018
2.09375,-2.0093954515427317,0.3755712556675273
2.09765625,-0.05332212881962199,-1.2024109663472602
2.1015625,0.40867066905897403,-0.6455947850562404
2.10546875,-0.792048506116535,-0.5683045539977182
2.109375,0.2943844016866087,-1.3366079551843966
2.11328125,-1.1990325653701495,0.67646398414072
2.1171875,-0.3195721716629093,-0.7388675275750043
2.12109375,0.12927388583592497,-2.253771680016332
2.125,1.8287444051857678,-0.809978295774355
2.12890625,-1.357398429335682,1.4745477382549577
2.1328125,-0.5139270598312307,-0.9110929595168635
2.13671875,-1.2388903335348065,0.6346838874454881
2.140625,-1.0135669803538458,-1.002620728230537
2.14453125,3.046273636348433,-0.17681074930380006
2.1484375,-0.24003658484244644,-1.5690589438212805
2.15234375,-1.1665554217975302,-0.10633377081026252
2.15625,0.9968681117865991,-0.19088411399654104
2.16015625,-1.2360824805712352,-0.55775111275265
2.1640625,0.822346051682364,1.0782517310569
2.16796875,-0.7119284198287162,0.18365895726717857
2.171875,0.7144704182053364,0.5256890514333583
2.17578125,1.1328808503484744,0.6056510597674595
2.1796875,0.3919096384985449,0.132592753001648
2.18359375,1.117670468517066,-0.7295570742322331
2.1875,-0.9119731919005457,-0.5754207597938105
2.19140625,-0.5595197854158437,-0.28561850848420495
2.1953125,-1.074592866671833,-0.45650263421267623
2.19921875,-0.2968974868761676,-0.8220764178948764
2.203125,-1.44534302638191,1.1601649142461412
2.20703125,0.5875015339149721,0.7710372631650364
2.2109375,-2.7518443185992894,0.32985936485650985
2.21484375,-1.7141133334723535,-1.5066634127309637
2.21875,0.07131969042106222,-0.12179839747929197
2.22265625,-1.3480313115708638,-1.6776977863081206
2.2265625,1.9123220512340249,-0.0711984205788739
2.23046875,0.20149258033409898,-0.1975747044629831
2.234375,-0.31318990417656684,0.47345813644954865
2.23828125,-1.090003633516331,0.17132574222795066
2.2421875,-0.9538311977562499,-1.0267611146722728
2.24609375,0.07995731898035555,0.010114155631509532
2.25,1.804468000259935,-0.22272716749862032
2.25390625,0.870297633067643,1.0524798084456326
2.2578125,-2.101252522955796,0.6776101861763327
2.26171875,-0.6029250464534907,0.8267776568186289
2.265625,0.14726333978742703,0.7722867428513885
2.26953125,0.30132277581739053,0.41958327269459683
2.2734375,-0.7534955516668884,-0.41470363512275776
2.27734375,-0.14494835383662946,0.8354719405516869
2.28125,0.33200558506117256,-1.4897937505439633
2.28515625,-0.7120704805000629,-1.4427603451800939
2.2890625,0.01725024287982918,-1.5628901289936463
2.29296875,1.3919018351694084,-0.9778465453157265
2.296875,0.8567883887232232,-1.9154703949227172
2.30078125,-1.1816954234059962,-0.36503286897945186
2.3046875,1.0334724241356796,-0.057072331881147166
2.30859375,1.7209543245828907,-1.470493978889564
2.3125,0.4043625123189514,0.7518343273467476
2.31640625,-0.13374074352580687,-1.5766967461765378
2.3203125,-0.03919554420570185,-0.7372189323016229
2.32421875,0.6470264264084543,0.40010748333560436
2.328125,-0.7989883886983544,1.3830252683730222
2.33203125,-0.4546770320392554,-1.2549796813235976
2.3359375,-0.5653723096206974,-0.8557857347967611
2.33984375,-0.6572906018033896,-0.22026153038236185
2.34375,-1.1372196912535335,2.211309418059851
2.34765625,-2.188949752861281,-1.0383856320523717
2.3515625,-0.8245156884965705,-0.16638452566978107
2.35546875,1.3317088024903079,-0.2728743760639964
2.359375,-1.953596422074256,0.3934829620119036
2.36328125,1.1996276880282835,0.03607642593432668
2.3671875,0.19362279016300857,-1.7069301244515585
2.37109375,-0.8874385253035486,-2.0844412192800137
2.375,0.8040462979835276,1.6456480861179261
2.37890625,0.9670910245120129,-2.375302848064042
2.3828125,0.6528161141250379,0.6965174236603339
2.38671875,-1.1734390143485371,-0.27315071049316836
2.390625,0.509037461890558,0.9643082249762992
2.39453125,1.5419649451831667,-0.7302294177826184
2.3984375,1.5393529289375354,-1.3572800810250194
2.40234375,0.38302953966135606,-0.1673204590283829
2.40625,-0.4634959942728727,0.5264829807757474
2.41015625,-0.10019828427542514,2.2725868138009426
2.4140625,0.2538867902793404,1.0559311927583332
2.41796875,0.7615481402861338,-1.3255919350227146
2.421875,-0.811454889337874,-0.10629683210632394
2.42578125,-0.10056958882608914,-1.169492597747979
2.4296875,2.175486474625653,-1.8141627017815987
2.43359375,-1.631402332305185,0.9869224018602996
2.4375,-1.5000264750320527,0.04155673395251929
2.44140625,0.47332697352809516,0.04226888157261605
2.4453125,-0.8986570130385488,-0.21958754721551552
2.44921875,-0.11909400785890814,0.19555533473649317
2.453125,0.3621305952871173,0.1847894258295661
2.45703125,-0.09380794869389401,-0.44271221022872953
2.4609375,0.7477204844317954,-0.9955359762016275
2.46484375,-0.4393678595479355,-0.5386040523995268
2.46875,0.8243076608691626,1.6332652140246862
2.47265625,0.3485784468516278,-1.2568088238342114
2.4765625,1.1294358848494535,-0.555644914547236
2.48046875,0.6391255314466147,2.0329871535683566
2.484375,1.6348371815184717,-0.6950404885983384
2.48828125,-0.141897262975718,-1.1059507314951282
2.4921875,-0.49358289265172484,-2.046060526489755
2.49609375,-0.5382463761524826,0.3498584715631586
2.5,-0.5209043853726945,-0.8802938121288646
2.50390625,-0.9292923729435784,-0.3097711352757442
2.5078125,1.111389320920647,1.084005949240898
2.51171875,0.6143689332512955,-0.04672061864594207
2.515625,0.3954679997030753,-0.08825721176427576
2.51953125,-0.3621650768690757,0.6595613730947004
2.5234375,0.9908528724224149,0.278459151545087
2.52734375,0.4964157689323126,1.3561821383489068
2.53125,-1.0754763674473373,1.6915630488133637
2.53515625,-0.35718508686318684,0.9489477222587976
2.5390625,-0.02334474487129408,-1.1098956665715893
2.54296875,1.2480376723826756,-0.789437036416196
2.546875,-0.22798760571845084,-1.2358728806141974
2.55078125,0.48035930514732667,-0.3576800764558015
2.5546875,1.624305807363328,-0.7361397576957901
2.55859375,0.08862183247902196,-0.6432177948153075
2.5625,0.06530593041816299,-0.05821202529208056
2.56640625,-0.5600978864231236,0.8247416921861468
2.5703125,0.8734954815460816,0.3596528277253554
2.57421875,0.43788377401494016,1.3109548835545244
2.578125,0.1595291660666322,-1.0522069402664562
2.58203125,-0.5506725406650261,-0.13641722075480434
2.5859375,-0.5381836136094628,-1.621177264961675
2.58984375,0.3503357062891307,-0.7455609946049165
2.59375,0.3124189759015838,-0.5639119875335357
2.59765625,-0.08957888752035173,0.7111111726699821
2.6015625,0.7808946278350478,1.717018634144504
2.60546875,-0.16788442909801896,0.47198561940608097
2.609375,0.20645771100561983,-0.21892691992831076
2.61328125,0.64476380079777,0.07123257196038424
2.6171875,1.5348949901115287,1.237924067472957
2.62109375,0.009116665764880898,-0.41791425681902195
2.625,-0.024076658233999067,-0.3669283993179558
2.62890625,-0.005662110502270225,1.3793863355803089
2.6328125,0.3096931864682461,-0.07700214137749167
2.63671875,1.9413623356562877,-0.6174949876050462
2.640625,-0.16740748867812946,-0.474365536759238
2.64453125,-1.7680308303803582,0.7939254846546395
2.6484375,0.5854264168099061,2.189039342458496
2.65234375,0.7048669354788333,-0.30545668984443347
2.65625,0.6387803303007643,1.786757539936392
2.66015625,-0.5329566895854425,1.2871698096239181
2.6640625,-1.429015381829479,-0.6670133809078054
2.66796875,0.9653073823459285,1.08076900709259
2.671875,-1.5474968345446032,1.7134315771574036
2.67578125,0.717384148749854,0.5486496626360771
2.6796875,-1.2055834540219446,-0.719318777630642
2.68359375,0.3419807018055781,0.44811592631042896
2.6875,0.3177751698397924,-0.5559083381354979
2.69140625,-1.4533495838830837,-0.8284145209884871
2.6953125,-0.15818339316024027,-0.15319430823795227
2.69921875,-0.18103154193951748,-0.1015771555693174
2.703125,1.2445608800674675,-0.44108472217273886
2.70703125,1.7493993183124112,-0.6626027104203979
2.7109375,-0.2213733155195268,-0.62034592829368
2.71484375,1.5324796865306092,-0.1661937408713277
2.71875,0.31242340177763633,0.39762306810163056
2.72265625,0.3152603866789509,-0.7730846305458164
2.7265625,-0.4480193856397323,0.02824146188590113
2.73046875,0.9483741078676889,2.1750526990444556
2.734375,-0.13770112881863997,0.859934577688295
2.73828125,-1.0305807903879634,-0.40846651798976064
2.7421875,1.9737272049578827,-0.7585488346175051
2.74609375,-2.328694680125226,-0.06100035507135643
2.75,-1.0004451466887765,2.212098377435499
2.75390625,1.2018761965622955,0.4047004320413652
2.7578125,-1.5358184338287995,-0.4995386929556997
2.76171875,2.001859331038452,0.6115727164302367
2.765625,0.5733484804772322,-1.883136947682704
2.76953125,-1.0211081179034807,-0.03250097925541807
2.7734375,0.08039089752042886,-1.8011320220597262
2.77734375,1.8876185686306726,-0.5579245550426847
2.78125,0.6383181626392245,-0.6541875144373149
2.78515625,0.004062567386047932,1.9764305438402265
2.7890625,1.1636070558464013,1.0172801692328102
2.79296875,-0.018879182148506396,1.5295943540070118
2.796875,-0.7058487114152368,0.35659300750532097
2.80078125,-1.2281026867250517,-0.6626929227592248
2.8046875,-0.20825787393151218,1.120204855638397
2.80859375,-0.5448174888447995,0.6717497757216603
2.8125,-0.9994578131668892,-0.7439361554762645
2.81640625,-0.34350354908528263,1.244273088915138
2.8203125,-0.4767898193462101,1.7185528408598658
2.82421875,1.6954412036868303,-0.40821426992156606
2.828125,-0.9183813639918343,0.13039487946136924
2.83203125,-0.5396567028588841,0.7848593878094247
2.8359375,-1.1781736462454206,-0.3320128996962697
2.83984375,-0.25721714509321447,-0.8397110660275239
2.84375,-1.20968955682888,1.0942539012648729
2.84765625,-0.9233915558391699,-0.3333428245391282
2.8515625,1.515017505222732,1.312028342506982
2.85546875,0.5759047393897622,0.6276952576465493
2.859375,0.3618756367865373,-0.4210139106042759
2.86328125,-0.9757457901373433,-1.1100904993657017
2.8671875,0.0034160196199228086,-0.9640316699341631
2.87109375,-0.05912366865683916,-0.19238291736727017
2.875,-0.5857338180619729,0.6473782936023368
2.87890625,1.5289812785320116,1.4108469232139846
2.8828125,-1.2142073837587868,-1.4911140485602088
2.88671875,3.6187202330954573,0.2529657152963968
2.890625,0.7696735360091651,-0.685522396478162
2.89453125,0.22677807214401563,-0.09476085268790209
2.8984375,-0.5861420959141285,-1.1338995236031943
2.90234375,-0.2029757721327574,-0.08486274457679728
2.90625,0.6236140134434534,-1.2587723934376485
2.91015625,-0.372452025620751,-0.6984004285329452
2.9140625,0.43668115197869717,0.2989384734111785
2.91796875,-1.8151306462091978,0.43319437305922726
2.921875,1.5473829322530541,-0.4506172933324343
2.92578125,-0.3097959621031468,0.2582490013202337
2.9296875,1.2477026756372969,-0.3189623212827303
2.93359375,0.5326075765236181,1.0450793528442008
2.9375,-0.5378904864673966,0.6986170399338547
2.94140625,-0.8891926390489614,-0.5003033042171415
2.9453125,2.330570973971941,0.07207705284630021
2.94921875,0.17971482308101594,0.6710566128963038
2.953125,-1.6770009773379095,-0.2444299593131776
2.95703125,-0.7195546613854772,1.3148202067032508
2.9609375,-2.0575137182693966,-0.0894196777231544
2.96484375,0.16866571929556118,-0.053379705140815435
2.96875,1.6295747920412793,1.0898293899130884
2.97265625,-3.372370546469265,-0.35268536690276225
2.9765625,1.323116247418004,1.0346550684745246
2.98046875,-1.0900989021018022,-0.7149704776447862
2.984375,-0.544441562344731,-0.27586152784436696
2.98828125,-0.6247021786401225,0.2268788294317703
2.9921875,-0.8522254216746691,-2.3146387875470853
2.99609375,-1.149599405289348,1.2855231902102968
3.0,-0.16741644341951922,0.45533559332546786
3.00390625,1.116197053380524,0.5500447107284689
3.0078125,-0.12962833322114314,-0.8752213861514375
3.01171875,2.1739137646517754,1.8053436987200588
3.015625,0.41530295860745764,-0.5933091547573427
3.01953125,-0.3526232083392164,1.8374855584965328
3.0234375,-0.1654679190934892,-1.3175298136052347
3.02734375,1.2097598536901641,0.15062937543543262
3.03125,-0.4486616109810216,0.020999890305289003
3.03515625,0.8225454151786503,-0.896067578432289
3.0390625,0.8139413854409143,-1.0636444467042405
3.04296875,0.016039864250449024,0.5484519432924927
3.046875,-0.5900879633378211,-0.202215684835786
3.05078125,-0.8108617657510986,-2.5812112569948353
3.0546875,0.5353544481281778,-1.8343942950881305
3.05859375,-1.215018294945125,0.44689933438813395
3.0625,0.1511643422631524,-0.8576493792572578
3.06640625,-0.45438004603474,0.5444836844949298
3.0703125,-1.2601056839276923,0.41030914335529217
3.07421875,0.4161911778461485,0.6993977338327467
3.078125,-0.4534159015993832,0.6307945237682598
3.08203125,1.9552040462035303,-1.2226635984235064
3.0859375,0.4565501840692393,-0.6721878009284035
3.08984375,1.5693632685938352,1.1093886150044057
3.09375,1.0510890952402216,0.14793141500093782
3.09765625,1.2077971804168297,-1.946603511345203
3.1015625,-1.0403020844329394,0.04088050974484188
3.10546875,-0.21845216593770123,-1.4234730196204657
3.109375,-0.9180497323546963,0.3133668811147112
3.11328125,0.648199644293899,-0.7103227307450721
3.1171875,1.0040338168467349,-0.473072310595435
3.12109375,0.6741433345999588,-1.2396751990751507
3.125,-0.9838330040575294,-1.0032310123706154
3.12890625,1.086403105547529,1.820692757349515
3.1328125,-0.5178889784808057,0.5710672534517011
3.13671875,-1.8033421761467454,-1.58412750342971
3.140625,0.6260159644812643,1.1919777938245684
3.14453125,-0.054387333249200094,1.250090176999134
3.1484375,-0.06414761147552528,-0.8330793621349214
3.15234375,0.02770214264779194,0.288190126932001
3.15625,0.3707404449527834,0.30067174011927617
3.16015625,0.27180815565476446,2.279674755675233
3.1640625,0.4723123959746331,0.35684766944599816
3.16796875,-1.4855930609270116,0.9037298032497273
3.171875,0.06139040179236529,-0.968902691124512
3.17578125,-0.259465637568872,-0.20704930493011273
3.1796875,0.34265187163997674,-0.7875202893564428
3.18359375,0.5101727605764267,-0.7726876557250081
3.1875,0.41036888706199937,-1.6323427220683377
3.19140625,-0.8864268128573436,-0.03198059364299436
3.1953125,-1.7257383218449305,-0.6673335614294834
3.19921875,0.7364162970007615,-1.3749401161046853
3.203125,-0.8446589317449548,-0.9095532745914252
3.20703125,-2.9817762635879492,-1.1697615380778172
3.2109375,0.9698036288699947,0.5316568231126744
3.21484375,0.7728308220870822,-0.32015650277168534
3.21875,-1.540317973663439,-0.7516235045034735
3.22265625,-0.8219613215419872,-0.4197575229704496
3.2265625,-0.5452344707852135,0.44087430040222864
3.23046875,0.1549374366655177,-0.05933466713157009
3.234375,-0.14963898338367204,-0.6745111521431406
3.23828125,0.4129632961541547,0.18775593076724914
3.2421875,0.070149166589943,1.8567091133519016
3.24609375,-0.6961982332171794,1.5627739912149332
3.25,-0.8872388930039836,-1.8359726320765435
3.25390625,-0.4674903198023731,0.9792338049435703
3.2578125,-0.8076576109374858,-1.268684999054845
3.26171875,1.6908767753476697,1.3352047883565077
3.265625,-0.48118822310463233,2.00846291100822
3.26953125,0.3228668282828574,-1.3313242405209922
3.2734375,1.1861871173376153,0.5274010518493523
3.27734375,-0.2561802171578463,-0.25162629920475393
3.28125,0.2341852729496324,-0.15641293307191015
3.28515625,0.46542459601940445,0.5820782298456068
3.2890625,0.6793360838841913,-0.011987539727136618
3.29296875,-0.5051174094761769,0.45047626249847283
3.296875,-0.02163681840423423,-0.2617503342559572
3.30078125,-0.23590723216665077,0.955938263151681
3.3046875,-2.061292444474811,-0.35197831871737917
3.30859375,-1.0080784485332261,1.2574325973387286
3.3125,-0.7711814178147758,-0.16732975661756302
3.31640625,0.8921151480080528,0.977215583329263
3.3203125,-0.19257648951333245,-0.5514319335697029
3.32421875,-0.8656954259706252,0.9940942117780588
3.328125,-1.8782191870530742,0.912712665369664
3.33203125,-0.687504997768508,-1.1003736812561584
3.3359375,0.33225051550808576,-1.016936638001612
3.33984375,0.31035075471722284,0.20966730699134598
3.34375,0.13635466967673548,0.33710674448870226
3.34765625,-0.0961054267708316,0.732883761397953
3.3515625,1.0231085624423504,-0.06867440461242008
3.35546875,-0.10956392177673892,-0.26703016205115576
3.359375,0.9341085508681656,0.6115113258345448
3.36328125,0.6933493140901101,0.7618075973403212
3.3671875,-0.411002543689113,0.7696193664066546
3.37109375,0.7760297468855871,0.8064016728516261
3.375,1.1958932486131753,0.6394902211779909
3.37890625,0.7128677053009047,-2.08453049526689
3.3828125,-0.10921279103066185,0.019600741951007864
3.38671875,1.0549041447022085,1.689645815219462
3.390625,1.398008053784202,1.4435373545667807
3.39453125,0.3466206962026573,1.2707643420822938
3.3984375,0.5050828816073768,-0.3672818120675125
3.40234375,-0.29147079852220714,-1.1739347608166566
3.40625,-2.3074490120217863,0.6294594853594156
3.41015625,-0.4019875900687162,0.5520447813624475
3.4140625,-0.01441277876441752,0.23511808642661233
3.41796875,0.7453089487809714,0.1374064219904837
3.421875,-0.8139645580756878,-0.854049562573834
3.42578125,0.35205138497330973,-0.18800765548017676
3.4296875,-0.45022544654345487,-1.2339873998421984
3.43359375,0.2708957031682912,-0.4603340611532778
3.4375,1.0283443994706492,-1.8251480351983917
3.44140625,-1.0136437649368462,-0.49002308238431214
3.4453125,0.0650500110575719,-0.28165596850484675
3.44921875,0.35006271620263474,-0.216027580825893
3.453125,-0.6429201044127963,0.9199238450638954
3.45703125,-0.12504460439679446,-0.5399463836763222
3.4609375,0.2489971885420349,-0.388692115332723
3.46484375,0.4633976638070246,1.3320159923679031
3.46875,0.391641761594711,0.5925159136908594
3.47265625,0.5957554002338205,-1.6980834339844353
3.4765625,-1.0858014541930459,1.4773045488024596
3.48046875,0.08957049888735452,3.3964461671904016
3.484375,1.5314337039687629,-1.5578970027214754
3.48828125,0.2573200278969659,-0.8789757205040536
3.4921875,-1.7925126510247158,0.5706241762138681
3.49609375,-0.03456812864934535,-0.5690469778082953
3.5,-0.2989161683996514,0.8064082348330381
3.50390625,0.18327231639394306,-1.0354213726012262
3.5078125,0.0495434460746817,-0.26097601286102995
3.51171875,0.9218008107055179,-0.3024376810907031
3.515625,-0.038399393623751256,-0.40802295980081466
3.51953125,0.0758053450463925,0.11393010076715848
3.5234375,1.5081757330820538,0.3873011529472747
3.52734375,-0.41684010211101813,0.2865122023450389
3.53125,-0.9877304381339431,0.0506147127727166
3.53515625,2.0666404931858464,0.13929420174979715
3.5390625,1.1107614384054332,-0.999835450736905
3.54296875,-0.9597087953661323,0.07398564853383131
3.546875,1.688984868856856,1.6971554367090462
3.55078125,1.4105684886724918,0.9140614746928641
3.5546875,-0.5117764951561535,-1.0444803395973599
3.55859375,-0.24947763560257805,-1.139761704799406
3.5625,-0.7543088104451457,0.08166760796825127
3.56640625,-0.23917069896516524,1.4840147488812627
3.5703125,0.266175976871107,1.2380389384621786
3.57421875,-0.40499707981801253,0.9488176484991504
3.578125,1.1038407524195295,0.4439777867804656
3.58203125,1.5304016823075604,-0.42442743628138985
3.5859375,0.38123582829419705,-1.5811048381283141
3.58984375,1.1486986841719435,-0.08165659334060121
3.59375,0.7815657585680008,0.3177376708314546
3.59765625,-0.8829507334968932,0.05494807477346101
3.6015625,-0.21404761481314066,-0.08016995455731388
3.60546875,0.35719706671506457,0.7028402912002141
3.609375,0.12077053476008222,0.5866525387041684
3.61328125,-0.3518223116928972,-2.2153844284220225
3.6171875,-0.23280201302464756,1.6228074072045018
3.62109375,-0.6089346798474377,-1.4889816927848192
3.625,-1.0156059072453034,0.6950262395827081
3.62890625,0.49104388938066873,0.9856235055329466
3.6328125,0.14659403732077733,0.026708014464406415
3.63671875,-0.20678699998813765,-0.26095994044362714
3.640625,-1.044461342800596,0.4809356990796006
3.64453125,2.1666472711832676,-0.1613418820484875
3.6484375,1.327981722028989,-1.5016457995549128
3.65234375,0.7514796904848358,-0.19091935458864734
3.65625,0.0844856929254982,1.0346026299637876
3.66015625,1.2604856743273658,0.49375337595162455
3.6640625,-0.31287687304613887,0.7839906739018433
3.66796875,0.28806906451317654,0.9953789647666897
3.671875,-0.21645101804488032,-0.7615210745385584
3.67578125,0.6286227892396181,-1.06927473347721
3.6796875,-0.3555772705670075,-0.4880633816002651
3.68359375,0.28303322151231747,-0.17140215484478086
3.6875,0.17868856869174302,-1.0485647195645769
3.69140625,-1.257274300330138,0.13068016937868038
3.6953125,-0.9491513738508516,0.47210596290174023
3.69921875,-0.9452934406687998,0.5857200862692825
3.703125,0.4208772117095189,1.7584772158687672
3.70703125,-1.5259241819814693,0.29015951396497947
3.7109375,0.43837422780406404,-1.2743483761780279
3.71484375,1.0055350570764632,-0.49242068372166964
3.71875,-0.08680377614392258,-0.9450676903510096
3.72265625,0.41937923581230646,0.18589961427922033
3.7265625,-1.5487006742438263,-2.003094131104624
3.73046875,0.124650851725396,-0.6554669218735314
3.734375,-0.11563575535759625,-2.50722044270365
3.73828125,-0.6197024536356134,0.16400276763861654
3.7421875,-2.703934380423307,-0.15329738110393284
3.74609375,-1.6548229930499403,-0.4185831201453645
3.75,-0.7416726272307242,-0.02206823499620534
3.75390625,1.6281941916720706,-0.28311823744826303
3.7578125,-0.9351688379854557,1.4570728005632645
3.76171875,-0.9207666274014374,-0.17407798055081447
3.765625,0.9006661037293044,-0.5557514486791383
3.76953125,0.4791044058880962,1.1946505381629429
3.7734375,-0.5419495271040333,0.3459756635140456
3.77734375,-0.9382568159842882,-0.17705982256413366
3.78125,1.1450214455280192,0.3030712966618452
3.78515625,-0.8059882065013518,0.8360759699276027
3.7890625,1.0407863596773101,1.530466989194742
3.79296875,-0.8439148189098407,-0.7517739782822161
3.796875,-0.5533155783522484,0.025765514257254048
3.80078125,-0.5935979437104744,-0.6337656290070518
3.8046875,0.43105652407379214,-1.7560685564821048
3.80859375,-0.9177882292537546,2.337524265136075
3.8125,-0.01874610079329862,0.7788496644383213
3.81640625,-0.4102073901346875,1.676810408431824
3.8203125,0.2648509238366501,1.3866900498615442
3.82421875,0.5848790558614791,0.4280348955069871
3.828125,1.5142118744067807,-0.3900508398017028
3.83203125,-0.1690032702292381,-0.34883692959774554
3.8359375,-0.23584453066356006,-1.0113055704928884
3.83984375,0.6697195516095465,-0.398841205691232
3.84375,0.34859647379774095,0.1423306670066481
3.84765625,0.45569983472002457,0.11146858951144932
3.8515625,0.44085139408269636,0.09321269828211126
3.85546875,0.573862397606166,-0.3464897375134663
3.859375,-2.2454037022949302,-1.3332288371036927
3.86328125,-1.4228985219495112,1.0085433550938414
3.8671875,-1.4564474718020632,-0.02578492574391901
3.87109375,-0.34906722678255586,-0.15118700964277734
3.875,0.7092079128743382,-0.011011521429769121
3.87890625,-0.8958954878537886,0.9440315766360898
3.8828125,-0.8888035143599712,0.5853332939527802
3.88671875,0.3456284444542987,-0.302575244320425
3.890625,-0.2974351605592069,-0.43217818157771404
3.89453125,-0.5660333812707209,-1.5057214799891143
3.8984375,0.3078908012696613,0.5596053164169043
3.90234375,0.9219851273695542,0.9316997187626909
3.90625,1.7206578438912958,-1.21064611562733
3.91015625,-0.5703253467137502,-0.665273205850736
3.9140625,-1.7422944649792056,-1.3814323718610926
3.91796875,-0.7554698086957251,-0.6373084527252626
3.921875,0.5452357850958468,-0.01723558784920351
3.92578125,-0.09718707493803082,0.1774225064004039
3.9296875,0.10857091246458257,-0.2190849832310342
3.93359375,-1.284946786246791,-0.8095957151929696
3.9375,-0.0622328431833908,0.12852373371925102
3.94140625,0.8296228176160619,0.40831804215091405
3.9453125,-0.2573126418336398,-0.05819045035471882
3.94921875,0.595734378150954,0.38775321946136576
3.953125,-0.8762806848722471,-0.7117171027921906
3.95703125,0.5698553146914729,-1.0222973265530626
3.9609375,-1.1898784326199077,1.1691895063997988
3.96484375,1.8233934027064753,-1.6800931957351677
3.96875,-0.4290646974838805,-1.6296554785411461
3.97265625,0.622409318212157,0.012311532228119152
3.9765625,1.2721754068225333,2.2311760647513794
3.98046875,-0.5229484309645167,-0.650983485671739
3.984375,0.09825837144675646,1.6569652908878254
3.98828125,-2.3164296122055785,0.3521169294172056
3.9921875,-0.7240861779942496,-0.023124477337234422
3.99609375,-1.2555140445523019,-1.7122186336488674
4.0,0.5455343583476825,0.4214997797386465
4.00390625,0.5720543101996991,0.16837412907392146
4.0078125,-0.07650138610491931,0.25634880499998935
4.01171875,0.4720796260503175,-0.3708006485495182
4.015625,-1.358765045778588,1.3601577908937015
4.01953125,0.5993652251510105,-0.7659097388522311
4.0234375,1.4264698004523355,-2.6649289229296405
4.02734375,2.4574385504006933,0.9801808408717251
4.03125,-0.08226856166832194,-0.9104850560945504
4.03515625,-1.1372908637343944,-0.44682053378807135
4.0390625,-2.8052951573167153,0.920276317386214
4.04296875,-0.6260266919124228,-1.73585376116997
4.046875,-1.7872700514878526,-0.041342680836545485
4.05078125,-1.8659772249486646,0.550184311696745
4.0546875,0.9094107733146047,-1.9817923766144647
4.05859375,-0.034655089981884137,0.19722145654478473
4.0625,-0.5870678657638964,0.07392862155886712
4.06640625,2.0251273627720514,-0.5361891413668588
4.0703125,-0.7383043034694228,0.5807050987940712
4.07421875,0.011730090927495966,1.6317490705109101
4.078125,-0.22356150821722975,-3.3531152552635075
4.08203125,0.6219211688840781,0.6479824563944414
4.0859375,-0.976230590812769,0.9229492092738585
4.08984375,0.5275030206036604,-0.6011700834714684
4.09375,-0.8015138216925403,-0.22336930752195983
4.09765625,-1.7521140237115744,1.466847390351713
4.1015625,-0.498718835686562,0.12028164126061287
4.10546875,-0.27462090292700675,0.256864120118368
4.109375,1.3013892917666379,0.44446848448374465
4.11328125,0.5162525536203504,-2.007091564660734
4.1171875,-0.029451444746013238,0.11847291992206853
4.12109375,2.023291717860534,-0.32484842170512196
4.125,-1.3702776681935,0.9165154295482356
4.12890625,0.707331044264338,-0.6525313160211927
4.1328125,0.6670995668980837,2.5719087339250155
4.13671875,-0.181946536770595,0.015426522028236097
4.140625,-1.1011865917145527,0.7830750569767947
4.14453125,0.44982318076228656,-1.1052039024505986
4.1484375,0.2807135038033714,-1.4299288234789933
4.15234375,-0.505561976110393,0.8578509402285905
4.15625,-0.7513508734373148,-0.8388918840988825
4.16015625,-1.2311104172535008,-0.05790710773942322
4.1640625,-0.03302925730245363,0.48503508127862216
4.16796875,0.46200871563011525,0.2122182578872983
4.171875,-0.9315671355376414,-0.8922652617564274
4.17578125,-1.328447529950656,-3.652173260389028
4.1796875,0.5431880604500157,0.44873449537967697
4.18359375,-0.546890505700394,-3.3685431330918667
4.1875,-0.30717617695714305,-0.23998286076286343
4.19140625,-0.33497752272140696,-0.2583521201237487
4.1953125,-0.48656009463850425,1.2799224232914848
4.19921875,0.8770146575593344,0.6283168922630389
4.203125,0.2683634549675166,0.13567129161222904
4.20703125,-0.5000326687432799,-0.7896957570126126
4.2109375,1.0911727231438209,0.15173009664074116
4.21484375,-1.6377453808679254,1.328768826050644
4.21875,-0.7122352787580644,-0.7580338799395904
4.22265625,0.9821239801901764,-1.094371361905205
4.2265625,0.4747255698137825,1.7180703188472042
4.23046875,0.36577788175980436,1.436836292754157
4.234375,-0.7949330007406166,-1.9367958075718208
4.23828125,-1.8892863137131972,-0.007946457218381891
4.2421875,0.39931289367826567,0.539658251937951
4.24609375,-2.0508712402278846,-0.6886372902188022
4.25,-0.8218912921255918,-1.047139181062807
4.25390625,-1.2693625378499314,0.25420902345902124
4.2578125,0.07119693663598481,-1.6785158748455178
4.26171875,-1.10698137983859,-2.1488282731099813
4.265625,-0.14315347916735502,0.6712884224147116
4.26953125,-0.3139832118686242,0.14516393011778975
4.2734375,-1.5335183012402458,2.2799942950464316
4.27734375,-1.0784314787348146,-0.6886240713604986
4.28125,0.6478471802385348,-0.34156821532097925
4.28515625,-0.2987511261561109,-0.12293676159675042
4.2890625,1.073555595516017,-0.46989909747602304
4.29296875,-0.4220100844313346,-0.36886078255597254
4.296875,0.19110193314634225,-0.3716734337561669
4.30078125,-0.16372179001330855,-0.19166294407797807
4.3046875,-0.478293760304574,-0.5961565391290835
4.30859375,-0.2016545584821686,1.852407468379202
4.3125,-1.4393499823129625,-0.8036917345042445
4.31640625,-0.26185101593585386,-0.33987448895054945
4.3203125,0.1448004488322165,0.45525700027684085
4.32421875,-0.7259145196519292,0.10589067714905903
4.328125,-1.0766396665892106,0.19681735209595125
4.33203125,0.3236822978612491,-0.7418638793981397
4.3359375,-0.6998350323023185,0.9068770944228275
4.33984375,0.5977792636518754,0.6859102675500771
4.34375,1.7173992111550251,0.12377831653838631
4.34765625,1.6030547144371738,-1.1946279378642304
4.3515625,1.8544726895122725,-1.9903224310421699
4.35546875,0.8081130936838736,0.4696678020660459
4.359375,-0.9261114374913663,-0.9470336930842953
4.36328125,0.5722666967774267,0.7004613896201382
4.3671875,-1.2321271634403521,1.196060937351154
4.37109375,-0.14065755490864948,-0.23385809849634603
4.375,0.2690384841518038,0.7173916659948186
4.37890625,0.9033112040673197,-0.7715662577129233
4.3828125,1.7737079425956401,0.988799808300536
4.38671875,-1.5744435695342782,-0.2902140063142732
4.390625,0.7392937301395287,-1.1281038069965679
4.39453125,-0.044189489055999835,-1.6796903302036075
4.3984375,0.7719988037019938,-0.4454101853868363
4.40234375,0.003146887414383492,-0.08506710346840113
4.40625,-0.1126223368105142,0.23066029654267534
4.41015625,1.1797135536006587,-2.330914507457452
4.4140625,-0.3113714611315335,1.9874480569534954
4.41796875,-1.121109143164326,-0.23268921197144396
4.421875,-0.6697369904890228,-0.2558419217577049
4.42578125,1.3374939976873064,0.45633252329717644
4.4296875,1.646126125762497,0.7204432263570687
4.43359375,-0.0006248268800221841,-0.2700541113594471
4.4375,1.5016672177668786,0.7521304858796176
4.44140625,-0.6012541410097334,-0.46581733199802927
4.4453125,-0.9284201515847579,0.8630135840405844
4.44921875,0.456527701575744,3.236952298234374
4.453125,0.3824423001686301,0.47721217370083513
4.45703125,0.37231756794483173,1.5348589682083675
4.4609375,-1.5422299252859175,-0.7954449440518471
4.46484375,-0.11232390705670477,-1.3646047284160816
4.46875,-0.6549836315893234,0.882407259105469
4.47265625,-0.9923142568809229,-1.5711782731799366
4.4765625,0.979875321545903,-0.7863281077711675
4.48046875,-0.23566001703958403,0.7026335375578727
4.484375,-0.6574721668048072,0.6886953904809843
4.48828125,0.2515755252580614,-1.0070588790376265
4.4921875,-1.2399810213681057,-2.067976995585858
4.49609375,-0.14915840462504507,-1.1708384001019747
4.5,1.1023573973744152,-0.46489087802112417
4.50390625,-0.41926468692174435,0.2122928707032271
4.5078125,0.6087221102740309,-0.7843980792292238
4.51171875,0.9968044952721904,0.24715323494891941
4.515625,0.2549378075174578,-0.1690880641670627
4.51953125,-0.601493087396969,0.4996246977015658
4.5234375,-0.5374479317595436,1.058976572353134
4.52734375,-0.8939880386999023,0.9000330055576709
4.53125,-0.776717760850412,-0.07732067118872181
4.53515625,-1.1936312888789646,-0.4945807371691415
4.5390625,0.03979794080669522,0.5702856612476065
4.54296875,0.7339470475694664,-0.5317111821112406
4.546875,-0.5183811730031289,0.2499452970298268
4.55078125,-1.5125238178448215,-0.6912490542901873
4.5546875,1.5451083590998627,-0.5844556318310856
4.55859375,-0.3072607960896142,1.2332966183052037
4.5625,2.3232723155890005,0.6216221656672554
4.56640625,-0.3392099462573727,-1.0579846071599088
4.5703125,-0.5235494909580686,0.195674665304522
4.57421875,1.0517919865523737,-0.11358969569126927
4.578125,-1.9091609448622207,0.3008414572562558
4.58203125,1.3211315057951964,-2.4521438860252696
4.5859375,-1.495371703696397,0.059470667828863476
4.58984375,0.15184758655210287,-1.8581041681466905
4.59375,1.0553277587660237,0.5687176947961576
4.59765625,-0.8233560467413624,1.9153868466967563
4.6015625,1.2477583058710464,0.4863351436736648
4.60546875,0.3746169330281128,-0.09201814430696788
4.609375,-0.7064910181187688,0.5416250338488561
4.61328125,-0.008395775876417365,0.0014820246690074707
4.6171875,0.2931797771319155,0.5365580892382683
4.62109375,0.26587529575821517,0.48702310801520293
4.625,0.04945389072646913,-0.13735670732564367
4.62890625,-1.4755400325494148,0.36077016006530904
4.6328125,0.6162244309185346,1.3302344384421736
4.63671875,-2.074785608900635,0.32367463180243605
4.640625,-1.5411770182677156,-0.4079611879102628
4.64453125,-0.20334370495621062,0.3367758116578465
4.6484375,-0.6576283917593072,1.7013251010070622
4.65234375,0.6584214195701188,1.3656318931828606
4.65625,0.14974099354665618,-1.6254688169042055
4.66015625,-1.2408081930935446,1.5003564499112632
4.6640625,-0.03196711549719302,-0.389617048074251
4.66796875,-1.4568021859899454,1.0440768513870997
4.671875,-0.8329589842558066,0.9019329048940476
4.67578125,-0.13610635534588644,0.02240021349025895
4.6796875,0.5544367984837871,0.595830558401613
4.68359375,0.43876392024079447,0.5224992101637216
4.6875,-2.521555606204751,-0.12203156155270613
4.69140625,-1.146957916655751,-0.3739144771833831
4.6953125,-0.2101020212682149,0.8241280420722851
4.69921875,-0.7452481284765908,0.026035511112824275
4.703125,-0.6285276772769512,1.0900719460131252
4.70703125,0.6663123274020382,-2.176976500893128
4.7109375,-1.0064623096419878,-0.39862994558808246
4.71484375,-0.6024926097765693,-0.5849401683660622
4.71875,2.721956545973728,-0.6367207372673426
4.72265625,0.6815797468076795,-2.4182625382579226
4.7265625,-1.687978365766288,-2.090621611423588
4.73046875,-0.031763874887872294,-0.4019086507186703
4.734375,0.19845848909935782,0.794605597318944
4.73828125,0.4689244958776151,0.7423917585289606
4.7421875,0.22216107882794273,0.7369825674023326
4.74609375,0.022818918290778024,-0.37272307726237375
4.75,-0.6491662825529801,-0.757476626315299
4.75390625,-0.3376570362910416,1.4887467140907211
4.7578125,-0.18403621799921518,0.15890703603809736
4.76171875,0.7348600357271737,0.3842106873327046
4.765625,0.11620924548854267,0.20056151262704305
4.76953125,-0.026674781313106338,-0.6066708882751388
4.7734375,0.11682472807816753,-2.2367572818716783
4.77734375,-1.107980744788695,1.5816638918689778
4.78125,-2.374516453062659,0.4274483938101634
4.78515625,0.6582665673225846,-0.6156702397370387
4.7890625,-0.7564544323287078,-0.6233962210236818
4.79296875,0.7501182779344938,-0.11904835071426421
4.796875,0.7287936077657755,-0.36653309110161547
4.80078125,0.5168177640616711,1.1321151221028782
4.8046875,1.2054276665847663,0.2007726905229565
4.80859375,0.395182961544684,-1.8514276168018657
4.8125,1.5913763793177216,-1.3575322067281756
4.81640625,1.254965808614399,-1.135940612887511
4.8203125,0.06104484114125993,1.5450702381816919
4.82421875,-0.7701512387889694,1.1144483606026176
4.828125,1.7407522308932013,-1.3134821331515465
4.83203125,0.8651353837937956,-0.27877520315530185
4.8359375,0.7542923769649753,-0.44586406201682693
4.83984375,0.46898783901582525,0.40286174964932675
4.84375,-1.1965145185534898,-0.2893641842293318
4.84765625,0.6291393942920744,0.008528792563419771
4.8515625,-0.8657247066725898,1.0195920860462335
4.85546875,1.547231352613574,0.827922941238396
4.859375,-1.404025704775896,-1.2505523366633582
4.86328125,1.9138153074641235,-0.5786922551959061
4.8671875,-0.3359482976915815,-0.12228025699939474
4.87109375,0.4185482437248264,-0.37711130665065645
4.875,1.7758437990227263,1.1205078406080706
4.87890625,0.5404732225894135,1.127575842075754
4.8828125,0.004278535829390785,0.342820073477788
4.88671875,0.6194075959740774,-0.5874507641512445
4.890625,-0.08791729938067117,-0.3281486699030383
4.89453125,1.3999480958576296,-1.1139183876293794
4.8984375,-2.4712025710783143,-0.3771267486262496
4.90234375,-1.9109204658078294,0.8197882621606926
4.90625,0.5241275128642128,0.4600913263805743
4.91015625,0.8684822906963939,1.2600925279120052
4.9140625,-0.5006792044693319,0.23159377891386418
4.91796875,0.31450566617194364,0.29631096135808593
4.921875,-1.5842449421766889,0.7557057868238325
4.92578125,0.19186106038712103,0.9650700197763538
4.9296875,-1.833001984762962,-0.7982769689079702
4.93359375,0.300512358231207,-1.3974966819650885
4.9375,1.123990802066104,-1.5450299863303956
4.94140625,-0.8291741547463793,-1.2268841004425757
4.9453125,0.6706683333482546,1.4369063961753354
4.94921875,-0.5027666948882389,0.21328392751866684
4.953125,1.2143402769030331,-0.4857952942531618
4.95703125,0.34216974476728,-0.5687064150672011
4.9609375,0.7165149918406053,0.08322103340810008
4.96484375,-0.355026229568637,-0.1607349512574274
4.96875,-0.4668780105715002,1.5403884794568032
4.97265625,0.20576410313063787,0.7001641727708535
4.9765625,-2.0809870903490486,0.7037843866549598
4.98046875,-0.5407466416818713,-0.1707054536279702
4.984375,0.6174464458844291,1.3152699934565277
4.98828125,0.6558390644206061,1.878981731482237
4.9921875,0.08995682353461226,1.086243036500012
4.99609375,0.5136375738984227,0.37886506275886506
5.0,-1.6181470532633124,-1.1295218104873486
5.00390625,0.9313570803191891,2.097203755698201
5.0078125,0.22145894468941732,0.07859320795538706
5.01171875,0.01929534178659504,-1.1074771571854987
5.015625,-0.9858179678056855,1.0124805368047844
5.01953125,0.6703098399294786,0.8416250827495273
5.0234375,0.16699195289777838,0.9639125504091247
5.02734375,-0.5288570577741222,2.109920929599995
5.03125,-0.6861469872579443,-0.5102470365954775
5.03515625,1.1005540021929654,-0.10475247359729072
5.0390625,-1.756475120171178,0.5802603317236447
5.04296875,0.36765951667092117,0.3173383891155414
5.046875,-1.3622562372902365,-0.2771157875714687
5.05078125,-0.5950114306288604,1.0934145987292498
5.0546875,1.4580283683492583,1.1021581141663432
5.05859375,0.7535991698696806,0.3743863381360752
5.0625,-0.5626013848556872,-0.44227040814290525
5.06640625,-0.5127493546926597,0.23255572350762407
5.0703125,0.2732608889705247,-0.17718236389099024
5.07421875,-0.22240644737251125,-0.5438861601866918
5.078125,-1.9409091551982356,0.8218571527395825
5.08203125,0.2236831285473178,0.9054824729321667
5.0859375,-0.20352073941320703,-0.7315203582193812
5.08984375,-0.08996966434090314,-0.16004115875506456
5.09375,0.5034960958243667,-0.42739533342453795
5.09765625,-0.8294730679910947,-0.7455505707383014
5.1015625,0.1460074139734744,-0.32866498685788975
5.10546875,-0.9058125960802078,0.7022067348912366
5.109375,-0.23923674361051353,0.03281771275584139
5.11328125,-0.25538248370072536,-1.014322854010461
5.1171875,0.4148997665473131,1.1516974190603828
5.12109375,-0.23139277328432564,-1.4236159228821665
5.125,-0.5701774160993708,0.4859043036849762
5.12890625,0.8712061074806635,1.1227930024231307
5.1328125,-1.4188525531706602,-1.093190110815147
5.13671875,-0.37735680876872396,1.111964775003785
5.140625,1.7883963833390246,-0.5317634789215455
5.14453125,0.24169954175782118,-0.827973110065552
5.1484375,0.2748793735335894,1.5704493889360378
5.15234375,-0.9482318157538544,-1.9141652853400266
5.15625,0.9961055734525539,2.269536392309872
5.16015625,0.5017018426636294,-0.832923218492025
5.1640625,-0.09418933717130717,0.7391692783691038
5.16796875,-0.03816911492287839,-0.7616617254827014
5.171875,-1.3770145364544628,0.17058721967689555
5.17578125,1.2825523129992407,0.34116877724074607
5.1796875,-0.30581185986321413,0.9309354876402453
5.18359375,-1.0351732795853754,-0.8697085328124462
5.1875,-0.2014417968115952,1.128751936072406
5.19140625,0.10656136621456433,1.2362723509509714
5.1953125,-1.1067995796139471,-0.7979227116344014
5.19921875,-0.1446734154936218,-0.5502795165995087
5.203125,0.8773171102599873,0.17689239059512948
5.20703125,-0.3040220867840427,-0.7163704637324092
5.2109375,0.2026684960099433,-0.744367111982464
5.21484375,-0.6709887078513134,0.3555323971314294
5.21875,0.7883568160605104,-1.8653072924118652
5.22265625,0.914994976315715,-0.5411414861617226
5.2265625,1.24846290649962,1.2529043529907813
5.23046875,-0.3486738739665789,0.9149566506572089
5.234375,-1.234025016294645,-0.36515429486803436
5.23828125,0.03550322612581932,1.4119387154926104
5.2421875,-0.2900864452457458,-0.703422879309927
5.24609375,-0.9737843242850018,-1.0817271034320965
5.25,0.4354292922883882,-0.1779456575672284
5.25390625,0.7917944799946567,0.4299351115794757
5.2578125,-0.5982568948366829,-0.6416460355339334
5.26171875,-1.6049028742187321,1.9975974894095705
5.265625,1.541676860182536,1.5447834846624575
5.26953125,1.7159448268463713,-0.30834080229597133
5.2734375,0.03041244754609776,0.34302825967376305
5.27734375,0.9531346738367863,1.1592922477724534
5.28125,-0.5069904373913884,-0.6695079343353456
5.28515625,-0.6135518011405359,0.37749140581615265
5.2890625,-0.02952189446326863,-0.234699497638488
5.29296875,0.18308273143524653,-0.5409641504589349
5.296875,-0.8324527579979376,1.3119215449743864
5.30078125,-0.386988272441598,1.5574043602367822
5.3046875,0.3467581893361505,-0.38019384047535365
5.30859375,0.050096496024772716,0.7891426438375045
5.3125,-0.5638994184562867,0.6355112025190376
5.31640625,-0.7070310754371586,-0.9425548749805931
5.3203125,-0.20044685550306673,0.08051905623278229
5.32421875,0.7350133447518085,1.2182812393002456
5.328125,-0.5663600066158776,-1.8239031840920552
5.33203125,-0.6230998428195675,1.4957956885237216
5.3359375,0.14970784172185103,-0.03259751195827247
5.33984375,-0.6155986010772203,0.09199752742601225
5.34375,-0.03816587774300035,0.39303366458462496
5.34765625,0.05426586108525159,2.0244536362347008
5.3515625,1.5369508180961575,-1.3803021567594087
5.35546875,-1.162502669011122,1.5285343119571113
5.359375,0.5890635137220339,0.7447328016359942
5.36328125,-0.8424621344120624,0.313339053365785
5.3671875,0.36659841101459634,0.1661492101635595
5.37109375,-0.6126760085003324,1.446679313115195
5.375,1.21693425749148,-0.7739177083351588
5.37890625,-0.36228139093029765,-1.1804590470208687
5.3828125,0.5814362144773373,1.5533664854078628
5.38671875,-1.5889422579099268,-0.7106982016012888
5.390625,0.7585585557438961,0.07567001743466881
5.39453125,-1.4106078799445931,0.14647487713455198
5.3984375,0.15299417160046624,-0.23508668383892492
5.40234375,1.5301172166179544,0.7672894020824378
5.40625,-0.24237046647714247,1.269157629206916
5.41015625,0.4404405983393313,-0.04913348037677767
5.4140625,-0.6954570257228933,-1.32134708575696
5.41796875,1.2506167402233859,0.8917441932808452
5.421875,0.1299616289206166,-1.043522163810911
5.42578125,0.5377913658389317,-0.6928164092187853
5.4296875,-0.2813054836005314,-1.8341709273130267
5.43359375,-0.5832752385018446,0.706015250825636
5.4375,-0.6383198503463691,0.9101649253609927
5.44140625,2.2022828473687146,-0.23582410075389484
5.4453125,-1.6791120970434814,0.5319294207855847
5.44921875,-0.3182976630751614,0.8175956462781339
5.453125,0.6528283994962872,1.2123576680785604
5.45703125,-0.18743332955706135,-1.2284491830427533
5.4609375,-0.7822705219118644,1.2039938804250203
5.46484375,0.07104620741702944,2.9957092172572626
5.46875,-0.7764692218235026,1.0131778800112408
5.47265625,0.5559170007782847,-0.21434049074952397
5.4765625,-0.8512594401077499,0.27529021362970685
5.48046875,0.4979269919217163,0.48556699568339906
5.484375,-0.8188314386365318,-0.22759582418067342
5.48828125,0.15167333437770691,1.2424714192487691
5.4921875,1.0521080987085119,-0.35909839950091516
5.49609375,-0.6100341595970528,-0.5396019580097063
5.5,0.6748470190178864,-0.6782172147725563
5.50390625,-0.24515010095795053,-0.5761286076712605
5.5078125,-0.25585021196892244,0.33187447632358136
5.51171875,0.41601887708060226,-1.2768899545702688
5.515625,-0.14839453295399002,-0.0885788360044136
5.51953125,0.13185484188708768,-0.36758532703020963
5.5234375,-0.26750639308188706,-2.1508380598413797
5.52734375,0.7260803083523272,0.6900813286378312
5.53125,-2.407367157484754,-0.60036365022571
5.53515625,0.3836013004060938,0.5181045811539507
5.5390625,-0.7974782411587605,-0.8626835587234638
5.54296875,-0.008931953824203276,-0.45568189200184933
5.546875,0.9224759179926166,-1.3124056518154112
5.55078125,0.436274195633321,1.0888503060556671
5.5546875,-1.247826779998982,-0.33313878744744696
5.55859375,-0.04007506548813344,-0.7527464476312994
5.5625,0.823382825217597,0.9107360427194072
5.56640625,0.7725626103526122,-0.30738906406343
5.5703125,0.7958518900165046,0.8484414090717044
5.57421875,0.0018929695803627479,-0.3347240859210556
5.578125,0.27294955010921657,0.6805150908710962
5.58203125,-1.0212866565833258,0.03265338250446949
5.5859375,-0.3721895580552503,0.08894913320167563
5.58984375,-0.1933589553654819,-2.700416351492704
5.59375,0.29316993913418055,0.600232548783569
5.59765625,0.44154946551355156,1.3795335975386624
5.6015625,-0.13046060801096201,-0.7902076141148576
5.60546875,0.9147775037768759,-0.44949414657868
5.609375,-1.6151451291308327,-0.23267517550977812
5.61328125,1.5823939115691608,0.3832769991892197
5.6171875,-1.331520138906255,0.8024694025636326
5.62109375,0.027540967350862467,-0.8673779901529005
5.625,-0.9190081107610591,-0.5106006178932719
5.62890625,1.3372851143822173,-0.202625313506397
5.6328125,0.021757604213930963,-0.7463247877643219
5.63671875,-1.7372986437799647,2.000486809714827
5.640625,0.6118943712581195,1.54247509585092
5.64453125,-0.5258688899379432,0.3005192330869456
5.6484375,0.446817685315439,0.052353853817554835
5.65234375,-0.4944415104517533,0.46999033566872145
5.65625,0.5304463934961114,-0.15759663519867795
5.66015625,0.8988967459218229,-0.2941709222427821
5.6640625,-2.7319708246167895,-0.07913293164251195
5.66796875,-0.4029958639686992,0.7522221700779438
5.671875,0.7277602857605334,-0.37505690217113397
5.67578125,1.0867923969163853,0.1123922248453492
5.6796875,0.8440514229381153,0.4431847831310815
5.68359375,-1.4942624030790999,0.038852302065374884
5.6875,-0.5871846946605167,-0.0396154945687817
5.69140625,1.399853838609769,-0.37024855426792763
5.6953125,0.18270731035254628,0.369348203157283
5.69921875,0.8647669345222874,0.6501870803996641
5.703125,-1.2651401065271,-1.0324807623111758
5.70703125,-1.4966366921104446,-0.33146926863076814
5.7109375,0.17484643250023807,-0.3073867829538905
5.71484375,-0.1393079581400294,-0.9921443240914579
5.71875,1.1574087564910815,0.0005118130381965651
5.72265625,0.3442772540859003,-0.16034837722706705
5.7265625,1.0965739933337684,1.1636849544095238
5.73046875,0.31797811238255674,-0.8654775244967851
5.734375,-0.4625369671900323,0.005645652700571313
5.73828125,-1.2407335062579141,-2.614695993304549
5.7421875,-0.8942463212085352,0.1056272101007269
5.74609375,-0.9205855799937738,-1.1146944914931516
5.75,0.5142824184490001,-0.99541681021006
5.75390625,-0.27362265206962777,0.8287028965387448
5.7578125,0.7651194721731722,0.005123215875075064
5.76171875,2.574891750652773,0.8785393188833963
5.765625,-1.1002805197043282,1.108140090775781
5.76953125,-0.4118808137381728,-0.8170896539739749
5.7734375,0.472767146903595,-0.7103407325960717
5.77734375,-0.224146299105214,1.187615524236128
5.78125,0.5607205770853951,-1.3883252045388217
5.78515625,-0.82098186243717,0.6055092321460918
5.7890625,1.2166210241538609,0.6088031714601864
5.79296875,0.8784793212549245,-0.7550917956613598
5.796875,-0.9372758597505413,0.20471724318045184
5.80078125,-1.5508164436834484,-1.465850403999874
5.8046875,-1.1935656578966611,0.5927478225565254
5.80859375,-1.481106602344276,1.1263480116184175
5.8125,0.14986338282028236,0.1083680282546205
5.81640625,2.007632190995847,0.5516365109396092
5.8203125,0.12127990693299588,0.4673065142129139
5.82421875,1.6744069349425632,-0.5344833744843224
5.828125,-0.7287272743221416,-0.40713061155713653
5.83203125,0.8926395019967847,0.9944701131876567
5.8359375,-0.6969373578154598,-0.120929814661645
5.83984375,-0.8989360402791267,0.7454845595435248
5.84375,1.800379427791646,1.1246269450842592
5.84765625,1.528686238073565,-0.13672530863898782
5.8515625,1.8706220274458654,-1.5722480621707702
5.85546875,-0.19070188860208245,2.254116158054172
5.859375,-0.049429063642694546,-1.100963178932798
5.86328125,-0.3526855919789648,-2.270714412737686
5.8671875,0.46910174284715717,-0.8291793814567175
5.87109375,0.44614586170265624,-0.5140623595779868
5.875,1.1770317102981587,0.3579642801293576
5.87890625,-0.32473818790450615,0.7265771870170574
5.8828125,0.5911006400700378,1.5974895241855653
5.88671875,-0.2513178719704482,-0.40357514039557246
5.890625,0.8490252746314189,-0.577952946717867
5.89453125,0.09758238628642768,-0.6379377147597577
5.8984375,-0.713123597953537,1.7427170346413694
5.90234375,0.2228336558563786,0.3219769045009661
5.90625,-0.8368302128843156,-1.0593352305056492
5.91015625,0.7694346813158981,-0.07931027500973609
5.9140625,0.7493768919454874,-0.09526372341085822
5.91796875,0.9903634937013905,-0.011081256815169659
5.921875,0.6093410106589233,-1.6264710746950106
5.92578125,-0.7018866844297217,1.4513223313396106
5.9296875,-0.2992575767921358,1.048654552067117
5.93359375,0.8561290658214135,-0.32867895439205225
5.9375,0.7270562093551755,0.6772763114133584
5.94140625,-0.21202955953230238,0.4007943896561915
5.9453125,-0.027872104524118226,0.8980147488332996
5.94921875,-0.46867626730895373,-1.1411759741503782
5.953125,1.007193433340223,-0.8461053013149269
5.95703125,-0.40362318597413027,-1.5326366684413404
5.9609375,0.41261312427878327,0.04635954517120429
5.96484375,0.6261688617974309,-0.1759716602925843
5.96875,1.2549640732018452,0.847136421202383
5.97265625,-0.780985433770723,-0.9624818762295125
5.9765625,-0.5621387750411467,-1.6387016438382704
5.98046875,0.8495434147607492,0.37688704304990017
5.984375,0.7210717956254364,1.8744893042769355
5.98828125,1.4175365129542608,0.014230919375450297
5.9921875,-1.8338814211779613,0.4675465172631779
5.99609375,-0.6004915240034633,1.3804995405095466
6.0,0.37994560320394444,0.7931105316164048
6.00390625,-0.08185504074782864,-0.05580036450540703
6.0078125,1.2944038396417672,2.108228001996978
6.01171875,-0.1011301110073787,0.8868061635634741
6.015625,1.7042030193385824,1.6100390455316558
6.01953125,0.6424903860390085,-0.8032783486065769
6.0234375,-0.14240588447132274,-0.06935589430822502
6.02734375,0.4021807452478447,0.40320900597687537
6.03125,1.7995167510339627,-0.63079723249667
6.03515625,0.1266277341909248,-0.7785185195845794
6.0390625,-0.45012981217690634,-0.9846041415641795
6.04296875,-1.3531354887959546,1.2176619291083373
6.046875,-0.930670547490711,-0.8337611696293621
6.05078125,1.1212803500520838,0.21040136813550725
6.0546875,-0.061480864505650136,-0.9634848197074362
6.05859375,-3.2861223790925838,0.7674780690378801
6.0625,-0.2245451551107211,0.30447634931712797
6.06640625,1.4552801765571053,-0.035648760771498866
6.0703125,1.986012067467277,0.5246566304732675
6.07421875,0.7755890810722919,-1.0767707638428672
6.078125,1.4305385750532138,-0.5757868373051469
6.08203125,-0.48931736998303366,-1.7551848692127787
6.0859375,-0.6811437571023407,-0.004234306484384292
6.08984375,0.22352898485576403,-0.428061500727024
6.09375,-0.3673490975761971,0.34750921577656435
6.09765625,-0.8447128440255943,0.4732837851422134
6.1015625,0.0202013150269991,-0.10090882123893516
6.10546875,0.8642445193095516,-0.6390244446690023
6.109375,0.23650135986081153,0.34412797465924677
6.11328125,0.39687289318134394,1.7928661746150845
6.1171875,-0.4193992809184531,-1.488613617781164
6.12109375,1.491650328970906,-1.1485522926208591
6.125,-0.10056017815621099,-1.0508301006041902
6.12890625,1.9031616962042475,0.6947829939962866
6.1328125,-0.6003576272438899,-0.07798730354650066
6.13671875,0.12015651284935736,0.18270358458882902
6.140625,-0.7267648168328367,0.3452988634420498
6.14453125,1.9268904626796375,0.3175096573575924
6.1484375,-1.0907248907573754,-0.9969653158132855
6.15234375,-0.40843897798197004,2.134136328830516
6.15625,-0.07256893208891911,0.18436753032626532
6.16015625,1.299921452408077,0.2327802629076003
6.1640625,-1.176969711081839,0.2232470022204359
6.16796875,0.06502843998238349,-0.5235715869864669
6.171875,-0.36948481717368775,-0.32659093355171087
6.17578125,0.6165910226394131,-0.04930901001910504
6.1796875,-0.02534327460165798,-0.6359868172871612
6.18359375,1.758196301321601,-1.2934438411618796
6.1875,-0.18715549645097532,0.149477748447224
6.19140625,0.01189453075574438,1.8044936709921542
6.1953125,-1.9476932821087438,-0.10267059983827505
6.19921875,0.5520457058987579,-0.061312530696115426
6.203125,-1.1272932642112055,0.4856396508545717
6.20703125,0.43766233532093485,-0.815739902270728
6.2109375,-0.46606463880681864,-0.1778074351616634
6.21484375,-1.8354160525450796,-0.7493772964866668
6.21875,-0.6253927948887312,-1.3613813129624561
6.22265625,0.3551472797968749,0.8500376011622645
6.2265625,-0.46095832372653966,0.5289062931266909
6.23046875,0.8242187056876744,0.20837739186760024
6.234375,-0.1775557295221834,2.0742450147620155
6.23828125,-1.017434162117958,0.11002229371026791
6.2421875,-0.8825614923982654,0.32507055255677353
6.24609375,1.664141891198949,0.0865842038631519
6.25,0.6986487075120479,-0.05804052290133359
6.25390625,0.10613574876587341,-0.8014141481452509
6.2578125,1.5715761892783786,0.1484607870832971
6.26171875,-0.2801844126565734,-0.12431989456719006
6.265625,0.534489508927528,0.28295564016422864
6.26953125,-0.7949729112089297,-0.20871255546770387
6.2734375,0.2640448889205739,-1.0245747216266474
6.27734375,0.19608332770012465,-0.08690727576697553
6.28125,-1.4282516081508823,1.453964345203895
6.28515625,-1.0617282835423858,-1.355308670758742
6.2890625,0.42920683184523306,0.5819710270459106
6.29296875,-0.3837634001270802,-0.857453517531592
6.296875,0.28688711747846424,0.15914361520579348
6.30078125,0.6603655915747709,-0.8454248899908076
6.3046875,-0.7686632258329238,-0.012844422776619348
6.30859375,0.1384096685341603,1.3417175198871967
6.3125,0.3211290188252061,1.3419790870237958
6.31640625,-0.6412027055636851,-1.02181787552605
6.3203125,-0.7818533755412361,-0.20376429238854757
6.32421875,-0.08347420363005495,-0.9577681422544664
6.328125,-0.7607430760772289,0.4540029461392859
6.33203125,-0.13481124316159265,1.4060567681117153
6.3359375,1.1529418861069236,0.4328883566750749
6.33984375,1.4771674027073578,-0.3541691576752391
6.34375,-0.626475422209503,0.853624449633885
6.34765625,-1.3603637246389786,0.6537260200438696
6.3515625,-0.3059328962082656,-0.9541339027737168
6.35546875,1.293961399683284,0.5958726295268822
6.359375,-0.02157334896013577,1.80765098675294
6.36328125,-1.2164161354735017,-1.451344513477512
6.3671875,-0.8553473352250782,-0.2331421506163166
6.37109375,0.9011340964386471,-0.7056525096827664
6.375,1.2658320747261589,-1.7092199777088282
6.37890625,0.476204276433583,0.7593892036722556
6.3828125,-1.2036725503084422,-0.22071367115080265
6.38671875,1.5532488457769296,-0.2573490042198834
6.390625,-0.5390965230207194,-0.1019732173404741
6.39453125,0.5097488244289443,-1.026947401299244
6.3984375,-0.3580121845451868,-1.551185771808874
6.40234375,-0.4940251475651814,0.49994313598205964
6.40625,-1.2240772592011855,-1.171774886082219
6.41015625,-0.775382017673833,0.9018444179046159
6.4140625,0.7171710738463631,-0.5153562598468386
6.41796875,-1.4823879282502384,0.6886633202543578
6.421875,0.7097549390121217,0.15391411512209296
6.42578125,0.9391049569830042,-0.016924521931092174
6.4296875,-0.40429740189026425,-1.6699283107884604
6.43359375,-0.7649063219568364,-0.02688915775859263
6.4375,2.1386947020897,-0.9243673128009118
6.44140625,-0.38536011616607607,1.05706268281302
6.4453125,0.1097208419857582,-0.819506414735298
6.44921875,-0.8266825250792819,-0.5605255016756212
6.453125,0.4340465005318907,1.0137363360925826
6.45703125,0.4258208581688876,-0.5442173382404515
6.4609375,0.6772845555960711,-1.1412522848143627
6.46484375,-0.7288863349590056,0.2135343284559899
6.46875,1.1438497044916947,-1.2031636765055203
6.47265625,-0.6396293649854001,-1.4367742811252089
6.4765625,-0.6901993122777396,-0.14366572934710573
6.48046875,-0.7800746853540966,0.19765102480530877
6.484375,-0.12154092297572743,-1.2604195106424074
6.48828125,-1.572304410747149,0.27546313054414606
6.4921875,-0.03379292480200943,0.8934368261073975
6.49609375,1.3556629073397461,-0.3485908039459752
6.5,-0.0113791266901509,-0.11380945824431231
6.50390625,0.7012995285718798,0.9391224698744357
6.5078125,-0.0792199980423355,0.893373149882204
6.51171875,-0.5094683872181375,0.8395907174590664
6.515625,-1.0288411615290454,-1.141089569393311
6.51953125,0.5860404534705738,-2.0129640029459916
6.5234375,-0.35066195596498284,1.2145054896380016
6.52734375,-1.321344278707344,-1.1109025511022408
6.53125,1.6975491204338493,-0.4765595017117088
6.53515625,0.180439302954331,0.619504313872284
6.5390625,1.4110337344433879,-0.39141678953353715
6.54296875,-0.7912165885293873,-0.27545390305515394
6.546875,-0.8369900510028245,0.1492347373043404
6.55078125,1.1790000151589217,1.0698069519276596
6.5546875,-0.3756046932423721,0.6805204229368002
6.55859375,0.41875958902272725,0.7447888639283365
6.5625,0.41425896146456437,-1.265092440397735
6.56640625,0.33731260565951415,0.7838370192247531
6.5703125,-0.54146447035194,0.6337722886542185
6.57421875,-0.6448710034016614,0.0728683930672562
6.578125,-0.19143231561142637,0.10084795370464283
6.58203125,-1.1965982238867445,0.03740627578635344
6.5859375,-0.2983751523321341,0.5930704434010041
6.58984375,-0.1387210697586318,-0.37485611857419493
6.59375,-0.08152826516591044,-0.6953391070452172
6.59765625,0.7835416028463704,-0.4435166346102537
6.6015625,1.370079173494942,1.8139603570603053
6.60546875,-2.595905084238157,1.9250704588154208
6.609375,-1.8946738219476074,-0.2843876471681538
6.61328125,-1.2783396532528017,-0.6882586934614346
6.6171875,-0.08673100750628406,0.5168539798271142
6.62109375,-0.08663563196635121,1.075420194801139
6.625,-1.4207804047741444,-0.5367444581889487
6.62890625,-0.16195843204063962,-0.4330722165255631
6.6328125,0.209313644742957,0.011492748988532538
6.63671875,0.36038266715894723,0.39675720047830604
6.640625,-2.5661064240622546,0.5220541759598238
6.64453125,1.0334539868735473,0.27063682265932687
6.6484375,1.1245865326762623,0.601171763541061
6.65234375,-0.8613258610573526,-0.010018633785558765
6.65625,-0.44037156363283236,0.8286458145774839
6.66015625,-0.20711216630464552,-1.0378945923713465
6.6640625,0.2716812575091043,0.9881562410439784
6.66796875,0.6453296358365116,0.10456244445780272
6.671875,1.7859124030966786,0.7470012259917832
6.67578125,0.23281793854436267,2.146678914346654
6.6796875,1.421056770009712,1.6198761130049397
6.68359375,0.5930427065307701,-0.5920277328059704
6.6875,0.3328281014680081,0.4688155278909198
6.69140625,0.927889233586558,0.8903655130755896
6.6953125,1.007677606642191,1.1164333918879559
6.69921875,1.3309883623200287,-0.4349470480567577
6.703125,0.007515447515045266,-1.0583026203001902
6.70703125,-0.5692274741441079,-0.2529053716628594
6.7109375,1.491233651030383,-2.2750382114315113
6.71484375,0.07005853370353267,-1.021885704427586
6.71875,-1.0523434195980719,0.28111121229052355
6.72265625,-0.6371472591136276,1.119135729414049
6.7265625,0.09036230892639144,1.1648058847613167
6.73046875,0.43020962401353574,-0.47058076518460606
6.734375,0.03379560082010293,0.7511410532883663
6.73828125,0.7959728758941834,0.822927588484905
6.7421875,0.6971861803363733,1.9963534290955554
6.74609375,-0.04607105961911549,-0.048105352105092924
6.75,0.5037495960695613,-0.5123072036935462
6.75390625,-0.6580471952438185,-0.38534393397761146
6.7578125,1.0269973243789217,1.0407854408713342
6.76171875,-0.8552663204272439,-1.5261359649325346
6.765625,-0.17119131644125093,0.9398446852999673
6.76953125,-0.9901397936601266,-0.38176646505225553
6.7734375,1.1410906219431465,-0.28301575522115424
6.77734375,-0.22719199173373134,0.21347831660390215
6.78125,-0.695934145174874,1.3616686364822728
6.78515625,0.47179079313901234,1.4436616946646046
6.7890625,0.9642897164895323,1.0564385594693675
6.79296875,0.18595458095728967,-1.7547139294676393
6.796875,0.19896064738030791,-1.5616230478942252
6.80078125,0.06058733229983098,1.4128557353069124
6.8046875,-1.2718893748025928,0.7897529324190817
6.80859375,0.46081522749796777,-0.586723613072739
6.8125,1.193183537910497,0.5832213230876285
6.81640625,-0.7700671503823933,0.07133812698546334
6.8203125,-0.5383060279838349,0.19381164300233159
6.82421875,-0.8689388447651479,-0.2819683801381607
6.828125,0.6749717187032885,1.0993155759289979
6.83203125,1.178094389695145,-0.8921658500868912
6.8359375,-0.05321926398219809,-0.6440354557761443
6.83984375,-0.4796652572191378,-0.45759274710290937
6.84375,-0.06735156768598553,-1.1397849508675117
6.84765625,-0.41574739189678395,0.6331270659091177
6.8515625,0.44499973048156843,1.6502500482515696
6.85546875,2.0729149672076055,2.2353054145861715
6.859375,-0.09816906321548911,0.5691340543358941
6.86328125,-1.1418410520977764,-1.6168970292635059
6.8671875,0.5943044528839654,-1.1862071081129906
6.87109375,0.5226183099811376,0.05667243797582619
6.875,-1.2717872272637347,1.7074398103584312
6.87890625,-0.048206359888648444,0.5458875267233512
6.8828125,-1.0003954837315314,1.8318992851450278
6.88671875,1.0233619297232297,0.6488856568864306
6.890625,-0.4553279955304758,0.9423491378691778
6.89453125,-0.14411297086904445,0.46760387606511145
6.8984375,1.2948460474165453,-0.22739941665869004
6.90234375,0.73685169656749,2.4736749192375926
6.90625,-0.9015607929728683,0.6097873006830493
6.91015625,0.4522969392372095,1.3750651381528882
6.9140625,-0.7368129614406307,0.13236923830294728
6.91796875,-0.28043240098183586,-1.237948001008958
6.921875,-3.003531254882756,0.30980844663207685
6.92578125,0.5731056802461081,-1.7491909842973459
6.9296875,-0.4911873261971389,0.9887276869814506
6.93359375,-1.3325251359926593,1.591613096985176
6.9375,1.2182562051844092,-0.324971654839412
6.94140625,-1.0052709908858461,-1.5327828922723399
6.9453125,-1.0212319021219425,-1.1309373271320795
6.94921875,0.2518055248536161,-0.39005878242007497
6.953125,-0.01872137801943252,-2.2392297093564975
6.95703125,0.04332982034864332,0.5498229433369163
6.9609375,1.2822269448000647,-1.1043327083826464
6.96484375,0.01715336351811864,-1.6446458999876354
6.96875,0.16022304953998637,0.7643642473401955
6.97265625,0.32747744433081305,0.04846310966798189
6.9765625,0.08170054990058452,-0.63815156203681
6.98046875,-1.8515732917763086,0.5983816744079961
6.984375,-0.1576859665242882,-0.20793669961539551
6.98828125,-0.293761423152957,-0.2809158229673541
6.9921875,-0.33980385647094075,-0.6881854073984305
6.99609375,-1.0125621924759585,0.03126156247864613
7.0,-0.6678667949329883,-0.047446008683343394
7.00390625,1.7600521982151707,-0.06403566980158926
7.0078125,0.18187491259690622,-3.1309378326798947
7.01171875,-0.16915797737562263,-0.2553062836989587
7.015625,1.2866342548371859,0.8115496974511635
7.01953125,0.8584022707562261,1.7716975146494116
7.0234375,-0.05322621054450263,-0.5285728359242738
7.02734375,-1.0990007584957122,0.25603641344715944
7.03125,0.8392626317816759,0.11381007351374882
7.03515625,-0.7003541466045724,0.02040609424746131
7.0390625,0.2213386874197772,-0.63588185245837
7.04296875,-1.1563209045545972,-0.3135399417462208
7.046875,0.005382551930210505,-1.8635864086971095
7.05078125,0.05841461631809309,-1.0820578692252303
7.0546875,-0.6719770735490133,-0.6574215184114395
7.05859375,0.11152023706041816,-0.6715068403109911
7.0625,1.1112954644328907,-0.09418413712299889
7.06640625,0.2663885869106345,0.347806837549408
7.0703125,-2.5398087026521865,0.5945734827212763
7.07421875,-2.0857697839618816,0.6744934913853228
7.078125,-2.132801479291234,-0.6037306355202053
7.08203125,0.6511611736592202,0.8738701241580511
7.0859375,0.10996402645106364,-0.035728395807357725
7.08984375,0.47619412367157626,-0.8741018776839713
7.09375,-0.07890295239880545,-0.5903702169871716
7.09765625,-1.1801199118000238,0.5751563208622075
7.1015625,0.6070877199779153,0.29861713476787843
7.10546875,-2.1933126875631426,0.5465167807778768
7.109375,0.9017968518016571,0.003691133637857437
7.11328125,0.5945712817042834,-0.9145818856328626
7.1171875,0.6727384024291045,0.2304627404988267
7.12109375,0.6780961051731904,0.5451959566493737
7.125,0.5152526840598749,-0.3218400298900446
7.12890625,0.05226408527898032,-1.270776355735448
7.1328125,-0.37215805761908016,0.91767503947276
7.13671875,-0.26045527437230437,-0.37835288915546245
7.140625,0.6838024085120622,1.0134094734992647
7.14453125,-0.8194228894976918,-0.2961650269039992
7.1484375,-0.5813612581181661,-1.8500978403514579
7.15234375,0.9061113366279607,0.008697600488040837
7.15625,-0.3330922235902654,-1.6264023686194737
7.16015625,1.6181594590561847,-0.33782134012809195
7.1640625,0.2978925631397128,-0.3725073809284172
7.16796875,1.3611783950793719,1.5677178973755936
7.171875,-2.5225366990314604,1.0405011729340858
7.17578125,-0.7269097197207417,0.37213224113577575
7.1796875,0.13405128705499966,0.9939559886786017
7.18359375,-0.8269586088505781,-0.05006653430827173
7.1875,0.36995208131217033,0.3072071611813169
7.19140625,0.40628092033551017,0.16949508648384115
7.1953125,1.3790594046915057,-0.9455910720992536
7.19921875,0.36441058425781225,0.039485997891858166
7.203125,-0.022036237305133426,0.34428258434571274
7.20703125,0.5760685030776046,-0.9743220024522772
7.2109375,0.8025227563343316,1.2882778182356318
7.21484375,-0.8349648100888121,-0.22495785718947348
7.21875,-1.2803483399120408,-0.3419785376904935
7.22265625,0.48465569870943137,-1.8557365071990863
7.2265625,0.6526009402758061,0.37992239204277267
7.23046875,0.9972015867373268,-1.389432557139614
7.234375,-1.4755542280334588,0.45767631511623763
7.23828125,-0.7451130716791242,1.024359042766158
7.2421875,0.5451640293537022,1.7146573074424736
7.24609375,-1.598295290057967,-0.5676080103220454
7.25,-1.1825583332968268,0.217520061457764
7.25390625,-0.9165106266717447,0.10245670316874524
7.2578125,-1.1786897947508024,-0.5559922484968957
7.26171875,0.015269498247846108,1.1590855444681654
7.265625,0.13223844944037272,-0.8491075981519357
7.26953125,0.11780167044160492,1.526475967421913
7.2734375,-0.7033177449299243,-0.4364949924643433
7.27734375,2.1101651006866775,0.2856564507830226
7.28125,-1.665371597732366,1.083946659430751
7.28515625,0.33137548210171575,-0.2620509485528036
7.2890625,-0.8341586933449672,0.774083331403972
7.29296875,0.9803613978338511,0.6299949439018862
7.296875,-1.634372044728469,-0.8118157686117684
7.30078125,-1.060564681477147,0.13604337467844982
7.3046875,1.2031308370951734,-0.04743981621263993
7.30859375,-3.3469171760922563,-0.7764657471847756
7.3125,1.5686123999009374,-0.9143697688337282
7.31640625,-0.0937514207562976,1.419388490877812
7.3203125,0.7056173631968798,-0.4057144834916212
7.32421875,1.2639184521146294,-0.8551779955791454
7.328125,-1.068162270521614,1.6394491567528662
7.33203125,0.8012690019668689,1.7523917494123504
7.3359375,0.5282775788767442,0.1523081511855343
7.33984375,0.6439286840836433,-0.06242241456076785
7.34375,1.6680866474946463,-1.320130094811412
7.34765625,0.41988520288727676,2.047224986361176
7.3515625,1.5598167232070497,1.7953414947294952
7.35546875,0.1534888957779735,-0.35274331970842815
7.359375,1.4698667070278582,1.003814272520435
7.36328125,0.31555713629793514,-1.1055009514836105
7.3671875,-2.045991786208518,-1.1917830767401922
7.37109375,0.04533489161715949,0.9909267829742279
7.375,-2.2882367831939963,1.2428985317533823
7.37890625,0.8186484086517823,-1.7673877985794466
7.3828125,-0.32796989100050633,-0.11735224643893774
7.38671875,-1.033155022636055,0.6471311688131103
7.390625,0.6927082493034922,-0.9042110043245342
7.39453125,-0.7654224131635736,0.2470572634516178
7.3984375,-0.46160007372288364,1.0377500707445353
7.40234375,-0.09599017500972433,-0.36952100123712206
7.40625,1.8622517472903681,-0.4245563410580423
7.41015625,-0.7016404371632633,1.3291011307443112
7.4140625,-0.7773312873775478,-0.4639188253952191
7.41796875,1.1418665111832111,-1.4170957301686151
7.421875,1.598068583687063,-1.818996828419516
7.42578125,0.2714125383913437,-1.5345334455995474
7.4296875,-0.030991257846313052,1.4130443549340552
7.43359375,-1.257893285158782,-0.45899972537350625
7.4375,-0.7204006305851585,-0.5355334377666436
7.44140625,0.12034194682686707,-1.1061352097654131
7.4453125,0.4636333618038306,-1.1347493583208876
7.44921875,1.4666550301470431,0.05440244682478796
7.453125,-1.7375139740595047,0.6081420673884343
7.45703125,-0.9319555514567489,1.3367160945001348
7.4609375,0.725141953030373,-0.6341451342112037
7.46484375,1.6974028459498247,-0.28534681595239697
7.46875,0.1217383888292679,0.1313878259268034
7.47265625,-0.4591784087593847,0.20297984096861363
7.4765625,-0.7344907328409813,-1.4540609984423476
7.48046875,1.519440643672588,-0.7293494106880969
7.484375,-0.06063788354177163,1.3031753768739334
7.48828125,-1.1880422405494246,-1.2553664377050704
7.4921875,-2.0438417792342256,-0.6905414562307772
7.49609375,-1.8098458854389652,-2.1292348618530292
7.5,0.8833650500509144,1.3130597085822322
7.50390625,0.5897315690568653,-0.5450819645731609
7.5078125,0.625596544794672,-0.5939180295522544
7.51171875,-1.442625780770446,2.1889294846287957
7.515625,1.6771232221162682,-0.8760864190156332
7.51953125,-0.4529923749183266,-1.0064179906726427
7.5234375,-1.0939889500768705,1.073446924028773
7.52734375,1.26796069133397,0.16593136988037957
7.53125,1.3785120363300316,0.04294203208933776
7.53515625,-0.9737408589877425,0.4710112918713871
7.5390625,-1.124327287186387,-1.5621692978912196
7.54296875,0.7941873558172017,-1.9546430001638695
7.546875,-1.3260127301520803,-0.9197273914310607
7.55078125,-0.1288714152758137,0.13481991664981882
7.5546875,1.4167778795840291,0.5981131876025746
7.55859375,0.45655132898074086,1.4740904685517116
7.5625,-0.006193460705703904,-1.4447930251439793
7.56640625,-0.12210942886994332,-1.4379871267288293
7.5703125,-1.3489130251786534,1.0234449865917967
7.57421875,2.338568848505574,1.9587219853588635
7.578125,-0.5585247971858097,0.8323166293391463
7.58203125,-0.22874134534197763,-1.638768952377309
7.5859375,0.06215067009633404,-0.5093501883380565
7.58984375,-0.5784424730770392,1.2858410334006882
7.59375,2.14773557814102,-0.37969648572222536
7.59765625,-1.398399239942567,-0.032063113294137295
7.6015625,0.37858570762124016,-0.5983110573709183
7.60546875,-1.407300997900201,-0.4240199228979355
7.609375,0.19509972904437758,-1.3782245186298647
7.61328125,-0.8440178883700782,0.9031164816947532
7.6171875,-0.30124694280587233,0.7243443308761138
7.62109375,0.5393330033406913,1.6124161194740863
7.625,-0.7693538214202287,0.773910632747182
7.62890625,2.6211983764688087,1.3888270347843055
7.6328125,-0.8575657796779463,0.0542529304304924
7.63671875,0.42697385005115496,0.2969790159682531
7.640625,0.06619833433090773,0.8234398754205472
7.64453125,0.5105180235054241,-1.9901969650458988
7.6484375,0.4170564279194479,0.2857312017366869
7.65234375,0.21338298609888637,0.13543391106998093
7.65625,0.9330811341244165,0.7810676918245401
7.66015625,-1.3458471099104,1.0806943673253422
7.6640625,-0.9816169055973291,-0.17614068480705447
7.66796875,1.0006629917113166,-0.040237107017352884
7.671875,0.5347169617501203,0.8231376055695002
7.67578125,-0.009651020794672298,0.5316859483833738
7.6796875,0.4257233028567766,-0.35813670532987346
7.68359375,-0.14138518603858227,0.3636887990420504
7.6875,0.9607316666356139,-1.3757523084214938
7.69140625,2.117743961866216,0.1381490969692203
7.6953125,-1.177985262194464,1.3814768992181723
7.69921875,-0.06335499511774709,0.18227564156265988
7.703125,3.3709627452188045,-1.6028019839420427
7.70703125,-1.5416120244542646,0.4283605984298145
7.7109375,1.7023726212818455,-0.6074625836247498
7.71484375,-1.0582693487012922,0.3852221879247669
7.71875,0.8172070127600579,0.43435667529589234
7.72265625,-0.40756515119815456,-1.3673673714417702
7.7265625,0.15893520229699512,1.0404664401653962
7.73046875,0.02483927572158725,0.9230091050628515
7.734375,-1.0437211557256267,0.452263604457296
7.73828125,0.3402461676221729,0.0955816327765972
7.7421875,-0.8708773894566417,-0.41326182176351495
7.74609375,-0.5756016485776305,0.47662320437906375
7.75,0.9818241951594766,-0.8731699042929145
7.75390625,0.12927608308111693,0.7190433380487672
7.7578125,0.3376830727242373,0.8202888669794461
7.76171875,0.999503057692799,-0.6298855715774377
7.765625,0.16165436579817574,-1.79452316703829
7.76953125,-1.2085885256791622,-1.1994854129473682
7.7734375,-0.7928582207219832,0.014815797051492646
7.77734375,2.8505996118599937,0.5110950199509217
7.78125,-1.144198640533578,0.004810647203046105
7.78515625,-1.9270256504727867,-0.41671609263277004
7.7890625,-0.8397022591489365,-0.11588282126245557
7.79296875,0.5421575878469361,1.1187617038862445
7.796875,-0.9814851229167967,-1.0907699723288813
7.80078125,-0.8852957567795234,-0.23794510634712757
7.8046875,0.21358256543939438,-0.25771838183538054
7.80859375,-0.14302086958241203,-0.48695998519114414
7.8125,2.2300595434697215,0.9201217043816069
7.81640625,-1.4111964138068536,0.6293590896462968
7.8203125,-0.777718287550018,0.14443717827516225
7.82421875,1.0258459360332008,0.5838102058842934
7.828125,0.7318313247840442,1.7087632012524205
7.83203125,-1.0166928880922441,-1.1155437883320831
7.8359375,0.4843122321919426,-1.0204464285679116
7.83984375,-0.6079983486044847,-0.01683246045512964
7.84375,1.1335882912052968,0.4998781128372677
7.84765625,-0.45813537694766,-0.7963002762858042
7.8515625,-0.717873198647864,0.04201918142195581
7.85546875,-0.47371678274517065,1.450921690643635
7.859375,-1.1061651882907648,1.2246031286096406
7.86328125,1.1193600640537253,-1.240797143487414
7.8671875,-1.3013466884821765,0.06409681185279545
7.87109375,1.6985907161767286,-0.8868991994537535
7.875,-0.8454296788512305,-1.6148737255104992
7.87890625,0.6177662781788336,0.09479796920233581
7.8828125,1.070814279619994,-0.35821501445783416
7.88671875,0.16746150069780147,1.6076757594603064
7.890625,0.6082939173220369,0.22013937522004667
7.89453125,0.39398954786256213,0.996225937353144
7.8984375,0.36332891787518096,0.9687385817150986
7.90234375,-1.9033891864950678,0.7248257593696729
7.90625,0.11486708813227915,0.475907625480501
7.91015625,0.4005463897315131,0.5847576829919088
7.9140625,0.685524919430698,0.8603101910187179
7.91796875,0.5472231038636698,0.4401193196656254
7.921875,-0.33165515059802836,-0.4737171134943842
7.92578125,-0.6043830887123,-0.8916934052829116
7.9296875,-0.6806607433208574,0.6946693152849523
7.93359375,0.571187664279531,-0.2496793130424151
7.9375,-0.9452646763471172,0.2801325967266215
7.94140625,1.5597273559003622,0.04060434454234266
7.9453125,-0.21345191867946234,-0.7469485194323103
7.94921875,-0.8081156619309839,-0.16324500405949705
7.953125,-1.786227170247084,0.8038672395948365
7.95703125,-1.9029788957040132,-0.6686113190975578
7.9609375,1.4516516212337005,1.6863165648839173
7.96484375,-0.7565503430498383,-0.29002350974115226
7.96875,-0.9153399130711893,-0.0789529607019033
7.97265625,-0.23809368799590983,1.6277148758480693
7.9765625,-0.8224043246258798,-1.860362690361648
7.98046875,-0.308648703030474,-1.145011003204894
7.984375,-0.8516037770984811,0.6254333985424886
7.98828125,-0.9169521801170484,0.16576309440622713
7.9921875,-0.688734537022678,1.1137519315674187
7.99609375,0.5955558341380108,-1.0620820902407135
8.0,-1.7152387605399972,-1.3926856941494787
8.00390625,-0.7938197941594095,-0.32949512792577884
8.0078125,0.7335836582985874,-0.0683326237013426
8.01171875,-0.45236933812975383,-1.467028061527897
8.015625,-0.5448586261064531,0.9164008415700893
8.01953125,1.0225948396916,-0.8769772048058063
8.0234375,-1.1281469031093916,0.9090398742787358
8.02734375,1.566267456322036,-0.03400408110748012
8.03125,1.8139517121972861,1.2385409730429637
8.03515625,-0.24031018686596878,-1.5991127189665255
8.0390625,-0.18273113456837894,0.5403323588435394
8.04296875,-0.05004719369039245,-0.361746670071769
8.046875,-0.5413573814384555,2.5250615855633898
8.05078125,-1.1155867814378204,-0.3904061659740439
8.0546875,0.4355122228356701,-0.8146138987143128
8.05859375,-0.13534031893106047,-0.19575610164199495
8.0625,-0.8426711638156188,1.09693150896835
8.06640625,0.03591334738790207,0.3925149275102747
8.0703125,-0.8922586651974713,-1.0915916621079116
8.07421875,-0.604782894048276,1.28719077470586
8.078125,0.46644320690569047,0.21873836877268568
8.08203125,0.3371261831450433,0.11920590944655175
8.0859375,-0.7380393250605737,-0.5792365991840502
8.08984375,-0.47221488323636973,-0.07809333578594657
8.09375,-0.07212569489293168,0.8129178758223913
8.09765625,1.0193195523446201,0.7533471691103995
8.1015625,-0.11932461423406533,-0.510222322243498
8.10546875,0.6132815829781049,0.3484737654269573
8.109375,-1.56534175515974,-0.20045364371739097
8.11328125,0.060955615214600724,0.4360262962849548
8.1171875,0.13763631067168527,1.9950953016905817
8.12109375,-1.0034240742790959,0.5749055606660971
8.125,-1.0450556500933994,-1.1183682109584299
8.12890625,-0.6611742684209948,0.3272869553901936
8.1328125,-0.07168694013568779,-0.24104252657839362
8.13671875,2.7265167137986315,-0.011742962731795958
8.140625,-1.1808464149979603,1.1154795924842713
8.14453125,0.8026932211838742,-0.10951267712927353
8.1484375,-0.13570912975553848,-1.2025303767747428
8.15234375,0.0007518969701793475,0.7731089117526172
8.15625,-0.655803237163226,0.6666991574647524
8.16015625,-0.19666404235756213,-1.9104079748626632
8.1640625,-0.6493961603014927,1.3130751635676854
8.16796875,0.4889309030120871,0.05023380889848356
8.171875,0.8683348088276854,0.8460334166360868
8.17578125,-0.6778802362955525,-0.7976115473610264
8.1796875,-1.9235333406130917,1.6926603328788878
8.18359375,-0.5490851432400748,-1.5553167497693605
8.1875,-1.6877035809999514,-0.31971177509990867
8.19140625,1.9701546406468444,0.6971200197713603
8.1953125,1.5335088211745134,1.0751839340534515
8.19921875,0.39894149136767487,0.5750084234388023
8.203125,-0.9000116957728491,-0.6700107896493546
8.20703125,0.5488758471464025,1.7225580390488509
8.2109375,0.5850548023434082,-0.23638654666459863
8.21484375,-0.7850096264504025,-1.5570774195150476
8.21875,0.21906043548928075,-0.9478081383564658
8.22265625,-0.3649964339129379,-0.8931325832354422
8.2265625,0.2563124673712369,0.8895906733189048
8.23046875,-1.1099717560743387,0.07529820109999587
8.234375,0.8701111246850911,0.47332454099875915
8.23828125,0.21288020456147388,-1.8656162489888237
8.2421875,0.4651520665086939,-0.9067164286549301
8.24609375,-0.95625058017026,0.9309589989355651
8.25,1.1200798829563288,-0.5701421181310411
8.25390625,-1.3216006103454674,1.4762106230876801
8.2578125,0.5444875657946903,0.5526530109393998
8.26171875,-1.4461936994950393,-1.1070567132858657
8.265625,2.103428599820082,1.8638658213982686
8.26953125,0.21501038209093967,-0.1776388639325163
8.2734375,0.1536068087123088,0.6834159757086699
8.27734375,1.705508288410734,0.0261658906347305
8.28125,-0.2634410823287685,-0.532541051742975
8.28515625,-0.34193948209479785,0.475279717404659
8.2890625,-1.1446320885921626,0.6319350260183967
8.29296875,0.11700837040618173,-0.6709033940978147
8.296875,0.5529741565221598,-0.5962218255460836
8.30078125,-1.8819595467517702,-0.38157744383333053
8.3046875,0.32574421360030736,-0.6085438834926903
8.30859375,-0.8212004809010374,0.3624009792706267
8.3125,-1.5080664110770967,-1.0043056937682444
8.31640625,-0.1947723713850653,-0.4069068427122816
8.3203125,1.8290933553185382,-1.0990250536169144
8.32421875,1.001220924208514,1.5300431114136508
8.328125,-1.7452594897817273,-1.1645233596850113
8.33203125,0.8572495623226447,-0.37863527868788943
8.3359375,-1.7860360016164278,1.746761058297838
8.33984375,-1.2647164424980626,-0.337281745790959
8.34375,-0.1956417720763352,-0.9538715204345013
8.34765625,0.07398876747126926,-0.06361901066439334
8.3515625,1.2530353395314893,-1.9791718499369801
8.35546875,0.011040890515437248,-0.9849798377465689
8.359375,-1.6224588322357743,0.5731848577915347
8.36328125,-1.4325316073344803,-0.051238823892985313
8.3671875,-0.20703988242905283,0.47505031726364033
8.37109375,0.8909506838994038,0.6735711744915966
8.375,-0.5696772661575973,-0.5134290398044791
8.37890625,-0.5603334821812107,0.7702879806854804
8.3828125,0.6959447258599705,-0.9561300528086434
8.38671875,1.560137043328511,-0.9239101345259848
8.390625,0.910827116236802,-0.16063961718162742
8.39453125,0.44149640852590627,0.700813202937748
8.3984375,-0.9151543366837276,1.464602353020525
8.40234375,0.34948800340188424,0.2037874858121391
8.40625,2.261763376114552,1.8665561185725552
8.41015625,1.9856529672300904,0.15241185474494673
8.4140625,-0.4826153348349927,-0.6422473255858488
8.41796875,-1.0675459096414799,-1.6707182616153697
8.421875,-0.8183575388914777,2.001237501036994
8.42578125,0.15332977876810316,0.7971837374289253
8.4296875,-0.2758195760630825,-1.5326604423297812
8.43359375,0.8163165703487929,1.3214849173968974
8.4375,0.8344472123807272,0.3060831628676805
8.44140625,-0.7047091803378502,-0.42047656367233205
8.4453125,0.24368034136546884,-0.8510118387760675
8.44921875,0.024608625955181308,-0.40278824483123893
8.453125,-0.03849078599587597,0.6059775867992716
8.45703125,1.7625356347337775,1.6879863411996663
8.4609375,0.7784013735333754,-2.428410584181849
8.46484375,-0.7004472630359301,1.5116346565916505
8.46875,-0.6290848174533125,1.1561762520501249
8.47265625,0.9463546686393716,1.8097852203522136
8.4765625,-2.5261271762489907,0.7769646501221528
8.48046875,0.1610404797748577,-0.5416098649691191
8.484375,0.9337776250884369,0.060187596987489086
8.48828125,-0.5608498033223961,0.6266961969404574
8.4921875,0.2564076363328319,0.47315487886877633
8.49609375,-1.166784926954541,0.9733710644161173
8.5,0.07626649859360002,-0.7369361264904135
8.50390625,0.48416979405500377,-0.5821916020573308
8.5078125,0.3970077909458728,-0.505212698308177
8.51171875,1.2292709704675562,0.8454669449916083
8.515625,-1.1774446678288444,0.30482131710815935
8.51953125,-0.5626544015793852,0.4032096415215014
8.5234375,1.5220545634633285,-0.7756451014886105
8.52734375,-0.32341699202185953,-0.7028661839567433
8.53125,-0.9316421420428311,-0.09185309943352886
8.53515625,-0.5087417619713257,0.06306994423930351
8.5390625,0.9394891345942864,0.13150186776897396
8.54296875,-0.8896712786568891,-0.28161443364428534
8.546875,0.40659305182061073,-0.6503906197185707
8.55078125,0.2022423973280618,-0.3117902407289262
8.5546875,-0.5889238192138682,0.9212406281439481
8.55859375,-1.1749465067354723,-0.27582101200912773
8.5625,0.07244633475989296,-0.8860855880710286
8.56640625,0.5763699265140616,-0.7863190683443079
8.5703125,-1.1529259634278064,-0.5074735573582414
8.57421875,-0.8748142562883905,-1.6308547014443744
8.578125,0.8611600267045649,0.9251162732654764
8.58203125,-0.43473196598863656,0.586733765756666
8.5859375,0.582543521059343,-0.7147420874256875
8.58984375,0.5605227400402619,-1.006886609604242
8.59375,-0.7023607197203544,0.7859509210973219
8.59765625,0.778742882239104,1.3135859454765435
8.6015625,0.7273747117920014,-0.036847567035854976
8.60546875,-0.12842891080805624,1.367533990210854
8.609375,0.04515910456418915,0.9900661937429622
8.61328125,-0.14294000133797527,-0.31950283094442394
8.6171875,-0.4851604855425806,1.6063535913944536
8.62109375,1.3026089278694828,0.3435625194680658
8.625,-0.9721848984206051,-0.08138976205580137
8.62890625,0.5268354157708343,-0.8131132943658252
8.6328125,1.5817684176050923,-0.9547656998402898
8.63671875,0.5861952773459435,1.98466559086098
8.640625,-1.5966353208410722,-0.9147189162395715
8.64453125,0.8304774236117624,0.558729726300818
8.6484375,-0.9444511701253205,-0.35897284252318623
8.65234375,0.057912097534581757,-1.5764260632144493
8.65625,1.2364435253485977,-0.03214995090752472
8.66015625,0.6853430696448982,-0.03858236450342535
8.6640625,-0.30016931265591806,1.5048359181488984
8.66796875,1.4560653440464928,-2.5207392801732116
8.671875,-0.7036515509001556,0.9831263931414871
8.67578125,0.49658896820298676,0.12090555238083595
8.6796875,0.7923864379162746,0.7286419663570712
8.68359375,-0.09104088775389747,0.6866285939593763
8.6875,-0.5749911883708629,-0.1503725280720733
8.69140625,0.9819214745970847,-1.1140218630379317
8.6953125,-1.6083905521436663,-1.1445166363470693
8.69921875,-0.02024166575082802,0.9677561019416001
8.703125,-0.0801655984405103,1.9673936545976243
8.70703125,-1.1424292012649133,0.29247260702560207
8.7109375,-0.1714351625221422,-1.6163745589978475
8.71484375,-1.9448591529585721,-0.06827766917177579
8.71875,1.5189925741704586,1.9508099037613233
8.72265625,-1.0291919635510778,-1.9854220344107747
8.7265625,-0.026644045866967097,-1.1882769993253859
8.73046875,1.167226961915455,-2.5197029211206328
8.734375,-1.7695247463379573,-2.0750097981798263
8.73828125,0.511543003018968,0.6388676753496807
8.7421875,-0.8200518089808357,-0.39789849918704073
8.74609375,1.238534453961687,-0.370230438321354
8.75,1.3463080058257548,0.05759267644878815
8.75390625,1.424103828949362,-0.8755032334298882
8.7578125,2.5379674400381664,-0.43566748744321476
8.76171875,-1.324330273261887,1.5287009315549045
8.765625,0.03217530231553493,-0.6872302565285796
8.76953125,-1.0902910078831358,-0.08183611221957823
8.7734375,0.8182018577610813,1.16245040170191
8.77734375,-1.5812991879969847,0.5332774481313823
8.78125,-2.7604541547517787,-0.8572479350355227
8.78515625,0.8021292971625014,-0.8202165846680098
8.7890625,0.3608076584005728,1.399080598640455
8.79296875,-1.3170180246922447,-0.0536556809563369
8.796875,-0.39380960558427375,0.7472418369005133
8.80078125,-0.9081312296686357,-0.5492124504291777
8.8046875,-0.914902593967728,-1.2926830987634819
8.80859375,-0.38220148590375075,-0.529801835090894
8.8125,-0.11232666414216264,0.1725110504943538
8.81640625,-1.802794969634958,-0.5411687060066308
8.8203125,0.535732550960645,0.38508901382834315
8.82421875,-0.09096031096054141,-0.5955077214871441
8.828125,-0.8332378578544838,0.23138584615209123
8.83203125,0.6334858942378067,1.0583169281113136
8.8359375,0.8820101306561452,0.4974693670458158
8.83984375,-0.1670706006614176,-0.4865414405525578
8.84375,-0.26774222972924766,1.6960727881576338
8.84765625,0.7973682949707737,2.3112339194893177
8.8515625,-0.43986913478117123,-2.0155854782209746
8.85546875,1.4051601244200658,0.1834965187627693
8.859375,0.21897267073145968,-0.9010893427216107
8.86328125,-1.3659166237928841,-0.1260760344759356
8.8671875,-1.2101662576240233,1.1904319306383022
8.87109375,0.8564715485364521,0.8675789619202109
8.875,-0.08728555744222889,1.1527066693558856
8.87890625,-0.5201451004044858,1.5517695104142462
8.8828125,1.4777013723022048,0.581703660154591
8.88671875,1.5181441393709834,1.1316720352647498
8.890625,-0.9906392534104874,0.8691378597605292
8.89453125,-0.7644323871459192,0.18219543800724494
8.8984375,-0.7437489578032532,-0.9780923147395805
8.90234375,2.5236762021831254,0.5081864637528155
8.90625,-0.49236024753293817,0.8200194031155821
8.91015625,-0.22927251055859374,0.9388499068606608
8.9140625,1.432385403674019,0.30167507176974095
8.91796875,-0.07168138191090682,1.1781614685350368
8.921875,-0.2104305753588578,-1.118436925281968
8.92578125,-1.7869708460693043,-0.8749622888597024
8.9296875,0.4889079025982522,-0.5197174282506556
8.93359375,-0.09432387645747871,0.09507740259351907
8.9375,-1.5215341839179861,0.8050884883669611
8.94140625,0.6860498073498347,-1.5304147429312014
8.9453125,-0.4638541471954608,-1.7114739928843392
8.94921875,0.6658661425574178,0.7037818881185678
8.953125,0.20305304822363424,-0.859089334592537
8.95703125,-2.7945335910523625,0.7319419789477107
8.9609375,0.45991399922369175,0.33426207223966337
8.96484375,0.02014546816604826,0.7202247787461855
8.96875,2.0716260997690625,1.236350517975096
8.97265625,-1.1169070441466438,-0.054941709907941026
8.9765625,0.8398636464449367,-0.780790105608304
8.98046875,1.3252566095131515,-1.3454953231758378
8.984375,0.30258641795884944,0.5522643801938395
8.98828125,-0.6405375509348048,0.010131479754591924
8.9921875,1.152007809526877,0.7679589190449162
8.99609375,2.4796940928435647,-0.18692076549571296
9.0,0.23728498999126327,0.7906506274167833
9.00390625,0.6234157016008073,0.11568968216149252
9.0078125,-2.4954138582160987,-1.0295654535850884
9.01171875,-0.372279396861092,1.9301736749989105
9.015625,0.6498281756537427,-0.6409987374684429
9.01953125,-0.06905097029729078,-0.8377955372943776
9.0234375,-0.23625705000761213,0.798513124355309
9.02734375,-0.09276587463625634,0.5502231247847696
9.03125,-1.2621452320346074,-0.32431466941870074
9.03515625,-0.051085384700353224,-2.1508947253566566
9.0390625,-0.37366550680883903,0.8854934950168257
9.04296875,-1.9954622656789456,0.0838579625491027
9.046875,-1.6792252904023794,-1.6795638655646365
9.05078125,-1.597631717262059,1.0502654367473743
9.0546875,0.4662064165512454,0.8407481196965685
9.05859375,-1.2220159672015072,-0.31470231850729086
9.0625,0.6155482653498224,-0.828902303658131
9.06640625,1.6509007146151018,-1.9410282012700468
9.0703125,-2.5916075321720733,-0.047395158575906184
9.07421875,-1.2608093453956228,0.5766047098679907
9.078125,-0.5677042160424499,-0.586491346329334
9.08203125,-0.4825254819902602,0.4378223367461235
9.0859375,1.461961822592579,0.9342246818103608
9.08984375,0.8906964856870783,0.2843226628903079
9.09375,-1.5187598531938422,0.1293723073086762
9.09765625,-1.103025927617414,-0.05100432769112216
9.1015625,0.41551518046042885,0.7250127357259867
9.10546875,-1.2449963017198826,-0.4119684982459876
9.109375,0.44372017543395553,1.0213266779933232
9.11328125,-0.20450917171310223,-0.22643617200225966
9.1171875,0.7403532004070326,0.1502565491547307
9.12109375,-0.7056332125709439,-0.04690276773725556
9.125,-0.5967695404855091,0.18628067941209697
9.12890625,0.5586222570758175,0.44591625456476974
9.1328125,0.22517524157518362,1.1099052170836279
9.13671875,-0.10252489900028267,-0.2326207396672425
9.140625,1.0532342509407213,0.4897517755622277
9.14453125,-1.3176756766244975,-0.3859110531945662
9.1484375,-0.03606743973040946,-1.7875058144184415
9.15234375,0.8303803066183847,-0.5478674909467369
9.15625,0.4411982128270045,1.2608187697170927
9.16015625,0.6198434140472315,-0.5850952079031774
9.1640625,0.09125030128711314,0.6094826699672415
9.16796875,0.570526183428294,-0.3443654197443146
9.171875,1.0235458650666762,-1.694624622265027
9.17578125,0.026522852006768828,-0.05749860219631336
9.1796875,0.9601221532544978,1.0597653237790485
9.18359375,-0.7725846584728855,1.9594439987126522
9.1875,-1.7047566057462857,-0.4862850527168559
9.19140625,1.7523211710354634,-0.3811334997196878
9.1953125,-0.19393047536126087,-0.21079513210057466
9.19921875,-1.0843546816799452,1.0946156086012153
9.203125,-0.6593807881686939,-0.009175289279641057
9.20703125,0.5145178315739963,1.054321732313307
9.2109375,-0.09866846909597267,-0.1490716821931603
9.21484375,0.15540140243758171,-0.3224446578438636
9.21875,0.6815964220966958,0.565772921229415
9.22265625,-1.187544868183515,0.005602192506586436
9.2265625,0.0926317902752455,1.281745363917201
9.23046875,0.17652504050724152,0.26453507964895234
9.234375,-0.7577796869083581,0.3227358193615261
9.23828125,0.6300352740392451,1.0688585480450612
9.2421875,-0.3798135804056104,-0.8999657515587842
9.24609375,0.19692296047169447,0.4887064250145125
9.25,-0.052941551899088155,-1.0006986970490326
9.25390625,0.06713524996019823,0.9431496501778872
9.2578125,-1.204456955212093,-1.3135382072202482
9.26171875,1.602899424707011,0.17321332918621135
9.265625,1.0962818301945323,-1.3669856080007674
9.26953125,-0.5631827233191886,0.07155910041811915
9.2734375,-0.14550962607049514,-0.9571774333187346
9.27734375,1.0270910764031767,0.4349991824483362
9.28125,1.2215903560988175,0.07422274028496989
9.28515625,-1.1706845873436929,1.5383268328831285
9.2890625,0.32072086263686794,0.11629553199307345
9.29296875,1.0500896318591935,0.12606161312220465
9.296875,0.11075443752156991,0.8305680874758642
9.30078125,1.3973716140858012,1.5293102242076806
9.3046875,0.8394498014671975,1.7157089342129936
9.30859375,-0.19656099070257568,0.5248886438721491
9.3125,0.8781937567263339,0.8092647287684809
9.31640625,1.4856409978603247,-0.15565919660648458
9.3203125,-0.29626138854474726,1.0321980760030491
9.32421875,-1.078267904560823,-0.8714366600925892
9.328125,-1.0745607003664417,1.643381854831422
9.33203125,1.716554221165125,1.9683082962587415
9.3359375,-0.5168577018638683,0.1965186334349687
9.33984375,-1.6065004909942031,0.16668614706269327
9.34375,-0.7565194251546896,-0.804074793609909
9.34765625,0.035777375002029634,-0.9421131741748703
9.3515625,-1.797085136732054,-0.38924528616694337
9.35546875,0.09401025231539267,0.41642267699599383
9.359375,-0.6409056761945529,0.9777037360639687
9.36328125,0.18003387130083973,1.9287140669780691
9.3671875,-0.1128831282589844,-1.261186952715239
9.37109375,-1.7253138558534218,0.2314590899822873
9.375,1.8136514704720565,-0.18201849267491244
9.37890625,-1.3832225132831615,-1.329491726517717
9.3828125,0.45717114457357394,0.673672318398456
9.38671875,-0.9824510150847552,1.1000130811026751
9.390625,2.7886190632891865,0.828160279577824
9.39453125,1.8191628578253394,-1.3786910490555229
9.3984375,0.6333967613544886,-1.0809040478310827
9.40234375,-0.8236831340362147,0.1478260154251577
9.40625,-1.219325069053636,-0.7788273151708713
9.41015625,1.3617311592454202,0.4029317666891011
9.4140625,1.1328805932128987,1.2744912346240935
9.41796875,1.1712610478110594,-0.441153215993071
9.421875,0.510651245049141,-0.33598537306212495
9.42578125,1.4610608648130443,1.9417030758922507
9.4296875,-1.3503810674621446,0.7350798796784642
9.43359375,-0.12644271064864393,-0.2937905710915499
9.4375,-0.39876190696737,-1.5996276826602853
9.44140625,-0.42257613586742804,-0.9819556198710474
9.4453125,1.471414222412013,0.3433255086510231
9.44921875,0.25089833183047805,1.366442176996621
9.453125,-0.10746151298853344,1.5212101143379022
9.45703125,0.34518493833951697,0.3751521874735693
9.4609375,-0.5215002493919566,-0.47895534484527824
9.46484375,-0.9188417093377023,-0.3040809690309511
9.46875,-1.5178126259834197,1.33950304791514
9.47265625,-0.5633510458881649,-1.78357928682527
9.4765625,0.5506116956931865,-0.4797755608995618
9.48046875,-0.10652389267016156,1.0744443111244149
9.484375,0.9506951204314917,0.8817783620423185
9.48828125,0.24569699273852366,0.08563260535376985
9.4921875,0.03662015714740365,-0.8744292143098269
9.49609375,-0.29956495996849636,0.20851730820076717
9.5,2.1531453700098564,-0.7301655595144746
9.50390625,-0.8774553019988911,0.13857753722910576
9.5078125,0.6713390554316822,-2.6358005620985323
