time,ecg,ppg
0.0,1.296762185098644,2.9662891342443585
0.00390625,-1.3553444312591718,-0.10793272990022469
0.0078125,0.3445621864008896,-0.27612616210392843
0.01171875,0.38323793906100406,-0.4905788480020599
0.015625,-0.4130710982501184,-1.8960498787734796
0.01953125,1.4862392205505701,1.349113003455972
0.0234375,-0.7342317243611493,0.7714558884912553
0.02734375,-0.24907799235738115,-0.8638651140021881
0.03125,-1.0800834017223686,1.7698791580876727
0.03515625,1.5131312081488086,-0.22258031339044967
0.0390625,0.9011479150531752,0.4408134054427441
0.04296875,1.526460922866206,0.81488730700309
0.046875,2.1874559961868045,0.5302951849389811
0.05078125,0.35602168270271883,0.21636575610922837
0.0546875,-0.7423109430621557,-1.2463412910953415
0.05859375,0.6443880435941088,0.4471421897054577
0.0625,-1.7360010560729455,0.3208072646481341
0.06640625,0.4116338842811562,0.5437288749392422
0.0703125,-0.414303979710827,-0.8406221582762857
0.07421875,-0.8277286138310567,-1.3892356940541646
0.078125,0.2861725773516568,1.551690721306136
0.08203125,0.38887346090795183,0.8380947516009081
0.0859375,1.4938726364557682,1.1817442124563156
0.08984375,1.6069907754931498,-0.3567143152898292
0.09375,0.07367152272344461,1.3141357428378309
0.09765625,0.9036098954421563,1.2054655856581522
0.1015625,-0.8808042041383812,-0.12222035644801206
0.10546875,0.5130124645753956,-1.7345565602602977
0.109375,0.653347120148731,1.3001261760056746
0.11328125,-0.9137323406136416,0.02739873996521406
0.1171875,-0.5545172910506981,-1.3402971099890806
0.12109375,1.5039929333668602,1.848603352225049
0.125,0.04263079912476563,0.2639893662810637
0.12890625,0.1891882643059178,2.285494589847603
0.1328125,2.0233875908389565,-0.6097279221856763
0.13671875,-0.11586218663792802,1.0692900865285173
0.140625,-2.387749691249796,-0.006272742700913522
0.14453125,0.1725373112023535,0.01959109338440079
0.1484375,0.11248350681068393,-1.6470874188221685
0.15234375,-0.9423518313550562,0.05112404299345551
0.15625,0.7590914247983566,-0.8237427639276234
0.16015625,0.2965932638887705,1.0144478467063673
0.1640625,-0.13996497686240847,-0.8467226932639544
0.16796875,0.46035780369663587,-0.7705953272128203
0.171875,-0.8509738581447934,0.8913794122380724
0.17578125,-1.0452685086946552,-1.5857458907817161
0.1796875,0.33723213435930804,1.4508586902442706
0.18359375,0.7925591384470744,0.6179782780692124
0.1875,1.4022527547831976,0.5362081217898012
0.19140625,-1.0310187998767122,0.3192094163156181
0.1953125,0.7922227023098014,1.499468797409051
0.19921875,0.9979775083244946,-0.060947709140492114
0.203125,0.40318641890067314,-1.3972941118231486
0.20703125,1.0020668474602197,-0.9527146905790688
0.2109375,2.9368208705278684,0.7110686778235472
0.21484375,-0.6819041921134766,0.5836071522202666
0.21875,0.8516458399394121,-1.2920730575826211
0.22265625,0.5129437405156738,0.22341361957651645
0.2265625,0.8059780818349326,-0.273053000841641
0.23046875,-0.4116919683722334,1.304663592629798
0.234375,1.5434453446315586,0.6587295175279622
0.23828125,-1.0592776894138927,0.1268527362201529
0.2421875,1.7559026476549708,1.117984789982532
0.24609375,0.387954287823786,-0.153594227946828
0.25,-0.8511854464504194,1.7446753427127337
0.25390625,-0.331071378418764,1.5588264764151907
0.2578125,0.6350035781366887,-0.8072472748878422
0.26171875,-1.4679428694973946,1.9929039180716197
0.265625,0.3557515253500667,-0.8497506417145481
0.26953125,-0.35461235958099185,-0.1800470259136416
0.2734375,0.9854447425571233,-0.2843273868888623
0.27734375,-1.7792822414871934,-0.2331807710817127
0.28125,2.468562164076152,-0.7376254935377655
0.28515625,0.34374918789516423,-1.2203276453476934
0.2890625,1.0291778328701044,1.4339066475681446
0.29296875,-0.8492889851664721,0.2275784911063493
0.296875,-0.18487418768739533,0.40650127117485724
0.30078125,-0.4323162708357479,-0.9838712364327532
0.3046875,0.21761806598481218,-0.30433782086038397
0.30859375,-0.35164104352337194,-0.08791602436730574
0.3125,-0.3577997735991295,-0.6522718938109572
0.31640625,0.38005877051144077,0.3807259388657001
0.3203125,-1.127620068639973,0.2724889829621285
0.32421875,1.921526435031046,-0.33602705883867556
0.328125,-0.978644099227565,0.29117477459100144
0.33203125,0.6651701302081277,-0.08369453177132435
0.3359375,-1.1475176960358444,-0.1011314211793534
0.33984375,0.4601914965619681,-0.07539323062998747
0.34375,-1.5962882636680995,-0.1427770958916138
0.34765625,-0.05182710900602656,-0.2273317262315914
0.3515625,0.7026081867062238,1.8076812197471848
0.35546875,-0.5263991063557892,0.7836700792989133
0.359375,-0.7255137496500201,-0.3754073301584054
0.36328125,0.7310283678447315,-0.5223294635370055
0.3671875,-0.23630813150024738,-0.8971427254247414
0.37109375,-0.0005619171732347315,-0.36343779618197786
0.375,0.8148255354741772,-0.8213994520756615
0.37890625,1.3703446163274988,0.6921048622756929
0.3828125,-1.822034009634759,-0.22453399435212576
0.38671875,-0.16961280993716127,-0.5030963750709802
0.390625,-0.22959454351454106,-0.14818046771002386
0.39453125,-0.14466959285681985,3.3368707556924724
0.3984375,-1.7778691782032254,-1.4607828536626977
0.40234375,-0.5154260306530023,0.4003170049804378
0.40625,-0.7308608516161746,0.7483462310040363
0.41015625,0.37004286443839307,0.18984630290631296
0.4140625,-0.7282385963006669,-1.2508017290490059
0.41796875,-0.012696086862982858,-1.6578849993252815
0.421875,0.2108857960519699,0.558658810859385
0.42578125,-0.43041331102983743,-0.852234740578017
0.4296875,-0.34125941766872714,1.239218559918389
0.43359375,-1.3477137864741249,-1.072231013673385
0.4375,0.25139645813252115,-0.5521129576160032
0.44140625,0.7395130085024721,-1.248400492015559
0.4453125,-1.2170870469037338,1.5160656550057905
0.44921875,0.17208398556084173,-0.3412292179288495
0.453125,0.4636297487555783,0.4135955596522966
0.45703125,-0.8294415488604714,-0.9322977983095073
0.4609375,0.44518537112002937,2.674210452825017
0.46484375,-0.0848030532022839,-0.9143943671359434
0.46875,-1.4871288791949584,1.1662838699511267
0.47265625,-1.4117606810400307,0.48956957487012653
0.4765625,1.286790784531693,-0.7977129325347015
0.48046875,0.43388002246216434,-1.1299029574221768
0.484375,-0.9018175049049447,0.8441119323186737
0.48828125,-0.134952231282436,-1.9638932154566215
0.4921875,-0.5618610239776746,0.5012272092034084
0.49609375,0.7440376446785256,0.5139890566276363
0.5,0.32664471835465797,0.634286461542679
0.50390625,1.5931981858547033,-0.8748972244964274
0.5078125,1.2309413599534842,1.8182066779575041
0.51171875,-1.9001031277784772,1.3708374029041805
0.515625,-0.09573859453897528,1.0713815943069116
0.51953125,-1.009690807333554,-0.7101906209236519
0.5234375,-1.7776139340334465,-1.4475192376659471
0.52734375,-0.037019740479670216,1.3439408547448606
0.53125,1.3219455251896788,-0.27281760135809524
0.53515625,-0.5212513974008918,-0.8008528443606182
0.5390625,0.43242250444840735,-0.5943214844737004
0.54296875,0.5640378893093424,-0.17680294511458547
0.546875,-1.12191439541815,0.5973710223994918
0.55078125,0.9733379841689136,0.0031590429014112047
0.5546875,0.005024852567267537,0.36656053143039474
0.55859375,-0.7469475898123688,0.8448772549236484
0.5625,-0.19391982190064852,0.6899981840370183
0.56640625,-0.6555841905515388,0.5703334817910389
0.5703125,-0.05144762489498314,-0.6549210410849952
0.57421875,0.9833594872325974,-0.5357361365598279
0.578125,-0.4701954832241966,1.1441119205378056
0.58203125,0.5828724991814277,0.7387094651354831
0.5859375,-1.1706738934430247,-0.9829526752026836
0.58984375,1.0882327018796292,-0.390547664444887
0.59375,1.226372157221447,-0.19806338741705334
0.59765625,0.039567883201437344,0.03620319168117117
0.6015625,-0.14440677391000545,1.0139721442914589
0.60546875,-0.15068628948530813,-0.4494734226549694
0.609375,0.4044228343045093,0.4812226716334434
0.61328125,-0.5517500650096102,-1.953417664588315
0.6171875,-1.740877375378907,-0.4874913750059256
0.62109375,0.2634072307104893,-0.5711254296616247
0.625,0.4865010175261617,0.012271082105095537
0.62890625,-0.5563056267814603,0.12509033338348743
0.6328125,-2.78418092460074e-05,-1.6286713729235598
0.63671875,0.28521614997751826,2.0961637462977505
0.640625,1.3960623879485603,0.6659486572108368
0.64453125,0.38303032830591544,0.4830542014970643
0.6484375,0.11418275476313273,0.8635087446976477
0.65234375,-0.04364895320263153,-0.8414746514182172
0.65625,1.084307507792565,-0.2987935819998761
0.66015625,-0.2909718828867382,-2.0748651790117205
0.6640625,-0.7758131822421639,0.23149286840306385
0.66796875,-0.3505066308335315,1.1830056395900381
0.671875,1.08358157721473,-0.11851936686103764
0.67578125,-0.3583359238393929,0.6098811548518185
0.6796875,-2.6733431395159837,1.517502112894509
0.68359375,0.3507843827463486,0.8856440036839713
0.6875,0.19488585535076627,0.8203094066942739
0.69140625,-0.2027380871282699,1.463686095050541
0.6953125,-0.9504384328222545,0.09308575422708212
0.69921875,-1.8105790839343219,0.34241460030566767
0.703125,-1.4453064209646782,1.4370086250673515
0.70703125,0.49308636940879336,-0.4109893270137302
0.7109375,-0.7662630032550108,0.9354708992918285
0.71484375,1.0812983697759266,0.9176402433825712
0.71875,0.6243477017747109,-0.39795313491459955
0.72265625,0.07522455027519677,-0.24743035674572067
0.7265625,-0.792292662288556,1.5601213577502528
0.73046875,1.3629292490655325,0.49139259138679753
0.734375,-0.024361871946787742,2.7012375875532078
0.73828125,1.6161421066532808,0.12291565153366288
0.7421875,-0.0015421976315911404,0.7729605101105425
0.74609375,0.18446014040104747,0.19348715003539832
0.75,-0.09306050776077053,0.42686575766239854
0.75390625,-1.1703594835957503,1.6225216654573575
0.7578125,0.5682861408026011,0.4282805406777155
0.76171875,0.5465318709174617,-0.2854985233417419
0.765625,-0.7153427572333847,-0.42334539226459705
0.76953125,1.5504699123730994,-0.14953316492967728
0.7734375,-0.4658295999017854,1.466668215132569
0.77734375,-0.959516626032198,0.005659875651292437
0.78125,0.17915313960373938,-0.03599942659931495
0.78515625,0.6867632607977614,-0.5178885595176989
0.7890625,1.3241831729304911,-0.3487945724619526
0.79296875,-1.6401880039229453,-1.7611403236869565
0.796875,-0.814147469820553,0.7905400080098886
0.80078125,-0.9683600859934477,-0.05863715602054403
0.8046875,-0.7481413093007908,-0.6799586042173
0.80859375,1.1913443777892716,-0.6918098552416398
0.8125,-0.5918299593070278,-2.4851356479410995
0.81640625,-0.2071350086535335,-0.8569206024162835
0.8203125,-0.8420144270449749,-2.1312133776542788
0.82421875,-0.56454256533179,0.6660610296465936
0.828125,-0.85222508297487,0.02317891846611417
0.83203125,-0.27427335196744584,0.7042755303265485
0.8359375,0.5624451420468033,-0.5963268675903775
0.83984375,-1.345333494192892,0.35396089352339705
0.84375,0.7910644871977247,-0.5290955022753937
0.84765625,1.1090920728638534,-0.40639202902716354
0.8515625,0.7912135760112011,-1.6347715746379903
0.85546875,1.4830000465599207,0.12999573595265526
0.859375,-1.1557665214951964,-1.9846194582485108
0.86328125,0.5792048954281357,0.28520965938114656
0.8671875,1.1226765141233264,-0.2508334189881321
0.87109375,-0.32742492735960615,-1.6692677934505817
0.875,1.376594706620778,0.16968057367925699
0.87890625,0.23571862263181573,0.908956348788426
0.8828125,-0.7084828269849015,-2.3934737557089782
0.88671875,-1.2343109226856261,0.7821501308282012
0.890625,-2.028848208696575,-1.389333325344647
0.89453125,-0.8559620577567059,-0.42627155932776384
0.8984375,-0.7760476793042458,1.4211931172273586
0.90234375,-0.9145576188934044,-0.40696813527798276
0.90625,1.6439087586861862,0.04500692106906284
0.91015625,0.9143918833682846,-0.3084886392399628
0.9140625,0.4034882695151771,1.8755868659379977
0.91796875,0.05145471073706724,-0.5518693153834939
0.921875,0.06326095378086481,0.6505559350740859
0.92578125,-1.47993915051964,0.1976359453612022
0.9296875,-1.1206204479207948,0.5640316066042341
0.93359375,-1.597054597295983,1.21406795177538
0.9375,1.7993802379214776,0.431769246081927
0.94140625,-1.1041392986496943,-0.8003782494389403
0.9453125,1.9265408938120656,0.9414969319227829
0.94921875,-0.46916705460853364,1.3664742270996526
0.953125,0.5082835909252726,-2.0213470923298082
0.95703125,0.6080690806514648,-1.6423636905789867
0.9609375,1.607605110805526,-0.5236465091660683
0.96484375,-0.021812267685129266,-1.7187688935159167
0.96875,-0.0780216552517338,-0.2599834197958691
0.97265625,2.099461255529597,1.1309453354862278
0.9765625,1.4544968665693523,0.42297983530589567
0.98046875,-0.4891403014225978,0.5144234152826023
0.984375,-0.3137626489628687,-0.8498362990228945
0.98828125,0.08963998509301331,0.3308918275661725
0.9921875,0.9048879124721798,-2.2941690407618403
0.99609375,-0.9236019999586856,-1.4332785939462371
1.0,-0.2511422074423985,0.916312127567747
1.00390625,-0.9768535896982063,0.10740857499089433
1.0078125,0.4876429287754155,0.7689517519861154
1.01171875,0.5927134271308224,0.3874970587152111
1.015625,0.8765596739662941,0.7008957601517245
1.01953125,1.6852558443776986,0.10687760841468799
1.0234375,-1.1465969948318329,-0.7208291445967565
1.02734375,-0.13038853994310348,-0.45604048994754914
1.03125,-1.2289539623831014,0.8380834618876287
1.03515625,1.6843607752903882,1.0710064709864962
1.0390625,3.1905480288271115,-0.8187750649160015
1.04296875,-1.2686702684251407,0.07707163265887663
1.046875,-0.5401236783469402,-1.2390540871347315
1.05078125,0.7230783879010867,-0.45474323002265266
1.0546875,0.23185799118645045,-1.9420848756628624
1.05859375,-0.4795741141225842,-0.06593255451986893
1.0625,-1.17944718734342,0.8323551019153009
1.06640625,-0.01141741999016386,-1.26478394621212
1.0703125,0.6248827688781238,0.1049718819501413
1.07421875,2.2299935491192433,-2.30477610057964
1.078125,0.836361487790634,-1.1022102318142577
1.08203125,-0.291170996477816,0.007525685055666091
1.0859375,0.9828777430649197,-0.9797396539647905
1.08984375,-1.7883117939860123,1.3915009564136278
1.09375,1.019399494451146,-0.5706660965572826
1.09765625,-1.170364655445461,-0.935055887586199
1.1015625,-0.14223133757157005,-0.4472108386284215
1.10546875,-0.51277632559451,-1.7642882074783661
1.109375,1.424848299191794,-0.5635927647928941
1.11328125,0.07773379037035387,0.7041112246924529
1.1171875,0.562631633866291,-0.4643903387821109
1.12109375,1.1911967696883954,0.11562791796406673
1.125,-1.9343479727794335,-1.307850869182065
1.12890625,-0.9281464072663689,0.9569598888291142
1.1328125,-0.7757948631962212,0.18086380572692215
1.13671875,0.6374478572433389,-0.5394709831063675
1.140625,-1.2434367702688907,0.9832770460573672
1.14453125,-1.6437080333331002,0.2512682305516395
1.1484375,-0.8175374635310831,1.7981665573174388
1.15234375,-0.2809217233150748,-0.5984759730980226
1.15625,-0.9759840590877189,0.9439883323833708
1.16015625,-0.08678992296107015,0.7702601050282043
1.1640625,0.40817746113081016,-0.4416607884298503
1.16796875,1.3234861425583704,0.37579487779580845
1.171875,-0.4056007235998024,0.8289102025954753
1.17578125,0.5106428552048742,-0.4345101244154246
1.1796875,-0.15660083671005207,-0.9023319696670026
1.18359375,0.7754448598015473,-0.6191050946939146
1.1875,-0.056114659921376035,0.3278772781494297
1.19140625,-3.1221673733460293,0.2707188073569518
1.1953125,0.2683864616894691,0.22516785411941695
1.19921875,0.67284277755833,-0.7159660146348034
1.203125,-1.3439379362680393,-1.0929485422901775
1.20703125,-2.2214340405949344,-1.9584689292320911
1.2109375,-1.084866516189708,1.9773509438005936
1.21484375,1.3465604734512873,0.020058439427402975
1.21875,0.3184435936724599,-0.314967118836148
1.22265625,-0.18473100302508239,-0.5788026539183276
1.2265625,-1.0422987432534572,-0.9572691940392833
1.23046875,0.24940944640487273,-0.5854894015008788
1.234375,-0.6405392202026942,-0.6255900272030752
1.23828125,0.010310001160469595,-0.129488989306523
1.2421875,0.931086214196615,2.145591308421372
1.24609375,-1.2626732537064704,0.03970810977176844
1.25,-0.359132099016156,1.6068697380539119
1.25390625,-0.5722805055031946,0.8331371308363891
1.2578125,-0.5153046345888002,0.5764780766332539
1.26171875,0.48562482695712367,1.7066163020576235
1.265625,-1.892250995843757,0.8304665122554299
1.26953125,1.928119648844081,-0.044224155436546515
1.2734375,0.7985050278100191,-0.20289087775877068
1.27734375,-1.0872750439243892,0.46160607145064936
1.28125,0.2530412532389017,0.439468257808594
1.28515625,0.6288817937273684,1.6404836671931273
1.2890625,-0.905649433583582,-0.42818467920738146
1.29296875,0.5761631183334911,-1.3349110195643987
1.296875,1.046867483756099,0.4385152721179981
1.30078125,1.096107697894647,-1.4663919947152664
1.3046875,-1.103805194612692,0.3257342956424655
1.30859375,-0.3137129446779064,0.26232410568830344
1.3125,-0.6836175175298108,0.5935898508107681
1.31640625,-0.15565281783597112,0.4938025560946066
1.3203125,0.49364607588259013,0.07133032090435706
1.32421875,-1.2709197304731448,-0.2862821556372977
1.328125,0.42936145115459806,-1.2626532492125462
1.33203125,0.37511372209048544,0.45022844339610957
1.3359375,0.7859640121377626,0.6810242232508258
1.33984375,0.029919240005567987,-0.6711154211308447
1.34375,-0.3675015939834369,-0.061725912263612806
1.34765625,0.19809505941121738,-0.38432279932529884
1.3515625,1.0759084862323998,1.1604831773130468
1.35546875,-0.03494999782021722,-1.1746166791348835
1.359375,1.5024158631788425,1.5722056382965601
1.36328125,0.5938587478929365,-2.307309993641623
1.3671875,-1.8694380587288741,-0.9342318004102378
1.37109375,-1.2399516538940571,2.493063000305021
1.375,-1.7283265092690459,1.097883903223914
1.37890625,0.17203918524838008,-1.3672457658519481
1.3828125,-0.5982150239088544,-1.1529199790151352
1.38671875,0.8802101541416537,-0.4856750393756521
1.390625,0.07519832744030958,0.1176506634887489
1.39453125,0.2398960785277423,1.113490239023211
1.3984375,-0.7152398673440112,1.115706570887083
1.40234375,-0.13342737394521137,0.5403111272558878
1.40625,-0.5093355031323261,-1.473116757041901
1.41015625,1.0041058506770817,-1.847911749802478
1.4140625,-1.088470425940304,0.8036450497004746
1.41796875,-0.9546641629856606,0.7020887526619263
1.421875,-0.3233044386806447,0.13954778023473527
1.42578125,-0.09189866372879721,0.09233876516581863
1.4296875,-1.2538986090247586,0.036569229995692655
1.43359375,0.7985235928644794,0.7048548819396138
1.4375,1.1705549060113283,0.7189504781918178
1.44140625,0.17566313197018296,0.25385438053137344
1.4453125,1.57044777413063,-1.4754422788081953
1.44921875,0.4677622051301777,-0.7502507125076714
1.453125,1.871585196100384,0.06403560139838756
1.45703125,0.6798257058265111,0.14236596988859213
1.4609375,-0.21162881699215091,0.1455616559381497
1.46484375,1.7896958839611237,-0.5679476665578809
1.46875,0.9850349193279643,-0.42327537629655304
1.47265625,-0.6194340363418162,-0.2786687112830477
1.4765625,-0.028258875692538578,0.6707286693913803
1.48046875,-0.8674553914198605,1.0874040207812423
1.484375,2.025142783578132,-1.9498377783923444
1.48828125,0.6696275619997355,-0.06863863150040804
1.4921875,-1.3196671497667944,0.1633329800440914
1.49609375,0.49555184175263683,-0.494646811423638
1.5,-0.5119734108407175,-0.5603991787335199
1.50390625,0.6894126927141413,0.35567766142433904
1.5078125,1.8124635771326232,-0.8899183349456805
1.51171875,0.15052631890550855,0.4968025731335898
1.515625,1.353183757884902,-0.861366366790974
1.51953125,-0.590003985543323,-8.876659876081819e-05
1.5234375,-0.6989490984999579,1.238546909693034
1.52734375,0.1148686806878555,-0.7408810630534037
1.53125,-1.1024355519971076,-0.2512577683373732
1.53515625,-1.1719635561295545,-1.5585031769032558
1.5390625,0.03321672940788766,-0.7587812279021123
1.54296875,1.1035281193736282,1.2023096113430551
1.546875,0.7571415731828764,-0.32172195220431965
1.55078125,-0.9491922475299883,0.24027681711638857
1.5546875,-1.1251614049634093,-1.6081250965520628
1.55859375,0.05128115164234831,-0.6201143184636061
1.5625,-1.2659261878827488,-0.1707950463574118
1.56640625,-1.4454079486439537,-0.5357419725561997
1.5703125,0.25539225302187823,-0.3941643154930582
1.57421875,-0.20456392541277035,-0.8260285901435735
1.578125,0.5813057922829661,0.31963585400994754
1.58203125,-0.4933567473594245,-0.2032527148630157
1.5859375,1.4730617574031,0.8590884631217162
1.58984375,0.9195276943527976,-0.10708564314525719
1.59375,0.3942852181542411,-1.768325758764109
1.59765625,0.5219700631191226,1.0053894146844953
1.6015625,-0.40558786692964915,0.7474831895988212
1.60546875,0.8498888177409424,-0.5984502670117512
1.609375,0.5284779354587678,-0.26129486514831635
1.61328125,0.036382735138804134,0.13488907310020956
1.6171875,0.7203118166229275,-1.2868724397366444
1.62109375,0.23845815868382253,-0.776892303631261
1.625,-2.1055688304643847,0.710106930406347
1.62890625,-0.12115365953704348,-0.18571286231243286
1.6328125,-0.7098950396906226,0.06104885010748455
1.63671875,0.6803802669720719,0.714288006680912
1.640625,-0.37722892750842135,1.2163802808721096
1.64453125,0.2783443068496106,0.15162618152608448
1.6484375,0.13299136930628888,-0.7168502748767368
1.65234375,-1.9811572326520988,0.05582277664462893
1.65625,-0.2477798454717864,-0.39535595375584726
1.66015625,-0.5735623311450435,0.661808788527688
1.6640625,-0.2035180517038351,-0.7022078749350734
1.66796875,-0.4572623043813642,-0.7047071850216603
1.671875,-0.05594244201785071,1.3568624176162778
1.67578125,0.42923470418992893,0.07628274256724334
1.6796875,-0.8461091467792801,-1.0605506064446732
1.68359375,0.6712827580798323,0.7851409272716868
1.6875,0.02805916125188714,-1.2175406191199085
1.69140625,-0.6606614080549709,-0.6282012149037778
1.6953125,-1.7587322013869306,-0.6394319291393838
1.69921875,-0.4872069510286226,0.037707822818704335
1.703125,-0.17263568929398893,0.860406773359257
1.70703125,-1.7072141325548635,-0.5498368117500609
1.7109375,1.0789899481088399,0.7562159571090712
1.71484375,0.5115223174910093,0.002621195805749474
1.71875,0.28448252282791453,-0.9816042986025383
1.72265625,-0.2813700497279239,3.1158849671323674
1.7265625,-1.6261532586097924,1.143823328334135
1.73046875,-1.1226260333317044,-0.3451593959374238
1.734375,-0.16931676853166028,-1.0682807497127005
1.73828125,-0.4306604002940433,0.7411411543411803
1.7421875,-0.20185855003307807,1.403820926791066
1.74609375,0.25887337408837224,-0.37808635186706735
1.75,1.3250435733819044,-0.34917692553830654
1.75390625,-0.5328530471508905,0.024161918439014225
1.7578125,0.6023098194687393,-1.8178222923375298
1.76171875,-0.01286961570557183,-0.5771602078804414
1.765625,-0.7333427198507135,1.8955209363701495
1.76953125,0.00013172966499805093,-0.8649459383488796
1.7734375,2.023023235990143,-2.2183812741140834
1.77734375,0.38293282744554535,0.3023917895949169
1.78125,1.0531262716989447,0.2100709709038263
1.78515625,0.8157859467854639,0.1607459026952828
1.7890625,0.3941173966351758,-0.28459611640544996
1.79296875,0.6574358761174355,-2.058491353591263
1.796875,-0.9453844911862695,0.5277912382994565
1.80078125,0.251370644164666,-0.1554269680042099
1.8046875,0.6106423030762391,-1.0843681309596778
1.80859375,0.42929803388270515,0.8507751538514067
1.8125,0.6074441890579318,0.2323640581865674
1.81640625,-0.5528829159092746,0.8516860070182302
1.8203125,-0.5975315025413234,-1.8475281955577016
1.82421875,-1.4435626227014982,0.7392742840461323
1.828125,0.6549039007650761,0.19559707134015186
1.83203125,-0.08452700291174454,1.6266377219955035
1.8359375,0.6237607616522753,0.35749930125347007
1.83984375,1.823957660414975,1.5880506448024698
1.84375,-0.13593561597647974,0.7333783060670777
1.84765625,-0.4816746590432829,-1.4460317763601513
1.8515625,0.7657268459333818,-0.5595462838840113
1.85546875,-0.7252085798730382,2.1759658779476374
1.859375,0.8896860792645352,0.8355275968328703
1.86328125,0.5211221668096816,-0.5350671240563819
1.8671875,-1.5113628701788966,-0.07826695719851588
1.87109375,0.9333175282331426,-0.32020561066136877
1.875,-0.445302590508405,-1.6499223315811355
1.87890625,-0.3839828546420457,1.8150030192138409
1.8828125,0.9914483966742957,-1.096650762532231
1.88671875,0.4236457182664095,-1.0925992605442758
1.890625,0.6522094548177071,-1.136114220862269
1.89453125,1.2006626475522426,-0.014141123978141995
1.8984375,-0.8242503769262144,0.9557291695434726
1.90234375,0.9898096380966203,2.5909816636495266
1.90625,-1.8112987083402494,-0.07095571609140609
1.91015625,-0.3610342766582959,-0.817876426832787
1.9140625,-1.279416587947397,-0.41604719189658135
1.91796875,-0.8215850854799265,1.6522408307314336
1.921875,-0.2669598129640257,-0.7701503886720523
1.92578125,1.7088837020151872,-1.5197508063986649
1.9296875,0.2552664604202755,0.731073900674578
1.93359375,-0.8019810940459784,-0.5901897804224441
1.9375,-0.030032823429513446,-0.5890666598356361
1.94140625,-2.106214790570106,1.3678749928664635
1.9453125,0.27240436448374467,0.4003208755622948
1.94921875,0.06801331980065538,0.5933314404607765
1.953125,-0.23128049463005246,0.8403762019684851
1.95703125,-0.4271483671266262,-0.6748250589892079
1.9609375,0.5090490640419228,0.4069516540043114
1.96484375,0.750002456528113,-0.32762028049403785
1.96875,1.0554410524516815,1.0834189001582237
1.97265625,-0.8582228660913589,-1.6089506531471216
1.9765625,-0.10046582646519205,-1.8979276274486483
1.98046875,-1.450728759453695,0.9513200782162151
1.984375,-0.5898667191836422,2.0924267842115327
1.98828125,1.1725038562055428,-0.3418313562147238
1.9921875,-0.7995373816725239,0.7694887310291078
1.99609375,0.33744119554589785,-0.9270675642599123
2.0,-0.4284925933815433,0.03672392356398764
2.00390625,-1.1187676841549794,2.53376051949453
2.0078125,-0.7047709969316374,1.5719756408947758
2.01171875,1.6088509460326015,1.1633051556909522
2.015625,-2.0759044761810976,1.4437763680272728
2.01953125,-0.03882793825847186,-0.05608104990986035
2.0234375,-0.3517892476046886,1.0937809678575734
2.02734375,-1.3003612922666314,-0.5318476257442647
2.03125,-0.7950005396111849,-1.5839187419464642
2.03515625,-1.2452991603586063,-0.9463312296454846
2.0390625,1.0139907860246269,-0.4903910512961811
2.04296875,0.3403576763541064,-0.16589570341128573
2.046875,2.0782888985701486,0.6863977031611787
2.05078125,0.7574058983121594,-0.4811619003420817
2.0546875,-0.6555851232532821,-0.7424625310034345
2.05859375,-0.43307996717536273,1.7618996997583136
2.0625,-0.5712856927102716,-0.8921440138476845
2.06640625,0.10967446701062299,-0.36117835421622996
2.0703125,-0.9697995465211549,0.23696296138333214
2.07421875,0.21588801272856623,-0.9829197981232608
2.078125,1.1025601802855252,0.5946221534032686
2.08203125,-0.5388201836176254,-0.21912627454758293
2.0859375,-0.1699785623005571,0.570408242575661
2.08984375,-1.4365853899075314,0.5569417303154595
2.09375,-0.9261313915541758,-1.8537426786755455
2.09765625,0.8877430380335269,0.18484185224124094
2.1015625,-0.4915743562871431,-0.896510086322435
2.10546875,-0.7113644829734046,0.7497328901468053
2.109375,-0.6712297520421426,0.9834965033124867
2.11328125,0.8764068892506814,-1.1245352113520077
2.1171875,-0.6428513553391291,2.2784604892105675
2.12109375,-0.9983174536194479,-0.3122262182964841
2.125,-0.5478302809287646,-0.67008216277646
2.12890625,0.30846793625232644,0.10723040542431361
2.1328125,-1.8258574864941888,-0.7633373536781818
2.13671875,-0.34632581015452607,0.5479584659089818
2.140625,0.7514661636395186,-0.0042778374616914685
2.14453125,-1.0819139026581088,-0.04946980772889686
2.1484375,0.34494027274208766,-0.5363427578324009
2.15234375,1.1098726415825533,0.8062526677864047
2.15625,-0.6211741260705829,0.08284785502792526
2.16015625,-1.744567602001982,0.11326580302600087
2.1640625,1.1220776607375011,-0.9548237590521906
2.16796875,-0.28657542189948987,-1.176412016184899
2.171875,-1.834748056423007,-0.6978389833492676
2.17578125,-1.2027190775279035,-1.531477432674339
2.1796875,0.1898047654425386,2.191934545710483
2.18359375,1.0259379766416998,-1.882671150114691
2.1875,-0.4077859222123054,0.4463886103904615
2.19140625,0.04775858000484744,0.5154545700695131
2.1953125,-0.29888741328387736,-1.200957716841417
2.19921875,-0.23040892976052316,-1.0684652245053916
2.203125,1.7439236510489338,0.17393379434047038
2.20703125,-0.6937521678740105,-0.6251398427748891
2.2109375,-1.027862461130651,-1.2801575437911348
2.21484375,0.9778054796514739,-0.3687752623108817
2.21875,-0.22647828195611422,-0.9769387620897152
2.22265625,-0.18937308733549077,0.2616045912677829
2.2265625,0.5460086642401698,0.6085744678448043
2.23046875,0.9724159944559001,0.7378960082416239
2.234375,-1.6032087218059285,1.0046167578048277
2.23828125,0.6094270105105469,-0.3834914851235162
2.2421875,0.23783584181063994,1.0058162925742324
2.24609375,-0.9256497802817589,1.1332365929749737
2.25,0.47379854859972953,1.061816922248082
2.25390625,-0.2681805067317314,-1.1270406865786449
2.2578125,1.0165027668323656,2.1699774082988728
2.26171875,-1.450451218193491,-0.3390601116657919
2.265625,1.3546969694714763,1.190364427310638
2.26953125,1.6714115867232777,0.28748731363194574
2.2734375,1.973390089576584,-0.6353831721068507
2.27734375,1.1966239472738942,1.2325945703071683
2.28125,1.0746405664936216,-0.22723939855876382
2.28515625,-0.020099181584932825,-0.5598727200285762
2.2890625,1.2378440864890716,-0.29218675439248526
2.29296875,-0.966547993958529,1.436784015691061
2.296875,1.3534955593399227,-2.012094753507698
2.30078125,-0.2844625464331742,1.4452797443099248
2.3046875,-0.5505185436796738,-1.5243054847910986
2.30859375,-0.7935420229111446,0.38866923302985423
2.3125,1.4069727343356642,-0.10432959955532492
2.31640625,0.055906348012257814,0.5963940385049613
2.3203125,2.3079891490874,0.978853601278224
2.32421875,0.19675267122950804,0.025271981016061606
2.328125,0.8540518583456167,-0.10218159013637411
2.33203125,1.2817191772098384,0.8783492138256677
2.3359375,-0.8705345418135246,-1.5331177193046828
2.33984375,-0.8871529522917486,0.4435043459417312
2.34375,0.1121957715474903,-1.886983898954451
2.34765625,-0.38489552162483004,-1.0705859008213106
2.3515625,1.0370790744340943,0.40573753209762825
2.35546875,-0.18944680350797943,-0.7377982949524446
2.359375,0.3444072811570342,0.8197828143008933
2.36328125,1.2777822034338693,-0.2999194826385611
2.3671875,1.105071827283257,0.15730386589995554
2.37109375,-1.7444988734481726,0.049841632238966205
2.375,-1.2187564190111237,0.6090235916819223
2.37890625,1.6315078455131948,0.10024576293335337
2.3828125,-0.1500604285143675,0.789650115650724
2.38671875,1.8082679221203994,0.11843215921371658
2.390625,0.5219993241714722,-1.2046096317950825
2.39453125,-0.03253934375573645,0.6349502388821183
2.3984375,-0.705137624199559,0.428263721777033
2.40234375,-1.5397628274277877,1.3087349094645542
2.40625,-0.7828192436642423,-1.7144679435561758
2.41015625,0.0001499911096630831,0.06862984804255931
2.4140625,-0.2837960046833431,-0.32812659017778717
2.41796875,0.5836038384073392,0.046748330892702014
2.421875,1.3655602765684898,-1.4471168144454067
2.42578125,-0.4625552863424316,-1.2093194966222716
2.4296875,-0.47466706326379265,1.6533712050120308
2.43359375,0.6550249628737975,0.42439690059054497
2.4375,1.3846712116244273,0.5921617294671462
2.44140625,-0.7757567501209436,-1.2763101746234882
2.4453125,-2.844226119114022,0.8296175033270323
2.44921875,0.27861114861903075,-0.6077492329517189
2.453125,-0.44251006994270664,1.3231248492467018
2.45703125,0.3110423184317681,-0.9375393678022212
2.4609375,0.4300389351315817,1.1436182811185913
2.46484375,-0.6614907143087657,-0.8206498480449974
2.46875,0.6073661140314011,-0.9631099945916778
2.47265625,1.8851124782482067,-0.9202649204364907
2.4765625,-0.46907289294852367,-1.975213239066452
2.48046875,-0.7524943183536673,0.7893961803010964
2.484375,0.3078779497810187,0.609151074547104
2.48828125,0.820689725529292,0.4085900030690913
2.4921875,1.0651402240922776,0.08748255158508869
2.49609375,0.8443878067829762,-0.039193171882189855
2.5,0.3253745974472844,1.4786596940339594
2.50390625,2.156043508725471,0.0669112183208487
2.5078125,-0.33492704179958566,-1.0815153392243402
2.51171875,-0.8729564957620509,-0.3380309727321523
2.515625,1.779620898847332,-0.3520785264401798
2.51953125,0.30968048275401755,-0.07819247561373217
2.5234375,-1.51888027431462,0.20326766842504312
2.52734375,-0.7625193816964898,-0.39371298656873494
2.53125,0.8466472514794792,0.2690963210885805
2.53515625,-0.7652401512518091,0.9629274840464157
2.5390625,0.9717866464542347,0.5319050338977551
2.54296875,-0.24946538201460045,-0.32368191676559
2.546875,-0.7426562853385423,0.9564162843000817
2.55078125,1.4853816362437013,-0.8811915081858132
2.5546875,-0.8723633295716224,2.6546753087999564
2.55859375,-0.38198010630714013,1.4030619887806146
2.5625,-0.8386042270322652,0.7907963495097895
2.56640625,1.1863693381092277,-1.3541556633738294
2.5703125,0.0969285408777353,-0.4148507036588932
2.57421875,0.9317563293069419,-1.0099602444433562
2.578125,0.0019304215557936798,-0.07626073387980761
2.58203125,1.7427962889228619,0.06938020556887846
2.5859375,0.31742211046698904,0.9129200845901784
2.58984375,0.9461402653437034,0.727024457704251
2.59375,0.43774213480906643,-0.23983506591347922
2.59765625,2.6139395098019977,0.24297187669281575
2.6015625,-1.0822292032886374,-0.146968090823593
2.60546875,-0.3968087907741769,0.7390515723528776
2.609375,-0.38195690931325565,-0.35988038459751803
2.61328125,0.23289093707912836,1.6452929697798355
2.6171875,0.3684981952968579,1.5472217592167956
2.62109375,1.1402114038580686,-0.16229938788541845
2.625,1.0851777336262718,-1.3407967009490358
2.62890625,-0.4620132636536709,-0.2664355056778269
2.6328125,1.1897460937155155,1.019289376054093
2.63671875,-0.5792435812966079,2.1897963701111105
2.640625,0.5299078727186829,2.436716507595574
2.64453125,0.4092991629097851,-1.0681001473101446
2.6484375,1.799977752752087,-0.22120086393364216
2.65234375,-0.409970484196001,-0.6545400460853257
2.65625,1.1037088961237909,-4.108515361308008
2.66015625,0.20593940866154434,1.2306500770899667
2.6640625,0.10447684818839013,-0.16047100833515757
2.66796875,-0.77816053040596,-0.8632286691651218
2.671875,0.7717026309870743,-3.1706283197566965
2.67578125,-0.46817881004053,1.2559907809318498
2.6796875,-0.5737123799865785,0.4443857132623733
2.68359375,2.427404989947562,-0.9088873676127236
2.6875,-1.207641201787617,-0.9301310306907344
2.69140625,-0.653793417496468,0.8770496136506742
2.6953125,0.8991402544352087,-2.3483162128523882
2.69921875,-0.5015577521167695,0.32828030797005725
2.703125,-1.38263743652431,-0.07391547636056763
2.70703125,0.47023213994202706,-0.5260056941413541
2.7109375,2.028676053106096,-1.0210877200788795
2.71484375,1.225700181896358,-0.3664704188623264
2.71875,0.24728380328596677,0.07342438380437423
2.72265625,0.7797962944660869,-0.6605764503613318
2.7265625,-0.4284996585116411,0.10714081955922558
2.73046875,0.8987601446218892,-0.5312252213666991
2.734375,2.2667954747339922,-0.2284751528514499
2.73828125,0.1041228606531372,-0.03478173531093086
2.7421875,0.45177298741356,-1.274714872696444
2.74609375,0.9145919182057799,-1.9494659964256777
2.75,0.13550968750294223,1.1273119157280347
2.75390625,-0.8296857266852001,1.731156838006198
2.7578125,0.14884697492417423,0.03089959933639813
2.76171875,-0.8066265063661566,-1.177585396598625
2.765625,-0.23175835248797086,-0.5912447528320967
2.76953125,-0.6246447059975586,-1.7328340203619288
2.7734375,-0.36790917443209104,0.9153520091970268
2.77734375,0.6489120391162959,2.420583506428773
2.78125,-2.635168136169072,-0.23452054980457862
2.78515625,-1.5618242992347884,-1.0546867796258355
2.7890625,0.4657437323282868,-0.18969468240367782
2.79296875,-0.019358048024435585,0.29730904755143095
2.796875,-1.6741456975491733,-1.755387492756478
2.80078125,-0.9610573063774034,0.9283147400520433
2.8046875,-1.7858026474462787,0.5950799790555291
2.80859375,-0.13651343171256738,1.7735266176520945
2.8125,0.9699769412757038,2.014201982151314
2.81640625,-0.905491242443255,0.09291610560603483
2.8203125,-0.5643995225185341,1.2171372683950683
2.82421875,0.7732100900397589,-2.0885791164989613
2.828125,-0.9445894050494409,0.5980503987451478
2.83203125,-0.8928385587738821,1.2310328850173524
2.8359375,-1.186961735315332,-1.3035719818306644
2.83984375,-1.2820542911152693,0.07214694733697723
2.84375,1.498753631773035,0.9240870533646501
2.84765625,0.01330292707770781,2.0124255185124924
2.8515625,0.7193282283766472,-1.2707234986079847
2.85546875,-0.2812368167399381,-1.7174190030169914
2.859375,-0.11533187206181747,0.9559202534260756
2.86328125,0.6986090116901135,-1.591014972893918
2.8671875,-0.16074424943629484,-2.4075156715200174
2.87109375,1.0741183911483474,-1.3457234464827166
2.875,-0.42868947966193643,0.30550350400552784
2.87890625,0.6740067064068236,-0.6911624206129462
2.8828125,1.4385995184239955,-0.5588023083595606
2.88671875,0.04615550690612331,0.28948673665789443
2.890625,-0.16117382611745373,-1.7832282838718192
2.89453125,-0.12790244525468375,1.5565098108093602
2.8984375,-1.8730464361978505,1.421939035744742
2.90234375,-0.08261572912496473,0.4408984534477604
2.90625,1.6689075443151566,-0.8008770273791548
2.91015625,-0.37875923421775287,-0.6885524408017982
2.9140625,-0.5870079981992147,0.36679347943551527
2.91796875,-0.13496281396205598,-0.5541535352965667
2.921875,-2.778999763433829,0.4318685593446252
2.92578125,1.564291446901158,0.4452661559968104
2.9296875,0.19012306380276475,0.2943496249102097
2.93359375,1.1284114377530412,-0.5527071048047945
2.9375,-0.11255010568783387,0.28881291212209687
2.94140625,0.9026417986950128,-0.33613327510877655
2.9453125,0.06928489825635482,-1.143386305868469
2.94921875,1.4585517099545489,1.0517072733377195
2.953125,-0.8548069294522511,-1.1989620269329635
2.95703125,0.7435060307249182,-0.23469111962701625
2.9609375,-1.066124791565875,-1.7783753040713886
2.96484375,-2.0164127984652853,-0.5232948706645526
2.96875,0.530976262799532,0.9403311291603321
2.97265625,0.5607397641964948,0.9335808597678282
2.9765625,1.513199334085841,-1.1594727059248884
2.98046875,1.0405010257956877,-1.8214250332785573
2.984375,-0.6790517267845849,0.447401403229358
2.98828125,-0.47087862578424605,0.07328968706500262
2.9921875,-0.57182589595434,0.8321718629445536
2.99609375,1.679632425745711,-0.871264928097187
3.0,-0.2034873701724897,1.675784072808029
3.00390625,-1.6642028275338694,-1.2263321135257284
3.0078125,-1.6144953366160457,-0.16657092480857244
3.01171875,0.8267183655329695,-0.15854019326879332
3.015625,-0.9035752982192184,-1.4589234275608736
3.01953125,-0.6830832913107503,1.1629265924578596
3.0234375,0.14602359704227183,-0.05546460382603633
3.02734375,0.772851448035201,-0.5099414314231796
3.03125,1.6963969301100579,-1.8302688700539755
3.03515625,-1.044212329032566,-1.489143311035407
3.0390625,2.096616546856818,0.6059536081863103
3.04296875,0.7579916589132744,1.8514561341332425
3.046875,2.26467467596515,-0.4261147502254109
3.05078125,0.33640399840245394,1.1070501542605122
3.0546875,-0.9865226067339201,-0.657541286539223
3.05859375,-0.9491864829405253,0.9006922139402079
3.0625,0.2816109681073746,0.21755369029657676
3.06640625,-1.186721563313817,-0.8589387518849835
3.0703125,0.5781929978496992,1.008650388039157
3.07421875,-0.35687965416328943,-0.8314212546710413
3.078125,-0.03193419277819352,0.6188728764333482
3.08203125,0.03820980119740215,-0.3471797021667708
3.0859375,-1.4111678212928525,0.4293376077978548
3.08984375,-3.0461775289353805,-0.6617821837694843
3.09375,0.21804248385208616,-0.1922302881952229
3.09765625,-0.6177401844818033,0.6233034703014224
3.1015625,-1.2237574766481452,0.41185945444025523
3.10546875,0.5392184560649456,-1.0566035927699668
3.109375,-0.5356205919426861,-0.04150519060505229
3.11328125,0.6547425584830622,-0.747305199824558
3.1171875,0.22473161283484525,-1.6987249201592514
3.12109375,1.7101470685199467,0.00416600660883422
3.125,-1.5741943675317849,0.570567144988898
3.12890625,0.0450086492730158,-1.437650355946609
3.1328125,-0.5279341243973928,0.874550872034275
3.13671875,1.4531922508091772,0.732660473538625
3.140625,-0.8333501358217351,0.14195398248303048
3.14453125,-0.6284369512273639,0.6464699550163973
3.1484375,0.435660212992669,0.14811397123023132
3.15234375,0.7488721720890411,-1.1683391083686903
3.15625,-1.245445514933099,0.2885814633641792
3.16015625,1.2840884519269047,0.9272158638548789
3.1640625,-0.8662047964103733,2.1330025988200125
3.16796875,-0.42623489332780573,-0.41962503295105186
3.171875,-1.0260317196454634,0.571068435438003
3.17578125,0.1720352287668693,-0.6179938089907188
3.1796875,0.394112597190809,-0.03840892906952563
3.18359375,-0.6097276058667886,-0.5534372069030654
3.1875,0.7432107016547401,1.3584832589441558
3.19140625,-0.19910024445210706,0.37089567941384916
3.1953125,3.0409262778398003,0.1073487967748416
3.19921875,1.058768431955209,0.4636231366051258
3.203125,-1.19842174073124,-1.2330502947781359
3.20703125,-1.0428915881190226,0.6650583308180107
3.2109375,-1.9448943372476377,3.002543817472338
3.21484375,-0.3252111073982353,-0.3566936712045825
3.21875,-0.8944390320260179,1.4823464778032647
3.22265625,-0.038124230853936306,-0.49163379141133157
3.2265625,1.660919662072098,-0.8969758897804309
3.23046875,0.9635255114878643,-1.8031791028154704
3.234375,-0.21598233005543516,-0.12312981447046356
3.23828125,-1.9644000243644784,-1.8035746383334639
3.2421875,0.41293217085996553,1.9047498767181703
3.24609375,-0.2988546237303326,0.4043544595551024
3.25,0.9947785022343567,0.11955011220548536
3.25390625,-2.2347988374753993,-0.7930023735060964
3.2578125,0.24707066009336467,-0.44883151999013615
3.26171875,0.008868791026403724,0.4973232238160287
3.265625,-0.17808702266983892,1.1962362769040864
3.26953125,0.5572263311962868,-2.8948757761363075
3.2734375,-0.48173149764003415,0.4166743581285643
3.27734375,-0.4220062543861522,-0.9210098944646204
3.28125,-1.1295752727886677,-1.0654622470969113
3.28515625,0.03709935042071173,-0.5563788375195428
3.2890625,1.1787029154759494,-0.05116322878796105
3.29296875,0.5921178496169821,-0.5029794402029996
3.296875,-0.02843963303800029,0.2573401217919503
3.30078125,-0.2645586634054773,-0.47579588424657937
3.3046875,0.21633644874871413,0.1297806357684403
3.30859375,-1.735590595035107,0.8631898590094829
3.3125,-0.44266346296407544,0.6391619581815455
3.31640625,-0.17306156667781095,1.5013639224802773
3.3203125,-0.6168680079363844,-0.6056055881373466
3.32421875,-0.03652731145065073,-0.42501466845242647
3.328125,0.21199081551064855,0.30396337263436557
3.33203125,1.2975584562790197,-1.0208175068154466
3.3359375,0.6214648853223632,0.8151742938843544
3.33984375,-0.17773483247143668,0.18838280371011948
3.34375,-0.889555150670977,0.3907436145848442
3.34765625,0.014943683511678706,-0.902169834874571
3.3515625,1.9662544606526724,0.4605350042458254
3.35546875,0.05379966938859744,-2.005455491013711
3.359375,0.41425596011362514,0.5492682229812061
3.36328125,0.958253682546978,1.7433267545904239
3.3671875,-0.5834721455553387,0.14457785311961488
3.37109375,-0.14000083652789141,-2.2635762176184513
3.375,-2.2120695795826326,-0.12137432215855298
3.37890625,0.20227949860200076,2.132747754021234
3.3828125,-0.6242498257428166,1.1287452518961238
3.38671875,-1.8000092196450386,-0.3060977681887299
3.390625,-0.2813963547507536,1.0225056103820702
3.39453125,0.6729743693366068,1.0298578992688374
3.3984375,1.2567245526780282,0.38978310290922247
3.40234375,-0.12611643713222623,1.2922665973940215
3.40625,-0.9566981698778538,0.7974995346037352
3.41015625,0.5798411525872108,0.11804043882281703
3.4140625,-0.018155376292082515,0.44925575435113707
3.41796875,0.8855761454305042,0.7117379392750526
3.421875,-1.557778894191861,0.1469157577588293
3.42578125,0.19640180524905923,1.4546459271539363
3.4296875,-1.5575116769585822,0.4545515260031438
3.43359375,-0.8454830074638275,1.480457171853401
3.4375,-0.7023803821671741,-2.0802018890975438
3.44140625,-2.1090912536000466,0.9221373239546043
3.4453125,-0.40386083995966904,1.4477870223679408
3.44921875,1.819535526819559,1.563835910996496
3.453125,0.13025823006938012,-0.8625176015510154
3.45703125,1.2793959291905581,1.094584739770106
3.4609375,-0.33719585936923946,1.2929408202426833
3.46484375,-0.19197297491747758,-1.0457567726453247
3.46875,-0.33309767109122246,0.5416572200341468
3.47265625,-0.9325131517540838,-0.03721932666568532
3.4765625,-0.9417164780428072,0.010298235930946939
3.48046875,0.9323892367948924,-0.6344134233626753
3.484375,-1.069885461087359,0.07911647895461897
3.48828125,-0.3302517061362933,1.8622666739970224
3.4921875,0.6859064022301566,-1.1631560225226973
3.49609375,-0.6240438583501756,-0.4724647835525952
3.5,1.019645919730012,0.25825190657087693
3.50390625,-1.2151871374992418,-2.2836879489288706
3.5078125,0.33380888667698,-1.481915558968576
3.51171875,-0.7892994736492892,0.7118164199853649
3.515625,0.15423118835782892,0.27339135268039394
3.51953125,0.28202915131797013,-0.04505563355010289
3.5234375,0.3639161509053757,-0.954249775592474
3.52734375,-0.3504142715626011,0.9868251159891988
3.53125,1.664941262172797,-0.41539085964907113
3.53515625,0.10532500549514133,0.6300033644130981
3.5390625,1.1856011792225951,0.13186153123958794
3.54296875,-2.1935633972972663,0.2506636867270426
3.546875,-1.2312777147920873,-1.7506316491122285
3.55078125,-0.13821957047074976,-2.1459268475842297
3.5546875,-0.24629764401984572,0.3667417841852675
3.55859375,1.9924580503852025,-0.31886827943790436
3.5625,-0.7924872604615021,0.7441655503421037
3.56640625,-1.6045797990421609,-0.5459977448375931
3.5703125,-0.21899903577165547,0.47829335568027287
3.57421875,-1.2368164467441027,-1.8597689224211462
3.578125,-1.5621387397672308,1.3798279037758283
3.58203125,-1.8480158510055205,2.818759991590014
3.5859375,-0.4542648474920995,0.6462233754957895
3.58984375,-0.6771006933660952,0.8999560855873899
3.59375,0.15697334501230045,1.4400947400052608
3.59765625,0.007319868822281531,-1.1071865040988018
3.6015625,1.6303800960385693,0.878044031012796
3.60546875,-2.161968308958809,-0.6261029189288155
3.609375,-0.07304542729381001,-0.6859980872564533
3.61328125,1.111065819059485,-0.39802563517813006
3.6171875,-0.4511395408555829,0.9462990727164864
3.62109375,0.41650257762166915,0.5790703593683226
3.625,-0.4038794261535605,0.34894368476662674
3.62890625,0.12933851720800735,-2.221984523299157
3.6328125,-1.4193575142365442,0.9338015389924417
3.63671875,1.2035900706994351,-1.0425706904280194
3.640625,0.7447463704809789,-1.6236091762226628
3.64453125,1.7968167106288908,0.12747409779797544
3.6484375,1.561684043364621,0.1135478926693661
3.65234375,-0.6873547391993567,-0.5959396336980658
3.65625,1.9047291497256609,-0.016488283886299807
3.66015625,-1.3342970641895737,1.8094698048453355
3.6640625,1.3017543152725188,2.402465538034539
3.66796875,1.3158899640434119,0.33911928062521735
3.671875,-0.6751224531814958,1.1586071523368735
3.67578125,-0.13737591979316768,-0.020737971645053466
3.6796875,0.7480728577638966,1.0619066343426755
3.68359375,-1.71866551928267,0.084026691523621
3.6875,0.7321621409953173,0.7371621386201884
3.69140625,-1.145222302839087,1.8663320393893448
3.6953125,0.011554121927379563,-1.275113990947052
3.69921875,-0.8998837234978286,1.0015424230133647
3.703125,0.33971556583845974,0.7819821449950759
3.70703125,1.651095444761389,-1.2582395480025568
3.7109375,-0.7900335630356871,-0.5134972752552898
3.71484375,-0.5461256313568865,2.12196723443267
3.71875,0.860829787967682,-0.29102121898521616
3.72265625,-0.9233358288788392,0.2395986563805324
3.7265625,-0.8413865580277796,2.0072665506431133
3.73046875,2.4500321195004244,-1.0839836893752721
3.734375,0.6153184997732823,0.21894136904498882
3.73828125,0.59138328851324,-0.866440044877876
3.7421875,-1.2957159912463962,0.29872134934242545
3.74609375,-2.7043060114515822,-1.4070504671547255
3.75,0.5898472013104413,-0.16015861392241038
3.75390625,0.997249634321806,-1.9759902515119745
3.7578125,0.788533029145741,-0.006595321828052587
3.76171875,0.1894153209906366,-0.6259849868269537
3.765625,1.0153975627585021,-0.9587172649098753
3.76953125,0.6833672000904976,0.317058382582634
3.7734375,0.7704278385783961,-0.9085679413720458
3.77734375,0.2641905800782908,1.2865300438014973
3.78125,1.3343046164102939,0.48203770992929373
3.78515625,-0.4176254541516947,-0.9854638524770558
3.7890625,-0.6183923220247983,-1.0279230057986797
3.79296875,-0.5216257325837536,-0.17645702321843545
3.796875,-1.0008084360033433,-1.2425673011650944
3.80078125,2.1122028091149105,1.5373311413677762
3.8046875,1.9279135411101442,0.4606148532424789
3.80859375,-0.4255225563032207,-1.2959647241733336
3.8125,0.4629512877965721,-1.1026323463147552
3.81640625,0.36951430954296793,-0.18727111401372487
3.8203125,0.8918773097061824,-0.8205018402493298
3.82421875,0.5570857426014002,-0.13198402372240983
3.828125,-0.967438611647452,-1.9500738078191566
3.83203125,1.7424614556915259,0.7415463319660903
3.8359375,-0.11994229160931924,1.5291140355978339
3.83984375,-0.9303418708271557,-0.41807574683342613
3.84375,-0.287156820014371,0.22904963394539585
3.84765625,-0.4633248257675213,-1.338193864580614
3.8515625,-1.4374122098277655,-0.229853122706918
3.85546875,-0.1030589347264924,0.17780464193207057
3.859375,0.27985433995554415,-0.48134260074630236
3.86328125,-0.8543671031678471,-1.1494224398885868
3.8671875,-0.08111666752313583,-0.1647326114245831
3.87109375,-0.3586894430853842,1.4624420101887692
3.875,0.7493926022913686,-0.9390693767943528
3.87890625,0.33037626629747135,-0.38704972331524873
3.8828125,-0.06960876919959348,-3.26257512894462
3.88671875,-0.8910906474761539,-0.5425869953969312
3.890625,0.9488276885635932,0.8765569377659074
3.89453125,1.0755907808122234,0.25969669771828263
3.8984375,0.7131614148790142,0.4465796995889934
3.90234375,1.0495348111755334,-1.0576052289362339
3.90625,0.8192681080854228,1.0490613049538866
3.91015625,0.978606360227712,-1.00282101225221
3.9140625,-0.07773359404481425,0.25886811875937854
3.91796875,0.22112161487891835,-0.6421595909681134
3.921875,-1.3529224721003654,1.7899945247671012
3.92578125,-1.368573728027022,-0.664264773037943
3.9296875,1.4414852968332463,-0.04528091970970355
3.93359375,-0.6740602187784716,-0.41623459895250875
3.9375,-0.5508033485814048,-2.2126064016651332
3.94140625,2.423463694286471,-0.4494009888514986
3.9453125,0.6679560017090687,1.0858110118197597
3.94921875,1.5147211128793034,-0.6605555779402246
3.953125,-1.2341664887925725,-0.751090034375215
3.95703125,0.027835835356404423,1.2599520081989612
3.9609375,-1.9735014610040826,0.9991868844304795
3.96484375,0.7718576388554407,1.6938564803852265
3.96875,1.4297318688566547,0.788497202672539
3.97265625,-0.20689573553182927,-1.4483455165321444
3.9765625,0.6694999194278214,-0.5063026517242734
3.98046875,-0.9320051543307777,-1.7980597771201048
3.984375,0.6711215588254976,-0.7421007248386156
3.98828125,0.4266553292204408,-0.6078025437672887
3.9921875,0.09742879174495231,0.0912186359879912
3.99609375,0.8895062226106798,-0.7667574878270732
4.0,0.16027054723795522,1.1155067688154126
4.00390625,-1.3699322224774602,-1.2498769690201046
4.0078125,-1.4682688212049895,1.5816985728406796
4.01171875,-0.462738758065443,-0.8573593216592075
4.015625,-0.4862000200266056,-0.09205917799819428
4.01953125,-0.1816267028415278,-0.8650787525139142
4.0234375,-2.226787784887878,1.1035799040758156
4.02734375,0.8026303742445127,-1.089867936141304
4.03125,1.687056623852683,-0.23607472724398523
4.03515625,0.3223136071464933,1.230173915160262
4.0390625,-2.119068000686455,0.7808234206510508
4.04296875,0.7287865545242646,-0.7488996902782695
4.046875,0.8860791532035778,-0.7028451563770941
4.05078125,-0.8425617911975712,0.4689024102344038
4.0546875,-1.026177020814195,0.20828045743720475
4.05859375,0.37840643441564664,3.2548084817983103
4.0625,0.03681098541619986,0.10207552903341854
4.06640625,-2.0332759352289824,2.3789382954710043
4.0703125,0.5595580358376936,-0.8046902456271753
4.07421875,0.4120145905706,0.6965112071970402
4.078125,-0.38528945354125865,1.1704662010655467
4.08203125,-0.3929965280498096,1.0273065586231753
4.0859375,-1.8856072299796407,-1.352049562701788
4.08984375,-0.05468211505085011,1.3199589788539696
4.09375,-0.16723884943703915,0.5869154615278983
4.09765625,0.9894569894079196,-0.5788015782600981
4.1015625,1.6663192584053048,0.11093287607597975
4.10546875,0.888999966151734,0.0539647335459423
4.109375,-0.012306317530334662,-0.28209043231528846
4.11328125,0.20799142873782075,-0.5175100066074728
4.1171875,-0.444248460643319,0.5125360702343897
4.12109375,-0.5387925123555208,0.7090997717877302
4.125,1.5277035433539303,1.2463547370345407
4.12890625,-1.2957815208144423,-1.0675661801599903
4.1328125,0.012405638166535003,-0.7254415255115331
4.13671875,1.2006478836226606,-0.9568727413889704
4.140625,0.5626039352733213,0.09043637754709721
4.14453125,0.41296539740161026,0.5482773080182551
4.1484375,-0.5536518242715189,-1.058807302308695
4.15234375,0.5222065678672616,0.05717827938388431
4.15625,0.023356169923471903,0.1343882944905048
4.16015625,1.4173887071022393,0.4856018649294918
4.1640625,-1.8051381571173786,-1.389476120582679
4.16796875,1.5759363545353933,0.6767299525905843
4.171875,-1.8250632180865893,-0.20638079637891005
4.17578125,-2.497738792294957,0.5226162945700785
4.1796875,-1.1941916521892604,-1.3393755862062515
4.18359375,-0.0710237411787962,0.9971568945480578
4.1875,0.6979869418718162,-0.46684605283124603
4.19140625,0.99783551024324,-0.36436958365596167
4.1953125,-1.129117608894999,-1.3467897107084117
4.19921875,-1.4618956765415683,-1.2614647744887648
4.203125,1.7742168342715212,0.31055080025130655
4.20703125,-0.19216991193403,1.3131111315614112
4.2109375,0.6736632909079611,-0.7711356857391386
4.21484375,0.6282931179760088,-1.48768424692818
4.21875,-0.7301631755101199,-0.4623244878442863
4.22265625,-0.26381591636876994,-0.7437509143795857
4.2265625,1.334439678009505,0.060649221182758055
4.23046875,0.5370930637960762,1.8125000943389709
4.234375,0.26008543642657034,1.2600699672682856
4.23828125,0.8555509289998233,0.14041137025148828
4.2421875,-0.6005351438054269,0.5268569047769215
4.24609375,-0.47558719898589286,-0.2093255877422333
4.25,0.5454170886662822,-1.0747190567842393
4.25390625,-1.8181185248624818,-0.12525500967735193
4.2578125,-0.13408444421878976,-0.9072804088712282
4.26171875,0.18086638115619902,0.5538291054262715
4.265625,-0.13535590018223045,0.8582994514996036
4.26953125,-0.4580334464271332,-0.6107077538364566
4.2734375,-0.36688820752128126,0.37434075126409494
4.27734375,-0.008704546338745003,0.9169946335202126
4.28125,0.4875268842020292,-1.1892489182966415
4.28515625,0.5262875459798126,0.7603494939979131
4.2890625,-1.1426650797261342,0.9390484858101852
4.29296875,-1.6469798984692676,0.042898689532202564
4.296875,-0.058097705272510215,1.0875353521253919
4.30078125,0.22790285987992015,-0.4170769801238433
4.3046875,-1.464251548292592,1.2915971517932925
4.30859375,0.18881195933450073,1.3530983317458685
4.3125,0.5664234389156144,2.3618355027688884
4.31640625,0.6091668262139374,0.6588208634328583
4.3203125,-1.2584270716425268,-0.9013053760440742
4.32421875,-0.9583151329998588,-2.4070572242650212
4.328125,-0.5608959496517368,-1.1290490229919967
4.33203125,-0.9705152575092293,-1.1714542178601766
4.3359375,0.7377886683904098,1.185891148101592
4.33984375,0.695233409622737,-2.235840356439893
4.34375,-0.9595341615731605,-0.3447976204633226
4.34765625,1.3671354734955772,1.8294211062649006
4.3515625,-0.8817804491910421,0.14042398740141657
4.35546875,-1.2480039914198722,-0.4275963252183623
4.359375,-1.2119927278066267,1.2737954074875382
4.36328125,0.4856265715044567,-0.9241606005470876
4.3671875,0.417573931434088,2.317647911116783
4.37109375,0.8156409434202826,-0.6627158072995281
4.375,1.6530530970006785,0.5127456732888646
4.37890625,0.7013064871081525,1.1047012836804613
4.3828125,1.1190774381644903,0.5675998345628298
4.38671875,0.4911106783559592,-0.012252987865836104
4.390625,1.155254336349188,-0.37035241189533513
4.39453125,-1.7790753188255912,0.4535905100157198
4.3984375,1.7554779037583874,0.9359469610098375
4.40234375,0.08319330449743013,0.09043120502425131
4.40625,-1.233225288869234,0.8172629778540274
4.41015625,-0.8377729841011606,0.46351522422416225
4.4140625,-2.3317794858774605,1.558952522833618
4.41796875,0.024596502551519628,-1.7184563918932236
4.421875,0.9867769626455575,-1.5056681257435045
4.42578125,0.4970593799859394,0.6756164997081286
4.4296875,-1.0055299877356207,-0.47183134437211094
4.43359375,-0.7590195148514124,1.399952441890478
4.4375,1.5593147221243602,-1.6385704746967475
4.44140625,0.5629814062406292,0.6908605423646217
4.4453125,-1.2412528956566111,0.4551801509740648
4.44921875,0.6982825778668892,0.32126007600753803
4.453125,-0.12710111545919756,-1.1542784799525265
4.45703125,-0.2113793694498379,0.44045227110574353
4.4609375,-0.020772243521179404,-0.053902310032871804
4.46484375,0.06489297545399504,-0.6942999392619631
4.46875,0.8532071049764083,-0.29157778547996965
4.47265625,0.12412239135157975,-1.3449064764541365
4.4765625,-0.6530129491128608,0.03454630829443278
4.48046875,-0.44731070712708265,-1.2723189272572137
4.484375,-0.22588029245330182,0.5791440968910917
4.48828125,-0.8065628708942952,-1.1010059729016985
4.4921875,0.7918554535001108,1.069438335693652
4.49609375,1.5540392918133032,0.8069112809970881
4.5,-0.3665459976667313,0.5326523011789034
4.50390625,0.1715011297164902,0.3046886469954942
4.5078125,0.12711099801098702,-0.0007264387686708204
4.51171875,2.6450889739041235,-0.03250515742767911
4.515625,-0.04114106752669507,-1.8195319375603236
4.51953125,-1.2288163653248996,0.1369231682428359
4.5234375,0.35867659539747754,-0.05075496344153554
4.52734375,0.5268658162495424,2.150743051885968
4.53125,-0.4312733856622675,0.17112418175339494
4.53515625,-0.6190645623229172,-0.23501312182238704
4.5390625,-0.18409676639370545,0.33857718708572826
4.54296875,1.306562699940869,0.18966822418599957
4.546875,0.35512595533536073,0.9140717828946343
4.55078125,-0.931787994154917,-0.4916774453838993
4.5546875,-1.1823223073781841,1.346535909126591
4.55859375,0.5644868918128054,0.7847608995543414
4.5625,0.9678703389500453,0.41270021497542164
4.56640625,0.6508954769672698,1.054986757156788
4.5703125,-0.30048835290136355,0.0007302349246489807
4.57421875,1.6218649636578955,-0.06815787232949179
4.578125,0.8718704281908389,-1.0461112728664712
4.58203125,2.064846174021215,-0.5598783017221659
4.5859375,2.216571612364988,-0.3949716745601074
4.58984375,1.6146922301065871,0.008843327259973445
4.59375,-0.31470642148410366,2.238334870348154
4.59765625,-0.6006796938986286,-0.7862942454430063
4.6015625,-0.5712065985632173,-1.8055077954789238
4.60546875,-0.20765697603703223,1.6866344704862917
4.609375,-0.17870177618532707,-0.2239276257470229
4.61328125,-0.5159999415714968,-0.44727713046874096
4.6171875,-0.32158959556873856,0.7064545085452817
4.62109375,0.5130922792847921,-1.2354221401502803
4.625,-0.9819427195801939,0.007470973143822591
4.62890625,-0.5789749777213979,-0.06815453900616857
4.6328125,-0.3958442476564143,-0.4053270149222243
4.63671875,-0.5030805537016223,-1.0917417031726975
4.640625,-1.0511921989712887,0.07987117256045517
4.64453125,-0.6132683516160083,0.3041483062822744
4.6484375,1.309534909684456,-0.2863102922109107
4.65234375,-0.23881058885156214,-0.2115040824419769
4.65625,-0.18566801804737748,-1.1441300207799285
4.66015625,-1.1259398303768726,0.32847708996370945
4.6640625,0.27844479429122415,1.3457414677308468
4.66796875,-2.1152432120843994,0.6297357744025406
4.671875,-0.8148274011622181,2.0582781538003347
4.67578125,0.8638601544165182,1.8293484652689225
4.6796875,-0.29414828448931335,0.49926885358787065
4.68359375,1.8045105717546353,-1.1795849137943277
4.6875,-0.6163438937175973,0.5749155718791089
4.69140625,-0.39723017576302483,0.2416401091173346
4.6953125,-1.302963445105651,0.06257966565805947
4.69921875,-1.1301565588691995,-0.8423868359090728
4.703125,0.3468683623461262,0.5885154407660392
4.70703125,-1.5801612056900913,-0.8383732812775897
4.7109375,-0.07659233549555894,0.4452213860577812
4.71484375,-0.06194369092942259,1.490068674655715
4.71875,-1.6620912978052758,1.5754207689267867
4.72265625,-0.10710115147027573,0.6396149229569456
4.7265625,-2.0105437374563233,1.683354221010021
4.73046875,0.12763062531593883,-0.08967309705411315
4.734375,1.1008633291446144,0.020780639468401835
4.73828125,1.849398453345406,-0.8198974756105429
4.7421875,1.6626717683757541,-0.10389843987773724
4.74609375,0.32470728373286717,-0.15937181803410194
4.75,-0.7926493750746758,0.6029502071188576
4.75390625,-0.1405571002746744,0.8455464899982572
4.7578125,-0.011991940032896886,0.5593284720302948
4.76171875,0.48006677390658226,1.1525219001232334
4.765625,0.34102817928794193,0.1270722385539471
4.76953125,-0.10925755776803442,-0.9702507279295367
4.7734375,2.471824652147182,-0.1814602939155675
4.77734375,-0.5765802236122156,0.8184720709799772
4.78125,0.1885923997641013,-1.823679811962934
4.78515625,0.5688064400952745,1.036347398464892
4.7890625,1.1573047398426897,1.6408691329918437
4.79296875,1.327689173382492,-0.8604620302495664
4.796875,2.00538588958472,0.22998014810957662
4.80078125,-0.34072262238267853,-0.30938748127897336
4.8046875,-1.547953380876768,-0.9241264366612141
4.80859375,0.08405850208272005,0.13563695139967055
4.8125,1.3723094743093585,1.7611774021588666
4.81640625,-0.38971967290712495,-0.6672969653507517
4.8203125,-1.660525275878861,-0.6036834160780519
4.82421875,-0.48441751193265137,1.7956216267792475
4.828125,0.12239089313053676,-0.03933022927360628
4.83203125,-1.6655480864036278,-0.2857239229372384
4.8359375,1.062450461033721,-1.6828640997112074
4.83984375,0.42104958214207566,-0.1733102230858142
4.84375,-1.6314174168604727,-0.210651917401859
4.84765625,0.18759271514790496,-0.5926800731974488
4.8515625,1.5954562164603938,0.7740961938273792
4.85546875,-0.37167812111749976,0.5064199601103366
4.859375,-0.40156814834321636,0.02692281785807759
4.86328125,-0.7868117149092688,1.4797101976869764
4.8671875,-0.8300175548802623,1.406637671280179
4.87109375,-0.3792325714983773,0.6087607138482641
4.875,-0.02098058087519965,-0.062415186233024736
4.87890625,-0.7906562831523282,-0.5396983627714946
4.8828125,1.157207410054628,0.05556486339368497
4.88671875,-0.4629955047892171,-0.676424136484784
4.890625,-0.2973582667120971,-0.8551582755500451
4.89453125,1.598463217576496,0.9097573703731802
4.8984375,-0.5111191869250238,1.0769238255407916
4.90234375,-0.028590939947686637,-0.3869426634427729
4.90625,0.03315022203179702,-0.048419986911243384
4.91015625,1.4380911269707461,-0.8050647936230241
4.9140625,-0.6837614139663014,-0.07869510806038929
4.91796875,-0.20277354435672562,1.2422437226828897
4.921875,-0.28783011444110645,-1.9907072441350746
4.92578125,-1.8923208615528602,-0.568829340017885
4.9296875,2.150504506414976,-1.620950526915756
4.93359375,-0.40939348296130895,-0.037646176862824184
4.9375,-0.10427131724970874,0.5205024661658376
4.94140625,0.9121568318848313,-1.8121013747136998
4.9453125,0.6534749697490124,0.628178965753781
4.94921875,0.452432146858199,1.9717217830293758
4.953125,0.1622333342869226,-0.9002463750497087
4.95703125,-1.1689186997441168,-0.6348633498843507
4.9609375,-1.14230513994816,-1.0278295556574801
4.96484375,-0.2219191767845796,0.5301875792719222
4.96875,0.45590355411403993,-1.7570688104732313
4.97265625,1.3771099362145576,-1.5761937194750748
4.9765625,0.7284646386618073,-0.1652403986811086
4.98046875,0.8696348486967143,-0.28026451395102087
4.984375,0.1831033154537526,0.3478066499532116
4.98828125,1.363031024786132,-0.19357793426950234
4.9921875,0.20168083036832374,1.5530290540627298
4.99609375,2.5882779615665177,0.6532074333691389
5.0,-0.5706953393315615,-0.5074908017371584
5.00390625,1.3238010220831062,-0.5790544418520717
5.0078125,-0.6836033653943103,0.9573634837258364
5.01171875,0.5349079492211093,1.1549438739271387
5.015625,1.365995871016518,-0.08729581676812953
5.01953125,-0.15628599493723175,-0.611731759769325
5.0234375,1.469381799879583,0.7139830116366538
5.02734375,-1.3142242422629895,1.4368927138307512
5.03125,-0.3004033937420654,1.397915043545633
5.03515625,-0.16629523485626962,-0.45936586893670533
5.0390625,0.6801581637748644,-1.296463192666537
5.04296875,0.057578877443868415,0.9776042859481244
5.046875,0.8531523623173647,0.6233086798546348
5.05078125,-1.3458571651504667,-0.013221408028000118
5.0546875,-0.07860129963847877,0.6190858560743614
5.05859375,1.9897870044035026,0.8802688099166673
5.0625,0.5682934747544525,2.3574925304454264
5.06640625,0.5935964535976381,0.9317804203386295
5.0703125,-0.7031465914629614,-1.1624059801866162
5.07421875,-0.642707658131609,-0.6932933775342832
5.078125,-2.656898845031804,-0.010798482963209453
5.08203125,-1.490866507030481,-0.5936356837863566
5.0859375,2.1729992481636575,-0.0980796617132048
5.08984375,0.46446369924944736,0.980689962431309
5.09375,-0.39214206912504473,2.384606673616591
5.09765625,-1.2625406823648002,0.5856166792279317
5.1015625,-1.2529492587794107,0.9938739665104482
5.10546875,-0.2904783317261677,0.2563775597721094
5.109375,1.3796459517500883,0.59573528513431
5.11328125,-0.6250793246184124,0.5540166538462551
5.1171875,-0.11490625051167562,-0.01850437205287533
5.12109375,0.42743374237647863,0.3904740216710865
5.125,-0.5777904294468416,-0.7066324116376772
5.12890625,-0.4481538660357263,0.7318673385983289
5.1328125,-1.327314742778465,-1.317696314155891
5.13671875,1.3246872804554053,1.445395871059808
5.140625,0.7016943774018314,-0.7327078376550836
5.14453125,-1.1564599394736563,1.3436661351790633
5.1484375,0.617016031058563,1.0747461480082023
5.15234375,0.7758960580032154,-0.06638486021077619
5.15625,1.0619648336375684,-0.6948800292783458
5.16015625,-1.002082861508519,-0.2506864705900529
5.1640625,-0.1849108736430968,0.746688411291049
5.16796875,0.06567468306456362,-2.280863674653901
5.171875,-0.9160593488097365,0.547258545441561
5.17578125,-0.24458238195526363,-0.5990163716680335
5.1796875,-1.794959263582676,-0.8274046713754998
5.18359375,-0.4032020755864651,-0.038422915253173213
5.1875,-1.3476273442479398,0.03231841779852901
5.19140625,-0.9035793288098654,-0.7184086786439186
5.1953125,-2.1436702073857576,-2.185669173806968
5.19921875,-0.3372290756485849,-0.4415797487076901
5.203125,0.9928672887095928,0.5524076030942795
5.20703125,0.6151348290381436,-0.6378784380857768
5.2109375,0.9944887923367393,-0.90270235009287
5.21484375,2.0072431725003868,-0.010034045331039833
5.21875,-1.5690510930822699,0.4934754423844818
5.22265625,-0.2820972121549964,1.1351110956661095
5.2265625,-0.26771814784522435,-0.32832397925107626
5.23046875,2.0368158522288895,0.18021421263340215
5.234375,1.3870822850148432,-0.2682422297010689
5.23828125,0.731928542410408,-0.19401274078173264
5.2421875,-1.3101273393272737,0.02784324112480827
5.24609375,-0.11668126464347442,-1.1027374804273835
5.25,1.1005994238499555,-2.2537745995177
5.25390625,-0.6706370085953455,0.6453967852801953
5.2578125,2.1137280112058505,-1.1711806509905822
5.26171875,-0.17479370082676085,-0.8705025807065225
5.265625,-0.741103021200377,2.3175280642674307
5.26953125,0.9980975185844881,1.8082379887997995
5.2734375,2.162535750958999,0.0646933832301805
5.27734375,-2.167332050192901,0.9536645509531945
5.28125,-1.0555587130578177,0.8302416835369696
5.28515625,-0.11555026372040923,-0.22891071113432804
5.2890625,-1.4897594613128857,-0.3535160297586352
5.29296875,1.83119298909051,0.12135044276198427
5.296875,0.6711797187676695,-0.021355687242875232
5.30078125,0.1287224481052361,0.8289923558433545
5.3046875,-1.301023059431294,0.7295286576755746
5.30859375,0.6935139932597341,0.47685833214482737
5.3125,-0.8702250104480235,0.03875690495690131
5.31640625,-0.22058316816160167,-1.1230179203594852
5.3203125,-1.6063826902506906,0.5499772052207053
5.32421875,-1.7691448240770284,0.29757504366536675
5.328125,0.9210857013118517,0.05145227616387195
5.33203125,-0.18417571773733718,-0.2862770539118229
5.3359375,1.7003660460794559,0.873354090277334
5.33984375,-1.1597415367566062,-0.5135490547192372
5.34375,0.786755870503111,0.8077797900701517
5.34765625,0.43441855684686004,-0.0695567546859636
5.3515625,-1.3410536841900627,-2.110981609525809
5.35546875,0.8859616007935028,1.8119384049339824
5.359375,2.123385108285738,0.1248127277029641
5.36328125,-0.8705515289823862,-1.40945041117994
5.3671875,-1.4736345267598603,-0.4918951952508158
5.37109375,-0.07976011918695773,-1.2342123806865326
5.375,0.2828562351649848,0.5877455267623914
5.37890625,0.6514114424842778,-0.9597382467562345
5.3828125,0.9167641168067376,-1.4544577746588347
5.38671875,-0.11354653978825735,1.396680747781478
5.390625,-0.8308383336619537,0.19483748430567652
5.39453125,-0.7567881557088044,-0.16728963275845843
5.3984375,-1.8804578440479471,-2.231136643790749
5.40234375,-0.4018825462638204,-0.45217100618491624
5.40625,-0.010599660446920605,-0.8782615842017983
5.41015625,-1.6593279958742566,0.5117630124618897
5.4140625,1.0572054942771485,0.85703043129706
5.41796875,1.0446562711020282,0.05405514598723429
5.421875,0.7480240516680244,0.0659179305108873
5.42578125,-1.4726116956989588,-0.33514938687830903
5.4296875,-0.1840253560901606,0.38867904794224306
5.43359375,0.588605306617145,-1.1343597451288763
5.4375,0.453540790838615,0.5694962322950279
5.44140625,-1.121780966796443,-0.43169816737493133
5.4453125,-2.2449290994047826,0.27056008662757314
5.44921875,1.4413190049969804,0.33739667259264455
5.453125,0.8329605165778072,-0.7246379689608234
5.45703125,0.15933257782907315,0.5770635294629324
5.4609375,-2.5740745595749153,-0.34649907965739446
5.46484375,1.4264087696303247,0.02115504149391143
5.46875,-0.8981296516980808,0.537037995849164
5.47265625,-0.8177277275642626,-0.4499615437242992
5.4765625,-1.21043438283452,-0.24213912943538038
5.48046875,-1.4112893158588151,-0.0978821230449658
5.484375,-0.8962067443152196,-0.9398035675283991
5.48828125,-1.3545474062790364,-0.7639394901499349
5.4921875,1.0565160214674734,0.14233707759839145
5.49609375,-1.0086211106895133,0.10302158530762119
5.5,-1.0908604794096057,0.4529850963457957
5.50390625,0.11659503801986926,-0.4359897444522161
5.5078125,0.17857390721851552,-0.8386424010722818
5.51171875,-0.025989086144964275,1.4747264782583274
5.515625,-0.30935169497807113,-0.8498664158666724
5.51953125,1.2909290474474306,-1.0886806608467374
5.5234375,-0.25119151518694516,0.32377750556044405
5.52734375,-1.5438840835797558,-0.6798801032443886
5.53125,1.7944636956860163,-0.1941066101286018
5.53515625,-1.0292977064150937,-0.1574491321141302
5.5390625,-0.8687527134310691,2.1465232652910418
5.54296875,0.09297058209045234,0.6827197294064495
5.546875,2.0258283737596847,0.410710674589057
5.55078125,-0.9073682507338509,0.7704212874710672
5.5546875,-1.6312343763269754,0.05126330006759758
5.55859375,0.8877421355675945,-0.09346964017590681
5.5625,-0.3110987079172368,-0.29153399877480357
5.56640625,-0.5807777029749225,1.1165563744434306
5.5703125,-3.424740055849144,0.6422564379764837
5.57421875,-0.19232711178677916,0.7155598326689576
5.578125,-0.5408153211483636,-1.4203263102364054
5.58203125,-1.8087262230763954,0.9551442637354886
5.5859375,-0.2986819959563314,0.6879588522393709
5.58984375,0.6773438126739214,0.3245345017660021
5.59375,0.7698477084104174,0.03597156901804861
5.59765625,-0.11124173788809313,-0.8128512158872946
5.6015625,2.5394777537269846,-1.969755097292802
5.60546875,-0.9528012024832131,-0.4595039130356611
5.609375,-0.660128667991649,-0.017780009547239524
5.61328125,-0.3518330705416799,-2.4087981602338724
5.6171875,-2.106424206301993,0.6318601321666466
5.62109375,0.37835283713015044,-1.2049958691873184
5.625,-1.0446692843631513,0.7707578678109622
5.62890625,1.9660609046317412,0.7875894150492436
5.6328125,-0.089017691292988,-1.3074075192080592
5.63671875,1.385842072000506,0.4199690632549124
5.640625,-0.635030751113039,0.08439144951492283
5.64453125,1.2281861939858543,1.0850738802900648
5.6484375,-0.4506217367077032,0.01344937317104126
5.65234375,-0.06169589418459687,0.8130018878697989
5.65625,-1.011327169267195,-1.7334585922407382
5.66015625,0.4936132508110059,0.651439032284468
5.6640625,-0.11195594815292632,1.4228351488417514
5.66796875,0.705384613480456,-0.9785658910314555
5.671875,0.8917704930153527,0.9268945271409963
5.67578125,-0.8586063796698192,-0.9141641566800052
5.6796875,1.1164214092750178,-0.391877688062036
5.68359375,-1.0772408403166476,0.9615323333462952
5.6875,-0.8678074851591536,-0.5758854938545229
5.69140625,0.9239302195956518,0.6523468446391139
5.6953125,-0.8895057151379941,-1.4446226173550951
5.69921875,-0.5514533316993117,-0.037981724556548184
5.703125,0.0026359124052677298,-0.6977994605132688
5.70703125,1.294862257759944,-1.678455888514504
5.7109375,0.058554458690007666,-0.2670883122270651
5.71484375,1.1875629313164242,-0.8346962768615858
5.71875,1.7904464518249472,-0.8962187250005981
5.72265625,0.09735707019300592,0.06009659709759248
5.7265625,-1.642914077293605,0.7199986911682349
5.73046875,-1.4657503401192742,-0.9676905261951387
5.734375,-1.3478220999463013,1.1768181390943868
5.73828125,1.5093755922127061,1.1547191596414104
5.7421875,0.4118692395136912,0.9745447512136971
5.74609375,0.5761826052735882,-0.08082932407713612
5.75,1.6346592232790542,-1.4483310528204847
5.75390625,0.5441619629232829,-0.049417976808850655
5.7578125,-0.8227760019309172,0.7139534530619517
5.76171875,0.8853649970064831,-0.35541146898614356
5.765625,0.47482204096452535,-0.9802405777640706
5.76953125,-1.7136139608297767,-0.02947505643536621
5.7734375,0.0577363423281516,-0.23365035481937488
5.77734375,0.27689548883185283,-1.1354559594479516
5.78125,-0.5027369169219287,1.774890137781181
5.78515625,-1.7408697414111123,-0.3245024182041384
5.7890625,0.9535980064420967,-0.2563124490920069
5.79296875,-1.3434457897978327,-0.7746669739694544
5.796875,0.09820898279666004,0.9224481422553777
5.80078125,0.2853071663663959,0.2701614618010538
5.8046875,-2.7766556346770925,-0.5460532008639676
5.80859375,-0.5205630821920537,-1.6546581712478527
5.8125,-0.8658176688924766,0.01358006283398696
5.81640625,-1.0424242184934587,0.46364027629761084
5.8203125,-0.21114954415621412,1.1073181286221367
5.82421875,1.2531934021700968,-2.0877655531100956
5.828125,-0.5683444682240612,0.6591795800957756
5.83203125,-0.13526490133805524,-0.18472685844792816
5.8359375,-1.1780681127681407,-0.4073838529592474
5.83984375,-1.1315668534335976,-0.3514949009962709
5.84375,-2.375933469832375,0.0144271275660591
5.84765625,-2.377963359749732,-0.8923104468937639
5.8515625,0.5996238806850075,0.10487879450243527
5.85546875,0.5040900710224483,-0.8807643773830077
5.859375,-0.2937632970205942,-1.66335927600658
5.86328125,-0.13033488477689512,0.32311422811204943
5.8671875,1.2563114661531671,-0.28930704831099247
5.87109375,0.13943501276757325,-0.10880640515430692
5.875,-0.56699048801748,0.8180266522267594
5.87890625,-0.3396884802156978,-0.9644628130467108
5.8828125,0.8881240427686016,0.007227473461218853
5.88671875,1.2312738166596746,-1.2182097766871447
5.890625,-0.28146750137895876,1.3449540024571567
5.89453125,0.8347604784550419,0.28375982992225723
5.8984375,-0.21429268021621198,0.2098292814557328
5.90234375,0.3272805871991812,-1.1812483225323154
5.90625,0.9024359623392681,-1.0540103978974185
5.91015625,-1.290682818603003,0.9805519586363803
5.9140625,0.7660219801906304,-0.40622052304620665
5.91796875,1.7577111134510932,-1.1407282838314878
5.921875,1.7473751424921242,0.9064181447928796
5.92578125,0.8643568690198709,1.4080467027678996
5.9296875,0.46807519087392624,0.3485695412095436
5.93359375,-0.24866266932699152,-1.0653161139459275
5.9375,-0.7964375814338134,-0.056489695586059895
5.94140625,0.5628833912280697,0.06539906828326032
5.9453125,0.6174655704572447,1.449944667179214
5.94921875,-2.760705864930657,-1.4587621139009286
5.953125,-1.0638212674700638,0.06710411778551943
5.95703125,-0.36482524845140113,0.554743758106338
5.9609375,-0.8986073044317436,0.13513397190548834
5.96484375,-1.3998428032029435,1.1700207523653416
5.96875,2.002080145944393,-0.05334401607730781
5.97265625,1.2900086369113197,0.1815365233669487
5.9765625,0.15290033105536244,-1.5780727764979159
5.98046875,0.2916317231824051,-0.29276441324373353
5.984375,1.2850795236524033,0.44742894307671904
5.98828125,0.4311180252472408,-0.5573029052752662
5.9921875,-0.5637674392645515,1.5354900946352414
5.99609375,-1.7870455861331285,-1.1576246855610453
6.0,1.1923522636519865,0.11846130340175907
6.00390625,0.40380805859240854,-0.20329354718566117
6.0078125,-0.24149516814108402,-1.0213642283501367
6.01171875,-0.024115680646846268,-0.9777383813714227
6.015625,0.4204432047999127,-0.775029750879133
6.01953125,-0.39639597103608976,1.5542173529722705
6.0234375,-0.31515594065939573,-0.6329943225771212
6.02734375,0.12590502474285883,-2.228510833335717
6.03125,0.15898670714168256,1.1667296033934051
6.03515625,0.24742314598616952,-0.7362447662324408
6.0390625,-0.14090528792773288,-1.2695798559004536
6.04296875,1.054810811009096,-0.19634777953739369
6.046875,0.46087281616359377,-0.17972855741083588
6.05078125,-0.43298976611628887,-0.7314396763243688
6.0546875,0.21309491538466593,-2.0687278550765775
6.05859375,-0.6272670423259625,-0.3662135994379401
6.0625,-1.72951286461981,-0.5111281157595517
6.06640625,-0.34078691788671367,0.7777560500453163
6.0703125,0.19132390914935193,-0.9898206343336158
6.07421875,-1.2858913610612865,-1.6792581510750133
6.078125,-0.3296240372275376,1.2619067604407797
6.08203125,-0.03150605746880549,-0.758462243454584
6.0859375,-0.9263532004233692,-1.7462628045479007
6.08984375,-0.28944142866298256,-1.2090708940191677
6.09375,0.8712701536819109,-0.16338985223995603
6.09765625,-0.31302323153320494,-0.6739063544366565
6.1015625,-0.04178712684339067,-0.8716011595886789
6.10546875,-2.435222594368059,0.8109345864501238
6.109375,-0.26440930360621906,-0.5666512957999704
6.11328125,0.28957718189205806,0.6233445751018502
6.1171875,0.001997746322655316,0.3111189330532734
6.12109375,0.21350249098163573,0.35953777391083297
6.125,-0.022803476336126227,0.303660371464912
6.12890625,1.1682583198514696,-0.033174623803495666
6.1328125,-2.0282184718288394,1.2311732385141578
6.13671875,1.3285417256222203,-0.8349151517777638
6.140625,-0.3939831649158994,0.057294075801629464
6.14453125,-0.07077906894036137,-0.5617994589500671
6.1484375,1.0170203382940217,-0.46031157377603926
6.15234375,-1.8290520960468284,1.3848071153641441
6.15625,-1.119618473481511,0.2217923961805027
6.16015625,-0.33178618953007316,0.2147054125602211
6.1640625,-0.2846387149115183,-0.14839874645572518
6.16796875,-0.22219271214924743,2.933195522195333
6.171875,0.0931983939498069,-1.9143102554837022
6.17578125,1.5168057882170514,-0.09296223589911241
6.1796875,1.9827249812665662,0.6991761461469662
6.18359375,-0.5063881795471212,0.9171253954173589
6.1875,0.28789073801448795,-0.7637412759365112
6.19140625,-0.7139281990366201,-0.8185746525832386
6.1953125,-0.13053515896286702,0.5215361507731193
6.19921875,1.0571041085751827,0.24257582716853177
6.203125,0.36185157596666434,0.5086376006241905
6.20703125,-0.9262622240556699,0.5916409268254402
6.2109375,0.2899513244954871,0.875928903367586
6.21484375,-0.0675184748998679,-0.13525314220173879
6.21875,-0.7530542766322962,0.8122862293489831
6.22265625,1.628923298424705,-1.1171637215053527
6.2265625,0.1947936343800067,1.0206505161177137
6.23046875,1.446669133365748,0.0961227930846421
6.234375,-0.13584615118937454,-1.080062935410759
6.23828125,-2.641209035788822,-1.7726173678316042
6.2421875,-0.7888578292485441,0.618108041010392
6.24609375,0.7546023367134502,-0.014389733221294745
6.25,1.9880012805970666,0.21199864783154396
6.25390625,0.08189296054981668,-0.6906510229365408
6.2578125,0.4256067464995032,-0.4249451839342855
6.26171875,-1.0515671178453774,-0.24704046211483305
6.265625,-1.0165920677006381,0.5207076269271095
6.26953125,0.27191099739432684,0.01641878928001521
6.2734375,2.44219437191049,0.005750047065422115
6.27734375,-0.37915532470469876,-0.3174893919125618
6.28125,0.734099151752305,-0.8702637414912701
6.28515625,-0.11541401499490998,-0.3692287956907154
6.2890625,0.10662911740636902,0.6006957954220927
6.29296875,-0.8653614870591951,0.07533194451787786
6.296875,0.9165472666431103,-0.592965356617255
6.30078125,0.42658631880349207,0.34336633879975503
6.3046875,-0.15361677223441736,1.6884029874169604
6.30859375,0.025657947978665264,1.1390840721975481
6.3125,-0.7851083057328184,0.19624777547887293
6.31640625,0.507650141260023,1.6060841738436178
6.3203125,-1.1827958346067953,-0.2403832714454214
6.32421875,1.393126579327884,1.4745588641332974
6.328125,0.6525156025208756,-0.38507501109592357
6.33203125,-1.2182254158368648,0.9536347699161922
6.3359375,-0.4339354160673097,2.25433594253469
6.33984375,-0.9100019337580585,-0.7172177992787269
6.34375,-1.0079072351399685,0.004908711379553464
6.34765625,1.236792975387034,-0.08081403312546095
6.3515625,0.47002764991294216,-0.07430662028789355
6.35546875,-0.04685836883739635,-1.1479114670806758
6.359375,-0.22150004090529957,0.7934801816783503
6.36328125,0.321526613557798,0.8462648308917451
6.3671875,0.010753091149083547,-0.9574779728922097
6.37109375,0.4595614559743017,-0.27126993115248105
6.375,0.42988875896700157,0.7223647175728019
6.37890625,-1.5739377798707095,-0.18381981160808658
6.3828125,-0.6752209530107716,-0.6056958612400389
6.38671875,1.162282786701755,-0.265816843388417
6.390625,1.311829859235206,-0.08857414549842987
6.39453125,1.35738728742742,-0.10860507534639424
6.3984375,-1.4026033913532283,0.3254266553310795
6.40234375,0.06881570832055925,0.6642372952570955
6.40625,-0.20467449291575943,-0.7773980493011743
6.41015625,0.409635099783204,0.8392890680507263
6.4140625,0.2606768393520314,-0.8891001611809142
6.41796875,-1.994832318592923,0.420165581665359
6.421875,0.6103682368929019,0.5888671274311749
6.42578125,-0.6821827577269398,0.24233037840799482
6.4296875,0.125621170045798,0.4016729977505865
6.43359375,-1.0139827589508406,-0.1726443070430181
6.4375,1.8634178072636898,0.0133504505985335
6.44140625,0.33809688340388216,-1.4468241739289573
6.4453125,0.4966751302016046,0.3926056905483864
6.44921875,-0.8347417564642511,-1.1147814360703314
6.453125,-1.2001206614898252,0.5077466972716183
6.45703125,0.2919254421643959,-1.5476387070018052
6.4609375,1.7201305398460058,0.28209280990552793
6.46484375,-1.209067394808241,-0.11004630236422322
6.46875,-0.9974457081780428,3.110584180813423
6.47265625,2.113474973828531,0.21295972299590182
6.4765625,0.8324813429970637,-0.8127830530143518
6.48046875,0.010962571411210244,1.6291233639375442
6.484375,-0.795518206260375,-2.0916423163211917
6.48828125,-1.0813048395021654,-0.19134634257967562
6.4921875,0.7988079371349963,1.6321938063829633
6.49609375,1.0709430911425883,0.08510724790193161
6.5,-0.8095082243974627,-0.23782557388914857
6.50390625,0.597222869656722,-0.31859318501899586
6.5078125,0.12949112275689678,0.6295488707585493
6.51171875,0.4486415908747693,-0.5596799533263036
6.515625,0.4347557473590564,0.11631098550034312
6.51953125,0.5677859174952251,0.8162592033718302
6.5234375,0.213616086084016,0.338893250529144
6.52734375,-0.5091731928986137,0.6373874939015279
6.53125,-1.1521581697597174,0.7715801982259285
6.53515625,-0.8356101434186762,-0.26873717355865095
6.5390625,0.049246041530250736,0.8327879012111976
6.54296875,-0.4240783888664088,-0.4358389749537898
6.546875,-1.2022914399814157,-2.1897569926701594
6.55078125,-0.18273830939826408,-1.2289934125726978
6.5546875,2.109058336330621,1.5410734431159743
6.55859375,-1.0967254758614902,0.8947106489032413
6.5625,-0.0004652082720952906,0.6178755306932529
6.56640625,-0.30326934030869745,-1.2080877282167901
6.5703125,-0.9566020512250429,1.4014807728131087
6.57421875,1.2509101583766238,-0.2529085265561467
6.578125,0.039324493212918435,0.6941850838258883
6.58203125,-0.9496208545240681,0.3322911587744537
6.5859375,-0.04098143378280845,-0.7617500833924232
6.58984375,-2.3221586598188804,-0.4330921633519161
6.59375,1.0053735307887655,-1.0826016794441498
6.59765625,0.10705059026018449,-0.6068640755572506
6.6015625,-1.3741365355614275,-0.49473656288179474
6.60546875,1.224853258922655,-0.511458809192464
6.609375,2.719614607576189,0.2353418975960769
6.61328125,1.1648033399098785,-0.7431367075727476
6.6171875,-0.26017732613243977,1.2901324255570508
6.62109375,-1.2694765738982037,1.587661966312313
6.625,0.6358529510382549,0.1510577234883199
6.62890625,-1.0015204417839185,0.48358410183272127
6.6328125,-0.07248493414136598,2.0503600277695586
6.63671875,0.6701057024594684,0.8269308316680805
6.640625,-0.44101029395578684,-0.3984571376753495
6.64453125,2.7187392992412662,0.9173394967755328
6.6484375,0.09789198619984596,2.426057509883718
6.65234375,-0.8010421769528107,0.7688293735859781
6.65625,1.7335278760736272,-0.14787547302948992
6.66015625,0.8953405386358382,-0.48672459499533655
6.6640625,-1.1174884379376349,0.19308578733059537
6.66796875,1.3178393974958227,-0.50085135478626
6.671875,-1.0218451178683239,0.8986490364818575
6.67578125,-0.058752078919606446,-0.7334888392307345
6.6796875,-0.07663833227838601,-0.2184384442168203
6.68359375,-0.5333488216253658,-0.1328944416535505
6.6875,1.2254578499040847,2.131138079608294
6.69140625,0.8983542870348631,-0.022577753533189224
6.6953125,-1.432866884061362,-0.5804266282028536
6.69921875,1.5092487200016,0.12992560382220056
6.703125,2.3934547038422114,1.230661154637516
6.70703125,0.5041152999149249,1.0076126178762437
6.7109375,-0.6848800981840895,0.8613003777744715
6.71484375,1.7647557036135832,0.19760150112227862
6.71875,1.6167743464385975,0.8740848192484307
6.72265625,0.26425209989045445,0.5914973934073569
6.7265625,-0.5403319994776653,0.11146987223744949
6.73046875,1.1214072101389565,-0.84030519986266
6.734375,-1.8988827443351062,-0.9906572078634601
6.73828125,0.6696675257422793,0.9434867259156727
6.7421875,-0.4562838468886822,0.5430008016609429
6.74609375,0.9447362590973248,1.7898385597163329
6.75,-0.28213395876949776,-0.15083664330987537
6.75390625,-1.0067194674274944,-0.04803945082122636
6.7578125,-0.4939505220816984,0.9053343545467424
6.76171875,0.8302049089079057,-1.3043547920194372
6.765625,-2.49461502181197,-0.25733778820131226
6.76953125,-1.4238617822916955,-0.07145572735127056
6.7734375,-0.520316003100843,0.3782879687743521
6.77734375,1.8540889403217118,1.7502260777808876
6.78125,0.7487022542016782,-0.5983511123914551
6.78515625,-0.31430930544728586,1.1985120267633256
6.7890625,-0.42493552850886346,-0.3969676914444792
6.79296875,0.8936927351778808,1.6896126940414111
6.796875,-0.3371367219074934,0.36673435192822573
6.80078125,-0.04842495922767316,-0.7023286042685255
6.8046875,1.0972044595504646,-0.732605024186517
6.80859375,-0.261428128800078,0.5563398852811111
6.8125,-0.945891055118039,0.1282528860279589
6.81640625,0.8057057485671716,1.2142405835471617
6.8203125,-0.5557801368192132,-0.20219749416403487
6.82421875,-2.3539525859716224,1.6410219010776734
6.828125,-0.47484907569748164,0.02435132357974594
6.83203125,0.8605166095065359,2.2668464666905113
6.8359375,0.6168158814519488,-0.42280877468980194
6.83984375,0.5831711245788179,1.1087080403991503
6.84375,0.2084721531709068,0.2444063443055798
6.84765625,-1.0605267694822915,-0.44885275161690114
6.8515625,1.9982052797119927,1.3911053314099793
6.85546875,0.6084132222160856,-0.6007616167550089
6.859375,-0.33013594405163516,-0.9329030125206693
6.86328125,0.9953027286108934,0.4658057841071512
6.8671875,2.0261590662521876,0.1529591420676892
6.87109375,0.1340385415563784,-0.7715237825424452
6.875,-1.56655770098575,0.5795147364841545
6.87890625,-1.4455887373612253,-1.4977346096530535
6.8828125,-1.072137495052489,0.08499991160175654
6.88671875,-0.7502670327684231,0.5786786073187233
6.890625,-0.13940007548296612,0.44937359502416613
6.89453125,0.8922495394043514,-0.08583333004363942
6.8984375,-0.9666328041834137,0.41129755198570633
6.90234375,-0.44347246585342054,-2.076077586893745
6.90625,-0.3508697394534488,0.46937726666162266
6.91015625,-0.49812753444029684,1.8915149675643534
6.9140625,1.1876554202056544,1.3214625742709323
6.91796875,-1.0223849192651528,1.7828499716629913
6.921875,0.30126240189615033,-0.2747227705519984
6.92578125,-0.18437335676074398,-0.7759253982488991
6.9296875,-0.8991109851485102,-0.7888164096206342
6.93359375,0.22711157182626762,0.08160093088482186
6.9375,-0.18580229337385787,1.2427797022377505
6.94140625,-0.14750788706067616,-2.5154718410708763
6.9453125,-0.2636945772732018,-1.5530525526532073
6.94921875,-0.20298099794482025,-1.6346626640088158
6.953125,-0.25648204959388615,1.829494804495444
6.95703125,-0.15206557741673107,0.9051976026855793
6.9609375,-2.1865970237674914,-1.1351877656397376
6.96484375,1.056285436376514,0.0689817922419446
6.96875,1.6367723472136981,0.8522557495608876
6.97265625,-0.8216723908849384,-1.374121975669439
6.9765625,1.1957505445814234,0.2457216261378196
6.98046875,0.03162236221310731,-0.9285363205527081
6.984375,0.7226878954789033,0.619350188418163
6.98828125,-0.43752180431641674,-1.544711879109294
6.9921875,0.45934639554415335,-0.6428232806800891
6.99609375,0.22689348786478244,-1.6889046339744949
7.0,-1.2543465728853773,-0.6001947787265369
7.00390625,0.33911929230202886,1.3155398380201428
7.0078125,-0.2621506106039008,-1.9915053691191442
7.01171875,0.7881868252841043,0.5044450150697594
7.015625,0.17066029046954773,0.9151635936380069
7.01953125,2.1974574026506675,0.48234845187037073
7.0234375,-0.04687179779085138,1.0738956424517776
7.02734375,-0.3843720804876385,0.6899423998877184
7.03125,-0.2612800216324078,-0.5321677074628471
7.03515625,-0.3600250694827216,0.04199309188853774
7.0390625,1.1471613984949223,-1.767355861680294
7.04296875,-0.6268941671158,-0.062464872536686526
7.046875,0.009432190994778593,-1.8927407035845136
7.05078125,-1.0142975021411405,1.6780377203381407
7.0546875,-0.8422912831676733,-1.5592497551123856
7.05859375,0.39862498397272955,1.5217967749996262
7.0625,-0.7547708748524506,0.3871865257896046
7.06640625,0.7309224848916096,-0.044181979233758835
7.0703125,0.1811509543915683,-2.5800102127958944
7.07421875,-1.2984663149563949,0.7852031660568518
7.078125,-1.199722793533267,0.6276158090877182
7.08203125,-1.0727837907732574,1.2664621618819691
7.0859375,1.7573207628478023,0.5454511612137771
7.08984375,1.9173090893642384,1.6559689290784616
7.09375,-0.6134478818218939,-0.47860305515860213
7.09765625,-0.32472914861562546,0.21516196311658484
7.1015625,-1.3409820307589395,-0.436360901898979
7.10546875,-0.16134893763128533,-0.3086520399423737
7.109375,0.7318277409343455,-0.8383178789335525
7.11328125,-0.23119532454469852,-0.66048391043242
7.1171875,0.764262634282826,-0.18751876995675448
7.12109375,0.6926146476507445,0.6812409017601512
7.125,-0.8540718501020964,-0.230378773358631
7.12890625,-0.19771408720728031,1.4590749366276492
7.1328125,-0.015294792828410843,1.3645671728735973
7.13671875,-0.4877546167862626,-0.8404637756977775
7.140625,2.2073968757351516,0.2043512595847993
7.14453125,0.7733988172085798,0.9992797008919738
7.1484375,1.4092020937593879,0.801789862964843
7.15234375,1.2074794339808461,0.9230313602386423
7.15625,-0.6369932580485694,-0.03186288260634772
7.16015625,1.625974494787062,0.36577512902700393
7.1640625,1.3372078479928136,0.7104238723484569
7.16796875,0.37508649711639186,0.8933692759565025
7.171875,1.0399401301632574,0.6568400150105637
7.17578125,0.6437182792833749,-0.1472488213383747
7.1796875,0.417391775185167,-0.08948507084516316
7.18359375,-0.6558732080431874,0.6388052466106006
7.1875,1.0360692191382257,-0.24312493276463365
7.19140625,1.520212236603297,1.2212762185308075
7.1953125,-0.2530595954782202,0.2914656211713783
7.19921875,1.451433738249801,0.6440132906793832
7.203125,-1.2561996144442156,-0.295903930490693
7.20703125,-0.5133116617062821,0.7094258834743671
7.2109375,0.5598753310476403,-1.9992850775335749
7.21484375,-0.47769125156582026,0.6648203320701888
7.21875,-1.8411037776069221,-0.1750658239972978
7.22265625,-0.7942972118990219,-1.523147955946897
7.2265625,-0.8100189261838763,0.49738591972769813
7.23046875,-0.4870378639149592,0.8925899587747591
7.234375,-0.7001726931237596,-0.8457409379836993
7.23828125,0.12738740189188008,0.527223549939452
7.2421875,1.487950881288644,0.03526518715331362
7.24609375,0.5206998739951971,-1.9560465729116896
7.25,0.3032230884113461,-1.573893641024056
7.25390625,1.1887956340579175,-1.0958468816909213
7.2578125,0.8741243545689555,-0.4270041168808893
7.26171875,-0.1388680486224961,1.5577210013849863
7.265625,-1.1438843814202415,1.5062586504133206
7.26953125,1.478102151032516,1.8848615188814788
7.2734375,-0.8453762460213923,-0.20189408648985177
7.27734375,-0.03065134239577084,0.03279263129548918
7.28125,2.5204464665413155,1.3783681489813107
7.28515625,-0.6087516795384211,0.11056178013599484
7.2890625,-0.8229689371886578,-0.6593792915454744
7.29296875,-2.030522962289046,2.529826195826745
7.296875,0.38458078029563436,-2.6741047378646052
7.30078125,-1.1979041389740057,-0.3504865493162335
7.3046875,-0.3206777676871362,-0.08837657366142171
7.30859375,-1.296694799234952,-0.3179194629303707
7.3125,0.5545602621340106,0.6345945165967051
7.31640625,0.24922903406997093,-1.324471028410633
7.3203125,1.2739684962922837,-0.2012646662469935
7.32421875,0.1756152392913798,0.8081373543667163
7.328125,-0.9578069924381739,0.06552548842436955
7.33203125,0.3061400930461032,-1.2164629292677611
7.3359375,1.2078533074777087,1.5536285013519844
7.33984375,1.577041870369048,0.7579322411675438
7.34375,-0.32001414869129763,0.7673915083134312
7.34765625,1.830517787336956,0.3555623472618976
7.3515625,0.12990520365726907,0.8054420824928604
7.35546875,-1.2447305907284822,-0.40554153824871403
7.359375,-0.7753431449764754,0.6089023312817621
7.36328125,0.7478196710526627,0.5684165068121478
7.3671875,-0.4218404095341503,-1.3561448072850857
7.37109375,1.6121137630323072,-2.4406930237752635
7.375,-0.6081157334364589,-1.8476995054911916
7.37890625,-0.2936489537681718,-0.49749234645175244
7.3828125,0.5159425764096465,0.3260380586570698
7.38671875,0.12516186461589723,0.17153809892318894
7.390625,1.5743906609560268,-1.673567723455502
7.39453125,0.6928295349063751,-1.3764243854791942
7.3984375,1.3330348926289592,-1.049893533012436
7.40234375,-0.4317827827008382,-1.4585504659734627
7.40625,-0.10408609616210604,0.8205760338478587
7.41015625,0.21043415865490067,-1.2532372010276938
7.4140625,-0.7571868497729538,-1.8121884250919604
7.41796875,-0.7066251890240005,0.8129169060985202
7.421875,0.5206465457415747,-0.8834669283885008
7.42578125,-0.25897470670732264,0.029002483896186163
7.4296875,0.5948933564830322,-0.5573799201096923
7.43359375,1.5756694469433026,1.2550908643396126
7.4375,-0.2493990519397001,1.825028929823886
7.44140625,0.8501467571293387,1.6899424406628223
7.4453125,-0.8499293272029063,1.2770644016500794
7.44921875,-1.4441244295233253,-0.9941639612226385
7.453125,0.5354408587605333,0.4170801240036198
7.45703125,-1.0486727279319124,-0.08881757738153179
7.4609375,0.3928948353134731,-0.42145487690997835
7.46484375,0.9503787143643841,0.03744401354006742
7.46875,-0.03760661073549992,0.7573420022183456
7.47265625,-0.39712864712677015,1.4060886501165881
7.4765625,-0.3592414153595945,1.361180781609586
7.48046875,-0.6831782482196507,1.1506718310885833
7.484375,-0.6119870955989009,-0.6023715519872275
7.48828125,-0.4501023539357354,1.4206312983782687
7.4921875,-0.05734616627440476,-1.4615787267074773
7.49609375,1.127309481517012,-0.5147966658023112
7.5,-0.6891173608747464,-0.05636053632884513
7.50390625,-0.0036962204995834246,1.582571266191753
7.5078125,1.1815113397317438,-0.5744294883501995
7.51171875,-1.7819390906084636,-0.06505497443592975
7.515625,0.35543083523809027,0.1845215174869161
7.51953125,-2.4029945355065165,0.6774266297504816
7.5234375,-0.5140683239583642,-2.253966469732238
7.52734375,-1.2496976224201655,-1.1469102745779949
7.53125,0.745269833552382,1.2432439770095198
7.53515625,0.1440483062839709,0.21370827150324484
7.5390625,-1.5581978564934356,1.478747444998349
7.54296875,0.6767712459763143,1.0774325590208045
7.546875,-1.2565898339665096,-0.10831393333381534
7.55078125,-1.1476669758005469,1.3565924174827517
7.5546875,-1.305871960190193,0.6835872854150429
7.55859375,1.0559757504080531,0.44953003480053955
7.5625,-0.9420264537499843,0.264485172371279
7.56640625,0.2606018436888849,-0.3940612748386692
7.5703125,0.9760333550144815,-0.04974193542382951
7.57421875,0.5741177426380151,1.4260684283848628
7.578125,0.28350356258157505,0.5610584436534375
7.58203125,0.9912285538214956,-0.4979934954224337
7.5859375,1.9668129888205617,-0.4269428482602144
7.58984375,-0.8564982382155474,1.9346930596865088
7.59375,-0.4071382378773887,1.1192724811737829
7.59765625,1.0108716181441526,-0.08545811319432574
7.6015625,-0.7834293428116229,1.341972381425075
7.60546875,0.8370526872313746,-0.6768748688971058
7.609375,1.5814660310251483,-0.6532681114295013
7.61328125,0.294016904367764,0.29179576937376606
7.6171875,2.0783442714334517,0.13719312685747784
7.62109375,0.9986051916975257,-0.7290440534137677
7.625,-2.158620657784115,0.583090765821264
7.62890625,0.3104253539148805,0.3317094623912743
7.6328125,1.445792105637224,0.10805867209037627
7.63671875,0.6274875323557334,1.1964039560770934
7.640625,0.9286268360663218,0.17833189050402368
7.64453125,0.48340833027323926,1.1676326388103044
7.6484375,-1.3857731487617113,1.3059298334023464
7.65234375,0.7094775406912829,-0.48028382403216496
7.65625,-2.798012893959566,0.2198387426475094
7.66015625,-1.2236930436181368,-0.7865444839377191
7.6640625,-0.521675646549811,0.681443884324259
7.66796875,0.6246706538927873,1.7733529981859546
7.671875,-0.577609897858142,1.5170418499666796
7.67578125,0.2675707609857281,0.27526673104771066
7.6796875,0.9197219545608254,0.7334043708652818
7.68359375,0.4711180175631595,-1.9363423036420917
7.6875,0.40378267362834935,-0.32583117529477235
7.69140625,-0.7665222204036087,0.12468880968634771
7.6953125,-0.7705172781959427,-0.6258512177616046
7.69921875,-0.5528264597764198,-1.0528435389488182
7.703125,1.4010529624649977,-0.7230782827851946
7.70703125,-0.8217194154873495,0.12493544738028226
7.7109375,0.9270588387372034,0.5792214977649731
7.71484375,-0.4014579168811225,-0.6145640387444906
7.71875,0.39551266497758897,1.2624334543663123
7.72265625,0.8753515819898444,1.0335555195735457
7.7265625,-1.149758242236171,0.07468314970567397
7.73046875,0.21510023690404023,0.18474090642851015
7.734375,-0.9266483783157256,0.42099270650934195
7.73828125,0.34928324944041156,-1.3397380289594747
7.7421875,0.18467907918846638,0.5553908801938194
7.74609375,1.5324056215192532,-1.468714382168517
7.75,-0.05696874324951453,0.43035476294815095
7.75390625,0.007668445641275387,0.298467736652838
7.7578125,1.3978818358540603,-2.2748354351313123
7.76171875,-1.4106227925993682,0.9138808422189081
7.765625,-0.6154922542642323,0.17943051584622838
7.76953125,1.150384908412872,0.02013376163111707
7.7734375,0.628983036057411,1.4798764595323632
7.77734375,0.9626254118641457,0.7915955193558695
7.78125,-0.2755046383007753,-0.9435375232156473
7.78515625,0.09288976912188215,0.29778626939479796
7.7890625,-0.18433643035731465,2.2128193276004153
7.79296875,0.5580904153356024,1.2638855965446456
7.796875,1.454335009917571,-1.4914582788892718
7.80078125,2.193871391362199,0.21579909572244757
7.8046875,-0.18241467815364196,-1.3951967167175523
7.80859375,0.5309293927462694,0.36288551460385166
7.8125,1.00383591389873,-0.3888221334521425
7.81640625,-1.236428768044435,0.8266563296871017
7.8203125,-0.6530457553788948,-1.167540382532539
7.82421875,0.2886769315921794,2.456971135377132
7.828125,-2.1986567841997493,0.5375886922463063
7.83203125,0.4396741791749246,-0.5318326416554899
7.8359375,0.08290676163792882,-1.2228676325003378
7.83984375,-1.3313481464883483,1.2107316645795265
7.84375,-0.4072397718576873,1.5851054368045634
7.84765625,0.5951049351982046,1.0468226309863313
7.8515625,0.2667010755018435,1.1831051689835823
7.85546875,0.7644332355985727,0.10178466401886141
7.859375,-1.0643547327859777,-1.599636975779078
7.86328125,0.9999413910600564,-1.2871951159238888
7.8671875,1.134667663945595,1.2865943792607668
7.87109375,1.8411622915287518,-1.4224608496962088
7.875,-1.031386369755962,0.6706427474375122
7.87890625,-1.254386628303662,0.6924657978174293
7.8828125,-1.4933759363943735,-0.4979399726416252
7.88671875,-0.9850837021375594,-0.5930073330548047
7.890625,0.8234434634536725,-0.32897454702645773
7.89453125,-0.39970285306844955,-1.3730064966432867
7.8984375,-0.6772028336134973,-0.7469529287081577
7.90234375,-1.2178621547843693,1.0032020365528873
7.90625,-0.5412123771528905,-0.20958901798149615
7.91015625,0.9887702122837562,-0.6326692123075721
7.9140625,0.5209258762335788,-0.4116082268670381
7.91796875,0.10652503154802694,-1.1691384623272827
7.921875,1.089249928126613,-0.27606683838156665
7.92578125,0.04617428086850859,-1.362682570547496
7.9296875,-0.07514220496192961,1.426413218961949
7.93359375,-0.5188682749461959,0.5305708947580429
7.9375,-0.876606465323334,1.1360741718794927
7.94140625,1.5523962084218803,-0.4592456358684247
7.9453125,2.1504427298821422,-1.0983720131261168
7.94921875,-1.1641805896820536,1.5858550589494815
7.953125,0.163632331003154,-0.3415318307564599
7.95703125,0.9506730181390306,2.4647901877946534
7.9609375,0.09989317071789926,-0.1422175997645475
7.96484375,0.5222502050434452,-0.293580159454153
7.96875,-1.6712757778540146,0.48294646007346803
7.97265625,-0.09480897140236973,-1.210917593551612
7.9765625,-0.4260687300603253,-0.43551492216545246
7.98046875,0.9197082040451666,1.708839460960826
7.984375,-0.03603397475515443,-0.5204644760873833
7.98828125,0.8778036109719598,-0.18475448794295973
7.9921875,-1.4931836918589463,-0.5676723505662812
7.99609375,-0.4426128038818583,0.7738466060141337
8.0,-0.5006058606990517,-0.6153998925699924
8.00390625,1.0826302551725542,0.042888334044095644
8.0078125,0.9591952307593211,0.8644368493976761
8.01171875,-0.7199552185679292,0.46342003860445297
8.015625,0.7908160172566622,-0.5549495078638925
8.01953125,-0.47156786816568597,-1.7724311501602545
8.0234375,-1.0471258580945646,1.429519916575397
8.02734375,-1.1323094583606328,0.040657871795628735
8.03125,-0.2807091985425728,-2.1814206749420006
8.03515625,-1.2507330940242634,0.6037901256037377
8.0390625,-0.6444556665773361,-0.9499547170253311
8.04296875,-0.007423559414744518,-1.7519618957860497
8.046875,-0.282013187241477,-0.2900421661779485
8.05078125,-0.18862780455297376,0.6443180233602316
8.0546875,0.1673660317213442,1.161054574384656
8.05859375,-0.9235843529486215,0.924204786033701
8.0625,0.18109245474289412,0.8527358690913227
8.06640625,-0.7263849097908072,0.8784386315902036
8.0703125,-0.08450079877181069,-0.06863016370605765
8.07421875,1.82999753481253,1.2407715113604862
8.078125,0.7179024645821502,-0.5060610251314166
8.08203125,1.0910387401562902,1.9652640316474572
8.0859375,1.4596350406091534,1.1712905442840973
8.08984375,-0.9657572801871507,-1.0565043471627624
8.09375,-2.6919033871669873,0.7265313795150848
8.09765625,-0.6561471444411735,0.9246310881208546
8.1015625,-2.0907648806928543,1.1803256224752632
8.10546875,0.899847915322941,-1.0435993229578822
8.109375,0.4332381717282743,-0.5125824036422745
8.11328125,-0.4480700417895427,-0.3891527585572811
8.1171875,0.5191750141505699,0.6277242236204704
8.12109375,-0.4333165069130771,0.9715085925225679
8.125,-0.11834206466317085,1.0538628372558967
8.12890625,-0.8835112658500481,-0.20593010573453116
8.1328125,-1.1796862225235818,0.8008674073573829
8.13671875,-1.3216176965503321,0.3440381493221262
8.140625,0.6623015302173415,1.757218276504638
8.14453125,-1.663730139449262,-0.8283272081572818
8.1484375,0.03715415140514295,0.9673099422333076
8.15234375,-0.18137055733244467,0.012352555694800815
8.15625,-1.522062497583121,-1.8796195031034084
8.16015625,-2.1183484035429383,0.46223041586919766
8.1640625,-1.9427094323521146,-0.30154424104402855
8.16796875,0.5904532307163924,1.1652782136757254
8.171875,-0.05743022960951903,-0.637430021038794
8.17578125,0.6488852570774197,0.4308171395128435
8.1796875,0.6085444242913478,0.3169220911151111
8.18359375,-0.14078062955013626,-0.5551263384391649
8.1875,0.0022599570628381136,-0.7622051751053589
8.19140625,0.892900371980244,0.499807123134717
8.1953125,0.9513958340247269,-0.5203626200579872
8.19921875,0.17143486126695362,-0.605215394946067
8.203125,0.4450772635737607,-0.2986155106375498
8.20703125,-1.4159848970702844,0.3509192568137883
8.2109375,0.6307620793909255,0.09953272864278931
8.21484375,1.448823558058991,0.21659373712760402
8.21875,1.16328079181166,-0.9106903810127621
8.22265625,0.1904545708906547,0.07695393731014313
8.2265625,1.1358620308419627,-0.6517179686645832
8.23046875,0.8065371036393173,0.12020168371166921
8.234375,-1.1110462311130684,-0.39184781868284785
8.23828125,0.3500931052540721,-0.005591088921043378
8.2421875,0.6510446570935462,-0.16224361783527222
8.24609375,-1.1840954047614007,0.6795537025354733
8.25,-1.0139496743466172,0.3932590818959291
8.25390625,0.6315609518538122,-0.23431506118346596
8.2578125,-1.1287953421595833,1.0797769302169316
8.26171875,-0.06500565003098023,0.7207524090734556
8.265625,0.15680932387492552,-0.41359150748908324
8.26953125,-1.1186682749535026,1.5116883433419799
8.2734375,1.057964644478852,-0.03451617516424091
8.27734375,3.323190868881503,-2.619581488781109
8.28125,0.2435679417015647,0.28240799604325373
8.28515625,3.018875646421392,0.313260332636684
8.2890625,-1.436340463503552,1.1224422750566179
8.29296875,1.197177859202129,0.795493242825038
8.296875,0.9265282178767655,0.5420082992481959
8.30078125,0.007521202791911985,0.47615135371212547
8.3046875,-0.27080556608922246,-0.7045406843225033
8.30859375,1.896371905882774,0.48226682258407017
8.3125,0.35210452809313636,-0.1846294971716368
8.31640625,-1.2418235818558456,0.17771468229985374
8.3203125,0.2807150595974543,0.3605435630891131
8.32421875,-0.571128861816215,-0.561482632611306
8.328125,0.6882476788149259,-3.276882050536538
8.33203125,-0.421574966277376,-0.29441837079861444
8.3359375,0.8497180715003219,-0.10841604597188005
8.33984375,1.4429782386798984,-0.9251462785057626
8.34375,0.6321994284285544,-0.23196524660376444
8.34765625,-1.3784294163337625,0.39548302031865573
8.3515625,0.6690334760793861,1.2349518711183967
8.35546875,-1.0538574086950743,-1.3152948141686505
8.359375,-0.20898484276013388,-0.5820660332362303
8.36328125,-1.7468082274826098,1.1177910332445868
8.3671875,-0.8460153336812715,0.41477351336380025
8.37109375,0.513269732665253,1.264079643412734
8.375,-1.0853250830228793,-0.9580457803530688
8.37890625,0.19661348544763402,-0.18391684630123858
8.3828125,1.0013155005616796,0.593279297486003
8.38671875,-0.42930385240324,-0.4727695432777398
8.390625,0.6261107358235608,-1.4502799977888585
8.39453125,0.02916354902576863,-0.7633206213467678
8.3984375,-2.068968657806351,-1.1431472793690536
8.40234375,-0.2960061294378964,-0.32343201844730957
8.40625,0.5458013674788457,0.31577794361719436
8.41015625,-0.7870256082348472,1.3739637409203036
8.4140625,0.0839567439536807,0.35287985854394593
8.41796875,-0.2977006822560049,-0.29499477186097506
8.421875,-0.8498452855123766,-0.6433743092709315
8.42578125,0.27261951116082894,-0.10384555095743857
8.4296875,-1.0078139865013256,-1.4276551900988397
8.43359375,-1.1971673190823575,0.2828457164860102
8.4375,0.6022673584751698,-0.9494323053443676
8.44140625,-0.2627948555103636,1.199664901557361
8.4453125,-0.4949092518281474,2.5370481637764413
8.44921875,-0.5717368112260995,-1.6610968410269669
8.453125,-0.3364454044256458,0.7147189110537407
8.45703125,-1.1884629810020235,0.06242461359592405
8.4609375,-0.6462963532381195,-1.249364623619243
8.46484375,-0.23904072328078418,0.6170869263096712
8.46875,1.590014404715719,-1.5067650990753982
8.47265625,-0.010678285296118811,-1.890401555437253
8.4765625,0.4729046069561522,-0.5424981051642759
8.48046875,1.6079574991138037,0.6524851822946947
8.484375,1.5500581929575046,0.5236302701836713
8.48828125,0.9157920517916565,0.6176147750874748
8.4921875,-0.5481200238855379,1.0189829161712671
8.49609375,1.437468550355379,0.8824013227247003
8.5,-0.23159535840664106,-1.8265732421632577
8.50390625,0.10875101352059226,-0.34487868433565605
8.5078125,0.8072183736621236,0.3374181039910937
8.51171875,-0.6569022677031886,0.05586387690814656
8.515625,-0.894017075190622,0.531406309601641
8.51953125,1.2371499681452975,-0.06489989017312692
8.5234375,0.06775174726190943,2.2784305545236037
8.52734375,-0.6553696335223461,-0.3612759023078427
8.53125,-1.2074537614285938,-0.8509638294083464
8.53515625,-0.4329253506800044,-0.23059565359625966
8.5390625,0.2525846804081849,-1.3156934399336537
8.54296875,0.13540530540996976,-2.2474555674928567
8.546875,-1.8853589157791997,-0.5343627540950401
8.55078125,2.290601172686558,1.0297645102889823
8.5546875,-1.3357777068618213,-0.2370446533248157
8.55859375,-0.6044725046423205,-1.0826183022851001
8.5625,0.7022021090422973,-2.1793515437147386
8.56640625,-0.6643774589758663,0.232759308963534
8.5703125,-0.8542250199337235,-0.39716154219128613
8.57421875,-0.21469123239652954,-0.6454614070268033
8.578125,0.8521207205814139,1.0103110326924676
8.58203125,-0.21789758505517134,2.507098320458915
8.5859375,1.4630890659421885,0.6914333716789766
8.58984375,-1.5590745953010818,-0.06496661080608156
8.59375,-0.9459418927247946,-3.5224201497832697
8.59765625,1.7261995135096633,-0.38700905466995567
8.6015625,0.3939825382700423,1.2059527022845273
8.60546875,0.35027208112010494,1.198813396199308
8.609375,-1.4810498923554256,1.971110871787936
8.61328125,-0.424197218313189,0.39107730210834246
8.6171875,-0.6018560116000138,-0.06515327550853568
8.62109375,1.8639750180399055,0.6269520122377455
8.625,-0.5257357448563298,1.397043978554347
8.62890625,-1.5879540036868467,-1.0251367332134855
8.6328125,-1.2287338390860487,1.2279599663580516
8.63671875,0.7416592073754331,-0.5268644741570526
8.640625,0.17084624954919797,-2.3191856989610145
8.64453125,0.12738446632340544,0.688955475623034
8.6484375,-1.4373153754613959,-1.281270213917768
8.65234375,1.6780058996926912,-0.9595633157262502
8.65625,-1.4737331112535004,0.7287164954527527
8.66015625,-2.0102081837380155,0.36002916511419747
8.6640625,1.1885467286739266,0.6735569642551591
8.66796875,-1.2061004700962483,-0.07245523183257575
8.671875,0.35656290917435474,1.1601061446677092
8.67578125,-0.0005307658014704145,1.21987954945184
8.6796875,-1.3291325339215427,0.24606683172088684
8.68359375,-1.0641564601660736,-0.6892481578648415
8.6875,1.448106475357905,0.40928798622306384
8.69140625,0.70518949540121,-0.26736826874973624
8.6953125,-0.056017038147525934,1.2727977841204148
8.69921875,-0.2526014517511086,-0.1144616918366361
8.703125,-1.1507218933185666,0.4925689375873658
8.70703125,-1.5423100461615988,1.042902123949797
8.7109375,-0.46326262248264716,0.21397192355772243
8.71484375,-0.8971643881813134,1.0080196084889903
8.71875,-0.1100878113229318,-0.1194924813621699
8.72265625,1.0909459355108053,-0.37458724088560164
8.7265625,-1.4134412224612614,0.31282573060767466
8.73046875,1.8584898963509686,0.7309670981921775
8.734375,-0.7895884725033516,-0.44963531703423104
8.73828125,-0.16567725971937333,-1.0991273590395156
8.7421875,1.2680001251297104,-0.2715249051037995
8.74609375,-0.361037260324589,-1.2257542516888422
8.75,-1.5737376397828382,-0.6189203146919562
8.75390625,-0.41879524222368003,-0.37074215012836875
8.7578125,-2.138124294266485,-2.4357942344102907
8.76171875,-0.9699529070549485,0.5655140663695757
8.765625,0.6351459183437879,0.8792574971996532
8.76953125,1.124923495148727,-0.09648780108177853
8.7734375,0.6602273136227207,0.1879879225945738
8.77734375,0.1676103860316615,0.015192553936620003
8.78125,-0.4837191637588074,1.994455754531292
8.78515625,-1.9277179420419654,-1.250818820601496
8.7890625,-0.34930411751070006,0.38510933746436277
8.79296875,-0.4239165270723352,-0.11303399299858602
8.796875,-1.0790380191283495,0.06496343466654421
8.80078125,1.615329773534404,-0.229793699809081
8.8046875,-0.0974047327332795,0.3482579673963651
8.80859375,-0.3692780620308096,0.3735428467569073
8.8125,-0.27862567475012595,2.378208152396406
8.81640625,-0.6248428888040216,0.15543004539426056
8.8203125,0.2028587292477247,1.3590397536893326
8.82421875,0.19598195564286014,0.5284491637821969
8.828125,-0.7032079066459372,0.6956135248071635
8.83203125,0.7186664983526377,0.37105588199714923
8.8359375,0.9053392534156878,-0.15134437723635671
8.83984375,-0.19832691240089975,-0.4148385787859709
8.84375,0.980814040438092,-0.49699804270790604
8.84765625,-0.8213006464524506,0.9665112465469381
8.8515625,-1.5836931204168254,1.3053838881409405
8.85546875,-0.41240566604812723,0.3501679111640272
8.859375,0.9772470726631808,-0.5300105206225074
8.86328125,1.0610963770523512,-1.6670102759959948
8.8671875,1.787357914030093,-1.435009826492204
8.87109375,0.36848538569817046,0.9467321681472203
8.875,-0.5625909984774025,1.1076695930208038
8.87890625,-1.2664762751650662,0.1721488777555752
8.8828125,-0.2839100374181489,-1.2261143343951664
8.88671875,-1.6001379251599046,0.18207244573279094
8.890625,0.8877893979200646,1.0512717074127205
8.89453125,-1.4665019774761887,-1.6229811467908932
8.8984375,0.7429376204147139,1.8358955104584398
8.90234375,0.1961380912531091,0.38653212521681557
8.90625,-2.157540071560036,-0.19352218192470041
8.91015625,0.3977556359368786,0.508003843323438
8.9140625,1.0678086783511451,-1.209305989206188
8.91796875,-0.5349786341386468,-0.9624961282076908
8.921875,0.3476019705259657,-0.743268027963568
8.92578125,-1.0894347166483092,-1.2521378871976976
8.9296875,-0.38266685667306594,-0.639393069778077
8.93359375,-0.3014101939640094,-0.9208573097817669
8.9375,-1.1630275884803687,-0.5275777110273794
8.94140625,-0.6969759671605493,-1.29285229507516
8.9453125,-0.8999098608579716,0.07238179786150403
8.94921875,1.5610703198713243,1.867142192209812
8.953125,-0.37504630617168755,-1.249911346941245
8.95703125,-0.48134174735450425,-0.7805949612685549
8.9609375,0.4017763501131049,-1.1639910947427092
8.96484375,0.1303412176262011,1.588632651863476
8.96875,-0.3162679882949504,0.7892376119068041
8.97265625,-0.5548249551310251,1.6533269628828782
8.9765625,0.25163497494378384,0.04952499210406511
8.98046875,1.1837183248314658,1.6916396196541528
8.984375,-1.1921844614749209,1.0027496760914032
8.98828125,-0.15904806382947156,0.5270767367092767
8.9921875,-1.0269400846792995,1.1922089868933043
8.99609375,-1.1082706077895044,-0.46827032357135323
9.0,-0.25105744759342297,0.2188379940935785
9.00390625,-0.10875520008710068,1.3166563699416753
9.0078125,0.1365795536590167,-0.7243241652486108
9.01171875,-0.17023375619956752,1.3901591861073406
9.015625,-0.07375222497104965,-0.16435665109709732
9.01953125,-0.5043643015657997,1.3048773307869581
9.0234375,1.5114334371970966,-1.6601429128590715
9.02734375,2.022180861516557,-0.5326432836281852
9.03125,0.22467638219570493,-0.4255474356143185
9.03515625,0.6955958945529067,-0.3017553179666922
9.0390625,0.9584282297280738,0.7590732995703375
9.04296875,0.38932528533627525,0.09887258111289642
9.046875,-0.6065115606334961,1.2437336630647289
9.05078125,2.1889428438433804,-0.731953584187029
9.0546875,1.1018006761737034,-0.9523112246405739
9.05859375,-1.7737472199545488,-0.7271527688557791
9.0625,-0.7269874309291903,-1.125627410328903
9.06640625,1.5308349440316564,-1.7134343506616918
9.0703125,-0.13714020221130077,-0.0724359674265077
9.07421875,0.699232348938367,-0.340273995612482
9.078125,0.08904710914125094,0.5476084202372451
9.08203125,-1.0842247386106922,1.1423576278039047
9.0859375,-0.20040976321681053,-0.018540893749198067
9.08984375,0.6705973197270421,-0.353218429807203
9.09375,-0.5020063695653129,0.5919722660571056
9.09765625,-0.6610214065160274,0.3669296722215636
9.1015625,1.0820595243390048,-1.2354162468661678
9.10546875,-0.9387145686432488,1.2193308305210175
9.109375,-0.4755050005601143,-3.0115272662058867
9.11328125,0.5771914097518988,0.501661660887155
9.1171875,0.18089551851841032,-1.0351963077142363
9.12109375,0.3957777336123635,-0.8199132138689188
9.125,0.4822859758558943,-1.2418461680834287
9.12890625,0.2261267879490782,-1.6674812600049553
9.1328125,0.11701266055962622,-0.085688983262229
9.13671875,2.056903807808506,-0.037775681739532996
9.140625,-0.46977826338662715,0.25740445576331034
9.14453125,0.7651790091876775,1.147472394494519
9.1484375,-0.19337626678497732,-0.35518186933150475
9.15234375,0.8123239090624167,1.743588167978144
9.15625,-1.8335503231095285,-0.7546425965672067
9.16015625,0.7222692336740433,0.08231247852800858
9.1640625,-0.40788371569219867,0.48545898435438495
9.16796875,0.7105064265712256,0.07250729145667031
9.171875,-0.11026394483884265,1.8914708669538964
9.17578125,-0.6411734981830256,1.5045311898377112
9.1796875,1.0552268686057735,-0.4152020634322431
9.18359375,-0.7592292588846423,0.04074924175858505
9.1875,-0.0958966782644743,-1.608751523835814
9.19140625,-1.4821010129224268,0.9425757325850277
9.1953125,0.7688136878440852,0.5009781197394115
9.19921875,1.5551909020059924,-0.9543311949885863
9.203125,1.3246138716387061,1.199931049012025
9.20703125,0.8354787964372322,1.5476040095351926
9.2109375,-1.8600437975093043,-2.4824185879659115
9.21484375,0.8437364436972695,-1.2342814437591336
9.21875,0.38919438648902094,-0.48139099106509925
9.22265625,0.7485396198952009,0.7367969686829553
9.2265625,0.3764445350692316,-0.412410072966125
9.23046875,0.49365331502727694,0.34396535274895984
9.234375,-1.0994943571737188,0.10701251356917377
9.23828125,0.4165129991267857,0.599677338744167
9.2421875,0.05190616246026377,1.4150314646093702
9.24609375,1.0095280712349632,0.6920071114342132
9.25,-1.0614728763531078,0.13986499604395408
9.25390625,-0.6108726250753298,0.7551048603536614
9.2578125,0.3426113079574422,1.113903671332137
9.26171875,0.042266812616812845,-0.6541834955229335
9.265625,0.8972367390396582,-2.4453018348587046
9.26953125,-0.9519949044407403,0.4047725933414008
9.2734375,1.018016325713727,-2.0872985361495906
9.27734375,0.7525219859319463,-0.24543918173469664
9.28125,0.9394440672265073,-0.5501987657774137
9.28515625,-0.20918036953215574,0.12235242188251291
9.2890625,-1.601912136577949,-2.832297351074217
9.29296875,-1.180243807502725,1.2287333614832563
9.296875,0.16276911348100204,0.2904788237018321
9.30078125,-1.284229377399239,1.9378997413259806
9.3046875,-0.47459173079870076,-1.0733275770670692
9.30859375,1.2625586970253015,1.7751236841323235
9.3125,0.07330137681181395,1.7180584587950727
9.31640625,-0.3937757399162621,0.6638607606960266
9.3203125,-0.22095891161092213,1.4488850815007839
9.32421875,-0.549033594621663,-0.8524909636004518
9.328125,0.4874953790679257,-0.8478846108354848
9.33203125,0.6414497081405782,0.056965778123817805
9.3359375,-0.14554647048366984,-1.8922459012012522
9.33984375,1.3110589647445452,-1.1491682370711849
9.34375,1.2495859136624103,1.53256107612324
9.34765625,1.7187706921775607,-0.19756662288295984
9.3515625,0.9708790515896708,1.391213582192909
9.35546875,0.18262236715760613,-0.04737884417070097
9.359375,0.40104616417244776,-0.04756883830552737
9.36328125,0.2923629152613051,1.251363534951707
9.3671875,0.4217832196395696,1.6911558735710301
9.37109375,-1.1789082560396817,-0.27922413296277687
9.375,0.1709483436483468,-0.7546986074696247
9.37890625,0.2975858957251065,0.14619995511507838
9.3828125,0.9031786986818378,0.09401804117205005
9.38671875,-0.8152367782840585,-2.0251603877546493
9.390625,0.512134725262334,0.21442891786435692
9.39453125,-0.4471130625793416,0.3738493019967763
9.3984375,0.33501066306691624,-0.3326601011135533
9.40234375,-0.059369438383296703,0.8384903739708498
9.40625,0.056539648982846434,0.6541845066499121
9.41015625,-0.01195675179835951,1.0743673942476826
9.4140625,-0.6306512243792927,0.9054524059148824
9.41796875,0.3486830336131577,-0.9823264954038449
9.421875,-0.7239026352184564,0.09801869796444783
9.42578125,1.862012968065445,-0.3374488905723931
9.4296875,0.02282230159845605,-0.2034334269100451
9.43359375,1.4480887091437737,-0.1750235688124224
9.4375,-0.24464154238139713,2.230625527271562
9.44140625,0.7897933651343676,-1.366171749299848
9.4453125,3.175713506788329,-1.7438047979640894
9.44921875,1.4623210444599954,-0.29784036390240975
9.453125,0.448511161758412,-0.7320111111766041
9.45703125,-0.39773095894384874,0.529733698830751
9.4609375,0.14119263199922055,0.45306907698762916
9.46484375,-0.31798447348248143,-1.5388879888125513
9.46875,1.8666993228778725,0.17155278093457263
9.47265625,1.5612953330084294,1.6077792737715477
9.4765625,-0.20023575879510583,2.3179302891328626
9.48046875,0.1841331843022889,-1.1939077889653973
9.484375,2.035496776181323,-2.286778904917014
9.48828125,0.4369337505830041,-1.0041649294330488
9.4921875,-0.23974813273290943,0.34934329778762413
9.49609375,0.4791114276342772,-3.3732032822716667
9.5,-0.9481490638553896,-0.9237833372538561
9.50390625,-1.3419940581218017,-0.06868394194907186
9.5078125,-1.1679343280223933,-0.49392577325629733
9.51171875,1.0544122841457404,-0.22731828110089408
