time,ecg,ppg
0.0,0.41649859455937593,-1.5365551701187778
0.00390625,-1.1626736388854197,1.0689931513705884
0.0078125,-0.45923668260166833,0.26858300989018613
0.01171875,0.5772238155211205,-2.798007530268698
0.015625,-1.1068336962902086,-0.3859151274783447
0.01953125,0.802667530594317,0.3011208240822291
0.0234375,1.208814339626706,-1.075950350054721
0.02734375,0.5423132803034174,-1.7550763699389642
0.03125,-1.7428700442565574,-1.3399733223236872
0.03515625,-0.9165544956759967,-0.4551559001172572
0.0390625,1.1697245478229352,1.6537759431413268
0.04296875,-0.2060586355886736,-0.6698377200443256
0.046875,-0.2882270075622989,1.0408525950152663
0.05078125,-0.1752064819347171,1.486135329264385
0.0546875,0.49387696044608015,0.23961969088479268
0.05859375,-1.1880282555134318,-0.3451210554584519
0.0625,0.1189807234173536,-0.5208188195494331
0.06640625,1.1101771405818819,0.33026203613680216
0.0703125,0.9148349567099449,2.2814829953784375
0.07421875,-0.1982705013430442,0.17706700810756343
0.078125,-1.7252585078788607,-1.9022140987909644
0.08203125,0.22904459854858766,-0.6631314691841802
0.0859375,-0.9940923941216067,1.4791346644836896
0.08984375,0.8042727224837125,-1.2306991081637597
0.09375,-1.4181091298926463,0.3109096146449238
0.09765625,0.355968462117068,-1.436556561938181
0.1015625,-0.2898431176106556,1.495694167769922
0.10546875,1.658317558894059,0.7152377704973736
0.109375,0.5713300092052523,0.4457744048807175
0.11328125,0.4128544468127078,-0.6788851547709646
0.1171875,-1.2768063403820553,-0.9789441233528395
0.12109375,1.2666416902688944,-0.6359708966802019
0.125,-1.3932009761769626,0.33786172491717714
0.12890625,1.2820008153615,0.19458314423164014
0.1328125,-0.5487027926892324,0.7345710928321463
0.13671875,0.9293263980852711,-0.1599254139856269
0.140625,-0.2285757347426834,-0.21119884264094818
0.14453125,-0.4017280088209115,-0.9027644218341515
0.1484375,1.348007173747078,-1.3405396243198286
0.15234375,0.4914599360318093,0.20272236208840258
0.15625,-0.12672672974587285,0.638958362476337
0.16015625,-1.417664710367499,0.7959926710379739
0.1640625,0.5269113538329313,-0.7637133089357326
0.16796875,0.15612886562071815,0.46508393789930935
0.171875,1.6939644321533143,2.5610998736266386
0.17578125,0.716880719846608,0.4006873443366325
0.1796875,0.3897447316696969,-2.0583243307675962
0.18359375,0.7921657170835428,0.49367349787622783
0.1875,0.8379108089156034,-0.11091303074783132
0.19140625,-0.3398827924901123,-0.36180164144954374
0.1953125,1.0498709374752333,0.306765132089611
0.19921875,0.2604929860219435,-0.9510651220743118
0.203125,0.7725166379442979,0.9429983728007599
0.20703125,-0.7398476519423712,-1.594441919961548
0.2109375,-0.44712116887632697,0.3846495485781791
0.21484375,-0.9933377762393969,1.1401971686221992
0.21875,0.26052457877562946,0.8104109902354283
0.22265625,-0.17116338254929384,-0.5056913571998065
0.2265625,1.319923482448397,-0.4782434821076507
0.23046875,-1.5981681896697506,-0.4104634133427538
0.234375,1.458882871624622,0.36300660296748244
0.23828125,-2.256579646534522,0.3057459377051808
0.2421875,-0.8502657071319649,-0.5019715692587409
0.24609375,0.03745802467042227,-1.7238454540409374
0.25,-0.41814403681065976,0.9523989961328456
0.25390625,-0.23541553023363795,-0.4271397664579187
0.2578125,-0.13482245748816826,0.5731265158398028
0.26171875,-0.3269262129411329,-0.6983288680524379
0.265625,0.4817559296558689,-0.003779276457872245
0.26953125,0.16556759272995972,0.47940410820559537
0.2734375,0.9019216545941967,1.575426400231647
0.27734375,-0.9055557689741709,1.0191870565327181
0.28125,0.11284799146036714,-0.46812869496692466
0.28515625,-2.0057819558970964,0.6204630477966485
0.2890625,-0.9177380429138257,0.8830780631189036
0.29296875,-1.4591050917827162,-0.25962486292212783
0.296875,-1.393554980110303,0.3931271162216133
0.30078125,1.290808745903714,0.6309578418560112
0.3046875,0.20293832160587158,-1.8377749906123624
0.30859375,0.4960500021360112,-0.6771277168873983
0.3125,-1.0945158768810834,0.30894629099576393
0.31640625,-0.5238939281418581,-0.28635083516744747
0.3203125,-1.4267593933412,0.24859875318777308
0.32421875,-1.5766762819310551,-0.07486159580269035
0.328125,0.3709896405933086,-1.2281193444694134
0.33203125,-1.1678018716367093,0.4478046912161904
0.3359375,1.140286324314895,0.14922464377284733
0.33984375,-2.270797490102465,0.026289892807330083
0.34375,0.23131275563381531,-0.1954066212123459
0.34765625,0.28580373091425465,-0.7044334906446548
0.3515625,0.7197628730202114,0.2640255717857663
0.35546875,-0.9208851763895645,1.6678638539067252
0.359375,-0.368197187969565,-1.6922495753165987
0.36328125,-0.20917921436565048,-0.2608170301991733
0.3671875,-0.36164233389865647,-0.038808932809723196
0.37109375,-0.6498961152113604,0.31039551824848177
0.375,-0.9525286999456055,0.49798163712983745
0.37890625,-0.6357767848837124,-0.5966723759992566
0.3828125,0.49285718488171903,0.5718442327178075
0.38671875,-1.295101060439742,0.657144626464769
0.390625,-1.0431455223048463,0.6007753622616733
0.39453125,-0.9367000317301593,0.1965167147834951
0.3984375,-0.5279571462670536,-1.2379807919274897
0.40234375,1.30324707477908,-1.2377302059702462
0.40625,-1.8463115996990558,0.07916158344641303
0.41015625,1.4345740333035863,0.6927143305496614
0.4140625,0.9340114259572921,-0.36756036639881307
0.41796875,0.8620766699887554,-0.7062145566006459
0.421875,1.357802090633148,-1.126143611567787
0.42578125,0.6340469716527458,0.6541042834209444
0.4296875,-1.4181979654849135,0.33926845593361743
0.43359375,-1.5484679325332789,1.1137049622819788
0.4375,-1.182225190851411,-0.6183460561849766
0.44140625,-0.738940304801375,-0.573008238646518
0.4453125,-0.9683697184514518,-0.09372556353572621
0.44921875,0.826248096135868,0.7845377973707528
0.453125,0.9447437918346471,1.418212995786648
0.45703125,0.12584575683593288,0.9060405619747033
0.4609375,-0.19746303335081222,-0.5835954879047386
0.46484375,-0.1594636599023475,1.8056401933931447
0.46875,-0.36391888340155926,0.7647951185628006
0.47265625,0.2332476669418922,-0.1963545647157593
0.4765625,0.21060892569789624,-0.8217567166500443
0.48046875,-0.2585546975262114,0.4421228159761438
0.484375,-0.13863234241407618,0.7002226537642783
0.48828125,-1.2278624052164229,-1.584298991561487
0.4921875,-0.0800171687440452,-1.2037646659859813
0.49609375,-0.5394648933660258,1.3919654725039459
0.5,-0.7399255408122026,0.10856138548965669
0.50390625,-0.1739114825518837,-0.2881815822575165
0.5078125,-0.28470948379013755,-0.11387776223833337
0.51171875,0.28281362599594745,-0.07043255866204454
0.515625,-0.2825186947577756,-1.2780178917910974
0.51953125,-0.018265129647927533,0.8674306571467577
0.5234375,1.1062913489312864,1.7616504925964729
0.52734375,1.7015516159957476,0.1208907621958388
0.53125,0.07113545495001926,1.4341018806909056
0.53515625,-0.13472768811100613,1.1005128657871621
0.5390625,-0.19732818756452186,0.3033034353687816
0.54296875,0.4970345098713449,-1.3493061573332898
0.546875,1.6018087994972625,-0.16569413135224068
0.55078125,0.04465830898318462,-2.593816056376619
0.5546875,-0.6967466089978577,0.5843472398310866
0.55859375,-0.3268431682381668,0.8299869468596867
0.5625,1.1101955800837677,0.863978423340635
0.56640625,0.6015324741113967,0.295102711981784
0.5703125,1.216362227425135,0.31630186135422783
0.57421875,1.003095552363512,1.1570623618645761
0.578125,-0.4248038144106446,-1.1018164822440348
0.58203125,-0.8331439597547254,0.8962294151052498
0.5859375,-0.09790425748103511,0.9042031773700848
0.58984375,1.0369233610954496,-0.46102647671635627
0.59375,-0.9454729868466467,-0.17502685332224072
0.59765625,0.8943942652399203,-1.36197133003797
0.6015625,-0.36036121855928155,-2.586302274599389
0.60546875,1.8445092888189296,0.1589872101005805
0.609375,0.9498554269276,-0.22063188240472872
0.61328125,-1.3243687718647112,-1.9174212365403962
0.6171875,1.1327096750893644,0.888598407340026
0.62109375,-2.2055437644005615,0.7154171340055798
0.625,0.2795177997610568,0.8958462467946375
0.62890625,1.514447515709235,0.13055673478971366
0.6328125,0.6180241765831135,2.3873302238344736
0.63671875,2.860156301861828,0.6902131962959976
0.640625,0.9313476447163842,0.004834244494410496
0.64453125,-1.2829725045677034,2.059173790448844
0.6484375,3.53680299591417,0.180060179512307
0.65234375,0.7732010557297626,0.3372276370951983
0.65625,-0.2952613979505477,-0.7296955076126572
0.66015625,-1.639104748618802,-1.6876399659050882
0.6640625,-0.9553069268228337,-2.371997964841784
0.66796875,1.8050265213347672,-0.5328497712957954
0.671875,-1.9027541156680658,-1.5997670013774596
0.67578125,-0.1340214784345956,0.9262254568456273
0.6796875,-1.6977856767179123,0.03730135131918315
0.68359375,0.954220454257307,0.38613682049795556
0.6875,-0.9440139337834694,1.5429142469640387
0.69140625,-0.7366573301066494,0.797726046896708
0.6953125,0.35122211742076836,0.7090372139917628
0.69921875,0.4750553675387826,-0.6888650844328088
0.703125,-2.934132915865214,2.132515856130517
0.70703125,-1.2035876074898098,0.9589261796911009
0.7109375,-0.8210686109266716,2.431557111881811
0.71484375,-0.10100968922754389,0.9121977187713348
0.71875,-2.5014115194239688,-0.32581849426432474
0.72265625,-0.9441766217563193,-0.37448356598734533
0.7265625,-1.735996297061488,0.5194398321174879
0.73046875,-0.003927153533273445,0.7621474222867012
0.734375,0.49357976348495436,0.9570298357604768
0.73828125,-0.7208370966770669,-1.4834268627825902
0.7421875,0.26366437503583046,0.9733056506604039
0.74609375,-0.6031748329310263,-0.17439983587562882
0.75,1.291871710378194,1.0853604626247724
0.75390625,1.1514686434911225,-0.5005698909107605
0.7578125,0.27176331318022706,-0.3193339018870149
0.76171875,-0.6721821088907316,-0.6298883104615336
0.765625,0.27825437434942063,-0.4306152646316355
0.76953125,-0.21513750618011318,-0.6636710311851476
0.7734375,0.3671941157289966,1.6214620415408558
0.77734375,1.958555717866833,-0.870670743011878
0.78125,1.183479857344781,-1.3157939010786555
0.78515625,-1.048812763859127,0.30164313293772294
0.7890625,-0.5785838876987175,0.3325437850190326
0.79296875,1.175302394740836,0.12199449954721162
0.796875,0.3526571762567352,-2.1029597128125297
0.80078125,-0.6432530788089346,0.02154041076246954
0.8046875,-0.8410433450553648,-0.13042289025433615
0.80859375,-0.11318238046058457,-0.6097738325667538
0.8125,0.012509603123109307,-0.5254183842265947
0.81640625,-1.0726042712225958,0.5840014124820024
0.8203125,-1.2291707718554972,-1.3897261222309243
0.82421875,0.12585620747960813,0.4133280739566774
0.828125,1.0500055407718805,-1.6116544727155468
0.83203125,-0.08507865478901629,0.41084519479389386
0.8359375,0.04523881445435198,1.1398147640963103
0.83984375,0.27953178552962943,-0.3334581742048576
0.84375,0.36832411813171617,1.7578445555986717
0.84765625,2.6230514712123565,0.11409666145933753
0.8515625,-0.1147430517354412,-1.0704062164576422
0.85546875,1.0572585250758533,-1.2423866897888467
0.859375,-1.8564079734671342,0.7166990178728321
0.86328125,-0.4300280516658509,-0.38260119139241977
0.8671875,-0.7093446963814304,-0.14707375208222834
0.87109375,-1.6665094202442978,0.410857569307049
0.875,0.19829604455164965,1.0794012006864393
0.87890625,-2.008821911294022,-0.24028391787704392
0.8828125,-3.0153611628343713,-1.2557359392316152
0.88671875,0.6583568343894505,0.6276954497729054
0.890625,-0.25766978267162793,-1.7562496252667836
0.89453125,0.7699809345455895,1.9222109210089453
0.8984375,-0.7975779410648641,0.17545576255461165
0.90234375,0.22192009327368722,-0.5810383372544695
0.90625,-0.7188578897260998,-0.1552055782363222
0.91015625,0.08045959619834644,-0.20563591949805277
0.9140625,-1.35269491682266,-1.6010271658001258
0.91796875,0.9352169298001766,0.2087524045345189
0.921875,1.0436913357769126,1.6309196708847513
0.92578125,-0.5316700849704943,1.7834373861118247
0.9296875,-1.536704389461301,-0.41646148752555645
0.93359375,-0.8076373434459992,-0.2813270567217549
0.9375,-0.005409209800864777,0.3093952280359613
0.94140625,-0.441347397449753,0.42142054307163657
0.9453125,0.9627009800807917,-2.1852850659248024
0.94921875,-0.175033435774783,0.30585938418212094
0.953125,0.14309373870857417,0.35821127425122073
0.95703125,-0.17620963610748588,-1.2733519169868939
0.9609375,-0.6373095584882499,-1.8511928647657863
0.96484375,1.2786617875713857,0.30114345791030156
0.96875,0.12564648897516298,0.12208551011665691
0.97265625,-1.7715650905489573,-2.57455044755945
0.9765625,0.8041696025009438,1.3438015424332723
0.98046875,-0.5141848612206841,-0.47638604020416075
0.984375,-0.08735979580790518,1.1283718678984505
0.98828125,1.0066962364227146,0.8251153170259067
0.9921875,-0.8631923610658887,0.41731977241591195
0.99609375,-0.8578385548872733,0.3089393280138226
1.0,0.5199661022787092,-1.5700127876480643
1.00390625,0.3256244821593762,0.47711805378843863
1.0078125,0.604364855804076,0.04254077806849069
1.01171875,-0.5005097777801344,0.994909650123891
1.015625,0.39610777703483746,0.9192460137460637
1.01953125,-0.6922145567856633,-0.04567746317290182
1.0234375,0.9952100529993367,2.0332957670200122
1.02734375,-0.03209665273791195,1.5998035990526793
1.03125,-0.6780869769041539,-0.5448242343192561
1.03515625,-0.4005243178783717,1.3328311588199402
1.0390625,-0.4787762019604898,-0.5189486093988558
1.04296875,0.7177205492393852,-1.736638149970821
1.046875,-2.3121465750736756,-1.9954885620754033
1.05078125,1.101706675179002,-0.12427165198284175
1.0546875,-0.7901853677340516,-0.06203113773720386
1.05859375,0.7119285653928995,-0.09408237902584199
1.0625,0.7392679295868223,0.0786711128794293
1.06640625,0.9532193572949749,-0.6544403610918605
1.0703125,-1.3108767916157955,0.7850142388520582
1.07421875,0.21271521025703444,-1.8731419859691458
1.078125,-1.1290841492688797,-0.37820698626268107
1.08203125,0.8089969645572127,-0.8725211040878817
1.0859375,-1.4095129428158384,-0.7044458271333883
1.08984375,0.1506378193855748,0.5060492260300931
1.09375,0.49293042480944305,1.1140357384422528
1.09765625,0.292861334979189,-0.22321008927588454
1.1015625,-0.1524603612666062,-0.7325353071503475
1.10546875,0.9627361650134706,1.8522009437161848
1.109375,-1.6226803916190122,-0.4976664655887422
1.11328125,-1.8112408034416327,1.386994698895253
1.1171875,1.0224254819116865,-0.04119452287531741
1.12109375,1.117246235755281,-0.8898580717662883
1.125,1.1776648303518895,-0.01344693830033502
1.12890625,-0.21044570309499516,-0.5308551994611233
1.1328125,-0.648054474762106,-0.3634075304718994
1.13671875,0.9456401587695701,0.9335118493198896
1.140625,-0.4805366654685822,-1.0284468411720804
1.14453125,0.21301852276467467,0.12484424788546664
1.1484375,0.5567902069471188,-1.0393992730801584
1.15234375,-0.031891518354949244,-0.7110607086998207
1.15625,0.6297542132365217,-2.0904981280377513
1.16015625,-1.0363552671262761,-0.7665995947854966
1.1640625,0.955689604598611,0.26864461916024196
1.16796875,-0.17752353216714128,-0.34797348959140073
1.171875,0.017629999589547942,-0.20852557994639964
1.17578125,-0.31055364393707807,1.0338695141642158
1.1796875,-0.6019227806229968,0.30393395599634426
1.18359375,0.5140391383423867,-0.11474215051837278
1.1875,-1.0362520093982732,-0.2614478107851099
1.19140625,-1.4671183762403253,-0.9027729298638103
1.1953125,-0.5682895876115114,0.8446357874776986
1.19921875,0.5764823500059943,0.9247260407946466
1.203125,-0.5272955109236308,-0.7921857183947422
1.20703125,0.24565822255781197,-0.7485963928707745
1.2109375,0.7560699905624337,1.573476894992077
1.21484375,0.7463408497084263,-1.0283609067572435
1.21875,-0.3440723813719426,-0.37784209759602255
1.22265625,-0.7024445378259137,-0.5935962169299718
1.2265625,-0.7522422591513825,0.5042428491054405
1.23046875,0.10108147443629664,-0.4199510896198932
1.234375,-0.7043037562991026,0.5906116489754987
1.23828125,0.8916250357584204,0.2376953236443821
1.2421875,-0.5900312741658389,-0.05427484960457973
1.24609375,0.7301585052481424,0.7814889282494365
1.25,-0.5260002302786615,0.5780939658226197
1.25390625,1.1757183861116303,-0.554228790021657
1.2578125,0.5631790565038283,0.39276336250211213
1.26171875,-0.044465953321264795,1.207636863674681
1.265625,-0.38247427009325974,-0.2232746227100016
1.26953125,-1.2178606179930156,0.38240023542502877
1.2734375,-0.1368306172299898,-1.0860796932928631
1.27734375,0.07773439184299442,-0.9656473900628193
1.28125,-0.3068841672881128,0.22664369761151124
1.28515625,-0.543592332192518,-0.8718937642176662
1.2890625,-1.4602727245984197,0.7005359563430698
1.29296875,1.4720890272863758,-0.9695165673803273
1.296875,-2.6634131797392397,-0.7491109514772277
1.30078125,-0.136454975888935,0.2648694525621706
1.3046875,1.5690554251148172,-0.81581545919518
1.30859375,-0.2476137233091346,0.4509282077544351
1.3125,-0.7753130822865345,-0.35902234596189053
1.31640625,-0.2387265666024425,-0.17370165041080515
1.3203125,0.45043920685058986,0.7592930355532861
1.32421875,-0.3652563307943077,0.8854173055080619
1.328125,-1.087193466686513,-0.605031278154819
1.33203125,1.3868413939880615,-0.22080074714844092
1.3359375,-0.37934376057041047,-1.1877921252678907
1.33984375,-0.8551684152319938,0.08639216664624971
1.34375,-0.7020577896004877,0.7137458494645263
1.34765625,0.8438322047045466,0.2352822097191632
1.3515625,1.8369899883799874,1.752193270745671
1.35546875,1.6496898713589583,-0.38319888802703433
1.359375,0.8643359363437209,1.306885602407376
1.36328125,1.4885965700749817,-2.2885200636983645
1.3671875,0.8602287399913426,0.6483265358856809
1.37109375,0.15690806599627077,0.3152406646225742
1.375,-0.5203281477559435,-0.394723060746551
1.37890625,0.34902290325958674,-0.3600561177863161
1.3828125,0.7947025048365236,0.2993884034842395
1.38671875,0.3688236614435941,0.6529016221018347
1.390625,0.07757130705287581,-0.28591520090085987
1.39453125,0.17376476023362444,-0.2539096171561694
1.3984375,-1.324429026725042,0.8958032977170091
1.40234375,-0.6588545082354892,0.8469242042116298
1.40625,0.510191210331734,-0.4493227966041853
1.41015625,0.047948140339154975,-0.767770430754314
1.4140625,-0.3644581120520082,-1.783799266324495
1.41796875,1.0754724459378069,0.7973168653700026
1.421875,-2.2119986805608374,-1.0362112429114518
1.42578125,1.3928262202198807,0.5692945771790842
1.4296875,0.13499600375403814,-1.6848723385042053
1.43359375,-0.1635175995385574,-0.6471206695489923
1.4375,-0.23360058253222793,-1.1818260675852303
1.44140625,1.2256939930630466,0.6174247407302114
1.4453125,-0.1604545846111201,-0.1937437793088918
1.44921875,0.739153714776999,0.5613842100057456
1.453125,-0.09232185752584376,-0.06855914126655367
1.45703125,1.4328268744480723,-1.4866153436089142
1.4609375,-0.18563264652069925,-1.600718435350912
1.46484375,-1.506165222320695,0.7244724653834911
1.46875,-0.4809287473789671,0.7139652480905861
1.47265625,0.11274000684974073,0.29514199286125736
1.4765625,-0.7600007556766125,1.8127342568150453
1.48046875,1.5283737971057099,-0.5523928685024434
1.484375,1.7395920142083927,1.1513029565747253
1.48828125,0.6934710296285566,-0.3294168289778146
1.4921875,1.675987854700832,1.5661823074654806
1.49609375,1.3479986063531844,0.7169981264202211
1.5,-0.22080795952973353,-0.6972453158567594
1.50390625,1.580597892021332,2.113274805324766
1.5078125,0.36748823432004535,0.48877432563155665
1.51171875,0.6227320473150566,-1.2739748372370006
1.515625,-0.9450575463619174,-1.1566368833855356
1.51953125,0.04875980379989105,0.29074980835701114
1.5234375,0.4413447095481547,1.7537598711267002
1.52734375,0.4617654516163491,-0.35506660447822486
1.53125,1.569483001413965,-1.118989141511326
1.53515625,-0.40823588172530684,-1.318781782860405
1.5390625,-1.004466216594767,-1.909511773137529
1.54296875,0.2818935213709101,-0.9825137578185612
1.546875,1.014741383605036,1.8033492338455592
1.55078125,0.9759489661144632,-1.4568888526762016
1.5546875,0.5745215757362284,-0.4691518767586771
1.55859375,1.8161294376192036,0.9266966982398249
1.5625,0.1148342092099153,0.27970551292214885
1.56640625,-2.041669182066991,0.6708135921651182
1.5703125,-0.3495999470929768,0.7563998781913606
1.57421875,0.6093116815065198,-1.1310970963064724
1.578125,-0.12229355227107246,0.08794511254340365
1.58203125,-0.05757455477951842,1.3464712540743216
1.5859375,-1.0847266247142697,-0.06012100493320539
1.58984375,-1.3029192704829848,0.8956808572245838
1.59375,-1.2736296429827911,0.3613787656156233
1.59765625,0.5116199677778489,-1.2340693142734702
1.6015625,1.447564209130283,1.231564503221958
1.60546875,0.04853177596817315,0.0004964957088828979
1.609375,-0.8399706997972617,-0.9729109790654543
1.61328125,-0.20598827463553634,-0.6157801240633867
1.6171875,-0.7191441935969467,1.2257345986371526
1.62109375,0.237374377484549,0.7348048378967029
1.625,0.5688509800621383,-1.7088377815136724
1.62890625,-1.1022733380549823,2.0132336318885757
1.6328125,-0.47262546479454853,-1.9918636668088077
1.63671875,1.244664849820169,1.0646826555419366
1.640625,-1.4109424944871893,-0.8701516883226694
1.64453125,-0.25250311712117857,0.9789909324009843
1.6484375,0.5138650534494752,0.47756839624263786
1.65234375,-1.4773551789154677,0.1406495637316928
1.65625,-0.007938758668918465,0.18766793860004438
1.66015625,0.4619611620469537,0.8466805383159332
1.6640625,-1.6156887433120959,0.3212275049998591
1.66796875,-0.14442792799006757,-0.9757352878552352
1.671875,1.3833586803940645,-1.9778820445072915
1.67578125,-0.4693303323726411,0.32777252784557903
1.6796875,0.7283363599684378,-1.3871144832591298
1.68359375,0.17473258869671895,-0.44802811796771
1.6875,-0.6514679752933955,0.7808370946762044
1.69140625,-1.1181118027257608,0.8975274633808094
1.6953125,-1.2128674789436236,-1.6733044021683365
1.69921875,0.37198137361160266,-1.3595854145953057
1.703125,-1.856291394759559,-1.8087375066087485
1.70703125,1.9467431771535062,-0.8102574046834905
1.7109375,0.07512143484400478,1.3859577229687865
1.71484375,0.19999544159885288,-2.245709887614244
1.71875,-0.3981738895168438,0.4790215909789673
1.72265625,-2.636136615306387,-0.5026769155302353
1.7265625,0.35755562639551947,-0.4117476214922018
1.73046875,-0.6692386122608228,-0.24908601478997092
1.734375,0.3427157616009153,0.12069468742712058
1.73828125,-0.3089137863207091,-0.2747627451360439
1.7421875,-0.86976009094433,0.21110421453184644
1.74609375,-0.19942055011862642,-0.9672801131523906
1.75,0.18172757355149807,-1.1944280033294112
1.75390625,-0.45714191048558916,1.202560191650888
1.7578125,0.4981331113868439,0.1911694807518892
1.76171875,-0.16819722213139066,-1.9045417820107684
1.765625,-1.3137026421315536,0.9094162692306571
1.76953125,0.20444202144604134,-0.39107939757338395
1.7734375,1.7074230749750539,1.067680284564669
1.77734375,-1.3763802080118146,-1.8536585844394262
1.78125,0.9345459729585911,-0.6848079094215233
1.78515625,-0.24397997778200722,-0.37192920021155096
1.7890625,2.874971977866943,1.018762468554611
1.79296875,-0.4295257192874088,1.4003146201452892
1.796875,-0.654548733874292,0.33685496406319493
1.80078125,0.6774976675305605,0.5718363179814805
1.8046875,0.35990622522763527,-0.8163057658326595
1.80859375,-1.6798627651864253,1.4094385882329004
1.8125,-0.521015539376942,1.0428353463645665
1.81640625,1.1362753176639064,-0.7217585457271335
1.8203125,1.273639646066296,-1.0414363129095034
1.82421875,-0.3295987244648898,-0.8492969663650228
1.828125,-0.2190365784330458,0.9928095506730528
1.83203125,-0.9382707075576698,-1.0391972310051625
1.8359375,-1.050482275207598,0.1776396604332204
1.83984375,0.6709482869090987,0.39860527511244426
1.84375,-1.5487217253327612,-0.3094843572908924
1.84765625,0.45214129569696526,-0.30398496618384613
1.8515625,-0.3268279708262222,1.352238087995093
1.85546875,-0.5585586946760849,-1.2356415015350346
1.859375,-0.5379869179685984,-0.7635865850462913
1.86328125,-0.19430467639388765,0.6955260042764757
1.8671875,-1.0408243278029885,-2.1168216557255435
1.87109375,1.078542008707096,1.528760309305135
1.875,0.22207107890019773,-1.0017831974335552
1.87890625,1.3239456559333622,-0.4093462971334847
1.8828125,-0.8250067952997723,0.3035282632677177
1.88671875,-0.522337264242511,-1.0823511893743931
1.890625,1.1572628722235119,1.4534385918869341
1.89453125,-0.20052573739745863,0.3612910549947337
1.8984375,-0.05843333308770205,0.10277918720175074
1.90234375,1.0227643428233217,-0.889587523674517
1.90625,-0.1091343237571642,-1.075764712210712
1.91015625,2.295282334839862,1.3167744215059118
1.9140625,-0.9307786560817801,0.17415460520749695
1.91796875,-0.4440404986143753,0.6410171280490217
1.921875,0.5395088845869047,0.8545482007544207
1.92578125,-2.0426259071774875,1.5737088517493907
1.9296875,1.6691068578621608,0.9533687131257614
1.93359375,-1.30258968595238,-1.4246471915504948
1.9375,-0.40355699627245933,-1.2809946917237207
1.94140625,-0.7317809318339875,0.7946733744964306
1.9453125,-0.42679581309610937,0.528430758443757
1.94921875,-0.208118346231365,0.8812942594430735
1.953125,1.194447985132584,0.8586290924486787
1.95703125,0.3855558963476331,-1.2708495167852936
1.9609375,-0.5524471538118796,0.43629685419386965
1.96484375,1.2233154321799793,1.1697085307311892
1.96875,0.009852024192162277,0.24051777571146518
1.97265625,0.03296479980810066,-0.12777190385375287
1.9765625,1.710108827993341,1.4658803968304968
1.98046875,-0.7441608205071985,0.7528320658942259
1.984375,-0.9554227192181475,0.36704124024946627
1.98828125,0.23309421999523333,-2.132876294814269
1.9921875,1.8606329044846837,0.7352206177881577
1.99609375,1.1785002609663218,-0.06151411290161123
2.0,-0.011570025772812766,0.08162119269308502
2.00390625,0.9043758639773738,0.7750529213412033
2.0078125,1.0540889845023989,0.15255660207361874
2.01171875,1.5295479282062034,-1.6013636727191873
2.015625,1.4045399679726462,-0.9424727651057024
2.01953125,2.8459665864559502,-1.2922449538884802
2.0234375,0.41440630103900844,-0.5483416495957107
2.02734375,0.5499120145710414,1.20417383775324
2.03125,0.27030879097425087,-1.256484086046255
2.03515625,1.3867319223823906,-0.11779783739910489
2.0390625,-0.9810684531855091,-0.6758578336560337
2.04296875,0.7490673219771985,-0.0036979597987904485
2.046875,1.249710854571196,-0.7396108282857214
2.05078125,-1.2239489948706523,0.4246334733689126
2.0546875,1.9998047176025768,3.1216206037185104
2.05859375,2.2581693882582483,0.21476588591633933
2.0625,0.5220271239525973,1.7948070992032952
2.06640625,-0.5767835406501347,-0.5557426926815884
2.0703125,0.30934440827832616,-2.2134595095884007
2.07421875,0.9340399877411258,0.7007201530352962
2.078125,0.5896973863522431,-0.8402629847612222
2.08203125,0.9563005466702634,-1.8380019700800607
2.0859375,0.19334598467345673,0.5918048199582693
2.08984375,-1.7003385512624083,2.295572753222968
2.09375,0.6125986010292896,0.17163773902132357
2.09765625,1.4174040771157517,-1.180676262731048
2.1015625,-0.8513129193005333,0.6444705787432572
2.10546875,0.12449425218900025,1.1048481892265951
2.109375,-1.0191406212981338,0.2594760442568588
2.11328125,0.6372792575937546,0.47052471212939273
2.1171875,-1.107483754007171,-1.2245882604654468
2.12109375,0.13545231267505614,-1.283184228007827
2.125,-0.4124886583953819,0.5955354790932392
2.12890625,-0.41443572586712113,0.46102860962205855
2.1328125,1.083801968330047,-1.2105787820042284
2.13671875,0.9638404256773057,-0.18123838657773073
2.140625,-1.787715384819369,-0.4198640203207437
2.14453125,-1.3624825937334544,1.3046625261319957
2.1484375,-0.4495587309866235,1.2356143523338274
2.15234375,0.1635829057722037,-2.19322932852828
2.15625,1.7458963745730445,0.5699439291621484
2.16015625,0.32036530650652345,-0.42534176402860135
2.1640625,0.252929377712295,-0.18300918544099404
2.16796875,-1.1366074274068243,-0.1706787574904181
2.171875,1.051777618843298,-0.5940036972730234
2.17578125,-0.621299021182761,1.1487493372552346
2.1796875,0.7019467682315172,0.7595777833433728
2.18359375,-0.973550457862856,-0.7464416611593013
2.1875,-0.6601280884338498,-1.6488738095715088
2.19140625,0.20465831643971202,0.6516814722104615
2.1953125,0.7444133438723893,0.9983843857115164
2.19921875,-0.7506659535387358,0.0944417334181197
2.203125,0.019570295052931036,1.8206596051503672
2.20703125,0.7461438717951423,0.24372455381436983
2.2109375,-0.05732638272875144,-0.3852762667810035
2.21484375,0.6276875000154237,0.05865692247002753
2.21875,-0.7457763936195305,-1.7198752893002835
2.22265625,3.6373569087371385,0.10958139464938087
2.2265625,0.3519483145818254,0.2016331912938517
2.23046875,0.420500954231198,1.430806089302184
2.234375,0.8831988416273967,-1.4330211017353802
2.23828125,-0.3080910573502746,0.2812252712853038
2.2421875,-1.0255593177264277,0.3111970371127172
2.24609375,-0.7365768169887771,0.7080316741467605
2.25,0.09971911504558617,0.7027611583651424
2.25390625,-1.5564204657253522,-0.21287782577728914
2.2578125,0.4460962011711922,0.1218811415121454
2.26171875,0.268080024235925,-0.49470062572107093
2.265625,1.1912276348835942,0.9901887659382326
2.26953125,0.5893150248406366,1.3241904308348709
2.2734375,0.10282445085332818,-0.5027323984444592
2.27734375,-0.5912969562466576,0.060689030419093994
2.28125,-0.6870580536462775,-0.3806347770761878
2.28515625,-1.1415793471861344,-1.329421379499578
2.2890625,-0.780173086818845,0.1753397709742864
2.29296875,0.9042434127702004,-0.41691491775632783
2.296875,-1.4122964894380434,0.23558825754430546
2.30078125,1.8807001288508525,0.3290201140241317
2.3046875,0.5790134308016897,-0.8042515019196825
2.30859375,-0.7314318698330968,-0.9622254998428877
2.3125,-0.06935587514571549,1.8268719101800674
2.31640625,0.3239910921113949,0.567867181014388
2.3203125,1.7012176867142492,-0.511540476040867
2.32421875,-1.6437986423737763,-0.8917101689689526
2.328125,-0.1943492557010717,-0.25306419666046603
2.33203125,0.5280288355962969,-0.5215269777119635
2.3359375,1.0584714101761759,-0.287898670448355
2.33984375,1.6785057349526251,1.492955686430674
2.34375,1.3789601280219879,-0.5866666057333898
2.34765625,0.040079067315786164,1.0904253228517735
2.3515625,0.514900739649008,-0.17669927945903965
2.35546875,0.9264212933243159,0.8364018071709406
2.359375,-0.9731588381629008,1.400500263168122
2.36328125,1.0494543772995597,0.1839920386511344
2.3671875,-0.4837412359967327,-0.3656631015121893
2.37109375,-0.027308994923237285,-2.4828031594500426
2.375,-1.0162854926467828,-0.5748806100100734
2.37890625,0.038530937904868515,1.5470422802983275
2.3828125,-0.7604274265898007,1.4104968975183159
2.38671875,-0.5797884448517371,-1.2553319973570116
2.390625,-1.6759775823214744,2.0694573319529757
2.39453125,-1.4049125279819816,0.4881306394130018
2.3984375,0.9854736166080912,1.2209068387645996
2.40234375,-0.1357480141402829,0.17552398403779143
2.40625,0.24086958150747653,0.4365010592837385
2.41015625,0.6159480254678228,0.8984777463627954
2.4140625,-0.8873260242298975,0.04345379932666264
2.41796875,0.5337698721566234,0.1938967282900342
2.421875,0.11762853343293013,-1.420526774660546
2.42578125,0.647241410340948,-0.6506269968967643
2.4296875,-1.8489700939865674,-0.79851353925296
2.43359375,-0.03630697307366247,-0.2801062600052327
2.4375,-2.8030827768010087,0.49654977629496255
2.44140625,0.7031746749903002,-0.11201081351328453
2.4453125,1.137151359482046,-0.4824762373448692
2.44921875,-0.4151294628196503,-0.4205440207522935
2.453125,1.0107145526092205,0.54950406825161
2.45703125,-0.4587279268772069,2.917491918289086
2.4609375,-0.8863461265977584,1.3991169083494845
2.46484375,0.5833741847305997,0.8591798690334687
2.46875,0.8348392936133818,-0.1000895868448389
2.47265625,0.9011079766432818,2.335419787645603
2.4765625,0.760819193127456,0.528012400389634
2.48046875,1.1087899282683331,1.460998819414581
2.484375,0.4588815424746838,-0.1822732216066209
2.48828125,-0.18384562469318041,-0.18885363494417373
2.4921875,0.7377130420111626,0.263524163904124
2.49609375,0.3460822301698717,-1.0694633259942425
2.5,-1.8824666496308746,-0.0951226092043798
2.50390625,0.17674506626723202,-0.08462067395925509
2.5078125,0.2293176863877549,-0.16329702986201727
2.51171875,-0.7226045086448312,-1.2593272033367564
2.515625,0.05660817748145707,-1.5744466644885742
2.51953125,-2.1678055825649696,0.08269536459903523
2.5234375,-0.19813833568094386,0.3211388926555288
2.52734375,-0.284491240169961,-0.877534346939881
2.53125,-3.011146634388268,0.2126486794283656
2.53515625,0.6134412467092616,0.9360716251023917
2.5390625,1.597558393736702,0.5156109033226906
2.54296875,0.2261542218931752,0.3274154010031092
2.546875,-0.6210989349842156,-2.1759069522692442
2.55078125,1.8432161484451655,-1.5692991467444903
2.5546875,0.2522452241728346,-1.7262225896689256
2.55859375,-0.41837959662092433,-0.9048805901911602
2.5625,0.2432732612289247,1.6717925556591042
2.56640625,-0.29702739503909137,-0.4185390309618461
2.5703125,-0.020413911567705348,1.156918388063397
2.57421875,-1.2457792573010604,-0.13535707148490864
2.578125,-0.06167561944542297,1.3259470686862316
2.58203125,0.9482792209150478,-0.408307697671609
2.5859375,-0.19193436559786947,-0.5081261973649684
2.58984375,-0.36372528119679703,-0.555646718718355
2.59375,0.47024789441212594,-1.1511299538384316
2.59765625,-2.5626627649372753,0.044611425186910386
2.6015625,-0.44522176038195227,0.30527562098089817
2.60546875,-0.5707265714379437,0.6308079970532441
2.609375,0.3649122826653694,-1.8365854452643848
2.61328125,-1.1208413452369448,-1.1841965863353903
2.6171875,-0.15266199803604397,0.9975569955812938
2.62109375,-1.7585679532122929,0.2840167234782005
2.625,-2.2257881497395338,0.8166540577108274
2.62890625,0.5680956660536134,0.741140783766368
2.6328125,0.38303586259902517,-1.4427419507270491
2.63671875,-1.4123981780575972,-1.3876001586528686
2.640625,0.017562942973810818,0.5811110573178667
2.64453125,0.4565616486054218,-0.4753421625100495
2.6484375,-1.3296238747145352,-1.0496694884296542
2.65234375,-1.8480536420483544,0.4175289812755718
2.65625,-1.3605150085769808,-0.6186896805361197
2.66015625,0.5561119440427815,-1.6088259376964325
2.6640625,0.6611400615523957,1.3344522412789677
2.66796875,-1.953713417403667,0.23582758565946757
2.671875,0.3476396813667915,-1.4138822863814136
2.67578125,-0.6025507469508696,-0.8557671825081625
2.6796875,-0.09146875346436176,0.7623458406884612
2.68359375,-0.36640095773560094,-0.114204013031309
2.6875,-0.29605280880845364,1.0259438553382267
2.69140625,0.6514888773496595,-1.2757818801862568
2.6953125,0.06961208495690814,0.4508726366390059
2.69921875,0.946452334446746,0.7204278076204662
2.703125,1.3812897254357128,-1.1731822266836767
2.70703125,0.4771070994317211,-0.8938094355143466
2.7109375,0.9242308177009677,-0.5349626497123884
2.71484375,1.6147379484329036,1.0859828842785204
2.71875,-0.8183108021378905,-0.5246730512963828
2.72265625,-0.2796190760682193,0.5775698290375901
2.7265625,0.7191042573393835,-0.2148101569407047
2.73046875,-0.3500346259005695,-0.42010635700564164
2.734375,0.07973256619994663,-0.4743103838241986
2.73828125,-1.7188822981852725,0.7884544439104858
2.7421875,0.06868728461658728,-0.6451634261155565
2.74609375,0.16701120914741388,-1.324952186789709
2.75,0.15176344224511368,0.4913104062670338
2.75390625,-0.645187690441501,-0.6930235677892062
2.7578125,-0.5949302567277815,0.7454970291696196
2.76171875,-1.2123607154063274,0.7280530012941264
2.765625,0.7554172377663693,-1.467207180518782
2.76953125,1.2525721545730895,1.1123810691421878
2.7734375,0.6568014271281011,-0.06260037536952179
2.77734375,0.21173653395467368,-0.027664211040173657
2.78125,0.9254234185409385,1.3473928492060216
2.78515625,1.0471756777081498,1.447831872447134
2.7890625,-1.1761896994689678,-0.5091546009740818
2.79296875,0.8306576757500385,-0.6263746550857786
2.796875,-0.8068667508749772,-0.18219115032250174
2.80078125,0.044060086095315254,2.150681001587976
2.8046875,-0.8695226153395689,0.40456559360215966
2.80859375,-0.24724261597015634,-1.3454184705180707
2.8125,0.036786166484535456,-0.12364712916580826
2.81640625,-0.9926912068690416,-1.316396401280311
2.8203125,0.4807625476716983,0.1610159031315736
2.82421875,-0.1455466103856892,-2.1227924421407933
2.828125,-0.764263747908881,-0.3321769446126516
2.83203125,1.1514344543020265,0.6960284961755103
2.8359375,-1.4530434191960906,-0.3731078853610787
2.83984375,1.219869476710182,-0.1417457568605695
2.84375,-0.3134961956073838,-0.8076977701678524
2.84765625,-0.46753011235087244,-0.058039128364070956
2.8515625,-0.113618173101332,1.4668305709493201
2.85546875,0.06479362241141094,-0.6859285008261163
2.859375,-0.3414948519099304,2.252067512232337
2.86328125,-0.15473732850685365,1.3614540777012543
2.8671875,-0.32509522058091966,-1.672415118512198
2.87109375,-1.8770870196680112,-1.557996941329177
2.875,0.08514461051922864,0.19435293061271075
2.87890625,0.5187621668432655,-1.4112087684696955
2.8828125,1.2712634357985486,-0.006311361506459881
2.88671875,0.7223985481630308,1.380339196844225
2.890625,1.1516532743140568,-0.6473694503324373
2.89453125,-0.8485168269018843,0.13658721955079414
2.8984375,0.1621591786690492,0.8755245123866362
2.90234375,0.7529630547083465,0.2846429842118623
2.90625,0.32892698236579265,-1.053692153654262
2.91015625,0.07476099015268511,-0.8791033884663109
2.9140625,0.44528436165678387,1.510745878966213
2.91796875,-1.3893929606881104,0.8372412395597826
2.921875,-0.6286346004638629,0.35433879329409806
2.92578125,2.5119130006174726,-0.5906735311084512
2.9296875,2.063582151515999,0.15102471479647261
2.93359375,-0.07541959534578388,-0.5162314152889431
2.9375,1.0669275773766895,0.4920419808911791
2.94140625,0.1902347053504024,0.19896366608963675
2.9453125,0.06234277686236402,-0.9304624979297111
2.94921875,-1.1017321311109034,-0.5065707695614258
2.953125,-1.0113678934716281,0.09735948895237816
2.95703125,-0.4590281434396126,-0.033893389792021215
2.9609375,-0.07657131843795949,-1.3774288253013247
2.96484375,-2.39523489554349,-0.12274932288776357
2.96875,-1.5745372861053983,-0.019088684227796738
2.97265625,0.7842175998424008,-0.2980459139252671
2.9765625,1.5912824039125522,0.8784919712205581
2.98046875,0.35784145536099804,0.35246871627738213
2.984375,0.6086219048684468,-0.69353088084466
2.98828125,0.46526971947590823,1.7486168993751932
2.9921875,0.23598748360323912,-0.280456795278557
2.99609375,0.19170654694483585,0.8250918840012008
3.0,0.3898833986321434,0.3234868268617996
3.00390625,0.03729709878656635,-0.1616305894094883
3.0078125,0.0172223610381044,-0.8311755124698581
3.01171875,-1.1211906233892495,1.923887270758752
3.015625,-0.44155205146843124,-1.8270351702838141
3.01953125,0.15335308551846752,1.5841135969731803
3.0234375,-0.17059503302181264,0.7254096331720254
3.02734375,-0.08291704641613648,-0.060603905807527406
3.03125,-0.5913956093326317,0.7511140169992604
3.03515625,-0.7751331115635444,1.1908015134805736
3.0390625,1.3486448696450961,-0.6138310489714142
3.04296875,0.22860119119892433,0.6945665194200814
3.046875,0.5667966483940121,-2.4313255343121765
3.05078125,-0.8794490976238419,-0.7179578235228878
3.0546875,0.5794890543216099,-1.1247208526661627
3.05859375,-0.21409991485890484,0.35663561337366567
3.0625,0.8154342961855738,1.6056522500646768
3.06640625,0.3885126566241831,1.160878517978642
3.0703125,-1.157316192449593,-0.681646993379873
3.07421875,-1.256399428728437,1.1083635829935992
3.078125,-2.5120308473658035,0.9501081225722015
3.08203125,0.17846794487735845,-1.245275933221008
3.0859375,-0.0606046038589479,0.41261104761949396
3.08984375,-2.1894916883364233,-1.221040469534657
3.09375,2.1167546162114204,0.25695587608227244
3.09765625,-0.637421412239244,-0.05020589581300787
3.1015625,1.0062825670327107,-0.3248917442622175
3.10546875,1.1522086178205233,-1.1128222333304754
3.109375,-1.2523364911144903,1.2411920219262687
3.11328125,0.5294447282511635,-0.2503248951361623
3.1171875,0.3908153854241261,-1.1796996250587606
3.12109375,-0.13334220507252376,-0.2786462327874436
3.125,0.39044210554892267,-1.0077863977777684
3.12890625,-0.7071242775222454,0.2612524170720456
3.1328125,-1.174066625413282,0.13637994472540838
3.13671875,0.7067125654267781,-1.4041661295183532
3.140625,0.0889697185604164,1.1860853105966642
3.14453125,-1.8664799822206692,0.009842430145061145
3.1484375,-0.7760602754170138,-1.0545658731124654
3.15234375,-0.9254453831292115,1.3220439468276186
3.15625,-1.233829846543839,-0.09327662421595367
3.16015625,-1.7229157895874645,0.14443228583952833
3.1640625,0.9435041963565155,0.059232662054300285
3.16796875,-1.492349763923805,-0.4118574910783797
3.171875,-0.24113317757352276,0.8550473945745591
3.17578125,-2.3047433277909533,0.4699247281414042
3.1796875,-0.5954776397912084,-1.6203282053007257
3.18359375,-1.8741919570566177,-0.8840627895298375
3.1875,0.02691534182979671,1.4918832338562822
3.19140625,-0.3227949825042803,0.13990623410208822
3.1953125,2.3140402525103827,0.1269125273814297
3.19921875,-0.1408438777893837,0.26298964875932346
3.203125,0.7323453919773716,-0.3215665592349244
3.20703125,0.2187567081219526,1.8763712472502079
3.2109375,-0.4578352708465467,-1.6038945365651234
3.21484375,1.1631967042931541,0.43815847948945436
3.21875,0.3749607475373851,-0.7943307992361048
3.22265625,-1.454236482390205,0.33597820589097466
3.2265625,0.5265789024647027,-0.27458834511238933
3.23046875,-0.2877412652140302,0.40237262294626447
3.234375,0.2269801047597039,-0.07460234344578104
3.23828125,-0.6148158256074271,-0.12728026964924433
3.2421875,-2.4223609999175877,1.3562277974791113
3.24609375,1.4567111412741458,-0.7500485925955885
3.25,1.233359828755306,-0.13766200164973516
3.25390625,-0.4467676283614023,-0.2988213157544896
3.2578125,-0.3019117889771935,-0.2854063880367947
3.26171875,-1.9469642654791728,-0.3807534523990474
3.265625,-0.0019611310398940057,0.13510040660223713
3.26953125,0.4302725096636877,0.43474558284684833
3.2734375,-0.5041817310583102,0.002332196976758517
3.27734375,-0.07316762984017136,-0.702732215441659
3.28125,0.35603911619532247,0.4960969796070839
3.28515625,0.010042995194375567,-0.2040360623292702
3.2890625,0.9741684036842301,-0.13389315725685685
3.29296875,-1.7662042134968006,0.4336662436560448
3.296875,0.2575192413106682,2.198185179710167
3.30078125,-1.3034411576356115,0.6508726101924568
3.3046875,0.3667766289328974,0.5335227291477532
3.30859375,-1.8335649078801353,-0.1398903278243277
3.3125,0.5511852041609447,1.1901922304549808
3.31640625,-0.48018402843384994,-0.9301872495915271
3.3203125,-1.0192071899725559,1.3983143649045657
3.32421875,-0.2229363265094228,-1.4504134224341323
3.328125,1.0360230729836717,0.8094698747642064
3.33203125,0.07131841492471884,0.8667207997239124
3.3359375,-0.7584169633742478,0.8136693435367514
3.33984375,-2.0089961421607203,1.7011462130702713
3.34375,-0.6076182339705062,0.6335775334422393
3.34765625,-0.7172665657616699,1.0563620764187045
3.3515625,-0.00762620103093675,0.4681995812527287
3.35546875,-0.20741439600222475,-2.235659998364621
3.359375,-0.5512534596542501,-1.1603123682161165
3.36328125,-1.046685234276412,-0.13748297763935796
3.3671875,1.0737148925490454,0.1839805288049002
3.37109375,0.9630163587739636,0.071242038884218
3.375,0.26018079946069655,-0.4468164320550558
3.37890625,-0.9008712626902804,0.8614881806781305
3.3828125,0.8538298342859586,0.25114551440179805
3.38671875,1.7168665006948507,1.12657298305891
3.390625,-0.49173529846376085,-0.0016228143332144547
3.39453125,0.3934472611869394,1.9594764348147182
3.3984375,0.17108405253398515,-0.407398185748971
3.40234375,-0.28363248013074743,-0.551644744492364
3.40625,-0.8705665303198431,-0.3328826158436882
3.41015625,0.5485023761983219,0.20591823131943865
3.4140625,1.0808756879178598,1.576309775808937
3.41796875,-0.4271334579350273,-1.0785896996097748
3.421875,0.5595291559761186,-1.1409631654632089
3.42578125,-0.39982352662261883,-0.4368314009554363
3.4296875,1.1653218102676932,-0.5790282384429042
3.43359375,-2.0348709209118763,-0.26372705014938574
3.4375,0.3627307019491543,2.7925259934347046
3.44140625,0.1612740117581059,-1.248033754151274
3.4453125,0.1644830496189562,1.6335172755067715
3.44921875,-0.4640553480682417,-0.000801593454127779
3.453125,-0.9552442509336422,-0.2990382470029051
3.45703125,0.052082976141436525,-0.6195653958999189
3.4609375,-1.3137361008523458,-2.638263657611408
3.46484375,0.8856534140692909,0.7383122024887606
3.46875,-1.19673606676252,-0.05936162520911974
3.47265625,-1.0615430069659595,1.1905236470438267
3.4765625,0.15351492860863158,-0.6650154575804288
3.48046875,-0.6060697122088223,-0.33254010231384495
3.484375,0.43929035004814093,0.755163607926409
3.48828125,-0.1946060332383174,-1.3615945385688988
3.4921875,-0.983397619105692,0.9890486013521272
3.49609375,1.0588596460058928,1.3867730844116108
3.5,1.7497551236682016,0.46560318061382877
3.50390625,0.37194763039477236,0.20995830777362673
3.5078125,0.2248428902932711,-1.1483820094303208
3.51171875,-0.5613498225559026,1.2617106598144
3.515625,-0.9491121570113269,-2.5967859865777423
3.51953125,-1.2961106972578798,1.4273920502679942
3.5234375,2.945868552617893,-0.22578894407786024
3.52734375,-0.3125277645990731,-1.4342563806583069
3.53125,2.1842836857583623,-0.22759961132630532
3.53515625,0.03875716415568193,-1.1518239201998197
3.5390625,0.7783081693166385,-0.9862415926186074
3.54296875,1.3114566310052138,-0.0014021752731755732
3.546875,0.30927363914499656,1.6142646709688255
3.55078125,-3.1714504745408703,0.41471406721770265
3.5546875,1.9017747827529687,-0.4936031452595857
3.55859375,-1.0462486235795005,-0.12792847299303542
3.5625,0.37021909157798477,1.729635073098745
3.56640625,-0.21870422326919634,1.4418507318813005
3.5703125,0.9109473786406578,-0.6767055241327734
3.57421875,-0.6326311193206835,-0.46888450076418864
3.578125,1.1996729826268062,-1.057905918252733
3.58203125,-0.6136684311946704,0.06330668741177167
3.5859375,-0.33552431549649064,1.4656665597431096
3.58984375,0.557485074459177,-0.8977294816292097
3.59375,-1.2023597614918031,0.7458718129541849
3.59765625,-0.007605308769138837,0.7090551002582172
3.6015625,-0.016457880631089664,1.9007458418102217
3.60546875,0.11234539182325613,0.6995292710372077
3.609375,0.30932584205446284,0.16424407834682966
3.61328125,-1.3013360278678443,0.06126116674861053
3.6171875,-1.036439827028812,-0.796242438529523
3.62109375,-0.2767972295680684,-0.7649071089347805
3.625,-0.4645536263517118,-0.01948794802774242
3.62890625,-0.19248519288499705,-0.3994122950454573
3.6328125,-1.7318784791066197,0.5199065570628276
3.63671875,0.11050442509398078,1.1557408875440334
3.640625,-2.0619250259841153,-0.3106557922010316
3.64453125,0.8494280928092607,-0.055383241911448736
3.6484375,-0.7054381255588319,0.005933234523947746
3.65234375,-0.12204779998839078,-1.859098670357614
3.65625,1.132446377533776,-1.5238002822628591
3.66015625,-0.37189811487838886,1.027008796480262
3.6640625,0.10549546924024707,-0.47046575498760906
3.66796875,-0.8951282914537597,0.9114948602539775
3.671875,-0.15517220963400175,-1.1992591696938886
3.67578125,1.0400734303660186,-0.5401118176280504
3.6796875,-0.33551572157504783,-0.07812262321077307
3.68359375,-0.7869950495251061,2.535933992262768
3.6875,-1.8967473474307748,0.5967351674463577
3.69140625,-0.2465042520451562,0.3011184238293845
3.6953125,-0.6304154739858596,0.7346317394277494
3.69921875,1.0241500451906025,-0.32572643376907895
3.703125,-0.310101649676862,-0.1027449474073436
3.70703125,0.9122039307946554,0.6724550430708498
3.7109375,0.9756129153224437,0.6732597819688168
3.71484375,-1.0893724102925237,0.32006628495962414
3.71875,-0.36890491516635693,1.3188735169177963
3.72265625,0.6334477714269402,-1.8828154364921414
3.7265625,1.1238909335278644,-0.6161853516376055
3.73046875,0.15545038019562799,0.3068049627888479
3.734375,1.2602611722582215,3.1508697581011553
3.73828125,0.44478790912048805,0.4384820170035995
3.7421875,0.1766190460910134,1.5931497514133548
3.74609375,-0.3325568678828359,-0.45785979869026966
3.75,-1.2355748523671028,-1.0655359503174464
3.75390625,0.07786262531518057,0.4877337490824149
3.7578125,0.04953124577717593,-0.4536721572425938
3.76171875,1.7391554474686493,0.7724755615963806
3.765625,-0.17628221443006428,-0.9505753947383853
3.76953125,0.2366344213400269,1.0746448661448254
3.7734375,1.2499632357587926,-0.2567328113906042
3.77734375,-0.1822822584442051,-0.595523790092956
3.78125,-0.02412280312932114,-0.16673149770543497
3.78515625,-2.0408844783940148,-0.2830616212380089
3.7890625,-0.7601364670239698,1.818090451013364
3.79296875,1.1281753232816008,1.164554650731486
3.796875,0.920548668139944,2.05077311984271
3.80078125,-0.1986760421958179,0.8431558793785283
3.8046875,-1.447618946051609,0.6749744660748427
3.80859375,-0.2746121046872708,-0.3140425129590332
3.8125,1.4218352931959757,0.13765595278258358
3.81640625,-1.0413388263233603,1.554455145772695
3.8203125,-0.6645794244139628,0.635345057603275
3.82421875,1.2420188655148423,0.0025925252013297177
3.828125,0.46627789782162005,0.9725557763180857
3.83203125,2.573840308751709,0.19899959657642807
3.8359375,-0.4362834576474632,0.5195572036953161
3.83984375,-0.01844131996736747,0.6150587597103286
3.84375,-0.39640165185783943,0.46763528606329696
3.84765625,-0.6721525279090044,0.0658850772287363
3.8515625,-0.3579685683787208,0.6273077519866646
3.85546875,-1.498279354242735,-0.0021607887064378213
3.859375,-2.431610756217997,0.8798292111088098
3.86328125,0.42898881383733817,0.3599803933081011
3.8671875,1.1238628982998269,-0.3300458953898936
3.87109375,1.0286045435451505,0.08868484726041688
3.875,0.15481997943771775,1.3594875878175194
3.87890625,-1.506973912729597,-1.0852836763232523
3.8828125,0.3878674834379773,-0.9577594359572951
3.88671875,0.6282621845520356,-1.8724533053346089
3.890625,-1.6026926362088165,-0.863526067524601
3.89453125,-2.6316440259099285,0.8816707373891866
3.8984375,1.5683220205311597,1.1294200847091362
3.90234375,-1.9114158989446075,0.9093629035564892
3.90625,-0.0011422882864093168,0.6416045452291438
3.91015625,1.5254271178930006,-1.0077721891350295
3.9140625,-1.3360708457681418,-0.11622642593035692
3.91796875,0.3530395465157864,1.392155751817794
3.921875,-2.3968083617247555,-2.1176497364491147
3.92578125,-1.2351170860402045,-0.07087103218732103
3.9296875,1.0062760395288077,1.0580708004504582
3.93359375,2.386290164533123,-0.32441639963547714
3.9375,0.33358498608643994,-1.2782951030595306
3.94140625,0.10365394114783769,0.6488878342599429
3.9453125,-1.3979365671892856,-0.7217304470595293
3.94921875,0.7140459094342414,0.4715412307850053
3.953125,1.1382632866213926,0.19673473289915047
3.95703125,-1.9396781601814375,1.1675873666134262
3.9609375,0.6404143139792906,-0.2735956811522336
3.96484375,-0.012154492208612777,-0.14998228352294246
3.96875,0.45309680029516775,-0.3257562317262002
3.97265625,0.728385565457527,-1.1379857040293693
3.9765625,-0.13256581518816893,0.5358869452789845
3.98046875,0.11419929655979871,-0.8543658442568959
3.984375,-0.20714913189654713,-1.0217380236674363
3.98828125,1.5277868346956764,0.7227232458518539
3.9921875,-0.6117490699104475,0.16880801790059144
3.99609375,1.6399939414279914,0.7838132600816323
4.0,-0.9270366826914376,0.37451872970847244
4.00390625,-0.792061628490541,-0.8894071304046773
4.0078125,1.109174780633786,-1.589799592364645
4.01171875,0.8989478372456879,1.0504893260275525
4.015625,0.1370018651041719,1.0562384654775725
4.01953125,0.4733377514220668,0.15527282110746288
4.0234375,-0.23969121490046583,-0.2002759300624626
4.02734375,1.0869536279942826,0.8271190456957223
4.03125,2.2534010419691533,0.48534925941336104
4.03515625,-0.366497641498592,-0.09621146017715328
4.0390625,1.1312427218885177,0.18740291349986665
4.04296875,-0.24224884260630755,-0.04543956832014767
4.046875,0.03438519650186001,-0.8529829157665239
4.05078125,1.6047453123808233,0.547224771576259
4.0546875,-0.10071574779673265,-1.4267676162206977
4.05859375,-0.33000742634799274,-0.6669293557603089
4.0625,0.7743062175849267,0.13661672190733523
4.06640625,-2.571487220734379,0.7204442957259346
4.0703125,0.311157762261067,-0.3472329881730179
4.07421875,-2.2996222673041076,0.41206127207552795
4.078125,1.987125451199391,-0.9927006193463546
4.08203125,-0.03653605999123405,-0.9998628896848746
4.0859375,-1.6189520357904814,-1.4430308884183076
4.08984375,0.026610731897592735,-0.4852492006899122
4.09375,0.8598126809897799,-2.408555822743463
4.09765625,-1.3914167894131708,0.2692447396628392
4.1015625,-0.820420786539524,-0.5434197069055909
4.10546875,-1.0039006057517583,-0.9934156601525038
4.109375,-1.2440182117717589,1.5694236572039988
4.11328125,-0.7199166820575583,-1.0406314858411951
4.1171875,-1.6867337526815673,1.4934577232398387
4.12109375,0.6456204292569042,0.10639383090814582
4.125,-1.7972419808166258,-0.4836734849968987
4.12890625,1.0658500410750984,1.3898317844593384
4.1328125,-1.2007598026691029,-0.2962417782147327
4.13671875,0.6791885297928967,0.09573832181079882
4.140625,-1.0973925149211026,-0.8882355609295769
4.14453125,0.08874238485633655,1.8988872694812504
4.1484375,0.03621384586718386,-1.8286128187600776
4.15234375,-0.8474438019430317,0.1825462073281849
4.15625,0.5991461834864756,-0.21343463720106665
4.16015625,0.04176585154240963,0.5911957685154118
4.1640625,0.7565326028993623,0.1797158008055176
4.16796875,1.1568801596686333,1.6023057504428215
4.171875,-0.8119035088400073,-0.26962499246721083
4.17578125,-0.6558634552703251,-0.8232499084713719
4.1796875,0.3804656399442666,-1.6760787955183087
4.18359375,-0.31629750691597824,0.41601362516198565
4.1875,0.0721539015890298,0.03610644549915769
4.19140625,1.041006489481231,-0.5953229264492834
4.1953125,-0.4700950176497212,0.5691961947348748
4.19921875,0.5359535261032989,0.037511235319637716
4.203125,0.09758761127985113,-0.6564385037383857
4.20703125,1.822710345774033,1.1945392122774934
4.2109375,-0.5260062341304189,-0.9102285716499733
4.21484375,-1.035217153147926,-0.9253389568408208
4.21875,-2.1487781273297157,-1.5646477660142069
4.22265625,0.40818015341515235,0.8583183154810624
4.2265625,-1.3711802823083747,0.8189536342734868
4.23046875,1.4690629905457053,-1.4548498666158154
4.234375,0.37714510250171096,0.2711755895963226
4.23828125,-1.3890425354180387,-0.13967440410971904
4.2421875,0.6186334126597826,0.7252812058826081
4.24609375,0.288967831961116,-0.11543051850718307
4.25,1.7054161730379775,-0.3575858405419393
4.25390625,0.8534255585573779,-0.13951411838976097
4.2578125,1.4319374280694892,0.741205218023395
4.26171875,1.0050479741044163,-0.18112904969155405
4.265625,-1.0600417580537627,-1.2558505334284467
4.26953125,2.6302166609171977,0.3535952864653968
4.2734375,0.45736429260496997,0.3667872380727293
4.27734375,-0.11926293937381775,0.20048439512009572
4.28125,-0.40972282146607997,-1.8504457522054445
4.28515625,0.4991465678060514,-0.20251810393037079
4.2890625,-0.7961970642187204,0.3777903063727313
4.29296875,-0.03350023910194938,-0.5628188865499288
4.296875,-1.2654395055738021,0.6429367699805196
4.30078125,0.1570505891575949,0.3395058766415806
4.3046875,-1.1754640982062876,1.6876991467331528
4.30859375,0.6515586718036322,0.05153446684282668
4.3125,-0.23970603646387084,-0.14318500071774812
4.31640625,0.6878087625382061,-0.24694037706191424
4.3203125,0.26620283666468403,0.5007337699805413
4.32421875,0.6263973148471859,1.2408591722666604
4.328125,0.15597354487604712,1.2787367552554505
4.33203125,-0.7332194446644715,0.3425653287767414
4.3359375,-1.3416515703825833,-0.8260759055171785
4.33984375,-0.042464572697557254,1.9372553527873224
4.34375,-0.1667122520859552,2.326179979708257
4.34765625,0.5339517005750843,0.8787489688586575
4.3515625,-0.9785015148541995,0.4841490231464845
4.35546875,-2.245581427704215,0.5704878683404685
4.359375,1.8860794380621055,0.05533479141124286
4.36328125,0.121990831393622,-0.4705982759484456
4.3671875,-1.6058918851494364,0.8057724551470494
4.37109375,0.4969321631864243,0.3046117370590329
4.375,0.9630066371742639,-1.0796666352536832
4.37890625,-0.04983677197940262,0.7700078146706829
4.3828125,-0.31242227682011486,-0.2219600237134247
4.38671875,-1.1979046234944692,-0.12654335059638447
4.390625,-1.3329349432724096,0.1890582322858381
4.39453125,1.2875059353387919,-0.1942362349383412
4.3984375,-1.2394476522855735,-0.26347247718372874
4.40234375,-1.3066753314324886,-0.8950694246515776
4.40625,0.9783912715179001,-0.012744783568748318
4.41015625,-1.0395228999781416,0.45458876459740727
4.4140625,-1.926256477483623,-1.853506892042155
4.41796875,-0.29089085091376227,1.0451496618355167
4.421875,1.0421098963214899,-0.21527284689791543
4.42578125,-0.3455738588146846,-0.20206359647612052
4.4296875,1.8743835702868874,0.4593104465711694
4.43359375,1.0714112593604426,-1.2504064575220382
4.4375,-2.458175729840584,0.4745878279976013
4.44140625,0.6289627665245389,-0.5048684674376126
4.4453125,0.24211242974762284,-0.3029169175760397
4.44921875,0.5348700366207193,0.10139086176587012
4.453125,-0.07152179114208226,0.8559295593777047
4.45703125,-0.9055389192388494,0.229441389202943
4.4609375,0.4450011014033972,0.8099632701681145
4.46484375,-1.4564793232689905,0.740257424818634
4.46875,-0.17366925196374305,-0.36412998530301255
4.47265625,-0.429141991645311,0.7244513816230196
4.4765625,0.22398347626079848,0.17046670893104687
4.48046875,-0.8071508314965169,-0.767233351879877
4.484375,-0.2639848982462099,-1.615792596681725
4.48828125,2.5487998701485433,0.676774394524311
4.4921875,-0.7665120117292546,-0.6692518705433066
4.49609375,-0.3864283713930814,1.1756337127375658
4.5,0.19295310358184942,-0.05853812524713521
4.50390625,-0.9499034480360203,-1.5005252906233182
4.5078125,0.28368681155237635,0.003733951223615897
4.51171875,-0.5036100954646531,-0.6202952264983119
4.515625,0.6184555072946886,0.8199643260330931
4.51953125,0.8823274656726386,-0.36592195907874614
4.5234375,0.02152562963408793,0.26195708397146433
4.52734375,1.288742836775164,0.14984075100950506
4.53125,0.508952131004621,2.196565644977634
4.53515625,2.4396803790985575,-0.24450205962384267
4.5390625,-0.36895207327244933,0.022656569876901966
4.54296875,0.020788568606292628,-0.8762388812910976
4.546875,0.07637209143910208,0.11223490672189015
4.55078125,-0.12664921478417207,-0.986340090869273
4.5546875,-1.2517616747973326,-0.13119678616755623
4.55859375,0.8988938023339635,0.16933802153883806
4.5625,0.3476819085275455,0.8626884033792944
4.56640625,-0.5423861914326011,0.7321828275927466
4.5703125,0.48715623312614453,0.0035325602182540504
4.57421875,-2.154972138248027,-1.574888315796507
4.578125,-0.6195377261092417,-0.13896903964420107
4.58203125,-0.08637886242602709,0.9701797039962455
4.5859375,1.2903683327088662,-2.0607411883852
4.58984375,-0.5062529123968988,1.0831514183840711
4.59375,0.14923617147403537,1.1321422607660458
4.59765625,-0.26574363561973474,-0.12060195239443111
4.6015625,-1.2841496342988394,-0.3355329345233186
4.60546875,-1.169601432812172,-0.10606895127432966
4.609375,0.4930933732516746,1.1387629414331217
4.61328125,-1.720736966412312,-0.13947442839112936
4.6171875,0.4288041332365419,-1.7803471360686154
4.62109375,0.08356627893213542,0.03874230821235725
4.625,0.39845622813806875,0.39296005102839476
4.62890625,-0.2700476441765975,-0.5911154712493174
4.6328125,0.8441748970943134,0.7175369451958481
4.63671875,0.2591931333722183,0.24089487411694546
4.640625,1.0883521824251043,0.26516146885805386
4.64453125,-1.3432284335657876,-0.9014430539179066
4.6484375,1.3432506985030424,0.10267496055044098
4.65234375,-0.7810860707302089,-0.841274813056279
4.65625,-0.4859911834755044,0.29142835240608417
4.66015625,1.223737782332995,-1.1796432614067944
4.6640625,-0.10379316490476212,1.1578566830361974
4.66796875,-0.6955713783696048,-0.4844467526324686
4.671875,0.06635175349115116,-0.5976487562152338
4.67578125,0.7522737864008584,-0.2709169128560772
4.6796875,-1.6381714344152087,-0.1645255585598854
4.68359375,-0.7405222153630885,0.43942518479583
4.6875,1.6395992625124647,-1.4896903248266609
4.69140625,-0.8891265734490518,-0.4530406966417477
4.6953125,-0.26721525570840116,-0.015599750243776231
4.69921875,1.0236052427752838,0.6159311604904436
4.703125,0.24386206353568315,-0.012588358625226231
4.70703125,-0.25920813129407494,0.23744289721862377
4.7109375,-2.3359521737370814,0.9922287914290487
4.71484375,0.9000167947191917,-1.358952225797227
4.71875,0.4717342185385876,-0.3334147704129388
4.72265625,1.2940392651212962,-1.4454927400520772
4.7265625,-1.0157139184446673,0.47595974136246993
4.73046875,0.5885061458972617,-1.1173839148925127
4.734375,-0.5815368850996364,0.4949188702010378
4.73828125,0.5083085126535047,0.5643277288975684
4.7421875,-1.2945562144057976,-0.2714392669345924
4.74609375,-0.19499243896219198,0.5244289417515642
4.75,1.4630153712267449,-1.3157470935286406
4.75390625,0.4762193882813995,-0.5906171608571332
4.7578125,0.034779463847949756,1.5198131902032144
4.76171875,-0.5439980786256067,0.521110800201111
4.765625,0.6918744473539208,-0.2687977709167538
4.76953125,1.3958305578483325,0.22432272659864275
4.7734375,0.7148009588272687,-0.01986769035266163
4.77734375,0.863174540958339,0.21546417994886458
4.78125,-0.6280669565370741,0.2637711068688036
4.78515625,0.5901866962905548,0.17606726285456745
4.7890625,0.27394980695987214,-1.3916710196192905
4.79296875,1.7329570535741634,-0.33747793118287817
4.796875,0.4631464814802178,1.5528055487124253
4.80078125,-2.648641223575608,1.4043312400008054
4.8046875,0.4608149195328185,-2.086657613765492
4.80859375,-1.3276990835723954,-0.34921443980529143
4.8125,0.07959861551930415,1.3095742777306496
4.81640625,0.1430506749698642,0.6404273395532721
4.8203125,0.2774578700578823,0.0486750100705054
4.82421875,1.0762223158237638,0.44448597787005284
4.828125,0.8048275718350337,-0.9461632399170516
4.83203125,0.10966875628119213,-1.5434861160196198
4.8359375,0.5220195459323648,0.5120474805157281
4.83984375,-0.4567819603509682,2.18710378608017
4.84375,0.22659739633899795,-0.793110138239294
4.84765625,0.569225590231979,-0.4663088543684742
4.8515625,0.5682045685722964,-0.5307458152450146
4.85546875,-1.3235636634019257,2.341046723892097
4.859375,-0.801489414136166,-1.0210191906839055
4.86328125,1.0216331368800367,0.4345338325424347
4.8671875,0.8254697888305481,1.0491367351556833
4.87109375,-0.01122606405371522,0.14917106485211273
4.875,1.7744479334838976,-0.9203661712843662
4.87890625,0.8039924888277312,-1.2689226962358022
4.8828125,0.48339104702437025,2.3344975330620357
4.88671875,1.0744332194230863,0.003960515570170421
4.890625,0.3498665449657194,0.4177712507380046
4.89453125,-1.547226097302784,0.16478698356092122
4.8984375,-0.48144663408529087,-0.7563416252152202
4.90234375,0.17520798833853946,-0.9378996256161392
4.90625,-0.16085044280925115,0.36640588656292994
4.91015625,0.8167060512239804,0.8006215416770932
4.9140625,-0.9261822460209018,-0.3133529652601586
4.91796875,0.5910889694972782,1.17696455337414
4.921875,-1.136419180260228,-1.4266051674264848
4.92578125,2.262358886326894,-1.9222951833431154
4.9296875,0.20830128478072749,-1.275912893124039
4.93359375,0.8139574908081096,-0.20315103540366455
4.9375,1.0106697579105521,-0.27467098234993576
4.94140625,1.4682843158912915,-0.22212824252289232
4.9453125,0.842803244711914,-0.24604185040989354
4.94921875,0.9904644641057501,-2.096088865178127
4.953125,-0.7603894235403351,0.29168526151688967
4.95703125,-1.0974524960754821,1.0012320928882845
4.9609375,-0.8374029517164452,0.5524689654362989
4.96484375,1.0478585129201519,-0.3752310798436409
4.96875,0.5529183332045069,0.7164283137166204
4.97265625,0.49892095759123145,0.3230005748772062
4.9765625,-0.35486770905422715,-0.2768938535526153
4.98046875,0.7483191517044705,0.34952204264611836
4.984375,0.34770011837283427,0.1129821978443434
4.98828125,0.5623305491152514,0.43844919235789986
4.9921875,-1.1587978253708064,0.04525899377422434
4.99609375,0.8785966396954469,0.23939674137486633
5.0,-0.6336629915392284,-1.2970074948550936
5.00390625,-0.01027096289226383,0.5300631042448278
5.0078125,-0.20412600233985373,-0.7503404509068986
5.01171875,0.43157529371025843,-0.030648387099668013
5.015625,0.6565991543130764,-0.80916680610165
5.01953125,-1.143554548608617,0.4293889962071859
5.0234375,-2.0740131981830863,-0.5081358922450906
5.02734375,-1.1983227994092416,-0.3265351435178542
5.03125,-1.30405111312086,-0.5921748372092586
5.03515625,0.29622663487254086,-0.8664847712139672
5.0390625,-1.1157944791157393,-0.3553374380717089
5.04296875,-0.2703656071203775,1.0727093583007747
5.046875,-0.6908132803792084,-0.42940735417510056
5.05078125,0.708373873607075,-0.1516749615752885
5.0546875,-2.602131178049684,-0.3833708439780592
5.05859375,1.0935207012823054,0.10266954769565571
5.0625,0.39135901913500326,1.051559822440352
5.06640625,-1.3250912570412479,-1.591016575781456
5.0703125,-0.5513814306615741,-0.5785111788167688
5.07421875,2.0736309979093113,-0.6739509902228433
5.078125,-0.3015610491529237,-0.118310993432071
5.08203125,-0.6340489975275911,0.598865598514287
5.0859375,-0.6113617685191861,-0.4911366063540632
5.08984375,0.8269223646545878,1.318526651541194
5.09375,0.03779302664677188,-0.06684211435346968
5.09765625,0.23994954186847497,0.001019133804719604
5.1015625,-0.38654766307870125,-0.22921613295888693
5.10546875,0.6665434199038537,2.0481894335029214
5.109375,-0.9812959376437557,-0.12691992823141593
5.11328125,0.32136236423993453,1.0479678916994333
5.1171875,0.8617269106417068,0.39051666929054857
5.12109375,0.02869011109362201,-1.1314041755864028
5.125,-0.45981264682968115,-0.3526112545002239
5.12890625,2.5946819653792934,-2.174035822473342
5.1328125,-0.13545516200234164,0.029388301652635316
5.13671875,-0.17251838927124977,-0.41340281330507117
5.140625,1.5941681994879915,-2.6259162542112833
5.14453125,-0.4007693991569169,0.4098517802485049
5.1484375,-0.7405008002057201,1.3209865330064532
5.15234375,-1.052717470118707,-2.037074729845217
5.15625,0.578921979992102,-1.8826426696040943
5.16015625,-0.9112789386581714,-0.6586735633095407
5.1640625,-1.3874944514949206,-0.6326821557038198
5.16796875,-0.8389180449967365,-0.31121103103671727
5.171875,0.015355393624686537,1.6953569890439906
5.17578125,0.36649146852655134,1.3767982081851073
5.1796875,-0.5280031714543624,-0.8877228585131923
5.18359375,1.389103738207171,-0.27074372125294693
5.1875,-0.06849144746830058,-1.5833447879254245
5.19140625,-0.0599627709990915,-0.22015523607492843
5.1953125,0.3095164341637191,1.1333680191577125
5.19921875,0.8551972475425875,-1.6472111476099611
5.203125,-0.6218477454918895,0.6650172336851737
5.20703125,0.2274632834267518,0.8519706769770433
5.2109375,1.044039916220002,-1.1729874771386384
5.21484375,0.3770402881145148,-0.3038376008618777
5.21875,-0.42373828553489873,0.5446114677928048
5.22265625,-1.4869865823549038,1.073758772851909
5.2265625,0.1462999020224026,1.5328707090191998
5.23046875,0.6837887072025013,0.0691602327469887
5.234375,0.1887109514018303,0.6466420825374853
5.23828125,-0.4058922206141054,-0.14805483326353147
5.2421875,1.1575748635209961,-0.1981126122957163
5.24609375,-0.6920582226873526,1.4150563790326005
5.25,2.047431969392098,1.3766027527200477
5.25390625,0.5480845184352187,0.02041569127507007
5.2578125,0.69073685373015,0.039539752927019715
5.26171875,0.014909773147687442,0.6829567525461184
5.265625,0.7168975569165611,-1.2158665513294327
5.26953125,0.008877347340827879,-1.1557599348801502
5.2734375,-1.5811763619761217,1.2668412644520652
5.27734375,1.4682329273208437,0.4100888906793136
5.28125,-1.7178420605376832,-1.2459869703699886
5.28515625,-1.969806049762048,0.31255620456738153
5.2890625,0.438960266192405,0.9975128532955492
5.29296875,1.1582580510709366,0.4481904379276661
5.296875,1.4640658475083155,-0.23972165039950852
5.30078125,-0.23684569217380275,2.805792169635727
5.3046875,-0.6381885168559505,0.06636089089634617
5.30859375,-0.08387543723889035,-0.20247020535703456
5.3125,-0.5624978437038956,0.0009709991223019932
5.31640625,0.45930437141049063,-0.7291240458637785
5.3203125,-0.712010546122271,1.0969557144053645
5.32421875,-0.021240555224153315,1.3989560659631382
5.328125,-0.014173890407040169,0.9223636350658826
5.33203125,0.5629685543527445,-0.34743435196475536
5.3359375,-0.7375735402684604,1.0367068645248751
5.33984375,0.5014130553075687,1.2139677860964981
5.34375,-0.5405418126398281,-0.27581108800989634
5.34765625,0.37305589724066585,1.022441411827092
5.3515625,0.009258808352317464,1.39090589211944
5.35546875,0.2838476574905169,0.9287118444359548
5.359375,0.2567196026182779,0.6694312433080913
5.36328125,-1.1423708920869744,1.293205378249766
5.3671875,-1.4232932219471917,1.754312874543225
5.37109375,-0.8642202949183468,-1.1771617143938393
5.375,0.8602391805233904,0.5999112575050829
5.37890625,0.7954040315565709,0.17571625655876028
5.3828125,-0.2885503172178132,-2.469494274302644
5.38671875,0.5902395647040056,-0.7740163255127454
5.390625,0.4651905787452995,-1.0632966412234028
5.39453125,-0.2524027921710405,0.22945315506400096
5.3984375,-2.0699988796246793,0.2931583903054963
5.40234375,-0.6758921635205414,-0.5807459698776422
5.40625,-1.1410311033895106,0.6338748412840812
5.41015625,0.027807092404837225,0.8947357999791419
5.4140625,-0.07835317722335039,-0.6076637457052025
5.41796875,0.19561911543048666,2.7065543175363858
5.421875,0.9042690825713979,1.864751979801513
5.42578125,-1.7124619706558835,-0.34799600187013224
5.4296875,1.3836658830503001,0.29503154872091947
5.43359375,0.028040513836764883,1.8048821197437879
5.4375,0.39479421753988436,-0.7303652524749967
5.44140625,-0.2132692690845946,-0.8956854616556117
5.4453125,-0.4533703745643254,-0.9948103084729072
5.44921875,-1.2595523326329865,0.5251609196829119
5.453125,-0.23933053673986796,-0.9664240839179095
5.45703125,-0.42695657459507497,1.0604186384080794
5.4609375,1.977572690419511,-0.08474468868360162
5.46484375,-0.18243854815962876,-2.4330245676957545
5.46875,0.4271722916411206,-1.8746173553060534
5.47265625,-0.8228245797330952,0.6783157498928338
5.4765625,0.21509176576718084,-0.8282693041123173
5.48046875,1.5154462319982585,0.4569104559908527
5.484375,-1.0920112537642068,-0.2775032336827136
5.48828125,0.9946551265707876,1.68957717839826
5.4921875,0.6352926208648968,-0.1677997383900327
5.49609375,1.33396689644607,0.6197634947609842
5.5,0.3520349271798691,-0.2742192828295224
5.50390625,1.4027692358246575,-0.8827794849574363
5.5078125,1.524275437126816,0.5162315354343949
5.51171875,0.7412791149898571,-0.6887772789606429
5.515625,-0.49988205908731037,-1.3329738509172593
5.51953125,-1.4036293283991856,-1.3666605514967005
5.5234375,-0.09748418084256172,-0.2908125007409682
5.52734375,-0.4468057176291461,-0.08294560363532476
5.53125,1.2146561280455643,0.03801104636514255
5.53515625,-0.33939636817154084,0.5401892337680723
5.5390625,-1.1042684840768497,-0.4146091432632028
5.54296875,-0.3517754081624334,-0.249241071967147
5.546875,-1.2422644574096007,-0.46850735454703246
5.55078125,-0.652272924867445,-0.8401683960557924
5.5546875,0.1791471233051047,0.6286100450019502
5.55859375,0.9993251980101293,-1.8821631174632407
5.5625,0.47666675166881206,-1.4749858841043886
5.56640625,-0.10551571417261926,-0.9764467162803346
5.5703125,0.5824017721562714,-1.4544162223868573
5.57421875,0.28645790629044343,-1.5339344444681406
5.578125,-0.5677081913882119,-0.4542243130998617
5.58203125,0.019475977367123757,2.2515768661172877
5.5859375,-0.49297224010418395,-1.1202060028136724
5.58984375,1.168645574177535,-1.0492086617546486
5.59375,1.0163389744040479,-2.042821495252327
5.59765625,0.05746176117282144,0.6573769690304212
5.6015625,-0.42347757184708434,-1.4799509894398717
5.60546875,0.5167352523040775,0.06653409334944109
5.609375,-0.7991195378795646,0.8672658859375428
5.61328125,0.5037206139815767,1.4658123414917217
5.6171875,1.1704155451031928,-0.1817445840448029
5.62109375,0.2919229130641976,-1.2165288558781977
5.625,-0.2773507459318369,-0.9872125760215881
5.62890625,-0.07162970891426237,1.2870645493945052
5.6328125,-0.37318177305623274,-0.901848109850203
5.63671875,0.3226450520544421,-1.3269367915066899
5.640625,1.368086566838919,0.0634564753515057
5.64453125,-0.9765861618895728,-0.15411195257152516
5.6484375,0.09982337067246486,-1.43648705526202
5.65234375,0.7376689689271212,-1.7253439405048245
5.65625,0.9225337890585402,-1.3260640811346478
5.66015625,1.7848669995938966,-0.4731824531942955
5.6640625,1.13673154300046,-1.629051345917079
5.66796875,1.6398531898286364,1.5996726592781827
5.671875,0.6059130302806731,-1.1835337091972655
5.67578125,-0.042734086360598576,-1.2505425756329926
5.6796875,0.08194443649228657,-3.381364472211951
5.68359375,-1.056095046480363,-0.4690492060090226
5.6875,0.8090493802024292,-0.29910789323258147
5.69140625,-1.2995996911852827,0.08381115993196651
5.6953125,0.25589883215670045,-1.2594262534819327
5.69921875,3.2167353653715676,0.8448014664545013
5.703125,2.1251690924296667,0.1316649225148345
5.70703125,-1.093464322845812,1.401311608122965
5.7109375,-0.36419486235725146,1.4640685944719296
5.71484375,0.3223016010960153,0.06871090329193709
5.71875,0.6493036747625233,0.6716724929381954
5.72265625,-1.527462876948463,-0.9942110301157214
5.7265625,-1.4282264706580587,0.07213018277543888
5.73046875,-1.862540507968926,-1.7204571571164675
5.734375,-0.3495927933385441,-0.2986815053040494
5.73828125,1.459879353350588,-0.4585242240407655
5.7421875,-0.306444748786598,-1.2272964928617434
5.74609375,0.47875987437549516,1.3419889002663588
5.75,-0.916452169466787,0.4345752691691764
5.75390625,0.47554044097195614,-1.1465705634937577
5.7578125,-0.8989722818004188,1.137217624401325
5.76171875,-0.5505978163087544,0.5962367532046117
5.765625,1.6869018373586724,-2.771049955497375
5.76953125,0.0051291921987352855,-1.943559094838653
5.7734375,0.707271932691965,-0.47250788395597576
5.77734375,-1.0051542031277543,-2.4422644269726392
5.78125,0.14769750762500644,1.0167237444283914
5.78515625,-0.5504657661853853,-0.13224860151469858
5.7890625,1.7033045168599692,-0.6973318495198866
5.79296875,-0.6676541643600928,0.7747492925862445
5.796875,-1.2552537720727241,-0.14982536748411399
5.80078125,0.08628230253462477,-0.22509903723922142
5.8046875,-1.3732279694581593,-0.07860601264342584
5.80859375,-0.3966133065328668,-0.23370343893717538
5.8125,-0.03222239178738529,0.15834186437566763
5.81640625,0.31335903780982527,-0.8534756171121185
5.8203125,-2.1482398291160214,0.42052802064449246
5.82421875,-0.547892809817535,0.9448947101911294
5.828125,-1.0426049017533716,-0.9721628617344193
5.83203125,0.9094496483976848,-0.6367773724700987
5.8359375,-0.11522932768414607,0.30719637719102355
5.83984375,0.4919671415982194,0.5665121197137319
5.84375,-0.440135297747076,-0.6589861801864173
5.84765625,-0.16970476151373817,-0.013202274509078515
5.8515625,0.6359703880741405,0.0007032919447712024
5.85546875,-1.0999359195357625,-0.10115047989944129
5.859375,0.8712478559566101,-0.5063051763488181
5.86328125,-0.579183424572511,0.1360263133690234
5.8671875,0.059571078754956285,1.694151939119047
5.87109375,-1.2686087512270734,1.2861498679512773
5.875,1.9204916897812954,0.6662105825063649
5.87890625,0.2329354493911979,1.7069422797185458
5.8828125,0.5155607128862171,0.801616558066358
5.88671875,-1.2951720461715968,-1.688380767939333
5.890625,-0.15152256723542804,0.4945353725476614
5.89453125,0.4954310464008154,0.3920618939347063
5.8984375,0.09244979249512458,-0.568993853966363
5.90234375,-0.3232688540730433,-1.5068956833280924
5.90625,-0.6805559930604753,0.0013949571189576647
5.91015625,-1.527008661870258,-1.4561890571743672
5.9140625,0.1312054988349684,-0.9576167081028574
5.91796875,0.5392714733731545,0.40379029960816465
5.921875,1.3548518798971143,-0.21355448416928538
5.92578125,-1.4577413916278894,-1.1634106004691518
5.9296875,-0.2958186016170018,-1.2025334046901617
5.93359375,1.0018523800433512,0.9701796006229196
5.9375,-0.16243643076809652,0.527596790874507
5.94140625,-0.09594033018168871,0.13548482969443681
5.9453125,-0.8374896591133036,0.3220292627311038
5.94921875,-0.530255283177665,-1.2717529101088052
5.953125,-0.13442470060725437,1.14021531579413
5.95703125,0.020523107728505498,0.21038841591663293
5.9609375,2.2971432644489114,0.7791596241796824
5.96484375,0.9727021289002167,0.8330116277415067
5.96875,-1.105288993554703,-0.38670059325234823
5.97265625,0.6870543734139273,0.3729771187339759
5.9765625,-0.18968060889246857,-0.2872507816901534
5.98046875,-0.5819410722124804,0.8064105721113515
5.984375,0.13674042303474548,2.0950320856048976
5.98828125,1.5956099706523006,-0.1679429032147388
5.9921875,-1.1109399291088724,-1.1565778070089778
5.99609375,-0.4065954552519432,0.10279942648030153
6.0,-0.8718305978426848,-1.6268346481824003
6.00390625,0.9609480186223575,-0.6376784196562485
6.0078125,-1.6517836598601126,0.052106617215318785
6.01171875,-1.4250007421738846,-0.015485981299497874
6.015625,1.3959421952303364,1.0703945854779622
6.01953125,-0.2726262245133609,-0.620980188537612
6.0234375,1.4016719075269561,-0.3989024265141845
6.02734375,-0.9860137539363495,-0.7279806934969062
6.03125,-0.04538169659043285,0.3780354139873803
6.03515625,1.217226608651798,1.2995908387543142
6.0390625,-0.11429243219280256,-0.16271394115934615
6.04296875,-1.2713577660946842,-1.393907713841306
6.046875,0.8086078263803042,-0.9632512082412709
6.05078125,-0.279035639049453,0.9195901601131408
6.0546875,-0.704351456563747,-1.0640392621970451
6.05859375,0.20149968500037396,2.361315543485948
6.0625,1.908897632855684,-0.6026930147156309
6.06640625,0.1400670095540253,1.928175969702394
6.0703125,-0.8814176734694734,-1.3051107451380883
6.07421875,-0.2969656716079323,-0.5811931964091841
6.078125,-0.457613734547615,0.8692210824393822
6.08203125,-0.9046576729738088,1.1732277950801027
6.0859375,-1.4922327596040326,-0.8786626791774
6.08984375,-0.9241475291500719,-0.07061010533154738
6.09375,-0.390085601966564,0.07189374820009144
6.09765625,-0.04451411297179555,-2.1001968990335977
6.1015625,-1.722327283718706,-0.8081955588610561
6.10546875,-2.4334889891445983,0.6783054961241642
6.109375,0.26413110216200975,-0.6904562126561041
6.11328125,0.8088464525810608,1.4245153421046035
6.1171875,0.8873857292683118,0.10558665475502291
6.12109375,0.0028313257400321397,1.0406265487939697
6.125,-0.524517928025742,0.8269033763848501
6.12890625,-1.0087200918506827,0.662441863357399
6.1328125,-1.0313363646323004,-1.0554878113103339
6.13671875,-0.19918505064302552,-0.9939519862201938
6.140625,1.9604415608392822,0.3309358532447976
6.14453125,-1.5309784144087015,-0.358553048479001
6.1484375,-0.28786161493563656,1.0277529478379088
6.15234375,-0.7983769430500314,1.1085781564673642
6.15625,0.521867788834647,-1.7482838512010153
6.16015625,-0.6679789530829442,-0.8131809889826905
6.1640625,0.07801299367436193,1.9126765312671397
6.16796875,0.581169411214356,-0.2258794923496628
6.171875,-1.4029121467928907,-0.1250910213783317
6.17578125,-0.050974260652559465,-0.2450668111268129
6.1796875,-0.06409778918695423,1.71784768074227
6.18359375,-0.4772653971532025,1.6558953282273248
6.1875,-0.01831331302352829,-2.1771115436479134
6.19140625,-0.06443820527947847,-0.5398841963606383
6.1953125,0.6335825249278858,0.46909968941048263
6.19921875,-1.7845888519637667,0.9783341134199309
6.203125,0.4469819689636707,-1.0067697499034185
6.20703125,-2.146201054560119,-0.24460892063416756
6.2109375,-2.508298778281331,0.05959762522716733
6.21484375,-0.4526109592464791,-0.10835945762183515
6.21875,-0.006573892412878918,0.1891876351388493
6.22265625,0.7717515423820596,-0.6261318118868333
6.2265625,0.5593629284541026,1.221154902255592
6.23046875,-0.132712931067835,-1.6732863428922813
6.234375,-1.1718148755192614,0.8992344126570545
6.23828125,-1.1281227370134066,-0.6143137381328136
6.2421875,0.7963166428708255,0.3063173269415286
6.24609375,-1.134668617632777,0.8790724074236373
6.25,-1.0100635188634444,0.8474359419172901
6.25390625,-0.7065367690098648,0.7808027307474117
6.2578125,0.28577434644469096,-1.0822078961131893
6.26171875,-0.3993179464749579,1.3838975770223538
6.265625,-0.0957722767666176,-0.5823032271846619
6.26953125,1.0957555327612436,-1.2779510631630524
6.2734375,-1.3101932758732353,-1.1073533105175044
6.27734375,-1.3883292204204831,0.10363730688898748
6.28125,-1.0466398136555355,-1.0304086636899414
6.28515625,0.24771836262358918,-2.213940580243375
6.2890625,-1.5220943189013751,0.27543411629055964
6.29296875,0.845930866550549,1.5191780683474043
6.296875,0.19723983451654242,-0.09493691881272874
6.30078125,0.02671733546471912,-0.3315395964569037
6.3046875,2.0604645996204933,0.6618348409322794
6.30859375,1.600092917497759,-0.6754425397672582
6.3125,1.8779013681136312,-1.1814291202323446
6.31640625,0.24499332806645274,0.49219826925738075
6.3203125,1.5276651858404693,0.8234106565109713
6.32421875,2.558234608688971,0.7193754092298186
6.328125,-0.6803345213455338,2.472838989636586
6.33203125,-1.595497586732596,-0.9110687618440276
6.3359375,-0.33841413541480286,-0.3740973069992771
6.33984375,-2.7511083989029053,0.675018362916943
6.34375,-0.3994196314845607,1.6104290002878243
6.34765625,-0.11534049474618056,0.0009523390825528046
6.3515625,0.9426111839161602,0.6385751272190575
6.35546875,0.7391816284869153,-0.20874561374673367
6.359375,0.3820252338005806,-1.1555575422174478
6.36328125,0.8457245470634234,0.4942553498038309
6.3671875,-0.177886283810999,-0.2580560925974947
6.37109375,-0.6696292964564892,1.0608000707240983
6.375,1.2274156669603267,-1.012446904860832
6.37890625,-1.1058704803648358,-0.4397567632394911
6.3828125,-0.020320259741288805,-1.636383231252691
6.38671875,-0.19922265050814492,-0.520338341277316
6.390625,0.9529141316501935,-1.3462524814413475
6.39453125,0.7396756850799522,1.6643763408298706
6.3984375,-0.647581934200763,0.9027367608623409
6.40234375,1.483506970709422,0.45296816129930373
6.40625,-1.3004756887641122,-0.8969704967357718
6.41015625,1.1934178357052956,-0.042319206116757144
6.4140625,-0.7409251842743312,0.6006796105206902
6.41796875,1.2222118068741903,2.488412519759647
6.421875,2.2582869946127766,-0.9882570619896505
6.42578125,-0.050651004257216935,-0.8863902764315863
6.4296875,-1.0688550928881635,0.5253393585652631
6.43359375,-1.1263445332644673,0.03083715823171026
6.4375,-0.9025688418566209,1.3145563460195326
6.44140625,-2.4115818907407505,-0.8602015808686555
6.4453125,1.4179139900322475,-0.11150278132608255
6.44921875,-0.8435642586793711,1.7380696179638062
6.453125,-0.6444149966214123,0.35733228969412584
6.45703125,-0.05870603133809916,0.29664403306446646
6.4609375,-0.20356736629989022,0.270605322202085
6.46484375,0.9978615288485974,-2.5029635306098656
6.46875,0.3231559003051205,0.23419771936080502
6.47265625,-0.042432082199764826,-1.124046448866742
6.4765625,-0.7334873472981734,-1.127459671514446
6.48046875,1.2536128940245366,-0.5011855019685537
6.484375,0.27640274081885424,-0.14977786081966898
6.48828125,0.18449433681136004,-1.0216193623890641
6.4921875,0.08684684787629274,0.5445440379422911
6.49609375,-0.022586284240787378,-2.5631038381350515
6.5,-0.904794550715483,0.7942337650299417
6.50390625,0.2998478489892186,-0.48833633196696036
6.5078125,0.26409620666931044,-0.2300691745677984
6.51171875,-0.1682922467728025,0.5376412268947572
6.515625,1.140830725411562,-1.1945907578674675
6.51953125,0.30968582035886144,0.9746554782977085
6.5234375,-0.8518757376826862,0.5451451926486729
6.52734375,-1.4303115541011449,0.13441071647596484
6.53125,-0.2769146984089267,0.10581413782916134
6.53515625,-0.7160229564135767,1.0995596697657861
6.5390625,-0.6150744569017536,-1.2719190024434308
6.54296875,-0.11289783456383959,0.8331769458007557
6.546875,-0.8216414269138015,1.3522238005059661
6.55078125,-0.599330105719213,1.1527276267247302
6.5546875,-1.0369065855252462,-1.7246376767849871
6.55859375,-0.4579080627980676,-1.6225935668251967
6.5625,2.034606252635929,-0.2586732306648066
6.56640625,1.5875425178518874,1.3556107335406202
6.5703125,-1.1367216750328344,-0.9123129835684202
6.57421875,-0.8479504060110339,1.399778788349329
6.578125,1.7985343471385522,-0.014076853547847927
6.58203125,0.09404759016825046,0.48113379247596283
6.5859375,-0.5585366141345535,0.7490385973567116
6.58984375,-1.7340540839103902,-0.1520945033449284
6.59375,-0.4545624498997421,-0.4234761038608671
6.59765625,-1.1342634234859603,0.8787204625639771
6.6015625,-0.6227366001797054,0.5057793345972658
6.60546875,-0.698702302350459,-2.656381366569491
6.609375,1.1529794438432297,-0.5424837578326083
6.61328125,1.0050422758559314,-1.4732975219521889
6.6171875,-0.3333751862804468,0.950252306971147
6.62109375,1.7611994284876742,1.1260168875851504
6.625,-1.3087674440631356,0.30401773363656476
6.62890625,-0.29978500386175416,-1.2045489625698922
6.6328125,-0.31975556357675516,0.010647133010179693
6.63671875,-2.4847943695741583,1.1626998135793014
6.640625,-1.1451082882550347,-2.2083228025621517
6.64453125,-1.0469878950245213,-0.5802014888245733
6.6484375,0.4255543930812042,-2.326994367478241
6.65234375,-0.808795489927574,-0.5414069359867545
6.65625,-1.2818364371056516,-0.7640495921536495
6.66015625,0.06122522780921034,0.011330281742499691
6.6640625,0.7261288984093024,1.7973066100324369
6.66796875,-1.3960153412709015,0.5454728573654855
6.671875,-1.2164637955285473,0.5157153449020754
6.67578125,0.024464166147795653,-0.85162100855868
6.6796875,1.798635129255383,-0.9091815741515398
6.68359375,1.2731226659464745,-0.7338136770687403
6.6875,-0.24589530346905275,-0.987810799752555
6.69140625,-0.47922760803698494,0.1507259351547938
6.6953125,0.03590545168576141,-0.8748532664558882
6.69921875,0.8730000415784998,-0.6854940562869217
6.703125,-1.12366347680726,0.3135769262900832
6.70703125,0.26816992593170547,-1.9393262987150661
6.7109375,-0.46729580192021114,-1.1245865235611188
6.71484375,1.0489411511519584,2.481902909145448
6.71875,-1.1609108792701965,-0.9012244965761025
6.72265625,2.4592775305153745,-0.27236092052092276
6.7265625,-0.16803743301309462,-0.9887529760538855
6.73046875,-0.21317076697276016,-0.29549972242174194
6.734375,-0.26668479591149324,0.5503519128388851
6.73828125,-0.49154111702612574,-0.7599383192951147
6.7421875,1.103072979696329,-1.3201576283261913
6.74609375,-0.023143653539318246,0.5708824010598733
6.75,-1.2059199057241916,-1.2144309428156688
6.75390625,0.6819978329674194,0.5248549925019105
6.7578125,0.30666581088503286,1.7492443820101091
6.76171875,0.2462991922818907,-0.0009790557450435344
6.765625,0.7602310784800934,-1.5791659900131982
6.76953125,-0.24550106640468386,-1.7554133709028394
6.7734375,-1.0741220975776866,-0.7261623444327296
6.77734375,-0.37241216533442184,0.46972654309256506
6.78125,1.8479781581727834,-0.48856215538805275
6.78515625,0.5287885075275881,-0.1566727334626545
6.7890625,0.6705955362903885,0.5891299596897788
6.79296875,-0.4529343923287931,-0.513185698880447
6.796875,-0.9360147530194297,-1.4193181079823634
6.80078125,0.13622892915523965,-0.48580060898930155
6.8046875,0.6340472422003156,-0.18719683687007846
6.80859375,-0.5482548321925466,1.8770670187911738
6.8125,0.0505317659509058,0.09292191245769475
6.81640625,-1.9163095657581306,-1.5278884928922232
6.8203125,0.8153384723627957,0.3436021531734067
6.82421875,0.40434417507140763,-1.088616862678265
6.828125,-2.396691954626234,0.8404457751586009
6.83203125,-1.3609488018651548,1.5394658831432608
6.8359375,-0.0607736901433853,-0.5384951166769701
6.83984375,0.8213996928328611,0.10392973904505087
6.84375,-0.2631889906055051,-0.8056424232239672
6.84765625,-0.09252459954773704,0.5929731289046763
6.8515625,0.12708176134664992,-0.38661402747142803
6.85546875,0.5744260679411585,-1.1910053869025434
6.859375,-1.8439834202269196,0.8839140759988909
6.86328125,-2.201821240160421,-0.873345423103943
6.8671875,-0.09915203102968018,-1.3641606380651479
6.87109375,-1.872387954790155,0.17067539561588713
6.875,0.7281950238826206,0.032449131429936356
6.87890625,0.8384676104308406,-0.7306358830040558
6.8828125,-0.02324632477896079,0.257797871381191
6.88671875,-0.933341753272181,1.5392771151014355
6.890625,-0.7045690043521536,0.6295946511636299
6.89453125,0.09901158229091352,0.8276997531386415
6.8984375,-0.3642859890834353,-1.1016720723198274
6.90234375,1.119243488777306,-1.5947402039696583
6.90625,-0.7534796926699436,0.7971080627210954
6.91015625,-0.28026765356101063,1.1781853331090153
6.9140625,-1.8631551495621228,0.27658332642463307
6.91796875,0.8665609514753085,1.5260608360793857
6.921875,-0.3066351977044326,0.45533521739199667
6.92578125,-0.4365528031745665,-1.2877158436800478
6.9296875,-1.1082648673285997,0.12051305274157637
6.93359375,0.38583611464840134,-1.2480166206309347
6.9375,1.2466579775449727,0.27339371220854136
6.94140625,-0.3389730353238073,0.6204515682049789
6.9453125,0.788411990364212,-1.4130201477259245
6.94921875,-0.5771309998529918,0.49396253893220826
6.953125,-0.3453690638524887,-0.8751749675771793
6.95703125,-1.6169610407780213,-2.304701256485719
6.9609375,0.06009944620921766,1.2175115841265316
6.96484375,-0.7300059407645516,-0.28332997410849997
6.96875,-1.7094999503871848,0.0993733960524375
6.97265625,-1.0508837258193893,-0.7884197754552779
6.9765625,-2.2785918260598343,-1.6880431730077436
6.98046875,-0.5133121606259571,0.03940146593893381
6.984375,0.5131527169987519,0.7557420041648917
6.98828125,-1.4871010367690662,-0.20041932790089753
6.9921875,-1.0292196799501365,-0.31128745323242585
6.99609375,-0.396557825327647,-0.36998919745116676
7.0,0.3813439459176131,-0.6775949683737412
7.00390625,-0.8628777736165216,-1.524126733358258
7.0078125,-0.27014532213006287,0.38407583398375356
7.01171875,0.14978992474778974,-0.9302103155340808
7.015625,0.9007175820859689,-1.2823964706400044
7.01953125,-2.7364979000389504,-0.4364910995622013
7.0234375,0.282948821818126,-0.1417668832006912
7.02734375,-1.7474421942771892,-1.0231141293857324
7.03125,-0.39438860239930834,1.3329666755680667
7.03515625,1.190758645946507,0.2660398797790884
7.0390625,-0.36784302248846923,1.9539625216508865
7.04296875,-0.6816600275866721,-1.2727325010078916
7.046875,-0.6190187949306184,-1.0085528645829527
7.05078125,0.35822707906924584,-0.8849013517399045
7.0546875,-1.8018656245245028,-1.6695173832882633
7.05859375,-1.3669252661546027,3.0830858891810653
7.0625,0.0939886523248631,1.8620174359255908
7.06640625,-0.21033584252147333,1.3980520949064665
7.0703125,1.1936130893534935,0.7207555001629166
7.07421875,0.194305395192349,0.4236249312798291
7.078125,0.3063696631427985,1.7852420133670248
7.08203125,-0.5892425143850298,0.34824231969599795
7.0859375,-0.4550601425081396,0.7221782116678618
7.08984375,0.20843456893933343,-1.09254709233073
7.09375,-0.5311115936633423,-0.6990165628770454
7.09765625,-0.2866204573775777,-0.48825606140355543
7.1015625,-0.9607330272027503,1.688440845563389
7.10546875,1.097918773355703,1.4782215915730414
7.109375,-0.42363399613532543,1.2976158608913382
7.11328125,0.15261993800313292,0.3345720566122645
7.1171875,-0.8189926753163607,-0.6321417347024771
7.12109375,-0.43552150780883203,0.67411997160048
7.125,0.9430815966025622,1.3145386361678524
7.12890625,-1.6829541632729847,-0.2922581112712414
7.1328125,-0.2830669390333857,1.0904946600783805
7.13671875,-0.13579230407285037,-0.3364507311162636
7.140625,0.41827521986553384,0.6795026995877941
7.14453125,-0.17441140186104262,0.45806568390056146
7.1484375,2.466923806152966,-0.5569268045705376
7.15234375,0.44778135051746254,0.3721768374432841
7.15625,0.5351832669677085,0.537940653605883
7.16015625,0.9888600989995229,0.7514973017473081
7.1640625,0.3752406304336792,-0.276629876586725
7.16796875,-0.34533945524977466,2.2053041830321245
7.171875,0.7215473161576814,-1.1333949473974072
7.17578125,-0.018212725398234184,-0.34886559196329997
7.1796875,-0.2287530866693266,-0.4072118778685974
7.18359375,-1.2763080468936974,-1.8744164627700208
7.1875,0.5292581957016608,-1.1983883616722102
7.19140625,0.11011540291541663,-0.7069581753247481
7.1953125,-0.96085838433478,-1.402539240559422
7.19921875,0.5040617183315236,-0.6109295118899717
7.203125,0.8345363278666388,-1.9349235266097446
7.20703125,-0.5759414856507551,0.1819795991998206
7.2109375,1.1237894899240701,-0.12628714008578498
7.21484375,-0.26070113000163725,-0.997382523233487
7.21875,0.8340075320673501,-0.6187210438598751
7.22265625,-0.03007101618931062,0.013713488011038616
7.2265625,0.17036088289500187,-1.5017739165938984
7.23046875,0.37825179768536427,1.4434576897846156
7.234375,0.48088048590350063,1.9467707582644715
7.23828125,-1.4227133060297605,0.5357054872727786
7.2421875,-0.03234484710224829,0.8637722409976486
7.24609375,0.8876911994109586,1.5878194243443065
7.25,-0.26166375247339163,0.6679666184071995
7.25390625,0.0984467163307875,0.5150170208345081
7.2578125,-0.6237401263931075,-0.7628461282272909
7.26171875,0.7031521496973464,0.02049717180213694
7.265625,1.2069319856963314,0.7922233425535748
7.26953125,-0.5274923908093989,0.18751859875749385
7.2734375,-0.21105939385253975,-2.1435681384651626
7.27734375,0.8012659292991233,-1.245966594767874
7.28125,0.7593476987110037,-0.8756415357738827
7.28515625,-0.18593558370410698,-0.16231482774875167
7.2890625,0.5758026731024661,0.7509541554633892
7.29296875,-0.6770941930610375,-0.8877350070482779
7.296875,-1.1443269539411076,-0.17127998848208292
7.30078125,0.4872768685969743,0.24058827411743605
7.3046875,0.9631701796928402,-0.8142091033196693
7.30859375,-0.07792128106539972,-0.7864050641337064
7.3125,1.5131794667450662,1.2844397644191416
7.31640625,-0.571647179992275,0.6505440270663726
7.3203125,1.278186402256123,0.8520862655576833
7.32421875,0.1881219476005569,-0.18528657979834173
7.328125,0.030758057943249588,-0.6936723658164006
7.33203125,-0.025846195979220755,0.7646487905707775
7.3359375,-0.2289741760041326,0.4814979161997345
7.33984375,-0.041465512784240086,0.3387187264754251
7.34375,-0.7031565115901075,1.1401046528072987
7.34765625,0.741104579723754,-1.2205102158438597
7.3515625,0.7571651249092776,-2.215791088211843
7.35546875,-2.1828917995343025,2.3442138129523022
7.359375,0.25753221211989463,0.4382417174150871
7.36328125,-0.7996472278657163,-1.1375122606967454
7.3671875,-0.10882950662526036,-0.43439002362079476
7.37109375,-1.1633012124308746,1.0954284918824495
7.375,1.002039313137458,-0.4786249792648614
7.37890625,-0.1364764826732877,-0.07670244499810583
7.3828125,0.7414527303055397,-0.3209623528503757
7.38671875,0.816763536814636,0.24367013732867196
7.390625,-0.17496549483126583,0.7130813427872639
7.39453125,-0.4715839509903128,-3.1016476042318946
7.3984375,0.29829150914857927,-0.8690357186205055
7.40234375,0.5279861205217683,-0.2859173328231001
7.40625,-0.5141708638716923,1.0502713768105854
7.41015625,0.8846968117660069,-0.6688078270556153
7.4140625,-0.587540058038339,0.307062855156086
7.41796875,1.3171867512307547,-0.2788249311654619
7.421875,0.23933033554550848,0.8036435915568917
7.42578125,-1.6616314375808021,-0.7496886689118679
7.4296875,0.35712479125379737,0.16870795952356757
7.43359375,0.12914431662014453,1.3591036496025606
7.4375,-0.2605481620785762,-0.115275361660654
7.44140625,0.07640529579198162,0.30846290552211114
7.4453125,-1.8926992970671637,-0.087237984026946
7.44921875,-0.19970095545408367,0.5500420349925874
7.453125,-0.9048027840919999,-0.7868567315712619
7.45703125,-0.7287323463823908,-1.3158459118357775
7.4609375,0.3644102537572111,-1.2972236838542774
7.46484375,-0.5289622954161204,1.2083249984623416
7.46875,-0.7143614142743763,-0.9031935242649481
7.47265625,-1.2384480526122077,-0.41302892296568505
7.4765625,-0.8713464358648944,1.299678093840942
7.48046875,-1.5141509179421457,-0.060675297822617054
7.484375,0.5297652041420445,0.06665605830333626
7.48828125,0.8438652177311031,-0.9070800396551366
7.4921875,1.2622877013112443,-0.009243399630475987
7.49609375,1.2070763018795705,-0.4074304532672993
7.5,-1.0869827841731978,-1.5738120390303567
7.50390625,0.9770308398214955,0.33448374580273244
7.5078125,0.38658164439487214,0.1416031186476435
7.51171875,0.5293698678277428,0.2807085692376304
7.515625,0.04636770232003357,0.37414470597944993
7.51953125,0.861473447337496,-0.8813015038391547
7.5234375,-0.10055301951974281,0.546662161352146
7.52734375,-0.4474843420730475,0.8264293077424987
7.53125,-0.38689026282209027,-0.6227915885667619
7.53515625,-0.7515632197325522,-1.0033618810399814
7.5390625,-1.4860449700660625,0.29874877402014327
7.54296875,0.4166710849579343,0.5615145788380083
7.546875,0.7382506145176668,0.707432717795396
7.55078125,-0.7072795757200151,0.14188268355169073
7.5546875,-1.05641979999401,0.3079072952262938
7.55859375,-0.12661422422526103,0.014616302409501035
7.5625,-2.8447146311690568,1.49981618678626
7.56640625,1.0491127274242178,0.1454589040713086
7.5703125,-1.187519074309224,0.6487534601844986
7.57421875,0.42246226078810956,0.4062633911702541
7.578125,1.0756522703540863,-0.22012061958258294
7.58203125,1.5053809551819488,0.3448920214105665
7.5859375,-0.4454667623183067,-1.4816132136712854
7.58984375,-0.5487272561743174,-0.4781308085461985
7.59375,-0.23143959867427827,-0.3420238406781195
7.59765625,0.5780588148728667,-1.0229938195187456
7.6015625,0.1772184477864887,1.1173740907042127
7.60546875,0.7465023640659522,0.6545866589775403
7.609375,-0.9015040415124073,-0.03751152874886893
7.61328125,0.9725084810279041,0.06006109425045675
7.6171875,-1.1032887490326075,-1.3313110683389942
7.62109375,0.012067703275768405,-0.05999750678027018
7.625,-1.863904087142946,0.45914654234189634
7.62890625,0.8683206949851003,-0.32701336622557176
7.6328125,-1.2799036187066941,0.07318740775385686
7.63671875,-0.4514416780132501,-0.2690865442611119
7.640625,-0.5224273914733452,2.1556675784319594
7.64453125,-1.0168852171864498,-0.9630668745632267
7.6484375,0.03344491017579295,-0.7910413953733243
7.65234375,-1.8730595394075125,0.8100752990975072
7.65625,-1.161381135174244,-1.5580040335451955
7.66015625,0.3037131558138768,0.710829279280329
7.6640625,-1.0708122666376774,-0.6271807180752729
7.66796875,0.6374683038635102,0.39104319279381367
7.671875,-0.9252022272064616,-0.7136701154003506
7.67578125,-1.1041963062199112,-0.9922401214059069
7.6796875,0.558968367131618,-0.27973669073265106
7.68359375,-0.4714455916532467,0.13981516441418673
7.6875,0.30198200358994687,0.3086763580544042
7.69140625,0.005511044819943918,1.240819276158842
7.6953125,1.1840992596808106,-0.7911185822878612
7.69921875,0.8214905316990757,0.9047521587813888
7.703125,0.9498675729010484,0.3799168346592509
7.70703125,-1.4929751078000153,0.2855242910563514
7.7109375,-1.4263572634748898,-1.3754919543359088
7.71484375,-0.2918506415082678,-0.05802539927975494
7.71875,0.10727516865000669,1.602067216982547
7.72265625,2.4334021136229986,-0.21231631106783255
7.7265625,0.3058635796227576,0.5130655727329139
7.73046875,0.23476729776788674,1.2026064689121447
7.734375,1.6468681598543882,-0.2543770725925402
7.73828125,-1.0058391238670967,-0.8923780313065289
7.7421875,3.2973043686195997,-1.7337185593792044
7.74609375,0.6296933835493475,2.315881859107409
7.75,0.2120436171356021,0.5019914658346993
7.75390625,-1.5949832287838472,0.6648291172580518
7.7578125,1.6838754544020187,-0.40625037134631553
7.76171875,-0.06383366903334713,-0.6646291727583385
7.765625,1.7453925063156177,-0.06478071965406201
7.76953125,-0.6741723904196404,-0.8650262213860548
7.7734375,-1.4215272143143611,-0.24643396187899103
7.77734375,0.21030513831011033,-0.3753658133864151
7.78125,0.46697402014475053,-0.660113572134779
7.78515625,0.6625536731255065,0.37128307722026926
7.7890625,0.8907334262895684,-1.6639394566207648
7.79296875,-0.36148376574401936,0.18598291288757685
7.796875,-1.7007993230178917,0.39135589964532524
7.80078125,-1.2262489673125236,0.41105687900800675
7.8046875,-0.2505848776892098,-0.40518203800605146
7.80859375,-1.2345639590250856,0.06868173232126198
7.8125,-0.275209476907709,0.4107381386253171
7.81640625,-0.49480143185449504,-0.34014906960528424
7.8203125,0.8247397477989616,-0.7872966409387663
7.82421875,0.5172688785661359,-0.7047327217032316
7.828125,0.5495140175057196,-0.7473598072649369
7.83203125,0.5945241990669946,-0.7081960053935207
7.8359375,-0.3768992213234325,1.2829138210269404
7.83984375,-1.1768982284097893,0.8532796353631595
7.84375,1.5494052524973856,0.3874887136776482
7.84765625,0.9351617765119922,-0.9925187427852893
7.8515625,-2.1281357731736534,0.7213789395096225
7.85546875,0.324851657021416,0.6513660363875132
7.859375,0.4343138946373688,0.5642713551252033
7.86328125,0.08190507112630022,-0.799205760518956
7.8671875,0.3426541978711791,0.49389512659955087
7.87109375,0.01671705208007083,-0.2936689771168495
7.875,1.1343260732857166,0.6153068780636681
7.87890625,-1.2811557328287966,0.12879174474944424
7.8828125,0.3578312386914788,0.342255499395992
7.88671875,-0.7377361772341051,1.6789701709552745
7.890625,-1.9607059514922447,0.5985791541500424
7.89453125,-0.8557077374283281,1.9062322649464616
7.8984375,1.1909542931427552,0.27023794653061717
7.90234375,-0.4794346215501246,-0.12023751839932166
7.90625,0.7575689148272272,1.0920138094635883
7.91015625,1.6712903612673236,-2.4230339169859203
7.9140625,1.2923123989531362,-1.3958364227124007
7.91796875,0.07659650613560366,-2.360509358087399
7.921875,2.2232822600828976,0.7736773278512475
7.92578125,-1.8407988255394807,-1.122972221281183
7.9296875,-0.15823232211319496,0.5583238258897488
7.93359375,0.9834387535225819,1.3786653253272005
7.9375,2.0620702663614967,-0.7436229350767559
7.94140625,0.5029213668959781,0.4842375774372643
7.9453125,-0.12199019498155529,1.3948965267453624
7.94921875,0.419605126349337,1.3242592566914841
7.953125,-0.5382385753130826,-0.5072973333757931
7.95703125,1.105995030110299,0.14032218130823765
7.9609375,0.2855799058207972,2.051706729059917
7.96484375,-0.8674892038490906,-1.2085595500618693
7.96875,1.0597651561124823,0.4439781189455026
7.97265625,-0.2250912119450002,0.9086982274675057
7.9765625,-1.5105494748425872,0.4442986977735285
7.98046875,-0.14413567927390658,-0.3144292752246238
7.984375,-0.6240323144335929,1.7546873463286692
7.98828125,0.43840412120496636,1.4516354997055323
7.9921875,-0.36902276702062503,-1.1762224710114484
7.99609375,0.023036020315853695,0.3172070607282082
8.0,-0.9183471441258656,0.7974405884805493
8.00390625,-0.45660889941659566,-0.09069818967977869
8.0078125,0.9446175485681336,0.3342910642106006
8.01171875,-0.629881221250073,0.38998175070994723
8.015625,0.17478232802224086,-0.6964773413586611
8.01953125,-0.7094871813206726,-0.9404056374163505
8.0234375,-0.5853093157499589,0.7793398657426154
8.02734375,1.020321948029224,0.9595455609731343
8.03125,0.3670536472461475,-0.3845007039349517
8.03515625,1.9865421896061002,1.364710394905101
8.0390625,-0.6909832194378002,1.5290292852971874
8.04296875,0.6997325258470708,-1.1381951019391203
8.046875,1.2818228229267008,-1.2936585276082564
8.05078125,-1.354573793492059,-0.6075509093917019
8.0546875,0.543357322217764,-0.23199633608088918
8.05859375,0.45571854172319726,0.8659546525716858
8.0625,-1.2517829506194107,0.43398236737258505
8.06640625,-0.7495397446270543,1.2277792639027654
8.0703125,0.7604531000051256,1.4207813017754374
8.07421875,0.8767255877869916,0.29704222213612685
8.078125,-1.188527490232091,1.70381729826293
8.08203125,0.2171725293921697,1.1451422571533332
8.0859375,0.6889508226322542,0.5791175617656455
8.08984375,-1.1486306032835116,0.24097698876521098
8.09375,0.9398301659467713,0.28969376965975263
8.09765625,0.9246721946802263,0.149657496643929
8.1015625,-0.9531589019263107,0.07408349418588041
8.10546875,1.9127686196506775,-0.5943476840129102
8.109375,0.5241246324372385,1.1083975275794788
8.11328125,-1.2067589910458638,-1.3108897002875533
8.1171875,0.24014445486475086,-0.2981693778705805
8.12109375,-0.36717358488133683,-0.415621038421972
8.125,0.22401034854687008,-0.09885604318118943
8.12890625,1.2837402967712301,-1.2118523053114432
8.1328125,0.9598856781145967,0.5856474957237008
8.13671875,1.879429208313274,2.8557579476531703
8.140625,2.3801836968690178,-1.232848741170726
8.14453125,0.6137233102750479,-0.48404429467015464
8.1484375,-0.6158434390997272,0.36975437459163496
8.15234375,2.64064812068161,-0.8083926037325068
8.15625,1.727465347240104,-0.8272519343030966
8.16015625,1.6492455450791255,1.3135326478751403
8.1640625,-0.413650986117667,0.7917664339224727
8.16796875,0.6965177054657327,1.1688554724688234
8.171875,-0.07925899184978491,0.1453348059073881
8.17578125,-1.8214644041964487,2.6709027729625907
8.1796875,-1.4799573736108562,0.22717999524295113
8.18359375,1.1886340674020655,-0.9760852725352064
8.1875,1.174901479145346,0.02895417702300451
8.19140625,0.7910699001783684,-1.132853007755116
8.1953125,-0.35059998027480704,0.9919196191088421
8.19921875,0.6746562750671464,0.5347464300602613
8.203125,0.8323867221395462,-0.026755912686405856
8.20703125,-0.634447006578805,-1.2137488735071602
8.2109375,0.03536540758745942,1.22139979110226
8.21484375,-0.5528225464136253,-0.1338134760253394
8.21875,0.9119546545700457,0.5077106279754442
8.22265625,-0.03147514725439721,1.1312625359042776
8.2265625,1.7382586567100884,1.0284888227598816
8.23046875,-1.706764162595546,0.3533106091957648
8.234375,-2.1202694914894127,-0.19423903920323268
8.23828125,0.5173381267862722,0.3654975696549975
8.2421875,1.2933904150310556,-0.2011499673543962
8.24609375,0.03583300289498088,-1.3101814333879265
8.25,-0.1265844216525842,0.4308151688958405
8.25390625,-0.9172699384206937,2.730992455529148
8.2578125,2.5702794416591623,1.974845061740903
8.26171875,0.7499018732818818,-0.3728754080001612
8.265625,2.1755274355252268,0.5838967156490463
8.26953125,-2.163398324693299,-1.7034872166922488
8.2734375,0.14697877591953615,-0.5115345468040767
8.27734375,-0.7032993732142226,0.12524600381587084
8.28125,-1.9934846744198809,0.11050502677316891
8.28515625,-0.6357804717774892,-0.43330662520618773
8.2890625,0.9645753912807599,2.212905313010778
8.29296875,0.06805495149099185,-0.09486474345901144
8.296875,0.22436214605748891,-0.27023030109939356
8.30078125,-0.09000204461347278,0.27418151695428705
8.3046875,0.31746065610091473,-0.5597659004343897
8.30859375,-0.730293659762009,-0.16880672879228867
8.3125,1.746655140397525,0.34607250279416607
8.31640625,-0.6541471410639089,-0.03395751885607776
8.3203125,0.34180228581388356,-0.8042608904997735
8.32421875,-0.8000335035068609,0.5096103296742301
8.328125,1.5105699420648306,0.759601104878451
8.33203125,0.22206260888227555,0.49588645620492044
8.3359375,-0.5353988925905246,0.7767954261431159
8.33984375,-1.0954733970270067,0.3414509493714674
8.34375,-1.3481722805084957,1.6994401383125037
8.34765625,-0.026805965938890924,0.5722899036875987
8.3515625,-0.08651510122787895,1.5350216602321791
8.35546875,0.55073693404097,-0.18747309635171258
8.359375,1.6794827133555248,0.9200494838509358
8.36328125,-0.4995574471309317,1.0958239749610614
8.3671875,-2.3531178963442505,0.32781317196711457
8.37109375,-0.41933660727312655,0.4336216267456599
8.375,0.388992172326249,-1.498562154688782
8.37890625,0.35026416718689507,0.7230415163342565
8.3828125,0.9525479346289765,1.1242999067531236
8.38671875,-2.2951244077357837,1.3784476578347262
8.390625,-0.29402041926166583,-1.7068706460249783
8.39453125,-0.23848443306984815,-0.43433526804344186
8.3984375,-0.41911915729221655,1.7676653352911973
8.40234375,-1.0991559004884455,-1.1110421293019446
8.40625,-0.9538808203164727,0.7858338706761125
8.41015625,-1.4077583893865078,-0.30368267965860773
8.4140625,0.6661178901046596,-2.337385188687052
8.41796875,1.483518945526104,0.9197554186324851
8.421875,-1.205645275952262,1.9293301310961166
8.42578125,-0.3874717487668268,-0.5763224945928512
8.4296875,-0.5721149433204153,0.3648926900873055
8.43359375,-1.5828135373491077,0.4954593359425185
8.4375,-0.41527777264353666,1.4356320197862393
8.44140625,0.5328740917610302,0.3256612219240509
8.4453125,1.5128372079007728,-0.287111622821287
8.44921875,1.2635695052852252,-0.378848359161178
8.453125,-0.14315475094312075,-0.796608037930977
8.45703125,0.2677947971665064,0.4690134345463012
8.4609375,-0.4986885949393015,0.2516751448865234
8.46484375,-1.385062707389949,-1.0789576410577149
8.46875,-0.13947333036439147,-0.4529592032896178
8.47265625,-1.0777253444375787,0.792684813795101
8.4765625,-0.6900832082080032,1.2337892173925649
8.48046875,-1.7917454484448398,-1.206786203239728
8.484375,1.0467784140105585,-0.3306137753947976
8.48828125,0.11373348332695937,1.5433643442367067
8.4921875,-0.9448722018872998,-0.2694974660998509
8.49609375,1.2765868494514705,-0.4731963100809291
8.5,-0.08145200885782472,-0.9021015090005863
8.50390625,-0.14576636860781647,-0.9854210311544541
8.5078125,0.6168695984328895,-0.4949449927710142
8.51171875,0.5568723083022095,-2.1395419393870254
8.515625,-0.3629604232453895,0.6342356651617386
8.51953125,-0.9613187363158078,-1.0196985517530368
8.5234375,0.28508064515221937,-0.22932955593117196
8.52734375,0.2651989486691074,0.7131482885100717
8.53125,0.4899778804265591,-0.8027596256040055
8.53515625,1.4368780223617963,0.11674125679105903
8.5390625,0.6568551940432497,-0.6027861523431162
8.54296875,-0.919224920107274,0.08222590263983899
8.546875,0.4183731260195903,0.22462496180880076
8.55078125,0.6444627033293883,-0.4902824888009861
8.5546875,-0.17156689232071148,-0.12647667776773333
8.55859375,0.11505221427455029,-0.4721011703052742
8.5625,2.274760701398447,-0.2847035322142058
8.56640625,0.1511613394074261,-0.3600702935301797
8.5703125,1.934195447581111,0.9219138646092787
8.57421875,1.0262288008274234,-0.05733393174043633
8.578125,-0.7506978194714764,1.2386793887693242
8.58203125,-1.6421219000204927,0.5629287387521351
8.5859375,0.48036945426270333,0.11075095577431043
8.58984375,0.24954612971788007,-1.1506415064601447
8.59375,-0.4814326846178849,-0.9578920319423593
8.59765625,-1.2147920203216263,-0.641802493410772
8.6015625,0.39565442935541634,-0.3938221893019418
8.60546875,0.6278856269423924,0.9205237115121804
8.609375,0.472001059374788,1.0553561152471789
8.61328125,-0.03568626113388622,-0.4642473321160524
8.6171875,0.4422217482057841,0.7615842438914538
8.62109375,0.17923339352032086,-0.6161183178733061
8.625,1.7387161339268848,-0.3630429220790547
8.62890625,1.1526847889701834,-0.2767437696162326
8.6328125,0.8595494429137268,1.5698144994473981
8.63671875,0.5316611024757018,0.25116466182096203
8.640625,-0.9823641399161728,1.0611066584847721
8.64453125,-0.3339947050016552,0.14802511901877488
8.6484375,-0.9778516634520025,0.5292597912008019
8.65234375,1.1224013426505233,-0.3882593731975193
8.65625,0.13321574591311405,-2.155092977773169
8.66015625,1.672176953432156,-0.8352960044051914
8.6640625,-1.0081656094677045,0.44508966784981263
8.66796875,0.6737218889206312,-0.26432284270359124
8.671875,1.0624841880717186,0.5236601842204122
8.67578125,-0.44264790231762624,-2.222602953258404
8.6796875,-1.3012729385034674,-0.2176764266659669
8.68359375,-0.4667371317395978,-0.6763361334014035
8.6875,-0.49863072434430755,-0.2085908526179219
8.69140625,0.6460150278437679,0.1998296625173019
8.6953125,1.3555035988498083,1.1169454593181678
8.69921875,-1.462464389103755,0.7728106946606236
8.703125,-0.41717162041751576,0.6946956240113084
8.70703125,-1.3585495756510475,-2.0045972132799106
8.7109375,0.08695370543484734,0.02392398430739026
8.71484375,-0.8997916778783122,0.15821800798598595
8.71875,-0.06786841718036474,-1.418156710989986
8.72265625,-0.24241313494489972,1.1248967274356005
8.7265625,1.5141301653145764,-1.2821510347606762
8.73046875,-2.9467888659790438,-1.4633566941929737
8.734375,-0.026230527708927597,0.850397335452155
8.73828125,0.692799400487946,1.3955717156091259
8.7421875,-0.6326171131677951,-0.9450470501749804
8.74609375,0.7163463412131161,0.5923923611257754
8.75,2.5571287527088735,2.376663277524776
8.75390625,-1.7142160136765912,0.5321327518069855
8.7578125,0.9182081032127448,0.8862717539384197
8.76171875,-0.3386394944219649,-1.1507088599475386
8.765625,-0.5683311135020555,0.9287018060291936
8.76953125,-0.08331254128199334,-1.0277419405040753
8.7734375,-0.28230669055801866,0.1645825812024894
8.77734375,1.4839707929132966,0.4475502094156385
8.78125,0.9179042345972693,-0.4562612729554004
8.78515625,-0.09987692193334564,-0.5024704459380078
8.7890625,1.5072899098655266,-1.9853609647569188
8.79296875,0.9883017766431533,0.21027167345797526
8.796875,0.6142450721204665,0.05292657042507115
8.80078125,0.3100042706317563,0.3802538495730853
8.8046875,1.3146410655978022,0.6406644149017532
8.80859375,0.6780778867660647,-0.7926354291576402
8.8125,0.8552046691878207,1.3597048221480204
8.81640625,-0.44688243018923174,-2.04176876145642
8.8203125,0.8682256531459713,-0.02407404705170442
8.82421875,-0.053726465650467764,0.9563144157069495
8.828125,-1.074806644155529,-1.122874897247588
8.83203125,-0.26371858280616084,1.4933610996608067
8.8359375,-0.04088708286549174,-1.9975982468134648
8.83984375,-0.2559268681662135,0.32188432002571454
8.84375,0.9099421492740659,-0.26316260607336284
8.84765625,-1.3854641756912627,0.28115460487548144
8.8515625,0.16984872842922225,1.7111453507576246
8.85546875,-0.14380234341950351,-1.3854492823944853
8.859375,-0.09835047186563894,-0.7094008385023126
8.86328125,-0.3179790697165424,-0.09205581760225234
8.8671875,-2.246055998868537,1.2304377176416217
8.87109375,-0.31978756753545357,0.4041868850168023
8.875,0.5787477223358859,-0.5947871096609583
8.87890625,-0.4396038588400375,-0.5468063106846257
8.8828125,1.1570393745969674,1.7477093419427083
8.88671875,0.2742545703090155,1.045359459443389
8.890625,0.07102741037229099,-0.06182450235382439
8.89453125,0.36752663948197556,0.008179787746317646
8.8984375,1.6388754636664362,-0.614311695176345
8.90234375,1.1913878540950227,-0.08533599326462893
8.90625,0.10145635524469725,0.8786732020152617
8.91015625,0.4683441029472904,-0.6924692855899792
8.9140625,-0.8296974988771583,-1.3178473467679914
8.91796875,-0.18704948862013887,-1.0580085429289299
8.921875,-2.119913897016514,1.0521994000531028
8.92578125,1.065207369901751,-1.8753870851761212
8.9296875,-0.9887134471676658,-0.6624656952523282
8.93359375,0.10741481968154884,-0.6619263236005368
8.9375,0.042352555202462276,-1.256156273900176
8.94140625,0.09245283936048232,-0.4623509509902608
8.9453125,0.5870250601372864,-0.4807345294632355
8.94921875,0.35569229393489726,-0.35888877523898904
8.953125,0.224870436610534,-1.0884570267543485
8.95703125,0.9483309558504939,-1.0508473510431058
8.9609375,0.13243469209750627,0.08583545898656268
8.96484375,0.6222451593175965,0.8670313378601798
8.96875,-0.5338654515584624,-0.34592228349408477
8.97265625,0.8299940913670009,-0.8324371635112846
8.9765625,0.8058202407485591,0.3011278904250553
8.98046875,-1.0924217109553214,0.7463185799237795
8.984375,1.175943345925112,-0.5705482496851083
8.98828125,-0.9982112554097478,0.4109899242368839
8.9921875,-1.219504469171819,1.2285717108705427
8.99609375,-0.7452862359038637,1.2103577863951376
9.0,-1.9808259635944583,-0.16511136097527127
9.00390625,-1.854759755804016,-0.0930341985434882
9.0078125,1.3132408180533761,-0.44311120797599485
9.01171875,2.8168060541115594,0.7185365310469434
9.015625,-0.43464256710949983,1.6040229705724172
9.01953125,0.11997360559195432,2.956797798293607
9.0234375,-0.767425361983515,-0.6307789705087723
9.02734375,0.9734157970521299,-0.9522165593315944
9.03125,-0.7563895783243153,0.9228033649193481
9.03515625,1.4089125575683186,0.3770384335944376
9.0390625,0.09164844578984063,-0.9043153945963163
9.04296875,2.2684433070876153,0.16615864758346902
9.046875,-0.10916098288467715,0.08662263543601692
9.05078125,0.9616775477363475,0.3713775840657996
9.0546875,-0.7994098521793933,1.2417840623892304
9.05859375,0.9291178663770843,-0.5000305890314717
9.0625,-0.3819126423409522,-1.7522466142224813
9.06640625,0.0751828013861741,-0.6067924381025296
9.0703125,-0.42460522352446467,0.18111688486956298
9.07421875,-0.5970029963959104,1.138292720766253
9.078125,-2.658679952833683,1.9800924396652984
9.08203125,0.12822331445194535,-0.7423673380266924
9.0859375,1.311025541415364,-0.06591528688767825
9.08984375,-0.610275515242761,0.43346423423236996
9.09375,0.6040458802364543,-0.26587828102628375
9.09765625,1.7184300999649718,0.022447550470821597
9.1015625,0.9335775057665343,-0.04813423556013246
9.10546875,0.2439087709747613,-0.2869192607760422
9.109375,-0.4986126056517994,0.4876936474363248
9.11328125,-0.725984931409247,0.2062407542181693
9.1171875,-0.06878820136143196,-1.3929698237301467
9.12109375,-1.111447908220813,0.4900053396690889
9.125,-0.22764913972550177,-0.5228983844301327
9.12890625,0.5432254139784777,0.6359729637841932
9.1328125,0.024937044502993236,1.3449765551606707
9.13671875,0.2804530241079003,-1.0765202868836683
9.140625,0.3293958958549825,-0.25206922944037424
9.14453125,0.7098046960946959,-1.8158757612356151
9.1484375,0.3171656960346817,-0.4326956042387049
9.15234375,0.8009282213366802,1.4909183987947041
9.15625,-1.0408074779762513,0.2335940533493263
9.16015625,-0.42040881825213205,2.1235244555732673
9.1640625,2.2711168323930426,0.5723321253751308
9.16796875,-2.091120927611542,0.8702572445810247
9.171875,-0.4649971694786113,-1.2608322743296478
9.17578125,-0.6529617991161047,-0.3688560667480063
9.1796875,-0.7430163778248178,-1.2946105851429097
9.18359375,0.40248833624526625,-0.5431946285296115
9.1875,1.5824888055851638,-0.8890419051610572
9.19140625,-0.3223311444402884,0.8850994110600975
9.1953125,0.6326328757506043,-1.266079652830167
9.19921875,0.8895950860983031,-0.7986575907631344
9.203125,-0.4120027127940009,-0.23276062741831127
9.20703125,-2.2448309128677426,0.20006359481830321
9.2109375,-1.3719441614126802,0.9906642379311151
9.21484375,-0.6974947380575635,0.35665172285355445
9.21875,-0.09139374745001959,0.2882046338893074
9.22265625,0.9329545103540261,0.08133901139952683
9.2265625,-2.4021558675409898,-0.5509754834337215
9.23046875,0.6079625078906754,1.514203466454531
9.234375,-1.5525681416652857,0.06933676310828508
9.23828125,-1.163626265515871,0.17086549472622864
9.2421875,-0.509003186229516,2.0097320685520934
9.24609375,0.5716362257610232,0.9115565758864681
9.25,-1.0360677033190748,-0.4822108323546388
9.25390625,0.28252702252827,1.1741480100597792
9.2578125,1.2420906555054338,0.8365176909134092
9.26171875,0.2440079900166328,-2.2277115459540022
9.265625,1.6821862793011126,2.9198699073849057
9.26953125,0.34058067771783773,1.6551652524858074
9.2734375,0.8203446752120485,0.023119914753553232
9.27734375,-0.703436289577308,-0.7515416018650103
9.28125,1.0177669728844358,0.03571284786705968
9.28515625,2.2176280539472453,-1.2553945588945858
9.2890625,0.8132387461894787,-0.3554404749750587
9.29296875,-0.2258244763669068,0.5466408165893122
9.296875,-1.0301289533318037,-0.280583791634243
9.30078125,0.6236437717645028,-1.6516288200111162
9.3046875,0.3178071437148208,-0.29051501223648035
9.30859375,-1.3448032542620567,-0.6037213444798679
9.3125,1.4672949551148093,1.3086568909476965
9.31640625,-0.601401926326072,-0.8703861372153353
9.3203125,0.4053189009566824,-0.5496327514176715
9.32421875,-1.4402226636638535,1.263712137618719
9.328125,1.6979362038056143,-0.0645900594517114
9.33203125,-0.7334230139207322,-1.6670143984813819
9.3359375,0.9475214215213469,0.6166377212598934
9.33984375,0.021219183173931577,1.1026770123832792
9.34375,-0.6136406612644262,-1.503623026674071
9.34765625,1.8250964885750662,1.8866636891383952
9.3515625,-0.5082830434414115,0.9330419356956714
9.35546875,-0.13672551229424704,-1.1719216698081132
9.359375,-0.7485003508769099,-0.6419117263743678
9.36328125,-0.370238769834806,1.8293480855497182
9.3671875,-0.8528183694004661,-0.7780384004974316
9.37109375,-0.4008294241289623,0.8432341977788602
9.375,-1.2039698744333336,3.0240412745579626
9.37890625,0.5836016037712958,-0.7883079197420747
9.3828125,1.128970412150269,-0.4418493161259695
9.38671875,-0.8272388492470779,2.6008404372832183
9.390625,-0.964946105328903,-1.8299275737896812
9.39453125,0.40648971891206814,-0.42565899348965075
9.3984375,-1.2411911414074583,0.22130067237217346
9.40234375,-0.9181276259406985,0.7664940447042818
9.40625,-1.307586224152877,-0.15316990642517594
9.41015625,-0.5038784259786201,0.27781157126428946
9.4140625,-0.52137614847094,0.5988519035607487
9.41796875,-0.5962110417276518,1.3916243482493347
9.421875,-1.8947336235515682,-1.2832234448802196
9.42578125,-1.5619690423992516,-0.5891346439393765
9.4296875,1.8178406497930526,1.447100367934847
9.43359375,2.299153398336545,-0.07061900120044051
9.4375,-0.6945228226526204,1.1244227419534025
9.44140625,-3.3310066537610927,0.8822136280600515
9.4453125,0.2036254114614013,1.670696491386433
9.44921875,1.94497279145699,2.0569508983146654
9.453125,1.2520983157488321,-0.25189758090780345
9.45703125,-2.111117531624478,-0.674116404234607
9.4609375,1.5744225485089045,-0.8478129843371062
9.46484375,0.39146532894518704,-1.1400847652754735
9.46875,-0.6834629728550846,0.47636030593312073
9.47265625,0.01596302053016161,-0.2457040471968855
9.4765625,0.1782782050049782,-0.3082482538246527
9.48046875,0.9093592401306579,0.493352126552326
9.484375,0.5079791508126663,-1.3652653052428214
9.48828125,1.6996057268780793,-0.6620288866532915
9.4921875,1.7857562575666357,-0.2896281611557511
9.49609375,1.7453076980276778,-0.3940169187872379
9.5,0.8383182446791902,1.1358891404287734
9.50390625,0.6901387919397071,-0.5768395960018325
9.5078125,0.3220645974694998,-0.13256657619334858
