time,ecg,ppg
0.0,0.23158486250371443,0.27436652755845536
0.00390625,-1.4689307693014193,0.5128218976620761
0.0078125,1.0975825787973783,0.4158734263282737
0.01171875,1.3015318506988216,0.40982702286911576
0.015625,-1.3991839550927048,-1.784932977860868
0.01953125,0.7242492757296313,-0.8267448086273891
0.0234375,2.1211132137867392,1.2396367715873404
0.02734375,1.599110990385462,-1.028580071935395
0.03125,-0.1881393787449184,-0.9929771439442545
0.03515625,-1.3949258438428203,0.17860170781461351
0.0390625,-0.015701507542266128,-0.6026974395091852
0.04296875,2.270468493801191,1.2287999857652478
0.046875,0.5847740518595447,0.35501453633975183
0.05078125,-1.8488892964779438,-1.7540769625512103
0.0546875,0.9702935542119829,-0.12588671908842855
0.05859375,-0.585359669406916,1.4490193734370742
0.0625,-0.4683230280033612,1.0031612403880228
0.06640625,0.8590563605131168,-0.4743267087112151
0.0703125,-0.7255109426609205,1.0514623718107645
0.07421875,-0.5939535077606543,1.529639226238641
0.078125,-0.964986926768926,0.46376123753439963
0.08203125,-1.0027374007654863,-0.9024107483874496
0.0859375,-0.6691898335641487,-0.42260794860533557
0.08984375,-0.9304864897370742,-1.7530770904744801
0.09375,-0.6705841098512798,-0.9866210410334617
0.09765625,-0.703118791984939,0.19605458971809256
0.1015625,-1.539233448551395,-0.4977926592819714
0.10546875,-0.08233409669743216,0.01132273925654567
0.109375,1.1119201530308205,0.18213501804936535
0.11328125,-0.1530037281337824,-0.18392370866695035
0.1171875,0.26934210391717794,0.5607503584713119
0.12109375,1.0855656020007356,0.6105973612590202
0.125,0.1828613299034124,0.2219244526813961
0.12890625,1.7428985996840676,0.29508241998726564
0.1328125,-1.2143978902775436,-0.1197639075460017
0.13671875,0.005614493895531931,-1.7028454172308072
0.140625,0.9214610632327794,-0.29298365897942974
0.14453125,-0.6646902554374886,-0.12215346419410529
0.1484375,0.23772833687627512,1.1498207750475313
0.15234375,-0.40153584884865756,0.3199570710145925
0.15625,-0.6911066437280817,0.603169613158303
0.16015625,-0.6289677957358993,-0.2200898724456965
0.1640625,-0.5283532869247342,0.8416481649058936
0.16796875,-0.46684434959983967,-0.22762302020378197
0.171875,1.6099301938410528,-0.22141569623293855
0.17578125,-0.3375265160128441,-0.3673399338243417
0.1796875,0.36020946752605393,-1.2213857521562557
0.18359375,0.3562907678917874,0.800884097810473
0.1875,0.3649741015280473,0.31746989375994716
0.19140625,0.1468370052664045,0.4815272310554688
0.1953125,0.4656897442922053,0.3640712447153766
0.19921875,-0.23944838763039236,-0.26292755518354155
0.203125,0.6744145159786306,-1.9426530521694527
0.20703125,-0.659337044278001,-0.3612674483761647
0.2109375,-0.26841751949655146,-0.9581739388141751
0.21484375,-0.8362193060476961,0.1508438396120848
0.21875,-1.0954979777163123,-0.9963616608397327
0.22265625,-1.0490265548761313,0.3628404927174999
0.2265625,-0.6042614061975599,1.2147152420472012
0.23046875,-0.2761345882510088,3.289336565719429
0.234375,0.4493589822484212,1.187877779176835
0.23828125,2.4643418654652227,-1.0700122053584609
0.2421875,0.28063151540710335,-0.5986048188048736
0.24609375,-0.1373873995574747,1.0220158543335711
0.25,0.18088766259396327,-0.5317985861673813
0.25390625,-0.7862965238192253,1.0433956738811512
0.2578125,1.5093898309875162,1.5982086602321584
0.26171875,-2.2976462749752087,0.44361047263383163
0.265625,0.8693209646192356,0.48657023169605534
0.26953125,-1.5211966708512152,0.5754857629799889
0.2734375,0.6156573415965775,0.8387925985229877
0.27734375,1.2393046840014,1.0459333631299106
0.28125,0.5064602281706457,-1.2683231307340719
0.28515625,-0.5161560204711856,-0.47869395405371246
0.2890625,0.16976729229352042,0.21620346441036742
0.29296875,0.8945306858237574,-0.1322056689935564
0.296875,-0.26022664651592603,-0.33800314378831553
0.30078125,0.051907842650305576,1.449983578991874
0.3046875,-1.0184025849599758,0.588722997276517
0.30859375,0.8755256770343437,0.1336811338387662
0.3125,-0.44995536040558476,-0.36095828269034613
0.31640625,-0.6835722647802084,0.5407919212742296
0.3203125,0.07495641843326611,0.19637291412865737
0.32421875,-1.4018516813410127,-1.1694453560289202
0.328125,0.02047932708996379,-0.18549864485142853
0.33203125,0.7646360325768977,0.8222433465983129
0.3359375,0.50116650673583,-0.5962832284630677
0.33984375,-0.37265872426018276,0.2585079848863991
0.34375,-0.257099104359773,-1.7537209192578482
0.34765625,-0.5806506785689247,-1.3254187429741568
0.3515625,-1.1072284866935536,1.6755774956922602
0.35546875,0.7289897919394601,-0.9117331035815688
0.359375,-0.3288319326303586,-0.006771878265871307
0.36328125,-0.28744225029091003,0.3025672708093457
0.3671875,0.02114338040992686,0.1806585742193559
0.37109375,-0.2287813651614292,0.7068263983821743
0.375,-0.29823930973025603,1.6748408383030948
0.37890625,0.5531622752866601,1.44786786713818
0.3828125,-1.1355438533346307,-2.0778853452951958
0.38671875,0.2930542520917398,0.0010577448022741475
0.390625,-0.7836655840460012,-1.5200869160673651
0.39453125,-0.14393147656998218,-0.14278604691054303
0.3984375,0.006761572602817782,0.6915872990315545
0.40234375,-0.22360291094922047,0.9343317777381561
0.40625,1.2716476640992378,-1.0276080517478432
0.41015625,0.1361286578139014,2.752674906643245
0.4140625,-2.3723017673694238,0.03489219654765964
0.41796875,-0.7320291197581398,-0.2036360507942058
0.421875,0.33845191535708435,0.3588408666431335
0.42578125,-1.2188938514157988,-0.26916637859211795
0.4296875,1.2060368434293474,0.07834384283841957
0.43359375,1.2198160489273286,0.6183056119808311
0.4375,0.8503263482839588,-1.0814477740521227
0.44140625,-0.7638071621983995,0.33301789630286754
0.4453125,-0.576714627522163,0.9517310658007043
0.44921875,-0.4401808428782652,-1.5478226273132307
0.453125,2.162035377101811,-0.0012517983803418378
0.45703125,-1.0304443336061593,-1.220292776209958
0.4609375,-0.41374767688844255,0.7140628067119323
0.46484375,0.19077666490651374,-1.6765424270205447
0.46875,-0.6745493806813698,-0.778181502805474
0.47265625,0.6879094823333188,0.02528828414047635
0.4765625,1.4222474489829795,-0.5160343418802119
0.48046875,1.2395075462272007,-1.3890839649240994
0.484375,-1.6903944246985148,-0.8699380573249901
0.48828125,-1.4745039624185479,-1.0213967277844263
0.4921875,-0.8529079351262902,0.9184054120699743
0.49609375,-1.452535445108237,-0.04625914559740868
0.5,0.5165264436646295,-0.46688094220143483
0.50390625,-0.3070444579007486,-1.0137422284968012
0.5078125,0.5338526264993024,0.8545750910535342
0.51171875,-0.6279203582955071,0.1219189792753012
0.515625,0.8882107415355919,-0.03607390147191405
0.51953125,0.06101505408583773,1.8076798285926987
0.5234375,-0.49279446624223466,-1.917979229290917
0.52734375,-1.1379767942885743,-0.2119788229375096
0.53125,-2.1863991740131867,-0.04697072116631455
0.53515625,-0.5698456452137004,-0.6517981503558791
0.5390625,-0.318808853996501,0.2545922930385857
0.54296875,0.4061957264183981,1.3411135343905434
0.546875,0.09812644309736507,-1.1696120012891176
0.55078125,-0.05285264599766124,-0.6057663998347821
0.5546875,0.7909039984526133,0.06073006452249295
0.55859375,0.2842084378741461,-0.06693363075755739
0.5625,-1.41919912546897,0.13766532003729642
0.56640625,1.3875286918801912,-0.9441016722888097
0.5703125,-0.6332592749017404,-0.6612933882777351
0.57421875,-0.4886441353281867,1.3204806997004916
0.578125,-0.5239626645341864,-0.5798998751668929
0.58203125,-0.8778920501072673,-1.9420086809954404
0.5859375,-0.45465530509142216,0.5623841327362146
0.58984375,0.0074416681541834735,-1.4637850703843023
0.59375,-0.5937553887710166,-0.13780865572641982
0.59765625,1.2252764036707022,-0.047480822168498575
0.6015625,-0.27016894549102477,2.1294990304534083
0.60546875,-1.0826763191486437,0.5390759648000295
0.609375,1.3033871682354365,-1.1791163199952395
0.61328125,-0.5608236309286355,0.15499842946673348
0.6171875,-1.2967718954852052,-0.026291336778957907
0.62109375,0.04918093165638713,-1.0178429000892204
0.625,0.48179981681094936,-0.7497075110890012
0.62890625,0.11439270097065847,2.2877479073920894
0.6328125,-0.9604158766862724,0.761130348872261
0.63671875,-0.47132139794843675,-0.47471199637707273
0.640625,-0.5752950858135637,-0.3075686139255671
0.64453125,0.010598662949972488,0.6250587876350667
0.6484375,-0.18724435599543066,-1.8551603917767423
0.65234375,-0.7797313460245658,1.6130430024144942
0.65625,1.456330937241344,-0.9211497501758208
0.66015625,-0.6256264778956788,2.5596246351180048
0.6640625,0.18182179305792695,-0.06829534676004553
0.66796875,1.1776239459977536,2.010904528530394
0.671875,-0.4429388027030748,0.8023163177347724
0.67578125,0.6814759246641268,-0.8085859460013705
0.6796875,-0.3155350088663667,0.2780839863207945
0.68359375,-1.0575266914472425,0.017227573191961176
0.6875,-0.2840689353524856,-0.2197837652680956
0.69140625,0.8311918650078353,1.2225160882928954
0.6953125,1.7105112153184738,-0.8541424876899012
0.69921875,-0.2235334795733592,0.10380044499384067
0.703125,-0.2744142013472144,1.5774814066290757
0.70703125,0.8510452634691453,1.421544792266148
0.7109375,0.8936261601000444,0.4756800152024768
0.71484375,0.22001164821531263,-0.8350730445593512
0.71875,-1.8152050820975214,0.14222970749335484
0.72265625,-1.791262392623154,-0.15603004429382278
0.7265625,-0.6828399848423631,0.029558332252444953
0.73046875,-1.574334621415565,0.8153793670831797
0.734375,-1.1522028704826697,1.4767645635071125
0.73828125,0.42779353428014405,-0.9498031781582763
0.7421875,0.5781184607624439,-1.8519807752084698
0.74609375,0.08922663143488936,0.05457757719837795
0.75,-0.9874923350099682,0.837207062346628
0.75390625,0.02827082407485632,-0.6449411564675916
0.7578125,-0.017468008069715824,-0.5496469880938082
0.76171875,-0.80531051941873,-0.6403375517359015
0.765625,-0.7531775045929323,-0.5233230253954443
0.76953125,-0.6212383555874131,-1.6403293414140088
0.7734375,0.21110647545219943,-0.5657880211307214
0.77734375,-0.011943425034415195,-0.13801014794855296
0.78125,-2.442234503337367,0.9248207175220076
0.78515625,-0.13431612635971266,0.750956414793429
0.7890625,-1.0076978218296446,0.1501073817844442
0.79296875,0.3517971990688909,-0.4369087709643546
0.796875,1.4969190799309169,1.8486835832592774
0.80078125,0.5292974115181726,-0.8373329479705952
0.8046875,0.15162221981847107,-0.82780295173739
0.80859375,-0.7840938897396749,1.653962733290583
0.8125,-0.18873211281252159,-0.9933954094738514
0.81640625,0.029770249686452806,-0.48787274518563634
0.8203125,-1.3846612414043034,-0.5241211180400004
0.82421875,0.4667365001268973,-0.1617191244224882
0.828125,-0.5534802336993343,-1.779060371025764
0.83203125,-0.4564219739073377,-0.48443392636484633
0.8359375,-0.33499505314038824,0.037395728591309296
0.83984375,0.32796919039915123,-0.1664290918713043
0.84375,-0.24851896229883097,1.889992259285533
0.84765625,1.813369725660576,0.764953594323419
0.8515625,1.2713064838252128,-1.0097929425562717
0.85546875,-1.161703166282721,-3.4516429804217528
0.859375,-1.9180744531130685,-0.5965811137398164
0.86328125,-0.5588087069197295,-0.838823493094383
0.8671875,-0.3220181975008597,1.0865248134225298
0.87109375,-1.5325534245205548,-1.8437564416833492
0.875,0.26260084968619274,-0.6214370087791734
0.87890625,-0.23383849866383052,0.3416597772065364
0.8828125,-1.2678309025204761,-0.39955547980252415
0.88671875,1.4864960692489624,1.4823608065229914
0.890625,-0.19330014881907434,0.5088299212477625
0.89453125,-1.3827304995098886,0.2033403921770675
0.8984375,1.139136644235676,0.1438036520189719
0.90234375,-1.1876675361174533,1.2106758380783083
0.90625,-0.049782162519588675,-1.3763701860542075
0.91015625,1.1337709181452924,0.33228653479050857
0.9140625,-0.08311003683202832,1.0538824675683376
0.91796875,1.424155904085464,0.8853430599734445
0.921875,1.4291670791506774,-2.179692499446129
0.92578125,-1.5836899351693121,2.905020541055108
0.9296875,1.5122113513345838,-1.6614341324189281
0.93359375,-0.57859117578456,-0.6298865298393227
0.9375,0.053181262833087786,-0.24071615684154474
0.94140625,-0.4914253352119842,-0.7464820476000974
0.9453125,-0.11392339373923505,0.2754258572283846
0.94921875,1.0784442531568108,-0.7861987009398045
0.953125,-0.33504234892825385,0.9048431565231035
0.95703125,0.326078996505877,-2.4380096338126083
0.9609375,-0.6207308359712,0.24818825845175546
0.96484375,-1.2692429566953907,0.0020579417765140824
0.96875,-0.5577081917253152,-0.43309477100131194
0.97265625,0.49434886802274475,-0.5981200406979245
0.9765625,-0.6995649828243735,-1.5254909628238646
0.98046875,-0.6910260159086583,-2.651067550906788
0.984375,0.5406328971875154,1.7612079075085405
0.98828125,0.8076079719951448,1.7157228873338624
0.9921875,1.1370463949204759,0.3049680298457521
0.99609375,0.5323041787598791,-0.982524386945779
1.0,0.7301686579486137,-0.5995024896154082
1.00390625,0.9174827404380906,0.5146235405803723
1.0078125,1.4930189488183394,-1.1578270179828316
1.01171875,-0.6356752890579221,-0.8875138512742536
1.015625,0.007981892096807745,0.9194451953227403
1.01953125,0.4136857056792779,-0.2650006880416492
1.0234375,0.07014982030194118,-0.683573999060737
1.02734375,0.6192922064092691,-1.0356402108083451
1.03125,-0.3958814776814664,0.15904606743991231
1.03515625,1.2405868388956638,-0.9081303706569348
1.0390625,-0.3915157402042173,0.6409831981856724
1.04296875,-0.4298664447179406,0.7152584200853745
1.046875,-1.3425711375607983,0.3528948413903838
1.05078125,0.13860082980599558,-1.529436126183748
1.0546875,-0.5929003446729824,-1.0752324701352571
1.05859375,-0.8525191198694222,0.8893102696089773
1.0625,-0.8088568166525743,-2.090720793001211
1.06640625,0.21795154396772287,-0.9937114481342548
1.0703125,-0.05372220553208723,-0.13000721559458975
1.07421875,2.9472169372052006,-1.5711442527245996
1.078125,2.9410046397540217,-0.07210697034083557
1.08203125,-0.3835274192509081,2.917436443197496
1.0859375,-0.015604027270369233,-0.4728270396451797
1.08984375,0.5726537295413799,-2.1421961658144983
1.09375,-1.4612883970555939,0.7992179815137297
1.09765625,-0.5733830356359392,0.6435430652928013
1.1015625,0.4014965168354872,-0.866288030054473
1.10546875,1.9476120556142174,-2.21103741738627
1.109375,0.8056051586462449,-0.9578869023838599
1.11328125,1.0531306597844572,1.3681899219918252
1.1171875,0.7732572453358005,0.4943880435288591
1.12109375,1.4739868900874724,0.2303516022506756
1.125,-0.914196669050639,0.019073840715408148
1.12890625,0.1726447375094591,1.6435837771228123
1.1328125,0.5106822439038741,1.001965279993385
1.13671875,1.7692569101289226,-0.44389043817331586
1.140625,-0.9908275201575559,0.8950825580110058
1.14453125,-0.4812353809900102,0.5831654563352197
1.1484375,-0.006822227835616469,-0.8831737845588409
1.15234375,1.5156450788420486,1.1139463898689816
1.15625,0.3216059865587529,0.5958438322586741
1.16015625,-0.5047383428112511,-1.5625461481110365
1.1640625,0.9111763733369918,-0.8243007389243688
1.16796875,-0.7622759047965815,-1.3425969476729607
1.171875,0.1846530223282222,0.5690319279601489
1.17578125,1.0190096785513645,0.37997882747639206
1.1796875,-1.6379978369748496,-0.8705165708903974
1.18359375,1.017270337055298,-1.3617080430874904
1.1875,-0.6100058930601531,-0.42472652106802034
1.19140625,-0.4916844335066187,-0.9549168534065499
1.1953125,-0.5396982251626234,-0.8717235404671565
1.19921875,-0.5704928683947452,-0.6868178285145664
1.203125,-0.8477552266916096,0.6566263665849538
1.20703125,0.4657301060961482,-0.287913589204751
1.2109375,-1.0393795767475094,-0.9636260949284794
1.21484375,1.6384067196060348,0.05419182163592407
1.21875,0.9434129948274035,-0.8408932458793065
1.22265625,-1.104157046048128,0.572507211308861
1.2265625,-0.05062056818889791,-1.1084179934434015
1.23046875,0.023165779922041368,0.6084701703432616
1.234375,-0.41978548348781536,-0.5311705566845777
1.23828125,1.0741873058194118,0.8190447456570047
1.2421875,-1.1189197115149716,1.7216794677196428
1.24609375,0.00886495706953044,-1.0052844187550551
1.25,0.8753305190859438,0.021802310298655668
1.25390625,0.2890090828982939,-0.612731290242165
1.2578125,0.1447239474505674,-1.7757012349440917
1.26171875,1.6104934471540768,0.15926927730130214
1.265625,-0.04239651535381016,-0.2583170461255491
1.26953125,-0.2538963612450044,-1.830488362249905
1.2734375,1.4405645976946346,-0.1311937290124849
1.27734375,2.4417989659714303,0.8556268829353038
1.28125,0.8130979133795844,1.9014597337467594
1.28515625,0.5651955884818394,0.27803742611642746
1.2890625,0.6972779692597076,0.4944297376210954
1.29296875,0.8479955603856385,2.0398494618922243
1.296875,-0.7034160452890651,0.15403330492904274
1.30078125,0.9569510087545382,-0.19124809184910405
1.3046875,-1.8380934362551247,-1.4910676732543706
1.30859375,-0.4904423869312417,-1.1707687549651733
1.3125,0.7022489734035465,-0.010145622676083724
1.31640625,-1.4801301807743612,-1.4830220431805694
1.3203125,1.4337907099089544,0.8417393802775006
1.32421875,1.5081170917537357,-0.509704936974284
1.328125,0.3549483227499516,0.8174247219770714
1.33203125,-1.5997336226021313,3.4585110165654536
1.3359375,0.008683748481710283,0.6252799864350864
1.33984375,-0.14663598492473073,-0.09744934857077714
1.34375,0.5335224544679945,-1.7970880371857851
1.34765625,0.495706851367219,0.5536642892292674
1.3515625,1.4434301730967176,1.3030900978291133
1.35546875,-1.6765633815846528,-0.07031438448465023
1.359375,-1.0155709770442765,0.4549181498206137
1.36328125,-0.6321925193004353,0.7148316495722065
1.3671875,0.18021883950229994,1.432833925729037
1.37109375,-1.0406639605707606,0.04500137049427955
1.375,0.45666714121704893,2.400672236072003
1.37890625,-1.0403247484749159,0.48883547129956023
1.3828125,1.2616537023666152,0.5878241434786418
1.38671875,1.0664578658789359,-0.28790914654632627
1.390625,-0.923007057722721,-1.2196278630105937
1.39453125,2.0760526283954306,-0.5263242290174704
1.3984375,0.19288523514971434,2.1134383022349095
1.40234375,-0.3694285177115775,-0.6644648949972145
1.40625,-1.0600713119028091,1.4353625392871414
1.41015625,-0.31391352408021284,-1.2876392511001171
1.4140625,-1.3026272283374734,-0.6014175433333878
1.41796875,-1.4227065223841378,-0.34149719914885546
1.421875,1.5891231732399655,-0.6850301858308714
1.42578125,-0.12412506412333414,-0.3339202608881812
1.4296875,-1.338832857403628,-0.44818078054076466
1.43359375,0.17269437129247422,0.01984555623201341
1.4375,1.428501667282535,-1.1349453496648985
1.44140625,0.7097636692431447,-0.634971049744377
1.4453125,1.1091650930774462,-1.9471535496596184
1.44921875,-1.2233375826890787,-0.4778013418404358
1.453125,-2.16434467917667,0.23199302042840186
1.45703125,-1.163001479876437,-0.7999356735240796
1.4609375,0.030709418572380243,0.7476926695270114
1.46484375,0.8330363500832103,1.336997055068098
1.46875,0.18182810338414704,-0.16414633381022592
1.47265625,1.1836695210311117,-0.2925744679474168
1.4765625,0.37197564504504677,-0.711263803358961
1.48046875,-0.35063682859870315,1.559327518232087
1.484375,-0.4320082354966213,-0.08905921988456433
1.48828125,-0.5081964060081966,-0.7658357593255792
1.4921875,0.6005038212433277,0.46697549286908424
1.49609375,-0.530959593643152,-1.0722222325975945
1.5,2.0563565407933417,-0.4788795155910921
1.50390625,1.2231770672325195,-1.3484967521906261
1.5078125,-2.1626490531611315,1.0651893211922854
1.51171875,0.10182537671962907,0.006279651926732824
1.515625,-0.3433847352644203,0.7802844510429632
1.51953125,-0.01999752374443418,0.6750236683148759
1.5234375,-1.8289128999967088,-0.2603873619558782
1.52734375,-0.45388485573699616,-0.19956572152029595
1.53125,0.6885838074713659,0.29121842650401664
1.53515625,2.4825208042990656,-0.2928208719444093
1.5390625,1.6113596124704999,0.556133210857219
1.54296875,-1.0984166746197568,-1.5949287944496504
1.546875,0.345331868069411,1.3415992661763614
1.55078125,0.017715408686857396,-0.12937988641761325
1.5546875,-0.31021855061941517,-0.21739993336556826
1.55859375,-0.06280245217199372,0.7998707003076305
1.5625,-1.4142094565314323,1.7291296679641455
1.56640625,-0.34479222910759283,1.6807162413458725
1.5703125,1.4330902918972643,-0.05283545894000424
1.57421875,0.033985125642859444,1.4284054738002891
1.578125,0.7345734764459143,0.8369888723368062
1.58203125,-0.15841732324495109,-0.3226673367522332
1.5859375,0.6103782759834618,0.23527181078016174
1.58984375,0.9557436172403626,-1.6592980548405691
1.59375,1.5955489560967402,0.36901894125331713
1.59765625,0.8763358355274073,0.7599322987150696
1.6015625,-1.0501102485654574,0.9222057604502311
1.60546875,1.1593874824326513,1.3020269547895038
1.609375,0.36928784762551675,-0.44452542173787546
1.61328125,-1.2034513418840496,0.30449737139422167
1.6171875,1.193531895286147,-0.5297401277223326
1.62109375,0.4081932609836111,-0.5219883288714651
1.625,0.37189046865077147,0.4985887242234001
1.62890625,0.8223115590581735,0.554883644748033
1.6328125,-0.22682018927259884,1.2264262021956174
1.63671875,2.2832427455045634,0.8355963977395914
1.640625,-1.29723453373775,-0.03073996636992911
1.64453125,0.3105890980034759,-0.26379183111787285
1.6484375,-0.5408422317670865,-0.23178533991511374
1.65234375,-0.7208246606114265,-1.4223926495995007
1.65625,-0.29572883424286656,-0.4932734041476245
1.66015625,-2.063606422966702,0.24135113362267493
1.6640625,0.14385248992174893,-0.6977488865498845
1.66796875,-1.056804873991421,1.7531916972746262
1.671875,0.13416038682941306,0.524410114721488
1.67578125,-0.5322822096611982,-0.9740138014855745
1.6796875,0.3045803709408776,-0.34091783906931555
1.68359375,0.16564943902707968,0.4592963988749188
1.6875,2.302264982183802,-0.8755314495481851
1.69140625,1.489232097235806,2.502179134525911
1.6953125,-2.2446259742237884,-0.08267934800754623
1.69921875,0.7300101832759601,-1.6583951867141118
1.703125,-0.6964550606928319,-0.22883745186293766
1.70703125,-0.9488513137945002,0.4951441733715254
1.7109375,1.5920406383416859,1.525809967887565
1.71484375,0.6453028448114115,-0.9598272314096657
1.71875,-0.5924774065372179,1.1888690831206858
1.72265625,-0.8592049549690972,-0.10262960670949137
1.7265625,-0.4658640808455614,-0.5153435411304288
1.73046875,-0.4517575441914489,0.14220853048023888
1.734375,0.10253844145823508,-1.5713895607154276
1.73828125,1.2104904179602065,0.4261075511798381
1.7421875,0.7919987843865735,1.9824461328678307
1.74609375,-0.5580051575601053,1.2356568320136623
1.75,-0.3058677374347753,0.2849919893088621
1.75390625,-1.4653179549292743,1.2256152486682352
1.7578125,0.040384955407368264,-2.1862195422088204
1.76171875,-0.046141089402203725,0.32267134193397357
1.765625,-0.2503778341480551,-0.30860924255306393
1.76953125,-0.17571762903511762,0.6208721994949846
1.7734375,0.3232158811164522,-0.3048272741717361
1.77734375,0.3540376810104752,-0.09555011262174724
1.78125,0.6251494414286163,-0.41092417520203606
1.78515625,0.0371293152320323,-0.02133059093996412
1.7890625,0.008065491576514745,0.7248207580688991
1.79296875,0.9017138352737983,-2.272782349230764
1.796875,-0.8892963514525289,-0.4362424945657059
1.80078125,-0.009565727875681771,1.0544194671058786
1.8046875,-0.8648232534653126,0.13352461382405356
1.80859375,-0.238176923088839,-0.7804113962560253
1.8125,-0.7768298860398605,0.3644355359299376
1.81640625,0.3686092697777348,-0.2620163095852454
1.8203125,1.6203440180114288,-1.1973507726746617
1.82421875,0.09435893770146418,0.4573803656280344
1.828125,0.5457485359762368,-1.061686024445878
1.83203125,0.1947001636336347,0.4384071848773392
1.8359375,-0.1389835668828332,-0.2642086484020992
1.83984375,0.23647734327338304,-0.07681501304073549
1.84375,-0.46967643002617654,1.380483969271943
1.84765625,0.4372724472458479,-0.49356064563337226
1.8515625,0.7309054378064646,-2.7065943159511674
1.85546875,0.8206754743278034,1.5456075872000774
1.859375,1.181610815919108,-0.3571979846386815
1.86328125,0.7598140794012811,0.2251269870987548
1.8671875,0.7992422965166173,-1.5043829676693592
1.87109375,-0.6069498198449859,-0.900303601358767
1.875,0.24815418862365057,0.09298907083260759
1.87890625,0.9790392784467804,-0.10828961307731456
1.8828125,-0.7740385419783357,1.4873337252332557
1.88671875,0.49630705264826736,1.2474919369383282
1.890625,0.17283813969271677,1.7014357011092955
1.89453125,0.4475942830808424,-0.360155489949174
1.8984375,-2.5351968490698398,0.11057170434283872
1.90234375,-0.6884393866117873,1.018403048681452
1.90625,1.96110499105091,-0.6905292372098513
1.91015625,-0.6613998612252145,1.019239952363528
1.9140625,0.34034251556009704,0.8098923634848174
1.91796875,1.0370851753861987,-0.3289171944599272
1.921875,0.820057560427453,-0.24596278357878587
1.92578125,1.5162735698446081,-1.6095800201742643
1.9296875,0.07029666897434465,0.00813581555265743
1.93359375,1.179575580340113,-0.592856154615835
1.9375,-1.1390576040549976,-0.25671738539514033
1.94140625,-0.6455620531960997,0.0856783462647533
1.9453125,-1.023582067303237,1.357508433621259
1.94921875,0.5110744339248703,0.5124032301949378
1.953125,0.26404460565016913,0.9020385941689578
1.95703125,1.480976532625674,0.7749685484044513
1.9609375,1.1385428142108254,-0.8051562258384661
1.96484375,-0.5523468961088094,1.0572856553485364
1.96875,0.9222289406461263,0.11541773375898022
1.97265625,0.5328766385253901,0.958279357040749
1.9765625,-0.04619541142680933,1.5886490217780789
1.98046875,0.12250717677361163,-0.38766598633424965
1.984375,-1.3818952677446603,-1.5987854947713591
1.98828125,1.162789273227774,0.3560572692236899
1.9921875,0.5735891840841181,-1.53037179732349
1.99609375,-0.8087991178928198,-0.9844518112965465
2.0,-0.7388235706005953,0.49560119327934055
2.00390625,0.7846016240692633,-0.1607177526974887
2.0078125,0.7302345388996484,-0.6069092525574751
2.01171875,1.3268922962318754,1.7297841672955978
2.015625,0.3699467586751368,-0.06451558960539848
2.01953125,0.866748166597077,0.4715709736907023
2.0234375,0.3689022985172413,-0.4170445226251296
2.02734375,-0.2410786664803739,0.05789422233736339
2.03125,0.19923751000739962,0.2006427194445093
2.03515625,-0.9680391367014446,-0.15527135888909177
2.0390625,1.9201839578453013,-1.7187282306269258
2.04296875,0.953327649398506,0.6936369961912846
2.046875,2.019410342596798,0.31322629206647573
2.05078125,-0.7800504293904235,0.38532513770177246
2.0546875,-0.6192110262191408,-3.1058434445080376
2.05859375,0.025154642087644508,0.23018225624285568
2.0625,-0.5444569334549648,0.058266077958838716
2.06640625,0.9467175285327135,1.5660493687198702
2.0703125,-1.839512075153895,-1.126857627233312
2.07421875,3.3222358935629903,0.36770304963086997
2.078125,0.8276081115458578,-0.8319880122236266
2.08203125,-0.2516752795415199,0.4406335031458191
2.0859375,-0.6152492160282539,-0.2819246561577689
2.08984375,0.7598889040164829,0.13265121965642798
2.09375,0.8719681691532646,0.44376878417177706
2.09765625,-0.6925351662038167,1.670845307705791
2.1015625,-1.6111670327582603,-2.1758335165935234
2.10546875,0.6223473293459073,1.1793577270015254
2.109375,-1.4167804178578982,1.7837370752323043
2.11328125,-0.9598728429151531,1.0444296604880488
2.1171875,-0.14473440647444724,0.10151007386898243
2.12109375,-0.6331443882890572,0.7584033986559608
2.125,-0.30378209142406637,-0.698467768342237
2.12890625,0.2519666836635668,0.007570972481620466
2.1328125,0.4589487169330169,-0.17421286384103699
2.13671875,0.7358245457401899,0.5191601315098849
2.140625,-0.7975826886708158,1.365243916991168
2.14453125,1.4527966337440374,0.6358606118918865
2.1484375,-0.09102343275177947,-1.0859300552622877
2.15234375,0.07012907871709534,0.8483683901523995
2.15625,1.3670572380307469,1.2704702627128808
2.16015625,-1.3168865898434676,-0.16085574810562187
2.1640625,-2.393294455965208,0.16283179089729247
2.16796875,1.1066460909274074,-0.485263210921901
2.171875,0.773034815057465,-0.410242097530125
2.17578125,-0.28564002401282107,-0.9396448153450209
2.1796875,-1.68626118019546,-2.4731479596691166
2.18359375,-0.6535501313195086,-1.4494828900671952
2.1875,-0.04713404625271424,0.5493134861585772
2.19140625,-1.7579490102551727,1.485202903145926
2.1953125,0.7973742156878123,2.274723749205892
2.19921875,2.521928750342263,0.24322647380214366
2.203125,-0.5913234497927701,0.10016929751694643
2.20703125,0.9782838715728257,-0.6492539316254895
2.2109375,-2.043081846699241,0.23258750425344274
2.21484375,2.2457132043994203,-0.6409065340383866
2.21875,0.6262729195656606,0.852422969885458
2.22265625,0.38187725311542575,0.3409498681628392
2.2265625,0.31283827186399693,-1.25061346804025
2.23046875,-0.29432672466081633,-1.6794468047657056
2.234375,0.7404430727967312,1.671623680728046
2.23828125,0.24746386414450344,-0.10775868448893113
2.2421875,2.1372845083316996,-0.03197157161849407
2.24609375,-0.018330368224732198,-0.5269425145828767
2.25,-1.381189194217256,-0.11702091969857688
2.25390625,-0.02803484244311578,1.6054810526077437
2.2578125,0.3650788056421173,-1.1569891483858763
2.26171875,-0.32120774703435206,-0.509651717319773
2.265625,0.2318760589528657,-0.40105820982182927
2.26953125,0.4104876472958116,2.2801703764789156
2.2734375,0.16727251017251393,0.18375666400763638
2.27734375,0.33925698997395387,0.3222015833121321
2.28125,0.5001760076062803,0.009953686344009772
2.28515625,-0.3749074205179494,0.09451385012579627
2.2890625,1.2342787602404,0.027227263735964485
2.29296875,0.2704851710170225,0.7245212905717475
2.296875,0.06063578001861383,2.1100730007464934
2.30078125,-2.194450568301396,1.073097418648615
2.3046875,-0.5344666943139366,1.2351871914580417
2.30859375,1.2636245085740885,-0.6597849631912636
2.3125,-0.15125623897791224,0.6156095730120343
2.31640625,1.5098164993637373,-0.5012754408178017
2.3203125,-0.8021957179663806,1.1065669384250785
2.32421875,1.885599757587232,-1.3191446175859536
2.328125,1.1189412167339072,1.5572621197494179
2.33203125,0.434406926993486,0.5925956600197112
2.3359375,-0.7250250443240658,1.3655231908968166
2.33984375,-1.7711497532657772,-0.18648234047916026
2.34375,-1.6351163524879435,-2.2839879722790215
2.34765625,-0.7030557800301656,2.604455603527832
2.3515625,0.6895382787716978,-1.2916612518530235
2.35546875,-1.9712701353016255,0.3425932037967558
2.359375,-0.10964424318861238,0.04740771630304415
2.36328125,1.1181170484640188,0.18339147442056808
2.3671875,0.3218307595807277,-1.6608050445759985
2.37109375,0.9665207753633495,1.8254708242669049
2.375,-0.348615123183319,0.8380342734588746
2.37890625,1.9776591342558332,0.10609135831679964
2.3828125,1.1023339919851096,-0.7433497432186112
2.38671875,-0.9366087316559434,0.38851160402291274
2.390625,-0.10733028246061889,-0.11415606660258944
2.39453125,-1.3085486183627941,0.003617587829872855
2.3984375,-0.08404241663216634,0.15541590498357902
2.40234375,0.7246945110347149,-0.15700110593544425
2.40625,0.8716297927461631,0.4455613864229101
2.41015625,1.29485287597218,-0.9912331743421098
2.4140625,0.3174232463459644,1.497839805074813
2.41796875,-1.2111655669835397,0.7720923318999355
2.421875,0.6622659819066185,0.3561742674009426
2.42578125,0.1412099229087161,-0.07339448197638127
2.4296875,-3.4312899355649003,-0.7082684650063036
2.43359375,0.3362397427878298,1.8326321567695165
2.4375,-0.9570744903635232,0.3643964073872675
2.44140625,0.6399064723188209,1.622080517382956
2.4453125,-0.46629474413926414,-1.3577329983784787
2.44921875,-0.04196261842276022,0.02868119929519197
2.453125,-0.6947770326505166,-0.7490174780057792
2.45703125,0.2226554434091007,1.591693907137913
2.4609375,-0.15837755473534654,-0.36819557942197023
2.46484375,0.10806799247852755,-0.7753403033846862
2.46875,0.8737101267905347,2.1582052255361592
2.47265625,0.19276267605507436,-0.9373689698978478
2.4765625,-0.6275369738336356,0.5391046369695285
2.48046875,-1.2912914962098785,-1.5534848863971118
2.484375,-0.33254254811257294,0.5574642473813329
2.48828125,0.336930115855556,-1.2258036980814528
2.4921875,-0.7323376081376916,0.6599134764059303
2.49609375,1.822868651268142,0.43043177736752847
2.5,-0.22311850706979772,-0.04319914300219381
2.50390625,-0.18551788246775405,-0.6123401569900169
2.5078125,-1.4500632175016035,0.6033489606348738
2.51171875,-2.9105322926163826,-0.17046921066810664
2.515625,0.8691671036808203,1.3214719004186586
2.51953125,-0.26298245604677745,-2.143614011822353
2.5234375,0.7969215871766184,1.083343368680091
2.52734375,-2.4347180824093373,-0.14734932186533012
2.53125,-0.5280621303899271,-1.2533575552977194
2.53515625,0.8700430256674977,1.7017972426705914
2.5390625,-0.38363126850992246,0.5229988088451785
2.54296875,-1.41873428499399,1.3454672937095322
2.546875,1.326094645294588,-1.2356857342445955
2.55078125,1.1968105983394635,1.4670740368677346
2.5546875,-2.135289188433409,-1.316177859790901
2.55859375,1.057277386522165,-0.5573157819687086
2.5625,-0.5259522920419895,1.5776824317839284
2.56640625,0.12370219828571334,-0.9042667741003039
2.5703125,-2.439007013175841,0.3360972985018893
2.57421875,-0.6742694435366747,0.0159082255316456
2.578125,-0.745945978516721,0.1401550906115755
2.58203125,0.5856487969501617,-1.6058238047851772
2.5859375,0.6679305569188382,-0.6584061825535664
2.58984375,0.3545507920294051,0.15033909683763583
2.59375,-0.7764090055957019,-0.6578058323988829
2.59765625,-0.11507318161530862,0.6115591152778879
2.6015625,-0.564060856030456,1.0482863934534352
2.60546875,1.0858268078780593,0.5905232710078926
2.609375,-0.9116343385485636,-0.30226945066815514
2.61328125,0.18860911289420493,-2.0245199341123272
2.6171875,0.24571315681973044,-0.2646641762896981
2.62109375,-0.6976271654561499,0.27293574917039026
2.625,-0.45796600768363865,-1.8208821561902098
2.62890625,-0.928450432856329,0.9391610428115739
2.6328125,0.2092445208600943,-0.517182158741235
2.63671875,0.4543112839043785,-0.6296173877554813
2.640625,-0.3025401118400562,1.3951160110219825
2.64453125,0.06682771467605897,-0.700387568831153
2.6484375,0.7265321284123888,1.5450923661028357
2.65234375,0.4505283353743096,1.3981226487247618
2.65625,-0.5081547669166865,0.05209818870964671
2.66015625,0.0062408474441020085,-0.22858537990202887
2.6640625,-0.2941300743628713,-0.8274233900621254
2.66796875,-0.07800984616550379,-1.472787397937537
2.671875,-0.4846086046746071,-1.6619516063418007
2.67578125,0.6652259681480348,0.7238693278340901
2.6796875,-1.006204761727075,-0.9659395389022211
2.68359375,-0.4965640590904744,-1.1507599218285556
2.6875,0.7718780121954318,1.006011043874269
2.69140625,-0.2205185214626864,1.6864978753960151
2.6953125,-0.39617800979406675,-1.0144220631122256
2.69921875,-0.5509323874611998,0.08550679269261338
2.703125,-0.3674040396784928,0.21777691509372696
2.70703125,1.1667850093338128,-0.23636037807524332
2.7109375,0.13325930756664345,0.29007465760995005
2.71484375,-1.6179937037579868,-0.24304059072504575
2.71875,-0.5575634749005297,0.31117835586157444
2.72265625,2.8502288998788052,0.3422256317915992
2.7265625,-0.148734768478679,-0.21626038330795763
2.73046875,0.386107125596153,-2.3070399019864345
2.734375,-0.39672712100481616,0.2328883813380472
2.73828125,-2.1110393608917297,0.22135487090590966
2.7421875,-0.613826208922206,-0.4130988736944613
2.74609375,-1.3311021722932765,-1.6649696690026974
2.75,-0.32075383856256257,2.5684776635646536
2.75390625,-0.4983573938733942,0.395034851616261
2.7578125,0.19192484725053652,-2.096395317853413
2.76171875,0.8407037797272395,-0.04591307553326854
2.765625,-0.35662808030639925,-1.0039291673754307
2.76953125,-0.6089870272781239,-0.27768353146452696
2.7734375,-1.19268143602525,0.09790020854973873
2.77734375,-1.2210774508351612,-0.40952160683795447
2.78125,-0.7708559818934702,1.7768555595403661
2.78515625,-1.119999018458868,1.7542585255308705
2.7890625,0.4541178649779959,-1.1251813800040493
2.79296875,-0.10784980956909429,1.598310507736503
2.796875,-1.8289676542368558,-1.263060560920857
2.80078125,-0.22785767298306353,-0.5638738477272256
2.8046875,0.14501292073680497,1.2481638763207985
2.80859375,0.830350217073669,0.29942488663802963
2.8125,0.8903904415006798,-0.22599376737971955
2.81640625,0.815547949500213,-0.6231966359915087
2.8203125,0.12301661511458298,-0.5006450228740683
2.82421875,-0.4405195583783645,0.09264604377699849
2.828125,-0.42612579151402113,-1.5088632784165015
2.83203125,0.5799601520039506,1.4077477837175183
2.8359375,-0.2293161589091437,-0.4931151279112869
2.83984375,1.387494972866042,-0.1276156246932656
2.84375,0.4478989620863997,0.048721503023532266
2.84765625,-0.8594415200076173,-0.01519494327039991
2.8515625,-0.22800477530762853,-0.39307592389051105
2.85546875,0.015330232471593453,1.184773356917437
2.859375,1.1575991588945422,-1.676069736168109
2.86328125,-0.3903685946864922,-1.3284439442812492
2.8671875,0.11711156279207625,-0.408780549644624
2.87109375,-0.4884927658107404,0.8074680617353583
2.875,0.7539221139254135,1.4044899367605752
2.87890625,1.1986399304454516,-0.2524577542873864
2.8828125,2.4237677724536235,0.14258668728885282
2.88671875,-0.32518099002812484,0.4497308076051392
2.890625,-0.9051360595161969,0.21353884574606855
2.89453125,0.47855661464738575,0.16975627934216583
2.8984375,0.9526939687721024,2.269240734335495
2.90234375,-1.5898390006702938,-1.3978260005985932
2.90625,-0.991911525196373,0.22831142012819813
2.91015625,1.590588113390449,1.5821769387914104
2.9140625,-0.4373621295765262,-0.9282528931386562
2.91796875,1.0445761744644015,0.039430872433901705
2.921875,0.5790695363370713,-1.320011406748099
2.92578125,0.1523762191361467,0.35553607665600295
2.9296875,-0.6506572207050856,-0.16111661410720576
2.93359375,-0.03445207849132204,-0.09215000914075307
2.9375,-1.1899335140410412,0.38666713743509146
2.94140625,-0.46527370089930936,-0.6050755590476901
2.9453125,0.21607424069715037,-1.1872177321550883
2.94921875,2.2426841580727355,0.5004884790145057
2.953125,0.2526351648532061,-1.689397670748618
2.95703125,0.5644606696037565,-0.9127867497643941
2.9609375,0.4684896312450636,-1.7929257728389612
2.96484375,0.21462490298859932,-0.15730686875791564
2.96875,0.08537719777023102,-0.14165967157935766
2.97265625,1.2506878255990423,-0.47938004376550464
2.9765625,0.0636364869970545,-2.11763362579191
2.98046875,-0.4017132770542002,-0.15560796394902046
2.984375,0.3922368744155294,1.0269907847013997
2.98828125,1.1312397357876005,0.1409975606544106
2.9921875,0.16134519482408208,-0.5303734270091585
2.99609375,0.048668830068088295,-1.0057559387885242
3.0,1.1194948451234341,0.7392767738822404
3.00390625,0.7368625282466732,-0.5357147832396522
3.0078125,0.7437552346881966,-0.14064654988450956
3.01171875,0.5003511261358318,0.4327187470030025
3.015625,0.09958629589065977,0.12284231564295238
3.01953125,-1.6637753509143642,1.284664831834956
3.0234375,1.0827868085124146,1.2953782943064682
3.02734375,0.023873526443608625,-0.16445494810141179
3.03125,-0.08853555807699032,-0.9930610889408457
3.03515625,0.2819296015993247,0.40278884125761993
3.0390625,1.3498776671079682,0.3379583823441566
3.04296875,-0.5864002004510809,0.02813500231055439
3.046875,1.0711540229511842,-1.2123822875476702
3.05078125,-1.4000654534887507,0.26095144476774285
3.0546875,-2.195087865813979,-0.6995974905924135
3.05859375,-0.38459702648356076,0.30224497901365127
3.0625,0.40932516948372927,-1.5316350177393672
3.06640625,-1.1024623078705855,0.04643831454718683
3.0703125,-0.032042968736407274,-1.5000199401466332
3.07421875,0.6617896407477728,-0.38205185823169874
3.078125,0.7404591325532014,0.13680281941498568
3.08203125,0.22864813922825214,1.3297871370379626
3.0859375,-0.4299804736512538,0.32605682958659005
3.08984375,0.03848936435368243,-0.33011417523442166
3.09375,1.6620428252122705,-1.118157609334583
3.09765625,0.09706671085865375,0.7506813718951857
3.1015625,-0.6244299455565007,0.13715837272439876
3.10546875,1.1553307145864427,-0.7302096335122608
3.109375,1.008351705246256,-1.0906531693702226
3.11328125,1.18498787588293,0.8266543180273166
3.1171875,-0.6875412987320502,-0.3189735610692205
3.12109375,-0.2613639810062386,-0.5611978035338139
3.125,0.3021807513393293,-2.038785239998216
3.12890625,1.1430954678380143,-0.7126121375545905
3.1328125,-0.08236569106379922,-0.16674885946279808
3.13671875,-0.7307831377018502,0.0015968885202135383
3.140625,-1.557729257038116,1.8872963053719263
3.14453125,-0.5377483260282873,1.7921804240419412
3.1484375,-0.19805128973975586,-0.24702416969707178
3.15234375,0.5369055411556505,0.29891625113677284
3.15625,-1.3219231557771574,-0.19867273679986278
3.16015625,0.7353435501765224,-2.2469982377441484
3.1640625,-0.6303260413508566,2.2093787623300356
3.16796875,0.6394721624794029,-1.6776081139013552
3.171875,0.6494985299643158,1.9594661247894731
3.17578125,0.5116157721681206,-0.5242795507231103
3.1796875,-0.6312797254880735,-0.10500587895306107
3.18359375,0.19700820563825575,-1.3763177053144353
3.1875,1.0994247979955396,-0.8750314166007234
3.19140625,-1.8944503610474932,-1.7238930120893032
3.1953125,1.3525641051698873,-0.2309667658693478
3.19921875,-0.6467461010171742,-0.3271373427927438
3.203125,-0.5580273555333288,-0.45927118415331014
3.20703125,-0.4256051271671477,-1.446054378882199
3.2109375,-0.11792449580599638,-0.7649175868982824
3.21484375,-0.7352600878013812,2.838413695107604
3.21875,-0.32706850906525076,-0.33966706701201077
3.22265625,-1.5933972442839037,1.1451767019350274
3.2265625,0.5127418496595377,-0.7564263845321306
3.23046875,1.2680843763806875,0.3625964378358279
3.234375,-2.1604608278714306,-0.14936118135347676
3.23828125,-0.364701856166611,0.5202163377076077
3.2421875,0.9718067928661406,-1.0155250023347908
3.24609375,1.030514532330578,2.287370435015796
3.25,-0.02372354677501979,-0.9440317713095752
3.25390625,0.313887519308711,0.7292379499911213
3.2578125,-2.9425972115437724,1.3493048036897668
3.26171875,-1.0772990584372808,0.4485593747964352
3.265625,-0.2220207644095575,-0.7530830794409143
3.26953125,2.364924308358191,0.7280767191418095
3.2734375,-0.8722242216587283,2.0137001569010824
3.27734375,-1.3616728060893037,-1.2171256517783962
3.28125,-0.6535877328063895,0.08859496952464838
3.28515625,1.6793682174566047,0.21786078487933996
3.2890625,-1.2014284572887968,1.0332153029153834
3.29296875,1.6628516988479178,0.951101498129512
3.296875,-1.4594090025602773,-0.01733645188645798
3.30078125,-0.72916613293039,-0.6470358752473345
3.3046875,-2.1636443334223165,-2.1017319939516867
3.30859375,0.7439451080342235,1.190513726159261
3.3125,-0.33822984081954416,-1.0435893195340624
3.31640625,-1.1772949036997167,-0.32192775658470274
3.3203125,1.0845996699339664,-1.2618081575330353
3.32421875,-0.18979552254678883,-0.5674920271847279
3.328125,-1.0124120599301343,-0.4516734249605402
3.33203125,-0.3960875635465095,-1.1456994376037934
3.3359375,-1.608543908688236,-0.17293049866458293
3.33984375,0.3209544781135914,0.18248350707308827
3.34375,2.618832669983307,-1.168372684255759
3.34765625,0.3112937275169104,0.39134619339803917
3.3515625,-0.08708027605158034,-0.5283069760900566
3.35546875,1.4732887225321147,0.8142950924247164
3.359375,-3.435282103672338,0.570295601659137
3.36328125,0.18149647815091763,-0.7300175800341401
3.3671875,-0.3256036563471692,-0.02784467505154205
3.37109375,1.0270621590749291,-0.26049759337541495
3.375,0.14368567883249156,0.7225463976111677
3.37890625,-2.521641710206971,-0.19499790624397673
3.3828125,-1.0341267534153855,-0.8502025188894831
3.38671875,0.9256765634177659,0.7637013928568613
3.390625,-0.7270856726458655,-0.32807214128774403
3.39453125,1.6729005162360677,-1.2577247931585571
3.3984375,-0.575509332039449,-0.4486302495176655
3.40234375,0.008089890525513347,0.5793789023162994
3.40625,-0.6249368166264254,-0.030103946525048626
3.41015625,2.121185028799101,0.4471858143507683
3.4140625,0.15808393307195906,0.3943377160662782
3.41796875,0.6859963222721356,-0.45527838341687726
3.421875,0.15228478264379774,0.03208252550176924
3.42578125,-1.4309276369469668,-0.9070104833687633
3.4296875,-1.2195287656976013,-0.5660443542276189
3.43359375,-0.012108813629000036,-1.8771584752505481
3.4375,-2.1379792369119532,-1.0177971491146087
3.44140625,1.2587545520423806,-1.9252764717122595
3.4453125,-1.0544606807378634,-1.6582947207979377
3.44921875,-0.7521414738087043,-0.2262912501856251
3.453125,-2.212381389237744,1.0550718199598828
3.45703125,0.16006065863048055,-0.6781091184362088
3.4609375,-0.7740392247674203,0.8333341950060322
3.46484375,0.26298819524493394,1.1890678396492071
3.46875,0.26352401070516723,0.6943565057601351
3.47265625,-0.17870249246058398,-0.6512554782046741
3.4765625,0.3888871300946347,-0.9561611176665491
3.48046875,-0.20802118614174595,-1.2917589811151537
3.484375,-1.8130445146133745,0.17804014859102765
3.48828125,1.3436014455787344,1.7524896629371616
3.4921875,1.8815437732418976,-0.7163638202718923
3.49609375,2.0054750250766515,-0.03782711894286182
3.5,0.9383018638650541,-0.7797375945459184
3.50390625,0.12190993773393353,1.26261880086792
3.5078125,-0.46416942643351616,-1.7229828443651805
3.51171875,-2.5339039002664343,0.13805912330251444
3.515625,0.14043774657468167,-0.6510762688852356
3.51953125,-0.4928480851843119,-0.39674938722993197
3.5234375,0.9934144045814421,1.3782778067154604
3.52734375,2.313849623106685,1.379355678678064
3.53125,1.514056797251543,0.6500896917438641
3.53515625,-1.68482987165784,-1.29342398858806
3.5390625,1.4046693878240584,-0.1354459547974944
3.54296875,-0.7092024989458816,0.7578805885297496
3.546875,2.089473357280619,-0.22352137256348592
3.55078125,-0.08299269212983133,-1.4284795248640332
3.5546875,2.2461429324192035,2.057630464123971
3.55859375,1.6265391035925174,0.471373353874035
3.5625,-0.3065772554897949,1.9283065144773315
3.56640625,-0.813191536227162,-0.9561644543526233
3.5703125,0.9231420937566786,1.0297544481938674
3.57421875,0.299537608876385,0.9984637952805077
3.578125,-0.2042322366214014,-1.1573870272313473
3.58203125,-0.20774425739935515,0.2694892022169553
3.5859375,-0.476940031862136,-1.5180817514649492
3.58984375,-1.1273627606206298,0.6856440556960487
3.59375,1.758735496100871,0.41773671231487325
3.59765625,-0.8322722835105733,3.498624893645083
3.6015625,-0.7515987742541217,0.6737554976665572
3.60546875,-0.26953027060317264,3.296176162000013
3.609375,-0.8771356045672659,1.5011144468403321
3.61328125,0.8584633463747492,1.697575578738738
3.6171875,0.6069968836959945,-1.5066819244914804
3.62109375,1.161061935549724,0.4651720565362374
3.625,-1.6806106757419796,0.21892184833495762
3.62890625,0.793457025668953,-0.6930905178987643
3.6328125,-0.1869313076580683,-0.7568999085732077
3.63671875,0.08028044635666234,0.07417391988547854
3.640625,-0.9223744101502762,-0.4418114244766263
3.64453125,0.2960871674908716,0.1923770288003467
3.6484375,-0.02703897369989893,-0.04144645233285338
3.65234375,0.9236459084611051,-1.4006809343230868
3.65625,1.1161938813365773,2.302198145959719
3.66015625,0.4575396765541869,-1.143369621290292
3.6640625,-0.5069669789182525,0.22829550526228454
3.66796875,-0.33422030183879026,-0.6036131519181512
3.671875,-2.395277107517503,-1.4560779645170137
3.67578125,0.09155787930261394,0.781411248062107
3.6796875,0.4234671477989524,0.049496976151736
3.68359375,1.6914989467907109,-0.18283324555206062
3.6875,-0.8565480337249352,0.5754725976154708
3.69140625,-0.8262782958451506,-1.6655773664062083
3.6953125,0.2708450821078782,1.8346042743981326
3.69921875,-1.6320427865755018,-0.6752903757894702
3.703125,-0.21683883667927673,-1.8744661697320892
3.70703125,0.48352839242062273,-0.9704252082339987
3.7109375,-0.4321071522251286,0.21601384991475409
3.71484375,1.0837948576203975,1.6513054521225965
3.71875,-0.8552676388658669,-1.008849562372207
3.72265625,-0.39811959401457275,0.7242864036202386
3.7265625,-0.6728301592790545,-0.310584869000515
3.73046875,0.4278508954659145,-1.3900474977511197
3.734375,1.6922863726806872,-1.256252930714648
3.73828125,0.18442243229950528,-1.1616364847282834
3.7421875,-2.6319910529454367,-0.6184869822166869
3.74609375,0.3672655250347048,-0.0919578929202195
3.75,0.7635857515090615,-0.02766066093695571
3.75390625,-0.13757394848400456,-0.4583374479680866
3.7578125,1.0628096126697244,0.22874740243246708
3.76171875,0.9047961711436684,0.6946448873560158
3.765625,0.5226092746396631,0.5369788629207839
3.76953125,-1.109589777606151,0.1940368695388177
3.7734375,1.9169174252270138,1.0884734673793475
3.77734375,0.21883017130736226,0.5627047966930065
3.78125,0.20839870235472988,-0.26015013538551196
3.78515625,-0.37159591764779787,-0.2769825660563918
3.7890625,-0.26683887018944275,-0.01866648398202922
3.79296875,-1.4149650532354854,0.23295554632252785
3.796875,0.6013198140858991,0.6278422743104333
3.80078125,-1.1379462543541807,1.4752895059872804
3.8046875,0.15551761767282685,1.0486577027868424
3.80859375,-0.5361254335998161,-0.044524994456996994
3.8125,0.13263174815688858,-0.7188010529436354
3.81640625,-1.4148196679864573,0.8481882612651784
3.8203125,-1.402140960571103,-0.22884804485181579
3.82421875,1.0585576834479455,1.1861077025208038
3.828125,-0.9775314372235245,1.0440285658367736
3.83203125,-1.4467136168092771,1.249083690960739
3.8359375,1.3525085050260202,-1.0106718111655257
3.83984375,-1.223661001754188,-0.07870065628322682
3.84375,-0.2369699294628871,-0.31829294097540034
3.84765625,-0.4159686628091078,0.916521863695375
3.8515625,-1.7340806029257252,-1.0164334708071858
3.85546875,-0.40934638053349887,-2.030263469524006
3.859375,0.7352554207838954,0.9086581659928781
3.86328125,-1.3229309118102182,0.6673083662108191
3.8671875,-0.8498775987001813,-0.7548998607508036
3.87109375,-0.8406509186471165,0.40191767632996156
3.875,2.6349827524066645,-1.7983624464375763
3.87890625,1.0352270888945145,-1.0723498229695636
3.8828125,-2.5939093127903043,2.1522589895342787
3.88671875,-1.4876721851386003,-0.468320763039658
3.890625,0.8595366449312631,-0.13402475785060905
3.89453125,-0.10936237507604463,-0.638052980237265
3.8984375,-0.5217055917203215,0.18879792720012367
3.90234375,-0.2270701397630691,-0.0584441984489094
3.90625,2.4116304267044706,-1.0379569394721755
3.91015625,-0.9744182309671244,-0.28635063627584345
3.9140625,-0.05754007205447013,2.327881108899334
3.91796875,-1.82898617696083,-0.48102756585949147
3.921875,-1.317214479669502,0.38224906422851423
3.92578125,-1.7860607648076587,-0.3426168248150823
3.9296875,0.8600688114710099,0.9504880659098421
3.93359375,0.4825584648254925,-0.6581680150075774
3.9375,-0.6822897213070213,0.6599757687676726
3.94140625,1.3564766394452143,1.0738671980123875
3.9453125,-0.7591271707585759,-1.2048849904038876
3.94921875,-1.0159753346898102,0.3490168399936832
3.953125,0.13751474430000263,-0.27141116114251845
3.95703125,-0.5101805164174663,-1.5349468883693087
3.9609375,0.24532648206772198,0.5025225833527462
3.96484375,1.4019930183272664,0.5308941268556742
3.96875,0.8950524936065567,0.17996346079576583
3.97265625,1.0408105243045405,-1.90254834743791
3.9765625,-0.1632924633441183,1.4673691576139094
3.98046875,-0.6590408792057274,-0.4055830764562957
3.984375,0.1426139720765317,-0.6457555017350507
3.98828125,-0.14231848799839444,-0.4461430764705166
3.9921875,-0.2269381464653281,-1.2448126266481607
3.99609375,0.2504472522451569,0.3805875968332644
4.0,0.603043862997413,-0.48751038500735033
4.00390625,-0.8507636564382052,0.6979723488051675
4.0078125,0.3968468714383856,-2.009474985648187
4.01171875,1.1586672321446665,-1.8493383016096387
4.015625,-1.023353719642525,-2.9373250816124967
4.01953125,0.8680111199174999,0.44083699530021125
4.0234375,1.0924038830928562,1.979148450044417
4.02734375,-1.1000644294622677,0.7176247435498878
4.03125,-0.3308889544378908,0.7576600256952876
4.03515625,-1.0660733164852743,-0.952593246394783
4.0390625,-0.06472618409257667,-0.4642620303562223
4.04296875,0.8234266998240664,-1.5924020671880597
4.046875,1.2337879848127935,0.5364244475105999
4.05078125,-0.6509703536808888,0.05059485194758957
4.0546875,0.9842553677718995,1.1001665759079102
4.05859375,-0.561689399416703,-0.705499213715794
4.0625,-0.5605669761733978,-1.153210588875655
4.06640625,1.4200944640564659,-0.7323124329368842
4.0703125,2.0865195802641456,-0.19032622266010388
4.07421875,-0.10202643512393579,-0.13102223801198465
4.078125,-1.7090008729831834,1.7563094216432262
4.08203125,0.05259522403469302,1.0973448643373669
4.0859375,2.319249169640931,-1.0137959489500357
4.08984375,-0.8911712720610863,0.47555891279566614
4.09375,-0.5985932668719303,0.7944665811894702
4.09765625,-0.14111621731000876,-1.1598954316540033
4.1015625,0.920175424822051,-0.8482172893567408
4.10546875,0.6568491170813456,1.4522434276648486
4.109375,0.23814294123812557,-0.0590783429886322
4.11328125,-0.602738733072455,-0.4568847127806886
4.1171875,-0.9682857569007085,-0.45430971798685865
4.12109375,0.1873132441151469,1.7686591650603438
4.125,0.32200168190696055,0.550016396567313
4.12890625,-0.8022575912473727,-0.5482410740075538
4.1328125,-2.245954761828558,1.8629107543863874
4.13671875,-0.7915195740025388,1.4253440928680343
4.140625,0.21994330930641098,0.33357989249739356
4.14453125,-0.2580384808778005,1.2974719271462551
4.1484375,0.1919323659305922,0.29691568122369333
4.15234375,0.8872576014612753,2.6573133072097748
4.15625,-0.2648418584746466,1.806339439721382
4.16015625,-2.534082971385406,-1.5541049310506185
4.1640625,1.531679353717784,-0.6674138546796547
4.16796875,-0.19419756118603698,0.16032621627003166
4.171875,-1.529738971575435,0.7409270966111077
4.17578125,2.55889929981836,-1.0320283288483871
4.1796875,0.8796332716518364,1.0067369668741812
4.18359375,0.03637643834319833,-0.9076609833199714
4.1875,1.321648637789853,0.3342107322206566
4.19140625,1.4586425527926472,-0.6616124777316066
4.1953125,-1.0658796114744595,-0.9772576604802921
4.19921875,-1.285188730774672,-0.3248931022006586
4.203125,0.1725042210338989,-0.46725971784881043
4.20703125,1.3554328008063588,-1.5022392064803058
4.2109375,-0.6983816605453265,-0.47055368258769015
4.21484375,-0.42672197468801193,1.7548947841107354
4.21875,-0.6903683939600499,-1.579745649454821
4.22265625,0.9076653147536657,-0.5670138301099806
4.2265625,0.725868854221474,-0.4450997099196333
4.23046875,1.3196995335210737,-1.1139535474476379
4.234375,0.5402335919300024,0.05158408087467594
4.23828125,1.437586347313991,-1.7243040387554216
4.2421875,0.31857430231984707,-1.101103879110698
4.24609375,0.19309327454240266,-0.1314469660620766
4.25,-0.5615890558912092,0.07397147553101448
4.25390625,-0.12887551199400205,-1.8176316966974255
4.2578125,-0.4257316439821329,-1.0672572609671485
4.26171875,0.12314121292857896,0.8225774420935787
4.265625,0.27154688007212396,-0.7195274834775492
4.26953125,-0.12319282493908759,-1.1142316130440995
4.2734375,0.17787247706187292,-0.25640690207030703
4.27734375,-0.7306857012438096,-0.7292695129693223
4.28125,1.1033724311350044,0.20613964629832596
4.28515625,-1.2156555431914426,1.2006576167907275
4.2890625,0.8388685510534828,-0.10257924983686631
4.29296875,0.3948543047048175,-0.7422851722965956
4.296875,-1.1363116735924994,-0.33247900764413973
4.30078125,1.0688112388477176,0.14997778284167715
4.3046875,-0.7590682889845,1.3275703729473092
4.30859375,-0.8360382933915492,0.21921883597666061
4.3125,-0.9581458683058196,-0.18855403751744299
4.31640625,0.6250333890382199,-0.4764123697400968
4.3203125,-0.12214315662495766,-1.141232542420645
4.32421875,-0.1287434573485053,0.49013007672306574
4.328125,1.4034643662051536,0.12781404228591792
4.33203125,-0.16547093290069712,1.0928261164693116
4.3359375,-0.12770600895701564,-0.9108111874842258
4.33984375,-0.22524991078770912,0.15247321240908396
4.34375,0.3330486957335977,0.38208518805640385
4.34765625,1.3513646583664958,-0.7174218573414923
4.3515625,-0.6553952615253075,-1.2259675643867807
4.35546875,0.8529001984257703,0.6697549015748089
4.359375,-0.6682004156495088,1.2290149232525407
4.36328125,0.4923701596008468,-1.762105525210875
4.3671875,0.6499417658895092,0.144400204231449
4.37109375,-0.15772022615437833,2.427220067429994
4.375,0.5981173359176508,0.8280460584830476
4.37890625,-0.6702263378380449,0.11851715234195255
4.3828125,-1.249603284468174,0.6123727291939639
4.38671875,-0.9645448787457828,0.520609864062878
4.390625,-1.965317884694751,0.6151369890289712
4.39453125,-0.790385634008466,2.8456690750872715
4.3984375,-2.4296398446051395,1.4078156255748593
4.40234375,0.7890800501381975,-1.252627058242286
4.40625,0.6500753547239099,-0.046667230320615455
4.41015625,-0.9210384705615573,0.34494898581815875
4.4140625,0.6392460134757807,-0.17778617500952582
4.41796875,-1.8086950189821063,0.25974123796096166
4.421875,1.6608061721845961,-1.522495038374447
4.42578125,-0.7482871462690327,0.44014884311465746
4.4296875,-0.5157684978070991,0.38194270619923515
4.43359375,-0.4654128269400072,0.6741107143193004
4.4375,-0.38260166093323533,0.9327855134746034
4.44140625,-0.45530568814122613,-0.16809267491850127
4.4453125,-0.07090260022877944,-1.0813341788388642
4.44921875,0.572157889302472,2.01284693405174
4.453125,0.956022651508657,0.46970227935484576
4.45703125,-0.1872187773591921,1.592098641165816
4.4609375,-0.6005985737493766,-0.4530900404933296
4.46484375,0.973208469632832,0.8196900643973607
4.46875,-0.15056775276508447,-0.7237131459951068
4.47265625,-0.3116374115815502,-0.8001055801457089
4.4765625,-0.4881198386019526,0.924495232997737
4.48046875,1.9736948128865648,0.009532866022703606
4.484375,-0.22701041030823949,1.2558064634139545
4.48828125,1.1792284037162741,2.0605120571900137
4.4921875,0.6865487563298945,1.1597954273535767
4.49609375,-1.2256787896361407,0.6630571021877386
4.5,0.9130401121968424,1.4089510070470215
4.50390625,0.49637234910498984,-0.5817632290662453
4.5078125,-2.051354426620243,0.016840555737135606
4.51171875,-2.07878572950859,-0.9654086201819096
4.515625,-0.4931133517170303,-0.5315256107126513
4.51953125,-0.08988886565931206,0.4278296267634468
4.5234375,-1.882536202598892,-0.5958190444797836
4.52734375,0.7844854178890311,1.3244284722545776
4.53125,0.8875771603884366,0.7438339994987383
4.53515625,0.6329488413169626,1.6104000840940658
4.5390625,-2.908264518823132,-0.5070131737580716
4.54296875,0.657023032828822,-0.3230451573352595
4.546875,-0.6559787129395095,1.6841175747126043
4.55078125,-0.47821676842708555,1.3901740218183167
4.5546875,-1.2232019234226756,0.029948352793811094
4.55859375,-0.5317725438289473,1.4385927073933698
4.5625,-0.5327981264818619,0.16446900425986752
4.56640625,-0.28998016651535347,-0.9956748660236943
4.5703125,-0.30909966051795335,0.1988515881777935
4.57421875,1.2272559937138612,-0.42616861957682506
4.578125,-2.1922880470717754,0.48600681338302393
4.58203125,-1.5141123535985241,-0.8101672732657199
4.5859375,0.19242405702620677,0.23026967440485915
4.58984375,-1.788896068856533,0.7290754710483366
4.59375,-0.21560023044925006,0.7420862928799552
4.59765625,0.35274329615338684,0.37276682047352894
4.6015625,-0.7863642343593429,-1.934089767136007
4.60546875,0.6181263655382793,-0.10219182661217217
4.609375,1.565306059338535,-0.558028681778087
4.61328125,-1.7654725519681227,1.3331680722571893
4.6171875,1.288310123932625,0.9859805020153504
4.62109375,0.2958132048417387,0.22922505269114601
4.625,0.8656038342658235,0.15305657787791202
4.62890625,-0.20335198551788208,-1.4365285085266835
4.6328125,0.7812262325303998,0.9364960015466187
4.63671875,0.5958458908011018,-1.6473158673170767
4.640625,-0.5772307866054228,-1.4867598521283891
4.64453125,-0.29563276922420134,1.983091565694697
4.6484375,-0.5388079966146572,0.03613778725167272
4.65234375,1.3301873108865445,-0.8657614609683468
4.65625,0.7579407975497982,-0.5624570512226218
4.66015625,-0.7213683858075985,-1.226872658270709
4.6640625,0.6985048381809743,0.06488544158211718
4.66796875,1.4149760683305745,1.1028594498272477
4.671875,0.4172826898642024,-0.009973473459183965
4.67578125,-0.8332790021476978,0.7801168626547298
4.6796875,-1.4250134780422332,-0.33185295386624786
4.68359375,-0.04261497690594968,0.4371230331438142
4.6875,-1.3473552778913795,0.9502355712281464
4.69140625,1.6776845773691864,1.398005313643114
4.6953125,0.3708960450182367,0.8007085675302051
4.69921875,0.3735731979437077,-0.04358189349298808
4.703125,1.088528392770534,-0.8152133285414911
4.70703125,1.4328119247504805,-0.5118620172953771
4.7109375,0.19229084616602984,0.5435634180755197
4.71484375,0.5124602168299929,1.2865397957237246
4.71875,-0.15074684179449097,0.32402386641219844
4.72265625,1.5392298410793326,-0.19449022505102181
4.7265625,0.11536901904056594,-0.2382618627308647
4.73046875,-0.6604459683239899,2.011851390107875
4.734375,2.2473221476564227,1.508200056445538
4.73828125,-0.6031535811592815,0.09705113101540258
4.7421875,0.2308380537623103,-1.4846589634283731
4.74609375,-1.4638609613113425,-0.7545130101762996
4.75,-1.5097006102753399,-0.12916590828071609
4.75390625,-0.028449796140257992,0.6304656535332032
4.7578125,0.6959207316783723,-1.1526478460695417
4.76171875,0.39717446130308126,-0.3274265248397339
4.765625,0.23651342401943115,-0.807000542512618
4.76953125,-0.225749153409279,0.46231346467500495
4.7734375,1.494438543166416,-0.4354115698502005
4.77734375,-0.632148122400732,1.177206964084437
4.78125,0.7922881463882148,-1.07335125249332
4.78515625,-0.755864401607465,1.2285434020515353
4.7890625,0.31088690510280714,-2.6461377942405786
4.79296875,0.9310228476439457,-0.4403115769415121
4.796875,-1.1835882199982894,-0.05783096720158085
4.80078125,-1.0435006703945118,2.4613781478362777
4.8046875,-0.09345963981868563,0.8795579145081471
4.80859375,0.3986085618936531,0.846864433868253
4.8125,0.8929951741975467,1.7702814328062904
4.81640625,-0.027462597834473416,0.1683940184378001
4.8203125,-0.9717631777853928,0.45956769959595234
4.82421875,-0.11922845782637022,-1.6546418945563124
4.828125,-1.2026964973063958,-1.6014352201301658
4.83203125,-0.40729789834435004,-0.27125497509080043
4.8359375,-1.9427931735181627,-1.0953550769800282
4.83984375,1.2539199404064303,-0.9295041707536763
4.84375,-0.7029316382648938,-0.8758374851809148
4.84765625,-0.957796616992637,0.47723404124219126
4.8515625,-1.4194607780299853,-0.8165475965847635
4.85546875,1.0075859506900307,1.1120506991869143
4.859375,-1.2315470175750995,0.6140491979697511
4.86328125,-0.746731497252007,0.7492826359067205
4.8671875,0.20164823664710418,0.07036315679106026
4.87109375,0.29665743112274146,-0.6848853907181452
4.875,0.9427563081665846,-0.10471444696339176
4.87890625,1.2797852495166524,0.5552027319872214
4.8828125,-1.111173344493031,-1.5215273302955223
4.88671875,-0.9479417829556608,-0.15313021804726967
4.890625,0.010127772722623812,-0.7852369947280624
4.89453125,-0.21676659904489318,0.5582576713403621
4.8984375,0.2824917748404119,1.536390557137647
4.90234375,-0.9118281974935,1.9755225557507863
4.90625,0.19709500769441265,0.6318597524530527
4.91015625,1.152908452908949,0.26928457109519366
4.9140625,-1.6868286534128245,0.36023549696149737
4.91796875,1.3725085754908821,-0.16665353087635917
4.921875,-0.8981033744914424,0.2358450273968383
4.92578125,-2.5321428523097045,1.4428469379927238
4.9296875,0.5739608164182458,-0.8940023413672599
4.93359375,-0.3408172664048841,0.8609545409584742
4.9375,-0.9221671519184294,-0.6189414042578969
4.94140625,-0.39394770773457244,0.5599108554850598
4.9453125,-0.2922129695214174,0.20187937084675975
4.94921875,-0.2692158562008298,0.2824054655392712
4.953125,-0.5606909513907273,-0.2803463411862039
4.95703125,-0.33010973034748037,-0.5581629097713569
4.9609375,1.571662024280127,0.15934345313914336
4.96484375,0.16054238127247739,0.9231898851706404
4.96875,0.3757292408317302,-0.36573917969515474
4.97265625,1.8497110501268024,-1.7064971899296655
4.9765625,2.1566172192872064,-0.9479362174730404
4.98046875,0.6983526842419742,0.4140594068059854
4.984375,-0.27596533980774857,-0.3949220643645478
4.98828125,-1.5653422941200363,0.38596332390105814
4.9921875,1.3449963339808224,-0.5807446284903066
4.99609375,1.1542959603408685,-0.9912641537274762
5.0,0.5178131090735709,-1.3436857475192037
5.00390625,-1.6231765734423096,0.9614559739337716
5.0078125,-1.4671832457573208,1.463298589350025
5.01171875,-1.1566729315356938,-1.549410880395067
5.015625,0.15537821859381146,-0.5233839191475244
5.01953125,-1.2056106589928908,-0.6766765395885376
5.0234375,1.4531093108473334,-0.8502680200112016
5.02734375,1.6106251751936485,1.7507496345600406
5.03125,0.3442137268348656,-1.121657853583751
5.03515625,0.4549748033108667,0.9896319126394711
5.0390625,-0.6328920529518358,-1.7572366454344333
5.04296875,1.2768559247679798,-1.7342749511673123
5.046875,-0.015557319912023181,-1.297952774249501
5.05078125,0.7705794657922992,0.8094042250248908
5.0546875,1.0025393835934682,0.034095303884501126
5.05859375,-0.5002214695836603,-1.3197529948864895
5.0625,0.9494835816685661,0.8613869211903603
5.06640625,0.20202459810239942,0.3675940898924901
5.0703125,0.052330984417165556,-0.8451982777791814
5.07421875,0.024983752863352093,-0.7862386470150355
5.078125,-1.0404276058797788,0.08078760939127856
5.08203125,-0.9385192415181766,-1.3844282685027975
5.0859375,-0.48328995501507693,-0.3930123621552017
5.08984375,-0.20109035833404865,-0.2098518898747416
5.09375,1.2179141462022587,0.14028910270911008
5.09765625,2.0266877276801627,1.649267090985903
5.1015625,-0.2517951009130956,-1.939726800750878
5.10546875,-0.9039113515169573,0.1744830606368647
5.109375,1.6199450064941716,-1.2911838263739315
5.11328125,1.0025898094358072,0.5528008332408896
5.1171875,-0.8636891927933871,-0.659393733326253
5.12109375,-0.5278680188850557,-0.8673303557569975
5.125,0.25047479771567877,-1.501258067010523
5.12890625,-1.0925526974816617,0.21689385063838798
5.1328125,-0.0037168592212144416,-0.4541653371268763
5.13671875,-0.9607906903003848,1.4054342041164778
5.140625,-0.09024453386566188,-1.651213965481474
5.14453125,-0.24524400357068815,-0.640178539119019
5.1484375,1.6073721236303204,-0.9348275133816842
5.15234375,0.3311938055416492,-0.6795270376370874
5.15625,-0.00622881159963856,-0.22273664866671122
5.16015625,0.3341860621702485,0.1277238381861253
5.1640625,-0.09651463195479336,1.6490734088308159
5.16796875,-1.5160382392649758,-0.1035676758576368
5.171875,0.19535147675593714,-0.14696847009656125
5.17578125,0.4379402751394594,0.5459268390307093
5.1796875,-1.3893007202972225,-0.3464796714886093
5.18359375,0.42974472887599513,-0.2259554045783338
5.1875,1.5032221194996882,1.8317394841359178
5.19140625,0.12573319738912478,0.5785089367995918
5.1953125,0.7386864265169393,0.9340385044251996
5.19921875,0.8471462396052041,-0.9734617692311404
5.203125,1.4793792701179989,0.7418982253344826
5.20703125,-1.300044076817845,0.5694073266711516
5.2109375,0.3892581083093974,1.5945636017375615
5.21484375,0.19195812078415353,1.0796233975143676
5.21875,-0.9336941266402853,0.47489746334217553
5.22265625,0.7582915495048558,-0.08683271263207125
5.2265625,0.42630511979911784,-0.07391614294606935
5.23046875,1.7511384336507405,0.16553497842426523
5.234375,-0.056626925452168984,-0.935275265286323
5.23828125,-0.5119342816595417,0.08181428126511811
5.2421875,1.199196978837039,0.8203170543467762
5.24609375,-0.04712540416193091,0.49187889423677195
5.25,0.4685628152976215,0.719095111042167
5.25390625,-1.1199758215291733,-0.795906157239101
5.2578125,0.3033586748145197,0.4912099090003649
5.26171875,-0.7713994974098803,-0.8607082218365985
5.265625,-0.09475763958860321,0.35001171236912654
5.26953125,-1.2596082441841452,0.6337318362172779
5.2734375,0.30847538046064904,-0.21084009584751326
5.27734375,-1.0269014874130276,-1.4969001604451155
5.28125,2.0274818890248785,0.016364916155376743
5.28515625,0.6682462970511497,-0.5865395385426769
5.2890625,1.879895323204091,-0.01324266325869398
5.29296875,-0.610072102619675,0.6875825430415226
5.296875,0.6476738496762275,-2.6453980311940697
5.30078125,-1.2819517919698795,0.30717958243369725
5.3046875,0.26402567199660426,0.2844630185123804
5.30859375,-1.020610175558219,1.0557959780600896
5.3125,-1.0051101970884813,-0.051806199473017664
5.31640625,-0.5275081098299085,0.28342941843405955
5.3203125,-0.16992992709831065,0.7638028882074389
5.32421875,0.003862021723352621,0.8627821908472776
5.328125,1.200661480810836,1.1282896056748923
5.33203125,1.3524433894956696,-0.07187584349495832
5.3359375,-1.2574541673711197,1.0421837804313836
5.33984375,-0.38154992084967093,-0.2756405331633097
5.34375,0.5180182397137844,-1.1838312041080001
5.34765625,-0.8638079922769892,-1.3211586151497772
5.3515625,-0.9678888332817012,-0.3771005135459906
5.35546875,0.19351148160261972,1.726455762879183
5.359375,0.23509920753604177,-1.425712329290009
5.36328125,-0.38124933499357405,-2.034379256531752
5.3671875,-1.4089870446822383,0.8066936919830149
5.37109375,-2.1098756728038355,0.0265693665149723
5.375,1.0394938769455713,0.8903419200801759
5.37890625,-0.6612928315533432,0.8551578100449251
5.3828125,-0.3689707553357149,-2.0012055861670714
5.38671875,1.1463557801547575,0.6045821434137822
5.390625,-0.0594460682157297,-0.10253671643806196
5.39453125,0.33151334970878715,0.5349663243513192
5.3984375,-0.5072284692837787,-0.8109713910888877
5.40234375,0.8212940343430771,-2.592983606111542
5.40625,1.4901116535046293,-2.273131805551315
5.41015625,-1.0044735414337773,-0.07772439309730628
5.4140625,0.6134328363951516,0.036833025595253525
5.41796875,-0.3787923805384363,-0.825086735391849
5.421875,-0.1111445695358231,-1.0400068506272204
5.42578125,-1.8689376307688195,0.7770864608495689
5.4296875,-1.5166289887006916,-0.9100029794133523
5.43359375,0.6201872068466563,-1.1809105534385091
5.4375,-2.0673852918783164,-0.8935005219257514
5.44140625,1.054429823417449,-0.4371595174731005
5.4453125,0.08136772482625536,-2.4674698309653693
5.44921875,1.1063470632390284,-0.8826452024424427
5.453125,-0.6939254685455271,-1.4296281674101932
5.45703125,-1.9336695226738485,0.3324978607101225
5.4609375,0.5854859028724858,-0.668464386389511
5.46484375,0.7599244257277776,1.6449252634830571
5.46875,0.026047940788269833,-0.3890326109918149
5.47265625,1.6603007544957376,-0.7976575762918354
5.4765625,-2.24038464826909,0.4758262824239145
5.48046875,1.1429885595963893,1.9996906078790009
5.484375,-1.7672422329816162,-1.3856993976657717
5.48828125,-0.6264729068764037,0.6317215397868008
5.4921875,0.6317166852955642,0.022104497931577205
5.49609375,-0.08565944452705174,-1.0582480225815376
5.5,0.8461779595098337,-0.2480722921120093
5.50390625,-0.1158053887569975,1.6379933499525197
5.5078125,0.490441442529868,-0.1824012300869418
5.51171875,-0.7606067185298696,0.14758719467017173
5.515625,-0.5436348845500004,-0.45418746305063495
5.51953125,0.6470445805916839,0.386832766714177
5.5234375,0.3882473798053143,-1.1775622979547384
5.52734375,0.5605256568878708,1.3728122399222724
5.53125,-1.4005441475962648,0.620228219789612
5.53515625,-2.853136320971248,-0.24795370781600104
5.5390625,0.12665766350337673,-0.7955580582640461
5.54296875,-0.3398596553331162,-0.7763518751980425
5.546875,-1.2198053577845143,1.962386784462148
5.55078125,-0.9916536037628548,0.096678645956806
5.5546875,1.6194159980912386,-0.05099571305554866
5.55859375,0.13539383378353795,-0.1260329026051288
5.5625,-1.4487054829183148,0.16517095494814815
5.56640625,-0.07031279205991862,1.1204443366347827
5.5703125,0.9944654493615998,-1.83333583429152
5.57421875,0.16749771791828477,-0.8372091208518061
5.578125,0.32270770473069704,-0.6054144673749686
5.58203125,-0.18200832871780398,2.7132135884161785
5.5859375,0.16837475150337303,-0.7959474655751125
5.58984375,-1.179071176802299,-0.35369539529819444
5.59375,2.0418763422284236,1.2382403435554772
5.59765625,0.19666774875069218,-0.35682665640265704
5.6015625,-0.18060745011483953,1.1727180872436553
5.60546875,-1.36381993275855,-0.6350443179002451
5.609375,-0.7631923011742443,2.90482919801587
5.61328125,-0.9695852442676216,-1.2176300331994034
5.6171875,-0.5546376139267483,0.19929656551886846
5.62109375,0.7719927454466368,-0.5691304319702053
5.625,0.7603115108851536,-0.8462553230513666
5.62890625,-0.5612550593496771,-0.11169761902218087
5.6328125,-0.14018611697804834,0.15060887503348813
5.63671875,0.5730376299893478,-1.0059542767601197
5.640625,-0.05218752877420287,0.36712852685299135
5.64453125,-0.9082020266420936,0.7134372376382778
5.6484375,0.4846265763920763,-0.6901291798902862
5.65234375,-0.4217130652235352,-0.288179866678492
5.65625,0.21093102041131961,1.7425404361032109
5.66015625,-0.9670445034834816,1.7822424733530633
5.6640625,-0.2049507497163193,0.26571111547989235
5.66796875,-1.5449908475694902,-0.75089924689079
5.671875,-1.2915414661442561,-0.21933566743719027
5.67578125,0.8320449014347064,-1.323673865565127
5.6796875,-1.6915766496742772,-1.1024236145380062
5.68359375,0.3277384765967042,0.07375178166821701
5.6875,0.9301625153806228,-0.9678459532523811
5.69140625,-0.23688957914849568,0.23631709481768345
5.6953125,-0.008345100582735293,-1.0790485237993666
5.69921875,0.06451408463084649,1.9721256770958981
5.703125,-1.2043461451439925,0.7247971654034784
5.70703125,2.0315569061150422,0.11124949954196642
5.7109375,-0.5474615771712901,-0.9671512537943383
5.71484375,-0.3871354749346232,-0.6401574071510912
5.71875,0.5253843973360222,1.2631589326189285
5.72265625,1.227444005985074,0.17649691396410033
5.7265625,1.0267896474627307,0.672576496484724
5.73046875,-0.4545851602694345,0.21215119703574933
5.734375,-1.147573120183236,-0.9519598987654299
5.73828125,-0.6614137340734776,1.2492410583925109
5.7421875,0.6314339042206938,0.34723726550652406
5.74609375,-0.1980224925598245,0.16470766593002376
5.75,1.2713096737188774,1.6348950543925134
5.75390625,0.17831299291408995,-0.1678153835160928
5.7578125,0.6993265222700615,0.09712316619190395
5.76171875,-0.5648230683639892,-0.23711389464203722
5.765625,-0.15362232045214771,-0.5626589642761086
5.76953125,-1.3685797169332834,-0.10471394972676398
5.7734375,-1.1424713263832,-0.5486470789053057
5.77734375,0.7660027417845042,0.5158918266178351
5.78125,1.0474720441356447,-0.4162823017681344
5.78515625,-1.0365148801814352,0.5519324369165695
5.7890625,-1.6556101588105052,1.3592011364420125
5.79296875,0.3730868042938823,-1.9930687800567763
5.796875,1.4507985357141069,0.3584350743338578
5.80078125,1.4299315249658748,1.7535758000033779
5.8046875,-0.861950647925237,0.2727105377280062
5.80859375,-0.015941179218078978,0.20162356054397376
5.8125,-0.9861282289315545,-0.3249163754605121
5.81640625,0.11719543921337743,-0.25042667006154473
5.8203125,0.8393016447325956,-1.4815993381735573
5.82421875,-0.5264729128423176,0.03666930725798684
5.828125,0.9443924839232151,-1.1304433780302718
5.83203125,0.22427708672190003,0.26571909281569445
5.8359375,0.15950307639858144,-0.2616269744884545
5.83984375,-0.9492772610701764,0.6942718753374346
5.84375,2.317182752544275,-0.7492604036085149
5.84765625,0.019328802167625773,0.6037844689046307
5.8515625,-0.6049092057176063,1.2628925157277648
5.85546875,-0.2723731690145439,0.2479908625905109
5.859375,-1.8534936267217486,-0.9108481383212342
5.86328125,-2.103679854401989,-0.27809956520131757
5.8671875,-0.5244193515879036,-1.3325588523221528
5.87109375,-0.7275254068881647,-0.16748197966832393
5.875,-1.3218694222258158,1.429579228242716
5.87890625,-1.1309822036629225,1.0415305796912881
5.8828125,0.7006032691663207,-0.7497635486057344
5.88671875,-0.6589853165100857,-1.7954372987139726
5.890625,0.0869818909949406,-1.1359673775352777
5.89453125,1.3510662815146484,0.022999613869402503
5.8984375,0.033201058072409945,-0.5231781765968143
5.90234375,-0.1979941713242051,-2.1039851911085403
5.90625,0.5106347614970951,-1.2025447817537336
5.91015625,1.4329340112273397,1.1060826564527775
5.9140625,-0.8451359118828933,0.7716767917313999
5.91796875,-0.5950363034871647,0.04361503125716847
5.921875,0.3138874223225369,0.2509024153201426
5.92578125,0.3060882624704079,1.6450632261153308
5.9296875,-1.3605319963858546,-0.013870733022613234
5.93359375,0.4572612731393751,-0.4819233113142468
5.9375,0.025383438714195197,1.143164871665488
5.94140625,-0.3524576694029865,0.9327535664141317
5.9453125,-0.6068681844927886,-0.9636816683590345
5.94921875,-1.731123570675175,0.6065267868564012
5.953125,0.6391988992736383,1.829314447948497
5.95703125,1.3796986686233548,-1.6523400016038787
5.9609375,-0.32231922262822094,0.0354125831643717
5.96484375,0.9779626718184283,1.13284958944302
5.96875,0.6350792610395727,-1.605774911231146
5.97265625,-0.5527648045030322,-0.28285377056322675
5.9765625,-1.9346010928490918,-0.026100278830787655
5.98046875,0.30140052479365603,0.044607168370589034
5.984375,-0.949678293816364,0.5165937709560048
5.98828125,-0.8312613850028586,2.0493206870951024
5.9921875,0.897395748650707,-0.41923942572718154
5.99609375,-0.38060255601754667,1.9636912647984786
6.0,-0.26868781371703127,0.7177573212854153
6.00390625,-1.9897523452511716,1.0202076321588978
6.0078125,-0.7891550382522105,-0.7134564146509373
6.01171875,1.970020822368148,-0.8487915327763944
6.015625,1.3209274069186674,0.4138950095819598
6.01953125,0.028301737978010496,-1.213102099746242
6.0234375,-0.46826979745520964,0.03598932065377161
6.02734375,0.5497945440622491,-0.7412463586976534
6.03125,-1.0472250032375305,-0.4351660016906823
6.03515625,-1.2702210303068635,-0.9486351983363751
6.0390625,1.12318911983012,-0.8821444103458047
6.04296875,-1.0381536367852935,-0.7931558522986146
6.046875,0.283319357402017,-1.0185963168518966
6.05078125,0.2677560331670386,-1.6957387645148456
6.0546875,0.48333206000879403,0.2615083264755539
6.05859375,0.15875507731253105,2.480148021273054
6.0625,0.6707843542275416,0.0921349455436023
6.06640625,0.09660952280516866,-0.849974662336055
6.0703125,-0.32914998465853607,0.6200495792571662
6.07421875,0.08245233725888414,0.598190888367193
6.078125,-0.10375072895687017,-0.5158022721572367
6.08203125,1.2981577988877253,0.18351951177471215
6.0859375,-1.225042475439149,-2.3875010590311563
6.08984375,-1.3369515970779458,0.9262927123016479
6.09375,-0.7104255871352969,-0.16305306770270497
6.09765625,-0.48554431693831124,0.5244125859133274
6.1015625,0.6473104504467451,1.155868623954207
6.10546875,-1.7378990706344466,0.1683872313117451
6.109375,-2.0155210825113494,1.0352761548197749
6.11328125,-0.4323645814234052,0.7971675070132151
6.1171875,0.3027877035969889,0.5607781799273767
6.12109375,-0.9782297930553723,-0.22491837812277485
6.125,-1.7628952198151322,0.9824812514012559
6.12890625,0.6055182832062024,-1.3151120146632747
6.1328125,1.6023632609968799,1.8998990003148024
6.13671875,-1.0105071022351357,0.43639326921426436
6.140625,-0.02073381019588906,0.7544161332308457
6.14453125,-0.020803572279092075,-1.6718141279675696
6.1484375,0.4066751295473297,0.31405730580578595
6.15234375,0.7939245336642048,0.812617475714842
6.15625,-1.2071847361203116,-2.6524102356870967
6.16015625,-0.9276549093982535,-0.7416740571175032
6.1640625,2.519207692474488,0.7078917785916577
6.16796875,-0.45598211527036486,-0.5677349502571963
6.171875,-0.317709925690777,-2.0887644721621035
6.17578125,-0.39013097283533604,-0.8247410551737653
6.1796875,1.3244639352956027,-0.5925154035681343
6.18359375,0.9879711263343931,1.248228665775824
6.1875,-1.348317808945642,-0.9064443321826242
6.19140625,0.5037116217544068,-0.18036678780515453
6.1953125,1.8461946246700018,1.4416172552464976
6.19921875,-0.4317245148769199,-0.13268152087643867
6.203125,-0.23458942279865083,-0.39282514285315795
6.20703125,-0.12039033916837505,0.1868358333948311
6.2109375,-0.05849404252653806,0.7472990745210164
6.21484375,0.41719357320687384,0.4512005747377866
6.21875,-1.4215184169449513,2.3307882300059903
6.22265625,-0.9203161901593613,0.9036015200111107
6.2265625,-0.001053090760246345,0.048171449479217435
6.23046875,0.32742600308668485,-0.0867786720492296
6.234375,0.10582479134984275,0.19690318720721814
6.23828125,-0.693398431472757,0.06019403399443865
6.2421875,0.1437377863428702,0.9446750485096487
6.24609375,-0.77356947539642,-0.2135584310579902
6.25,0.32034276003407847,0.1342465669232681
6.25390625,0.16313510958127617,-0.3098765719027603
6.2578125,0.4490669789977999,-0.3408655975103869
6.26171875,-0.011682821438103064,-1.3941746943858473
6.265625,-1.4385447141720809,0.5366428929877121
6.26953125,1.16827068717415,1.130976237123681
6.2734375,-0.35904176675994554,0.05130372292918818
6.27734375,-0.44654606594005086,-1.3634462916477572
6.28125,0.8276886659011794,1.4601386106758794
6.28515625,0.8811567901520112,-0.1594509359891623
6.2890625,1.4049347706445507,-0.7944335073965809
6.29296875,-0.7211593933130713,0.9289671752142674
6.296875,0.9810803441723687,-0.5805621105365223
6.30078125,0.1856404438377853,0.28900342284960684
6.3046875,1.0055846867844973,-0.07679653139535723
6.30859375,-0.6106398320230596,1.2290706768065758
6.3125,-1.5255456274639956,-1.6131513122583214
6.31640625,-0.15329742971160773,-0.34517407925005006
6.3203125,0.5927231576845252,0.34268399579694614
6.32421875,0.13121317750905231,-1.9858694356195852
6.328125,0.7232263791792024,-0.9614577664370259
6.33203125,-0.281215842166535,-1.4067312168490689
6.3359375,-1.0623181640552124,1.0684535490308087
6.33984375,0.2374988690225463,-0.7512638898758376
6.34375,0.5234542585528935,0.9951779374673827
6.34765625,-0.2542337829541541,0.10562704853054788
6.3515625,0.9536269417706675,-0.4688590052127086
6.35546875,-1.8456777657746166,0.5344321902753827
6.359375,-1.0979705453229875,-1.6080591250915626
6.36328125,-0.31789075132175537,0.43184198661843926
6.3671875,-0.63416683370947,0.7910984976476341
6.37109375,2.068163424990433,-0.8630454760694537
6.375,2.1075511091976122,1.9789030902958207
6.37890625,-1.0979781902430124,0.15445909155390647
6.3828125,0.8027953522897958,0.9999435029922826
6.38671875,-1.5304282411537322,0.1655389679154526
6.390625,-0.23992152982053477,0.7739513238614131
6.39453125,-0.9263229026584537,1.6571810576736274
6.3984375,0.17754324054597087,-0.009290832270103492
6.40234375,-1.8799990804636042,0.7910822276789736
6.40625,0.5635716323756838,0.11981804177703585
6.41015625,0.32039936541994235,-0.4652857202596694
6.4140625,-0.7264931874550575,-0.3194222372647094
6.41796875,0.5287159664518258,-0.626346347078238
6.421875,0.8942280902104903,-0.36430550170393866
6.42578125,-1.0347004827273898,0.19957778975292398
6.4296875,-0.2905489392901725,0.5623523013743192
6.43359375,0.3450732912429182,0.8005247980880646
6.4375,-0.20133055884272036,0.18941919068261334
6.44140625,2.1929895111164495,-0.5887314511231999
6.4453125,-1.0488148742942682,0.5570506496675404
6.44921875,1.3753122610446054,0.555940900814627
6.453125,0.21296523222701907,1.9756136911244055
6.45703125,2.453279388166723,0.16671916946293608
6.4609375,-0.03491717267901707,-0.5624474488315454
6.46484375,0.24170359308550549,0.3840059817324518
6.46875,0.9171306358467854,-2.0516422412106685
6.47265625,-1.8658198810542632,-0.1447968735309939
6.4765625,-0.2443349591035505,-0.7589169052985609
6.48046875,-0.04218525151369738,-1.6297322719804703
6.484375,0.36442053386723583,0.22720098248947052
6.48828125,1.3259481071889574,-0.6541634059821437
6.4921875,-0.8983742175008123,-0.24313245028975702
6.49609375,0.29541177274466457,-0.23039476765916575
6.5,0.1650753966926738,0.5210378816853773
6.50390625,-0.8513003708019581,1.5984559699517382
6.5078125,0.27626990533338414,-0.33086052011758516
6.51171875,-0.9539235472183424,0.42601365386152196
6.515625,-0.44111021347498947,0.9159535959931501
6.51953125,1.0185114973267393,1.808983148679002
6.5234375,-0.9431315595833877,0.15832514836697484
6.52734375,0.6528912504569787,1.7766645931799565
6.53125,-0.21130303589463056,-1.077709882229427
6.53515625,-0.06970949181271117,-0.055654591431103115
6.5390625,-0.5750204778176948,-0.14889498271441703
6.54296875,-0.2274948406860105,1.0832102697683874
6.546875,1.2290944578877774,0.9648121596320188
6.55078125,-0.6950210800237618,0.3211178918314404
6.5546875,0.7085221022116585,-0.6361892642291865
6.55859375,-1.5645620100020323,0.24676779105406788
6.5625,-0.5413021310150884,2.108952025797033
6.56640625,0.8366147635551393,0.3260252055384359
6.5703125,-0.18274235555690735,0.4470997168590498
6.57421875,-1.049860157405213,-1.5742601363672613
6.578125,-0.4148468668698748,-0.3140053621597306
6.58203125,0.6883367847456454,-0.04602324767914914
6.5859375,0.09145682414654807,-0.009638837161231897
6.58984375,-1.5813952716268416,0.850845608727321
6.59375,-1.3372257565221992,0.7807258592926929
6.59765625,2.1230048257341796,1.1707530415704226
6.6015625,0.5716093002395262,0.35761677526209995
6.60546875,0.6364344180462467,0.9547532707325953
6.609375,0.0333495899492853,1.3998220736317224
6.61328125,-0.18488212926951977,-0.8062759169697519
6.6171875,-0.06869890032354821,-0.6970204352090292
6.62109375,-0.4337947532438268,1.48606286639401
6.625,-0.42458671114486674,0.3322511723968982
6.62890625,1.1873719786871344,-0.2711163022451249
6.6328125,0.20099204057525855,1.4648587304786211
6.63671875,0.6293219228069341,-0.5317540434676394
6.640625,-0.5499336066097313,-0.5088201243723022
6.64453125,0.3708005264349307,0.15401009950784283
6.6484375,-1.8148414890437667,-0.11773448321660071
6.65234375,-2.351735830302893,-1.3892547612392674
6.65625,0.27670723790196855,0.8584154243497604
6.66015625,-0.5866775442823506,-1.4876536948125623
6.6640625,0.8983780324008728,-0.2288214220796
6.66796875,2.0936510490305507,0.9185787224648142
6.671875,-0.478877867856422,0.6475346642531775
6.67578125,1.0834445615887092,-0.5349585853780422
6.6796875,-1.654367991810503,0.8793379433558933
6.68359375,-1.2354500325034412,1.2408979205708797
6.6875,-1.9098094478701038,-0.9150626148988423
6.69140625,-0.29167440228573116,-1.7538831384056524
6.6953125,1.604673538643689,1.5351862889187657
6.69921875,-0.8826632873781847,1.659451076946161
6.703125,1.05280719731924,0.04421869850080933
6.70703125,1.1353598756501648,0.14266049965549205
6.7109375,-0.11211673597285884,-0.448607368248594
6.71484375,0.42241096618644836,-1.9489343134273842
6.71875,1.3665914049588053,-0.3267843839546471
6.72265625,0.5744019562419331,0.42039748147720746
6.7265625,0.39390097991836315,-0.9634790635655186
6.73046875,-0.5947958644948318,0.1356868924608465
6.734375,0.42446309098628954,2.5971117703219586
6.73828125,-0.7982878352334237,-0.3889286053262193
6.7421875,0.8376821343227439,-0.051038957584924056
6.74609375,0.5751696354356272,0.8692911501379962
6.75,-0.8101538832836409,0.3031429302895923
6.75390625,-0.6381049728920811,-0.5552340994578825
6.7578125,-0.6142225643365605,0.5242551812872558
6.76171875,0.8853669604401515,-1.5662340189093036
6.765625,-0.9801266185407015,0.7125077118759178
6.76953125,0.4506451410462675,1.095209065023595
6.7734375,1.9652227589599465,0.35400900864142565
6.77734375,0.5410516835005842,0.8957310359275863
6.78125,0.4861675641012288,-1.6789288981030672
6.78515625,0.19900502938618134,1.0673508552292532
6.7890625,0.912346236977915,-1.8951019132284581
6.79296875,0.02049444659917254,-0.38258968728479836
6.796875,-1.0425993172641501,-1.1294577296084776
6.80078125,0.9683643180989664,0.6923483179470071
6.8046875,0.36297612016087716,-0.1869806821324077
6.80859375,-0.08376581937196086,1.4283178765987952
6.8125,0.05881866360785933,1.427295445926168
6.81640625,1.017160037740431,-0.7820511021515392
6.8203125,-0.20922038440566376,-0.3906430259809088
6.82421875,0.27138550337178025,0.6383779034522973
6.828125,-0.11947425263811921,-0.36062155182937056
6.83203125,0.058552229013973965,-0.1657820997558815
6.8359375,1.2763782641804775,0.4771514521843422
6.83984375,0.6822395406375995,0.8619940450415915
6.84375,0.21143005150159946,1.133277052190697
6.84765625,-0.572385599435695,-1.051675966036903
6.8515625,1.3206071710826113,1.2751952495656782
6.85546875,-0.7378001732961383,-2.1787753751276284
6.859375,0.7089275941865969,-0.3673912221115483
6.86328125,-0.2369787772833463,0.15790842962595503
6.8671875,-0.14442379437283723,-0.019508497188457624
6.87109375,-0.6776206865890778,-0.6464123155587466
6.875,1.4270589200911605,0.09080426493707801
6.87890625,0.7317503581691158,0.04280249602429081
6.8828125,-0.2240659001513577,1.119382240073901
6.88671875,0.1082191259206809,0.633982654564381
6.890625,-0.37007184515941977,-0.6243453259684361
6.89453125,0.7343240674592275,0.7806136572799695
6.8984375,0.3298755371976843,0.6643307365335064
6.90234375,-0.6234898168224872,0.059132730223777234
6.90625,-1.9563222884315317,-0.4305934960404371
6.91015625,1.3662985141933999,1.2163818839981242
6.9140625,0.6569111987442328,-0.5743800194675652
6.91796875,0.16160432392988644,1.0739559755702497
6.921875,0.35804769538650427,0.5332357797193379
6.92578125,0.4738892176079939,2.5152730273183113
6.9296875,0.7868153310296395,2.18962765823503
6.93359375,-2.0520451663061796,-3.3984716127774512
6.9375,0.6759800947599133,0.23553043248143254
6.94140625,2.116284973109827,-0.6218061057246416
6.9453125,-0.2102302885589368,0.4337056147454117
6.94921875,-0.39010148178386245,-1.6041771539053407
6.953125,-0.6667123245913423,0.06605396057484723
6.95703125,1.2051793224621856,2.453981589910982
6.9609375,0.315185220546943,-2.817381749584437
6.96484375,1.0742299816515055,0.6833535893357391
6.96875,-0.011599968532841296,-1.4335981696183222
6.97265625,-1.8820405917482999,0.7221150882606943
6.9765625,-1.1700715728344473,-1.6695798242872515
6.98046875,2.5209813219879162,0.47015432726771833
6.984375,0.3629079746595696,-0.6439775899565388
6.98828125,-2.418898289384997,0.38357544739200367
6.9921875,-1.294629637164196,-0.4839644732686351
6.99609375,-1.2644397236447915,0.5174776976764659
7.0,-0.8630432377566257,-0.47728907731675824
7.00390625,-0.5624552251693884,-0.11749909174863254
7.0078125,-0.0002885363029901027,0.19249791949314413
7.01171875,1.9172975582545118,0.45811633503000193
7.015625,-1.2116414745571609,-0.2900435145251544
7.01953125,-1.703190857224397,1.4587266485608914
7.0234375,-1.315370559852693,0.4696083936380244
7.02734375,0.8526944361219211,-3.1902452215196138
7.03125,-0.45059909793958824,0.032637614768339825
7.03515625,-0.3810978365699103,-0.7140065034265579
7.0390625,-0.7019492694474812,0.4219254694506458
7.04296875,0.11703273933781162,0.5050131265240709
7.046875,1.1193397160391165,-0.7193577343669431
7.05078125,-0.7813031998392411,-0.17074291393512503
7.0546875,0.011335399228195438,0.7794697872666395
7.05859375,-0.20534062537741882,-1.9333529606914033
7.0625,-0.32138657707459817,0.6420155378991782
7.06640625,-0.35720753280537165,-0.3665258253771311
7.0703125,2.7029398896300405,-0.7967497674564021
7.07421875,0.34932100496569074,1.4505978943350468
7.078125,-0.722138100382607,-0.7566091101767339
7.08203125,0.6965107117319418,-0.2360152802835108
7.0859375,0.9512091809036558,1.675290069574181
7.08984375,-0.08685748145201866,0.4721002074550942
7.09375,-0.5715201621419328,-1.1663154799410764
7.09765625,0.4944480853039422,1.7860089537230035
7.1015625,-1.7697017007397673,-0.31622580405668393
7.10546875,0.8917704760896243,1.1846637970472587
7.109375,-0.46958922971653877,-0.5038953722741502
7.11328125,-1.0254537652974918,1.4113132938156268
7.1171875,1.705740114176737,0.7113220736133402
7.12109375,1.2204271140871665,-1.4858590649354382
7.125,-0.16691105320564653,1.3604378285136673
7.12890625,-1.2998566479716982,-0.4691009416110357
7.1328125,0.6785695230609895,0.6236116330032103
7.13671875,-0.6153035828661091,-0.5451369450717646
7.140625,-0.5759627863685124,-0.6299737363722743
7.14453125,0.12388338018537745,1.1042929841366258
7.1484375,0.39651489913819016,-1.8190197063476352
7.15234375,-0.0757148110333748,0.8576702267844922
7.15625,-0.5399094249844656,-0.8981059884623095
7.16015625,-1.1698035325522156,-0.0916717153168482
7.1640625,0.2819065202885054,-0.4790200747663317
7.16796875,-1.0536154054252087,0.39774175903319364
7.171875,0.970296782724941,-0.40139599174901297
7.17578125,-0.6049373569426661,-1.2332449850090943
7.1796875,-0.057061267118362284,0.27652901820678705
7.18359375,1.6591283699886021,0.10437579815215921
7.1875,0.5742131236907055,-0.7807105755172006
7.19140625,1.0973381084391445,-1.042905711345488
7.1953125,0.9438437342170559,0.6652176788837023
7.19921875,1.0558991059331282,-0.3188001583756866
7.203125,1.2656702002351239,0.5579670310562189
7.20703125,1.0725899815340179,0.5609621255520145
7.2109375,0.9175381618698327,-0.791628529702468
7.21484375,0.3767251339219677,1.408288583631915
7.21875,-0.2905101497480386,-0.09643266967121362
7.22265625,1.8152794814871835,0.08511744769156587
7.2265625,-0.934544262564409,0.15509967417685355
7.23046875,0.32377061306595756,-1.7664662145510175
7.234375,-1.3445893195798224,0.4670479631214914
7.23828125,-1.8526491205881261,-0.9236641693933959
7.2421875,0.05045781337196258,-1.220467949865546
7.24609375,-1.439546674418309,0.839627985527189
7.25,-0.6514909035042543,-1.3024925022334706
7.25390625,0.6755284664649285,0.6756262710361465
7.2578125,-0.5592327202822946,1.2725999401955104
7.26171875,2.3074994723409263,-1.6900116634946165
7.265625,1.8445887183678797,1.2266101210344118
7.26953125,0.1411465759370639,-0.3897225707842683
7.2734375,-0.9386687366475172,2.4598324099730715
7.27734375,0.45248415334492603,-0.6373135575935375
7.28125,-1.220918692028709,0.9562382819685554
7.28515625,-1.9930281945909132,-0.5266049578781655
7.2890625,-0.5681540211298605,-0.2440030378186826
7.29296875,2.6894607110729103,0.5357116478895968
7.296875,0.15294590883954237,-0.32364964432309445
7.30078125,-0.7629694079002777,0.949244938533571
7.3046875,0.28003950117533605,0.08783682402378278
7.30859375,-0.10347851898927149,-0.4214090490825765
7.3125,1.4549675832529803,-0.7452639988674631
7.31640625,1.6464338786842578,1.4058140291198948
7.3203125,0.03404853770343322,-0.6559339550652676
7.32421875,0.1780574382326367,0.8494099724763889
7.328125,-0.9183509334662201,-1.7192378127046626
7.33203125,0.0759526663939496,-0.5978963836242267
7.3359375,0.7897017904302506,-0.11652073198603642
7.33984375,-0.7721676498601473,-0.555817744206185
7.34375,-0.9359031805642035,-0.27246934719351307
7.34765625,0.5912865980438747,-0.9105547984515409
7.3515625,-1.0689313540335943,-0.36553042003213304
7.35546875,0.2547139409639483,0.7689085257496472
7.359375,-0.6288547800076701,-0.7166580516873732
7.36328125,0.748052315916468,-1.1001582044469949
7.3671875,0.2239260723508629,-0.39281214098269823
7.37109375,-0.1545809466775885,0.06423209418651775
7.375,-1.4555980719755743,0.47344083168196915
7.37890625,0.2044676552737881,-0.6441872458100444
7.3828125,0.02751337836857428,0.03916474459895252
7.38671875,-0.21292428286936926,-0.16557950639228844
7.390625,0.5649462879164324,-1.5836744570136494
7.39453125,0.40557922854181155,-0.6912766249644011
7.3984375,0.20445992481119882,0.5651435219534847
7.40234375,1.4297992160181678,-1.1108149727729912
7.40625,0.4855046422935491,0.6312831935564809
7.41015625,0.3016574633680152,0.5416774484897477
7.4140625,0.7201011561395334,1.6252779905409365
7.41796875,0.2953300622075437,-1.253426681286745
7.421875,-1.4912093621597418,0.43519015767683217
7.42578125,-0.5248108434981393,-1.0939957378122103
7.4296875,1.107173722870696,0.043736464536062544
7.43359375,-1.5390679483921157,-0.32062658029563934
7.4375,0.7466777059504803,-0.7103637051463516
7.44140625,0.9946503666765262,0.5125899960467012
7.4453125,-0.6080016263583116,-0.6061983261213626
7.44921875,-0.35202539711625674,1.6884740130575293
7.453125,-0.34548099878562744,1.1898918303566928
7.45703125,-0.8958581711799282,-0.797785368722351
7.4609375,1.196049183214177,-1.672575961261776
7.46484375,1.0563030460818639,1.8403490997078034
7.46875,-2.1476233888369216,0.6340508899846827
7.47265625,-1.249618239809848,-0.9510763042243893
7.4765625,-1.022844984672797,0.5202584130599895
7.48046875,0.4474264019977868,-0.9059188791505332
7.484375,-0.83243046930732,-1.0980391396387814
7.48828125,-0.017313464028245216,-1.3214066373001887
7.4921875,0.23734992353298204,-0.0485054564026932
7.49609375,1.1209264092045956,-0.5186290576302123
7.5,0.907024989859103,-0.830483347566405
7.50390625,0.9248831355764675,-0.6472536556542096
7.5078125,0.03271551760222929,0.2885664010876232
7.51171875,-0.745538489245309,0.7542573534162806
7.515625,0.5851727330377006,-0.08784420061075816
7.51953125,-0.4979149267717056,0.35635003888522165
7.5234375,1.068315726037233,-0.018081687270754605
7.52734375,-0.3897746197862599,-0.402812153734771
7.53125,1.2135813714525192,-0.2542973041167846
7.53515625,-2.0856163972043964,0.21821335673125905
7.5390625,-0.2123142906792249,-0.4732648782169339
7.54296875,-0.9370838575231372,0.05733471307834058
7.546875,-1.5628496848991655,-0.7804633434782936
7.55078125,0.9812991365178451,-0.6685182622725901
7.5546875,1.0810455074232854,1.0095729431459801
7.55859375,-0.6193464420992207,0.49025754551859513
7.5625,-0.5934568694201006,-0.6305086212361651
7.56640625,-0.43227207524803946,0.34181289871460524
7.5703125,0.5515244227732329,-1.0686925838654582
7.57421875,-0.05949257998471907,0.2970638379201364
7.578125,-1.1094291956385276,-0.3714586259544536
7.58203125,0.4530576021866971,1.2446698423046014
7.5859375,0.7702311353368734,-0.6191967985889829
7.58984375,1.459671979560793,1.325937545889661
7.59375,0.32600170492077957,-1.779380528374679
7.59765625,-2.3041371158133055,0.941169732929588
7.6015625,-0.41642824467402534,1.6936189227126774
7.60546875,0.058682483156629286,-2.3816310870993966
7.609375,-0.3600251181881738,0.2183351609559363
7.61328125,-1.2376477236588992,0.4886670915182215
7.6171875,-0.03719021030087574,0.7452527883622057
7.62109375,-0.1329277992962293,0.08885832466597098
7.625,-0.5161355435683811,1.0751048607997016
7.62890625,0.4599890321779801,-0.6117659288071491
7.6328125,-1.3738427779676865,1.931007389175196
7.63671875,0.24893994283902815,1.0418603079700386
7.640625,-0.9919614246553434,1.3733632459291818
7.64453125,0.20346924831114274,-0.2591382682252518
7.6484375,0.4929443038012995,-1.462624423330264
7.65234375,-0.27969711816665677,0.7772848077005549
7.65625,0.9510408240574109,0.6182166967869105
7.66015625,-1.2892094195763897,1.653810613330453
7.6640625,0.4709780688104771,-0.8538969004230519
7.66796875,0.7061358448975988,-0.3508302294245576
7.671875,-1.3251637568680183,0.5221260818419768
7.67578125,-0.9632768683252397,-1.547726002178595
7.6796875,-1.0535435049806154,0.5885158361758571
7.68359375,1.269695910192953,0.3707816201037649
7.6875,0.7374522102401694,-0.254956417857233
7.69140625,-0.4829517490899298,0.3396561482399815
7.6953125,-0.26191050541573874,-1.3198980848839472
7.69921875,-2.498680443390108,1.4456199600792596
7.703125,-1.1346559744861089,-0.778673009353593
7.70703125,-0.13031739062179018,0.22746881037644745
7.7109375,0.37076682944262496,-0.7233526848120643
7.71484375,1.2503834697270368,-0.018859760668749507
7.71875,-0.43392822066275166,-0.4932033531713353
7.72265625,0.9962997639045468,1.483197242956545
7.7265625,-1.6329187432979706,1.0204089154886389
7.73046875,-3.5126249253950514,0.9381541673841325
7.734375,0.5243487763356157,1.0198800961089958
7.73828125,-0.936287529553988,0.9821729749503669
7.7421875,-1.5545629096731346,-1.2284733789872695
7.74609375,-0.5449368882256864,0.7107538907591529
7.75,-0.24896778840687606,-1.250927760481409
7.75390625,0.3092383092264776,0.4829022884879093
7.7578125,-0.21549238438163776,2.3159324845063947
7.76171875,-0.32464222638817125,-0.6396663281052627
7.765625,-0.5733431955691698,1.9661778161421146
7.76953125,-0.7415052901426169,-0.04090563580616325
7.7734375,-0.19699009954127075,1.5540253326894031
7.77734375,0.06937929303016584,-0.2608587833949812
7.78125,-0.054988926162572525,-0.1664968131684533
7.78515625,1.0223762694403011,-0.4221545792979542
7.7890625,-1.3300287189265267,0.9933281455128479
7.79296875,0.6352836338332614,-0.179412676454931
7.796875,1.2379272610706287,-0.5507361017428463
7.80078125,-1.0942829397718783,0.7893645654899148
7.8046875,-0.4304950794389694,-0.6334970458020751
7.80859375,-0.7220491850986046,0.40891236324854685
7.8125,-1.668982112950326,-0.28651821849891634
7.81640625,-0.6025104332635789,-0.47681055762809105
7.8203125,1.0039492401695311,0.4741662535518827
7.82421875,-0.5780452768525799,-1.6374744830986012
7.828125,1.3616873581970628,0.9224408949379455
7.83203125,0.17321891375695792,-0.5555782845077446
7.8359375,0.7724747429184969,-0.9578639002969668
7.83984375,-0.7884042960410272,-1.8518592031569925
7.84375,0.2697318768270809,-0.6588333598256831
7.84765625,0.9924527802152017,-1.280051858083445
7.8515625,0.6417657461171518,-0.09007269998376273
7.85546875,-0.777686291702419,1.564706913659131
7.859375,0.8600841621435792,-0.7747557259397125
7.86328125,0.006023955215749139,0.1389615111927015
7.8671875,-2.315833799394689,-1.2394125258378497
7.87109375,8.021754474280732e-05,-1.149123625900322
7.875,-0.6002340734825441,-0.04754334840906117
7.87890625,1.2320677477308877,-1.5151681113454183
7.8828125,2.3598809884900347,-1.3655123968570608
7.88671875,-0.3635607337537681,-0.20925039603145124
7.890625,0.16059621842942423,0.6939237009529671
7.89453125,0.489020043264525,0.8279891412576269
7.8984375,-0.2678203753496663,0.006805941622730462
7.90234375,1.1659843094184523,2.0356906814167335
7.90625,0.09060395177072918,-0.24343127247128354
7.91015625,-0.28571658369569547,0.6440884957417409
7.9140625,-1.3248799208428956,-0.32705682694244614
7.91796875,-0.4432568386667762,-1.3984837079624086
7.921875,-0.6096910552655734,0.42992295078517456
7.92578125,-1.7508184951185728,1.0050648970297307
7.9296875,-0.07805127498116987,-0.1361576330720148
7.93359375,-0.9255850992570143,-1.6357791516939297
7.9375,-0.7918249046771298,-0.140191238021148
7.94140625,-0.87232477138738,0.2617918069429477
7.9453125,0.34262239206277584,-1.0042371087320172
7.94921875,0.5458291243165698,1.8928535388511327
7.953125,1.9419572528720004,-1.0651660736118975
7.95703125,-0.4636990939804217,1.566848312018048
7.9609375,-0.3094171113452239,-0.16142823026974962
7.96484375,-0.9382307671431664,0.06196869645759711
7.96875,-1.3630877569923463,0.0075291742517524405
7.97265625,0.9443647804771363,-1.857353797677226
7.9765625,1.1705102711626902,0.46688940963904224
7.98046875,-0.9323772396827122,-0.8964302394601134
7.984375,1.452924203162396,0.2648149301858081
7.98828125,0.9519149943595147,0.6398508466946687
7.9921875,-2.3595883424033226,-1.585779704055421
7.99609375,1.2727724536833926,0.25028922519490193
8.0,-0.9774798947353635,-0.911058954834969
8.00390625,0.3092712333504363,-0.6721697954414838
8.0078125,0.619015327999614,0.1440639089526194
8.01171875,0.4635943383138716,-0.8682712066690057
8.015625,1.0781555956055318,-0.5557797092680353
8.01953125,-0.1308484426301906,-0.7068460253979706
8.0234375,0.18976700369472327,1.4453211173010714
8.02734375,-0.9593550096476213,0.006226200210557948
8.03125,-0.37348453171723406,0.892505599267682
8.03515625,-0.742229463074976,0.20395300909327876
8.0390625,-0.41962206574541744,1.7781751815128821
8.04296875,0.21011490000847136,-0.0473954341801014
8.046875,1.5953364232740905,-0.5790302115760844
8.05078125,0.06764722732006719,1.9037729342107734
8.0546875,1.5088007420408696,-0.27625763619500626
8.05859375,1.294706447092314,-1.7120510558907729
8.0625,-1.1078018649641748,1.540315218349021
8.06640625,-0.6844471935747399,0.543579192136042
8.0703125,1.7360803670848313,1.129283375908898
8.07421875,1.0994087572402975,-1.134480912211511
8.078125,-0.2929842244150548,0.839219821800783
8.08203125,0.13787905607676756,1.2546306259650892
8.0859375,-0.08448825225044007,1.626532659995889
8.08984375,-1.2969468752825188,-0.1657187420185034
8.09375,0.4882888370619512,-0.6905255479793801
8.09765625,-1.853487353457576,0.28053666545124933
8.1015625,0.9746797552729792,-0.1342717974695083
8.10546875,-0.2716223121090032,-1.5868112124128444
8.109375,-0.19681613227946862,0.9124899807274984
8.11328125,0.06471602294205726,-1.5188542520131347
8.1171875,0.43200463645165266,-0.29582896475223536
8.12109375,0.19538814194415166,0.3056711248975204
8.125,-1.574065636508023,-0.2530525250292312
8.12890625,1.1043137914193075,-0.7336250912798437
8.1328125,1.3875749403613227,-0.5943031292091239
8.13671875,-0.6602619554472031,0.26586088558922544
8.140625,1.5438695120751071,0.2840958636969121
8.14453125,1.1162470418069848,0.6268116382073612
8.1484375,-0.06087807500015918,2.1222426480830343
8.15234375,1.2263367193843415,-0.8496292365524674
8.15625,-1.401845731605118,0.9335259610177277
8.16015625,0.3547081045591424,0.5574897790180043
8.1640625,0.22850289024344056,-1.442823516826632
8.16796875,0.6735128424035693,0.44407816157387325
8.171875,0.5864020758268872,-0.6773499683485293
8.17578125,2.080569928035599,1.5228095256303296
8.1796875,0.7089975669864602,1.1668013204814724
8.18359375,-0.5558197633204653,0.939814607477329
8.1875,1.9239834301567897,0.16164946861663945
8.19140625,-0.18434531931698092,2.30497967015622
8.1953125,0.3168156097643043,0.44126505029628427
8.19921875,-0.6330512223127635,-0.0965437614051806
8.203125,0.8796018963305158,1.123238567842815
8.20703125,-0.25038116036333435,-0.9803795144476226
8.2109375,-1.973684783870821,-0.2732693737544855
8.21484375,1.256978093270787,2.334934461586606
8.21875,0.3803853856204014,-1.4333240752591612
8.22265625,0.09939197698992668,-0.8299597143446411
8.2265625,-0.5924097083105185,0.21645421464781703
8.23046875,-1.2117385575414243,0.9521377017510257
8.234375,0.15751715090059779,-0.6069318216591298
8.23828125,-0.1839331039205849,0.13290942016678936
8.2421875,-1.4429446518385647,0.18964141151312655
8.24609375,-0.5362900037320224,1.5070445182932244
8.25,-0.8999282702912343,1.5440754576343372
8.25390625,0.48227379943420456,-0.16907300884823523
8.2578125,-1.1797639955012678,0.18799468104643335
8.26171875,-1.996893208646805,-1.8243590040738278
8.265625,-2.330947939592508,-1.5037317584867063
8.26953125,-0.6412510530548685,-1.105892135705465
8.2734375,0.2930249256346505,-0.16873673750071858
8.27734375,-0.05967855403650213,1.047013295083252
8.28125,-0.2543669511680319,0.04239854068602418
8.28515625,-1.5196144966164626,0.8596253993814456
8.2890625,1.2293089071567183,-0.8164051361564548
8.29296875,-0.8343131217563549,-0.3901377945114271
8.296875,0.6120713408318604,-0.6028910534951845
8.30078125,0.23211999325814142,0.6801971150624623
8.3046875,-0.7025172954604808,-0.42944591149995653
8.30859375,0.09440825488993947,0.5682016411984913
8.3125,-1.520827894838152,0.02223933531364142
8.31640625,-0.353123371947457,0.507919878088005
8.3203125,-0.5489279753410959,0.41352366009398384
8.32421875,-1.183001854505975,-0.3741646056976983
8.328125,-0.5395857214677724,-1.0293123636598605
8.33203125,-1.3920613938847357,0.8798380958146702
8.3359375,-0.2530285033284115,1.1504228541599517
8.33984375,-0.5953622721857037,-0.4661506810187346
8.34375,-1.1526869191958717,-0.5860600704903579
8.34765625,0.0016462471005651695,1.4433180846468505
8.3515625,2.1906029028020213,0.3532030061754654
8.35546875,-0.4602984231780426,0.1789435269398173
8.359375,-0.2588999649087533,-1.1966113633349977
8.36328125,1.1549515325057955,1.4597126941589238
8.3671875,3.1651688131667175,-0.22667661287871815
8.37109375,-0.43656970039093046,0.8462217992619104
8.375,0.5939897600970611,-0.38624547790490416
8.37890625,-0.6393125902412752,-0.8224598229529987
8.3828125,-0.6350306720835611,0.21970066015506803
8.38671875,-0.25439125173812616,0.3189624457976327
8.390625,0.10490436545487439,2.6705442345620183
8.39453125,0.20822066883002055,-0.22053256283584732
8.3984375,-0.43108953108268716,0.5008820515523111
8.40234375,1.565554270228803,-0.3674784573274839
8.40625,-0.453151389714606,0.08339861462451284
8.41015625,0.9665617607604746,-0.6628058094706957
8.4140625,-1.191780387101316,0.4460232774583535
8.41796875,1.7062780008680272,-0.25375952680141006
8.421875,-1.1971549928916325,-0.2075933114079482
8.42578125,-0.6306875347423077,-1.845735875223462
8.4296875,2.1323574379847514,-0.1793783982631141
8.43359375,-0.637688962594696,-0.5262450962832176
8.4375,-0.023596514357150055,0.7502879771173521
8.44140625,-0.2271200642244783,-0.3268556422010915
8.4453125,-1.3796595054739915,-0.13257562218049065
8.44921875,-0.46997495386933136,-0.284926643532584
8.453125,-1.8540911743036137,-0.8982088424482496
8.45703125,-0.7615021620617015,-1.1309389547772413
8.4609375,-0.07424118612800666,0.03242437259961924
8.46484375,1.123748979830027,1.0464825429254592
8.46875,0.45161186252171603,-0.09910127207251734
8.47265625,0.2221588001549122,0.865189970144526
8.4765625,0.6300233689116367,1.3097592879154936
8.48046875,-0.2673621642544486,0.8183639188463165
8.484375,-1.0193061785818442,-0.9719914492251828
8.48828125,-0.03666385184781431,-0.34863359659604287
8.4921875,0.4818781069925036,-0.5472120091883368
8.49609375,-0.32473379033244604,-0.9747792885470403
8.5,-0.5569459903958639,-1.1687232785483441
8.50390625,1.0637947825490321,0.14934464493981311
8.5078125,-0.008640134471688536,0.6013464335504173
8.51171875,-0.301623682223048,-0.38576268352462934
8.515625,0.25001969400487806,1.4268864736605322
8.51953125,1.4072033518907723,0.3598249678533681
8.5234375,-1.502099082684057,-0.9957707934690141
8.52734375,0.1004120869889352,0.467208417678489
8.53125,-0.36087429138503413,-0.2847329757453865
8.53515625,-0.12471885893675212,1.4481736012183972
8.5390625,1.0301741169325291,0.613838593574791
8.54296875,-0.6346262247639521,0.25614421573788126
8.546875,-0.5699673743635977,-0.5064744363679521
8.55078125,2.1446701660196164,0.5079119586977167
8.5546875,-0.8991182518856763,0.05411024724254748
8.55859375,-0.7759034439591148,-1.6036948720988509
8.5625,-0.3704317052205631,0.8526744275949972
8.56640625,-0.21077238942001902,0.37156066961895434
8.5703125,1.5269929378528855,-0.03920094620762097
8.57421875,1.0820996062480297,-1.3643153353743322
8.578125,-1.1230147094752165,-1.4337916599660165
8.58203125,-0.030926296550455215,-0.5416198860962178
8.5859375,0.4451975971428486,-3.24676096558456
8.58984375,0.852970389996376,1.004472663981333
8.59375,0.8123410086588368,-0.7618661980211188
8.59765625,-0.1990464149822477,0.4396377809655754
8.6015625,-1.400197504477696,-0.10783350036192338
8.60546875,1.696125403301496,1.033859571539783
8.609375,0.18352868694337054,0.12078129089258333
8.61328125,2.5186313956326702,-1.9675402786655274
8.6171875,-1.4709574549010924,0.6931780083148203
8.62109375,0.8686619974332026,1.3775121041720042
8.625,2.383475193652685,-2.2208110599430677
8.62890625,1.0740153290059993,0.8345341920323516
8.6328125,-1.351474807309435,1.966560207837876
8.63671875,-0.07184260068834264,-0.4943834798103004
8.640625,-2.120917856764456,-0.9447755438530051
8.64453125,0.6532206309199923,-1.077675785599505
8.6484375,0.48884965398700025,-0.35714218475572407
8.65234375,1.0607900205344936,0.022164512515500653
8.65625,1.3405621997702182,0.28556809388181886
8.66015625,1.1345987225444498,0.5739290187667984
8.6640625,0.1333048658908009,-1.0600222120818807
8.66796875,-0.45518585183151106,0.6027670450067583
8.671875,-1.1075788648102505,1.4485938150656943
8.67578125,1.749157021898029,0.71375060227276
8.6796875,-0.33079965606921213,-0.008578365696923555
8.68359375,0.5687221276500091,-0.06907136265710544
8.6875,0.8486643841371759,0.23622932006098302
8.69140625,0.15778797455529334,-0.6109099308107429
8.6953125,-0.9891724204163937,1.2818800049953072
8.69921875,0.4851648079701691,-0.31359869537249135
8.703125,-1.0592064980278708,-1.958970645735396
8.70703125,-0.18494819482426103,0.08388598287325881
8.7109375,-1.1533372277959824,0.5104169145221906
8.71484375,0.4091281942614157,0.4288898319848097
8.71875,0.7548487737243683,-1.216573050277399
8.72265625,0.08526536582716014,1.3792697163674448
8.7265625,-2.304312645727599,1.213976898093172
8.73046875,0.3496273942027549,0.2706522828158186
8.734375,-0.4116826082417586,-0.819157443997838
8.73828125,1.890840484647953,-0.40220599503550686
8.7421875,-0.5866777044377024,-1.0436361569280717
8.74609375,0.8524200534281725,-0.2961144534082559
8.75,0.8966878180904333,-0.14057768530838752
8.75390625,0.8031232142500987,0.18058977287224887
8.7578125,0.2503261233574137,0.35963245115081194
8.76171875,-0.6923793701679479,-0.5506751502128252
8.765625,1.7975712500625973,1.5487618084518828
8.76953125,0.9609864571552589,0.21481924242221553
8.7734375,0.344601488994317,-0.7428172390727932
8.77734375,-0.24579065323706484,1.0378386154685535
8.78125,0.22958593691485607,-2.052845909364424
8.78515625,2.6456819989608977,-0.9534452392352007
8.7890625,-0.9687068894207767,-0.10513693334183082
8.79296875,2.042719439463419,-0.2007484821849234
8.796875,0.8460646838604693,-0.6248634642246612
8.80078125,-1.573899016995014,-0.6648936354486454
8.8046875,-1.5118051359846947,0.9222322995688184
8.80859375,1.1232371176197096,0.8119750766288796
8.8125,-0.5161753116257041,-1.9618811938669967
8.81640625,0.8230217681930961,-0.2393383933047268
8.8203125,0.032318583297624257,1.8753043684768995
8.82421875,-0.9534595916439067,-0.8498808299280212
8.828125,-0.8539427339420871,0.036079310001602465
8.83203125,1.152342565288782,0.06469613761640411
8.8359375,-1.1577741945704696,-0.4967036193750972
8.83984375,1.0046564853570545,-1.8216691796331632
8.84375,1.1809467135680467,-1.286487015327706
8.84765625,0.05140946148424453,0.3600290760516342
8.8515625,-0.403901510442136,1.4478035395607878
8.85546875,-0.6179438723789665,0.2331800191353458
8.859375,0.5216513299229394,-0.031298556721190154
8.86328125,-0.17518069640507744,0.8942667221859264
8.8671875,0.811985219833166,1.7423087334822391
8.87109375,-2.4084874839663644,-0.8738059618571707
8.875,-1.4313996313075543,1.1065384352152468
8.87890625,-0.17724546882256384,-2.05992270160779
8.8828125,-0.7701346557550911,1.5737476330138322
8.88671875,-1.613401716166153,1.0262526065758113
8.890625,-0.734512740570855,0.07814413996861941
8.89453125,2.6737022961834094,0.091219323347354
8.8984375,-0.13012988037648807,-0.3235028994673213
8.90234375,-0.6960621208959794,0.8231452685676167
8.90625,0.02534517054617222,-1.7504717749428114
8.91015625,-2.2964288683626304,1.7299941927692872
8.9140625,-1.103447342878022,-0.6836387744502908
8.91796875,-0.3755495617546944,1.0063288442101188
8.921875,-0.4069678554606783,0.4402339260821184
8.92578125,-1.4733907976261011,-0.447538377117752
8.9296875,-0.712278460494625,0.21132493550547043
8.93359375,-0.06698267026305717,1.627565489192326
8.9375,-0.32264457989891615,2.4676081290114213
8.94140625,0.01903746819703681,-0.30618350144383766
8.9453125,0.13430847536878607,0.43712416394648157
8.94921875,-0.4341312374887703,0.4068519061177047
8.953125,1.7055310933364332,-0.46310055116718163
8.95703125,-0.9517927434521167,-1.8040538149049519
8.9609375,-0.46294531284298696,-0.13119654346337456
8.96484375,0.9159574161873705,-1.6727570967490522
8.96875,-2.0149941523489963,0.011331668693453055
8.97265625,-1.4101985953826,0.05674653484365056
8.9765625,-0.26385824039917877,0.9296341744509181
8.98046875,-0.41079248084075476,-0.2831168577475947
8.984375,0.7351671300481378,0.6158954791709774
8.98828125,-2.6681383288628764,-0.0853778245137421
8.9921875,0.5035250804524898,1.6086965235282424
8.99609375,0.8161942285538355,-1.4973348611819008
9.0,-0.19281681530748643,-0.9064239440315325
9.00390625,1.6248948978619238,1.0369479394779113
9.0078125,-1.551862203572882,-0.03661019916310057
9.01171875,0.7172713056999668,0.8714834668465689
9.015625,0.02497802061724148,1.1373761831472797
9.01953125,0.012208801437686264,-0.388864853930583
9.0234375,-2.2099721172552473,0.6475403493759825
9.02734375,0.9855399371737936,0.8780012827170957
9.03125,0.5815167790373602,-1.5372574656500395
9.03515625,-1.2820437600261394,0.8117374595713321
9.0390625,0.10264485457700039,1.5881533373282608
9.04296875,-0.3398796296282964,-0.4743496568996747
9.046875,-0.8442164406800777,0.6308786541499606
9.05078125,-0.2948862637744843,-0.004911362476778033
9.0546875,2.762410593335259,1.3114156546319675
9.05859375,0.5844884407523602,0.10744490708287589
9.0625,-1.882449434046463,-0.023107444421035676
9.06640625,-0.6640738215002949,0.8321957011622557
9.0703125,0.0699008736491224,0.5858135623748089
9.07421875,-0.07967524985866214,-0.09721235980743233
9.078125,0.5893350849599591,-1.5960186802466227
9.08203125,0.6748323100896138,1.1832914181038368
9.0859375,0.8096504940009774,0.2790099191677422
9.08984375,0.10232032565329585,-0.27938730645906856
9.09375,0.9393775343906233,0.5014901852022777
9.09765625,2.371756379688933,-0.2784908482454682
9.1015625,1.018084416410139,-1.5081585060837839
9.10546875,0.5840102817613846,1.02728681797822
9.109375,0.09352481877584651,-0.9785768851819903
9.11328125,-1.886105905663674,-0.7654699201168391
9.1171875,1.6218838060876446,1.190389838917774
9.12109375,-0.6556114630022444,2.063925712555934
9.125,0.5559419598174035,-0.20444444657148836
9.12890625,0.03305421904831823,-0.9301862839063318
9.1328125,-0.8217519555239368,-1.6979288665442331
9.13671875,-0.6215258728448585,-1.7703447737221552
9.140625,0.1811498467375641,1.2618234430812747
9.14453125,0.3348476484669705,0.5759948241237106
9.1484375,-0.018251111890573136,-0.9603728439171906
9.15234375,0.24946464634923232,-0.5887550479693072
9.15625,0.1103795269208936,-1.446959742330444
9.16015625,-0.8719920971476492,0.21431392648788422
9.1640625,1.2559462423066854,0.6955504730672223
9.16796875,0.7358046157882843,-0.6859155843930987
9.171875,-0.3821541997313677,-0.9647077121304024
9.17578125,-1.0713640178024115,-0.9958954785244575
9.1796875,0.6803761514501462,-1.4349343848003597
9.18359375,0.9385620500473159,0.12745436819649864
9.1875,0.15735970924361226,0.10973113529296911
9.19140625,0.550005939803648,2.1819688291151316
9.1953125,-1.4123215635234367,-1.8340377920651572
9.19921875,-0.5951167846036938,-0.23371500307998017
9.203125,-0.6416273400734687,1.1969462168657057
9.20703125,0.247231832661451,-0.4884528451290785
9.2109375,0.16115560339341709,-0.146874059844148
9.21484375,1.5950427905651243,-0.07944193621454108
9.21875,0.4324162438298141,1.9194278280957346
9.22265625,0.6452807574280556,-0.4648454875418689
9.2265625,-1.3743348468568786,-0.44483750733745153
9.23046875,0.020511779642530162,0.29436805239065467
9.234375,-0.6153306644781403,0.5410873715200597
9.23828125,-0.20724638323353314,0.5098361416533856
9.2421875,1.3408086723966932,0.02837119642585083
9.24609375,-1.387821605015729,-1.557520865023098
9.25,-1.1455177864146016,0.8874703265947556
9.25390625,0.9141593707078728,-0.027816606250692596
9.2578125,-0.6590169051449334,0.6117571134787402
9.26171875,0.3386126506543825,-0.8743892210973144
9.265625,0.10737304629152881,-1.7023380141090338
9.26953125,0.01619569535518911,-0.16569549330263492
9.2734375,0.039643408680720284,0.10004814983768508
9.27734375,0.7015224591862684,1.3511128466304676
9.28125,-1.0709106413802039,-1.1046191348132655
9.28515625,0.4263250909996132,0.07963962748276622
9.2890625,-1.1270863448886763,0.5432532786613962
9.29296875,-0.7211303823213077,0.40986324828075776
9.296875,-0.26504353707156225,0.1919081031112856
9.30078125,2.4272118979461164,-1.2433280472908665
9.3046875,-1.2968281652457103,0.4144205354763635
9.30859375,-0.07297497229570014,-0.05977395089346124
9.3125,-0.798969530315736,-1.114026660984633
9.31640625,1.2392823556535273,-0.5439042045107897
9.3203125,-0.2881637803274693,0.5996139771486775
9.32421875,1.3406976908222623,-2.763582471266608
9.328125,-0.43390555327757596,-0.35770085014110403
9.33203125,0.5790595480731802,1.1507221422727172
9.3359375,-1.142181570465212,0.6955991920698009
9.33984375,-0.13323597054480205,-0.14608548582977016
9.34375,-1.2623690022633383,0.6858104711133155
9.34765625,-0.7232380183119167,0.4718568598541989
9.3515625,-0.026495952839586192,-0.15280780592263618
9.35546875,1.3506215863232591,-1.0624988496763237
9.359375,-0.7773790798512854,0.5572196758297813
9.36328125,1.1437240577372205,-0.6836916398083895
9.3671875,-0.05223913821268518,0.0747376035100709
9.37109375,0.5409203153051411,0.4910352256075035
9.375,-1.8516054863251028,1.7028384846009723
9.37890625,-0.23251929668823235,-1.776230411103997
9.3828125,0.6947360072479601,0.2636559596570401
9.38671875,0.14274212599225525,0.9897698510851067
9.390625,0.35244024176795424,1.4268322984712334
9.39453125,-1.1345671707248293,-0.9271316001339526
9.3984375,-0.16889194372069827,-0.009615309946310973
9.40234375,1.3800953507623375,-1.2741092765754447
9.40625,-0.643817812154819,-0.7175897524399407
9.41015625,2.486404153980885,-1.4251155185913513
9.4140625,-0.8423122522634704,-0.5098847950109658
9.41796875,0.7463306236764059,0.9843295295000256
9.421875,2.395558726639989,1.9085040888137323
9.42578125,-1.3850960882524292,-2.1689454424268733
9.4296875,-0.9297075496414844,-1.2483773323555152
9.43359375,-1.0361267353328918,1.1938462520931081
9.4375,0.3408130362349769,0.49723615401511057
9.44140625,-1.8055088001252708,0.3181111121364776
9.4453125,0.2835524310262721,-0.9618016957880495
9.44921875,-1.521375956333906,-0.7368172115324083
9.453125,0.3071996923566584,-0.2944225037849649
9.45703125,-0.9768604705943559,0.7591347758830467
9.4609375,-1.4370758029907302,-0.46656657666277335
9.46484375,-1.217636099718249,0.45313630883594935
9.46875,0.6030394296204663,-0.7095789210676781
9.47265625,-2.313603149352098,-0.1736371416216089
9.4765625,-0.631121850984498,-1.0922273020027404
9.48046875,0.07397538234503574,-0.4739508423304734
9.484375,-0.17930448408804656,0.40003445064641513
9.48828125,0.20306875780743058,-0.5735172117659652
9.4921875,-0.29918689865871845,-1.5000254267968438
9.49609375,0.44249402587931863,-0.420640744720118
9.5,0.2884090323293373,-0.21185092987120957
9.50390625,-0.040572140077042525,0.5736955543452374
