time,ecg,ppg
0.0,-0.36677015421304954,-0.46005579958100595
0.00390625,1.7764151044100873,0.19216034759983236
0.0078125,-1.717397947526867,0.2624471549609858
0.01171875,0.14994960349815417,1.8217862464909724
0.015625,0.805804847673829,0.10683619840916049
0.01953125,1.338264144296578,-2.23702365399373
0.0234375,-0.42253946906483836,0.1390542117540526
0.02734375,-0.18933070157843668,-0.4514409563359454
0.03125,-0.9551779927010328,-0.6962281014277033
0.03515625,2.095222905862429,1.6677157138014795
0.0390625,-0.2572140331419226,-1.1611095300430572
0.04296875,1.2043173517197736,1.3522526425614148
0.046875,1.2254043407320323,-0.7831928294898429
0.05078125,-1.9315701886731003,-1.485277256357262
0.0546875,0.6040392374306904,0.37531316364056566
0.05859375,-0.568675833814472,0.3776023728196311
0.0625,0.7676745578284625,-0.8434222059872287
0.06640625,0.13243273589058063,-1.276846701975364
0.0703125,0.37573955276860227,-1.077237851949513
0.07421875,0.37723622409904434,-1.4308920233951832
0.078125,-0.10513933340121867,-0.435961189069
0.08203125,0.8684845984531597,-0.046363330771044146
0.0859375,0.2836585783040804,0.7396287394045952
0.08984375,-0.5066805496624534,0.09065725495225063
0.09375,-0.7537793393439471,-1.463389187482696
0.09765625,0.19980119844830593,0.6492250784034224
0.1015625,-0.349435367500617,-0.5518427933955515
0.10546875,0.9250264069077263,0.1593389496443456
0.109375,0.6056730068266195,1.5018994378625896
0.11328125,0.012650088882153916,0.36237519461217294
0.1171875,0.4716361098345114,-0.38620427517338035
0.12109375,-0.5018940092480221,-0.704391125941772
0.125,0.6674992250778483,1.0064051932555318
0.12890625,-0.6514318743692961,-0.20571363281426758
0.1328125,-1.1450452318374444,-0.8944630184050822
0.13671875,-0.504300392180379,1.4247875988912841
0.140625,0.5315079732711053,2.5862986957659886
0.14453125,-0.3277566448064636,-1.4048099304402155
0.1484375,-0.279416207716484,0.6533666273587627
0.15234375,-0.44714233569554673,0.09728521818002689
0.15625,0.3269123235387232,0.581209130849673
0.16015625,1.2636472817211317,-0.8866437070911527
0.1640625,-1.9219530157440534,-2.8766046192716472
0.16796875,0.0876493347608074,1.5332641014368196
0.171875,0.18245170822560913,0.3427653562883474
0.17578125,-0.06458040416569075,-2.239852021129731
0.1796875,-1.215728247038461,2.82693001778938
0.18359375,0.9324106018105053,0.1631664007232283
0.1875,0.30677955587663935,-0.07469323636786339
0.19140625,-1.5674510538848363,2.0399329203950423
0.1953125,-0.04804242565969864,0.28976806459946386
0.19921875,0.25219281477730093,0.5265593332423436
0.203125,1.1606299930600177,-1.2661168480853737
0.20703125,0.19559121691914738,-1.1170738735267347
0.2109375,-0.0754000687721162,-2.4148590036055118
0.21484375,0.1597712240643367,0.5661225379318248
0.21875,1.9424167071174736,-0.4876440153743152
0.22265625,0.16655408880813052,-0.8049563428329759
0.2265625,0.40551560781336643,-0.28638184510349823
0.23046875,-0.5391489573338665,1.1257251866314721
0.234375,-0.08069021413723627,1.212382195262992
0.23828125,0.08418439167044615,-1.0823800550430818
0.2421875,-0.1274909296730209,-0.036968131162145756
0.24609375,-1.4514603685523488,0.3530282947790696
0.25,0.34952210671122264,-0.41505412944915604
0.25390625,-0.18144678894754973,0.6784788083845862
0.2578125,0.2545087409207566,0.914813622228631
0.26171875,-1.3311132286356624,-0.1550834657682349
0.265625,0.7481357049043458,0.517330044738431
0.26953125,0.707246211772409,1.0912810144509617
0.2734375,0.16663856650417233,1.6552547301967762
0.27734375,0.4623050021557776,0.05454060593489925
0.28125,0.6006022391025134,1.284580855331115
0.28515625,1.1028590559809623,-0.23434219453236427
0.2890625,-0.28962166808444006,-0.9779940651356
0.29296875,0.14181777801583545,0.3871489283496561
0.296875,1.2647686499754889,-0.7287740414550299
0.30078125,0.4312060754762843,-1.3098429599683878
0.3046875,0.6362109268361267,-0.061322385766542566
0.30859375,0.9210703770667511,-0.6776695384243339
0.3125,1.1189874474382397,2.2602854760635243
0.31640625,2.3196584669706173,0.8644463950482836
0.3203125,-0.589000321206557,-0.9676244683604682
0.32421875,-0.07082663754501553,0.1138780818544401
0.328125,1.1482807017910226,0.19466973081640213
0.33203125,-0.2092765267134005,0.9580231757237716
0.3359375,0.12390356172273148,1.5463729394293406
0.33984375,-1.6010277403327513,1.711581007721868
0.34375,-0.34736340443488395,-0.0029482512710766883
0.34765625,1.3686666543173827,2.181847760523811
0.3515625,0.6720745995131,-1.716492797595709
0.35546875,1.7091865940603748,0.4778952617338287
0.359375,-0.11466944540187772,0.5254438784512231
0.36328125,0.5290976239057106,-0.4617829340792383
0.3671875,1.2177722170352039,-1.176236651565955
0.37109375,-0.9867761858788096,-0.6648574749859524
0.375,2.0971162574045112,1.1634691421745693
0.37890625,-0.23766046581879172,0.058545164459845776
0.3828125,-0.1405631928663553,-1.0976021429633547
0.38671875,0.378590128911739,0.7479042274753127
0.390625,0.10419546856173692,-0.8968256834009124
0.39453125,1.5864095309884017,1.2700735614546586
0.3984375,0.12200665437030725,-0.6643691270172055
0.40234375,-0.26510880943646964,-2.3299567611326544
0.40625,0.39477921156831164,-1.083540568678642
0.41015625,-0.6785663488413253,-0.5272346982649845
0.4140625,0.053240823475070295,-0.021179157920536335
0.41796875,-1.172510059182322,-1.574526173662446
0.421875,-1.1551738083897767,-0.7172684997328914
0.42578125,0.9687813728838244,-1.8665913785377628
0.4296875,0.21959849825773595,-0.7749882934434515
0.43359375,-0.42901567969260546,0.6893691006770426
0.4375,-1.6050547542757603,0.9524896069443903
0.44140625,-0.11023356562000776,0.6145469825170624
0.4453125,2.3558101609891953,-0.3773472150313067
0.44921875,-1.3700705415877767,2.0005757636770234
0.453125,-0.10026253359976489,0.2899790913716709
0.45703125,-0.048258721814677656,-0.6762188949821013
0.4609375,-1.991383803406714,-0.618771792045375
0.46484375,0.9144205698770532,-0.6803353324483382
0.46875,0.6613281775933365,1.7795492479576365
0.47265625,0.5383395815074553,0.00469083963244976
0.4765625,0.27581475997281185,0.7097538954689739
0.48046875,0.1489817800833952,1.0755657059451995
0.484375,-0.3182667139762634,-0.27316982276163293
0.48828125,1.6863564444973806,0.5762571027969696
0.4921875,1.242371212156206,-0.8478721697707091
0.49609375,0.4427429765501894,0.1370062869206929
0.5,1.4452552613501117,1.7177667359691409
0.50390625,-1.2457283591412016,-0.06869912573247904
0.5078125,0.8217232736250037,-0.41105611910348805
0.51171875,-0.909727540174584,-0.6054815694445648
0.515625,-0.9086543627839166,0.16309377037617148
0.51953125,1.0403720994820402,0.36232377490926193
0.5234375,-0.3388852663291428,0.09124148599425021
0.52734375,-0.06221736897788164,-0.6103005131139991
0.53125,1.1538520904668217,-0.59897030275906
0.53515625,-0.7065971475449176,1.037972079019181
0.5390625,-0.25267215252535125,1.3722950862944037
0.54296875,0.9877815151690732,-2.2608538565784904
0.546875,0.24026010413371982,-0.46125158138420624
0.55078125,-0.5135697867290009,-0.630657964257673
0.5546875,-2.0211362704529163,-1.7683565897113953
0.55859375,2.1212193766127583,1.2662438488411252
0.5625,2.520800817957015,-0.09915208378667668
0.56640625,-1.9558202569614382,-1.3400593936879297
0.5703125,-1.6069382924914712,-0.6088413176177423
0.57421875,-1.781502469853746,0.10179583150714655
0.578125,0.10145426101596715,-0.8077016813051052
0.58203125,1.2154250194143454,-0.6190849665798661
0.5859375,-0.30699411859904097,0.7542849942208064
0.58984375,-0.14559314788967895,-0.14631403680357916
0.59375,0.5692228328940816,-0.32850097078260193
0.59765625,-0.16280525998250586,0.805232915377355
0.6015625,0.7775946480566222,0.3338186494024734
0.60546875,-0.9362325414554608,0.25532601289315426
0.609375,-0.39213756636154945,0.45925660330864604
0.61328125,0.26141399895334183,0.019279533565643152
0.6171875,-0.28626021941038904,0.08287369940192732
0.62109375,-0.6291380816069361,0.6678674993307496
0.625,0.0479791498268548,-0.19194127079346207
0.62890625,0.9635049546026377,-1.3620990582153092
0.6328125,-1.0349242457709777,-0.02070897018860958
0.63671875,-0.43003170824919873,0.63259062118957
0.640625,0.29247679752337946,-0.08562125468914711
0.64453125,0.3494280772841858,-1.6208834083915256
0.6484375,0.5122861817642714,-1.7460136897070597
0.65234375,-0.30918788461658314,0.8863044314088712
0.65625,-0.4429703955546175,-0.25533325655548356
0.66015625,-0.4030606734685214,-0.6167660001662526
0.6640625,-0.803229132379964,-0.3598599374854365
0.66796875,-1.3179026173388206,1.074249302833098
0.671875,-0.07982874675438914,-0.09901366187514127
0.67578125,-0.27680531553740184,-0.3735526560105339
0.6796875,-0.07066813165683013,0.10048382667701145
0.68359375,-0.9841277319795912,-1.5064295442475395
0.6875,0.6124015840972478,-1.962151748395587
0.69140625,-1.945799239964714,1.9472929492729179
0.6953125,0.7381707389453297,-0.3645033061461401
0.69921875,1.7204850064865025,-0.3957263945374976
0.703125,-1.5369964750177076,0.029922207389533013
0.70703125,-0.14203711975845043,1.5798034969841532
0.7109375,-1.1353264264118084,-1.0458381129205603
0.71484375,0.5750968706139203,0.41079364601407065
0.71875,-0.937975527568546,0.8724399650548924
0.72265625,-0.8069417673530614,0.6755664367682457
0.7265625,-1.4215021070460738,-0.6130080208025097
0.73046875,-0.9191913943308262,0.4366560579906803
0.734375,-1.2314876801413632,0.5555171182196096
0.73828125,0.9860739712910578,-0.8646559606876798
0.7421875,-0.3806888658758703,-0.9789952625068165
0.74609375,-0.7253967103554205,1.2787126021113187
0.75,1.6730457365858153,-0.9017460151792428
0.75390625,-0.8723092932027241,-2.2050889070707713
0.7578125,0.4541005107001862,-0.5250987142119541
0.76171875,0.07561635842107162,0.40295511479091994
0.765625,-2.0095446017477983,-0.8688969036893707
0.76953125,1.0308781425329625,-0.9689612420381492
0.7734375,0.3668087007707317,0.08951202217347297
0.77734375,1.158870335553095,-0.16449687199158242
0.78125,0.8820092264649768,1.1479359974274945
0.78515625,-1.272047179268987,2.541461197385941
0.7890625,-1.6439389902708914,-0.2550284142016095
0.79296875,1.8048770077528793,0.5386124071652251
0.796875,-0.9308907986960172,-0.18492890320366817
0.80078125,0.7901040313072057,0.8809896017003941
0.8046875,-0.9067827831950563,-0.36543900130386314
0.80859375,-0.8732950257177207,-0.028586192408322855
0.8125,1.012589075071579,-0.7558830673846791
0.81640625,-1.1801080017482763,1.10287006493217
0.8203125,-0.2869844245090258,2.332983443454174
0.82421875,-0.9357619261081278,-0.8787837748901434
0.828125,0.5021327954209526,-0.6678408680638782
0.83203125,-0.2760729191988882,1.9214222919465944
0.8359375,0.06517800537121263,-0.14925756028988635
0.83984375,-0.705312556134477,-0.15102059317604247
0.84375,0.13476640490434433,-2.376120703833278
0.84765625,-0.011351612328854245,0.3021584496595644
0.8515625,-0.49403326055104285,-0.015976746222577266
0.85546875,0.6143716702188536,-0.7137767982975216
0.859375,0.5629733484471122,0.2846932512800162
0.86328125,-0.49612299295785295,0.039270116672455405
0.8671875,1.0309337915852834,0.48211930685862325
0.87109375,-0.9678885065011013,-0.11977499871967978
0.875,0.5376840585306009,-0.7055122787091817
0.87890625,-1.1726393551747636,0.15354823469553464
0.8828125,1.1995179343980222,0.5031158316223627
0.88671875,-1.1000620327931432,0.21318043190979125
0.890625,0.07339970269543536,-0.6873366718639244
0.89453125,0.19644703292739427,-0.5180837857420462
0.8984375,-1.3585263041561082,0.11894467983466855
0.90234375,-0.4030882391967944,-0.878663599147108
0.90625,-0.6648536821131816,-0.3513935466428627
0.91015625,-0.36613293267008756,-0.6219702900464601
0.9140625,1.3393092795247912,-0.014572976272144024
0.91796875,-0.9656628752190968,0.18204636415713665
0.921875,-1.3536366819182213,1.3074859258201224
0.92578125,-0.37669509555727676,-0.7009213335265904
0.9296875,2.230961876006925,-0.2234377985996037
0.93359375,-1.58867516442432,0.4845810008135933
0.9375,-0.532280477909247,-0.9589264510629124
0.94140625,1.1903099572618183,-0.6514842641468767
0.9453125,-0.03554228490887676,-0.2495867276329145
0.94921875,0.553672932687911,0.5798461985763181
0.953125,-0.6102612547794874,-0.5163668966385632
0.95703125,0.26762117669331614,-0.3410893711736915
0.9609375,0.2199115685930414,-1.7372468039064346
0.96484375,2.671383373581008,0.3764959936538065
0.96875,0.14648389339870604,-0.2887439050033928
0.97265625,2.5556871253134856,0.009248178080635588
0.9765625,0.9254436702473334,-1.3835618730208519
0.98046875,-1.3163184347158676,-0.862770990804458
0.984375,-1.0738225561863386,1.2642748894629416
0.98828125,0.006304264962703133,-0.29315632568134703
0.9921875,1.1959790958686065,0.9188985555928911
0.99609375,2.2644812364853197,-1.4565249740451438
1.0,0.09444713827107463,0.2236886678051334
1.00390625,-1.632097985452197,0.939638975640062
1.0078125,-1.634837092154677,-0.2211056480816406
1.01171875,-0.8166827532143556,-0.9384544707700956
1.015625,-0.3417341396388722,0.7225317319732453
1.01953125,-1.0483557043713247,-0.22428874066681675
1.0234375,0.28942410507191435,-0.9129766282328751
1.02734375,0.05749155998375793,-0.03385109093390072
1.03125,1.1443291085146459,0.807585822400055
1.03515625,-0.7910719742703727,0.09915735291906927
1.0390625,-0.20943527377885673,0.6426065726747298
1.04296875,-0.5688649564992907,-0.9368173516435708
1.046875,-0.6919127035606165,-1.1468140708445334
1.05078125,0.5464223196447467,-1.0675810280380105
1.0546875,-0.6880549125335513,0.27751311415684715
1.05859375,0.258116264236658,0.7800265105592609
1.0625,1.7898780762731916,-0.9709544101970793
1.06640625,1.2842350791030426,0.12871239243281246
1.0703125,-0.9665202142288216,-0.7211790720579042
1.07421875,-0.543993875829756,0.6642978454881315
1.078125,-0.24854881518067062,0.9754699056526986
1.08203125,1.1881847364876317,-0.693063894341988
1.0859375,0.2633050356460014,-0.39330997217868874
1.08984375,0.18503890587267402,1.242476610465244
1.09375,1.3631721938550703,-0.6602756752327358
1.09765625,0.1501789869904574,0.3097828395500635
1.1015625,1.1670155569247933,0.77377428703694
1.10546875,1.034434733433999,-1.2431864508062473
1.109375,-1.4986131205015634,2.0939063572906775
1.11328125,-0.1308933587026954,0.47826432403801133
1.1171875,-0.8735427725393974,1.2162377102464073
1.12109375,-0.7039415722653333,0.3414146803825199
1.125,0.18621741073114392,0.729088347850959
1.12890625,-0.03533836248334297,-1.8860835309881616
1.1328125,-0.5502646438340145,-0.10939186781800642
1.13671875,0.41507677164242707,-1.6567217859608043
1.140625,0.10156568963500716,0.8398602965181373
1.14453125,-0.7285935291075191,-0.004910245836201654
1.1484375,-0.36961048007196545,1.3791387122531171
1.15234375,-2.7993465546015757,1.0637573267042755
1.15625,-0.13265200363509883,-1.45238728395247
1.16015625,-0.4436890693466874,-0.6516352834133567
1.1640625,-1.1148929930995506,-0.47506511449704536
1.16796875,1.3885852800809844,0.7380240609100143
1.171875,0.9962102505024392,-0.799465054248971
1.17578125,2.2520710780858213,-1.2666059103291303
1.1796875,1.1256015024320716,0.28738293461440695
1.18359375,-1.6816740500804628,-1.021355636497554
1.1875,0.7299316759341475,-0.3955438702566044
1.19140625,0.14363411102182588,-0.8779719226721606
1.1953125,0.14431367517543475,-0.11802481099277358
1.19921875,-0.37952272072397136,-0.8209431749481463
1.203125,0.07772296174184305,1.4042297313229821
1.20703125,0.06962639699322014,-0.3139835040820515
1.2109375,-1.9354419909603415,0.2561271852374098
1.21484375,0.8687889016496321,-0.7608116233982721
1.21875,-0.46982661385685504,-0.9318677195983508
1.22265625,0.625913635881976,-0.6774584263869369
1.2265625,0.8053967382955498,-2.212304621361346
1.23046875,1.0395136455374716,1.396138847594628
1.234375,-1.1232989138224048,0.43133195810808517
1.23828125,-1.0857160053610313,-1.3187363471459663
1.2421875,-1.869399245043956,-0.21914063943333864
1.24609375,1.214089297445083,-0.221551091097485
1.25,0.7272172607872357,-0.3966145238350751
1.25390625,-0.7655422037641443,-1.8625376434326797
1.2578125,-0.055194208822697696,-0.30501781893013075
1.26171875,2.0702676021675623,-0.3461274492149579
1.265625,1.0548822901080712,0.538504833370132
1.26953125,-1.1692955664780513,0.7497327895779244
1.2734375,-0.4527140057219101,1.1627142939831592
1.27734375,-1.0153236749484318,1.391233403577433
1.28125,0.627427222499626,0.6131317861992001
1.28515625,0.38761556701307565,-0.5726948230556943
1.2890625,1.1198880697321314,0.9398557730243716
1.29296875,0.729284752371011,-0.19298730921999752
1.296875,-1.2931373928417247,0.4133451196145021
1.30078125,-2.415369142335471,0.7452834875190535
1.3046875,0.6621959640858074,0.5123391081541242
1.30859375,-2.602262583885902,1.001589617178121
1.3125,-0.27964349048844783,-0.3176550695952841
1.31640625,-1.1798416588831377,1.2288978403735709
1.3203125,0.19733252998215126,-0.7805769571481457
1.32421875,-0.9497879499713213,1.9175433135348978
1.328125,0.7252758046385729,-0.10425903776988657
1.33203125,0.7674244052489996,0.5699627975476894
1.3359375,1.6193822554261794,1.131696106089887
1.33984375,0.12555037669027733,1.0963955245959591
1.34375,0.8976033957439696,-0.18960179344964478
1.34765625,0.913848915338988,1.5278701589126658
1.3515625,-0.4242090124423814,0.689910451182188
1.35546875,-0.141258787087824,-0.7852403119043472
1.359375,-0.19020116479337515,0.15354191966586955
1.36328125,-1.0431984334311433,-1.4256368803947832
1.3671875,-0.19764459154088795,-0.9431783280004524
1.37109375,-0.07792430259339574,1.0310662596882325
1.375,0.5387802647064283,-1.1645098629806236
1.37890625,-0.5112103220026046,-1.4119472561433066
1.3828125,-1.7538157774763723,-0.48242256092391095
1.38671875,-0.18006162842325907,0.044996359303677874
1.390625,-2.084215322271796,0.23628193926275445
1.39453125,-0.6262997480725451,-0.1388227284156238
1.3984375,-1.3904154063323608,-1.4544626156218736
1.40234375,1.2430286932669634,-0.5263322566014724
1.40625,-0.2543038393396123,-1.0976675957733315
1.41015625,-0.8125013819299655,-0.31791709269516694
1.4140625,1.7952728557407611,-1.5023020918793981
1.41796875,-0.4920348944843033,0.18395768002227714
1.421875,0.34143871895617,0.4900836957729726
1.42578125,-0.00791574786366094,0.8250636063434442
1.4296875,0.17144635468755146,-0.9245262508397364
1.43359375,-0.16131704051168103,-0.33557216847229054
1.4375,-0.6051669009336318,0.5681005819965878
1.44140625,-1.3687281057101848,-0.9959908433125945
1.4453125,-0.39683013126313316,-1.9064334200285697
1.44921875,1.550634872600885,1.2822209845502377
1.453125,0.8411396761258777,-0.01972541773170947
1.45703125,-2.3346103292172575,-0.6658088874382809
1.4609375,-0.24377798491213482,1.0729190645377047
1.46484375,0.5213821573184317,1.9001320106342041
1.46875,0.4414762541799189,0.24573002343612546
1.47265625,0.029553871529066023,-0.4971939338674616
1.4765625,1.0998119241034547,-0.9442087294279524
1.48046875,0.00995329046382469,-1.4850827751244218
1.484375,-0.2742030060559059,-0.28463065807503435
1.48828125,-2.038257223285465,1.0585550340950136
1.4921875,-1.313411536043599,1.1242522585841512
1.49609375,-0.9561462735897601,1.3660340747981523
1.5,1.6909722663675057,-0.016415539119971175
1.50390625,-1.0478065494819198,-1.301831059161097
1.5078125,0.8211314743376517,1.5207797542787722
1.51171875,-1.6960299240952077,-0.6923494952553737
1.515625,1.1856716590963752,0.7920042481999503
1.51953125,-0.1894945600141968,0.7380854402772119
1.5234375,-0.5995914456958455,-0.5174084654211213
1.52734375,-0.7425204329594385,-0.26157226395117233
1.53125,0.49990329052711285,-0.3136349498369584
1.53515625,-0.48594008045079035,-0.08643294504633209
1.5390625,-2.7351604046906393,-0.7117963462751072
1.54296875,-0.7069027026222163,0.8453656343875817
1.546875,-0.7174253858770986,-2.7076756829281208
1.55078125,-0.3482622140584951,0.3266628454961477
1.5546875,-0.22740712088763249,0.5983979989005055
1.55859375,1.148307770727929,0.006964816575346164
1.5625,0.48190471072951774,1.1812342077185367
1.56640625,-0.5750392462936217,-0.0002030107574969724
1.5703125,0.9660069548484314,0.21671678947157547
1.57421875,1.2454738701449386,1.1282019489243444
1.578125,0.23896333474509074,2.564018999723975
1.58203125,-1.1776937631820603,-0.5110157813695754
1.5859375,0.977992262297708,1.264074983838449
1.58984375,0.06412608895487049,0.01570247632761396
1.59375,0.14071300115268187,0.007694173009315043
1.59765625,0.7876709732076955,1.0771980321643224
1.6015625,-0.6986272446198427,1.7675651416773164
1.60546875,-0.8070988034982506,1.0939331533569958
1.609375,-1.2071111947812343,-0.23826319304085689
1.61328125,-0.7780675527528538,0.09350250025762934
1.6171875,0.08047300870901264,1.049648321827764
1.62109375,-0.031425727725567634,-0.33639868842186227
1.625,-2.2614719918367507,-0.05100302879497965
1.62890625,0.5914776748886273,0.8103664712883449
1.6328125,-1.2331146300585005,0.11144075205354934
1.63671875,1.6039292297370797,-0.9055948144933142
1.640625,0.24356031356756694,-0.1772475169425806
1.64453125,1.2160455465586688,-0.20180090931389214
1.6484375,-0.47855049477295125,-0.7820794241264787
1.65234375,-1.3866248084205368,1.1135745043255458
1.65625,-0.28461724865731663,-0.8149242424699015
1.66015625,-1.1488199516970932,2.3861553924327104
1.6640625,1.4488318029216813,-0.19131148493244712
1.66796875,1.116671026744021,-1.476537282156996
1.671875,-0.1620806938575287,-0.33723158392860464
1.67578125,-0.2605783375500663,0.29115391285479597
1.6796875,-0.49931003861435225,-0.26364275500156714
1.68359375,0.9777265958384961,1.109134847397363
1.6875,-0.1910354403617544,0.0176231094031772
1.69140625,0.5940429727700732,1.7659507239783163
1.6953125,2.6886084088468416,-0.7562977285052582
1.69921875,0.36677648742613655,-0.5542924258328344
1.703125,-0.6006911368843063,1.0928235914342495
1.70703125,0.37174237699528373,-0.6084742185512879
1.7109375,1.1533637714663414,-0.4756907717960224
1.71484375,-0.023896383476703493,-0.45012032237779376
1.71875,0.9499325033400546,-1.835866130473379
1.72265625,-0.9573737236769078,-0.41645805093261845
1.7265625,-0.7040490053882125,0.8270175789403907
1.73046875,0.625686371149312,0.5746601489775953
1.734375,-0.0014535839860789588,0.477325297701489
1.73828125,0.04759148921245606,-1.0340364149184753
1.7421875,0.34342530016051986,-1.4394290661709255
1.74609375,-0.6069454009054795,-0.8318859164523644
1.75,0.07737763445364143,-2.2655800810614353
1.75390625,2.265852750651995,-0.700976852523055
1.7578125,0.7228731197270342,0.5836482159724051
1.76171875,-0.11448947280604142,-2.9834969409301877
1.765625,0.7928483668909665,0.27872531071329515
1.76953125,-0.4162602050361451,-0.7895260436782467
1.7734375,2.2087545933769737,1.2101381620422418
1.77734375,-0.7745352191561505,1.5429474222394233
1.78125,-0.9159762556247507,-0.8314137998966927
1.78515625,-0.7042134242588589,0.7932938552684201
1.7890625,-0.4596159683263204,0.5307358058208574
1.79296875,0.48371477319992895,1.4514188598810416
1.796875,-0.46183911289826196,1.4238435404962004
1.80078125,-0.6716639404928775,-0.846313844461373
1.8046875,0.9286306381017042,-0.23579681113799172
1.80859375,0.37744691194651486,-0.44568033491145714
1.8125,0.6743889131515409,-0.18260140298314176
1.81640625,1.3907684835041851,-1.2036541339481441
1.8203125,1.3087872447146742,-0.2855685941870423
1.82421875,0.10082561692371064,-1.6513358270427374
1.828125,0.8617935842884739,-0.047039123421556285
1.83203125,0.1841035590708527,1.5632315937707466
1.8359375,0.433665462959899,-0.5897228029930321
1.83984375,0.7539419611260268,-1.2126426798261
1.84375,-0.7955956074663723,-0.07466560312536426
1.84765625,0.9131065103247794,-1.21772154865039
1.8515625,0.15941609978327256,-0.7377308665756287
1.85546875,-0.3428684388496038,0.18452510373256367
1.859375,-0.5638819824464495,0.2981924031658468
1.86328125,0.5838076612521973,-0.7919614925868733
1.8671875,0.9017159516002169,-0.01427556580561449
1.87109375,1.1844235675936396,-0.9538189711100011
1.875,-0.14186669918933512,-1.1864509757172856
1.87890625,-1.6426199767889307,0.5882198084482624
1.8828125,-1.0757772790361166,0.31550265441054753
1.88671875,-0.7334157354221769,0.5400919688188424
1.890625,1.7284659004226917,0.2628798360255849
1.89453125,-0.8811601329899345,-0.08625139455611437
1.8984375,1.2596863120731614,-0.49510252138726873
1.90234375,0.8776841460108846,0.05600400008416718
1.90625,1.129241268212865,0.850200455787596
1.91015625,-1.9391044235648016,-1.0044185645499417
1.9140625,0.14676847288269515,0.9611770896764826
1.91796875,-0.3459840667275699,-0.0711319055932544
1.921875,-1.5169590779471123,-0.8155073004872685
1.92578125,0.1792319324112802,-0.9631001876867716
1.9296875,0.43754539168706336,0.6650999711656164
1.93359375,-0.6600905621618254,0.8323525386200161
1.9375,-0.6999157432456787,-1.0242859696969786
1.94140625,-0.5943126965249432,-0.024459520188775532
1.9453125,0.2570665210186502,-1.6985940584538841
1.94921875,-0.7668278214945522,0.714575983749401
1.953125,0.40292699779882113,1.9363266028314285
1.95703125,-1.1446896451823,-0.7115093423255697
1.9609375,0.594871431304923,-1.1608268815104181
1.96484375,1.0530324162907134,0.19150137928240285
1.96875,-0.1675707049857121,0.6995644911113716
1.97265625,-0.27346873388365867,-0.4851806572545128
1.9765625,0.8595692570956873,0.8853985730625589
1.98046875,-0.04122948945371391,0.23792426358858496
1.984375,-1.784413862157231,-0.02800289472020645
1.98828125,-0.05068382473009334,-0.9329955422005447
1.9921875,-0.010856085136653327,1.2257115773069935
1.99609375,-0.3243371047773344,-2.678940675173055
2.0,0.3418955956219734,-1.0281055632634977
2.00390625,-1.088719259293055,0.6617741196054312
2.0078125,-0.5664998516715051,0.4877178141251397
2.01171875,-0.5761982623547424,0.5618877739926847
2.015625,0.8067357678984056,-0.9478059369688335
2.01953125,1.2851681074487475,-0.2932915484062094
2.0234375,1.7937405157952977,-0.8878790701979485
2.02734375,-0.4239035577255329,-1.2142897016871321
2.03125,0.3632952468981894,-0.5968343537801905
2.03515625,-0.6531612810361808,-0.07732894009197089
2.0390625,-0.9714852668243358,0.4704454981887982
2.04296875,-0.8563368805136589,0.002000091452815912
2.046875,-0.9007948586754313,-0.04501277942243985
2.05078125,-0.6258950058216285,-0.7346846518289667
2.0546875,-3.4077856452540467,1.5456313725156474
2.05859375,-1.102103175925365,-0.1345381748576409
2.0625,0.5882963008210662,0.9623518845271384
2.06640625,-0.8603844976811489,1.0875575041027772
2.0703125,0.13222094935078021,-0.27437030872100493
2.07421875,-2.0150931119439317,1.4171544900795692
2.078125,0.2940122885215436,-0.1052333470126576
2.08203125,0.10225091283634524,-1.263311800101287
2.0859375,-0.17441971976418286,0.24290738416900057
2.08984375,0.5250518918661417,-0.14240898333103671
2.09375,-0.7033564885652401,0.9723940069817473
2.09765625,-2.142520094079223,0.841696010021443
2.1015625,-1.051499495036605,0.10702172480893181
2.10546875,-0.6859325356977186,1.145652180559086
2.109375,0.6261527338597548,-1.8112240351798634
2.11328125,-1.4192906052971768,-0.5755814717818996
2.1171875,-0.9501545326278061,-0.6501749130525332
2.12109375,-1.1882491721649475,0.28965203493058467
2.125,-0.306738274012695,1.6519930119073862
2.12890625,-1.138534817670636,0.9698056890739449
2.1328125,0.5184811391642956,1.3698626763226933
2.13671875,-2.1474230398707936,-1.7830754597088765
2.140625,-1.4700157881161884,1.5227232145646565
2.14453125,0.4721420511458703,2.2873680887992918
2.1484375,0.2324270691721082,0.7516313775742209
2.15234375,1.8635722495692575,-0.513686266652716
2.15625,-0.013147950241737334,2.012191116599435
2.16015625,1.33981010850723,0.9202294640685469
2.1640625,2.176053164348856,2.3266062545648314
2.16796875,-0.3275129802073157,-0.5810469614717421
2.171875,2.0031234547804275,1.1044375418835144
2.17578125,0.6905919698241118,-0.5291182544544827
2.1796875,1.4574971369754284,1.512742889099245
2.18359375,-0.3253635785654064,-0.14371475625892843
2.1875,-0.4012542143298302,1.6359170806287984
2.19140625,0.9065808384339138,-1.1049795565901226
2.1953125,0.7672821775603578,0.48776931145866587
2.19921875,2.527403140170579,-0.32017484430797544
2.203125,-0.3591736255302324,0.18669039222540423
2.20703125,0.44527325655559863,1.1185552233370533
2.2109375,1.3087745570994278,1.1321370983070407
2.21484375,-1.2235357481921634,-1.6235458972604606
2.21875,-0.9111298318280555,0.22059090346990917
2.22265625,0.804036082539239,-0.3196531398600003
2.2265625,-0.3567869882541327,-0.08906618647410594
2.23046875,-0.4097990335283549,-0.2828514014244125
2.234375,-1.0274501102678335,0.1123534054384004
2.23828125,-0.6821643847372364,-0.7949808424495949
2.2421875,-1.099336102681238,1.2313035293237944
2.24609375,-0.812267581631276,-0.4267372213734759
2.25,0.35788652073133,1.087632469910113
2.25390625,0.11232614807200036,0.8040887542078403
2.2578125,-0.6748370585517136,-1.244996909247009
2.26171875,0.4712436773488867,-0.27837231496998394
2.265625,-0.12647618715149914,1.4681024851030988
2.26953125,0.25349864101331904,0.1119735602391214
2.2734375,-0.7850634994170548,1.6071920523680248
2.27734375,1.1547761534722705,-0.03222096968181522
2.28125,-0.5341169960379059,-0.28539909074009284
2.28515625,-0.6756721397113483,1.6717537158393132
2.2890625,-0.06954544266180292,-0.6697360203139311
2.29296875,-0.6862290508607406,-2.8819579791063665
2.296875,0.11636580659256596,1.5163407856657363
2.30078125,0.10548985522961879,0.7453745565844527
2.3046875,-0.3795410546626163,-0.5027909860251552
2.30859375,1.5231516983892606,0.1885261244677357
2.3125,0.00900162167327983,-1.4621026328837623
2.31640625,1.2675525003096801,-0.40518337452400016
2.3203125,-1.4129799385229036,-1.2088071477501665
2.32421875,0.6938215786220285,-0.8977033603053425
2.328125,-2.180930116905676,0.03206618528503797
2.33203125,0.07960429745038299,-0.8066423850797049
2.3359375,-0.5349432167258524,-0.8226906040794356
2.33984375,0.9782599109545871,0.18798971485679478
2.34375,-0.7716497345839023,0.8506464841521479
2.34765625,-0.18761291384215517,0.6482074378708329
2.3515625,-0.2681725311664151,0.34049927445003775
2.35546875,0.4717725282480368,0.27195566345105066
2.359375,0.4102911257980106,-0.38499425290637934
2.36328125,-0.685061921542438,-0.299318379792293
2.3671875,0.7847892462355016,-0.6144346318171701
2.37109375,-2.0035627679764345,0.2405934023396778
2.375,-0.37857131296203406,0.6646463469233204
2.37890625,-0.24513110112808584,-0.5181033850085441
2.3828125,-0.4484331439513542,-0.37503168603785636
2.38671875,-0.5905024976000407,0.7665241890383674
2.390625,-0.8444582248623236,0.8367746775688991
2.39453125,1.7466556463871183,-2.6679459939606494
2.3984375,-0.18918725332250494,0.4909421956375056
2.40234375,0.400118891287955,0.3488752512672092
2.40625,1.6005153737048154,0.8541041981886945
2.41015625,0.5070949901317201,-2.809883935623725
2.4140625,0.12172856414674278,-1.2174983440445624
2.41796875,-0.26181811186055876,-0.83830361280296
2.421875,-0.4306222197187866,1.1973614531506647
2.42578125,-1.0570214312863606,0.10385995455673722
2.4296875,-0.22400320912522825,0.19624254893531215
2.43359375,-1.2111444663937363,1.1453001236067113
2.4375,-0.6121955205658252,0.8255942222189919
2.44140625,0.2814048350028211,-0.032543951965234505
2.4453125,1.1401728426858697,2.8852312982121218
2.44921875,1.3178399136115961,-0.2407696866230172
2.453125,-0.01259599536987905,-1.8993575298762084
2.45703125,0.21766012685708588,-1.1974214704043669
2.4609375,2.223410002177597,-1.1834939758144438
2.46484375,-0.12068449809587398,-0.47102408091221715
2.46875,0.39070703427138853,-3.3270178809777966
2.47265625,-0.44236289285246894,1.0265484345198244
2.4765625,0.2654051945579125,-0.4401806264949736
2.48046875,0.429932733959762,-0.5457028150109393
2.484375,-0.19290309395747773,0.8289936821895149
2.48828125,0.03180445753488616,-0.39809636563535244
2.4921875,-0.33270561600346144,0.014132468882125757
2.49609375,-1.3083487322036145,-0.7950723939133939
2.5,0.13560854112399762,0.12443422804722376
2.50390625,-1.0182771739301058,1.5667524754756474
2.5078125,-0.5903600754089211,-0.853779809056715
2.51171875,-1.4251577475612505,-0.57151242047121
2.515625,1.3126714452985015,0.5754722089916937
2.51953125,0.7146371994004059,0.040488381584319416
2.5234375,-0.007359030479871867,-0.8080455041656267
2.52734375,-1.3963523345784725,1.4639485953368934
2.53125,-1.4425202648335973,2.768336476609817
2.53515625,0.0411591173061439,-1.816582256804082
2.5390625,0.8405094094096578,-0.31269405502966724
2.54296875,-0.14601714511204741,0.7292890432682518
2.546875,1.363421993498377,0.2756554563386569
2.55078125,0.37924003358030467,0.06298188667403799
2.5546875,-0.4839105108054265,-0.2639478605317265
2.55859375,-0.47323973106705913,-0.44276521659298085
2.5625,0.32435211552439835,-0.6892946397693961
2.56640625,1.0503305932056666,-1.4929237290857782
2.5703125,0.5414650938174185,-3.1854841540137584
2.57421875,0.9677863541463948,0.29384681325758316
2.578125,0.4523942160295215,0.558490322195499
2.58203125,-1.0226028873924036,0.8916257797389273
2.5859375,0.5462948191121901,0.6432805370799916
2.58984375,0.7348109486789737,1.2819399443250097
2.59375,1.235015740581645,0.41096654995229176
2.59765625,-0.20597076556714677,-0.27659986952093196
2.6015625,-0.892506495522021,-0.30878166972288623
2.60546875,0.3658310458757442,-1.3801439185349418
2.609375,-0.8261064433226647,0.4769168086809716
2.61328125,0.0013395599864981281,0.6320615884021309
2.6171875,1.2640899628196378,-0.6095346309470534
2.62109375,0.5099055821855871,0.5386681456289971
2.625,1.188298956379275,0.03279826399423388
2.62890625,0.45866075839732046,-1.6182921860745176
2.6328125,0.07323445664180207,-0.41736128860892596
2.63671875,0.11884710589081199,0.006274236438895366
2.640625,0.43285793100331604,-2.2605214211291096
2.64453125,0.445561801305936,0.14312324962374806
2.6484375,0.17592912387150514,0.3088869310809106
2.65234375,-0.018793843490390278,-0.8662324103374972
2.65625,1.7108745059248769,0.8960053389966356
2.66015625,0.09350996248726706,0.8600633158471024
2.6640625,-0.1093096632222804,-0.10965252045612114
2.66796875,1.7956091089342623,1.3819180047625892
2.671875,-1.0449831452254106,-0.7808476767334394
2.67578125,1.2644454067783455,-0.41497444222066926
2.6796875,1.1650798970080873,1.4002152658822014
2.68359375,0.36225408866065556,1.6291472119160384
2.6875,0.36560712538577916,0.5132931481607217
2.69140625,0.8546700016864593,0.6126907539890427
2.6953125,0.3284264710378016,0.0376489071897084
2.69921875,1.1451816464595646,1.350832681485539
2.703125,-0.7230292907696523,-0.5003169028439195
2.70703125,-0.17747663301876965,1.4810425613918963
2.7109375,0.8741581119274584,1.751766828324451
2.71484375,-0.008218984643925375,0.3142133069132217
2.71875,-0.7417020043203775,1.81790440457882
2.72265625,-0.49116806758220516,1.1740002244573329
2.7265625,-1.1050991929620881,-2.028439473664799
2.73046875,-1.5574307723860334,-0.2982254561688306
2.734375,-0.6546179402274229,0.45241709642582084
2.73828125,0.10132193470073678,0.1755034315030269
2.7421875,1.3736359307964077,-1.6287647250676058
2.74609375,-0.38156105559830567,-0.7159977966979892
2.75,-1.2805258354502715,0.5406417834130512
2.75390625,0.896074109286394,0.604719157864873
2.7578125,0.7995363525091288,1.1393090656068259
2.76171875,0.3360025295993339,-0.6635238656239194
2.765625,-0.13201851280614843,1.0606003859657138
2.76953125,-0.1180816324323117,-0.45292743370957594
2.7734375,0.3942863905096078,-1.8163708772481426
2.77734375,0.07948732831342274,0.32628698246280013
2.78125,0.7603956625943642,-0.16251577700629752
2.78515625,-0.4684155841363111,1.867203941871251
2.7890625,0.43038227536006407,0.3971140103399119
2.79296875,1.4234931224892207,-0.3773102356492125
2.796875,-2.1961208757590582,-0.2944112038809841
2.80078125,0.12459679382435572,1.634539795499411
2.8046875,0.10648188817606466,0.660547198173341
2.80859375,0.0019056361432994106,0.31629353864149085
2.8125,-0.44509479648331773,-0.29354646900984266
2.81640625,-1.9336331355803822,2.461690490556635
2.8203125,-0.04173480116186245,1.0343522489345778
2.82421875,0.41705421041158425,0.15794850861436996
2.828125,0.38306023329379535,1.9298695054986943
2.83203125,0.9647833309942743,-0.04741958912314363
2.8359375,-0.17720247740540573,0.7322433913704952
2.83984375,-0.10193070553712806,0.7180449886930987
2.84375,1.2658971786980155,0.029133275583756512
2.84765625,0.5982181516108046,0.6329780459750124
2.8515625,1.550707789549783,0.06004450717459265
2.85546875,-0.4911322486365346,0.322110916748377
2.859375,1.0315709032962224,0.9614465372425542
2.86328125,-1.2102495238285924,0.7640251953411421
2.8671875,-2.395651004432168,-0.340546505040422
2.87109375,0.5091363953435921,-1.19546310734218
2.875,-1.3867004234839249,-0.8779107808647171
2.87890625,0.5237512619138781,0.7899477561501361
2.8828125,-1.6054295417484246,0.31823928430422677
2.88671875,-0.018003768470822502,1.7964449352534424
2.890625,2.004298366091836,0.7315438131969245
2.89453125,0.8578623212478177,0.6044161149445902
2.8984375,-0.40287361021144286,-0.760217799725267
2.90234375,0.66957156915134,0.157996619771681
2.90625,-1.4511704726334804,0.22775468324961742
2.91015625,0.27558509099595624,-0.18443460458653976
2.9140625,-0.7058855169604734,-0.32675200360051954
2.91796875,1.778631835750378,0.7223519565648472
2.921875,0.23557918398233832,0.3416240515847392
2.92578125,-0.6700395901728783,2.146874568011107
2.9296875,0.32807370048768625,-0.12878357484479008
2.93359375,-0.49244388505904424,-0.7477777933278585
2.9375,-0.17642790104449083,-0.9780445630588545
2.94140625,-1.3581477378137452,0.20835801976097923
2.9453125,-0.5877061852633112,-1.2271058605458696
2.94921875,0.06361611826269174,-1.191340583855233
2.953125,1.2477251971732957,0.1984452043992041
2.95703125,1.377868006382625,-0.4031228087563685
2.9609375,-0.037426363650284095,0.5761462876915857
2.96484375,0.15401523447677015,-0.25267703246263995
2.96875,-0.7296137898066845,-1.210644831215162
2.97265625,-0.21292820360125894,0.45085977954028655
2.9765625,1.5735779246074129,1.2879966416851345
2.98046875,-2.4885309859716114,0.6316244144876414
2.984375,0.8846751657575058,-0.37323883328988006
2.98828125,0.054728027540731326,0.6367947808027552
2.9921875,0.2323340122955805,-0.5674161975403469
2.99609375,0.030467245203908262,-0.8300697029536154
3.0,1.5221174324826392,-0.6138594474242833
3.00390625,-0.8744311162264354,1.4584855703599053
3.0078125,0.7869566503479202,-0.2680268467156008
3.01171875,-0.5961312985527399,-0.8443590653963509
3.015625,1.535525016595617,-1.0235168870834292
3.01953125,-2.1382052285930495,-0.44149878231855005
3.0234375,0.547869976737527,-1.7078261661980374
3.02734375,-1.3487937909342085,0.9478597102036433
3.03125,0.39972522823016415,-0.6339442777244769
3.03515625,0.7311031436939731,-0.22905334974172242
3.0390625,0.5248719240391245,-2.137237197272466
3.04296875,-0.10960826534912976,-0.2700257639862504
3.046875,-1.3590562023550135,-0.727576200520443
3.05078125,-0.1835494268759502,-0.8200376790725697
3.0546875,-0.0574791308376697,0.9896558535070619
3.05859375,-0.01192000090299149,0.9192002516030195
3.0625,0.6014717075721602,0.31570040519572795
3.06640625,1.3993004410000898,0.11231891874122754
3.0703125,0.1530099236430525,-0.11739386777463293
3.07421875,-1.4342147618365184,0.2913397999608448
3.078125,-0.20701058259514596,1.0383434745609987
3.08203125,-1.4668157629079661,0.20270018547816843
3.0859375,1.189150335376234,-0.47122048316626125
3.08984375,1.2706634180060874,-1.0041330044959003
3.09375,0.7341220391965139,-0.8677952730490374
3.09765625,-0.1268893819618999,0.20592941795701797
3.1015625,0.1109731142321992,-0.7017722250128235
3.10546875,-1.1370423593301708,0.5628635435540866
3.109375,-0.44571152556529736,-0.4213285947699885
3.11328125,0.777141793689367,-1.1081310997454623
3.1171875,-1.9522663228405106,0.4697160882048693
3.12109375,2.5085252369709763,-0.21792427801010136
3.125,-0.4185130305116906,-0.7199600128178881
3.12890625,-0.8332151243604672,0.12557770528033174
3.1328125,0.7265544911793212,-1.1865631536019363
3.13671875,0.9201586261365999,-1.8524087982191673
3.140625,-1.2402046087093195,0.7414790883114064
3.14453125,-0.5951153257678132,-2.379115390516684
3.1484375,-1.6420108823024726,-0.28073105039206475
3.15234375,0.12714784813958316,1.0337620316355813
3.15625,-0.965635581860906,-1.8742698705449023
3.16015625,0.41904783292798153,0.1212124540836829
3.1640625,1.4169979687138556,0.7860252775866493
3.16796875,0.685465980926632,-2.223537966856854
3.171875,0.11464534314744543,-0.7963581173434234
3.17578125,-1.1105312398388179,-2.028383613766622
3.1796875,0.7254834818426945,2.0554499139493645
3.18359375,-0.018178796628795967,0.4324113395505439
3.1875,0.9101641099566512,-0.7280329009597698
3.19140625,0.0660258350539943,-1.227328981468117
3.1953125,-0.2661495268399379,0.8571586915102575
3.19921875,0.37811370211680956,-1.1968903151253312
3.203125,0.31937391409080257,-0.7387875759962518
3.20703125,-1.1625144689696734,0.36119408653446833
3.2109375,-0.06254585938280675,1.558358386911482
3.21484375,-0.08694424286241634,1.3555973599668159
3.21875,0.8136462475095682,1.9412834203522478
3.22265625,-1.721192032520531,0.4264815029030197
3.2265625,-0.23754155724583295,-0.34988400561029515
3.23046875,0.6448120519338002,0.7984419578156701
3.234375,0.7167243596951555,0.7626059252775123
3.23828125,-0.5212598561569017,-0.6011662941628417
3.2421875,0.3846631962896565,0.28196453829635376
3.24609375,-0.34975828113083235,-0.8174731822175031
3.25,-1.5108045007052187,1.1008964318374632
3.25390625,0.31195842524471423,2.362884809112577
3.2578125,0.2978428848771802,-0.7734314922820086
3.26171875,-0.172127259221654,0.280827931541364
3.265625,-0.6483813571807098,0.2795133722226096
3.26953125,0.3420343634398076,0.4701306074932131
3.2734375,-1.1601520196619968,1.21784859017571
3.27734375,-2.157079906709761,1.3471561932532587
3.28125,-0.3204749318558986,1.4734137359916328
3.28515625,0.9352431211708329,-1.224678292490094
3.2890625,0.38756233800702145,-1.9978138251525377
3.29296875,-0.3241907426555132,1.3141444972080412
3.296875,1.7609782125978242,1.308976717418843
3.30078125,1.162016184907511,-0.856507023334717
3.3046875,0.10074523826034336,-0.14976521027948622
3.30859375,0.7833422993062203,0.08343782728546623
3.3125,-0.6945353290047842,-1.3218208610430862
3.31640625,-0.8622402467113642,0.6523882850165862
3.3203125,-0.29308348802935247,-1.0571666871485697
3.32421875,0.37251884969104615,0.1973126968138878
3.328125,-0.22502674821856566,0.1983131518976469
3.33203125,1.6065607901938377,-1.3769690658474838
3.3359375,0.09628236112358224,0.9764706023589262
3.33984375,-0.008652213062528669,-2.201271528028773
3.34375,-0.9632562121904963,1.8519166644533454
3.34765625,-0.7844862745151007,0.7589865222930532
3.3515625,-1.0971688151535086,-1.1669748778590772
3.35546875,1.050943204579906,1.2583977175298713
3.359375,0.4535394754909251,0.46298380872385037
3.36328125,-1.0285056326835824,0.7556063771925666
3.3671875,2.06863460059606,1.7023212061615607
3.37109375,-1.004543788862846,0.8970975896110385
3.375,0.23262683067324777,-1.0889805413989468
3.37890625,-0.5428965149531167,-1.170098306855009
3.3828125,2.0437995786665613,-1.5190732856393667
3.38671875,0.3510164306211992,0.015569211088005153
3.390625,-0.8674476765347179,-0.41537370953444513
3.39453125,-1.309095863298787,-1.233821357061734
3.3984375,1.1787415609546483,-0.12737811457349163
3.40234375,-0.4170325732614733,-0.02033248462371775
3.40625,-0.03431788269511345,-0.8749424280595619
3.41015625,-1.1399430286457608,0.5223324838146012
3.4140625,-1.3494850802186846,0.35155861421060086
3.41796875,-1.060008576530884,-1.8554658674592435
3.421875,0.2983342941232907,1.5064801751488506
3.42578125,-0.8105794948925451,0.46583412832822807
3.4296875,-1.1196703489098423,-0.2450114937570553
3.43359375,-1.3861372098481117,1.0443554362710794
3.4375,0.8763154572874066,1.1694715824753792
3.44140625,-2.3415041571116055,1.3401437932355136
3.4453125,-0.3915736205524542,-0.41529852848334214
3.44921875,-0.2443421172084656,0.19986719601834663
3.453125,-0.09744095108598248,0.7359973348887356
3.45703125,-0.5830638665925428,-0.51990204619125
3.4609375,-0.9936634299317149,-1.6467812439378697
3.46484375,0.36489902388810624,0.5713342436579815
3.46875,1.043558778515862,0.7667057976176831
3.47265625,0.021103959694244556,-1.8380896234033073
3.4765625,0.8084876891810688,1.2014891811024777
3.48046875,-0.7799992009019109,-0.23055594918891686
3.484375,0.6066710336257738,0.21549926100124686
3.48828125,0.25181634645051315,-1.4033782475931045
3.4921875,-0.22426883729406372,1.1709096312753138
3.49609375,1.224090289548216,-0.21588050710227344
3.5,-1.1146724656529785,-0.1912059092921012
3.50390625,0.009815171706585493,0.8999147250051655
3.5078125,0.23965525902185478,-1.1046751210131645
3.51171875,1.4525031934572927,-0.007026625285330289
3.515625,-0.5730625413099333,0.07557080575676973
3.51953125,0.4370714623474728,0.13217487618832197
3.5234375,0.0853036333382311,-0.8896887736104223
3.52734375,0.25878920473865347,-1.1359827636643283
3.53125,-0.0026722644330640366,0.22766373331311887
3.53515625,-1.2981229949098512,0.7404230900425278
3.5390625,0.9313531793469134,1.0049629486239602
3.54296875,1.3514204025263976,1.1433463491208382
3.546875,0.14777438079712021,-0.4735785336187615
3.55078125,0.7286672474015005,-0.39741777301295733
3.5546875,-0.015224080423460455,1.4969105993439422
3.55859375,-0.8356150222381872,1.201457176409514
3.5625,1.81269010134841,0.3391414744018788
3.56640625,0.8323619291912331,-1.2741212483546753
3.5703125,-0.9311247760713128,-0.09108257974621972
3.57421875,0.1336075651361332,-1.4448071039533286
3.578125,0.017780236302960477,-0.5084959224814077
3.58203125,1.664384446155852,-0.6680206723877384
3.5859375,-0.30266641697491997,-1.3507256082155052
3.58984375,0.13622721757572484,1.685271000885986
3.59375,2.6104364645634677,0.11996346752914601
3.59765625,-0.1906109184232246,0.4884509753587349
3.6015625,-0.16799177782527508,0.6665514481938255
3.60546875,-0.40013214195233987,1.077136532163904
3.609375,-0.14603750675016178,0.42563717052903655
3.61328125,1.327821051176597,-0.4639495654761367
3.6171875,-0.206346735136616,0.9488034573001397
3.62109375,-1.1047464026989988,0.8693693769929255
3.625,-1.8807788217186272,0.9412943728750349
3.62890625,0.9842532699853257,-0.18729387973301923
3.6328125,-1.0404754486662877,-0.3135815527039059
3.63671875,1.0158094220300111,-1.9728105552927668
3.640625,-1.597693454483999,-2.9489177270947167
3.64453125,-0.18698858067110607,0.8431286880165283
3.6484375,-0.08368637478793492,0.004186268136948949
3.65234375,0.22473799324288019,-1.431005840215086
3.65625,-0.240383533342524,-1.1510269384341565
3.66015625,0.23590565707894648,-0.476261807067307
3.6640625,1.6579430977862641,2.831513991639625
3.66796875,0.017445264702414285,-0.20622741352264112
3.671875,-0.16285905910549364,0.3432695662339271
3.67578125,0.2027187514539315,-0.03788306948157132
3.6796875,0.04718088833125498,-0.5120403225578714
3.68359375,0.5848626533326082,1.6249238724096917
3.6875,-0.5951893738353904,-0.11466903201265764
3.69140625,-1.2839911196791005,1.1397088055750102
3.6953125,-1.3350700395324988,0.056649001896137426
3.69921875,0.34654077505360825,-1.5028895680626937
3.703125,-0.33621638713747026,0.6837577425045197
3.70703125,-2.1733941191743886,0.35096582732806336
3.7109375,1.185037608024543,1.347643363919534
3.71484375,0.13539467327789126,-1.0108927440611346
3.71875,-0.027920759459775065,-0.5420348624351966
3.72265625,0.4155172947710446,-0.2646496425120844
3.7265625,-1.4103309932511552,-0.9206711149783967
3.73046875,0.4494516151293532,0.21678359954569262
3.734375,0.18419255651145483,0.9913899424890845
3.73828125,0.054447880411286946,-0.881305756818502
3.7421875,-0.2432444800445458,-0.3590043781298943
3.74609375,-0.7289227101462827,0.5399371604055815
3.75,-0.3346879136734277,-0.6588688253348647
3.75390625,-0.33578764301773817,-1.8995790377840467
3.7578125,0.2018841711928741,-0.3046216154599315
3.76171875,1.6690159601764185,-0.7424923676130336
3.765625,-0.1504069447563119,-1.767620485179104
3.76953125,1.1613402635604988,-0.41660976175726416
3.7734375,0.5960318083439432,-1.2821020311845126
3.77734375,-0.29847755987686425,-0.22621969114240356
3.78125,-0.15861482762834683,-0.5762118140692268
3.78515625,0.93322173254818,0.7418668302804003
3.7890625,-0.25171527953312556,-0.4095512622994173
3.79296875,-0.9913927815050743,2.789130074247909
3.796875,0.5546306468316483,-2.7095399324882177
3.80078125,-0.2052071068345634,0.0032466634675229872
3.8046875,0.6535021896280554,0.6083936526380045
3.80859375,-0.20311472271927075,1.837061597966264
3.8125,-0.35671006916249515,1.3894087254030505
3.81640625,-0.9006939548301482,1.1913466286484558
3.8203125,-0.2975289397501226,1.0520370106129946
3.82421875,-0.011597529459551633,1.7410910709337797
3.828125,0.40817839735196576,2.343587327519059
3.83203125,0.232858597005122,0.3866725224266034
3.8359375,0.6928263395924914,0.544163108841021
3.83984375,1.0716236981019127,1.0128895346856601
3.84375,-0.3868074512375513,-1.162986594305922
3.84765625,-1.0028540501509327,-0.964029933331038
3.8515625,0.7936661868733996,-1.283430646122611
3.85546875,-0.011790744197726539,1.5315214301994227
3.859375,-1.2256466889359325,-0.7614652174354378
3.86328125,-0.23276718127639215,-0.12284425672592175
3.8671875,0.9699110386197891,0.6048643912513568
3.87109375,-0.6087222521691285,1.1368257134125799
3.875,-0.4224626618002236,-0.6318839326606225
3.87890625,-0.8056326806983368,0.5960332009659046
3.8828125,-1.1183643445184175,1.1698290116778425
3.88671875,0.9243762739227561,0.46885359952967715
3.890625,0.3647135608898679,-0.7597569153448553
3.89453125,0.06312436710411956,1.7213217962895888
3.8984375,-0.5990650357327723,1.2469124773226339
3.90234375,-2.2075137730149796,-1.1041349589233114
3.90625,0.38130260444159636,0.8839549575464052
3.91015625,-0.6900588002970698,0.16217668907579305
3.9140625,1.7690930929847306,2.3079895885008743
3.91796875,-1.9391837669223986,0.6876195320124596
3.921875,1.5814230889149,-0.7243262077259025
3.92578125,-0.18463992968805287,1.3285254894011425
3.9296875,0.44804031332997435,0.2021221704978803
3.93359375,1.0579774978429006,-0.26555846354393714
3.9375,-1.5335682263908372,0.5356741376788028
3.94140625,-0.7414064255116318,0.6270993331584203
3.9453125,0.8004108433422844,-1.0231197806034766
3.94921875,0.1784528258085082,-0.11308515286374157
3.953125,-1.2438079405991078,0.5508538520393707
3.95703125,0.7760126061623802,1.1041838277780676
3.9609375,1.0109801968072327,-1.2823141217140654
3.96484375,0.5893085970614701,0.4714342616096695
3.96875,-0.48298695424070226,0.2988375737727997
3.97265625,1.6321622324743903,0.41249836152950753
3.9765625,-0.2545356917075825,-1.0607943060440448
3.98046875,-0.4764956012632897,0.7547998697395695
3.984375,-1.4607904566444088,-0.4248780609917552
3.98828125,2.351285186282751,-0.46549380688117176
3.9921875,-0.08339753040189109,-2.870581409013301
3.99609375,-0.06018308469388082,-2.3951422159968363
4.0,-1.980286756871222,-1.2929817387348093
4.00390625,-1.2222861740136837,1.1509792963900805
4.0078125,-1.2776280981890815,0.24982585950538033
4.01171875,-0.54393445928305,0.5764593561088996
4.015625,0.03614037098800587,-1.666083929698409
4.01953125,0.5655210534624718,-0.8594878096521378
4.0234375,-0.18149213417975882,-1.1165161619962274
4.02734375,-0.43987964390847745,0.25086381477080955
4.03125,0.639727737946077,0.5366204795280786
4.03515625,-0.8781804877359898,-0.8100662400788636
4.0390625,0.6786233813224269,-0.8992190042867491
4.04296875,0.7903611202658275,1.9504324732340228
4.046875,-0.6900912521412005,0.8574688511518933
4.05078125,0.3070924741664287,-1.4515918183657543
4.0546875,0.8762598583611012,0.9103670890078014
4.05859375,0.43440068567081586,-0.8575217216042506
4.0625,-0.7955450742726018,0.10465525910029311
4.06640625,-0.38250793843706105,-1.2508662802296684
4.0703125,-1.461444030332322,0.18882657037247363
4.07421875,-1.5814771736492328,-0.3469723676340475
4.078125,-0.5354946153204275,-1.6232724454343523
4.08203125,-0.40144876267413765,-0.082853269787378
4.0859375,0.7579581234743537,-0.13393218572015617
4.08984375,0.28922990334354365,-2.286841497052535
4.09375,-0.032536476399369844,1.953596497002179
4.09765625,-0.17688956971326514,0.539412093007269
4.1015625,0.7896170345969192,1.5431722232745761
4.10546875,0.8739548639762864,-0.4273400963509796
4.109375,-0.4481040807679179,1.422661608854965
4.11328125,0.03951983649065513,0.9917381879730817
4.1171875,0.6172714151179599,0.15783549609598377
4.12109375,-3.206162997394037,0.9442659710702751
4.125,1.2032531325209794,0.6206368649733345
4.12890625,-0.6374114872272703,-0.3665875831402859
4.1328125,-1.5210678991912017,0.2427314416241191
4.13671875,0.2467700425882475,0.018769780851665686
4.140625,0.4857122059653347,0.8925903017287825
4.14453125,1.585052030091468,-1.7739163883303304
4.1484375,0.179806481894905,-0.3572358458077266
4.15234375,-1.4988062329465357,0.3813753402646446
4.15625,0.4349578047670184,0.13693060375001054
4.16015625,1.4550242061315741,1.2751826423963317
4.1640625,0.13509793527543523,-1.6418280680467474
4.16796875,0.5282039736065702,2.111619404955897
4.171875,-0.41127689856183397,0.884163401011548
4.17578125,0.023667633701504674,-0.728569584152809
4.1796875,-0.6288394405495906,-2.0692318508432215
4.18359375,-0.31138353136869124,-0.6911334667023925
4.1875,-0.6925207251921853,0.4800810807008647
4.19140625,-0.07414357728504188,0.7213227956746954
4.1953125,-0.1965742765599714,-1.242855560410308
4.19921875,-1.113545875212701,-0.4811968732770333
4.203125,2.247562149478924,1.1189383348113802
4.20703125,0.03772047048037811,-0.37260767120819266
4.2109375,-0.2671159313952633,-0.6100084386829577
4.21484375,0.6268085680955462,0.8422316351759935
4.21875,-0.8044581736572728,-1.1313705376937397
4.22265625,-1.4813978254119042,0.18465813148385934
4.2265625,1.7125959869378,-0.23027972152424273
4.23046875,0.6222409020438296,-0.048800814607616975
4.234375,1.30757743366668,-1.212469331287534
4.23828125,0.4049271565096753,0.2034493870420145
4.2421875,-2.3661000413161504,-0.3601503327800504
4.24609375,-0.9146658078023594,0.055830863583844995
4.25,-0.674262981269952,1.0846124767309304
4.25390625,-1.1461962963305066,-1.2052868747964207
4.2578125,0.04854680260009367,-1.725480248527432
4.26171875,0.6123882405341619,0.5133547306865996
4.265625,0.9410723674346116,0.19081502939167153
4.26953125,-0.3006412087637536,-0.29978324375887394
4.2734375,-1.2029438743472884,1.5504505521606422
4.27734375,-0.13348483993880675,0.48477199580356184
4.28125,0.10788474284572346,-1.706572353217539
4.28515625,-0.37890265119833183,1.0256023117344453
4.2890625,0.5590439454989558,0.05972591419827267
4.29296875,0.6762658443756207,1.271627939783312
4.296875,0.07779913754562358,-0.040530638372738896
4.30078125,0.7019052339101969,-0.8271436911005722
4.3046875,1.0518976235810749,0.5724647719392305
4.30859375,-0.0810639041632168,1.6898210833432166
4.3125,-0.7812992341453688,-1.6757055912414003
4.31640625,1.2762856236856348,-1.4298578622055191
4.3203125,0.9508663980149424,-0.8804759182955734
4.32421875,0.871569111588991,0.5677648240729514
4.328125,0.33793085606927753,-1.173985986078808
4.33203125,-0.15826135734165106,-0.3229068079395986
4.3359375,0.732039506737391,0.4181907002685966
4.33984375,-0.7920610913460465,1.0655139086435286
4.34375,-1.0339400510462426,-0.4706592240279559
4.34765625,-0.4342979661614346,1.3347115734097923
4.3515625,-1.5290357665754462,0.0765897152865441
4.35546875,0.8144379587721461,-0.24671103477060094
4.359375,-0.23938520944402616,1.1023263498774518
4.36328125,0.6253432291966493,1.1302954726775774
4.3671875,-1.336077865933469,-1.869576882647344
4.37109375,0.7430664491700064,0.3680272130608305
4.375,1.0663588759264517,0.9656546744713842
4.37890625,-0.6613637938244284,-0.5753974129889635
4.3828125,-0.3278888600245954,-2.048031485051244
4.38671875,1.448616326784037,1.0775623476588918
4.390625,-1.2668831321789626,-1.945612966891548
4.39453125,1.44497398742219,1.1316843340257656
4.3984375,-1.57695419977782,1.7095618225394567
4.40234375,0.9325026091313071,0.914483222336232
4.40625,0.3686559852555033,0.19941457440677735
4.41015625,0.7026401961761032,0.1269318383396457
4.4140625,2.0414684474958174,0.9055182015225834
4.41796875,1.0033066895324056,-1.120259523549673
4.421875,0.40924148319966475,-0.01579278826093626
4.42578125,0.5137686891985667,-1.5840703732528791
4.4296875,-1.6279150943364895,1.3736279953810309
4.43359375,-0.23366275969737701,-1.1927759692398836
4.4375,-1.0738784922970952,0.4415453058582879
4.44140625,2.566046692819,0.24423915550279884
4.4453125,-1.0989059887852832,-0.34239934368270375
4.44921875,-0.22327417606565295,1.376871012303476
4.453125,1.1130150434046713,-1.3452150399597103
4.45703125,1.7691112176314714,1.6446305586707524
4.4609375,-0.297517711529482,0.3355566051740356
4.46484375,0.3059945003848172,-0.9539035839264576
4.46875,-1.362221425527984,1.9651668935419613
4.47265625,-1.4158596946558901,-0.3330298165988286
4.4765625,-0.8910634748662959,0.9336584152803542
4.48046875,-0.5478672789996898,0.89611719680876
4.484375,-0.36059147307349976,-0.284048949006294
4.48828125,-0.14364427855792145,-2.492694592890813
4.4921875,1.4113973125647208,-0.08393288693608061
4.49609375,-0.3501904231090672,-1.5004031027534455
4.5,-0.8109078827655414,-0.6466558331923675
4.50390625,-1.07116671727743,0.7420109548385828
4.5078125,0.19500346756144998,2.0179618662178385
4.51171875,-0.08700402731180466,-0.8166382758374572
4.515625,-0.631984274191688,0.8951784572953212
4.51953125,-1.4935550132261843,-0.22507438279278993
4.5234375,1.392733885338501,0.27345072215706634
4.52734375,1.7351759042232422,0.5410815830854753
4.53125,1.8152023023674666,-1.0223282804075173
4.53515625,0.30032843851345686,0.9494402882451948
4.5390625,0.3373591202986003,0.07211244751121922
4.54296875,-1.1877935438449152,0.3595248279247598
4.546875,-0.6145294962141111,-1.4840888414774034
4.55078125,0.3066268579956169,-0.7239920985603477
4.5546875,1.8573865355564683,1.4057333012460984
4.55859375,-0.5891945915426127,0.9094974590956116
4.5625,-0.029407852615249395,0.0523746459103641
4.56640625,-0.06393326480512238,1.6248038507696543
4.5703125,0.07213924706099993,0.1355391203224189
4.57421875,0.9617479605414319,-0.9688853724510414
4.578125,0.3949321720223799,-1.0407420119705886
4.58203125,-1.1364989669224295,2.272007775156522
4.5859375,0.6513432007157486,-0.19559906709949879
4.58984375,-0.8249529572296945,-0.5860037400952646
4.59375,0.17034551588115163,0.9211896723971711
4.59765625,1.4161082398330282,1.5296975951160385
4.6015625,0.4876725622207792,-1.018192899333971
4.60546875,1.018163665001283,-0.6519603105487953
4.609375,-1.622201630139745,-0.004054852754711979
4.61328125,0.4599923300937319,0.9121387052835922
4.6171875,-1.8782455964903872,1.0678450569461486
4.62109375,-0.15261349237852898,-0.08657824464585992
4.625,-0.0408387629376708,1.1678187448176867
4.62890625,0.3672619581078253,1.80848715445535
4.6328125,0.8830467659327106,0.1571937794304816
4.63671875,0.518629439413278,-1.51090846962626
4.640625,-0.5938939447703805,1.4208784254668427
4.64453125,0.20663419467538327,1.0616971283852759
4.6484375,-0.7654165398363278,0.01217887571408136
4.65234375,-0.7536454783804795,-1.063130673521469
4.65625,0.014653653892707135,-0.028776612309217832
4.66015625,1.3103961044833572,-0.10725729367112692
4.6640625,1.8555895898561334,-0.6567307231766273
4.66796875,-0.5614036701403894,0.0016859832844423283
4.671875,0.7562179448878197,1.8578285171793412
4.67578125,0.9687204711857308,0.05090154932724392
4.6796875,-0.6946112281980314,-0.6013788647584629
4.68359375,-0.13005148261577998,0.18472697215544773
4.6875,-1.6922968860860883,-2.303236697319877
4.69140625,-1.398950405534255,-1.2968769233664121
4.6953125,-0.8960269357925564,-0.10619170926235506
4.69921875,2.3318530764185375,0.12775096010519357
4.703125,0.7076091141600992,-0.42701741929109277
4.70703125,-0.13357128585441483,0.23325298454766455
4.7109375,-1.081316517472515,-1.1721584165398635
4.71484375,-0.9691084727144326,0.04975000239650125
4.71875,-0.11593176166943218,1.3435753405100253
4.72265625,0.978700113145453,-0.4968003634327516
4.7265625,-0.26356633541803925,0.3989024288389877
4.73046875,0.38555715016941156,1.1275489089911983
4.734375,0.9239947703999508,1.233213508583325
4.73828125,0.011971182989349669,0.490525952870218
4.7421875,0.16963944346588009,-0.4270843885692731
4.74609375,0.9244023188842005,-0.1797400840451395
4.75,-0.4336046070259579,-1.1594448482089483
4.75390625,0.18790744754232214,-0.08307402150546248
4.7578125,-0.3604211740879622,2.1021027142749036
4.76171875,-0.34980458453992813,0.5957056755234604
4.765625,-1.388631481612567,-0.7240363082852217
4.76953125,-0.42071822947535054,-0.8828104286643802
4.7734375,-1.678049184894727,-1.6831933903757443
4.77734375,-0.6928091691770225,-0.8840718355664362
4.78125,-0.14745561128577603,-0.9652125790080789
4.78515625,-0.000743701311577527,0.43397204728354916
4.7890625,-0.4373083170665364,0.6375579512317053
4.79296875,-0.8256056664722503,-1.0598762549356666
4.796875,1.4353544265145801,-0.7413209157668855
4.80078125,-0.697637085794867,-0.6445745421783998
4.8046875,0.46215872836095345,0.25488953671954223
4.80859375,0.38675792682551785,-0.34643970431746407
4.8125,-0.42283642616158706,0.2751890430974819
4.81640625,-0.059877338265863854,-1.0272717718665136
4.8203125,1.2627855709435405,-2.5569462837709342
4.82421875,-1.3897014147131457,-2.8046652750489303
4.828125,0.19419205858156427,-0.08906920886562714
4.83203125,0.2039676519634683,-0.5416123062639121
4.8359375,-0.557973381409191,0.6639452264133044
4.83984375,-0.050214088245564455,0.6448996549656969
4.84375,0.9138938851719299,-0.8046175657523236
4.84765625,-0.8109493958801506,-0.6290774504445382
4.8515625,-0.8308253475813949,1.168255617850017
4.85546875,1.601218235455817,0.37486881353746876
4.859375,1.4340911408322907,-0.8140756296956244
4.86328125,0.9701679287464452,0.06596056468228594
4.8671875,-0.4609099881218852,-0.8052745621683787
4.87109375,0.7509731106898521,0.7169545054366709
4.875,0.46790454944227167,0.9253233412249386
4.87890625,-2.0138454179305687,-0.8890855989961771
4.8828125,0.5496009048109476,-0.6194670881766612
4.88671875,0.5433741512876252,-2.4765404938551305
4.890625,0.4685845091004099,-0.24549680923792003
4.89453125,1.1796649851355598,-0.46489190731805863
4.8984375,1.1003261061054894,-0.46119977769757403
4.90234375,-0.1748173170891848,-2.346329780044846
4.90625,-0.5668214813799091,-0.561245744287179
4.91015625,-0.4012616405054795,0.7445417005687951
4.9140625,-1.5289667570869627,0.7836037281500089
4.91796875,-1.0829276798009722,-0.3033687776818792
4.921875,-0.274072078335567,1.8536869607683255
4.92578125,0.5183844826139175,0.5061257133254858
4.9296875,1.282514101053471,0.14866765359177847
4.93359375,0.14027527799884829,0.0252093575877251
4.9375,-0.31035196692259054,1.373291970824776
4.94140625,1.1321203146694523,-0.7292150794612051
4.9453125,0.01594988827043494,-0.0005069619303852596
4.94921875,-0.22513060117159503,0.3658005919101015
4.953125,-1.5560568337057923,0.678889949427186
4.95703125,1.2853048628126924,-1.750869546406907
4.9609375,0.7250380264993329,1.415774183191561
4.96484375,0.7217770196824311,0.7077819655207794
4.96875,-1.2453140684061461,-0.47165861457208635
4.97265625,-0.26560101717831114,1.035279275836268
4.9765625,0.500411700736954,0.08828743439136306
4.98046875,1.0698434015080718,-0.21528908974193436
4.984375,0.8971954742392869,-0.14661770576056174
4.98828125,0.7179904081230244,0.07906090466289584
4.9921875,0.584021437951101,-0.9723589940855932
4.99609375,1.1631380235325541,-0.9065430045878392
5.0,-0.7261305844786198,-1.1131741165463835
5.00390625,0.7556257718305266,-0.09408876058261087
5.0078125,0.7044793438055116,-1.1493225982619524
5.01171875,-0.27124021265473264,-0.7944045456270634
5.015625,-0.13289047098935863,0.2816988053032935
5.01953125,-0.1932048409310975,-0.6153254124865
5.0234375,-0.07226851746164373,-1.9383497806086953
5.02734375,-0.6257960967932901,0.7719378552775995
5.03125,0.9264040829513452,0.6353983142450423
5.03515625,0.5294864558393,-0.44654154869956036
5.0390625,0.3930011653733256,-0.3144450326888611
5.04296875,0.2875197916018612,1.7512303045894424
5.046875,2.41170745048596,-0.5223400428049283
5.05078125,0.8264761658025456,0.1374080242157052
5.0546875,1.1303400325074475,0.45649155897881344
5.05859375,0.8529798901989774,-1.3114350039047313
5.0625,0.002734627675391175,1.2184819710899846
5.06640625,-0.6709749033180985,-1.8313934581030913
5.0703125,-0.9541992452616507,-1.05618894562467
5.07421875,0.05608590879702149,0.1039724386366156
5.078125,-0.5425506040423599,0.820423226927964
5.08203125,-0.9864736751252486,-1.8059938172096843
5.0859375,-0.6207397100198924,1.855462021530843
5.08984375,1.4412178247955982,-0.23512889155182454
5.09375,0.07500627187358064,-0.20254159287365134
5.09765625,0.03825857478404024,0.07232713529376708
5.1015625,0.7257154994795849,0.3699245152239677
5.10546875,0.1732355557136311,1.0125168480788589
5.109375,-0.8663733597956923,0.09252117320589232
5.11328125,0.6351862704324488,-0.9105645607231754
5.1171875,-0.6852189250863321,0.6390765502021816
5.12109375,-0.0286611128841018,1.293605850593489
5.125,-0.7699196691138785,0.10477866957915938
5.12890625,0.03668391058175002,0.5296761767715445
5.1328125,0.5423221178813404,-1.6430283069566223
5.13671875,0.8754796113815364,0.34330575026914556
5.140625,-1.5761872986138945,2.480042179126581
5.14453125,0.9001945288052972,0.24216124008278417
5.1484375,-2.030341412133099,-2.0904005741026555
5.15234375,-0.41059382762796415,1.0463634686543832
5.15625,0.5268978835034481,1.2741941197292355
5.16015625,-0.5619377782498826,-1.463970550626101
5.1640625,-0.22819825248873685,0.4885446125809175
5.16796875,3.037850778910904,-1.1333802346150066
5.171875,0.39382243695319924,-2.251223250819596
5.17578125,-2.110588600124811,0.020164807559095884
5.1796875,-0.43181893655167997,-0.381825625796726
5.18359375,1.122483598342252,-0.5173786271914579
5.1875,1.26490195875859,-0.17978045434536233
5.19140625,-2.083451299413341,-0.14770568673359688
5.1953125,1.758763575348815,-0.996486985404982
5.19921875,-0.6510166641939258,0.8667926609362687
5.203125,-1.3715287841883659,1.2406458182992421
5.20703125,-0.5981781585687318,0.16204094181720588
5.2109375,0.6767506863965684,1.341812364324704
5.21484375,1.1833096620623502,0.6597888500306195
5.21875,0.5498002054323325,-0.7071290213117333
5.22265625,0.6527162700963335,0.11249445354209076
5.2265625,-0.6005608882485947,-0.9338949343020997
5.23046875,1.0346876158473244,0.293686364891891
5.234375,0.06783986957800635,-0.12793578003455094
5.23828125,0.1614160384250673,-0.6193632839705344
5.2421875,0.7170393028913794,-0.9170268160434667
5.24609375,1.599563079096556,-0.26901530897400366
5.25,-1.1130719992652962,0.3952499799935784
5.25390625,-0.7090692357452193,-0.049202206560114724
5.2578125,0.3518484326506569,0.2448066305490417
5.26171875,-0.4303498281956726,-0.6835300395541547
5.265625,-0.009602906988220002,0.5548648843755823
5.26953125,0.22620042509387217,0.35258565242792295
5.2734375,1.1009069140499281,-0.17831673234777937
5.27734375,-0.7341474128050757,0.500225141072983
5.28125,0.1347456078535659,0.514286000194301
5.28515625,0.647702431796897,0.27423434482781484
5.2890625,-0.03306657493503287,0.2078341058897733
5.29296875,0.0874740190026205,-0.9516381160030829
5.296875,-0.09789432327729115,1.0763101056503763
5.30078125,0.1914801846355078,-0.15354545547610177
5.3046875,0.015517343141367473,-0.43656900035537644
5.30859375,-1.2172000964932772,1.9128588276401042
5.3125,0.6499471751034618,-1.6400608019052452
5.31640625,0.3648890049423918,-0.821757876045767
5.3203125,0.07510028673316016,-0.7162954740131502
5.32421875,0.7688172938000517,1.4713145543829622
5.328125,1.3553435758291061,0.4657819798874058
5.33203125,-1.1463883914888178,0.43322677018604766
5.3359375,-1.4976786589929107,-0.38069709812820846
5.33984375,-1.8859041039421272,-0.4280789503769575
5.34375,-0.9506331580442601,-0.44383077818657224
5.34765625,1.5720220511113048,1.1158039004213651
5.3515625,-0.736390108046469,1.1797351379976964
5.35546875,0.817438700797349,-0.9350393191068629
5.359375,0.5169697681010614,0.10435371569166055
5.36328125,-2.6072640492089767,0.48579879571011686
5.3671875,-0.4437569167443385,-0.19793595474880596
5.37109375,-0.02476271171888389,-0.4279232628389977
5.375,2.0747903150966422,2.454411737471016
5.37890625,1.346496178383343,2.46928516537114
5.3828125,1.0378461311240597,0.037650952402410766
5.38671875,-0.8845811619335088,0.20781615542342913
5.390625,0.5214656255158114,0.0755236205063824
5.39453125,-1.0280434565661216,0.04692189821002679
5.3984375,-1.124090903766403,-0.06268488155579721
5.40234375,-1.274268930169035,0.35095341491664683
5.40625,-1.0788751795881717,1.012146156497128
5.41015625,-0.7997811035904043,-0.582517531590595
5.4140625,0.48617636594851016,1.386565441355473
5.41796875,1.0243427997326626,0.1270523713692744
5.421875,-0.1326433838916868,-1.3615942438178525
5.42578125,-0.2311046244980462,1.6663053111912163
5.4296875,0.6920356402228055,-0.020851591941722942
5.43359375,-1.0917369575289653,-1.7620943470659467
5.4375,1.1415196207876888,-1.0204841167217107
5.44140625,0.2320335317697981,2.152824857504757
5.4453125,0.23361363114127884,0.44978244137068224
5.44921875,-1.1401245656128556,-1.2310676532422544
5.453125,-0.35145395178379113,0.21187451945851415
5.45703125,1.8787001298360815,0.6394026412875445
5.4609375,-1.0561350920018593,-1.0460327113622623
5.46484375,-0.06227464335912365,-0.9638426829517465
5.46875,0.10475882663698417,-1.0506807243754805
5.47265625,0.794925227266288,-0.5054010344868025
5.4765625,0.16957366715573702,0.2930129813948989
5.48046875,-0.08008577723720528,0.4248742159329221
5.484375,-0.055500346571890555,-2.431335475281896
5.48828125,1.5837703731484942,1.7174919025186526
5.4921875,0.32175638459350764,-0.07740839609881996
5.49609375,1.6281958773131906,-2.0503784341736955
5.5,-0.5546884156804411,0.4026804539696748
5.50390625,0.21135004221220025,-2.2561885434966524
5.5078125,-1.061719941428196,0.8307805683644737
5.51171875,1.3851995251258247,-0.9211948843122223
5.515625,-1.1432245987698961,0.15132229065766525
5.51953125,-0.8999571808048819,0.8061159824502717
5.5234375,0.047136683556078224,0.7672057646894779
5.52734375,-2.061498403900645,-0.11703506731916384
5.53125,0.4714000091574615,1.2029174802135671
5.53515625,-0.3067692599013373,1.4525498584002992
5.5390625,-0.013143001792146836,0.31505013400253445
5.54296875,1.3106000924866887,-0.8519311446760915
5.546875,-1.303309702357496,0.5697721497295044
5.55078125,-0.021790092506324393,0.10847924295257919
5.5546875,-0.30640993711492354,1.126360673619358
5.55859375,0.8305483230861926,0.3415153474659082
5.5625,0.8498510442398678,2.502458414795832
5.56640625,0.7614078396027874,-0.03088028714220772
5.5703125,-1.1796444498014678,-1.277843923420429
5.57421875,-0.4291982544967372,1.3752594262433484
5.578125,-0.1859605324621285,-1.2977018216634704
5.58203125,-0.6297149858937988,1.0578179205650706
5.5859375,-0.011730732294266724,0.11436384938333931
5.58984375,0.6118361465369039,0.23087406090700638
5.59375,1.4120893687478124,-0.003700931620884677
5.59765625,-0.14586050540966847,1.8016709723721331
5.6015625,0.5961909817345904,0.30280372008996825
5.60546875,-0.10287069201778334,-0.34671873717978596
5.609375,-0.3390537030994136,0.9241764403650166
5.61328125,-0.41547857054754117,-1.229148858590188
5.6171875,-0.03363024528415379,-0.11436337037045957
5.62109375,-1.5997142630790777,0.268145235747238
5.625,-0.3625193139368537,0.3375416941396617
5.62890625,-0.5989340985800145,-1.0627332692542126
5.6328125,-1.3618063473601214,0.2908648723690275
5.63671875,1.1496018062887348,-1.049094039616326
5.640625,0.40726280679229654,-0.38852384164345255
5.64453125,-1.7427579985588033,-0.6720366035575266
5.6484375,0.23511364083037492,-0.21454640870230005
5.65234375,-0.03833165728167602,-0.2567483440237859
5.65625,1.356925470658329,0.8511159308888564
5.66015625,-1.695547025687146,2.068909846718023
5.6640625,-0.4418126639241044,-0.7930173535189189
5.66796875,1.5258170477754316,-1.512150194932271
5.671875,0.061976509154920346,-1.49288148379332
5.67578125,1.6590788184347496,0.6997052485159758
5.6796875,1.3498266692402563,0.45086455343702164
5.68359375,0.17423503455988984,-0.0720216103578515
5.6875,-0.30691421116460743,-0.5398212185646833
5.69140625,1.9609880937453974,-0.6707966609069552
5.6953125,-0.1477152512676463,0.21996188987324894
5.69921875,1.000214218171824,0.14453275850058886
5.703125,1.6026634618684452,0.08961279129355838
5.70703125,-0.7338195344243906,-1.3428622007400017
5.7109375,0.7355468152625011,0.7834880929604022
5.71484375,-0.7987527174438704,-0.05344396267860099
5.71875,0.5091760121330973,-0.18045193459862932
5.72265625,-0.17772502839591833,0.6630004671433263
5.7265625,0.313686893509774,0.31165522067184626
5.73046875,-1.588348513712721,0.9222226253479252
5.734375,1.7497871754375345,0.268833027761016
5.73828125,-1.98295620572868,0.7684160297488066
5.7421875,-0.32412400860752194,-0.4428905839209081
5.74609375,0.041078369301697136,-0.3324903519363974
5.75,-0.08674449900895309,-1.1271029785528681
5.75390625,-1.5856934365672857,-1.0142134479401617
5.7578125,0.2770141967105224,-1.4969906051447808
5.76171875,-2.019510269701133,-0.6666658449598001
5.765625,-0.5840799477379776,-0.013846731831037557
5.76953125,1.2435368246342873,0.49789124015640535
5.7734375,-0.015208864490531727,0.3084545798693513
5.77734375,0.12528963545588853,1.9745253696408327
5.78125,0.9510287950219013,1.0158594886732712
5.78515625,-0.4801736968923885,-1.4531616774372293
5.7890625,-0.04649777359566359,-0.14710001525999933
5.79296875,1.6502957151644357,1.0566073929191806
5.796875,-0.5578480673429905,-0.9393888551241192
5.80078125,-0.003699531794929866,0.7755968930414786
5.8046875,-1.098014892292778,0.8258395413491312
5.80859375,0.6472162218083475,0.10117254980541683
5.8125,-0.5103720660919546,0.8572395904467076
5.81640625,0.05484869704990845,0.9056964097285553
5.8203125,1.2966464872116765,1.4301128397663003
5.82421875,-0.9028779292716773,1.7859442997017911
5.828125,-1.069032320913964,-1.06906100863118
5.83203125,-0.24299631626661386,-0.07426167669548964
5.8359375,-0.11044692201899307,0.9418332288277539
5.83984375,0.6674366536402353,0.22207829660924966
5.84375,-0.9609324859608586,-0.0682848312898113
5.84765625,-0.48282807725525706,0.1889205563725861
5.8515625,-1.501144269136917,-0.45635078672312135
5.85546875,-0.7243256106888034,-0.08639394650158526
5.859375,0.17936396626516704,0.5859185041589631
5.86328125,0.2845004728159348,-0.7927989715634051
5.8671875,0.5764244904528194,-0.983933123039938
5.87109375,-1.6989851797165152,-2.1236374684696973
5.875,-1.884337682593991,1.8001885319700357
5.87890625,-0.5293674291232449,-0.17204054828510626
5.8828125,-0.9589744526477084,0.8952220753852834
5.88671875,-0.0441830182074928,-0.6069950600876701
5.890625,1.0168325817693527,-0.3869098623591909
5.89453125,0.9855389622709102,0.03032299725318332
5.8984375,-0.4225876229129215,-1.325138811834204
5.90234375,1.1532994599985527,-1.0028671420688227
5.90625,-0.5740675532193558,-1.240822197814547
5.91015625,-0.5857902241997122,0.4439680686536323
5.9140625,-1.4472254076242537,-0.2025885355671794
5.91796875,-1.8400467111326155,-0.2026639876021739
5.921875,-0.529969648057413,2.5475629395800976e-05
5.92578125,0.8937632514273014,0.6540783063424728
5.9296875,-1.121139696451757,-0.3587831565660503
5.93359375,-0.5487521011052988,-1.0034296008299326
5.9375,2.632728424554603,-1.4943243336287144
5.94140625,-0.022664158631410927,-0.7160903516995568
5.9453125,-1.0865707793602892,0.09889298830378063
5.94921875,-0.11912131248097574,1.5040115442776434
5.953125,-1.5161280883685253,-1.0203491346593125
5.95703125,0.8281085633830083,-0.1813069297547401
5.9609375,0.6333575988197634,-0.7086570442088171
5.96484375,1.2400185063674376,-0.8279226709327296
5.96875,0.15294494467802064,-0.6830154168918051
5.97265625,-0.9336616612996783,2.817561541215345
5.9765625,1.3438025939867893,-0.9486278715652305
5.98046875,-0.8594796540041323,1.4174529147686683
5.984375,-0.2980709478495664,-0.17236183316659182
5.98828125,1.9677270828543663,-0.0017078247031937323
5.9921875,-0.28550490637823867,-0.9751245031946367
5.99609375,0.8429432412559149,0.026164465620983672
6.0,-0.9051512699669441,-2.49807540852742
6.00390625,0.5688342102564156,0.40153819000548485
6.0078125,0.013585892748437432,-0.20184078175747394
6.01171875,-1.1137751011227532,-2.018108651280963
6.015625,0.4716921021197091,0.60611379133543
6.01953125,-0.6262112019802625,-0.15576577887553544
6.0234375,0.8067905612278014,-0.1542725661523333
6.02734375,0.06410500769650272,0.4015785276217588
6.03125,0.08550455148450664,-0.8181553904121152
6.03515625,-0.30723678580778446,-0.6389766735627422
6.0390625,0.14262250836799775,-0.24827128752566707
6.04296875,0.7020625707725962,-0.5641499143067665
6.046875,2.240974676480274,-0.20928957924468317
6.05078125,2.3893416968517496,-2.290714270156798
6.0546875,-0.13331002051075172,-2.3322665032096714
6.05859375,0.32157195810299316,0.3264987789463558
6.0625,-0.6386428346452527,1.528006055365959
6.06640625,-1.725421556270189,1.0185337882063477
6.0703125,0.06473212427784912,0.2770310452483121
6.07421875,0.26005666250623016,1.9398889279652647
6.078125,0.5460523130075554,0.058928875787888024
6.08203125,-0.9709566589583912,-0.20711560208728028
6.0859375,-0.18552285122984644,-1.0658648607347625
6.08984375,0.37820358810431803,-0.8577549584281817
6.09375,-0.861125821964658,2.4777043120975804
6.09765625,-0.07459006993518907,-0.498839415818403
6.1015625,1.274681062503418,-1.0177018815858445
6.10546875,-0.12449558703271639,0.5727499447898974
6.109375,1.4355525941520713,-1.335888251776142
6.11328125,-1.0289637403863308,0.30469466967679965
6.1171875,-0.40992540522103343,1.5196747332864264
6.12109375,-0.2608777305975599,-0.8651538070702225
6.125,-0.34435136722889503,-1.030402806630602
6.12890625,-0.7119331954995148,0.1139351108516137
6.1328125,0.8930817968870743,0.007718460887326712
6.13671875,0.9377389081853825,0.6208393159947626
6.140625,-0.546371153281776,0.760507074507308
6.14453125,1.06631756396064,-0.1325358220868889
6.1484375,-1.8875852551806962,-0.9074726449859536
6.15234375,-0.8216386909928389,0.727628386475277
6.15625,0.6004270380191473,0.43008539366332355
6.16015625,1.957171093574681,-0.09323001701177142
6.1640625,-1.1499358870584255,-0.6431554027103019
6.16796875,-0.051310301647544146,-0.9093235740413766
6.171875,0.9768612294508027,0.9382226885691163
6.17578125,-0.9627974264190499,0.7459771244663695
6.1796875,1.192950755583391,1.592437213130194
6.18359375,0.09389460540248376,0.23862274814326856
6.1875,-1.4905619592297896,-0.09083986941188857
6.19140625,0.1063159190134647,0.047868998333354
6.1953125,-0.45138524001330443,0.5205383027213304
6.19921875,0.40059018818079395,-0.6734578806465235
6.203125,-0.8208067214575658,-0.17170525706033188
6.20703125,-0.4975865260444942,0.37880954418489865
6.2109375,-0.15585117008336918,1.6724171431302908
6.21484375,0.4088881017391017,-1.6442104867631695
6.21875,-0.8234311481487624,-0.3260874986932961
6.22265625,-0.02623436049256775,1.8756951551585677
6.2265625,-0.5012990565634877,-0.08736294725284553
6.23046875,-1.6051522070847497,-1.2757733821808044
6.234375,0.09616445949405741,-1.604123646237824
6.23828125,-0.8755837746225553,0.16121753920521714
6.2421875,0.6490460479646496,0.42072016702460246
6.24609375,-2.030599598313357,0.7850103162606061
6.25,0.7904718418280903,1.2436535787352805
6.25390625,0.11303884299138557,0.7042738785112785
6.2578125,0.1540827873886188,-0.5522155286949496
6.26171875,2.018839572111164,0.5405754637814769
6.265625,1.935745230484824,-0.7102874578816624
6.26953125,0.35377899628713394,0.2423955465131276
6.2734375,0.6536757161787772,1.893643118218496
6.27734375,-1.5072891434206586,1.4535771816277328
6.28125,-0.649782091180392,-0.27401330243675864
6.28515625,0.196547465529593,-0.31458477698006104
6.2890625,-0.5450536244585209,0.18376744632945335
6.29296875,-0.4283234099220882,-0.2709577683327068
6.296875,-0.5456186754703817,1.428875058827474
6.30078125,-0.22214021440590567,1.3830902220654113
6.3046875,-3.237534703956591,-0.6479996409198026
6.30859375,1.42932117912265,-0.705265562039019
6.3125,0.5859140885597315,0.2715378707957747
6.31640625,-1.0978217989945405,0.7963853780906645
6.3203125,-1.0551473684567279,1.2308973905526857
6.32421875,-1.516724805612242,0.45771207361977667
6.328125,-1.2760892928322078,-0.737207800359875
6.33203125,2.211991686538261,-0.6848967784304635
6.3359375,-1.3138559258589624,0.16762927639405148
6.33984375,0.32038924419315884,-0.6724502458857335
6.34375,0.7188255209657457,1.0769171958440706
6.34765625,-0.9213524127298512,-1.3351880671993699
6.3515625,0.3716442073981973,-0.5162454619137695
6.35546875,0.3213455885235403,1.5457550876851258
6.359375,0.8638144957410768,0.679079907846275
6.36328125,-1.4952186706196866,0.995606174799985
6.3671875,0.18545433858569912,-0.28284448931345574
6.37109375,0.6335141386338068,-0.8561620058568291
6.375,-2.2651658400646015,0.7545296019834064
6.37890625,-0.038294681923833514,1.5548424749595025
6.3828125,1.0376678497961072,0.10491298789291986
6.38671875,-0.2148315849074925,-0.9475268491558407
6.390625,-1.3300791944197952,0.03624498221857118
6.39453125,-2.4217780856002644,0.437913188039164
6.3984375,-1.9573109572490763,0.2673783214683114
6.40234375,-0.020843161376975578,0.5504886472510911
6.40625,-1.586170328237449,-0.317849894673707
6.41015625,1.0936009821722636,-1.1355664832163297
6.4140625,-1.7582002210532564,1.0490390585817846
6.41796875,-1.7476539912637086,1.1187881684411949
6.421875,0.14980545747513327,-0.9994155854842108
6.42578125,0.7700749990927506,0.36956399639254467
6.4296875,-0.7142544623487082,-0.7198285750049954
6.43359375,1.4217001288704636,0.30919007199130233
6.4375,-0.38917273118195844,0.6789205327998414
6.44140625,0.3908393706827398,0.32554916220134544
6.4453125,0.78383445703358,0.07478648830249265
6.44921875,1.7089472279855638,-1.3289608153812116
6.453125,1.0520496162181716,0.32081108942543696
6.45703125,-0.989103568647263,1.7810971605122257
6.4609375,-2.5028809909036713,1.7531774401899467
6.46484375,-0.8839614142252961,-0.004139517411653803
6.46875,-1.4159179625811404,-0.11013273308872727
6.47265625,-0.3778013502520221,-0.2086955596330114
6.4765625,0.32626472807063467,0.5983960963994528
6.48046875,0.04076312647420971,-0.3318670623277561
6.484375,0.8022610640615747,1.3964570839719892
6.48828125,-1.4065539708963388,1.8213260525603658
6.4921875,1.1110233074752534,0.25894914104173805
6.49609375,0.26047832171427776,-1.5537053873997386
6.5,-2.0138846395275056,-2.1073065465206557
6.50390625,0.7605271937017378,0.6796485392815675
6.5078125,-1.3215631261841707,-0.6972850501484443
6.51171875,0.7248914688368534,0.006624643110984125
6.515625,0.204627648819497,-0.3737357086004399
6.51953125,0.9213424411348965,-0.4204168774375993
6.5234375,-0.8303384473030238,1.2495731194534103
6.52734375,-0.8083709124959165,1.4703619852062222
6.53125,-2.8307038889892118,0.43144569995757326
6.53515625,-1.1609327058524188,-0.8011892777587273
6.5390625,0.7353517507207527,0.3661125587778829
6.54296875,1.8999102546841682,-0.3215130344903752
6.546875,1.053006757099363,-0.09153698491014783
6.55078125,-0.25580354932409943,-0.26537438277664005
6.5546875,0.9002124402483049,0.5210694376501571
6.55859375,1.889339594875514,0.3143192026125411
6.5625,0.3510799404903966,-1.620194132354595
6.56640625,-1.54799837706755,1.4640132362158957
6.5703125,-0.47126474688248926,0.02369367160856292
6.57421875,0.6533407967281659,-0.23521525397476817
6.578125,-1.1171307715699335,-1.076181284829649
6.58203125,-0.04358601712741571,0.47313556327714446
6.5859375,-0.539238049867711,0.4430544055946816
6.58984375,-0.012943974085316359,-0.15314104479176088
6.59375,-0.4716912288138388,-0.36831415239143644
6.59765625,-0.6497130831236161,0.053943750823602005
6.6015625,-1.037687713775585,-0.6407115654433048
6.60546875,0.5117806462700661,1.4572528394624376
6.609375,0.6055876665999823,0.5550207810267132
6.61328125,1.1160596293013014,-0.8948696696786249
6.6171875,0.7303103545466141,1.4237557635911113
6.62109375,-1.7438161177398133,-1.1762579173987195
6.625,0.5468380468068177,-0.06714493151965856
6.62890625,-0.6450925434164069,-0.3178868401584977
6.6328125,-0.5849488930250761,0.5083790105829191
6.63671875,-0.2212446448531774,-0.9851389998433889
6.640625,-0.5754277396025994,-1.7511915530043656
6.64453125,0.06659300813207461,-1.1367898117725626
6.6484375,-0.5430793223429151,-0.3177507822956417
6.65234375,-0.6978615245159052,-0.11868298524416035
6.65625,-0.9526435307629788,0.7185814858090012
6.66015625,1.464675310447472,1.9849922907589803
6.6640625,0.6946032189211725,-0.7038429016090144
6.66796875,-0.6859746459401548,-1.7213091548384274
6.671875,0.6842049923826334,-1.7977102141343355
6.67578125,0.7277864762034827,0.047005335856248345
6.6796875,-0.28635766147443203,-0.994545380195256
6.68359375,-0.9555538305794614,0.754270063600322
6.6875,-1.2419083838195333,-0.3695077130733464
6.69140625,-0.9207107229887318,0.05993556276186808
6.6953125,0.48928137320817755,-0.14406334127331497
6.69921875,1.10945876109971,-0.448334782838261
6.703125,0.15628285801989802,0.8533103637443548
6.70703125,-1.0768723610467814,0.21005274600373475
6.7109375,0.20515085897095725,-0.012668516272435414
6.71484375,-0.29600444761431166,-1.049209222298918
6.71875,0.8393840596475788,-1.1234909909089765
6.72265625,-0.7836747291804258,1.4416582286818391
6.7265625,-1.1274794108533344,1.082042673943122
6.73046875,0.4318786053236689,0.9345932740452356
6.734375,-0.3745547294552012,0.38357409267405956
6.73828125,0.3122855945836382,0.43908450637270374
6.7421875,-0.33446451283790424,3.104430671995913
6.74609375,-0.4963819507289296,-0.7536139559538412
6.75,-0.09456737305372595,-0.3672132171739874
6.75390625,-0.16440582402593776,-0.6808560155716299
6.7578125,0.8940146045739493,0.2798010468381087
6.76171875,-1.1390105634597003,2.017070904023518
6.765625,-1.0827113228028917,-1.2954795537389896
6.76953125,-0.0866727358328933,-1.84719441876034
6.7734375,0.9724678011651898,-0.596383931064739
6.77734375,-2.452820641019341,-0.22167007806656663
6.78125,0.6402606101365055,0.282098286026863
6.78515625,-0.31106815440845426,1.718043706063498
6.7890625,-0.07653083159087658,0.15431328255229973
6.79296875,-0.3224547070253603,0.4103573722371691
6.796875,-0.0097320958346453,0.3435050152032136
6.80078125,-1.4355222249367705,0.037472572069775674
6.8046875,-0.603516399257348,-1.6475046148029422
6.80859375,0.5218794969534171,-0.40096573587769224
6.8125,0.43832609689181146,0.884409863346801
6.81640625,0.4695974053656215,-0.4849410911387437
6.8203125,1.0323355922022104,2.790161633177947
6.82421875,0.5703022972394776,-0.009484672193872353
6.828125,-0.7516625201122622,0.2792594522240559
6.83203125,-0.19272642513429955,0.4967182227497963
6.8359375,1.0428734873739742,0.34424680294121585
6.83984375,-0.01916609372595138,-1.5053095850966376
6.84375,-0.44758643748302757,0.495615612481463
6.84765625,1.851096452578121,1.1644928810986321
6.8515625,0.43458637693943786,0.11166739129676889
6.85546875,0.3817306726445269,-1.7454453162853911
6.859375,1.5961682452089567,1.8773739694938179
6.86328125,0.3847872080817434,1.0731948870829269
6.8671875,2.4936153772794403,-0.24492950779257264
6.87109375,0.7475983945536653,1.584314603893295
6.875,0.05207691285381536,0.7900717335925923
6.87890625,-0.10813517504924634,-0.159543584942333
6.8828125,-0.2953632819247286,-0.4154010266022583
6.88671875,-0.5524778487156626,-0.6433593987657809
6.890625,-0.7244505735815477,0.9865496890660521
6.89453125,0.8936173310077373,-0.09160920144381046
6.8984375,-0.35375148039807136,-1.2648004523257412
6.90234375,-1.5369715748664954,-0.28147698206929467
6.90625,0.9029029101208605,-0.7411623843103405
6.91015625,-0.47951046966341937,0.8233665199385101
6.9140625,0.4148566407425564,0.6369217444899468
6.91796875,1.6460523142800176,0.23127740684387763
6.921875,-1.462009506213269,-0.3189017978804461
6.92578125,1.0276611760433678,0.5015389176041396
6.9296875,-0.20495623766936671,-0.23386019577742936
6.93359375,2.4533281546228336,0.3315182937100255
6.9375,-1.3584591352158342,0.8567380412241575
6.94140625,0.2904683252913499,-0.23660536498700374
6.9453125,-1.1208941519603557,-1.9990962874060825
6.94921875,0.44890476959373127,-0.01676809375342131
6.953125,-0.9878023074998827,0.2674813145802146
6.95703125,-2.3465544961695937,1.1288825730812677
6.9609375,-0.12374806232659348,-2.0952711843744476
6.96484375,0.3700535986346045,-1.5907284075829804
6.96875,-1.4961789783539767,0.9398740576022481
6.97265625,-0.7601588850736415,0.3814588430448485
6.9765625,0.8168974486522049,-0.588499097365646
6.98046875,0.27542336879493706,0.2428098722829775
6.984375,0.3128796840781139,1.5282740976911076
6.98828125,-0.3825781652648103,0.7550523867304414
6.9921875,-1.8948118050463671,1.3616005978192312
6.99609375,0.9763429540781473,1.0675472788491416
7.0,2.1497244358013456,0.0929395343352142
7.00390625,0.23727369532126755,0.04664458126998586
7.0078125,0.0924605003573514,1.0656410180278517
7.01171875,-0.4330333797583537,-0.9635336005498681
7.015625,2.104199628225682,1.2161283426387122
7.01953125,-1.2755879638285326,1.9952605809308184
7.0234375,1.0963213365826634,-0.24938897255488726
7.02734375,-1.3610301448628292,0.0767568366097551
7.03125,-1.1421216714455409,0.01791867596006676
7.03515625,-1.2164793398526657,-0.029526172116843177
7.0390625,-0.7270306233550797,-1.2703710119281908
7.04296875,-0.9413139766964018,0.09685635465653276
7.046875,-0.7114908031002503,-0.41440418054336203
7.05078125,-0.1237264475367913,-0.36800774383843887
7.0546875,0.36365764439342035,0.6846299902678533
7.05859375,1.230013760298446,-0.20908969974963956
7.0625,0.6455755976161531,0.1396334779270425
7.06640625,-0.23591865434207165,0.09607327881173516
7.0703125,0.1372290512649357,-0.11927617861800731
7.07421875,-1.4012871776619178,-1.5385563886191727
7.078125,0.7652321997938168,-0.8266898122466634
7.08203125,-1.7833857228801009,-0.27875135163004205
7.0859375,0.9718943472090911,2.478520775238369
7.08984375,0.4959827308852703,-2.573236710637622
7.09375,-0.3652219858776846,0.3692630183609109
7.09765625,1.3069105777606564,0.8285744893311976
7.1015625,0.5112199774334264,-1.105110108995955
7.10546875,-0.7960791950742678,1.7220667781831525
7.109375,1.0037972137308853,-0.8049718317480837
7.11328125,-0.42900533267769,-0.8884263254184682
7.1171875,0.7676270038160882,0.6636567735740522
7.12109375,-1.483086729241056,-0.3253505927971795
7.125,0.550866167172761,-0.8586640881435776
7.12890625,-0.31152894557597305,-1.4317721825448337
7.1328125,-1.4397045182528334,-0.9471185060483774
7.13671875,1.9592685808173513,-1.1776873548119076
7.140625,-0.6454277917134977,0.07030250292935297
7.14453125,0.027774682282545652,0.615040918753389
7.1484375,-0.40441184975363603,0.7143784484941347
7.15234375,-1.6711262840384318,0.6001062695073046
7.15625,1.266834256573981,-0.05146121322015227
7.16015625,1.2524711969028208,0.42095308186793534
7.1640625,0.5684198510090875,1.0896971743165924
7.16796875,0.6070076700462447,-0.4311398650464462
7.171875,-0.23548192106413118,1.8862639879528
7.17578125,0.27350012517681194,0.8919851724512982
7.1796875,1.5771046878141453,0.23474822245401067
7.18359375,-0.22429291404875654,0.6748639849918547
7.1875,-0.8071435195121495,0.007468234630064744
7.19140625,-0.24719031818135567,0.8111730866117717
7.1953125,-1.9375739925526783,0.5642936070946495
7.19921875,-1.9749244712836156,-0.1636391375852898
7.203125,0.35817796373000366,-0.2535270743943885
7.20703125,0.8155437950906094,0.5544949118026146
7.2109375,0.5134539026513155,0.33872762232324616
7.21484375,0.2179546077084192,1.4535846929303946
7.21875,-0.5944113085686499,0.0905021449441269
7.22265625,0.07414291623069863,2.5893895754255443
7.2265625,0.018287406932723238,1.3085321866921442
7.23046875,-0.6985034109919186,0.47853846763006663
7.234375,0.8197057720323789,0.16352993067683527
7.23828125,1.0853731430879137,0.23415538506617653
7.2421875,-2.651693717044838,-2.216837902722879
7.24609375,-0.6604291601443282,2.1227340461396738
7.25,-0.04040606817369289,1.10276949700277
7.25390625,1.220729201772302,-0.24287345852785516
7.2578125,0.09254412636985358,-0.6717048654578629
7.26171875,1.3639001267884392,-0.8901970678981893
7.265625,0.45870054982930486,-1.4860154660766596
7.26953125,-0.9263277153160411,0.05128144485986968
7.2734375,-1.2629338861451165,1.5580370265733239
7.27734375,0.503020954533761,1.5138806331842578
7.28125,-0.3348952110818154,-1.4378760397095793
7.28515625,0.8534148327925254,0.4532569653354467
7.2890625,-0.838324164626136,1.119251946243737
7.29296875,-0.5213573535627574,-0.20840708146622072
7.296875,0.4708932644464918,0.8227916500546705
7.30078125,-0.4572432106701563,0.06503204347362324
7.3046875,0.018202343506915443,0.29360813533599867
7.30859375,-0.0399969242981933,0.5826791849265819
7.3125,1.0362371680544236,0.24647360934325893
7.31640625,-0.2568523833855341,-0.359322116740504
7.3203125,-1.415560950538184,0.9468545352280903
7.32421875,-1.7554380858360745,-0.20147173163199625
7.328125,-0.7999609866894801,-2.310716213198049
7.33203125,-0.03404903192175124,0.12810254290839174
7.3359375,0.03747622877705695,0.569315319759451
7.33984375,-0.09059243215227494,-2.0104610733108705
7.34375,-1.1921003390749285,1.4060355532903441
7.34765625,-0.9568353132239397,1.7898109702882035
7.3515625,1.0462657450550434,1.0727475872667727
7.35546875,-0.0007350436690021146,-0.9877713604135291
7.359375,0.2943894947719578,0.86277546773448
7.36328125,1.699740446244097,0.23573907807437908
7.3671875,-1.4220438458390576,-0.6121831207510083
7.37109375,-0.7006401419905336,-1.224036952182218
7.375,0.3996270057459535,-1.249092970971051
7.37890625,0.7924764102031832,-0.4052105947223922
7.3828125,2.2832888211236253,2.3389317217849075
7.38671875,-1.693745877632956,1.1689725434893088
7.390625,-0.7872503015367888,0.11927898611524965
7.39453125,0.4677141026609933,1.5631938334379265
7.3984375,1.8291762068935145,0.3933244214025616
7.40234375,0.18535755245476354,-0.29231795775079433
7.40625,2.4090333620399216,-0.10850763473535784
7.41015625,-0.23400100486723602,0.3245580666667345
7.4140625,-0.3259076844602333,0.43939610350329206
7.41796875,-1.0939546602641974,-0.607848738996074
7.421875,-0.39226997453438994,0.6021997092179088
7.42578125,-0.7640007122883026,1.3273509602344107
7.4296875,-1.3340483520798265,0.30101189371825804
7.43359375,-0.2841743133553719,0.16487139527391728
7.4375,1.9421836907603227,0.15395112644213657
7.44140625,0.14673248402054787,1.1253701322293188
7.4453125,-1.358530481523602,0.436937297313614
7.44921875,-1.3596094471350804,-1.1861430345659525
7.453125,-0.9322830779157495,1.3260657253922337
7.45703125,-0.2260183821262487,-0.20361742758026238
7.4609375,2.208053879200402,0.4254926335795783
7.46484375,-1.2522292369947092,1.5681078600698732
7.46875,-0.1060654847419,-0.39838371640209297
7.47265625,1.2699340384321072,-0.27044736344882037
7.4765625,-0.5379894374687499,1.1689533280361508
7.48046875,2.204094672330657,0.6198010944096302
7.484375,1.2418492773713685,-0.40940281043469434
7.48828125,0.017349400798076148,0.024215966154895553
7.4921875,0.841403020425364,1.744609875293598
7.49609375,-0.3535990495065137,-1.3722253662514503
7.5,-1.087369185000904,-0.05651006337807542
7.50390625,0.7706160858449055,1.6788170277717678
7.5078125,-0.6027066203635292,-1.1191804545697495
7.51171875,-0.5727467222888262,-0.01938116073159222
7.515625,0.33929443455802744,1.53732103645237
7.51953125,-0.2677653399195681,-0.4600465775179609
7.5234375,0.07818217124778062,0.33414897689701606
7.52734375,-0.18374237822566633,-2.287440212297078
7.53125,0.5582227331555406,0.6058694541149208
7.53515625,0.0006970268270864759,-0.8662361871518465
7.5390625,-0.8245426704081095,0.3326878423601748
7.54296875,-0.6790515660484936,-0.9609614780321132
7.546875,0.5769788355890781,-1.043063842868507
7.55078125,0.14882662354338608,0.5618208027198417
7.5546875,-0.4671724914911528,-0.33297848318710216
7.55859375,-0.5051292512670427,-1.3367624524046013
7.5625,-0.7969255576321223,-0.431874952605861
7.56640625,-1.2362635380505707,-0.8331428945402999
7.5703125,-1.553260764551929,-0.2577632095836934
7.57421875,1.3863902624004103,-0.4948687544534441
7.578125,0.9239316853194621,0.6122450416090737
7.58203125,-0.3842061797996559,0.039078436306613624
7.5859375,0.5160107908303682,3.3706380517274477
7.58984375,-0.36250274776805846,-1.0670994767138455
7.59375,1.0730562911502854,-1.2927352618294832
7.59765625,-0.6922709547338641,1.6416749579291947
7.6015625,0.5567082162796153,1.1205509330241892
7.60546875,-0.7223626251237765,0.6020776845678585
7.609375,-0.5878107933402308,-0.267944760094288
7.61328125,-0.7656467230521488,1.5348019932902426
7.6171875,2.1742656367282573,-0.06486461952909281
7.62109375,1.8785525127265945,0.49329544416774335
7.625,-1.2756591741032608,0.028159886558595117
7.62890625,-0.03737969418988223,0.03506870235500254
7.6328125,0.7034189712496863,-0.5623526345489198
7.63671875,-0.9376340944214056,0.5017569147551834
7.640625,-0.6285069985013166,-0.4236238384477521
7.64453125,0.550002960744957,0.09380172642463237
7.6484375,0.15025866259536952,-0.35282279392494054
7.65234375,-0.3132717306868328,0.5434288288233411
7.65625,0.34308193052542485,-1.1851312167451762
7.66015625,-0.1037619406704842,0.0010298732783065195
7.6640625,-1.053219022588716,0.08479937092592653
7.66796875,-0.06630731884889368,-1.9111796284356437
7.671875,0.8330769453982958,-0.8809236098247414
7.67578125,0.35641601587893773,-0.12734714669541672
7.6796875,-0.38277394081214494,-0.3582355554680768
7.68359375,-0.6319909405419546,-0.6595902840634997
7.6875,0.36795863064250994,1.163951782328405
7.69140625,1.232005874950034,1.3745390501980894
7.6953125,1.3417661438374597,0.22864275257574865
7.69921875,1.0047202158373147,-0.38684465089377856
7.703125,-0.14484402977764788,-1.1370108778468577
7.70703125,-0.5592621684878306,-0.8209602522395233
7.7109375,-0.7007348341732867,-0.26465237052332635
7.71484375,0.13910715889614947,-1.1680493754739618
7.71875,1.4562360925486917,2.303039869226156
7.72265625,0.6314485437785171,-0.8823966017713661
7.7265625,-0.4819021441118049,0.29752354089447414
7.73046875,1.6904507910320326,-1.328815955269625
7.734375,-0.8344216751029598,-0.6907278920850382
7.73828125,-0.8489701012848986,-0.9296632534731131
7.7421875,-0.17400507611109733,0.42608036206995126
7.74609375,0.8337778021405302,-1.0804165908942105
7.75,-0.6296405816310207,-1.5748171660844084
7.75390625,-0.3044325514828939,-1.4245477724462787
7.7578125,0.5226890873867001,-0.7018183618415678
7.76171875,-0.03760415297889968,0.2747640524345623
7.765625,1.675390089140375,-0.35838317895553273
7.76953125,1.2565407451163257,1.261503661379266
7.7734375,-1.6545305364015455,0.09679395236996002
7.77734375,0.48482961411503656,-1.102500998103492
7.78125,0.6609809893711366,-1.233036552944675
7.78515625,1.69636641902299,0.13352852461765677
7.7890625,0.26866358754702946,-0.6203599230706831
7.79296875,-0.42136501119516934,0.5740306169612068
7.796875,0.9635617623264277,-0.5081473713186725
7.80078125,-0.27522942354106744,0.6107828176464573
7.8046875,0.4558736850961482,0.09077069241831578
7.80859375,0.6903906522472406,0.7645840087459055
7.8125,-1.3251137855076103,-0.5753794973198687
7.81640625,3.021672274096468,-0.7866323325718356
7.8203125,0.3869113443054977,-0.536055483242064
7.82421875,-0.887156796238039,0.02464243902324329
7.828125,0.9307917401941217,-0.9761452819942126
7.83203125,0.9062984246228792,1.0852288257358378
7.8359375,1.072354195593736,1.0892279454318807
7.83984375,-0.19080518769750046,0.9028378372981621
7.84375,2.148220792786843,1.416964704309719
7.84765625,0.5868581116765094,-1.1678387514134174
7.8515625,2.4885609750858495,0.8953796480761212
7.85546875,-0.08784388669099237,-0.44613961968014365
7.859375,-0.8549461824091433,2.0941973338371818
7.86328125,1.1893192087156144,1.157751868291863
7.8671875,1.6512968321782646,-0.44994098450649517
7.87109375,0.1954733047307821,-0.34138772302390813
7.875,1.5263952262404845,-0.02711590950056897
7.87890625,0.7165733185820347,0.347874989020818
7.8828125,-1.1875601727100555,0.10928471832152671
7.88671875,-0.8880068881261267,-1.1957332371819358
7.890625,-0.6871510354271118,0.34254683840483063
7.89453125,0.10118093664503378,0.5533510323925698
7.8984375,0.09745656686920852,-1.02115839369407
7.90234375,0.22478178843658808,-1.449728305322391
7.90625,0.2616745562918515,-1.6518425347293015
7.91015625,-0.42270299849437337,-0.7930015634283518
7.9140625,0.17229311587980004,-1.9918235623706626
7.91796875,-0.9453450515737125,1.8497669223368134
7.921875,0.0006536504844053139,-0.22279104350279808
7.92578125,0.5430436030071316,-0.5444799193379631
7.9296875,-1.204817912051562,0.1326393551202734
7.93359375,-0.016412690825619594,-0.4771336087444403
7.9375,0.03875288114709963,0.984603250491208
7.94140625,-1.148396112637176,-0.5523576141523019
7.9453125,-0.22188962720049218,0.35524580372595943
7.94921875,0.38610153968230465,0.3098167512964909
7.953125,-1.370911854094834,1.1405364237590327
7.95703125,0.02454414478967716,0.02337569436178085
7.9609375,0.6501317114234634,0.6762028529197945
7.96484375,-0.739649483237321,-0.621210275030542
7.96875,-1.6428959565767318,0.24739744185295673
7.97265625,0.18132970061923298,-0.5075419066786767
7.9765625,-0.6416704005927713,-0.07995628515426086
7.98046875,-0.9690414024152154,0.4117534596272025
7.984375,-2.4588808864832465,1.3508552506996891
7.98828125,0.5813595966856799,-1.9049745644013212
7.9921875,0.006261487370969805,-0.8191301381288548
7.99609375,-1.057175248212978,0.4614640113235949
8.0,0.6988774760017914,1.491771928693602
8.00390625,0.8904759061504974,1.1284786190665002
8.0078125,-2.3220097670927418,1.5182318869383764
8.01171875,-1.1156409561625629,-0.00946413029426517
8.015625,-1.4540878352048803,0.9950332014233542
8.01953125,-0.2996959153756187,-0.4057068186937001
8.0234375,-0.828364559364453,0.5625730558699843
8.02734375,0.45329322288225155,2.0693540259843686
8.03125,0.566135578220232,-0.430952865596238
8.03515625,-0.16438584694938338,-2.50778122346065
8.0390625,-0.6223858018601456,1.6648756872651962
8.04296875,-1.6776782497073808,-0.22566634432871474
8.046875,-0.2814091701893816,0.10435928038433291
8.05078125,-0.36697624238156573,2.0153498516139075
8.0546875,0.10749404611629239,-0.09111104703852901
8.05859375,0.5893497143236648,-1.5388362298547849
8.0625,0.416553441273498,-0.18520509258453924
8.06640625,-0.015752738793898477,-1.1064652076205093
8.0703125,1.9091791687906665,-0.210833116524176
8.07421875,0.22778051883742717,-0.5986591808359959
8.078125,0.8231741520059194,0.9061721447684771
8.08203125,-1.0174126242900197,-0.37648961330167285
8.0859375,-0.6183097511779421,-1.3787687767327081
8.08984375,-1.8102704137423775,1.5919622299461793
8.09375,-0.8255258424964732,-0.45307628432314523
8.09765625,1.4956440566152318,0.1057055213924797
8.1015625,1.2852975075782505,-1.5668023595560339
8.10546875,2.3613455423750795,0.020769534677706234
8.109375,1.1613368779023596,-0.7374181523195786
8.11328125,1.3744401114424847,1.1351752403925324
8.1171875,-0.004013493864003246,-0.2764007707186358
8.12109375,-0.17951024141457228,0.7173159053952395
8.125,-0.9184456988208253,0.5915049474708138
8.12890625,2.172906612473767,-0.12776220970569335
8.1328125,0.21406947371431234,-0.08033955003839757
8.13671875,1.6488813343540272,0.37043229802051203
8.140625,1.7659340744576497,0.9517411770383013
8.14453125,-0.3071643604642442,0.7511449355178116
8.1484375,0.43007933569660495,2.2134917421530873
8.15234375,-0.49560085995667047,0.4107782429825384
8.15625,0.33507564358893605,1.7414765278268303
8.16015625,-0.40658642409922263,0.40837962443620873
8.1640625,1.1171664126378384,0.9199413319476626
8.16796875,-0.29733550512769374,0.005972521545385533
8.171875,0.41350094355461386,-0.3064672501268138
8.17578125,-0.5139633877575485,1.1621413077133422
8.1796875,0.09746221045632815,1.0655602408100713
8.18359375,0.23309706925547327,-0.4336429163725641
8.1875,1.1469743326272834,-1.273205479916271
8.19140625,0.7922081446897274,1.4638675163972417
8.1953125,-0.2139283869152722,-1.4082859396917031
8.19921875,-0.01701397391339731,-0.4074454461315706
8.203125,0.8364544708232102,-0.9633128823561019
8.20703125,-0.3240018985280759,1.2325263188933877
8.2109375,1.2006304917667345,0.8886472414638068
8.21484375,-0.6502048295038948,-1.7963351134525674
8.21875,-0.5020029805876658,-0.3368027421973151
8.22265625,0.2036956340108158,1.4583829654179943
8.2265625,0.932020500437877,-0.5481191456358924
8.23046875,-0.07923104994581044,-0.8034111952660037
8.234375,-0.0287097215939971,-0.5691758944428092
8.23828125,-0.4023284970973255,0.20105079000227016
8.2421875,-1.0479947197497452,1.932318518016484
8.24609375,-0.16688986890681728,-1.5587730178336432
8.25,0.5811519279934337,-0.14245631252516253
8.25390625,-0.7530887181213176,0.2548587221977992
8.2578125,0.4123649717288636,0.9393065727080215
8.26171875,0.27906954819816887,-0.5714961182317415
8.265625,1.5767089913394787,1.4530062499827145
8.26953125,2.101297319874338,0.1170438416016394
8.2734375,-0.9278862539212208,0.501881362576782
8.27734375,1.5390085556341608,-0.6789826359191024
8.28125,0.3340687253073018,-0.7536476123746185
8.28515625,-1.069357066492965,-0.18110694292450827
8.2890625,-0.5324487666526656,2.6957852556868764
8.29296875,-0.06306723174429865,-0.19346195799239146
8.296875,0.8037228327923291,0.633199909854852
8.30078125,0.45872812583110006,0.1128374534129306
8.3046875,-0.6273742908049714,1.0245322077334738
8.30859375,-0.4990579083748455,-0.21825687184766665
8.3125,-1.9098344500718276,-0.42569597660678604
8.31640625,0.7430614621146889,-0.760880171399868
8.3203125,-1.1197385863777587,0.23158902255250877
8.32421875,2.1211782967946324,2.988647897681509
8.328125,1.4084218651158245,0.5526034721717148
8.33203125,-0.4814452235245543,-0.18737209530181184
8.3359375,0.509015517638221,-1.554992918072821
8.33984375,1.5381883149735909,-0.508247552973965
8.34375,-0.5601676962379935,-0.48358096727328953
8.34765625,0.6401387984133142,-1.6538557179794036
8.3515625,1.0030241820704215,-0.05442579996301186
8.35546875,0.41657741476316223,-0.5870859730020046
8.359375,-0.8138868399460892,-0.02194731045635107
8.36328125,-0.55578590038886,-0.8465671047941588
8.3671875,-0.5737319772857411,-0.18177811848864361
8.37109375,0.31515524131709854,0.6253292643463727
8.375,-0.3842980616271811,-0.6814625740206165
8.37890625,-1.02194089511489,-0.12241378115134961
8.3828125,2.210923574705472,-0.3008792371611902
8.38671875,-0.2031997553248413,0.6083196139574863
8.390625,-1.144776232144998,-0.8679770521691269
8.39453125,0.6483301224408239,-1.3507820383872817
8.3984375,1.8967579092811813,-0.8802890370815148
8.40234375,0.9257765772287518,-0.8187843291987703
8.40625,0.0813560689875875,-0.6657558382636795
8.41015625,0.7427234005184078,0.3465428515993547
8.4140625,-0.08300815772414173,-1.2005837378145405
8.41796875,-0.14974558368322385,0.3593990920361977
8.421875,-0.18349532038262314,0.21678629586956547
8.42578125,-1.4064594260901289,-0.48138606064317485
8.4296875,0.4976267138259176,0.23450555796682812
8.43359375,0.8971051554643135,-0.08853620737602924
8.4375,-0.155018308982233,2.6732917136558463
8.44140625,1.6278902285313976,0.061604837346298506
8.4453125,0.6641623642575629,0.5590138878693269
8.44921875,-0.6755624782477435,0.05679784611565766
8.453125,-0.2796677892477339,0.4001617705717654
8.45703125,-1.4127706818792745,0.10084963339392569
8.4609375,-0.2975107484145394,0.47953514585346224
8.46484375,-1.1216560077412254,0.5697563611854245
8.46875,-0.022255963370316142,0.819467046756246
8.47265625,-2.1464902322836052,-0.11457633015498216
8.4765625,0.4384822120669257,-0.08430428771698029
8.48046875,-1.6502349581142566,0.49505341094201544
8.484375,0.39874951519261537,-0.8122631405805105
8.48828125,-1.230291806422837,0.7274989956924335
8.4921875,-1.2672301217045812,-0.8133777080983036
8.49609375,1.101895478316272,-1.4764027872141092
8.5,-0.7192645266868253,-1.3967342008499966
8.50390625,2.0470220367500698,-1.3576499523268233
8.5078125,-0.5109176223848959,-1.9750771355258834
8.51171875,0.7740492234108081,-1.366377427740157
8.515625,-1.4882149712738089,-1.1908127893434144
8.51953125,1.6281800186308697,-1.1756429022196804
8.5234375,-0.22028779945766472,-0.40796134226295105
8.52734375,-0.8567889832406758,0.7171016488189215
8.53125,-2.6427164611449703,1.3940590371281592
8.53515625,-0.030413288874698925,0.8820296495054781
8.5390625,-1.8923967014853242,0.2684875144500898
8.54296875,-0.6398392446251109,1.489671692868343
8.546875,-2.372115868733541,0.31119301021467893
8.55078125,2.5019241164643837,-0.058316550393405046
8.5546875,0.14342898835914603,-0.7646058416280073
8.55859375,-1.4424862019959606,0.5763934915923358
8.5625,1.0801831232657906,0.9520460629788733
8.56640625,-0.7668099682811703,-0.3331276090649619
8.5703125,0.13904067313167673,0.3028409183443905
8.57421875,0.5634594631084408,0.5356506601378335
8.578125,1.2771486783131294,-0.8143059327805579
8.58203125,0.5732392196156261,-1.789475519535366
8.5859375,-0.32925475755318756,1.043158882639631
8.58984375,-0.45675475761909456,-1.518251032711375
8.59375,-1.00319187808971,-1.0992802126781531
8.59765625,-1.4290891579341352,-0.35602121349204313
8.6015625,-0.3837223861861119,1.0675804488619998
8.60546875,-1.522263153225721,0.11828585286505613
8.609375,-0.9524003038521897,-0.27481826125415837
8.61328125,-1.0493149144431078,1.6934818972127588
8.6171875,1.8576578246937983,0.3056105736538288
8.62109375,2.474664054400788,0.6007207450627936
8.625,-0.004996769419613774,-0.21141251393408975
8.62890625,-0.8778481194362597,-0.7524784667795211
8.6328125,-0.38101041434752625,-0.8047536986370746
8.63671875,-0.7016322125574579,-2.0265061233915587
8.640625,0.070013316790935,0.8785359305356611
8.64453125,-0.9994915725641936,0.00996834024482586
8.6484375,-1.2614586491098407,0.8063797664520944
8.65234375,-1.7862636168979007,0.35109608683315596
8.65625,-1.2712372031650954,-0.5205020856578514
8.66015625,-0.04291939944736933,0.7276262933864164
8.6640625,0.8031875749147219,-0.6016725667662739
8.66796875,-0.4986629112710497,-0.3665111151989074
8.671875,0.37686649009261547,-1.1112640904004785
8.67578125,0.1647222529201809,1.7296777072065501
8.6796875,-0.26101407743280997,-1.023123828960963
8.68359375,0.7525631173755252,1.64872410537602
8.6875,0.18185823632257267,0.8233696180195738
8.69140625,-1.21377833622589,-0.1939794065409132
8.6953125,1.2530790683038344,0.9967123911184238
8.69921875,0.10391030258590242,0.06089141584068093
8.703125,0.05865130331218728,-0.19704861519975586
8.70703125,-0.12100821866208897,0.24574453804092242
8.7109375,0.04740503529690729,0.8871574027430214
8.71484375,-0.7960759181428821,-1.2808341554082336
8.71875,1.0608392347416826,-0.3778841253738574
8.72265625,-1.6691072062887937,-1.6211463410589138
8.7265625,-1.4247452588902605,-1.2223559481664537
8.73046875,-1.9960631417436203,0.9022351989303142
8.734375,-0.23688625864922264,0.9986818383152798
8.73828125,0.7233504646100448,-1.8858830024309057
8.7421875,-0.1135910031728115,-0.49704447519922357
8.74609375,-2.256838820048763,-0.8853615663712385
8.75,0.967518094505875,-0.6402307031607329
8.75390625,0.6179248222470523,-0.46901115856976194
8.7578125,0.6729015649722846,0.5475893655005026
8.76171875,-0.3421880253858792,-0.4643947649372537
8.765625,0.1596215860408538,-1.716264809210962
8.76953125,-0.5348411639510523,-0.07305360088403208
8.7734375,0.5842790378016317,0.4300437057776727
8.77734375,0.9687051188874641,-0.5236504700597086
8.78125,-0.7787800180050335,-0.8159641241324379
8.78515625,1.111646634616966,2.5027985090313374
8.7890625,-0.7261080323502722,1.2144288771968865
8.79296875,-2.0106883525364205,-0.5925182560275587
8.796875,-0.018840069675220703,1.0212702049000182
8.80078125,-0.4713245519449967,0.3157820470603568
8.8046875,-0.027608360636166784,0.39644204141835426
8.80859375,0.43191761769456755,0.057941455167284106
8.8125,-1.1104564627884568,0.07440196025777232
8.81640625,-0.4360139009664601,0.9076630924244348
8.8203125,-0.8286890619985952,1.008375043770385
8.82421875,-1.0512906794540617,-1.9651599434615035
8.828125,0.23521275594145702,1.8961773157934476
8.83203125,0.1634452173574328,-1.486001213275067
8.8359375,-0.11261887149493759,-0.4392981674348681
8.83984375,-0.8241449863125051,-1.667912840867385
8.84375,0.08122980725803233,-0.8780684762578469
8.84765625,-0.35867421824763174,-0.10743131689914413
8.8515625,-0.43886814257889606,-0.15609718858672592
8.85546875,-0.3465677010794803,1.0676020540560252
8.859375,-0.4952492717267975,-0.2723093537723357
8.86328125,0.22659250780935902,-0.6624657637759577
8.8671875,0.8530536253537173,-0.33455142714617386
8.87109375,-0.734251127455326,-1.1809985990703848
8.875,0.7293026976505282,0.6739387320206993
8.87890625,1.362878172425848,2.294792213652031
8.8828125,0.43907506677676156,0.2046107194769936
8.88671875,-0.5465741633140732,1.141488042616283
8.890625,1.5268570456097474,0.18768603543105747
8.89453125,-0.18547176916974278,1.051832882071687
8.8984375,2.1369793930070053,-0.9038630198523174
8.90234375,-0.3446409029810057,0.9623479296501636
8.90625,-0.8972978111095551,1.9874982166608308
8.91015625,-1.0402395035184013,-0.032527445444271594
8.9140625,-0.5889920470718443,0.39976011915169535
8.91796875,-0.5373676291416781,1.1904196702403151
8.921875,-0.7421715248714266,1.0031916792102775
8.92578125,-0.1605727193105676,-0.7655594147060346
8.9296875,-0.7830977989694008,-0.22550199031732784
8.93359375,1.1264281184761522,-0.05351819186881959
8.9375,0.5266159775123176,-1.0430649374114351
8.94140625,-0.1298482997262223,0.12034873512445413
8.9453125,1.0591412843320638,1.3666344480275676
8.94921875,0.6788473393163328,-0.006635419191162504
8.953125,0.5681904261293415,0.22817118380779822
8.95703125,0.7874553230233321,0.4506244030321379
8.9609375,0.786274086994977,2.677784017408422
8.96484375,0.7800806280602316,1.027996478055611
8.96875,1.6015672288495224,-0.33506845546521985
8.97265625,-0.158590274957732,0.4293088580206873
8.9765625,-1.2368617028867177,0.22005139425626816
8.98046875,1.1023268559015376,-1.4660752401314296
8.984375,0.7374126863526425,-1.6469854403237
8.98828125,2.3742865971026843,-0.3025332716934116
8.9921875,-0.8955325271855555,0.6874117880788281
8.99609375,-0.24369210677422293,-3.1486706107228595
9.0,-2.2750517225107965,0.2620374635816328
9.00390625,1.4885914270511749,1.0763440436060492
9.0078125,-0.962573609000218,0.011587577217928767
9.01171875,-0.31823267003413297,-1.0559750985737673
9.015625,0.18199113778667567,0.0924870846483909
9.01953125,1.5018776209131834,-0.31406460523610513
9.0234375,-1.247875431562082,-1.9171770585957142
9.02734375,0.2902269399398858,0.2979084548966687
9.03125,0.1502274397716073,1.9324943476385494
9.03515625,-0.762078748109666,0.343219075478942
9.0390625,-0.2403985674437883,-1.9294828663017496
9.04296875,-0.443532692177943,-0.06225661962178823
9.046875,1.5028164775491983,0.33527901023839973
9.05078125,-0.1366854847639882,1.9706858398197156
9.0546875,0.5945866142435974,-1.022368935889351
9.05859375,-0.33257829925352944,0.16418894186096386
9.0625,-0.19325547242213578,-0.12321642241544405
9.06640625,-0.2998765673259122,-1.7156909182102213
9.0703125,0.8265642265550357,0.4095799409654715
9.07421875,-1.6469891077867413,0.1564812934650164
9.078125,-0.3153159582179262,0.33139464919428435
9.08203125,0.404055707641531,-2.0933119472224297
9.0859375,-1.557603679185927,0.23537455736319252
9.08984375,-0.6493734036153958,1.3075765656181
9.09375,0.6068342004862773,-0.8718614033308462
9.09765625,0.316574402282855,1.042018214763826
9.1015625,-1.149250840554316,1.475769600535832
9.10546875,-0.88616942235516,0.7662349412815191
9.109375,-0.5159755800417956,0.9999367740553704
9.11328125,-1.5040425409119702,0.6406289842625436
9.1171875,1.2349386860465223,0.0937108380493068
9.12109375,0.1416428367736483,1.4736907892274977
9.125,0.7641104613390503,0.5453944771194033
9.12890625,-0.3896605912769175,-0.6471656030815971
9.1328125,0.7330239600159133,-0.19446828652408993
9.13671875,-0.6486424294842127,-0.47330937698170367
9.140625,0.21847270309604203,-0.4385598197686439
9.14453125,-0.45821326040331545,1.3669506339563395
9.1484375,0.3597509769449125,-1.2500031319522396
9.15234375,-1.2353533456677503,1.3683883418096452
9.15625,0.3193247904712705,-0.3506078802028958
9.16015625,1.5013357832667005,-1.6968795544856232
9.1640625,-1.032126115879082,1.5694302547893768
9.16796875,0.8172181296325431,-0.23500040695695246
9.171875,-0.10600585797903703,-0.058154158402802955
9.17578125,1.0557463264176274,-3.1045994080178367
9.1796875,-1.445172551784113,0.05345658206910743
9.18359375,-0.11249199855300156,-0.8644696919941284
9.1875,0.07966736055000556,-0.796870231557269
9.19140625,0.07067127550741635,0.1284159249173011
9.1953125,-1.733214127821902,1.6197013991344407
9.19921875,0.25973238716420133,1.793058517234542
9.203125,-0.7504209359343121,-0.5295128112763081
9.20703125,1.474555165005254,0.2716853493081064
9.2109375,0.17337537750679408,-1.1973578830283154
9.21484375,0.8391283223477857,0.06012052660290106
9.21875,1.07259926295473,-0.905541128314586
9.22265625,1.8409351349633325,0.932903830522112
9.2265625,-0.7172224156042034,-0.38713222798197344
9.23046875,-0.29529547882452617,1.5526960964882646
9.234375,0.3477129986115643,-2.260514693909305
9.23828125,-0.2523602064389115,-0.13988820839140587
9.2421875,-0.13964359489699535,1.1107574798448743
9.24609375,0.0005672528185206288,-0.0633687355501432
9.25,-0.7461015982194634,-1.0373353758436643
9.25390625,-0.9345091818105242,0.423638671924387
9.2578125,-0.0749537398532115,-1.4658579433117878
9.26171875,0.09888015681828073,-0.9223248097199106
9.265625,0.6557271550496289,-0.20805452452381254
9.26953125,-0.43891712623285095,-0.4006198095292987
9.2734375,-0.6309343087399103,0.3125350399311795
9.27734375,1.1734781536175722,0.6303382792166025
9.28125,-1.5543017797960228,-1.1015031182758106
9.28515625,0.8626224748021528,-0.0280132178087738
9.2890625,1.0486953412327729,-1.2241752061201543
9.29296875,0.45329958455248354,1.0863103976477262
9.296875,-0.2405107138994375,-1.316540641725265
9.30078125,-0.14000483682461423,0.9383025674563868
9.3046875,-0.6586808046055987,-2.021004974219235
9.30859375,1.2244715795347216,1.507117658031885
9.3125,-0.7141685594568822,-0.2377147852261956
9.31640625,0.5044300517640083,2.2307500313538724
9.3203125,0.19858941521933643,-0.040928389207099354
9.32421875,0.9735692475212334,-2.270314499763258
9.328125,-0.9670468493256869,1.5895462304005814
9.33203125,0.9061118917402508,-0.8146383357814349
9.3359375,-0.09205518918326101,-0.6141427305804589
9.33984375,0.5848130571411817,-0.8024444188712023
9.34375,0.34164176347767683,-0.5483519320353256
9.34765625,-1.1100206352711575,-0.07305772125158665
9.3515625,1.1261225991483874,0.39257158254853475
9.35546875,1.0126085235571034,1.3022688353147613
9.359375,0.338472397625134,-0.004144347380255001
9.36328125,-0.8938022572029405,-1.2248181208508961
9.3671875,-0.7116707502830419,0.6326599373006173
9.37109375,-1.6428238978123375,0.11364194548013674
9.375,-0.17609144824781098,1.8356224770273453
9.37890625,0.6878403953647639,0.602708701343974
9.3828125,0.9621969526058302,-1.0408566233502032
9.38671875,1.2044066624293397,-1.271013339869849
9.390625,-0.11119506357888193,0.6467561817619423
9.39453125,0.8308340753329374,-0.25114164508746395
9.3984375,-1.2661801812481859,-1.6380421055221166
9.40234375,-0.17207473877449297,0.1490400206470109
9.40625,-0.053955516737693894,-0.005322236664500183
9.41015625,0.6757068398873088,0.31128485013158197
9.4140625,0.8865016189129035,0.2868290298535319
9.41796875,1.2554899315207033,1.1281178260992835
9.421875,1.2150416600636338,-1.5120115909538554
9.42578125,-1.4037361042920569,0.906673027526555
9.4296875,-0.4967555969339637,0.7653617581240008
9.43359375,0.41574858158888944,-2.573932101086808
9.4375,-0.30217910502808787,-0.46417454403840896
9.44140625,-0.04626680882764613,1.2390802200833975
9.4453125,-1.8291157747552356,0.5082877797080656
9.44921875,0.27102295907670654,-0.7559238070088106
9.453125,0.5748483659420581,-1.098218767651265
9.45703125,0.21742832793379915,-0.8302040879343698
9.4609375,-0.09790408687038861,0.6422350402978877
9.46484375,0.19231127420137695,0.25296679873053146
9.46875,-0.2766768466118327,0.3377298174096122
9.47265625,-1.0597631123681919,0.44773112158835426
9.4765625,0.49184349031031493,0.44419692731326155
9.48046875,-0.3744523185109369,0.7622997962219188
9.484375,-0.10976657714273831,-0.20472331410751946
9.48828125,-1.7218344924116915,-0.7029794567856034
9.4921875,-0.4566262849140555,1.5390594370175594
9.49609375,-0.5960064639426637,-1.438388999254376
9.5,1.524458679227385,-0.37192138210969894
