time,ecg,ppg
0.0,0.0822509103451311,-0.47543032285481845
0.00390625,-2.2917756500077706,-0.13631631566517852
0.0078125,1.0239622927844616,-0.8566943359196706
0.01171875,-0.9255406833157086,-0.5741316566248013
0.015625,-2.412121750844139,-1.1845663832271498
0.01953125,-1.7390926492007657,-0.05149632529758348
0.0234375,0.3553364131209274,0.3687944549782016
0.02734375,-0.9496270644941512,1.66569321034322
0.03125,-1.4242412843401275,0.7582314699308881
0.03515625,-0.7963716928365008,-1.2875721227133772
0.0390625,-0.4377432070861866,-1.5755619933616982
0.04296875,-0.9116993442566407,-0.4417338955628479
0.046875,0.09922579873967789,2.1586123179354617
0.05078125,-0.23192892385121225,0.25418163489163276
0.0546875,-0.1651920923574175,-0.4006964941376659
0.05859375,1.229693478752391,-2.4146068308669517
0.0625,-0.18243900398513493,0.7126789166858286
0.06640625,0.1182881888699105,-1.3985423947433295
0.0703125,-1.5321766863271533,-0.15226758479897157
0.07421875,1.8927437342356257,0.48418932394898695
0.078125,0.42483805080780523,1.2373279023726376
0.08203125,-1.7941248469112225,-2.9274297583326674
0.0859375,1.0620183847551654,0.8129872167136603
0.08984375,1.0807858751197723,-0.46130827952715725
0.09375,1.2776493876395407,-0.04144588852535042
0.09765625,-0.8878683117453181,0.21044714805201503
0.1015625,0.326157129149597,0.18942799523228562
0.10546875,0.5948911465326514,0.11529955982212345
0.109375,-0.6619295922159779,1.839139883056036
0.11328125,-1.0721101165532483,1.2801680123280244
0.1171875,-0.08070866694772827,0.7612976476455358
0.12109375,-0.6953204350181322,0.8137090609650782
0.125,-1.6651650631031598,0.37370973116559525
0.12890625,0.6660440086073939,-0.3162883877919393
0.1328125,-0.48422530485078513,0.06249191258718585
0.13671875,-2.0690234998954056,0.7328363000757399
0.140625,0.21080341626680732,0.13157388356414518
0.14453125,1.1200398577427946,-1.1309672493157603
0.1484375,0.20232102983719047,1.2944135882659973
0.15234375,-0.7507122099624756,-0.3944162678068425
0.15625,0.010608685175853446,1.3109343566300389
0.16015625,-0.7055805019691584,1.9531971346547
0.1640625,0.2569203751379851,-0.3048152508183733
0.16796875,0.10834802907598756,0.7128481356359035
0.171875,-0.003449425738128709,-0.13047549961567598
0.17578125,0.07934188746104603,-0.37229227078500626
0.1796875,-0.30071505621870565,-0.1661716358606264
0.18359375,0.8765304408225223,2.3093364178229665
0.1875,0.5756565962154928,0.408956239192424
0.19140625,0.38666162359373807,-0.5586346035228998
0.1953125,-0.7165768137823426,0.8075479356562094
0.19921875,0.22694923257817606,0.4387640689701869
0.203125,0.09438130407018994,0.49914456511498356
0.20703125,-1.3173690789412567,-0.2205324750866525
0.2109375,-0.6705067153685899,1.542245101053382
0.21484375,0.17630974009142678,-0.35629353288008964
0.21875,-0.3269116992259663,0.4621079130609264
0.22265625,-0.6843846980216596,-0.05605550641913902
0.2265625,1.0447549699670435,1.0130106133036794
0.23046875,0.8005791906338624,0.006497525479507962
0.234375,0.8900061637918925,1.1240470220400327
0.23828125,-0.12128292836912241,0.7878817924388135
0.2421875,-1.7459476937071485,-0.9057151078225565
0.24609375,-0.4474625331302034,-0.8911693178793569
0.25,0.9973445496760177,0.7879137898043203
0.25390625,-0.24486198090635028,1.286735920717427
0.2578125,0.1324688852908785,0.3713170737014302
0.26171875,-1.1688870670131046,-1.3531017190627141
0.265625,-0.5476560195653737,0.28710517032500776
0.26953125,0.013730188788149708,1.4793959768262288
0.2734375,0.20167937047520484,-0.12825778407317878
0.27734375,0.7120545619693577,-1.0502681103916556
0.28125,0.9319077621222789,-0.3575757022032151
0.28515625,-0.33065294544616725,-0.36207284815064783
0.2890625,-0.3814732930973651,0.23294372133062718
0.29296875,-0.7732125332099492,0.6662826604466068
0.296875,-1.1974627435770864,-2.0365783788339487
0.30078125,-0.43636549322545354,-0.7092485688274547
0.3046875,-0.4808581191825014,-0.3878534461401297
0.30859375,-0.3525455292658548,1.8869718987440411
0.3125,1.6742796565553821,0.011320369706794946
0.31640625,1.2828675321267342,1.0189991540161607
0.3203125,-0.8296468650495094,-1.9261262953567524
0.32421875,0.2952678339817164,0.6343965800530335
0.328125,-1.3081225288564857,-0.6249517566642971
0.33203125,1.8436976454026615,0.19066445549850222
0.3359375,0.10656991965277894,1.166806933695948
0.33984375,1.274761149847146,0.14425470324174258
0.34375,1.024947886011422,-1.6559326517265611
0.34765625,-0.6232441371061443,-0.5878201039750169
0.3515625,-0.0045108343615529916,0.41391802788200616
0.35546875,1.3347680371353146,-0.12189235333100236
0.359375,2.016830924833558,0.7279551878656612
0.36328125,-0.32482940209406175,0.7684664122830194
0.3671875,-0.8777526468592216,1.965777190045032
0.37109375,-1.734011614331348,0.8980629450834844
0.375,1.8643686602374276,-0.024048064592539598
0.37890625,-0.2641969232097421,1.233932196887514
0.3828125,1.1366758488347735,0.23451483756460736
0.38671875,1.3657108983611896,0.2136725165252814
0.390625,-0.1688556011642901,-0.6848324882279196
0.39453125,0.9392395613747107,2.2197992983219472
0.3984375,0.2842542457396642,0.5724785146007606
0.40234375,-0.5936320220929968,-0.1069881879155701
0.40625,0.6095748344101771,1.5455842132066389
0.41015625,-0.6281692027364457,-0.5043317330940043
0.4140625,-0.45091098585862566,0.7877779968759491
0.41796875,-0.22492125422612458,0.8068270199387332
0.421875,-0.11883343370127213,0.5433955385392614
0.42578125,1.707920836651043,0.45805868329517113
0.4296875,0.8902625343990835,-0.09981218727799034
0.43359375,1.132554128147003,-0.1871540044159971
0.4375,0.43562145211269987,0.003778136219907486
0.44140625,-0.5054472938574324,0.8505051072445926
0.4453125,0.4147288865062595,1.7338702711072111
0.44921875,-0.8322911979434834,-0.9951555361019775
0.453125,-0.3450716589726476,-0.7061723006717248
0.45703125,0.21115916317574263,-2.088979353271423
0.4609375,-0.404014501455822,0.923854215067349
0.46484375,-0.1539528186828252,-0.19453967562243024
0.46875,-2.1512896209200516,2.4057322533505228
0.47265625,-2.0680094043707467,-1.037634493216795
0.4765625,0.9371851883216075,1.3713006204047764
0.48046875,-0.7146446798633166,1.5468305961386528
0.484375,1.2649375571536385,-0.7593956673571604
0.48828125,0.08340275835107908,1.294975703385311
0.4921875,1.8537692993293235,-2.5909325820429037
0.49609375,-0.3199781017061695,0.6172736938592783
0.5,1.488856121706056,-0.481461775283941
0.50390625,-0.028561698638796245,-1.8644927197593246
0.5078125,0.5144646175503125,-1.6512289150320385
0.51171875,0.16582007655772987,0.839859826859436
0.515625,-0.7432863414110745,0.7725281394215259
0.51953125,-0.8336680381012428,1.0745975168495527
0.5234375,-0.7808447219402151,-1.1311587433614472
0.52734375,0.23229058698321448,0.6615582824967946
0.53125,-0.36784520727362296,0.8940319734323255
0.53515625,-1.5059489150653276,-1.5406576591225827
0.5390625,-0.6444253831680211,-1.7191665108994756
0.54296875,-0.982772041642967,-1.2311592028821754
0.546875,-1.3381974221077673,0.001831511868615283
0.55078125,0.6928310160317895,-1.3563008762599325
0.5546875,-1.5502618581688914,-0.34497370188774373
0.55859375,0.7863613650936554,-0.5426784874075913
0.5625,1.5105008211528341,-0.21371178668394522
0.56640625,-0.9982571400052697,-1.2560854299645567
0.5703125,-0.7396537638765041,-0.865364203385959
0.57421875,0.2342106452757882,1.0315613793690346
0.578125,-0.9240256946542663,0.4587589363943413
0.58203125,0.18242580151567145,0.187075567296229
0.5859375,-0.2094346375614646,-0.42962532742188575
0.58984375,0.1546519967660528,0.22673761760874458
0.59375,-0.04293339255980728,0.18362957281811476
0.59765625,1.5808102271917832,-0.7336856776792277
0.6015625,-1.1915780207360485,-0.7083374789079971
0.60546875,-0.7903900949112059,0.7493024516908047
0.609375,-1.540486034862997,-1.1666536124709266
0.61328125,-0.6482945994797451,-1.0250705602212964
0.6171875,1.1447289250471115,-0.545280194381281
0.62109375,0.30090071071542474,-0.6055372995333339
0.625,-0.02746392710209559,1.7969103474352244
0.62890625,1.039473858135484,0.8648387195693611
0.6328125,-0.8888852760451402,0.5375501495652802
0.63671875,-0.3148424743073043,1.1510245967389567
0.640625,0.8424972479156203,2.206750608986953
0.64453125,0.3911826718158703,0.08042339238817561
0.6484375,0.3617680089499815,0.03393177838390613
0.65234375,-0.40407872026231595,0.6322020723498996
0.65625,-0.832003546778681,1.0536496405646283
0.66015625,1.0887654119724595,-0.9311620008166092
0.6640625,-0.8373723297291652,-0.7846545699594961
0.66796875,-0.09507036445400867,0.3337536481624203
0.671875,1.124144711158093,-1.1442838100273407
0.67578125,-0.12456884179655546,0.017802515161588827
0.6796875,2.5406030471262544,-0.16164242142586263
0.68359375,0.004476960127011975,0.6424430597449535
0.6875,-0.10135461268644369,-1.6604012996875075
0.69140625,-0.5604445509404106,-1.365640616028741
0.6953125,0.7701715327264627,0.7737537508531006
0.69921875,-1.9445559086553703,1.4280672325841433
0.703125,-0.13319283434254195,0.5842474800720245
0.70703125,-0.7239082852036812,-0.10492788740072063
0.7109375,2.382879534123918,-0.18922417564510016
0.71484375,0.11089947817710971,-0.37144548810116024
0.71875,-1.1496566571285771,-0.2791459809692579
0.72265625,0.3740115296547123,0.45888951314147763
0.7265625,-0.5003915948535977,-0.5513637346205537
0.73046875,-1.051346216542709,0.5018269618257556
0.734375,1.4473796731277944,0.4109385074528213
0.73828125,-1.5856005509601594,-0.5557844386474645
0.7421875,2.1260813270385666,-0.18492556470098007
0.74609375,-0.9630039510577956,-0.35963461902400784
0.75,0.16927194952092595,-0.4110237949947388
0.75390625,-0.41502235212029553,0.10663661367658082
0.7578125,0.307701158493164,1.352144319958459
0.76171875,-0.3137248834618381,1.442139186910566
0.765625,2.207642855263113,0.6005264039912173
0.76953125,-0.6668198270596523,-0.0576514191739655
0.7734375,-0.8177916126440403,0.0678166490752597
0.77734375,-1.419197916353078,-1.5322427869131836
0.78125,-0.6780346973892553,2.2450745229979616
0.78515625,0.0849410189796335,-0.4474922202192467
0.7890625,-0.2550615517859231,0.4261785288092644
0.79296875,-0.4888274527298902,1.2779498200086474
0.796875,0.2604070857540618,0.4750004718279276
0.80078125,1.1632266194800687,0.9275813064927725
0.8046875,2.0410364197097928,-0.10603334946240825
0.80859375,-1.3532435376382588,-1.4084414587508076
0.8125,-0.1808578466014437,-0.6564077198524746
0.81640625,-0.7730965805848556,-1.0098453576128141
0.8203125,-0.8634241996137858,-1.3184107242026943
0.82421875,0.3698388671449296,-2.596680061878437
0.828125,-1.7055553946978077,-2.0238976294687494
0.83203125,-0.6191308968127623,0.887504401679702
0.8359375,0.996721172108738,0.05260920902936539
0.83984375,-1.8232073188668836,-0.6334583842986256
0.84375,-0.7299633082743657,-0.011392067448999172
0.84765625,-1.191104034970226,-1.0906221194703811
0.8515625,0.1265583465981662,0.010766145794616983
0.85546875,-0.07722655468817552,-0.26263047557686225
0.859375,1.8508403247184655,0.41823611705793257
0.86328125,0.3701759623806836,0.7034137466021627
0.8671875,-0.17745405368770403,-1.320579828015567
0.87109375,-0.2682188967285703,0.8295909561046517
0.875,-0.3875631764600867,-0.0662429415169135
0.87890625,-0.2810351461781394,-0.7612069620236727
0.8828125,0.6847138499002414,-0.20464803495379158
0.88671875,-1.2353286455496355,2.1732583831799968
0.890625,0.2882801798693811,2.1753413027894837
0.89453125,-1.663502639539468,-0.754167130879208
0.8984375,-0.6231842269265614,0.6257316015474537
0.90234375,-2.0027166793452027,-1.0417007421001578
0.90625,0.34526425411989664,-1.5394709417151489
0.91015625,0.1511543586446119,-1.1507876577772636
0.9140625,0.1606858438534064,-0.07843635676127975
0.91796875,0.44715791657463166,-0.3820292880124686
0.921875,0.1217771388933994,0.7051068216389994
0.92578125,0.9893576267739613,0.5007920293062726
0.9296875,-0.8687721961589606,-0.4387777172387984
0.93359375,-0.09330436761353252,0.5375880956604417
0.9375,0.7428926404988825,0.5629443985106264
0.94140625,-0.05865571373097313,0.21817166691016432
0.9453125,-0.15248979066078153,1.0200139482841935
0.94921875,0.194939651319761,1.4129918776737518
0.953125,0.805225498008764,0.7353141613184487
0.95703125,0.8640398314763971,-0.3569586132981025
0.9609375,1.205825991833189,-0.026317123814255116
0.96484375,2.0568644383646504,-1.879306139076835
0.96875,-0.8395761087591227,-0.2350280143743238
0.97265625,1.7305676425875844,0.40434668005433416
0.9765625,0.7865006099903582,1.8101465853278802
0.98046875,0.46918871416946056,-0.8197847124111909
0.984375,-0.13506714257286317,0.5926146070889692
0.98828125,1.2947441219885807,-0.26931297892066075
0.9921875,0.3002154790062002,0.06464821793804702
0.99609375,0.3224743497363869,0.6486506956241614
1.0,1.1361869014127755,1.046895688442655
1.00390625,-0.7101204706214734,1.505812607841565
1.0078125,-1.279989594807513,-0.06006605276473234
1.01171875,0.7123142625789648,0.8452098930733308
1.015625,-1.8090721302920245,-0.002839330349988975
1.01953125,1.8030999764289137,-0.821966153099857
1.0234375,-0.37753764228323566,0.604134459000581
1.02734375,-0.5169193849430745,-1.3206528286508423
1.03125,-0.4744314393844124,-1.1738353612764245
1.03515625,-0.875747513078763,0.47372196056745586
1.0390625,0.8259696414324793,0.846401262955216
1.04296875,1.7402649811864284,-0.1629045183657877
1.046875,0.19072868168537513,-0.13894758905552915
1.05078125,1.0442696197459747,-1.488211837194314
1.0546875,0.3599527223860693,-0.3810298294280161
1.05859375,-0.8698631928549964,0.9965907184538128
1.0625,-0.5961919430405993,0.9115403248390586
1.06640625,-0.24289196232172688,-0.23687454554193332
1.0703125,0.48802113378229045,0.7261181054381441
1.07421875,0.386377674028678,1.0142534232131983
1.078125,-1.1473528985226384,0.10820560044406027
1.08203125,0.7182669532928475,0.5330899635111702
1.0859375,-0.8882244151668439,-0.9433317044632997
1.08984375,1.7243915920618755,0.05902304520232394
1.09375,0.5042503701869393,-0.8989592675072603
1.09765625,-1.0442030491886738,1.8202709379214839
1.1015625,0.4308252526184099,-1.2938865852315482
1.10546875,-1.333646533006288,1.2631047930550743
1.109375,-0.6893860143343721,-1.0667403429561004
1.11328125,0.7811724675367313,-0.1370041765966228
1.1171875,0.566540989264641,-0.2312350338509509
1.12109375,-0.36656831447896493,0.7647538837598928
1.125,0.18827119026413477,0.7176034002109809
1.12890625,-0.21905527476325035,0.2694117849289216
1.1328125,-0.4058575874847021,1.7514795579917237
1.13671875,-0.2729272333218446,0.9695520592030121
1.140625,2.373623780161397,-1.0135210415375715
1.14453125,0.8044477237074283,0.2885255632787994
1.1484375,-0.026911142636850276,-1.0976722187176045
1.15234375,2.766130158908518,-0.0724204127647933
1.15625,1.0316254222511863,0.32642628468141355
1.16015625,1.0394047450074864,0.9488381635819196
1.1640625,1.8942415907110361,0.1473734432143135
1.16796875,0.7865395911334224,0.3228356685086219
1.171875,-0.5681779573277813,1.6710973673088054
1.17578125,1.2269384650304205,0.8658863766577124
1.1796875,1.3556698929514888,-1.2682533214485878
1.18359375,-0.12092236083820733,-0.4214905215027278
1.1875,-0.1261556362037188,-0.4757053451322717
1.19140625,-0.25396647022626767,0.7866806968293115
1.1953125,-1.018360134558229,-0.443424611915239
1.19921875,-0.11061832088382446,1.0267140290900665
1.203125,0.12300252150391258,0.8803184996226125
1.20703125,-0.3625281667490228,0.31951229431629913
1.2109375,0.8207284235285601,0.0008542723789296366
1.21484375,0.2352977760792287,2.5084613420201762
1.21875,-0.6099098491619094,-0.7607992831895551
1.22265625,-1.370944248011241,0.7482976879569813
1.2265625,-1.238472792993085,2.0117073277771143
1.23046875,-1.3557539830281093,-1.082776761226814
1.234375,0.16162340583161278,-1.027910770696689
1.23828125,0.3692626121918052,-1.2569433681275703
1.2421875,-0.4431576485208138,0.3127004182454154
1.24609375,0.6109828832620293,-0.7349726093445373
1.25,-0.40401889040570466,0.17799993995894509
1.25390625,-1.1966782998204215,-0.514811736702198
1.2578125,-0.14154875451846327,-0.11454694158345055
1.26171875,-0.6114449744049671,0.5507259046126477
1.265625,1.1362410217382295,0.11335632320813804
1.26953125,-0.8474255410393196,0.8555234261597324
1.2734375,1.2827515998823051,0.8738484861731121
1.27734375,-1.4814169069840697,0.9398171113427237
1.28125,0.2825298855163285,-1.47167764321702
1.28515625,0.6584163572729776,-0.7521224555551428
1.2890625,-0.4184614817797624,-0.41303655892228003
1.29296875,1.9157022307540392,-2.607478071722232
1.296875,-0.49653820395681847,-2.03472298335856
1.30078125,-1.0680221235029022,0.9134090407664638
1.3046875,-0.9592107785164254,-1.2368481905840973
1.30859375,0.49860186475466284,-0.38468276675923085
1.3125,0.25222046521955055,-1.2712008608334258
1.31640625,-1.2943055384102,-0.24043460371731376
1.3203125,-1.3994391453084847,0.6133332515084885
1.32421875,-0.6563176400822534,-1.2085870054587744
1.328125,-2.099028348797128,-0.888368124047979
1.33203125,-0.24816261339416576,0.3904227287863712
1.3359375,-0.30339097676104354,1.483417567326661
1.33984375,-1.4929305129642279,0.8826063185912797
1.34375,0.06080729582209303,0.8322880733344287
1.34765625,0.3712089371453723,-0.11162524408383584
1.3515625,2.690152600500266,-0.9980726628800044
1.35546875,1.1742201163008845,-0.7775722208041778
1.359375,0.0885359744148113,0.7718190134943556
1.36328125,-2.11749239493794,1.3512152619986435
1.3671875,0.18755104225250388,0.8909666484781483
1.37109375,-0.5937784975149921,1.36878730243489
1.375,1.1362908196534869,-0.16006853082540362
1.37890625,0.3350814585087265,-1.2777328681475204
1.3828125,1.227526474991445,-0.8154121350404707
1.38671875,-0.7718073892103533,0.5435768686731679
1.390625,-0.3298923747207717,0.9689775485566288
1.39453125,-0.8640826614818349,-1.072452494334718
1.3984375,0.5552306587163055,0.6585873363544948
1.40234375,-0.6623246551651027,1.0288595782294927
1.40625,0.3472588478393233,0.6831576536143947
1.41015625,1.728700409044073,-1.159672730572456
1.4140625,1.1095567248984175,-0.217019918585969
1.41796875,1.7461207182975116,-0.4876916641255383
1.421875,-0.805542336863378,-0.2923073181086665
1.42578125,0.5634833336648613,-0.8792930468919027
1.4296875,-0.6555493268815993,-0.5474041715190633
1.43359375,-2.8758727379569127,0.4343237996305419
1.4375,0.35796491273476533,-1.1674254491271696
1.44140625,0.5486625036336297,1.7173730790686226
1.4453125,1.2571840958091278,-2.273580100878029
1.44921875,-0.8369607622049247,0.7153209217618018
1.453125,0.7919932582205486,-0.9080952064609277
1.45703125,0.9739227147086981,0.651775072687108
1.4609375,-0.6401273984698639,2.3609251749422207
1.46484375,0.24764125751411573,-0.6586179814130674
1.46875,0.26754302120172097,-0.4339890616990613
1.47265625,-0.36256652689623664,1.059795868814382
1.4765625,1.2152292686700839,-0.8616066488242414
1.48046875,-0.6015561002049704,-1.253332794441001
1.484375,-0.7302935763771566,-0.35245513870573486
1.48828125,1.0498884302365765,-0.9186595040331422
1.4921875,-0.3391953899151768,0.45266979776627175
1.49609375,1.3846968659229597,-0.47425798673965236
1.5,0.25638838398431696,-2.104381724354923
1.50390625,0.4282154642810562,2.3541812471370056
1.5078125,-0.5602055965268408,-0.9234324719669632
1.51171875,0.3445155395743281,0.0753516360840173
1.515625,0.005118756484751702,1.0230733543420938
1.51953125,-0.6285127460949694,0.26067700271756106
1.5234375,0.03601656189907374,0.2607924534474956
1.52734375,0.7027611654843189,-0.0792917279450397
1.53125,-0.261182362553877,-1.041841755948897
1.53515625,0.8005672842148158,0.09771823071946939
1.5390625,0.335055055690619,-0.41084600014784195
1.54296875,1.5384884911602372,2.0236315947489016
1.546875,0.9950066064301563,0.4457039818529237
1.55078125,0.8208701433573956,-1.1596269359453162
1.5546875,-0.03155684029333017,0.6867561807279607
1.55859375,-0.3619888802684763,0.4392027590267374
1.5625,2.1833239310857553,0.31703183781309774
1.56640625,-1.9969297145989633,1.6003233490807516
1.5703125,1.9545141538442896,2.0416859891311305
1.57421875,1.4188663166138074,0.760838610494286
1.578125,-1.0463511164539427,1.3853003917842277
1.58203125,1.2577807788991382,0.14936286700494328
1.5859375,1.8459263893987823,0.1317509115511549
1.58984375,-1.0672085808920315,-1.1078070989670827
1.59375,0.18967025035016208,-0.8709889607952027
1.59765625,0.32006327638876186,-0.20163524807309238
1.6015625,-0.6174365532970485,0.3703204583425056
1.60546875,-0.9131747370887309,0.6873260120984909
1.609375,-0.5391495159249198,2.568013789323361
1.61328125,0.608023927521602,0.837429430141122
1.6171875,2.692091273978686,-0.39097523777423254
1.62109375,0.6342265866908907,-1.7341987138137307
1.625,1.188379344815011,-1.097373075522381
1.62890625,0.7839735101582042,-0.22545243167889065
1.6328125,-0.35913441364351645,1.9721826719333804
1.63671875,-1.8864979059452547,0.0818315029318797
1.640625,2.128790352194068,2.0726212158991615
1.64453125,0.43521989234057457,-0.25483781889925883
1.6484375,-0.022516937031043856,-0.27420902147267906
1.65234375,1.4593801944130083,3.152372997303649
1.65625,-0.49033925935547606,0.8175348890465048
1.66015625,-0.0280029290836188,1.5487232594220302
1.6640625,-0.07138127796986575,-1.1572730519327485
1.66796875,0.275854286209956,0.18471654660770703
1.671875,1.4747867306536486,-1.035552907963856
1.67578125,-0.5106661728981879,-1.1319018856426237
1.6796875,1.5651587720227083,0.2959956907671378
1.68359375,-0.2483831713099859,-0.006018540671037009
1.6875,-1.2565909224142549,1.3404443759564586
1.69140625,-0.14841997148336256,0.07042494023854692
1.6953125,0.04758583636479325,-2.3340971413079616
1.69921875,-0.4731406084431318,0.9325003829322378
1.703125,0.10533025015979845,-0.7484075174772038
1.70703125,0.6733985965010766,-0.06910856767710837
1.7109375,-0.4197157549699511,-0.5172881928520656
1.71484375,-0.0303612046081596,-0.4970958241600497
1.71875,0.27670889495058876,1.1602667635078283
1.72265625,-0.03011469855432493,-0.1415336486910733
1.7265625,0.5719409514120948,0.9570585645683335
1.73046875,-2.0984809315895285,-0.3021857422490266
1.734375,0.4158125421525428,0.9260847827855971
1.73828125,0.6963255626329959,-2.0150777306730467
1.7421875,-1.3526408466669846,0.21999743049742435
1.74609375,-1.0455239531680014,1.4003080404189698
1.75,0.9440253212628195,-1.2580698307890843
1.75390625,0.6881250984984149,-0.14595296607237984
1.7578125,0.6087289657055042,0.28590213774956696
1.76171875,-1.1084761390672195,0.23819328243554078
1.765625,1.1310835783716655,0.2876912833816088
1.76953125,1.460318838302123,-1.1718014848527827
1.7734375,-0.5004612836893543,0.10763761182016825
1.77734375,0.8177626970001513,0.9795409882938416
1.78125,1.3546465199298536,2.138564953280403
1.78515625,-0.438600359606301,-0.41965363583049853
1.7890625,-1.8400776841770072,1.2482612816532925
1.79296875,1.1783367690411415,0.20657542923043998
1.796875,-0.7330633317834556,-1.2899693334169973
1.80078125,-0.1712934268667825,-0.31170898358741134
1.8046875,2.2854127317705832,-1.099510149012901
1.80859375,-2.0836883308861736,-0.8108493013490196
1.8125,-0.5654239504399773,0.6346097432220869
1.81640625,1.205251422798785,-1.1370137855726723
1.8203125,0.627697898579681,-2.0361196722725756
1.82421875,-1.1865392954527991,-0.6605525742705095
1.828125,-1.7547125689597693,-0.0019966880731476515
1.83203125,0.8545919240782279,1.8320849232899652
1.8359375,-0.7007162697546877,0.596243979523234
1.83984375,-0.23563188934769225,1.3825673544036003
1.84375,-0.7407580191030375,-1.5650680630151377
1.84765625,-0.9696806195054251,-1.0262192206108454
1.8515625,0.005293233833574196,-0.2119737492130964
1.85546875,0.8851504862481646,-1.1233441848913872
1.859375,0.3289350970321418,-1.552351740439348
1.86328125,1.7995399079543093,0.4207741238516124
1.8671875,-0.9401240007619104,-0.14675622805166613
1.87109375,-0.8158924685300945,-0.8638265153020179
1.875,1.0876933401209277,-0.5775992385191112
1.87890625,-0.8229943928085564,-0.034476048459579314
1.8828125,-0.8378545639717021,-1.3934620023073596
1.88671875,-0.8872386728602596,0.3035335334097343
1.890625,-1.622977965086791,-2.6512576064103692
1.89453125,0.6663803160549442,-0.6245809771095081
1.8984375,1.7541939521993832,0.7293776921972936
1.90234375,-0.059781556849950505,-0.633390100398642
1.90625,0.09750849631424918,-0.7636539962439888
1.91015625,-0.24148415265137874,1.1507619982534514
1.9140625,2.0326880360240316,-1.660562395977037
1.91796875,0.07832870631403505,-0.8035485100949152
1.921875,-0.2649085976167256,0.3289266530252169
1.92578125,-0.14760623639406828,0.03988594924357594
1.9296875,-0.5478477117182616,-0.02211492804080448
1.93359375,1.8124637838592446,-0.5709703684220204
1.9375,0.4337410681250111,-0.18133600504692882
1.94140625,0.9413920052732788,-0.3025178432122233
1.9453125,0.16695143911677332,0.44416068478636883
1.94921875,1.1686758266248407,0.2520084853912354
1.953125,-1.6686801442987071,0.43073389258708616
1.95703125,-1.1920186939851982,0.13500346329413865
1.9609375,0.89779380200761,-1.0520177393395018
1.96484375,0.8617852019740156,0.579845714415199
1.96875,-1.6399312328127886,-1.3571156988910271
1.97265625,-0.4490585244537051,-0.5857204904751175
1.9765625,0.9694946890535256,-0.6980544351748419
1.98046875,0.9690799605213202,-1.9536305376544782
1.984375,2.382993565888334,0.3459943207698289
1.98828125,-2.1106292797527013,0.9561307666936212
1.9921875,0.16489306404355653,-0.2219611091519779
1.99609375,0.05939100237936316,-1.8048997752690816
2.0,-1.9527978980929,0.25267479035473905
2.00390625,1.1833936215991734,0.43486944642095143
2.0078125,0.08091671997702295,-0.5231932579372504
2.01171875,0.0866685438207737,-0.2103615375654058
2.015625,1.2308948489782119,-0.12144127509628895
2.01953125,0.35010946117875646,-0.8863452258678852
2.0234375,-1.0992140134849278,-0.4319272555283576
2.02734375,1.4514464727317336,1.272578236079514
2.03125,-0.5372857424451859,-0.8600942987715873
2.03515625,1.0880564801826305,0.30834370186002125
2.0390625,0.16212065854436095,-1.7856805893694034
2.04296875,-1.6319899959035467,0.6654404525680934
2.046875,-0.777062238403321,0.10937598042978218
2.05078125,-0.14582259377136703,-1.0862335609142268
2.0546875,-0.25182869279908626,-0.9063172042573566
2.05859375,0.28601119855721535,-0.7113106356064798
2.0625,-1.0899989400476435,1.0879669734052917
2.06640625,0.8557650979852346,0.40392919088069584
2.0703125,-0.5050618564158474,-1.0069894684405925
2.07421875,-1.128810112949574,-0.02587076955743659
2.078125,2.4009405518124725,0.45907575059527916
2.08203125,1.5379582416864146,2.2902492632535605
2.0859375,0.4403201418021549,-1.0728856749899571
2.08984375,0.7352473586283929,-1.9340318609683829
2.09375,1.1483860728071258,0.20649018613472891
2.09765625,1.4750354439415216,-1.4364061135696848
2.1015625,-0.05661301505578458,1.1080122414433191
2.10546875,-0.6814891443474239,-1.4988817595950257
2.109375,-0.7085755534809502,0.8341919586710583
2.11328125,-1.36786482755658,0.5451014755765067
2.1171875,0.5097438490434951,0.27821255952284124
2.12109375,1.5505908855374972,1.428657050844539
2.125,0.16190126857470252,1.348887143084012
2.12890625,0.2435662588455784,-0.9596040706884108
2.1328125,-1.157363339002741,-1.7718754439150441
2.13671875,-1.9225119819011471,-1.5204123297409013
2.140625,-0.372908627321163,-0.5986184085176823
2.14453125,-0.27119176283415947,-0.7016649698540162
2.1484375,0.4152894505463388,1.4697134163994268
2.15234375,1.2147508370125912,-1.809200706648052
2.15625,-1.031638222237875,-0.8459395760446925
2.16015625,0.7254557888661901,-0.4625010216074219
2.1640625,0.4975145126883172,0.5270529105405989
2.16796875,0.11945761881733766,1.8991204026053532
2.171875,0.7603273213048446,-0.21299480826145276
2.17578125,0.16052496979750178,0.732119155704175
2.1796875,-1.123912094955876,0.41997194167337293
2.18359375,1.8587591206522365,-0.7378919230083442
2.1875,-0.29151156303696607,0.7804102825683465
2.19140625,1.3550660282054916,0.9266895578798834
2.1953125,-0.18859504168925673,0.07598748741125282
2.19921875,0.9684164618677604,-0.3181571667536809
2.203125,-0.9908899967769139,0.6978323951953669
2.20703125,-0.014086050487059047,0.17381130626341723
2.2109375,-2.5686813846410113,0.22005212172235136
2.21484375,-0.5169626191521592,-0.6379804191412995
2.21875,-1.355154961240813,0.06775886406415786
2.22265625,-0.5786082428952285,0.030450944573848036
2.2265625,-0.6287477630314773,0.4833876277296251
2.23046875,-0.3249815701963249,1.9186052829984446
2.234375,0.8875587890657349,-1.2270448539003291
2.23828125,-0.44320757822111695,-0.738558230800566
2.2421875,0.6828223648361773,1.152084568445578
2.24609375,-1.424556055950756,0.4845696899725662
2.25,-1.2652172176182184,0.03438807153200791
2.25390625,-1.089500947648915,-0.41686789496116583
2.2578125,-0.8225927938742819,-0.5474306374556788
2.26171875,0.44666424547253375,1.7051445604913065
2.265625,-1.9515128660236274,-0.8010539739809834
2.26953125,-0.006700228240969433,-1.1301903037254746
2.2734375,0.2712487938668473,0.006042899077484279
2.27734375,1.5364041325917142,1.8030958970081394
2.28125,-0.5664662182712635,-1.8260422572893755
2.28515625,0.4575410522608326,0.24236734671409535
2.2890625,0.7057215884168803,-0.10676444733975839
2.29296875,0.8915537200294903,-1.043633758099987
2.296875,0.4615793441030364,1.307628280955634
2.30078125,-1.40118738438743,-1.0343926233067477
2.3046875,0.11706428570129966,0.2171679946899508
2.30859375,0.03295425560496627,-0.4261999763069339
2.3125,1.3113999853949068,0.0054763771659761505
2.31640625,-0.5152281752676771,-1.6774199109891412
2.3203125,1.395199118771117,-0.060395692613193885
2.32421875,0.12414284372025733,1.6351938479928465
2.328125,0.336596573776159,1.0611968264463252
2.33203125,0.28635798564527093,-0.030930023966673714
2.3359375,1.4268511713227932,-0.04024360384317608
2.33984375,1.0108632144271725,-0.970083115440655
2.34375,1.6077297065334193,-1.2215951465457846
2.34765625,-0.46665747420863013,-0.3701855708478666
2.3515625,-1.144320982641847,0.08912662368337984
2.35546875,-0.4546329147001157,1.0079802052417475
2.359375,1.7492443413060337,-1.213348113854263
2.36328125,0.5907804676846222,-0.5020096047973956
2.3671875,0.20450901122259552,-1.3509787807510136
2.37109375,-2.1175183141889637,-0.7763780290845103
2.375,2.4891859572070905,0.5890456713527887
2.37890625,-0.32836453051420716,-2.081523884357528
2.3828125,-0.24305341896352667,1.3613217609335324
2.38671875,-1.8753807824648534,1.0546610195761859
2.390625,-0.7013750268731551,0.39607338791711333
2.39453125,-0.0071009179740648505,0.8595149788701715
2.3984375,1.054156788693015,0.29547370512882287
2.40234375,-0.5988634504599355,1.4728801319008504
2.40625,0.16192392590702043,-0.11348529735268799
2.41015625,-0.5229387379734697,-0.38356449195512715
2.4140625,1.2584891702210341,-0.3628970134393011
2.41796875,-1.7785817030515063,-0.7109363006591594
2.421875,1.4640706026988788,1.055367049184583
2.42578125,2.150082066664894,1.9802801512185428
2.4296875,-1.6989377010177413,1.8442307206063584
2.43359375,-0.7968847404962119,-1.2183902337767762
2.4375,-0.44099392000478643,-0.1909747954757602
2.44140625,1.3868396397786285,0.7782203830029067
2.4453125,-1.3542433226027835,-0.3631442907632003
2.44921875,1.931237114813402,-1.6639529315204418
2.453125,0.675031026371287,-2.780599332260369
2.45703125,0.5493649964638457,-0.4305602455624187
2.4609375,1.3528831958248773,0.48016937213903815
2.46484375,-0.41305868137208945,-0.041028570257239216
2.46875,-0.9103865250927756,0.36865703883423595
2.47265625,-0.38877642635578813,0.6127574414448124
2.4765625,-0.6921532161257595,0.3812957261282031
2.48046875,1.0617420676413254,-0.07732579542025962
2.484375,0.5967582108298466,-0.9302714556583516
2.48828125,0.0038527862705630325,-1.042873211728543
2.4921875,1.2633682994312876,0.7881559107459426
2.49609375,1.6204845088224245,-0.5271029668352741
2.5,-2.380169189887903,0.08372309052659133
2.50390625,-1.1879819742586017,-0.11920268341008428
2.5078125,1.3449701970192298,-0.02600494312209235
2.51171875,-1.7436199646651824,2.84989582134731
2.515625,0.24075878872092016,0.37833224328942505
2.51953125,0.26543458273436493,-0.05658487926000809
2.5234375,-0.008225751832241775,0.3125100489235578
2.52734375,-0.48832448955267277,1.636510310069044
2.53125,-0.015265135419326245,0.4667740315854889
2.53515625,-1.1497368615471033,-0.15467861499720398
2.5390625,0.32467975074805605,-0.4224589648590158
2.54296875,1.5164456737666512,-0.871927499073312
2.546875,-1.2220521984853834,-2.3617848396026875
2.55078125,0.5845077446296263,-1.3001323448197049
2.5546875,0.06036233184367834,1.3430307992634247
2.55859375,1.8169625645742824,-0.00015876333958448363
2.5625,-0.2684310802455255,1.001044076162501
2.56640625,-1.081934326092275,0.24469097958802447
2.5703125,0.9213734445377377,-1.8896778868333537
2.57421875,-1.4017889822122303,0.16395197781866527
2.578125,-0.30533212011133265,-0.207541482399125
2.58203125,1.3305333115816194,-0.7915208212754814
2.5859375,-1.2365304135829813,0.8833816488521093
2.58984375,-1.9775572372853412,0.5140144135895437
2.59375,0.7500692081826691,-2.6458146180116238
2.59765625,-0.5717065197384851,1.781532063507489
2.6015625,-0.08341189377522855,1.2650889002377126
2.60546875,1.9704180400072242,1.5367725183047816
2.609375,0.005764290237985659,0.5302612992718031
2.61328125,-0.8006545238935637,-0.7137487393631573
2.6171875,-0.10976432446933465,0.4173678951336657
2.62109375,0.8448452642944628,1.2255016697275862
2.625,0.8332069996141529,0.17288883977459818
2.62890625,0.7071880255573189,0.06928621090901033
2.6328125,-0.44206749047799515,1.9290635119113326
2.63671875,-0.6123304358381213,-0.9726661868722491
2.640625,0.19592621649128583,-0.43536890240196213
2.64453125,0.9334132874831452,-0.4809727429836979
2.6484375,-2.2046891610286297,-1.7972639315989798
2.65234375,0.45664173324174434,1.0906358672571697
2.65625,0.6858443878504846,-0.08835840928690984
2.66015625,-2.238883844459056,1.4794105060810394
2.6640625,-0.9308291093577783,1.0941115848530183
2.66796875,0.29182415818167745,-0.15599390003854904
2.671875,0.9694521010792625,-0.40745160545059333
2.67578125,-0.17667625116389934,-0.5527138381619654
2.6796875,-0.7017573955164073,-1.3062324278493596
2.68359375,0.26267119295582786,0.8316020391261276
2.6875,0.675699119663588,-1.1101152209710667
2.69140625,1.693202730841419,-0.7957705024006123
2.6953125,0.5625730900221508,0.4910922533482324
2.69921875,-1.1721595779644087,-0.48461415994727497
2.703125,0.9604238656551204,0.7940633928957137
2.70703125,-2.3927576465106455,1.599236804431649
2.7109375,1.0519563434442636,0.4156574183362311
2.71484375,0.4511710790120441,-1.469780953275331
2.71875,0.21667459657889485,1.8785610185014594
2.72265625,0.08949778002774215,0.6141846995699454
2.7265625,0.5841507757515493,-0.32065492067127876
2.73046875,0.30443390075848115,-0.45180119633711074
2.734375,-0.8185095823652975,0.8921044822713146
2.73828125,0.7536082599752439,-1.0452052471017506
2.7421875,-0.8924563478354183,-0.40275832901684355
2.74609375,2.144274845780062,0.6708788954834244
2.75,-0.14540351104826446,1.2294486748322624
2.75390625,0.2117298674777103,0.15502280456762269
2.7578125,0.44229779619445997,-0.482904193105448
2.76171875,-1.736794821455114,-1.2599811305720505
2.765625,-0.8548857452598179,0.27691230035928077
2.76953125,-1.4775167917709593,-0.19263978425505646
2.7734375,0.18622013546993804,0.15666075672339466
2.77734375,0.35592440083067756,1.370986554761505
2.78125,-0.7950990721391643,-0.5313482099895804
2.78515625,0.18644549151320586,-0.5971689506267331
2.7890625,-0.5438413031298789,-0.3467921388827455
2.79296875,-1.4982597851990405,-2.4240669766718628
2.796875,-0.11147461851145708,1.1450051396625154
2.80078125,0.20904130972389035,0.4825648732709343
2.8046875,0.5292760257765898,0.09485635695909761
2.80859375,0.9679147348977649,-2.0723386203572596
2.8125,0.2379789159874572,2.6993487156674365
2.81640625,-0.49142041006566334,-0.9732929587562422
2.8203125,-1.143175807988662,0.10055742264651232
2.82421875,2.0310003493157596,-0.18693665994392894
2.828125,-1.3416754959347423,-0.2409323496463556
2.83203125,1.3047507753170424,-2.432241700915581
2.8359375,0.7246911642710293,-1.211905915177094
2.83984375,1.0137510861982981,1.3534265781915344
2.84375,1.3328129111999398,-0.9524202884913544
2.84765625,-0.7535525308705121,-0.10698357085699697
2.8515625,0.15091490036550817,-0.17436377014852006
2.85546875,0.02020193613475397,2.3933659842323918
2.859375,-1.2712324531074852,-0.8786071969417579
2.86328125,-0.4260618439986622,-0.1302038894310484
2.8671875,0.12385598183510294,-1.8621922228827703
2.87109375,0.8341339531394497,0.16756930938705505
2.875,1.077669668206803,0.04010717117278184
2.87890625,-0.3717081076330329,0.3050301162036016
2.8828125,-0.15879670063232193,0.3697642102426229
2.88671875,-0.23426273966214586,0.6676408571417886
2.890625,-1.0232707208337424,0.34934164490765834
2.89453125,-1.530059151470398,-1.260670254405925
2.8984375,0.3880824565892069,-0.5352665495931972
2.90234375,1.3619447963578952,-0.9410062393321994
2.90625,-1.930307028302666,0.20122762537087588
2.91015625,-0.03918039756043433,0.9308152231626629
2.9140625,0.5796962187538255,1.4030001173044941
2.91796875,-1.3097885737159214,-0.975646046805085
2.921875,0.5459736771338889,-1.3358684192840975
2.92578125,-0.26029626807913125,0.3609740616149281
2.9296875,-1.2740287951895168,-0.31420400844470653
2.93359375,0.4690560876423475,-1.3526542668123103
2.9375,-0.41948069806715077,1.7032072057294922
2.94140625,-0.2116481082242019,0.6665971532482877
2.9453125,-0.6864722715105687,0.4997157980015398
2.94921875,0.07917791883100793,0.10400971989376703
2.953125,0.7062195019973183,-0.3469910341822671
2.95703125,-0.8026830598202859,-1.276235235468837
2.9609375,-0.9017976692720878,0.15731441712605934
2.96484375,-0.9588577083290366,-0.9755851459594497
2.96875,0.3667069359329637,0.7825421025660401
2.97265625,-0.6976331354789276,0.7128455395870908
2.9765625,-1.100708387101126,0.41053964007477967
2.98046875,-0.06017801154648901,-0.7943463012383523
2.984375,0.6881568448526315,0.9043143853140612
2.98828125,0.36296069250531127,-1.7869638419439975
2.9921875,0.0552631422382233,0.6395281500719391
2.99609375,-1.3496296987578533,-0.26931157839659753
3.0,-1.7546912925696263,1.0084150696309884
3.00390625,-0.29050006092584474,0.35542902683677874
3.0078125,0.5730788376279606,-0.19408575768044933
3.01171875,0.3560463844355373,-0.5948092937083375
3.015625,1.581957156854446,0.5152710252906597
3.01953125,0.09594807558679447,-0.6147712954967924
3.0234375,-0.7926777249200687,0.693790854673241
3.02734375,0.5263154473253316,-0.7119592012455983
3.03125,0.33285990901640766,0.30026671623021417
3.03515625,1.4807215640276605,0.5344293894977936
3.0390625,0.5078691117188967,-2.318319102119697
3.04296875,-1.2137956784156692,2.035758154586137
3.046875,0.0020215209521699277,-0.8140239412268512
3.05078125,0.7527047714833,-0.5522901626558909
3.0546875,-0.038775129806171524,0.7828463647157994
3.05859375,-0.4757077599127038,-1.3892391944574747
3.0625,-0.9788321568412015,-1.1301942874819801
3.06640625,-0.5733376695558233,-0.0990828692839185
3.0703125,0.8862787687298971,0.7090864323561693
3.07421875,-0.7089226311513336,0.7513207099053225
3.078125,-0.7297696836933192,0.6832834902326012
3.08203125,-1.8155709015578152,-1.7507403082473774
3.0859375,-1.6909337922003065,0.5435500417038682
3.08984375,-0.7520351999128914,2.2101694530044043
3.09375,1.328286566652404,1.904603736061511
3.09765625,0.23648009730103722,-1.0400067218059115
3.1015625,0.9730809819607735,-0.8506550253676088
3.10546875,0.4347669339575928,-1.0395346183998149
3.109375,0.31201295725391487,-0.25853506531883974
3.11328125,-0.9885547857612854,0.3984266261068209
3.1171875,-1.8492035728315415,-0.8551087626023096
3.12109375,-0.46768162009323055,-1.8948608433003709
3.125,0.025239234998540656,-0.30995000942977746
3.12890625,-0.8089754404441294,-2.0834897218486765
3.1328125,0.08350296195603163,-0.1139331467469093
3.13671875,0.8244857415244947,-0.2816034729895656
3.140625,-0.292135533949969,-0.24510570720861097
3.14453125,-1.069113350004248,-0.5802762550941264
3.1484375,-2.7678801084414864,0.13965277697138717
3.15234375,-0.18757901162731494,-2.448961379238392
3.15625,1.9945051797985907,0.47522677343268027
3.16015625,-0.001956029132311306,-0.9404148263802615
3.1640625,0.6450180846272011,0.00859758330983327
3.16796875,2.5083843263943124,-0.2848660694502957
3.171875,0.09874717936956164,-1.2404295105957714
3.17578125,-0.350917459469065,-1.7803998605036158
3.1796875,0.2210559196144642,1.2816007769153528
3.18359375,-0.40990094044248643,1.3854250104889854
3.1875,0.16499049569123722,0.2793236696668418
3.19140625,-0.24334883318496456,-0.01424712752093143
3.1953125,0.2064406067720016,-0.7143954940043745
3.19921875,-0.2196484222634787,0.780047936311823
3.203125,-0.15344248138074038,0.4894833994362048
3.20703125,0.7349135574241673,0.012006589321111481
3.2109375,0.8007073658242482,0.5803035622227318
3.21484375,0.003412200130290235,-0.5091892568299642
3.21875,1.4497688773592416,-0.6325618932271518
3.22265625,-1.9929967000964346,-0.010387993267359149
3.2265625,-1.3157041439693569,0.562524429429289
3.23046875,0.18763597666274556,0.12024327997736457
3.234375,-2.4207037552860378,-0.6144460739364486
3.23828125,0.9763203402490308,1.4003098649199177
3.2421875,-1.4028215820930159,-0.4957223817450155
3.24609375,0.3753382237532096,0.23367850088137782
3.25,-1.1067137002726841,-0.8991174776107973
3.25390625,-0.8487944623790561,0.47613169839079555
3.2578125,1.1614409574359534,-0.4807746238118257
3.26171875,1.6047530484154597,0.11687540383746899
3.265625,0.7090177532254636,1.5782736129181107
3.26953125,-0.11623496966596973,0.765128181660216
3.2734375,0.139378862953204,0.48032094617342963
3.27734375,2.1828749824105897,-1.8800655332935203
3.28125,-1.0738163218477683,0.02095560307433184
3.28515625,0.533341326201687,1.3666394830621957
3.2890625,-1.0899682687802525,-0.32557120878388723
3.29296875,-0.7670504538079802,-1.0314576169841585
3.296875,0.7660889929358324,-0.5155538139802204
3.30078125,0.3904048583406553,0.20213196197267486
3.3046875,0.25027847962537947,-0.08916812896382625
3.30859375,-0.8859069643539143,0.8979660104499677
3.3125,0.3399704579958664,0.386834785599324
3.31640625,0.8758567550888475,0.71230606013622
3.3203125,0.4796844529038237,1.1407430108355472
3.32421875,-0.6968203223982152,-0.040335953053912306
3.328125,-0.6858936744514468,-0.3135556810035063
3.33203125,0.9408700118555399,-0.32456207190404496
3.3359375,1.2392427054076247,-0.7381089714402985
3.33984375,-1.6724437061226463,1.3771751123116507
3.34375,0.35419367835665316,0.7718645035629524
3.34765625,-0.6114665406144388,0.2810426136253863
3.3515625,1.040173886263933,1.6022915557198414
3.35546875,1.6313622407687132,-0.6498089138558463
3.359375,0.7148174708891611,0.9949650739008666
3.36328125,0.5718392911738961,-1.808025538128271
3.3671875,0.07384703170031845,-0.17669532883041714
3.37109375,-1.9921233830608212,-2.5966123979751323
3.375,-0.5422238962309315,0.3872635958060349
3.37890625,-0.15623625145953968,1.8703124285163888
3.3828125,0.7549898353104434,-0.9999452079151886
3.38671875,-2.3697296899766114,0.3708428294178464
3.390625,0.4627967155383394,-1.8701956059023053
3.39453125,1.4267477443833947,-0.31896521249790305
3.3984375,-1.4426121651429038,-0.23697797771296414
3.40234375,2.011706907947112,0.4854276565682483
3.40625,0.3526588542398153,-1.0213646415193736
3.41015625,-0.4936671372732813,1.2148575005307636
3.4140625,1.5352925500248589,-0.5409966911462907
3.41796875,-0.749291423984134,-1.205009236567777
3.421875,-1.2430764480993317,-0.18008485397671128
3.42578125,1.3801532419357352,-0.7764308873257536
3.4296875,0.5629351645599856,1.8392849671801377
3.43359375,-0.05192285209973064,-2.1546542131304274
3.4375,0.45623273833264993,-0.2927078966324286
3.44140625,0.43671103871103206,1.0291179498956762
3.4453125,0.6209370487957767,-0.5531276473389676
3.44921875,0.37852361177235283,-0.9488069056602391
3.453125,2.3592184636544444,-1.1804865705207679
3.45703125,1.4749460973226536,-0.05843473429026086
3.4609375,-0.8510680430877924,2.0263347747220832
3.46484375,0.09028107353845148,-0.009205394740517578
3.46875,-0.6271913745986555,0.7629962645309779
3.47265625,0.8915244527660982,0.10219267496678837
3.4765625,-1.9689055799058084,-0.45673368566276296
3.48046875,0.17482491499904132,1.2151550306172323
3.484375,0.4890877988915197,-0.9805979701857144
3.48828125,-1.086904246613775,-1.5624183943140193
3.4921875,0.004106548877173312,-0.1823496892855293
3.49609375,0.07534835409096952,-0.38181985859397927
3.5,0.7219313175233608,0.1732835660033927
3.50390625,-0.5444660081861312,1.1277243982635548
3.5078125,-1.4720683471642195,0.44161821455091194
3.51171875,-1.7540085404988741,-0.07976616870260984
3.515625,0.9274572397081577,2.361048144411469
3.51953125,1.168199851081008,1.1664514276736395
3.5234375,0.22248023005238085,-0.7330718400955815
3.52734375,-0.10216439710759817,-0.37683018633636406
3.53125,-0.09200860343572585,0.4332627801568037
3.53515625,0.9946534441983119,-2.3784766720948274
3.5390625,-0.6039077296293417,0.13120165482389706
3.54296875,-0.5200292675009317,-1.9982062024392082
3.546875,-0.8950073226035994,-0.9263681246580752
3.55078125,-0.2990865437179806,0.593979874787601
3.5546875,-1.789019987407438,1.1175114732367268
3.55859375,0.8065317917065209,-0.37979914185702496
3.5625,1.241021263406164,-1.4797943005825243
3.56640625,-0.693898695656029,0.5206458255441512
3.5703125,3.473581991919404,-0.611554124003561
3.57421875,-1.1573900682959313,-0.6865485193480445
3.578125,0.2839847078977048,-1.495614720757172
3.58203125,0.03071375939601064,-2.4254857585566505
3.5859375,0.6775463810655846,1.52418942222055
3.58984375,-0.5625704737672007,-1.6687612623383439
3.59375,0.07498997277912596,-0.029462449962336518
3.59765625,1.3026764893013536,1.4435889607368806
3.6015625,0.7178516268071014,1.6951861683130556
3.60546875,0.7476615348666966,-1.9161674575523073
3.609375,1.4067039265965264,-1.4674587501092897
3.61328125,0.6890178944547386,0.483470121440681
3.6171875,-2.265842772043458,-0.8022393432843313
3.62109375,-1.9868011737332671,1.7970529633345995
3.625,0.7820958726768792,-2.1855485035303293
3.62890625,-0.6743718584326808,-1.0129473673606744
3.6328125,-1.9844850058404147,-0.7460358650930946
3.63671875,-0.20615879589775132,0.5175012752731221
3.640625,1.2501102466795735,1.279888277696528
3.64453125,-0.7456464410581397,-0.08798891584560302
3.6484375,-0.9564903553767715,1.7309925741056904
3.65234375,0.32616727242692617,-2.041558415797556
3.65625,-0.9455348087635528,-0.11805495521819788
3.66015625,-0.5796923454893377,-0.5394357786051892
3.6640625,-0.966670516234275,-0.2531784730083797
3.66796875,0.09181903758320883,-0.20212090690280915
3.671875,1.1408797118980734,-0.025903116945861844
3.67578125,3.1020658820046396,0.8277679291213217
3.6796875,1.4607845096221372,0.49975819304356645
3.68359375,-0.21302539098160533,0.31027145171050724
3.6875,0.07636851231314908,-0.4261230635575569
3.69140625,-0.3941020084871903,0.00954186826660074
3.6953125,2.5787350929077806,0.6462895640894504
3.69921875,0.009037026834783416,-0.47388720517969524
3.703125,-0.661657475297471,0.5155076582525674
3.70703125,-0.10319364670941657,0.24724550830674072
3.7109375,0.029856184163027037,0.6208258239081962
3.71484375,0.8374803520782264,1.723089571916924
3.71875,-0.714264359230209,2.0535473887576785
3.72265625,0.37900091709405,-2.0051236221783886
3.7265625,-0.4911155675663623,1.2666539155637708
3.73046875,0.7990810661528871,-1.1201694028631832
3.734375,-1.587072783506186,0.4239813788235828
3.73828125,-0.778461356264779,1.013075504683312
3.7421875,-1.668835848817158,-0.6280924501734706
3.74609375,0.31952296264802604,-1.7346917701636904
3.75,0.4742077291774312,1.9235044003833899
3.75390625,0.960180055126325,-1.0232994082174587
3.7578125,0.12331235254148495,-2.395528939328731
3.76171875,-0.5012767693962537,0.16899554272826553
3.765625,0.0016071471818058594,-1.1363780298595398
3.76953125,0.5926084915385991,-0.6946236415333413
3.7734375,-0.19480733488001944,0.3944059452341075
3.77734375,-0.33163238901010333,-1.2440305553363113
3.78125,0.04302698963771171,-0.4041459425285572
3.78515625,-0.8369730354294084,0.3202320551714603
3.7890625,1.538429104090377,-1.4632166731472422
3.79296875,-1.226524494855334,-0.08277582343609795
3.796875,-0.7698227799213286,0.7320778735249284
3.80078125,-0.28638437663728583,-1.2966814401246685
3.8046875,0.4853107861699555,0.26325325692878576
3.80859375,-1.6319110844856284,-1.1724351074911248
3.8125,-0.6786539883509222,0.06514447781909828
3.81640625,-1.2805073892944565,-1.2332395960669347
3.8203125,0.25188069837468635,-0.9580535259251224
3.82421875,1.4756051040366438,-1.0615811657920073
3.828125,-0.9307748638382839,-0.9092208855211195
3.83203125,1.0626192524317528,2.2784150135701626
3.8359375,-1.5964459408473433,-0.28903525011459485
3.83984375,1.131697063193949,0.8690855946478541
3.84375,-0.16073636283147555,0.10001818789913101
3.84765625,-0.6460187081242121,0.5784045195809655
3.8515625,-0.182812601940016,1.2687608783872173
3.85546875,-0.8735458453214985,0.60149006547487
3.859375,0.5746575694583442,-0.3646726869561821
3.86328125,-0.5586914973931394,-0.9659318785997455
3.8671875,0.5791624037064214,0.252967143620383
3.87109375,-0.9945864689239214,-0.4028666291126315
3.875,0.10249267554358443,-0.3137294352096997
3.87890625,-0.2937130434602234,1.4092657247298652
3.8828125,-0.008304815699005185,1.667713426680863
3.88671875,0.3281273976253043,1.5120937462314452
3.890625,-1.9155810746532909,-1.0986552058421588
3.89453125,-1.1756503030083634,-0.2592801684872666
3.8984375,0.4651941492766658,-1.5171681209618713
3.90234375,-1.1818521227478243,0.4078544657069932
3.90625,-1.3769187344259544,-1.9060908847796751
3.91015625,1.196434395359901,1.0181028501481166
3.9140625,0.1528638368176425,0.11551033496013942
3.91796875,0.380761468769509,-0.27542964918047286
3.921875,0.18745357019596753,-0.2478103822431066
3.92578125,-0.7785337198020613,0.4512343310350519
3.9296875,-0.23089054556660857,-0.7001997904637757
3.93359375,1.0477353040560304,1.8537093466639314
3.9375,0.7884496313151674,-0.7166887511192669
3.94140625,-0.21625365011246583,-0.17415103435050006
3.9453125,1.2126369309532585,0.9290040437089323
3.94921875,-0.2067483576022235,-0.030989195437682606
3.953125,-0.7338134966968872,1.493966695075838
3.95703125,0.3409837958041367,0.574715276123047
3.9609375,-1.876579072914979,-0.14641009895335114
3.96484375,1.6797076617381081,-1.7425659836902532
3.96875,0.37656562413818123,-2.2950868865474194
3.97265625,-0.8172896790686107,-0.5041177958418761
3.9765625,-0.3097134501763991,-0.048596939094691795
3.98046875,0.3700997434463602,-0.5236624395394293
3.984375,1.4841357698892577,0.16471627269851516
3.98828125,0.13206754383267447,0.7291909487852235
3.9921875,0.5143664737931338,0.412589347914099
3.99609375,0.19016293780506927,0.011793353557760743
4.0,-0.3940630558800437,-0.9565295354842634
4.00390625,-0.09750435158945531,0.5585151855103317
4.0078125,-0.1606044905283865,-0.5232620161071612
4.01171875,-1.0228466768374203,0.5323413028597963
4.015625,0.07160346880391487,-0.4266177399831598
4.01953125,1.1100201856713732,-1.5074098696069
4.0234375,0.054078642337441626,1.188372686935955
4.02734375,0.6045819375485418,1.597916462102941
4.03125,-0.726486598805221,0.7514999726429119
4.03515625,-0.13578452256200826,0.24230768668662306
4.0390625,-0.7347940375472758,-0.4299894149709921
4.04296875,-1.0366695184234227,1.1687976364215575
4.046875,1.2105105201916413,-0.4722358300720411
4.05078125,0.7935197156352055,1.2660915022084849
4.0546875,0.6531198016182967,0.7050329404991156
4.05859375,-0.4138921489860613,-0.23770113427799597
4.0625,0.03731366806368902,0.6503864872885937
4.06640625,-0.026738563827317822,-0.5244884547033237
4.0703125,0.5286022086235388,-0.47560032728689844
4.07421875,-1.1407487593425538,0.13221507814161967
4.078125,-0.1728000778876512,0.21096731575827687
4.08203125,-1.1120351059861413,0.09730322190785612
4.0859375,-0.4581468281029299,-0.3755249394600644
4.08984375,0.4883491980896615,0.9117302698924992
4.09375,0.3083969249745167,0.23457064342535872
4.09765625,-0.19761603234474168,0.3636853388270701
4.1015625,0.8131958995909059,0.6637643206886622
4.10546875,-0.848867980468808,-0.15209517583956433
4.109375,2.0147040619918437,0.5072602944263367
4.11328125,-0.9628566164031958,1.6768166447466812
4.1171875,-0.6270016818498431,-1.4645092851650434
4.12109375,-0.29904312654909615,-0.5617705935673316
4.125,-2.26171845035968,-0.5710356209202953
4.12890625,0.6831329304441339,-0.2816363711738761
4.1328125,0.8884458757489729,-0.18932308663538033
4.13671875,0.2853355199652435,-0.12083435401246712
4.140625,1.4790485059590133,0.5129803168866837
4.14453125,1.1813979944586892,-0.17009977775438462
4.1484375,-0.9621016771089477,0.6906432947924407
4.15234375,-0.7452588783199298,-0.0750969972259049
4.15625,-1.533058910502845,0.09215046692712929
4.16015625,0.7181420439630319,-0.4441582041150421
4.1640625,-0.0022339369830708267,0.422961141975725
4.16796875,0.0978064624307779,0.5925394939535176
4.171875,-0.7479586431571208,0.006026287297393579
4.17578125,2.981755825071958,0.9501140145791764
4.1796875,-0.37957447470948724,0.5397107685185257
4.18359375,0.3946403626123003,-0.5275233314833646
4.1875,1.0779884422001764,1.8096346428837409
4.19140625,0.42531978750740734,-1.9850634401060603
4.1953125,0.6842358720960156,0.3458082161452462
4.19921875,1.7084568727943774,-0.08383613858002242
4.203125,2.230683587621119,0.9985025705261292
4.20703125,-0.5825076318192182,-0.12953576381894388
4.2109375,-0.22911260007876588,0.9737112674270796
4.21484375,-0.30794710736460024,-1.1308339843032418
4.21875,-0.6368593763442335,2.198648806838408
4.22265625,-1.225427791855436,-0.6044244970342916
4.2265625,0.41824998875178543,1.0894385807584066
4.23046875,1.668585281501226,0.17777207387888325
4.234375,-1.8128020907346611,1.073956491516479
4.23828125,0.6966609591687988,-0.2683877076200015
4.2421875,-0.15449037340442945,-0.4633239622545671
4.24609375,-1.0677559348427053,0.720116127274028
4.25,-0.17314325032466954,0.7661140111004695
4.25390625,0.989642519191185,-0.5193992198392949
4.2578125,-0.4823947752468447,-1.6251636388863835
4.26171875,-0.3630014139160976,0.5006564175776452
4.265625,0.9374124011859986,1.0479288643967664
4.26953125,-0.10086878088911654,-0.28558684458488526
4.2734375,1.622180232892735,-0.26225861165548586
4.27734375,-1.184687008490935,0.23233758306345753
4.28125,0.18732264873711452,0.08258653776798638
4.28515625,-0.33480793882051724,2.2268052696643132
4.2890625,1.1155068134404031,-0.15271737973362318
4.29296875,0.3741580081206196,0.49410526658644105
4.296875,0.3248765737877924,-0.6093210639637409
4.30078125,1.1186088481075425,3.432816448050324
4.3046875,1.127800195826211,-1.8145712102365814
4.30859375,-0.6880448913395153,0.6368558166393707
4.3125,-0.3255713226155938,-0.9204311939921097
4.31640625,-0.42935129173300673,-1.0531441368907455
4.3203125,-1.0378893654651538,-0.19701245693650854
4.32421875,-1.0637912886136631,-0.7896790881891865
4.328125,-1.8227512409339877,1.1533556292178855
4.33203125,0.030433434902142908,-0.23158431307465643
4.3359375,0.528524909098659,0.9598274209840588
4.33984375,-0.6222720888871129,-0.29527994007616987
4.34375,0.6847279344371158,0.10935722665401544
4.34765625,0.4420548655952949,-0.6500507141974994
4.3515625,-0.8173150916968921,-0.9325033194965135
4.35546875,1.2068190077458134,0.3237826440260352
4.359375,0.8683230593016112,0.6104800833842687
4.36328125,0.6588115385890168,0.6388835177382647
4.3671875,-0.12886481341188832,-0.9165063845157024
4.37109375,-0.4392601250508127,-1.1535493457884143
4.375,0.1174289874767487,0.07027861084790155
4.37890625,0.19496849003778519,-0.2721218222697024
4.3828125,-0.21738567582963736,-2.19386116752151
4.38671875,0.7661104033590459,1.2317417033445226
4.390625,-0.8398388176062097,1.716418287392309
4.39453125,-0.2802363889418353,-1.4409445651528556
4.3984375,-0.39380304656428383,-1.0171213366082785
4.40234375,0.12461425955362852,-0.6226642695781931
4.40625,-0.8868168421905079,-0.17081855364304127
4.41015625,0.43846535191767577,0.25168817442014774
4.4140625,1.2258602613628877,0.31325618042479964
4.41796875,0.005084617004136555,-0.827372365007518
4.421875,-2.504286692241275,0.4098387479641636
4.42578125,0.2137220105531135,0.5887666084455287
4.4296875,0.1822769690021519,-0.7281847814710503
4.43359375,-0.8798160193573213,1.2943850105416312
4.4375,-0.03557704070003372,-0.17340419137031582
4.44140625,0.7741056819177292,0.4996098018636854
4.4453125,1.134292484287846,-0.6041722518275396
4.44921875,-0.11774883578311335,-1.6741029594139205
4.453125,0.004585679620499701,-0.9626722657176676
4.45703125,2.2716767359399657,0.23258942875678204
4.4609375,-0.2628110743774353,-0.5731667181879031
4.46484375,-0.18212075110737536,0.07541594856542023
4.46875,0.9901556046388795,-0.18867585611360363
4.47265625,-0.5818692708777994,0.33800616346955864
4.4765625,0.8417538418257985,1.27131722392877
4.48046875,0.8747606177655025,0.3197951887257202
4.484375,0.48979652700948145,-1.1866778323319398
4.48828125,0.06949776908188669,-0.16704521304464928
4.4921875,-1.457699992239702,-1.45659719870947
4.49609375,0.11507132240365806,0.26096904869975684
4.5,-1.0131015649966113,1.068822789850928
4.50390625,0.12726131191722775,0.44665439986181416
4.5078125,0.3732387375315209,-0.6038229095721691
4.51171875,0.29909748437703576,-0.7008583278448113
4.515625,-0.43914029507414876,-1.475363793365558
4.51953125,0.8338226172429001,-0.41980537963746917
4.5234375,0.33498386285311327,-0.5694264167311688
4.52734375,0.5480324723140758,0.5699532251053022
4.53125,0.1813150813412349,-1.2103802486664565
4.53515625,-1.9433614305496336,-1.0472930568356353
4.5390625,0.13739224823285562,0.5056294623483295
4.54296875,-0.9731818446652282,0.2579296746844416
4.546875,0.18598816814472072,1.1369680799023683
4.55078125,-1.0019402021859072,1.0543637184526644
4.5546875,1.2534886468728428,0.45437374142089954
4.55859375,1.146285489827937,-1.526530922270621
4.5625,-0.5663861372452647,1.62024426629251
4.56640625,2.594381653206385,0.871943856448296
4.5703125,-0.7182298223132088,0.3056317391131568
4.57421875,-0.7949163056490809,-0.08514137360256718
4.578125,0.5458338141597766,-1.2783087408420386
4.58203125,0.06055970312310022,-0.28010611450613976
4.5859375,-0.05535364524077146,-0.18033656209405252
4.58984375,-1.916409802647937,1.6497807056131062
4.59375,-1.1557271988360796,0.6244996645574782
4.59765625,-1.6848898059791606,-0.5526932800109268
4.6015625,0.9538328169598116,2.1451718197335343
4.60546875,-1.2013333813009714,-1.1879326932612606
4.609375,-2.4849457006916724,-0.8079732891419021
4.61328125,0.1757030496595436,1.734836449979404
4.6171875,0.02406782936400641,0.3881385102096118
4.62109375,0.32649788592542806,-1.9585227991053937
4.625,0.39187572936060944,0.18159765761977462
4.62890625,0.8218995852326364,-0.12084627142049771
4.6328125,-0.1529860519756735,-2.088194931936966
4.63671875,-1.0425815177600268,0.014510626722654182
4.640625,-0.647232133322017,-0.9545093701968751
4.64453125,-0.9557380736066963,1.5548397781101848
4.6484375,-2.374908478300016,-0.9931141873326668
4.65234375,-1.0416232449668228,-0.04361064001096013
4.65625,-0.42400789587091064,0.011226722237733449
4.66015625,0.36849625975299855,-0.7420669183992759
4.6640625,0.5843987057020716,-0.9397250745108978
4.66796875,1.476078263582181,1.2412899588583592
4.671875,-1.3900922236428028,-0.24478266765264672
4.67578125,-1.9397091168885983,1.219742492096035
4.6796875,-0.6758081653558741,1.3190880456105916
4.68359375,-0.390006392402241,-1.1250375639794314
4.6875,-0.31819851841128555,0.586497173613793
4.69140625,-1.0168067549088888,-1.2608085378840923
4.6953125,1.5860948480634907,0.5741455803875576
4.69921875,-0.5765132815112315,1.17494295789736
4.703125,-0.6024012549079208,0.42292723969742796
4.70703125,1.286945362030845,1.1976530354912587
4.7109375,0.01722339644164272,-0.13672323368532546
4.71484375,-0.11498048595197022,0.7652031887946472
4.71875,-0.8024226099370152,-1.499776314686403
4.72265625,0.9144596574141312,-0.5296930875794873
4.7265625,-0.8631196624576648,1.5538855775229843
4.73046875,-0.9987726918958401,0.6916855692360863
4.734375,-0.1716225245948551,-2.29223077727196
4.73828125,-0.615744113279607,-0.4923361737328685
4.7421875,-1.409149865203178,-1.3889958737488497
4.74609375,0.6855858964060282,-1.2494011559683855
4.75,0.753929757908908,-0.7497982043268849
4.75390625,1.2825397913739307,1.4192465664669018
4.7578125,-1.2730502930784882,-0.21490346714248937
4.76171875,-0.638474330381525,0.29195711384518497
4.765625,-0.6737820489856124,0.3628683967288431
4.76953125,-1.427918476053241,-0.4141179813425186
4.7734375,2.3437220002817964,0.9976908161009225
4.77734375,-0.07089525267722205,-0.8821901820253479
4.78125,0.21429691857877117,-0.6241499335370267
4.78515625,-0.5732067401049772,-0.7447996504509087
4.7890625,-0.9448204501730791,0.35723015669857844
4.79296875,-0.681107806263685,-0.3891745162058219
4.796875,0.29681128706350207,-2.0144206106114444
4.80078125,0.5557465486989597,-1.057619866446501
4.8046875,1.6548369062563102,0.20314786051257686
4.80859375,-0.05788992700621781,-0.5261325241726096
4.8125,-0.9958116798946943,-0.08535698649868144
4.81640625,0.21621048896341155,0.7832633363936152
4.8203125,1.473528546522545,0.4573440345576467
4.82421875,2.9364228712090497,0.4145374764115003
4.828125,1.2927937880494562,-0.8069571359098371
4.83203125,0.8180751219987448,1.2096906870130835
4.8359375,0.3300064793424463,0.02834018578187889
4.83984375,-2.001969573120764,1.3013129555162235
4.84375,-1.906340164391245,0.7019021302261563
4.84765625,2.7604027315048967,0.15616232415553682
4.8515625,-0.6643054953825138,-0.6041341636376211
4.85546875,-0.5755430886114694,-0.6837250900711078
4.859375,-1.1973864574537794,0.6463639571459332
4.86328125,1.0673525844452503,2.3654728158719265
4.8671875,2.0576609312459393,1.387696156090807
4.87109375,0.30173591701112074,0.3651246997305532
4.875,-0.9480467469891248,0.36671709213697995
4.87890625,1.629923224562491,-0.08929082167351335
4.8828125,0.6028875963223933,1.9046888462481508
4.88671875,-1.0113847342994295,-1.116311681381908
4.890625,-1.2621217105498794,0.43645696559483294
4.89453125,-1.346842380534496,-0.23376571370054075
4.8984375,-0.0057423060908599576,0.3891522810896816
4.90234375,-1.5659618642256292,0.2574613807908532
4.90625,0.031188269522027308,-1.0880327406588326
4.91015625,1.486412137401025,-2.7565974807028946
4.9140625,-0.11515651690042646,0.7083607601105114
4.91796875,-0.376838076196989,-0.7331867690420445
4.921875,0.454861293035642,0.5857420189412981
4.92578125,-1.2541262529670294,1.62265501628954
4.9296875,-0.5558789450703924,-1.359834219722914
4.93359375,-1.1392749736478276,0.019702378444346694
4.9375,1.5469346680593579,0.7042396962705991
4.94140625,-0.4389478070777225,0.5850173546564919
4.9453125,0.9342277254871609,0.5667997149266712
4.94921875,-0.007710242436941604,0.7187751863625612
4.953125,-0.8693619272023905,-1.475109651541036
4.95703125,0.9151208878968843,0.2725438282043129
4.9609375,0.7091772907794279,0.08502064939909998
4.96484375,-0.2924283308452129,-0.4375668670373716
4.96875,-0.8791689381740896,0.9787530064648335
4.97265625,-0.4322011523827483,-0.5896486551824176
4.9765625,-1.427530387488858,-0.1549557815807042
4.98046875,1.8561797313097084,-0.6243792941977467
4.984375,-1.1275174125713676,-0.05335159774966873
4.98828125,0.08024874854586882,0.4354267873403984
4.9921875,-0.12708841188569125,0.6587976565319099
4.99609375,-0.2836798786025693,0.45707088515515837
5.0,-1.252109766958412,-1.012681649224081
5.00390625,0.3335637325251746,0.2294062927541012
5.0078125,-1.2649154305030827,0.9187652570271602
5.01171875,-0.8783250243330514,-0.40688865877512903
5.015625,-0.14449107953576143,0.7282385259653886
5.01953125,-0.6271302158002531,-1.3951546612773333
5.0234375,-0.33997365879477864,0.07393949149884076
5.02734375,0.44573023155434355,-0.8554723220637918
5.03125,0.7322711949819523,-0.9799932518757871
5.03515625,-1.0613914956861825,-0.06537298828928177
5.0390625,0.7670746323893461,1.757488386640237
5.04296875,-2.112263910601379,-0.1672198739483978
5.046875,-2.8051426853210577,0.7786488969989044
5.05078125,-0.17246135372296847,-0.44400505037040117
5.0546875,0.00544704037527182,0.03292263103991864
5.05859375,-1.6913320991392964,1.3607110511905538
5.0625,-0.4238659287086602,0.5994846365375047
5.06640625,0.36958424948940793,-1.7044127028971758
5.0703125,0.20837415536700352,1.4820521303967265
5.07421875,-0.610453892044454,1.2177965576570102
5.078125,0.6552333344505752,1.4500631370307715
5.08203125,-0.3845188861535273,-0.39440647804769446
5.0859375,0.2787313718051361,0.2681923101346503
5.08984375,1.8106316893813512,-1.813795487739806
5.09375,0.39030550421085203,0.9458351971063503
5.09765625,2.1373039130860425,-0.25810683985845045
5.1015625,0.9476256014580648,-2.53276116491749
5.10546875,0.1630003548099504,-0.015294370984268727
5.109375,-0.21280770853064995,0.5719121330108176
5.11328125,1.157488246338125,0.07894793539329341
5.1171875,0.7403556981905232,0.3233399719245189
5.12109375,-0.3323331382516787,-0.36839003699753475
5.125,1.5514659909902326,0.3226333735119383
5.12890625,0.9209173980416749,1.842758070765866
5.1328125,0.37905831055809086,0.5073680433388374
5.13671875,1.0256552359840274,0.47432341394755334
5.140625,0.14184623447829392,-0.7082468815633886
5.14453125,-0.6800565739726562,0.4237699570375256
5.1484375,-1.187934852415163,-0.7699465698928173
5.15234375,1.4713305016973937,2.0291688032569044
5.15625,-0.951501573222522,-0.8921637491715103
5.16015625,-0.3490150658723749,-0.332005629316957
5.1640625,-1.1251534255401017,-0.9448222032223613
5.16796875,-0.8068792778300695,0.7878787448551501
5.171875,1.0860780082049468,-0.2194689562890728
5.17578125,0.28703252988277295,-1.4870404892595066
5.1796875,1.0915777920333127,0.5510826393687741
5.18359375,1.1224236715904907,-2.60389162159648
5.1875,-1.3248323994398676,-0.2509566671857197
5.19140625,0.5269935132770678,-1.190843236138093
5.1953125,-0.20378533998659762,0.23814416380145345
5.19921875,-1.6294978578130455,0.6753692796859901
5.203125,0.03405816551051908,0.11597023246526877
5.20703125,0.7805934414213991,0.8732976246551003
5.2109375,-0.7681895343511854,0.5965819715511391
5.21484375,0.309859095117708,-1.39577726131494
5.21875,0.627637638463862,0.635823401180462
5.22265625,0.3316339183887212,-1.1763072054502928
5.2265625,1.8572764901115617,0.8559672838220016
5.23046875,-0.3200267720092357,0.1459399285099463
5.234375,0.46354811256780476,-1.4529979050214108
5.23828125,0.7715648955783706,-2.553431364735728
5.2421875,-0.5209834694306769,0.6911135587349451
5.24609375,-0.9937659138231262,-0.24390184942883988
5.25,3.0417952523362946,-0.23151902814975647
5.25390625,-1.042834180714335,-0.10458570336992437
5.2578125,-0.41684844931851733,-2.0267080743246053
5.26171875,0.059674328965226335,1.1567543326476035
5.265625,0.5822791015124252,-1.2170942194099492
5.26953125,1.1705506232755252,-0.47905567890289724
5.2734375,0.8741064885555134,-0.08516505045592773
5.27734375,0.3709176389792802,0.30654242766332057
5.28125,0.49824171000732914,0.013889174154313497
5.28515625,0.03179289062181149,-1.1869274922299942
5.2890625,0.47142572130795973,1.004568310725637
5.29296875,0.8678578439224324,-0.4355679979441161
5.296875,-0.2528824467654737,0.801134952216488
5.30078125,-1.1416970919179652,0.07721782139842909
5.3046875,1.4068642570089516,1.3929755187230641
5.30859375,-2.503476969013063,-0.10630216553683415
5.3125,-0.49942202969556027,-0.017814490778470037
5.31640625,-0.3199255936962698,-0.5816668461832843
5.3203125,-0.8852842266546148,0.7058743459167398
5.32421875,0.6363276148647572,-0.32462084848946
5.328125,-0.9783247800839305,0.5369944519688461
5.33203125,0.3660724814721193,0.2833692424227532
5.3359375,0.5612895826851515,-0.06450968907568153
5.33984375,-1.852464716393045,0.31021507074473326
5.34375,0.2127952760625328,-0.3175932961746728
5.34765625,-0.8873723633001995,-1.7905832371078134
5.3515625,-0.03253731746378643,-0.7598940495524004
5.35546875,-0.5845757424426009,-1.7798753698067036
5.359375,-1.1030491751472613,-2.579448305175323
5.36328125,0.7853279212432904,-1.3689657762083334
5.3671875,-0.013446177341501343,-0.10756921371077122
5.37109375,0.5352041457566045,-0.6305997083371409
5.375,1.8537958714277136,0.11956512584098695
5.37890625,0.17818295495116843,-0.9020662130381629
5.3828125,1.380247937342201,-1.3248873307608866
5.38671875,1.5340379778390543,-1.173290084769173
5.390625,-1.3301056034748868,0.30576168522326824
5.39453125,0.7748132790646013,-0.5490246163638669
5.3984375,0.7880456455075231,-1.6990610968360196
5.40234375,1.8325475917793304,0.17706214232788964
5.40625,2.2239674680063226,0.47635769817145923
5.41015625,2.5312057688918683,0.7718460291553383
5.4140625,-0.19834200748413838,-0.06868514821627932
5.41796875,-0.6924650134002229,-0.4930725066560237
5.421875,0.7441643479251413,-0.3798909642352463
5.42578125,0.6643894601104279,0.3962815834822737
5.4296875,-1.5903866077640236,0.11071540529597626
5.43359375,-0.20772410803879207,1.2349659525654013
5.4375,0.46762629183703736,-0.2789745491192577
5.44140625,0.5069890684668992,1.542676391347523
5.4453125,-0.886534309010749,-0.6441225747076975
5.44921875,-0.5634623619071346,1.3193691237529133
5.453125,0.43354880865748713,1.2865708183357891
5.45703125,0.4557235081863835,0.1454162500897463
5.4609375,0.10173331079623661,1.5536785368513406
5.46484375,-1.1727283677618305,-0.5545800658465738
5.46875,-1.7223276669018552,-1.3515287754449636
5.47265625,1.0651205677026063,-1.0619034066679403
5.4765625,0.21194227408454142,0.3120991810064732
5.48046875,-2.49581578665672,1.2796799479763297
5.484375,0.10578113274799043,-0.03720962335685591
5.48828125,-0.5401838677756157,0.08171790721390601
5.4921875,-2.3611244804363176,1.6137984309571274
5.49609375,-1.2661371117796285,-0.268486003473203
5.5,-0.7727655192313153,-0.8056321345155445
5.50390625,-0.5115860522803873,0.6710458088640576
5.5078125,0.7052225459389299,-0.30300457551910903
5.51171875,-0.6487862767331903,0.6395289078495079
5.515625,1.1834956044222416,-0.4526747818161936
5.51953125,-0.31395262875178176,0.35436469173875623
5.5234375,0.5313152043223817,-2.2906542399180134
5.52734375,-1.5030327417261307,0.4389723517757974
5.53125,-0.7938854354254209,1.2857253318093618
5.53515625,-0.6593850502070498,0.32803770047134956
5.5390625,-0.8312934453935792,1.1675346780193125
5.54296875,-0.06374438807623457,0.014388588246323103
5.546875,-0.3953137997764728,-2.179884389694092
5.55078125,1.4930311167045134,0.46906177642270697
5.5546875,-0.5904648814311769,0.04019547704757803
5.55859375,-2.6969946980432797,-1.6147163325873697
5.5625,-0.5203917497563448,1.3590961236807435
5.56640625,-0.7197515108797577,-0.13324349895327375
5.5703125,0.7376136538212109,1.3133633653853545
5.57421875,0.4709436650778091,-0.2597399472454519
5.578125,-0.2895785489676333,-1.34865838369861
5.58203125,-1.6224560838221003,-0.32118628294368134
5.5859375,1.4632341115020002,-0.9924219850333433
5.58984375,-2.1436055153101123,-0.33797897911413843
5.59375,0.022150825133706073,-1.4542008639358128
5.59765625,-1.1000274543384216,0.14643384390297595
5.6015625,0.8564699737850623,-0.1578534068773757
5.60546875,-0.9333789522975656,-0.7665507751176784
5.609375,0.207568428834912,1.1646669232958986
5.61328125,-0.7045874469037382,-0.4149271539749688
5.6171875,0.9976670100160462,0.20009910589916047
5.62109375,-0.4700479867085975,0.4311720042810605
5.625,-0.16014611063338322,0.09565986881981692
5.62890625,-0.03460962687920693,-1.3429934228758111
5.6328125,2.7235054160113004,-0.9238073065651051
5.63671875,0.7789435602303157,0.8611925163368113
5.640625,-1.3324321110844843,-0.472540267591162
5.64453125,0.0416352673862876,1.0327343171586503
5.6484375,-2.023175205306245,0.605872570121272
5.65234375,-0.842540539680906,0.29638102539917116
5.65625,0.9320248523350457,0.8279870054321118
5.66015625,1.0345000165138287,1.903117378108865
5.6640625,1.0097326084131881,-1.0365499285656932
5.66796875,0.5260493675118249,0.27329116634999123
5.671875,-1.8596151009822288,-0.324315002504419
5.67578125,0.9886686902952463,-0.8885447028578806
5.6796875,-1.349107108074206,0.37763703065315357
5.68359375,0.3942825033611752,-0.46235827613521424
5.6875,0.6104554379231834,-0.18854288139877937
5.69140625,-1.1412364827122152,2.2113112893315328
5.6953125,-0.5133512294052451,-0.35695026244365285
5.69921875,0.04359046250230693,-0.05663569823318819
5.703125,0.2507361730934075,-0.32793688971100654
5.70703125,-1.0566895301996435,1.4379573098127882
5.7109375,1.862101447632384,-0.4623842992926331
5.71484375,1.7013697185345522,-0.35138269803743405
5.71875,0.7765554364586017,-1.1578395500987497
5.72265625,-0.1261865918434086,-0.47167984096662724
5.7265625,-0.5199478777694406,0.7172370723648467
5.73046875,0.056301803469668156,-1.3245872767504323
5.734375,1.8599131546863996,-1.614153806145702
5.73828125,0.05410689158024597,0.8642556730493917
5.7421875,0.7712910166535437,0.12820894662674134
5.74609375,0.5117457473826108,0.8289767264309239
5.75,0.32980716884327327,0.5085341430245516
5.75390625,-0.49209708803664076,-0.24166178898923235
5.7578125,-0.14525921213816492,0.20995898118281184
5.76171875,1.5520597636669566,-0.06839766195586251
5.765625,-0.9136744289616681,-0.7573394517886699
5.76953125,-1.1189067859844997,-1.652747756512732
5.7734375,-0.9829828038743056,0.28629927061765587
5.77734375,0.27354857092655166,-0.7775005338581392
5.78125,0.6914576525775505,1.724266209901806
5.78515625,-1.6211015856427626,0.5270718851061551
5.7890625,-0.5704780029377092,1.2626671979983972
5.79296875,-0.1413412601627405,-0.9496897201762318
5.796875,-2.003107257066074,1.5297991721424444
5.80078125,0.4174776864010886,0.8297464909012995
5.8046875,-0.5334796520012444,-0.1953586005294859
5.80859375,0.3942287681970267,0.5303593399299706
5.8125,-0.5035769134353997,0.28144070128962134
5.81640625,-0.69818323987885,0.11326397157030396
5.8203125,-0.8188073960336153,-0.024716543602392647
5.82421875,0.4056591929855352,0.3071831087671475
5.828125,0.4057747584839903,-0.2923319502576544
5.83203125,0.7229832870292631,-1.290327487499069
5.8359375,-0.9897379753947346,1.4457484352280683
5.83984375,0.4494260392354112,-0.9404567002152389
5.84375,-0.31049721805163244,-0.7982530546418594
5.84765625,0.8235087354680203,1.655290010355905
5.8515625,0.45369073964029116,0.16059822735695442
5.85546875,-0.28079394007831154,-0.9370602131728107
5.859375,-0.31716159711178143,-0.3880219653926979
5.86328125,-1.493860626770083,1.7202377363984738
5.8671875,3.369521925199514,-0.8907181577724562
5.87109375,-0.6082455878364844,0.3939477784930887
5.875,1.4179354193798628,0.8583837434735035
5.87890625,1.2298378089347262,0.9064204779600427
5.8828125,0.034915235609224445,1.3524324318302785
5.88671875,-1.3611832013230363,-0.7404424375919655
5.890625,-0.46881336124192446,0.8159938338415037
5.89453125,0.9555241178290641,0.3470807923985773
5.8984375,1.0212426806216912,-0.062454709277207726
5.90234375,1.401475598906769,-0.4757147319505058
5.90625,-1.3304239988572542,-0.5059627173268695
5.91015625,-0.7653198961394769,-0.7507799727297737
5.9140625,0.703724172475044,1.1711260323086268
5.91796875,-2.5351235933097,-0.5160846097153876
5.921875,0.8619855767395918,-0.0056041537137541736
5.92578125,1.2445129557021664,-2.094938635151722
5.9296875,0.5813634996778749,-0.5485800106576334
5.93359375,2.240855794511563,0.5927340262047264
5.9375,-1.020354701086419,-0.6624696108697787
5.94140625,0.08240572732966965,0.1151677536711829
5.9453125,-0.4655209902459021,-1.4322365475297372
5.94921875,0.07825839726317317,1.0029237794962853
5.953125,1.2217376215490738,-0.27801155073763695
5.95703125,-0.10113083559959905,-0.33780168690045675
5.9609375,-0.23630336142089925,1.210990202064257
5.96484375,0.021858629819810606,0.26521545389799517
5.96875,-0.2365340134622321,0.1452558679127689
5.97265625,-2.2622769821109054,0.8910032472405811
5.9765625,-0.8536103398251386,0.313368363147128
5.98046875,-1.6159220898897826,2.1037702380859877
5.984375,0.6334847503456897,-1.4962969079096806
5.98828125,-0.4763243669674007,-0.6813139880334499
5.9921875,-0.051944806391726155,-0.33389893815941074
5.99609375,-0.8493613997561116,-0.21879644362992468
6.0,-0.2803306795333962,-0.3789303033381872
6.00390625,0.16058188564154477,-2.0844250126746684
6.0078125,-1.0372518080327047,-0.3528457801378603
6.01171875,1.4354441145881969,1.2500216834227105
6.015625,1.3421587937984791,0.03083504366374257
6.01953125,0.15104838368089252,2.6841671128212217
6.0234375,0.6672163504340383,0.37275973545365704
6.02734375,1.801213580164307,-0.12081396655533509
6.03125,-0.29885530706471203,-0.8188476068486066
6.03515625,1.7601651458524634,-0.33313418880251705
6.0390625,0.19170748745227026,-2.1420448721505942
6.04296875,0.508023830988445,1.1035096176494625
6.046875,0.012292939857567634,-0.0003416626922063877
6.05078125,0.8464794731373758,-2.059701124991682
6.0546875,-0.06261752972697392,0.23654954550856755
6.05859375,-1.629035749546288,0.23419494984060768
6.0625,0.01788433264646931,2.1347059502289736
6.06640625,-0.5444955187630516,0.7954729590978917
6.0703125,1.3544089832993547,0.2043574370310383
6.07421875,0.1876495455241432,-0.8034342245103883
6.078125,-0.9405483399037662,-0.05195089115104654
6.08203125,-0.9542056870865997,1.3295188985782311
6.0859375,1.3536310975572807,-0.487978027631325
6.08984375,-0.21767854825584484,1.4484044314212419
6.09375,2.694416382323665,1.8413459172607032
6.09765625,-1.5526705764515225,-0.9508704284757888
6.1015625,1.347863357584133,0.6001991413418046
6.10546875,0.854855674200601,-1.9790635273612904
6.109375,-1.11044956231076,-0.25142433809969833
6.11328125,2.6230887226829065,-1.735655378031231
6.1171875,0.006497094825630759,-0.11826686434943826
6.12109375,-0.22672773381075775,0.2311831462452077
6.125,0.5214767873632731,1.2840465195049657
6.12890625,-0.5875058220815156,0.3523315998678132
6.1328125,0.038450333155962496,0.6046479398818175
6.13671875,-0.0625489409673782,-0.745808721850786
6.140625,-0.048330982880435004,-0.36940190167705
6.14453125,0.24175971397004195,-0.4280479977803187
6.1484375,0.4061827447322994,1.4824710436582844
6.15234375,1.4291962241296463,-0.4995592526890089
6.15625,-0.051448785950105755,-0.7472871444808918
6.16015625,0.8615355666218157,0.03555301453442422
6.1640625,-0.7306807089314594,-0.1212575802816928
6.16796875,-0.4756238144095717,1.0235304119793096
6.171875,-1.8928094230932526,0.07070020785346526
6.17578125,-0.3155448996064862,0.1464917102055118
6.1796875,-1.434109723454555,-1.1461266424627026
6.18359375,-0.22045387419356463,-0.0631441450292858
6.1875,0.44772711321747816,0.6066000360197942
6.19140625,0.11733219928219664,0.3590972207800999
6.1953125,-0.7056824214428078,-0.3739985312066168
6.19921875,1.0971507691846467,0.7926054498374571
6.203125,-2.2633509377849292,0.726056780441947
6.20703125,0.24041643098066606,0.877560827842402
6.2109375,-0.5250581557148148,0.5228039893572313
6.21484375,0.22818303840374024,1.5886857723984025
6.21875,-0.7490771696572129,0.4352319266982545
6.22265625,0.4849604753365136,-1.4855078552764702
6.2265625,0.003998284226250857,-0.9097433136593801
6.23046875,-1.238096471631615,0.24978311326244323
6.234375,-0.6414615486871255,-1.2851772064460403
6.23828125,0.6791981174307545,0.9682088054950144
6.2421875,-0.14568358177819982,0.4795093997273238
6.24609375,1.248133502700043,-1.469811041972432
6.25,-0.3053455982875505,2.083973619995624
6.25390625,-1.033410140729019,-0.6476483441269788
6.2578125,1.3918067088016441,-0.7075492790666162
6.26171875,-1.727233079372949,0.5738844322672528
6.265625,1.462899248456432,1.0520181086184686
6.26953125,-0.5776720324285921,1.0448937747497207
6.2734375,-0.009191013607131322,0.8972817696014109
6.27734375,-0.7919452632496135,-1.1532361614001918
6.28125,2.798076217284725,-0.2441321910681178
6.28515625,-0.06573866683233845,0.6582174189798475
6.2890625,0.006270373954281109,-0.0868118377118596
6.29296875,-2.1884488709029153,0.1984415859469113
6.296875,1.40197619693028,-1.191934391040964
6.30078125,0.9820237771934949,-1.2951308117973928
6.3046875,-2.1178392045800893,-1.1112593392135466
6.30859375,-1.6112771691592425,0.431145910441319
6.3125,0.4302351798378489,-0.4285253814255893
6.31640625,-0.20917581646348263,1.3859961596700736
6.3203125,-0.45311087172775055,1.1970458866119753
6.32421875,0.5548457675664734,-0.28122276062530827
6.328125,-0.70463119544873,2.2171630496018375
6.33203125,0.8926344500078714,-1.429138882837716
6.3359375,0.886989229950028,-0.5467972213368181
6.33984375,-0.27249149022006824,0.9856561256462483
6.34375,-0.9544255469311023,-0.8876653236835816
6.34765625,0.1625875646488096,-0.04649358180312217
6.3515625,-0.10355344365906237,0.08098440669286744
6.35546875,-1.8513780833136542,-0.2965697746037008
6.359375,-0.3660537949706449,1.1226890461907946
6.36328125,-0.9991114919376116,-1.3233949369247304
6.3671875,0.3419346883093497,0.03058230873700196
6.37109375,0.1401907387419477,0.5355637460198538
6.375,-0.2775148334549847,0.9692362343802352
6.37890625,-0.355829405235633,-0.17674708264885533
6.3828125,0.4738530424216942,-2.2480569429156336
6.38671875,-0.4158063780274758,1.0329448334359845
6.390625,-0.8394432248435709,-0.9801143540769386
6.39453125,-0.5767526418138585,0.45881703492504
6.3984375,-0.45898297425610013,0.8601290891395591
6.40234375,0.7134349519203048,-0.19902689961044284
6.40625,2.562477138115816,0.7809780589372395
6.41015625,-1.5840483721198384,-0.19942338345071617
6.4140625,0.9036727471830189,-0.5594085746405513
6.41796875,0.9690863530554474,-0.17774953844939187
6.421875,-1.523839542990288,-1.3127024046911207
6.42578125,0.6735563611283804,-0.755929437847469
6.4296875,0.02401802900704265,1.1775533671163856
6.43359375,-0.8191471842835732,0.34978478726171286
6.4375,-0.2622720885267429,1.0175525026517114
6.44140625,-0.26270916446611103,1.87014819051561
6.4453125,-0.22770374534461446,0.1155072735999004
6.44921875,1.0102482771436965,0.7019834249449673
6.453125,1.611861820161154,0.13778908536132248
6.45703125,0.6067137511720104,-0.007189483222446343
6.4609375,-0.4824320380873479,0.9711701283642727
6.46484375,0.28008055549350525,1.9130101631787142
6.46875,0.08103444028077525,-0.6635955692901843
6.47265625,0.14203229255588865,1.8306974463954149
6.4765625,-0.18284164284139626,0.5800389552714627
6.48046875,-1.500219635477612,-0.027272666701248657
6.484375,-1.0671593311564318,-0.4226043867759156
6.48828125,-1.7401401549166615,-0.22758224989580278
6.4921875,0.705613016837158,1.2747376835527946
6.49609375,-0.4294832376546068,1.3587386701528539
6.5,-2.208017383114035,1.3556365263800152
6.50390625,-1.9241434635106558,0.8633871106225983
6.5078125,1.5946339461644734,0.7940966784404402
6.51171875,-0.016788473985875595,1.7434565153995216
6.515625,0.17187153613220202,0.2556165327076537
6.51953125,0.3797906951917919,0.2823138591471464
6.5234375,-1.0243883658142612,-1.3502842638205912
6.52734375,0.9725654616274464,-0.24116743474223543
6.53125,0.18766134103561008,1.2780158542166906
6.53515625,0.04452769435681861,0.1337277533448829
6.5390625,0.7032359346062605,0.06870752502265286
6.54296875,1.162216407597081,0.021782992900980343
6.546875,-0.8239648833939917,1.2587050615074595
6.55078125,-0.9684203404545104,-2.0405695269486053
6.5546875,1.3658019458028379,-0.3707999768524218
6.55859375,0.5191860995766742,0.37568489864922644
6.5625,1.5595822102763088,0.2861861607541617
6.56640625,-1.0144510537417115,0.9671867561440924
6.5703125,-0.8194141546868516,0.8294853567527254
6.57421875,-0.7634108808713626,-0.657474743556061
6.578125,-1.0453407721913255,-0.8400438304272388
6.58203125,-0.5609973902863645,0.05347733865450881
6.5859375,2.4021794773594602,-1.0626467307885887
6.58984375,-1.7975776236931518,-0.22497382196066812
6.59375,0.4947083538525176,-0.3206308458273241
6.59765625,0.28938423984537126,1.0993216724384498
6.6015625,-0.9794839092584848,-0.9192002466873423
6.60546875,-1.1027307543011944,-1.3563622230046553
6.609375,0.45129709427593634,0.6814809002234351
6.61328125,-0.45474752983563066,0.27318645137622183
6.6171875,-0.3032490323776601,-0.9769816128768699
6.62109375,1.9349409268982596,-0.01780126193767563
6.625,-0.07257499959557849,-0.07799754984175569
6.62890625,-0.8256209159218818,1.3156447711760506
6.6328125,1.585605261432934,-0.37799206320002343
6.63671875,-0.20750606769427965,0.639521802881152
6.640625,-0.7593302724630401,-0.8498042884309372
6.64453125,1.1013180701169132,2.357701995417269
6.6484375,0.959776224652409,0.012296253393791588
6.65234375,0.44054219127453437,0.17100037039269833
6.65625,0.5976613785173405,0.6302662551544933
6.66015625,-1.2710721520910262,-0.8466490770235624
6.6640625,-0.3582600419842256,-0.4734072202719262
6.66796875,-0.414668113846622,0.7033742842558712
6.671875,0.13930499311111708,-0.36700391392047604
6.67578125,-0.8502940099624847,1.086148781626369
6.6796875,0.5387874000501686,0.04021497737787555
6.68359375,1.4375302801053444,2.574251088693168
6.6875,0.6970774449309173,-0.6476303718492354
6.69140625,-0.3255176111583994,0.5379615732414845
6.6953125,-0.42555515394968446,1.0117462965527417
6.69921875,0.7490425659694587,-1.6207465230368272
6.703125,0.4932578540690355,1.1493004190608165
6.70703125,-0.3921812829379736,0.11111877592575728
6.7109375,0.5348933983854185,1.022689393770609
6.71484375,0.6070786539632743,0.8647877330720066
6.71875,0.23918115980371282,-0.8918750663129398
6.72265625,1.2133149688632907,-0.44556899932983934
6.7265625,0.7484905829844831,-0.698817612118332
6.73046875,0.374012662836998,1.1048503214868861
6.734375,-0.2103399662575656,0.18270200837052294
6.73828125,-0.1924773126955898,0.24894860255435827
6.7421875,-0.2654325912255508,-0.09698917440112997
6.74609375,-0.4242999874751797,-0.5561463295381237
6.75,1.5063807116629886,1.850021746099995
6.75390625,-0.38309199340073763,0.36490456535820226
6.7578125,-0.758130103699617,1.6459800691677748
6.76171875,-1.0534869785954357,-0.5838548162205698
6.765625,-0.9462518359154036,1.46582941053951
6.76953125,1.0457668594417626,-0.7618827508423289
6.7734375,-0.8274433149410669,1.4234512957345804
6.77734375,0.16243297967469017,0.6681051418372581
6.78125,1.261595271579805,2.4377875326233234
6.78515625,-0.3933118604268454,1.1137014816110085
6.7890625,0.4365157044058995,0.09527144665869278
6.79296875,1.4560160659204642,0.5393019738895389
6.796875,1.3325680079566762,-1.707350133543175
6.80078125,0.8634594471292563,-2.12810610336794
6.8046875,-0.08674466244670058,1.3003563093341457
6.80859375,-2.1036936284716243,0.2601390944261126
6.8125,0.08762864603182419,-0.6225752229497085
6.81640625,1.4172405462591233,-0.49610829377455645
6.8203125,-1.1834156372526277,-0.03458601307044917
6.82421875,-0.49869117053464507,2.667344172696709
6.828125,-0.47573392594004743,0.1855822099871041
6.83203125,1.2468415734283202,-0.24618871601660403
6.8359375,0.11146880922747682,-0.00517238488400117
6.83984375,-0.686448767715179,-1.0151339604399623
6.84375,-0.5214402037353167,1.2963768193736662
6.84765625,1.6251994953686986,-0.5403328384037573
6.8515625,0.8753825438833737,1.8198129817323871
6.85546875,-0.13501343114309391,0.03759265320160319
6.859375,-0.21666099435922462,-1.0934562823219036
6.86328125,-0.7473458600850772,0.1359170687204541
6.8671875,1.4717251052745972,0.22176244576890047
6.87109375,2.0199807291673713,-0.6088298819807737
6.875,0.9649948462505904,0.8369981114766492
6.87890625,-0.47896810101479975,0.5043140009096162
6.8828125,0.8897774722624036,-0.08277232689836592
6.88671875,1.3531074795811804,-0.013971263101178136
6.890625,-0.04234351906480253,0.2853401063978974
6.89453125,0.9462514801806504,0.34644848447923376
6.8984375,-1.9338395023751898,0.2051416646673622
6.90234375,-0.9640967874934588,-1.4055426070141661
6.90625,-1.311300971232841,0.8015401534710865
6.91015625,0.38188870026750166,-0.07084938460449985
6.9140625,-1.5162272762136757,0.7724754178135762
6.91796875,-0.8703617357851714,0.050395594514144666
6.921875,0.6041170593737631,0.6543816158839122
6.92578125,2.111791029616383,0.7525086840353716
6.9296875,0.16056920633042093,1.5086984389691767
6.93359375,0.4383405896184672,-1.2103240140533034
6.9375,0.4003925086220038,-0.7439137056383742
6.94140625,0.04203849139255622,0.4132972218703332
6.9453125,-0.24493260954318824,0.4852736152492824
6.94921875,-0.08454930759469703,0.5788065750434547
6.953125,-1.5906386252334133,1.0423206914194731
6.95703125,0.5632792996349448,1.2626422882804011
6.9609375,-0.3376806615730745,0.15552100499304888
6.96484375,0.3501286212508198,0.6289153158561008
6.96875,-0.06147043073024061,0.3543597505688158
6.97265625,0.2897744081265562,0.5928086152752838
6.9765625,0.10203272717420472,-1.428798794768208
6.98046875,-0.13704770348037607,-0.39387461210794134
6.984375,0.6648678702106229,1.5624400156304468
6.98828125,-0.41311126508402307,-1.3799742205321843
6.9921875,-0.5805084755433592,0.26472369839468923
6.99609375,0.8248414852762959,-0.7527741486383576
7.0,-1.043139376493899,-0.09460618583799739
7.00390625,-0.11356015647214417,1.3913539947217215
7.0078125,1.8106864630451331,-1.5718079014313358
7.01171875,-0.2883266449203097,0.6188266724234198
7.015625,-0.8121020932368949,-1.3454358331802683
7.01953125,-0.4652731709603089,-0.746856182158243
7.0234375,-0.4236413642385047,-1.3546060914615312
7.02734375,-0.877081513327958,0.2574953683669072
7.03125,0.1988456491234495,0.3390113067786991
7.03515625,0.3276837452020987,1.3840114619310548
7.0390625,0.8895270997615724,-0.7382081512621108
7.04296875,-0.5530092154341193,-0.9828126274519675
7.046875,0.38744245950123357,0.6382835714060379
7.05078125,0.5188964512266245,1.7574447271234237
7.0546875,-0.6861807076574675,-0.1455043353984934
7.05859375,1.0875612131682444,0.08933052469414292
7.0625,1.3302336259574354,0.861354131613735
7.06640625,1.079353175044534,-2.038850718845599
7.0703125,0.2940398005091026,0.17195845239874022
7.07421875,-0.9995379025905146,-0.5458042711043793
7.078125,-1.2735316837561765,1.579486114774734
7.08203125,0.6217850418103115,-0.6617436699126165
7.0859375,0.966532746542211,-1.2655815735463551
7.08984375,-2.4903545053827463,0.06776351377461695
7.09375,-0.43140667896872903,0.16674599039742752
7.09765625,0.11019622449061914,0.5889418794782746
7.1015625,-0.5900752439448487,0.5683288554764777
7.10546875,1.8255467029974628,1.0244093705388624
7.109375,-0.5539427615844374,2.187123698962889
7.11328125,-0.3303449834731967,0.7955644968637067
7.1171875,-0.8519106765314757,0.3034774937220727
7.12109375,0.11329916443685159,0.16118183172684764
7.125,0.6910722559596846,0.9919758376847911
7.12890625,0.9674788302232689,0.04251670717932656
7.1328125,-0.13892532202143612,-2.012227277488563
7.13671875,-1.7347886008459787,-0.34874752563886807
7.140625,-0.9281358096097057,0.9559865854810342
7.14453125,1.2798849682963906,-1.7979516045115689
7.1484375,-1.416017681084352,0.6805519853690188
7.15234375,1.4184662751745165,-1.644533324889064
7.15625,0.08401442167277472,0.06287107887282103
7.16015625,0.1874079395309048,0.14408996277979547
7.1640625,-1.2439110065859718,-0.1366885156490795
7.16796875,-0.47532520040754017,1.5069296815998305
7.171875,-0.002182922632083287,0.33528141430058633
7.17578125,1.0743060690500315,-0.4518729799627727
7.1796875,0.580353642241997,-2.243338078968399
7.18359375,-0.35285394417815663,-1.4551327658245663
7.1875,-1.6445126715697036,-0.48290044831139634
7.19140625,0.4143993054062522,1.6877847677088424
7.1953125,-0.2257007656889598,0.014730012593614507
7.19921875,0.30084443206614825,-0.6238984660005419
7.203125,0.3950994048927734,-0.2881626113274607
7.20703125,1.2175461400239942,-0.9816234053383428
7.2109375,0.4714050235957761,2.313519181754469
7.21484375,1.4371686748865085,-0.9728875930077937
7.21875,-0.535325201842005,0.8412018182311547
7.22265625,-0.7185677800387255,-0.6773749560949631
7.2265625,-1.2401955633590451,-1.8049748702254529
7.23046875,-0.32353509732586916,-0.05076290632575344
7.234375,-2.1673932484463636,-2.3605374574479474
7.23828125,-0.6769511998657826,1.9134613828186948
7.2421875,-0.6929038057990128,-0.8785678959111358
7.24609375,0.4594761254462554,1.0963936881548777
7.25,0.8995782259184955,0.11296536034123766
7.25390625,0.4766519474916256,-0.5855460673826651
7.2578125,-0.5745000265391657,0.7606607546266093
7.26171875,-1.6345910006322693,0.0814505824562009
7.265625,-1.2149447167452474,-0.5633688993158187
7.26953125,-0.9935563443826083,-0.9918679316322655
7.2734375,0.03225009974933908,0.3021838633315663
7.27734375,-0.21868182409373182,0.7669241203142084
7.28125,-0.871288137870885,1.8153663346157416
7.28515625,0.48597851135330195,0.11426065223460685
7.2890625,-2.7966576212768315,-1.129023576328561
7.29296875,-0.6359890605279102,-0.15076552184012668
7.296875,-0.3132463758596944,-1.5304059996035095
7.30078125,0.40068780385247105,0.4900965218621126
7.3046875,-1.4939991146311515,-1.0718533521589573
7.30859375,1.6554052594863553,-0.07937511140432278
7.3125,-1.8463014193379812,-1.1418682337032413
7.31640625,0.6735631457924922,1.794463854196819
7.3203125,0.7519736496649957,-2.441193782458111
7.32421875,-0.07652768428746502,-0.33730047482181325
7.328125,1.2336053334831132,2.060932123500409
7.33203125,0.756664247319224,-0.19081151598330784
7.3359375,1.0006834197315047,0.6815754311041211
7.33984375,1.766760268653637,0.5651640344531929
7.34375,-0.13579711694240057,0.27545203848753536
7.34765625,-1.2575143554229538,-0.20131118015166333
7.3515625,0.5576034648190766,-1.0291345865943573
7.35546875,-0.06539873705263667,-0.31249626000440556
7.359375,0.5614609716197797,-0.2939713424892318
7.36328125,-0.7484675912365643,1.119334510970768
7.3671875,-1.9816501013093195,0.48957358305311366
7.37109375,-0.28229530276906334,-0.8166205093208778
7.375,0.3352342533327293,-0.03432232064846027
7.37890625,-0.05590389354815409,-0.25484878230564756
7.3828125,-0.2420618948702628,0.465011499783419
7.38671875,-1.0002127052875374,-0.586824361074522
7.390625,0.17252119006867758,1.435470927655289
7.39453125,-2.0264451490537456,0.5797412448428962
7.3984375,0.49590423866666733,0.990564199811591
7.40234375,-0.5105714475133709,0.96895854166466
7.40625,1.8613988801360717,0.13815351720171967
7.41015625,1.1797790978795166,1.8133963795189367
7.4140625,1.838999910605339,0.5870114815896172
7.41796875,0.9165758555035325,1.2082408230380985
7.421875,0.7014567238849897,0.0698980729953787
7.42578125,1.6439517254414322,-1.9077638475144727
7.4296875,0.47377421573306505,-1.4358645425446612
7.43359375,-0.4888031263602887,0.8625850928302234
7.4375,-0.07776850843951996,-1.272346240342489
7.44140625,-2.7587341499874514,-0.7423301071633789
7.4453125,-0.010261023822821794,-0.3341607877731849
7.44921875,0.918456914864809,-2.3208743851188673
7.453125,-0.6277312756509505,-0.12986013230552973
7.45703125,-0.31856487973385395,-0.25664322371840775
7.4609375,-1.4527458755669598,-0.43602354665690324
7.46484375,-0.9118859296665847,2.753848005960214
7.46875,0.36119653423813375,-0.27868085005636806
7.47265625,-1.807411552361599,-0.392547799521952
7.4765625,2.115201329571079,-0.7416663939645106
7.48046875,-0.26042291669472195,-0.393756051295989
7.484375,0.09065296991246045,0.9427095149845276
7.48828125,-1.2483505518140776,0.4440694865294687
7.4921875,-0.35696954122224683,-0.01942216567337349
7.49609375,1.9186302328622478,1.1487441203520714
7.5,-0.635857686985401,-0.33092830191946576
7.50390625,0.10518350915621268,0.29825273114418926
7.5078125,1.3509999449965575,-1.3695515375305507
7.51171875,0.24098320308451218,-1.9745397488746486
7.515625,1.0413514085254563,0.9558826467284642
7.51953125,-0.05177397426922162,0.4664014587559168
7.5234375,-0.9820930240773403,2.3100232994063585
7.52734375,-1.117837966213073,-1.2034086677785105
7.53125,1.2359598300627044,0.36741521021988177
7.53515625,1.9360855864402005,0.9807013758497223
7.5390625,0.799190446932527,0.11461567673562835
7.54296875,-0.11610417422257363,-1.352037370867497
7.546875,1.6448623132202957,0.4004358150235753
7.55078125,0.25161669127860203,-1.2998589541790921
7.5546875,1.111627196991247,-0.38710403038986196
7.55859375,0.2699088165104764,0.4345292173040319
7.5625,0.2900770771343184,0.28820147691468334
7.56640625,0.3154438359333811,0.9086302436171925
7.5703125,-0.40043721123992165,1.2288661462753965
7.57421875,-0.75127144249827,-0.5555602702466776
7.578125,0.5490407147701633,-0.7336493412912973
7.58203125,-1.922700319255821,-0.7650539637393498
7.5859375,-0.6867544259537475,-0.579450610703445
7.58984375,1.4464289081023167,1.1100695148457607
7.59375,-0.3596021323559402,-0.4736573664318332
7.59765625,0.3134069942996389,-0.683323415329983
7.6015625,1.0726925852551072,0.9823857883835944
7.60546875,-0.922903980898949,0.6922940382038181
7.609375,-0.5470081702640138,1.4928428856183975
7.61328125,1.1954857043704104,0.49679189028817905
7.6171875,1.4789571112523923,0.21725543444359538
7.62109375,0.44764037746688234,-0.8502782001365403
7.625,-2.1530102035095386,0.9474803519500077
7.62890625,0.46110130656574827,-0.05460861201009623
7.6328125,-0.28949564516182086,-2.002088816564603
7.63671875,1.984326580409247,-0.18846964194536342
7.640625,0.19555808535082064,0.25380932506258397
7.64453125,-1.2467443012079253,-1.3773814799422988
7.6484375,-2.0745374467280087,0.9520667957952385
7.65234375,0.8166616060273286,0.23922292727558353
7.65625,0.5701058009710358,-0.1342584540238304
7.66015625,1.0503916408073473,0.558327215131311
7.6640625,0.0676395244589965,1.2732766460942013
7.66796875,-0.4566117396167283,-0.9856488739640655
7.671875,-1.9477129073443122,-1.2535389076355408
7.67578125,0.48128757330802613,1.0274372908788856
7.6796875,0.44031013902392163,-1.2492525622302226
7.68359375,0.8683225631554203,0.45151435148435964
7.6875,-0.6123714235675979,-0.9581828947876907
7.69140625,-0.11797596042835301,0.45064846677098325
7.6953125,0.11392558216298761,1.3238726589809036
7.69921875,-0.217407625860364,-0.05715922017066433
7.703125,-0.7991185084545616,1.4284110260029956
7.70703125,0.6586121464150619,0.4579974548239224
7.7109375,-1.0383031427918168,-0.15200334672430238
7.71484375,0.5222662540082964,0.09503891283470936
7.71875,0.9266225905652085,0.9162716054473515
7.72265625,0.04160661673952237,0.663429712054164
7.7265625,-0.2936412265595866,0.15635121734656557
7.73046875,-0.7858454526049942,0.08015358975618019
7.734375,-0.5459043603704016,1.4587974196826008
7.73828125,0.592986212572622,0.1554607117088558
7.7421875,-0.2067405166829678,1.0731245808689414
7.74609375,0.3987856287167645,0.5313012736932866
7.75,-2.8586088224465214,0.9315094217695786
7.75390625,0.6664729939917938,-0.4800777847842763
7.7578125,0.7144247559879808,-0.7771456767729221
7.76171875,1.6930653348815916,-0.08377825126267863
7.765625,-0.8262564607706443,-1.7143987932660667
7.76953125,-0.5241682820952511,-1.2914058779404827
7.7734375,0.6297534186842361,-1.388466921437684
7.77734375,-0.8343415314344611,-0.4370497881830223
7.78125,-0.6344733889184466,-0.936519311194407
7.78515625,-0.7677914572196098,-0.10455206649580345
7.7890625,-2.4600003801201358,0.08492347323447817
7.79296875,2.4561620643672875,0.40187536652934225
7.796875,0.44162988300395645,-2.318291897546645
7.80078125,-0.7177641520784692,0.973595437317263
7.8046875,-0.2478143197551721,0.22988439184387224
7.80859375,-0.6322599474958316,-0.7940475483922442
7.8125,-1.8404912633065393,-0.5856278674681896
7.81640625,-0.5894458312151531,-0.8517911732079938
7.8203125,1.338172505426755,1.049723308140963
7.82421875,0.1688937612631057,-0.04894345349274162
7.828125,0.3593879575704201,2.314821095581857
7.83203125,-0.2784477024631736,-0.028019189860598436
7.8359375,0.8238564091156018,1.407897292056333
7.83984375,1.0323808818650828,0.38142161759372545
7.84375,1.0663526864081214,-0.5583141872631409
7.84765625,0.6511561068760102,0.40503782643393166
7.8515625,-0.15173821148595404,-0.6999348941858967
7.85546875,-0.10637260958350388,-0.9605283021038304
7.859375,0.46056743753208457,0.60516387642386
7.86328125,1.9440264516914199,-0.3474739195475051
7.8671875,0.08288442831569294,-0.5310188934424357
7.87109375,-0.09078850483488084,-0.4807209338533683
7.875,0.4099808481975282,0.6613073447164468
7.87890625,0.18491618161873852,-0.5412121227104089
7.8828125,0.7167017114516722,-1.1445809767818758
7.88671875,-0.8820570137980414,0.38512902072483246
7.890625,0.43500095942400546,-0.03563633920626409
7.89453125,-1.6505217353131216,0.5253900869964824
7.8984375,0.7502499875484244,0.046453125771089614
7.90234375,-0.280275183894325,-0.14817227290285645
7.90625,0.24496959337304078,0.6592011342317883
7.91015625,0.9598537731604456,-0.933073640938121
7.9140625,-1.112945712229298,-0.5114885787455626
7.91796875,-2.1534836584383354,0.7900302434272303
7.921875,-0.7751815599308366,-0.3719658436687547
7.92578125,-1.5013044856349338,0.09712795645704125
7.9296875,-0.38442558500089175,0.6537809941688497
7.93359375,0.17053769199979302,-1.1737888862865715
7.9375,-0.5864237914175222,-0.7386855178956339
7.94140625,-0.35968095092311114,-1.2054660300360072
7.9453125,0.3042322700117795,0.3423812450405215
7.94921875,0.08433895490756868,0.42931382468441504
7.953125,0.33164264176348296,0.6211703020244466
7.95703125,-0.727181248717638,-0.15364863449704755
7.9609375,0.39334246008852863,-0.9678330917028543
7.96484375,-2.209458262882811,2.030941669188202
7.96875,-0.07550955941832554,-0.5801904005302176
7.97265625,-1.4217374985056546,0.636591540104948
7.9765625,-2.328203432715736,-1.5170340628136063
7.98046875,-1.3228743396540477,-0.013504543836548031
7.984375,0.39014699349764076,0.9338011329330692
7.98828125,0.8657486544490103,-0.7641891755781094
7.9921875,0.35527083987662283,0.7051935324378955
7.99609375,-0.372038511081027,1.183953567627751
8.0,-0.8131631426413037,-0.2291197765027939
8.00390625,-0.45607658680328056,0.8462296995243435
8.0078125,1.1927245719427508,-0.26085918488627424
8.01171875,-0.5155705865175672,0.7300069666578939
8.015625,0.8194895271309162,-0.41851527453704784
8.01953125,-0.48754104470857196,-1.821786919503707
8.0234375,1.0676854000200584,-0.3731708649152495
8.02734375,-0.8167655868896663,1.0653853797158417
8.03125,1.5032533739674958,-0.7690071838285159
8.03515625,-0.5609100205588972,-0.14864492540397448
8.0390625,-1.0318651559969017,1.0301507207907008
8.04296875,-0.6372705260782433,0.5444394073664809
8.046875,0.20682692850728243,-0.23486021581843922
8.05078125,0.5683193914215708,-0.11616982210813205
8.0546875,0.12407469259424062,-1.1839499847057358
8.05859375,0.3757135822185309,0.5223243053900729
8.0625,0.00014144033531025862,-1.6301985626935738
8.06640625,1.237701371285933,-1.2277088779962835
8.0703125,0.8436434644682822,0.8500317648521283
8.07421875,-0.87140772469528,1.0117360245353242
8.078125,-0.8670018326911567,0.05524705884924845
8.08203125,0.098138136432281,1.4859792252322852
8.0859375,0.8454765554720851,-0.5769300111798852
8.08984375,1.761955533626886,-1.9396066530364209
8.09375,0.37675118613617414,0.6933864626366182
8.09765625,0.5795623437582839,2.6078014763383655
8.1015625,0.15034822819237487,0.0030525363044567114
8.10546875,1.8118391342421363,-0.19664295680582508
8.109375,-0.9262837501840948,0.7688204965290947
8.11328125,-0.25454256304077444,0.8260803851774948
8.1171875,-1.660981449120301,-1.9162456758924749
8.12109375,-0.4737632390464714,0.7493204461073179
8.125,-0.15789589398535048,-0.8963573902043367
8.12890625,-0.6092210458443243,-0.9718067419674838
8.1328125,-0.9641916010870273,-0.7106373921044223
8.13671875,-1.2833295495289396,-0.5524983441774037
8.140625,1.6912990654050368,0.9251482825162208
8.14453125,-0.0686197008484611,-1.7340254249528246
8.1484375,-0.5197626135933481,-0.5827192462958899
8.15234375,0.5226388771298704,0.22435326708287467
8.15625,1.3082941685871625,0.08650617017967306
8.16015625,0.39041420247073827,0.11891272226204083
8.1640625,1.5768102639060484,-0.08161248458930043
8.16796875,-1.6134521720187431,0.16777385694607078
8.171875,1.0439186683718276,-1.0478831386950689
8.17578125,-0.61246697724889,2.2544757383027036
8.1796875,-1.5049392199134117,0.6293458917777902
8.18359375,-0.38546999157866035,0.46139130270826134
8.1875,-0.6680840296634671,-0.5902386617913938
8.19140625,-0.30273437258903696,0.30128172864717245
8.1953125,-0.30119944168146684,-0.08417228187017343
8.19921875,0.3645447872228225,-0.04385970748136989
8.203125,-1.3798241509625093,-0.40490632165851137
8.20703125,1.2396616816944634,2.085101294397165
8.2109375,-3.1321460086560258,-0.8003387358808856
8.21484375,1.7097963117381068,-0.2707242111166468
8.21875,0.1362199742781594,0.048284745013375666
8.22265625,0.918115519172131,-0.6273579450692601
8.2265625,-0.7398663598910196,-1.2417026039917232
8.23046875,2.723817504421438,-1.225624438270244
8.234375,0.10761289937060807,-1.7282221057765577
8.23828125,0.4563010662641783,-0.7948831311351564
8.2421875,-2.276444925903938,-1.9153720101178155
8.24609375,0.8326558256209949,-1.6067402320444182
8.25,0.8427507100328613,0.9274657014666975
8.25390625,0.10679212532715501,0.005123463845924993
8.2578125,-0.19397611256156183,-0.6146163326116939
8.26171875,-1.8448647481579006,0.37514289245907273
8.265625,1.014430905024414,0.8240318210370844
8.26953125,-0.6334054602734787,0.8495455587759115
8.2734375,0.9880393663424979,-0.09480132147238844
8.27734375,0.12930747097444414,0.206452330957657
8.28125,-0.5918714274050451,-0.9025549437407226
8.28515625,-0.29444267011999403,-0.3570460822906628
8.2890625,-0.906610845240156,3.070611519264355
8.29296875,-1.2243296996707538,0.22323047804546922
8.296875,0.4425266514416196,-0.17461339625158315
8.30078125,1.2138876040401803,-1.6945715357279312
8.3046875,1.0117971797355754,-0.23506522420951168
8.30859375,-0.33974387863268524,0.15014909806298252
8.3125,-0.6508697697029614,-0.5925743780044432
8.31640625,-1.2392782475592061,0.40023925214202605
8.3203125,-1.5364283467587319,-0.9759217838796739
8.32421875,-0.7756331918139898,-0.27989787376568687
8.328125,0.873524800457686,-1.7488816822110134
8.33203125,0.660348590802695,0.16504864626260254
8.3359375,-0.4707637232188557,-1.5066759533567096
8.33984375,1.5953791097285497,1.103635118422434
8.34375,-1.0744630054397761,-1.1659891211501203
8.34765625,-0.061491496551876315,0.06795583900550456
8.3515625,1.2819275792416864,0.3059100841350533
8.35546875,0.09661145576904831,-0.4479944772497973
8.359375,0.27143843238512944,-1.500283336259832
8.36328125,-0.9856914660073876,-1.99383645161897
8.3671875,1.2795555708750883,0.443956732256651
8.37109375,-1.2321471219100288,1.4996693944663226
8.375,-0.26402158929089076,1.379943893058483
8.37890625,0.43378072967251474,0.08324008034128189
8.3828125,1.3262427701470636,-1.986390590423001
8.38671875,0.9909075556408266,0.9541383249651575
8.390625,0.81226856066061,-0.46933604058090234
8.39453125,-0.3833126620554624,-0.2760459394324338
8.3984375,-0.02217126208719011,-0.8769099579847576
8.40234375,-0.9058532150732069,-1.6128693282442779
8.40625,-0.6325367448711441,0.05076292199655131
8.41015625,1.2536978945318735,-1.9817689743935631
8.4140625,0.02156438009149529,-0.22513901566779523
8.41796875,-1.057413062222686,-0.036128811927362274
8.421875,1.5315441067588196,-0.6915902462992212
8.42578125,0.8032519086594948,0.736992465894079
8.4296875,-0.00429972046278863,-0.4508606189534731
8.43359375,-0.932108896349327,-1.1217192233168094
8.4375,-0.9190158232700352,0.28910292426370165
8.44140625,1.1254448909282528,0.5627527672300418
8.4453125,-0.8636155504485478,-0.17885773468780325
8.44921875,-1.118037343785112,0.01930835577472813
8.453125,-1.1157664693492,0.6512861327638755
8.45703125,-1.3364620749562173,1.5092196717516433
8.4609375,-0.10740003912972593,0.5170179235916954
8.46484375,-0.333358621613268,0.202984802396
8.46875,-0.148376754087023,0.12237447619044571
8.47265625,0.21902182976659854,-1.2614100175457519
8.4765625,1.1268652972945885,1.284809704186367
8.48046875,0.5295446412781163,0.44116884159330283
8.484375,-1.0480328915536643,-0.2882529423053726
8.48828125,-0.5465710227045679,2.149728843528864
8.4921875,0.6643078277393532,1.2375571117727104
8.49609375,1.0657445995759567,0.5106964818904597
8.5,-0.647625228315267,0.35394016727926875
8.50390625,0.39554428536375075,0.7799888761449663
8.5078125,0.19321964530478955,-0.7131905378412967
8.51171875,-0.7715617960719895,-0.11374293476190987
8.515625,0.26634987834950885,0.02528116002810797
8.51953125,-0.02896830722262883,0.36438053856942404
8.5234375,0.6654944462267839,-0.5728701766169365
8.52734375,0.992598629495299,-0.14984304870699564
8.53125,-0.20505695140200478,-0.7436573580353767
8.53515625,-0.10312114242239344,-0.7401632453885639
8.5390625,-2.4471510391967795,0.21350257531432043
8.54296875,0.650895158248379,-1.0145349757763193
8.546875,0.17373125148923566,-0.3320278752496999
8.55078125,0.7739011014137535,1.3428502264914737
8.5546875,0.041860730134181054,-0.6423373379131945
8.55859375,0.3812124117890959,0.06383263832811975
8.5625,-0.21789134539448834,0.8410010610313547
8.56640625,-0.263509004441236,-0.46662360339535014
8.5703125,-1.5501363903938687,-0.5370334796533838
8.57421875,-1.0317081675866753,1.3898436752296177
8.578125,-0.3952095052618761,-0.6654576831840551
8.58203125,-0.31866039259779116,0.4389900713731625
8.5859375,-1.126378612187733,-0.05587245872012582
8.58984375,-0.15365034508732606,0.9739370148932196
8.59375,-0.028429794420061792,0.8630203151170467
8.59765625,-0.9957255086622648,-1.3894846947183748
8.6015625,0.8007610004902836,1.2449752166668597
8.60546875,-2.1056333440421326,-0.7245479868804504
8.609375,0.08400587683580622,0.5160697507421445
8.61328125,0.5500842266960821,2.262840937545708
8.6171875,-0.38938146147247943,-2.9428719252390403
8.62109375,-0.11699774873224317,-0.7342743701650319
8.625,-0.0013185781070256864,-0.5654430814488395
8.62890625,-0.9263131309340801,-0.2096937611460379
8.6328125,0.42778975964616567,1.187689994129305
8.63671875,0.3288090349977588,0.21633413727732895
8.640625,1.0234984633975113,0.023455160579245023
8.64453125,1.2280788928443727,0.23072589774927885
8.6484375,-0.379855043690219,1.3117168383686557
8.65234375,-0.20111149636149894,-0.2326634123578574
8.65625,-0.2897020545421168,0.7434512414759527
8.66015625,-0.2555012545820087,-1.1409978555795182
8.6640625,2.0670682822947595,1.30211518882204
8.66796875,-2.2393572822616816,-0.3951812634474626
8.671875,-0.20389010349342251,1.3374678181675568
8.67578125,0.4104460424945319,-0.2502835726917149
8.6796875,0.37007992953762425,-1.045713590475244
8.68359375,0.24443142299357487,0.23161088145383882
8.6875,-0.38943253687889856,-0.33912594533924373
8.69140625,1.518906790804305,1.2298389145971436
8.6953125,-0.3844163319006053,-0.1550401689268248
8.69921875,-0.5543528970266656,-0.550394842973085
8.703125,1.1737834234569111,0.04423664984667569
8.70703125,0.8603103115887857,0.41285239666839735
8.7109375,1.3374510185566486,1.3181397103906316
8.71484375,0.42688755982953075,-0.023901629412084752
8.71875,-0.2409379913094682,0.5734333949631956
8.72265625,1.2824688057792635,-0.3598588775614285
8.7265625,0.19817754285178069,0.07038182385597777
8.73046875,-1.4628706167777676,-1.264604538569769
8.734375,0.4126977103838274,-1.1516970952136694
8.73828125,-0.3761445317363598,-1.655238492020699
8.7421875,1.917747848111541,2.080170119635924
8.74609375,-0.5688829744988207,-0.3216939863645361
8.75,0.24610923306499588,0.4493302909482811
8.75390625,-0.17252862267445798,-0.6702111400348876
8.7578125,0.5669495118809721,0.8655231140115299
8.76171875,1.3464952897338711,0.6198804599352626
8.765625,-0.1875143324768659,-1.6718488790651427
8.76953125,-1.121994981214366,0.20663778476819403
8.7734375,0.600730033384689,1.4704470076540515
8.77734375,-0.8689792639987821,-0.23469367843292793
8.78125,0.5001956090808116,1.3971950848753725
8.78515625,0.4984247041792143,0.0994540773056764
8.7890625,-1.8577009704300467,0.5372905418917127
8.79296875,-0.6114125705695582,0.15215625721913423
8.796875,1.059130620688057,-0.745708050289989
8.80078125,-1.6363222704065137,0.9465731973350503
8.8046875,1.2898572095510383,-1.2777445707805606
8.80859375,0.006975459617955952,-0.23036658904674126
8.8125,-0.125172410038813,1.7450399643166208
8.81640625,-0.06524374057224298,0.4709709443891858
8.8203125,0.40154359736154727,0.3514563865180631
8.82421875,-1.1561730609992162,0.0724507862197956
8.828125,1.3276196417875796,0.2797868793698693
8.83203125,1.7987131953619337,1.684570719915107
8.8359375,-0.5396796613689634,0.2109563730189455
8.83984375,0.6299480937074303,0.07748872087331755
8.84375,-0.28642935414876974,-0.2975521439975333
8.84765625,0.9355183446710046,0.7048264235062823
8.8515625,1.1804628688228267,0.5347215868531686
8.85546875,0.8447204863410396,-0.42668985019411704
8.859375,-0.6563751054729948,0.6241535061473397
8.86328125,1.3192267922372793,0.4431442756933355
8.8671875,0.21859192042041573,-1.1311340215599464
8.87109375,-1.363293754171355,0.6500563108965642
8.875,-0.16066007207340993,0.35536063075820734
8.87890625,1.5722125436899428,0.49347713808207067
8.8828125,1.9709652475304855,0.7768645396700541
8.88671875,-0.727871441098711,-0.6997369774695157
8.890625,-0.05451948577717285,-0.15663923807110344
8.89453125,-1.2514486132155578,-0.02296412747016795
8.8984375,-0.5939164800952794,-0.6303972101203854
8.90234375,-0.9733181794346102,-0.47512258671519436
8.90625,-1.2663800218348706,-0.7118920661080335
8.91015625,1.7685882913400426,0.37584806927755643
8.9140625,-0.9422935518279605,0.23395006396079546
8.91796875,-0.6833722709420103,-1.443135674806428
8.921875,0.5519490558667494,0.30430385986032094
8.92578125,1.136646724748378,1.045791340236729
8.9296875,-0.46537891174477813,0.7424851157488475
8.93359375,0.12061725560146286,-0.7807432677920223
8.9375,-2.0072128330646937,0.8159365361497809
8.94140625,1.1469801871302876,-0.029897646804427087
8.9453125,0.45326551586927877,-0.27641558432066093
8.94921875,-0.12228356766725965,-0.9137644229145092
8.953125,0.9664514293769932,-0.14114816255432047
8.95703125,-1.4880918972902035,1.1369552646269458
8.9609375,-0.22013523129770918,0.28141724887919595
8.96484375,-1.139909645088571,-1.6337512279349047
8.96875,-1.1736776167340475,0.8835075836469113
8.97265625,0.4060921533847356,3.490379754295936
8.9765625,1.864088056197545,0.9878659014178848
8.98046875,0.8346136464305108,-0.4048558712812877
8.984375,1.155069447471775,0.008130543091607932
8.98828125,1.3688097249485773,0.08411181892225716
8.9921875,-0.24659852045583835,-1.029980139761492
8.99609375,-0.4392630796497858,-0.7763698474320154
9.0,1.5186601697870135,1.0041289404351503
9.00390625,-0.041531936732796995,1.1073924880947008
9.0078125,-0.1899815517711427,1.0754969079305041
9.01171875,0.8338529095747313,0.12865176380737747
9.015625,1.0342467374068862,-1.4554285036599959
9.01953125,1.2434233365220424,2.3985202316013603
9.0234375,-1.8713246460088782,-0.5978002318253738
9.02734375,-0.4772782863939826,1.7898318866369503
9.03125,-0.48164064470419343,0.10481507999634447
9.03515625,1.733295118755827,0.15597252973187942
9.0390625,0.6743025136591563,0.21635489595956237
9.04296875,-0.5117570966815906,-1.1917371388763678
9.046875,0.4005999575760095,0.07499764434158418
9.05078125,-0.33327155137629544,0.0808289168808427
9.0546875,-0.0674325139947251,-1.2152734373743108
9.05859375,-0.8079561041349409,-0.15650010039369308
9.0625,0.2661472828399368,0.9087877123496085
9.06640625,0.019625857021509825,-0.1599568398533636
9.0703125,0.9323317806082242,-0.9544033204555737
9.07421875,-0.5960329822774417,-1.230511889223208
9.078125,0.2882172162326122,0.83324669124346
9.08203125,1.5120446404276169,-1.3458342390296338
9.0859375,0.2240299286798037,0.3417039742704688
9.08984375,-0.5758056921469694,-1.6453447035972362
9.09375,-0.41575131104165625,-0.4958199517765158
9.09765625,0.7268680130100706,-0.5538504071035664
9.1015625,-0.16088200786662174,1.5127355953477313
9.10546875,0.6966312789749027,-0.46670611445761806
9.109375,-0.6648199812125334,-0.42664878852783894
9.11328125,0.8725130401235444,0.3012460560357922
9.1171875,-2.637167976824587,-0.817871805654336
9.12109375,-0.47055618908837127,-0.6889133501900494
9.125,1.6280090930161266,-0.057464830917178605
9.12890625,-0.01158313193858651,-0.23019879757498007
9.1328125,0.9538717210243874,-0.7123590242743384
9.13671875,0.8051054325994166,-0.011911798365910739
9.140625,1.2249693174868477,1.3979737865303483
9.14453125,-1.2214395036756385,1.7816363886499549
9.1484375,0.9046365907546193,0.39373091254007775
9.15234375,0.6924442486009577,2.041328453536709
9.15625,2.774124625468116,-0.8113323651757031
9.16015625,0.09767948330240102,-1.878274088570092
9.1640625,1.3882427761969391,0.48730135868571073
9.16796875,-0.5077574713491412,0.047775915843958836
9.171875,-1.1980736751380174,1.1100613943834268
9.17578125,0.029866826275381026,-1.09136553918567
9.1796875,-0.1856259474320854,0.2234338537766598
9.18359375,0.20436494637859903,1.1340745937206145
9.1875,-1.5563330309162637,-0.538605059476496
9.19140625,-1.5355963617126336,0.2217998860709278
9.1953125,1.367625346599985,-0.29978341239855966
9.19921875,0.9341955431991722,1.260912795473949
9.203125,1.4030336943985418,0.4449197027248366
9.20703125,0.29613118331891813,-1.284880688651916
9.2109375,0.19596734557992437,2.089347443338241
9.21484375,-2.5502501624054674,0.08249597824860805
9.21875,0.10814318887906159,1.297257243917943
9.22265625,0.9570615386966079,-0.879116638967598
9.2265625,-0.18620601205742854,1.0731645879127296
9.23046875,0.42835637676040283,-0.29832726791904596
9.234375,-0.0721185945343626,-0.14178763879151654
9.23828125,0.6218358051188041,0.3639562276116001
9.2421875,0.6060128100240001,1.532789553766767
9.24609375,1.014580769354413,-0.47461247310043847
9.25,0.04480903173219068,1.2659557146448501
9.25390625,0.42528038583655897,1.4567515301115572
9.2578125,-0.5801152715081611,-0.5934152222739867
9.26171875,0.38712509299382575,2.323516472419686
9.265625,-0.4808923657248891,-0.6537228432690797
9.26953125,-1.2036817448188313,-1.3392173558695433
9.2734375,-0.14101157631780156,-0.28787744544467836
9.27734375,-0.9977070300480102,-1.5120146948103446
9.28125,-0.8533817166795676,-0.04296389362128593
9.28515625,-0.6982669655798276,0.8681274527560913
9.2890625,-0.6896648757453296,-0.5392137694394431
9.29296875,0.6524243103039105,-0.10557719697767796
9.296875,0.511652562326881,-1.1149664048092796
9.30078125,-0.600865674989692,0.5778390847593589
9.3046875,-0.9494892882425416,2.347408728412147
9.30859375,1.0890315026883337,0.2562753341580742
9.3125,-2.5492213376926784,0.7224606787445127
9.31640625,0.8258228475033917,2.352061560849122
9.3203125,-0.37737036380000843,0.6990862035793505
9.32421875,-1.3716418375523296,0.5006678127311897
9.328125,-0.5435654991455601,-0.26141134921231446
9.33203125,-1.0205173931257583,1.3857347101381838
9.3359375,0.025186637237205524,-0.0006007284421044448
9.33984375,-1.7774045995945393,-0.674108706156589
9.34375,0.18536809450872854,0.5020442311021546
9.34765625,-0.8665304645764359,1.5997063807624399
9.3515625,0.5918939469129681,0.1055518928991707
9.35546875,0.7594974353370596,-1.1630328583636438
9.359375,0.3947716748548988,0.14429222056707594
9.36328125,-0.07947362758935256,1.2572248247672162
9.3671875,-1.449087888812566,0.9466898426180813
9.37109375,-0.5507959150195436,0.3117050078724257
9.375,0.9208553602042824,0.5043139635543479
9.37890625,-0.4088077054963862,0.03972916505594805
9.3828125,0.9149379408496009,-0.9575455189935358
9.38671875,-0.28760483484044846,1.283640562995568
9.390625,-0.4621825454481355,0.2002197706272856
9.39453125,0.17441170864931882,0.6265014716854213
9.3984375,0.2305996475433501,-0.37931742064844487
9.40234375,-0.2172891003300633,0.2287734972527761
9.40625,1.1262812961265587,0.804880684108788
9.41015625,-0.6046395812156147,0.33401184148464147
9.4140625,-0.37368910879423856,0.715455744967422
9.41796875,0.09875265296071893,0.894346523471154
9.421875,0.16199048847002948,0.08096536642925224
9.42578125,-0.10582703222739342,-0.03846854676070828
9.4296875,0.9592588196844423,-0.9052677627284643
9.43359375,-1.1155404071672121,1.5505427925820656
9.4375,-1.0595168793999994,-1.1402968388519414
9.44140625,1.1818423988504485,1.7829604670765968
9.4453125,-0.45799518974616127,0.3944486313608385
9.44921875,-1.4009665572044134,0.8667998164933993
9.453125,-0.9116098741883246,-1.3782151749036395
9.45703125,0.24772137794019697,-2.4662814060715106
9.4609375,-0.7368611831975063,-1.060907546329479
9.46484375,-0.31336819826872675,-1.7624073910403018
9.46875,-0.30167858610613996,0.13215098866525057
9.47265625,-0.7485174602233494,1.2656108993833286
9.4765625,0.18186940444607358,0.5036839805247912
9.48046875,0.5441621816866069,-0.8624259251674025
9.484375,-0.6361628410075421,0.6320684370176953
9.48828125,-0.5003971407612671,-1.3501397391455592
9.4921875,-1.1653022602167393,0.5100189791371315
9.49609375,0.2953764913465701,-0.15267178506500034
9.5,1.062421041973168,1.438443606875331
9.50390625,0.03259463445565512,-0.8826967092521341
