time,ecg,ppg
0.0,-1.4267818298341401,-1.9923791933853663
0.00390625,0.15273593776631464,0.005809355426020524
0.0078125,-0.3308882177663331,-0.2645928235033987
0.01171875,0.2673458386076015,0.07939568443463328
0.015625,1.9450446199209135,-3.0525823564435486
0.01953125,0.23686419885389365,-1.7675792798353542
0.0234375,-0.2767054563598649,1.506633130282234
0.02734375,-1.591696796788086,-2.2697190522784148
0.03125,0.30509578692243566,-0.9530919964762832
0.03515625,0.15400122246157147,-0.06925908122570448
0.0390625,0.7968336398175384,-1.2158932521489187
0.04296875,2.3770167083537506,1.1477054998024419
0.046875,0.6882451380718354,-1.2849139395167553
0.05078125,0.33205910828293195,-0.9581238100910933
0.0546875,-0.09071871962316501,0.15238917344113942
0.05859375,-0.2796912514417047,-1.154395790972415
0.0625,-0.5252550488021103,-1.4097608983841639
0.06640625,-1.04743802762022,-0.918559068297663
0.0703125,-0.12603137871528908,1.4381010853532141
0.07421875,-0.24322655812021876,-0.43560707335841614
0.078125,0.20975878169441262,-0.44846348644484196
0.08203125,-0.6279208348354147,-1.2508833815830878
0.0859375,0.3583284372687018,0.5466754061785386
0.08984375,2.3934875622385343,-0.5796499001932437
0.09375,2.2415139770957246,0.07134667439079137
0.09765625,-0.6479960956019337,0.34633430115006586
0.1015625,-0.7475688455961108,-0.20630314813000047
0.10546875,1.6530007415921038,0.783245227963529
0.109375,0.509946510481733,-0.24309892428728908
0.11328125,-0.4588810191801053,1.537125006761386
0.1171875,-1.6605081042661376,-0.7507049770197848
0.12109375,0.22104070023225472,1.1847582532308913
0.125,-0.11636131507253383,-0.22228447155193673
0.12890625,-0.6601673700826028,-0.1250141630007946
0.1328125,-0.8128588360153514,2.0486524914962834
0.13671875,0.05962086042987671,0.26364233943069093
0.140625,-0.4886291457804767,0.6470011891028988
0.14453125,-1.2810566093494415,0.5666133526882557
0.1484375,0.622437533319445,-0.1761689140042021
0.15234375,-0.7209868530604037,-1.373368334523303
0.15625,-0.10218512671658432,-2.1247243428854703
0.16015625,0.7020441670343435,0.2264521570896336
0.1640625,1.9154663463793713,0.4551575721448578
0.16796875,-2.7908079660073426,-0.6863813523671265
0.171875,0.8789364858582155,-0.49779032469442536
0.17578125,1.3678404913347288,-0.31002041367039274
0.1796875,-0.8988887253852693,-0.09763604576423743
0.18359375,0.16448945207083437,-1.690088513393462
0.1875,-1.8139124643026985,0.9340765757232748
0.19140625,-0.7309238386252881,0.274660110055246
0.1953125,-0.3521835345505888,0.09260630511709805
0.19921875,-0.706949787471413,0.3101882589186649
0.203125,0.878886516757798,0.5663831760744467
0.20703125,-0.35064889260136983,0.024737618340232116
0.2109375,-0.17853174868248217,-0.19421488616844487
0.21484375,-1.0572143765739817,0.015426890483696686
0.21875,-0.08563726870790872,-1.5906490164430727
0.22265625,-1.8568209485065288,-1.0833428250835584
0.2265625,0.5263875457453951,-0.18931373320098693
0.23046875,0.028677359350904055,-0.7656288490641731
0.234375,-1.7678145695533607,-0.1909682024897831
0.23828125,-2.9323093930408217,-0.02450709727001749
0.2421875,-0.5086172521698382,0.877037367837549
0.24609375,-0.1960021800036424,0.7031420280185975
0.25,-0.9574479399044644,-0.8633896437905143
0.25390625,1.3700159627229498,-0.22774970608484438
0.2578125,-0.007764410505247837,-2.31743285899555
0.26171875,2.672353065464667,-0.20942503976164087
0.265625,-0.10665241568322259,-0.5601485761011543
0.26953125,-0.8714092622862086,1.3079594368557692
0.2734375,-0.8051570515608784,2.597729768797479
0.27734375,0.44461408155724663,0.9676834677498044
0.28125,-0.042853980011388224,0.20673643355544297
0.28515625,-1.7904658231602166,-0.06549686897400678
0.2890625,0.2126220647292804,-0.07166809938847825
0.29296875,0.6374818296987297,-0.5037771666285902
0.296875,-0.2743295904797316,1.4557364645387385
0.30078125,0.5062562835617869,-0.16806998527536532
0.3046875,-0.035236276171229215,0.3499725490268727
0.30859375,1.4730572404237348,0.4944209039245485
0.3125,1.6297504240408478,-0.3881306180641413
0.31640625,-1.0775153900726402,0.2610830921744612
0.3203125,-1.07307545604438,-0.5390976955838328
0.32421875,0.23754446842844346,1.2358604495065637
0.328125,-0.5818241160344846,0.14098967398650775
0.33203125,1.738988227983649,-0.05624576247307594
0.3359375,1.8041335722000185,1.5824362059472654
0.33984375,-1.033878032144844,0.5324311757734573
0.34375,0.13734889094910316,0.6380920772354867
0.34765625,-0.2304260710222768,-1.1279310946677719
0.3515625,-1.5033935937473668,-1.3445622648820643
0.35546875,2.0015743258032312,0.9705176067156344
0.359375,0.8263387404967696,-0.27396127117748237
0.36328125,0.9189153321182468,0.8725095357150376
0.3671875,0.5225657811798787,-1.739021267166734
0.37109375,-0.6200400906859027,0.6292179930271572
0.375,1.1889271242707584,1.4766646783446038
0.37890625,-0.16644474102286022,0.010225878248274716
0.3828125,-1.6076829530791112,1.855728519239644
0.38671875,0.30198760594562785,0.9942989043511723
0.390625,-2.4789026543424266,-1.1419261475672573
0.39453125,0.5875904859815956,-0.1841651378819703
0.3984375,-0.5677234979918514,-0.14303015273947023
0.40234375,-0.22408123274480388,0.6033009747071324
0.40625,0.04185404941929668,-0.4041473195133872
0.41015625,0.7688654171820962,0.34572848541508666
0.4140625,-1.0636527102917728,0.9551145986649348
0.41796875,-0.6162731172179273,0.012355034257476735
0.421875,0.7848481402635096,0.8998067265777623
0.42578125,0.1628248570333439,1.9437876381279735
0.4296875,-1.7177299594105613,-1.6801673703506181
0.43359375,0.20571123895352839,-0.6446307031621733
0.4375,-0.8145315189835567,-0.7442782914037347
0.44140625,-0.5263571399042909,1.3615817969448347
0.4453125,-1.1265047812468276,1.8854580728009473
0.44921875,1.0130443107429528,0.9554497116307538
0.453125,-0.22516734432511507,-0.42205421154484507
0.45703125,-1.0176305928646603,-1.1387837882621117
0.4609375,-1.8979997029735616,0.08197434302625752
0.46484375,-0.8584953448975554,0.2215610436816304
0.46875,0.4506663736023705,-0.8428658535252772
0.47265625,0.07685009232637882,-1.1773582371854006
0.4765625,-0.6436143071763729,0.20802652786476059
0.48046875,0.018506218692815702,-1.665072944524639
0.484375,-0.7829755400714462,-0.5261902305448052
0.48828125,-0.0816735302906848,0.15439790000548406
0.4921875,0.06787495810767999,0.06035922530391206
0.49609375,-0.31287020070901883,1.5551112857505054
0.5,-0.5379637914077129,2.236040712621891
0.50390625,0.17159585581877906,-0.5633716544431748
0.5078125,-0.6658192232332955,0.212765780807611
0.51171875,-0.7368492497421203,1.1811467663428394
0.515625,0.6471243707209198,0.29018570346344386
0.51953125,1.1718655275082486,-0.2977552149436866
0.5234375,1.4386191895522054,-0.45686569260196425
0.52734375,0.3530171630372871,0.6099459843931896
0.53125,0.09087953975533482,0.1792673850322728
0.53515625,0.43828175038860806,-0.9012367597495541
0.5390625,-2.03998521618268,-0.9687889365700688
0.54296875,-0.17895301787196607,-1.6087375898090972
0.546875,-0.005343804590570051,-1.4437903054180345
0.55078125,-0.555751811642789,0.7524105662314443
0.5546875,-0.778135687564357,2.2979900928689396
0.55859375,0.06540134381401759,1.027240291061773
0.5625,-0.012471069450612982,0.25645109584918446
0.56640625,2.5008620236830867,-2.595742047238378
0.5703125,0.481605092806616,0.7310879615637363
0.57421875,1.5205947404141325,0.9848201426931186
0.578125,0.5867936196241864,1.04416772425879
0.58203125,-0.3465326133615905,0.6068783728670545
0.5859375,-0.17095062618607507,0.40610463245952844
0.58984375,0.22619527260406974,-1.5690241789419328
0.59375,-0.6815972906467286,-0.07980720205946089
0.59765625,1.3205185358290654,0.3936512603018477
0.6015625,0.19257130787679727,2.4337005425484715
0.60546875,1.565093842220106,0.6819072666936145
0.609375,0.21538398123514574,-0.972444764750296
0.61328125,0.4741585245760724,0.9305355980980943
0.6171875,-0.08906946806236252,-0.025878569253333622
0.62109375,0.272337364370497,-0.02283968354333163
0.625,-0.028010393166723605,-0.649933190074745
0.62890625,1.5964586705105208,-2.6750239959423707
0.6328125,-0.6139226262799268,-0.32389604942090744
0.63671875,-0.990854158789312,0.112507765593339
0.640625,0.38433410605633384,0.48447128277716
0.64453125,0.0005067095479175637,-2.3778132519539406
0.6484375,-1.6342068109153745,-0.740818666170922
0.65234375,0.5809484277755591,0.14685898891972685
0.65625,-0.5308515487994777,1.1493150282460183
0.66015625,-0.735912573278593,-2.4271787712007913
0.6640625,0.8191978736743845,0.7258106982574014
0.66796875,-0.510357695589983,-1.0483965401872761
0.671875,0.04057060106074738,-0.7294705058824541
0.67578125,-0.49132761157938815,0.3114890613374516
0.6796875,0.24285948203907362,0.3025767200865405
0.68359375,0.9663195703910746,-0.12444489320233763
0.6875,-1.162718077426909,2.0803065233093356
0.69140625,-0.06939376446988915,1.500314121401808
0.6953125,0.789255558383893,-0.20642161813315563
0.69921875,-0.8194489875461265,0.6798071412954332
0.703125,0.10793167302762326,-0.9305931490170924
0.70703125,-0.2208640485097699,-1.5631908382911053
0.7109375,-0.5735396622955697,0.9646254587457336
0.71484375,-0.27118384726218075,0.7114792281604692
0.71875,0.8755548003980731,-0.5283402965010882
0.72265625,0.13484103431741312,0.09624926376069991
0.7265625,0.46306490594019795,0.08361212339274493
0.73046875,2.1180993414474845,0.05566419179160183
0.734375,-2.0835346195052233,0.5844580343917487
0.73828125,0.6051551622158311,0.24259162528367262
0.7421875,0.6743260148226089,-0.5978726380080557
0.74609375,0.04561598057701782,0.8201741068892453
0.75,-0.5550535126682496,0.43090733062133846
0.75390625,-0.11591000908322255,-0.9394337053576695
0.7578125,-0.1407150663732303,-0.9954504967180424
0.76171875,-0.87021567262853,0.31689527672558165
0.765625,-2.0034988034109342,-1.617549177017956
0.76953125,1.0041885483151656,1.995953965346055
0.7734375,0.9270749058554587,-0.17625447764211954
0.77734375,0.16683563150364,-0.9063291341091676
0.78125,-1.016917991132799,0.25558956142573214
0.78515625,-1.000415591847011,-2.567925030860917
0.7890625,-1.0207398270754253,1.360132541667542
0.79296875,1.5447579153189044,-1.9052469955523361
0.796875,-1.3808190675129168,-2.3745218964037984
0.80078125,-0.7290865041983149,0.4758636261346381
0.8046875,-0.2693709377162982,-1.3015328754482969
0.80859375,0.7197468432201284,-2.673349941738884
0.8125,-2.0505514397978595,0.5940085401673022
0.81640625,-0.2640772896996801,-0.8344036012154794
0.8203125,-0.7302121661686194,-0.8884300422308621
0.82421875,-0.4087129343699295,0.8425760574367227
0.828125,-0.07991401201380592,-0.8521377167760228
0.83203125,-0.5932302892856928,0.21656231866587605
0.8359375,-0.058449424935071374,0.36208072741028635
0.83984375,2.7490457195767157,-2.048463494921575
0.84375,-0.7461048966073003,1.808106955652365
0.84765625,1.4884841895130034,-0.18194690549677556
0.8515625,1.784416810747143,-0.7319417327792918
0.85546875,-0.5066209565814966,1.3522873569927765
0.859375,-0.4187852737852014,0.12307074094546676
0.86328125,-0.3063729915906282,-0.030210795492059274
0.8671875,-0.5556889561207736,-1.4590171058286194
0.87109375,-1.8553172875416504,0.9950174716248046
0.875,0.04037436420024933,-0.9793707028334853
0.87890625,-0.08922012618902511,0.04346594032240578
0.8828125,-0.8004810987360148,-0.5732225006901106
0.88671875,-0.32099459684539383,1.2411206879998993
0.890625,1.9813855868758536,-2.543596718902863
0.89453125,0.35011652074462407,-0.8453799620227337
0.8984375,1.409645003205321,0.18021122206441054
0.90234375,-0.7806502442746803,0.08313221142229774
0.90625,-0.9643488804708248,0.6981393400372042
0.91015625,-0.09204491458398338,0.030757414581866715
0.9140625,-1.2125624179761418,0.345437759643254
0.91796875,0.4567106226245155,0.05633475436195623
0.921875,-0.6118325646223103,0.19786657419043735
0.92578125,1.4237915619140367,-0.5628672643850962
0.9296875,-0.22425220901766613,0.4808551559241069
0.93359375,-1.6170504958896939,-0.4216017315184419
0.9375,1.3031949708087986,-2.6202861249158307
0.94140625,2.0781674961665013,1.7685401064767579
0.9453125,-0.12272783301648704,-0.3452776881746541
0.94921875,0.4602224990092205,-0.2690166299418149
0.953125,-0.8223675434122771,-0.8622576316590195
0.95703125,-0.04246716832722932,-0.5151851325324919
0.9609375,1.5972041569891904,-0.5886058055319742
0.96484375,0.3364880508965703,-0.9498030962227826
0.96875,-0.30634344278632714,-0.06942990632162559
0.97265625,1.0196134212971617,-0.17734805524677297
0.9765625,-2.425278703822721,-1.3146615591071242
0.98046875,-0.26755408153346355,0.06982721407735767
0.984375,-0.008853017383796688,1.1388376215432312
0.98828125,2.186202956990384,0.03669023508249325
0.9921875,0.5626182634009903,-0.44556068133678284
0.99609375,-0.9600694640372821,-0.8762422806408333
1.0,-1.350524407506221,-0.05999926911648105
1.00390625,-1.6687921892098678,-1.3986584025213067
1.0078125,0.8965808540029546,0.4110965600963274
1.01171875,0.5401432938465468,1.4466348462840122
1.015625,0.04645456791220741,0.37932715105135256
1.01953125,0.28358621849941934,-0.7705540147772456
1.0234375,-0.044595999875441654,0.2760484797426087
1.02734375,-0.8463899450195747,0.19127990457213984
1.03125,0.6257226386809459,0.3526112348910296
1.03515625,1.1113967779327354,0.5816180132639946
1.0390625,0.6688904526703553,-1.1707698689050952
1.04296875,0.3992198734686562,-0.20842534602619042
1.046875,-1.9794439810427231,-0.5412459292163594
1.05078125,0.4693993379108988,-0.5767178583741318
1.0546875,-0.39512500742476947,1.4648037262207854
1.05859375,0.20837574547374235,1.0959597046630156
1.0625,-0.006090884816907276,-1.0624233408076884
1.06640625,0.1884525554255316,-0.19381194821782782
1.0703125,0.5176792942460732,-0.46559837546004434
1.07421875,-0.432388553784849,-1.9066060308919452
1.078125,2.510228042070244,0.4083971203329863
1.08203125,-1.517184262366498,-0.4657996295182776
1.0859375,-0.04246798780000333,0.5261667387743548
1.08984375,0.279273260451211,0.5712722221682653
1.09375,-0.24864916482139557,-0.5536556301493554
1.09765625,-0.19452572551677663,-2.3469190022111914
1.1015625,-1.8084479021604085,-1.4122862099439852
1.10546875,0.5996282880483071,0.17313217730133804
1.109375,0.3615937478672372,0.038769912873935324
1.11328125,0.7877094993307592,0.44815574433641536
1.1171875,1.355186931011254,-1.983507438589276
1.12109375,1.433493402738836,0.31172611857161187
1.125,1.3777416061102985,-0.5570117982554145
1.12890625,-2.488730507150556,-1.2720918419719056
1.1328125,0.5875560640293106,2.4414400689966076
1.13671875,-0.3363711952899439,-0.6812139433986727
1.140625,0.4625102928202013,0.9737417430463099
1.14453125,0.8817084061547644,-0.09027418356287471
1.1484375,-1.1998220249434246,0.23179940266615603
1.15234375,-0.30097858015934514,-0.6518893795001757
1.15625,-1.7200511478348335,-1.1498333868540613
1.16015625,1.0577352781412879,0.5575824360682041
1.1640625,0.2978961803006158,0.8415371081387131
1.16796875,-0.08081194123293278,-1.294565987109555
1.171875,1.9203581739948852,-0.5332924892625416
1.17578125,-0.8666885034707975,0.10819112913367225
1.1796875,0.8372601486216372,-0.2934305700281789
1.18359375,-1.3126589230623416,-0.22697876534072992
1.1875,0.565552159654589,-0.0064088713511236805
1.19140625,-0.4229778096522673,-0.1978140449967447
1.1953125,1.6817538406820423,-1.3115604673274643
1.19921875,1.9032922058605455,0.8896186608850905
1.203125,0.048586706360133354,1.3311383446905851
1.20703125,2.5673258107347445,0.70022436070962
1.2109375,-0.5959013654138167,1.906280905721425
1.21484375,-1.3526235638517392,0.8237029482279847
1.21875,0.40132725016690657,0.7340653707687136
1.22265625,0.03995556060698299,0.19257452572987835
1.2265625,-0.8330398882280566,-1.1594698658251819
1.23046875,0.3191985753542853,0.08728903905099675
1.234375,0.40476424816503315,0.20699603923476395
1.23828125,1.519701380253529,1.7411120207861712
1.2421875,-0.4768710391777077,-0.98211751454279
1.24609375,0.6313070030506891,0.9185225072250948
1.25,-0.6100509140618111,-0.8414719349818239
1.25390625,0.22604990146762738,-0.6726639786539793
1.2578125,0.11019772227410762,0.5855580009660014
1.26171875,0.2139276787780385,0.8616855751009987
1.265625,-1.8037918124781054,-0.5467400363244826
1.26953125,-0.13934661913581312,0.6691835072949321
1.2734375,0.12818317976205024,-0.9163250404173905
1.27734375,0.30173654696003877,-1.271224349276923
1.28125,0.09711528754612123,0.6374712808136809
1.28515625,-1.8559576647464406,0.017534344424530335
1.2890625,-0.45756897425392695,0.9240360122831791
1.29296875,-0.5937190692336045,2.110852266188196
1.296875,-2.1680090601143767,0.138267857152906
1.30078125,1.2380280045802816,0.6482802620680053
1.3046875,0.447688442313331,0.098265118291384
1.30859375,1.182923100325531,0.06951849271576588
1.3125,1.119986032936912,0.39444439989193164
1.31640625,1.0871734588949469,-1.3839818232589316
1.3203125,0.931503384064263,-2.1339659666212127
1.32421875,-0.05256615943308249,-0.6276359168266944
1.328125,1.3403318425947004,0.5127648156377435
1.33203125,-0.06049349937536275,-0.6828995933947724
1.3359375,0.29070941803301553,0.31846563724345717
1.33984375,-1.0201906877559215,0.6784670441740835
1.34375,-1.7019308738980012,-0.27042582667500836
1.34765625,-0.08645099923777452,0.47918027344015773
1.3515625,-0.7220728161687439,-0.08092308947344327
1.35546875,0.16795112931375547,0.3838240351301845
1.359375,-0.9895625614063902,-0.7107158169638967
1.36328125,0.8788616201732578,0.21736549629830768
1.3671875,0.1934720776661289,0.18382001647636056
1.37109375,-0.2286788750077428,0.03872250626990503
1.375,-0.0881439452776977,2.426896432338526
1.37890625,-0.9741575248289079,-2.011614496288132
1.3828125,-0.5066698864629657,0.3654194810753101
1.38671875,0.8420122863346375,-1.139352460491357
1.390625,1.0604747556739067,-0.3528970603599082
1.39453125,-1.3946408694510886,0.5895244920926889
1.3984375,1.1429386300717035,-0.7700322406370276
1.40234375,0.5650073126953593,-0.14848083215819294
1.40625,-0.542158890712187,0.1494969649393299
1.41015625,-0.9876682921682334,-0.6777205776984402
1.4140625,0.6163643543422314,0.6302801390084641
1.41796875,-0.18586433703503152,1.343974988756848
1.421875,2.3780372096220765,-1.9396742330929835
1.42578125,0.27666767472769527,-1.451177008755505
1.4296875,-1.076043297852955,-0.13828368101181254
1.43359375,0.765852206300802,2.154615197640051
1.4375,1.037050186032427,-0.8176531734604336
1.44140625,1.300811996221831,1.2773436664508695
1.4453125,-0.7085538492499035,1.4951674106356427
1.44921875,0.07412751639518202,-1.733797514631735
1.453125,0.17908040000948244,0.9859779118426746
1.45703125,-0.7166320087016228,-1.1239830318472832
1.4609375,0.8475017100655803,1.2739153558717469
1.46484375,0.08583792867435985,1.620969922824677
1.46875,-0.9482172138246172,0.1199866661907564
1.47265625,0.2728390293708756,-1.8750086172723774
1.4765625,0.4296563483596857,1.101029882157046
1.48046875,-1.0188564372810776,-1.175463794344273
1.484375,-0.2703062479804657,0.9488079126131586
1.48828125,2.7511195208163204,-0.9951758058518498
1.4921875,0.6100761534570649,0.2578360565148748
1.49609375,0.6253877809593236,1.1002239703676033
1.5,-0.3420997468153561,-0.6344176359383386
1.50390625,-0.37922707218194907,0.3962500064765318
1.5078125,0.3906427340457767,0.1252144470160985
1.51171875,1.6318051290650415,-0.2156059808672359
1.515625,0.6673443273173798,0.5988638878370666
1.51953125,-1.3331414605741996,-0.00910832991582904
1.5234375,-0.121008614244871,0.7980807154186268
1.52734375,-1.1579718649254007,0.6948207347552781
1.53125,-0.6796736190724625,-0.9839308227819124
1.53515625,-0.19501029474332393,1.096030616886036
1.5390625,1.2786278449056243,0.7543532308693721
1.54296875,-1.4892440105171247,0.18167375163022056
1.546875,0.3080812868272326,1.1912965930180723
1.55078125,1.0956683559647016,-0.5315836324346135
1.5546875,0.5416779445419801,1.2397959387484287
1.55859375,0.055235686408139105,-0.6737571237726496
1.5625,0.5109269180413174,-0.13105257637868326
1.56640625,-0.21241918438388507,-0.1680896238857753
1.5703125,-1.0063694301656192,-0.12770383801303506
1.57421875,0.6180765752795108,0.40834129895882043
1.578125,0.45027752110854546,-0.9156221220277181
1.58203125,-0.24429009248642344,-0.7744716167505277
1.5859375,0.5422690748210104,0.7171439781592099
1.58984375,0.9928201696401465,0.061717494924516315
1.59375,-1.1897781542643144,0.2789866664943775
1.59765625,0.11479453675563109,0.800092891040896
1.6015625,0.42958145907455536,-0.9471700296120696
1.60546875,-0.23001762806060272,0.017884181113295154
1.609375,-1.1945394740268669,0.33177698862362565
1.61328125,0.8317550972504667,-1.2681748624951932
1.6171875,1.1663582403370738,-0.9155279892342403
1.62109375,2.517878396431465,0.6989594767461467
1.625,-0.6078771624942367,-0.4670973946458225
1.62890625,0.723589188192409,1.3559491350176986
1.6328125,1.0457563069754294,-1.5631012173560004
1.63671875,1.339139532530256,-0.3725146178979014
1.640625,-0.17523579246604962,0.79832254420102
1.64453125,-0.3835043314557862,-0.7601820567065755
1.6484375,0.9577652484799107,1.68749242755156
1.65234375,0.4891633001796746,1.1658078758707586
1.65625,-1.2090942314735231,-1.1697442011657213
1.66015625,0.2906566094526203,1.1346305357839306
1.6640625,-1.2335861987817456,-0.035500943079573404
1.66796875,-0.7678804941535703,-0.53122443919464
1.671875,-1.159841909959622,-0.4607303492253917
1.67578125,0.34691883328967954,-0.4320257448333485
1.6796875,0.34311740890147996,-1.2873244623954532
1.68359375,-1.0395452519220725,1.4814703393617095
1.6875,0.17897005384044862,0.8618426561463548
1.69140625,0.6545509418216083,0.8206043766884425
1.6953125,-1.3265216162341793,-0.8672276998904036
1.69921875,-0.5338980994538668,-0.35643444782076067
1.703125,0.15664585931748254,-0.7323432867843149
1.70703125,0.5963065886096063,-0.9056717039195409
1.7109375,-0.6625396892529206,-0.23365032667700963
1.71484375,0.990173617374493,0.0007471321340234109
1.71875,2.3539732993936666,1.458895972447381
1.72265625,-0.3769619696413123,0.856840614686671
1.7265625,-0.382707771067329,0.003991866835646173
1.73046875,1.9447140717174383,-0.6316315192008347
1.734375,-0.523201201375099,-1.428668099379983
1.73828125,1.2768274277648506,0.961449942751156
1.7421875,-0.17440297569420574,-1.4282949257534103
1.74609375,1.5878483652555497,-2.0056621473590783
1.75,1.604903446215388,-0.9354292094011192
1.75390625,-2.222925717246466,-1.2279048471361427
1.7578125,0.2981276014763767,-0.07662000189002585
1.76171875,-0.8637295384579252,-0.4828563351795963
1.765625,0.005998791078539375,1.4563154111796643
1.76953125,-1.7899927296088225,-2.4786274771303
1.7734375,1.471818879578327,0.1621071292391778
1.77734375,-0.8244542158910844,-0.2156836341955654
1.78125,-1.3040670052741052,-0.22314728230938297
1.78515625,0.8229027233580023,-0.5769468859380509
1.7890625,-2.1886161627197604,-1.0255233472718954
1.79296875,0.7198384259393377,0.4515591337137387
1.796875,0.8499892769634931,-1.5406689102581412
1.80078125,0.48010580582112894,-2.3233375446998563
1.8046875,0.11904385025492875,0.965170866968716
1.80859375,0.2885516808452084,-0.7671339712458075
1.8125,-0.20186771715579932,-0.6268972326994702
1.81640625,-0.353207522523363,-0.5504902441687359
1.8203125,-0.5203137174413963,1.6734188462333668
1.82421875,0.8979721651080353,-1.0459290139813426
1.828125,0.7290101733101326,0.04236894262171488
1.83203125,0.0881957782887884,-0.45574285427530503
1.8359375,0.8414928668488282,1.8074611114683952
1.83984375,1.589100574687064,1.4698476512070093
1.84375,-0.735223155205896,-2.0090897493666895
1.84765625,-0.8414115800780539,1.0859643489311177
1.8515625,1.366195528003578,-1.7597096505032477
1.85546875,-0.8842105654560442,0.6972687253444595
1.859375,-1.2828473134488618,0.16572601331584047
1.86328125,0.9850810099311814,0.029581176440901046
1.8671875,0.015426080277149501,1.1353732110450965
1.87109375,1.6294270319632518,0.8475826321739371
1.875,-0.1692524982994841,-0.12995210249849706
1.87890625,-1.2984245979080116,0.9134329814033988
1.8828125,-0.2817836968865393,-2.1618534403438314
1.88671875,-0.6888858105548856,1.4853622577632255
1.890625,0.08887453015146388,-0.7058250643713075
1.89453125,0.6828386512915131,-1.1522136943277248
1.8984375,1.1471150406510744,-1.562901302854359
1.90234375,-1.327405799257635,-0.15121079205204216
1.90625,-0.7960815619173962,0.5194958195281806
1.91015625,-0.4662203671846508,-1.2423673365477632
1.9140625,-0.19990886156017298,-0.8105905173863082
1.91796875,-0.04594057258086263,-1.3709457774695104
1.921875,0.2033069611688175,-1.1167271032150488
1.92578125,0.4553949621201745,-0.6992157121034337
1.9296875,-0.03933069550959307,2.3529584288615424
1.93359375,1.4983250719478527,0.2980157233601671
1.9375,-0.2511238675927369,-0.3674031732046835
1.94140625,0.7645133496868043,-2.1852896344415127
1.9453125,-1.359662586290597,-0.1249025455270762
1.94921875,0.7456161070597794,-0.398387125328023
1.953125,-1.2518379647335134,-0.5513414779527328
1.95703125,0.9129495035316587,0.40086383749872967
1.9609375,1.0264315496628098,0.266797101248832
1.96484375,0.1257185191678059,-0.38288909034779706
1.96875,1.0672274013496255,-0.22831178814101113
1.97265625,-0.4033313472041623,-0.17041618061615557
1.9765625,-0.32237550297153333,-0.5843850434527769
1.98046875,1.9891304321305194,0.07806694699527572
1.984375,-0.563648764744802,0.35745709122967895
1.98828125,-0.03110209169995664,0.5732571417060758
1.9921875,-2.324937030431913,-0.25581632690949213
1.99609375,0.15814088958510727,0.12293579418656804
2.0,-1.010131954779259,-0.0032230680165575777
2.00390625,-0.6657584211027513,0.5535784041911055
2.0078125,1.371861229202889,-0.23048395429008758
2.01171875,0.8767851199324339,0.44117548147916696
2.015625,-1.607559443313815,-0.5596032292372989
2.01953125,0.701476940308373,0.2168831026732682
2.0234375,-0.19586986393616987,-0.6660359764917921
2.02734375,-0.6674773409107143,0.9636003077114783
2.03125,0.08241120068941712,0.09487592413280388
2.03515625,-0.6403270299257228,-0.22173981641836105
2.0390625,-1.1368894334378463,-1.1285967780330743
2.04296875,-1.4648086567935708,2.265493912082575
2.046875,-1.049645476149264,0.6418494717151412
2.05078125,0.21946913080892844,-1.59479046233262
2.0546875,2.2140198844082204,0.9840434765371894
2.05859375,-0.8483381852434899,-0.3698465626402305
2.0625,0.06267124561651059,-0.05719408296311492
2.06640625,-1.6207733316816413,0.9702431283486279
2.0703125,-1.0621631304802321,-1.9824269808273765
2.07421875,0.4383155547957007,1.080125754428031
2.078125,0.2330372184785651,0.8484099721333223
2.08203125,1.250874163334164,0.3095721645723791
2.0859375,-1.3026540022128341,2.022260434265118
2.08984375,1.2566297635825208,1.536774409520197
2.09375,-1.7153596425330786,1.611417869654072
2.09765625,0.12615856342858542,-0.3365840307433756
2.1015625,1.5266976624203423,0.17153621256419943
2.10546875,-0.2178036498083513,-0.6782023793264811
2.109375,1.1413517423213972,0.796472410442935
2.11328125,-0.8174561250589285,-0.05130792410283934
2.1171875,1.642076252095811,1.2268344512122031
2.12109375,0.27476830772659955,0.8333180421200724
2.125,-0.8652511318759246,1.334496970593055
2.12890625,1.0276370209941823,0.47751356358351543
2.1328125,0.36082243908726486,1.6999473862368502
2.13671875,-0.26760268216517963,1.6954354903920448
2.140625,1.430465316252095,-1.2548474839514843
2.14453125,-0.15491312094670684,-2.5284077749845593
2.1484375,1.7422836159508515,-0.19762089235270527
2.15234375,1.6215400555553514,0.5198888635290544
2.15625,-0.6517278661841366,-1.6539910947947514
2.16015625,-0.4769359139116212,-0.9218544830225631
2.1640625,-0.33519001887371763,-0.5477287484326553
2.16796875,1.6238597125692253,0.12481400028716236
2.171875,0.44576835999721676,0.4718934978077823
2.17578125,0.3418528398187187,0.2155248920124454
2.1796875,0.32685127804820463,-0.34721485659079737
2.18359375,0.4615968272663533,0.05087860790122065
2.1875,1.0078190061919972,-0.7364813064567997
2.19140625,1.064704642683988,0.4566479872375459
2.1953125,0.10420860345363347,-0.8581386091676826
2.19921875,-0.5576506615514513,0.08051476932784789
2.203125,-1.4769164328622615,0.3937817461789114
2.20703125,-1.0123996787985625,-1.586446834158491
2.2109375,1.2619187099462938,-1.71735953325481
2.21484375,-0.5095825489321444,0.7002483621223525
2.21875,0.6563783618330964,0.5563178884181801
2.22265625,-0.8497080509215749,0.9166345579973075
2.2265625,-0.06101220570031212,-0.37236925150779865
2.23046875,1.9379088176634727,-0.3315572607208754
2.234375,-0.8097960066743402,-1.6327967383702238
2.23828125,1.5680252534569956,-0.39671604266270016
2.2421875,0.290313156633215,-0.8605073025810461
2.24609375,-0.9355224805780455,-1.485422217176919
2.25,-1.7406306581752389,-0.5550283401613476
2.25390625,-1.726951468320325,-0.4873544531133783
2.2578125,-0.1480152898472948,1.4510022268414784
2.26171875,-1.2025653447750335,-0.17139927822361348
2.265625,0.8857249842972172,-1.4053649432964266
2.26953125,-1.0379803986710492,-1.3562909746223384
2.2734375,0.7681173325277977,0.5494597758721224
2.27734375,-0.4546337019351674,-0.9656978955908859
2.28125,1.062859314465717,1.1002133509944927
2.28515625,0.5948705860761613,0.8306129821074387
2.2890625,0.6734205311486878,0.3043452798075829
2.29296875,-0.38284091499745954,0.9330223732310092
2.296875,-1.4685989675093845,-1.6399703906130827
2.30078125,1.93540611270517,-1.0059603253232143
2.3046875,1.5310180478099977,-1.595730491829045
2.30859375,-1.1571971383756576,-1.8902597684435214
2.3125,0.969046435584666,1.3767672259566959
2.31640625,1.4098806263016275,-1.276568819682385
2.3203125,0.26769124161241953,1.4618516826385282
2.32421875,0.8995144090961074,-1.6913886484517064
2.328125,0.5480542373418164,0.4463914205191561
2.33203125,0.12459838273535598,1.4178450245636767
2.3359375,0.3952093088752976,-0.08571149940942674
2.33984375,-0.9793743322799942,-1.272971229593587
2.34375,-0.8241621715464859,0.5439466785518875
2.34765625,2.2772476436442766,-0.2247619971704945
2.3515625,0.27152474645834435,-0.5534586317054035
2.35546875,1.2525592187020558,1.2179947494818522
2.359375,-1.021499155942153,-0.4573588360036367
2.36328125,-0.003340482267021991,-0.694623412242291
2.3671875,1.5343766738575833,1.483573973257565
2.37109375,-1.271743315616899,0.8318249176179873
2.375,-0.48372011989808,0.38519577576727243
2.37890625,-0.10428289432633123,0.5718877170650906
2.3828125,0.6939149586020303,0.4199542635539697
2.38671875,0.6572313813753302,1.3600066345901596
2.390625,2.054585663319134,0.0300795723191342
2.39453125,-0.6732753855267427,-0.14314972987619928
2.3984375,0.04848211400959395,-1.5257500840061893
2.40234375,-0.19317958116973208,0.20237336040589
2.40625,0.8481207937563541,-0.9435871985102144
2.41015625,-0.35260045980028765,1.7531633765410768
2.4140625,-1.651274494634635,1.0705941697467027
2.41796875,1.7107597089872162,-0.744816075734516
2.421875,1.116608834671693,1.2949113114630504
2.42578125,-0.5713515449738431,-1.0179440323680948
2.4296875,0.8762863691938027,-1.3192593297638777
2.43359375,-0.3386534481447197,1.1663303132246399
2.4375,-1.8040601486848895,0.2416470809048577
2.44140625,-0.9615389275890884,1.107574164471908
2.4453125,-0.22900787148813828,0.41127359133866
2.44921875,1.3776383967951102,-0.1965538701534075
2.453125,0.9100868948421234,1.0477951362059978
2.45703125,1.0631199383115932,-0.7184314805280435
2.4609375,1.2431042244657287,1.307475387437865
2.46484375,0.5513884396090647,-0.9970611215981723
2.46875,0.26869800071932043,0.7785015063167168
2.47265625,-0.5350537014591213,0.4189049704688792
2.4765625,0.371210248861306,1.0858156001223973
2.48046875,-1.4596433571892047,-0.2714452776840713
2.484375,-0.6285571236249303,-1.329009749337661
2.48828125,0.07386375356074232,1.437061107423671
2.4921875,1.1462176741458967,-1.2689630257308369
2.49609375,0.6214393850215756,-0.02078323866333692
2.5,0.7406872366837199,-0.6343994983957373
2.50390625,0.1445106146240566,1.3683210203948424
2.5078125,1.4951130619320299,0.9352602284976848
2.51171875,-0.0011358669209697095,0.8720160400810709
2.515625,-1.5358227433088096,0.06735950823026281
2.51953125,-0.0016200299996240528,-0.7507587862885019
2.5234375,1.6259263827233086,0.7853088983206202
2.52734375,0.4615855523749494,1.6570738387365558
2.53125,-0.3530486622555369,0.014873171405911366
2.53515625,-0.4078459290006872,-0.5944236267817902
2.5390625,-0.7477867498964861,0.4751307230699375
2.54296875,-0.8710197797013491,0.2679508354299147
2.546875,0.2257520958942827,-0.6217330333571448
2.55078125,0.5483918686665922,-0.22776686086487843
2.5546875,0.09175137897153755,-0.2022782492163491
2.55859375,-1.1464120641248023,0.9813644723410394
2.5625,-2.9694670908013876,-0.798710529838412
2.56640625,1.4516337960948498,-0.30769026295882457
2.5703125,-0.293189005669161,0.2607080517845157
2.57421875,-2.487405789284105,0.27208555574464904
2.578125,0.37670703172661274,-1.1570966525705546
2.58203125,0.9351380757950892,-0.14900800945757706
2.5859375,-0.6170139200471544,-0.7067086777554974
2.58984375,-1.9287827837830107,-0.24085621285671652
2.59375,-0.7407092394921756,-0.9281396750745842
2.59765625,-1.9912519129233228,0.8837770086962579
2.6015625,0.6000068805057107,1.5845775742879114
2.60546875,0.10925387161895866,-0.29233200318132313
2.609375,-0.712548701772497,0.5532837902552278
2.61328125,0.49424746960640503,-0.39289331045214304
2.6171875,0.19862658671170108,0.9254545278922597
2.62109375,1.979126230799394,-0.23583116177642194
2.625,1.980552779677645,0.6196602639998793
2.62890625,0.5115640218731573,-0.14447714376294143
2.6328125,-0.9636885249773506,-0.9702965179574501
2.63671875,-1.6262823824648966,0.7484576244454568
2.640625,0.8259173956865178,0.7597974161517492
2.64453125,0.6972557949197837,0.044422058326185516
2.6484375,-1.0671745931349985,-0.8485247818845503
2.65234375,-0.7093974202293752,1.5838166931032855
2.65625,-0.02464041037659849,-1.1005061394644928
2.66015625,-0.13578839055256747,-1.1514994631598734
2.6640625,1.8994974921688845,-0.13996907040268058
2.66796875,-0.6683281358432607,-0.22049016288206932
2.671875,-0.27580719983290203,-0.5355798307620848
2.67578125,-0.1879320524434929,-1.6891339082525292
2.6796875,-1.4253328171497874,-0.9511501268104606
2.68359375,-0.3839757021317452,1.3960070689500874
2.6875,0.17866613575599308,0.4188208356936164
2.69140625,-0.3479834981552773,-0.4028131929189409
2.6953125,1.673239735863567,-0.5082769344748622
2.69921875,-0.6365863090333427,-0.3960051758218196
2.703125,-0.7086233539281614,0.9440780650805588
2.70703125,0.15180034071333745,0.19787641503261164
2.7109375,-0.21345060288211884,-1.2042475898737817
2.71484375,1.497237223570218,2.128620007519507
2.71875,-0.4417629533213975,-0.679536884974153
2.72265625,-0.5616285145443674,-1.2250912568595587
2.7265625,0.8195775469715251,-0.9367119873202667
2.73046875,-1.312449937749279,0.4877109783342954
2.734375,1.2575821905440145,-0.07936891194838254
2.73828125,-1.1680226864682535,0.052515354005661485
2.7421875,-0.5919595150520885,-0.2425468011404191
2.74609375,-0.8450481049867667,-0.2964731605700838
2.75,0.7302273622204642,1.0659754444877794
2.75390625,1.2118022672544853,0.5837733389701963
2.7578125,0.31472547764996994,-0.5051189832289776
2.76171875,1.2452906112087365,-0.6029694751195631
2.765625,1.1041548377771269,0.03972688018136516
2.76953125,-0.46513520203198094,1.2943962094256916
2.7734375,0.19788263095528846,-0.7906291612758305
2.77734375,0.6474270716884525,1.3978155333420494
2.78125,-1.0009586360793405,1.1869872540113884
2.78515625,1.3338632101129035,2.0559614791208163
2.7890625,-0.5229101468901072,-0.02734265829633887
2.79296875,0.8218698522774852,1.3644322004939886
2.796875,0.7585833859702984,-0.978209261856993
2.80078125,0.3049224351913441,0.12176801199043319
2.8046875,0.5490697198358802,0.9943200343715034
2.80859375,0.017136305059883925,-0.3508683666899078
2.8125,0.9835433188283248,-0.7631903292680494
2.81640625,1.3708166373504698,-1.512971277384177
2.8203125,-0.1675737054030614,0.4719897962968938
2.82421875,0.06330195053722348,0.1955187996029337
2.828125,-1.2502481734154163,-0.2541587121969561
2.83203125,0.3937690516083388,1.7034923393075092
2.8359375,0.779568587296323,1.3183259941854397
2.83984375,0.5025638611248955,-0.3484601189186302
2.84375,1.5918018070585964,0.24817269944541487
2.84765625,0.3399026717648793,0.32745304032870887
2.8515625,-1.2010376452955303,0.5599263364706414
2.85546875,1.0193608401190821,-1.605137818499731
2.859375,1.3539823864459009,-0.45734096578886996
2.86328125,-0.2675893995411287,0.01072096210126919
2.8671875,-0.07643617894940777,-1.9449025584256734
2.87109375,1.4567029611972353,1.1618610295244765
2.875,0.7042068506616118,-0.6213092465300472
2.87890625,-0.7019814421397752,-1.326991899951
2.8828125,0.8414423802230844,-0.4531929602266529
2.88671875,-0.5928244816690598,1.6221505693938758
2.890625,-0.7198927577977171,0.676670095335662
2.89453125,-1.1566565270699605,0.4290349257050247
2.8984375,-1.2293208192526808,0.4757619245416384
2.90234375,0.6998526111194965,-0.3180819087298742
2.90625,0.22501823685383737,-0.5823112755657166
2.91015625,-1.8920710135158965,-0.02357555413298244
2.9140625,0.22867884608836342,-0.22957921594300906
2.91796875,0.22596379015195,-0.13962553529866456
2.921875,-1.370602126192123,1.0295091510511483
2.92578125,-0.6124720906861476,0.7009926591247648
2.9296875,0.1277778234824281,-0.3373957649824621
2.93359375,-2.4942820968940027,-1.851525459657304
2.9375,-0.3348341305854804,-1.7622832979297345
2.94140625,-0.47322627039081294,0.7582601466734151
2.9453125,0.36050005359032955,0.30938991596136056
2.94921875,1.3986415136467827,-1.1942215805219467
2.953125,0.36180066879504824,0.9484040657754622
2.95703125,1.0408708468912253,0.27628541053620176
2.9609375,1.915459114548316,-2.1464248956174323
2.96484375,0.4418038352377345,-0.856385113229513
2.96875,0.6021215381666066,0.4049244384996788
2.97265625,0.3866541278669947,0.9806018559579021
2.9765625,0.7750501538092424,0.3337158476788641
2.98046875,-3.3116283168384135,-0.9617436545716892
2.984375,-1.750964158880628,0.7210573268265866
2.98828125,0.3622210119703916,1.0071677830317562
2.9921875,-0.2056930029316524,0.24160995796150408
2.99609375,-0.5831441548690759,-0.1601837762570211
3.0,-0.6290985345470153,-2.5589766274612358
3.00390625,1.0706263578232507,-0.3939317716956781
3.0078125,-0.7080711540092121,-1.085897305276825
3.01171875,-0.9221484264231565,1.226535102087025
3.015625,0.9934407115809545,-1.159688423073956
3.01953125,1.4574709467610307,-1.1151546251465174
3.0234375,-0.3578194494321792,-1.85008240727812
3.02734375,0.11886543854242866,-0.3936417256419783
3.03125,-0.046258882126844404,1.8587878482835303
3.03515625,-0.685882939832562,0.31802363538193973
3.0390625,-0.9203514537618528,0.1629215910315656
3.04296875,2.116958468254961,0.8030294538333473
3.046875,-1.8472589817022345,0.3917560306910058
3.05078125,0.8088379210820767,1.0738257796666644
3.0546875,0.21358962812685453,-1.469247436130019
3.05859375,0.5154762934115255,0.4727502620824815
3.0625,-0.3869159196713408,0.6560879511551206
3.06640625,-2.0664172453741414,-0.6580734100132045
3.0703125,0.2489210522253855,0.4672625443785739
3.07421875,-0.14980548600145205,0.44613690051247124
3.078125,0.26533890507921476,0.8233068096467456
3.08203125,0.23629840853264328,0.2623841376129418
3.0859375,-0.8972822276887259,-0.4235218126227911
3.08984375,-1.7929324955569168,0.34475922510404944
3.09375,0.21586471053588402,1.0162439637278475
3.09765625,2.040852512111838,0.6418020797030585
3.1015625,-0.02594636891059557,-0.6871519161114857
3.10546875,0.9607049201784563,-1.4680155536474278
3.109375,2.6072089251172668,-1.2426232465619114
3.11328125,-0.6255595007301796,-2.0242903215292465
3.1171875,-1.367279358807635,1.4544244575984844
3.12109375,-2.3018678737787086,0.39730438450785466
3.125,-1.6833074141611086,0.44719881256707317
3.12890625,-1.1502157977456513,-0.1425760942805102
3.1328125,0.5032643639680017,0.44712940397296885
3.13671875,0.9945165096701661,-0.45439528913022476
3.140625,0.7392398442363768,-0.7067026266223357
3.14453125,0.5095898305466006,0.06635667244666879
3.1484375,0.2838754869767206,0.9273617601095291
3.15234375,0.0760725033245136,0.03491234604597905
3.15625,0.617154233534738,0.5944800489891385
3.16015625,-0.5483513109450893,0.5222258005809833
3.1640625,0.06353053943083059,-0.07115277276869383
3.16796875,-0.18250169750234876,-0.3844956751819643
3.171875,0.17725390458869644,0.26580212374036744
3.17578125,-0.2736076195781469,-1.1529512273381448
3.1796875,-0.6251219067513568,1.252993225479651
3.18359375,0.6276026605047953,0.373431200537781
3.1875,0.8215520831904054,-0.13042142633560388
3.19140625,-0.03851675476148062,-0.35156700163306154
3.1953125,0.3305755345686191,-1.0838361446976228
3.19921875,-1.3215365050654515,-0.5522061453233414
3.203125,-1.3478464264308685,0.4191351848176151
3.20703125,-1.170708673374949,-0.41595619708258824
3.2109375,0.41997459279207067,-1.5514640642222313
3.21484375,-0.03773426322695212,0.9830989680589486
3.21875,0.7927781941901281,-0.21277368242644215
3.22265625,0.6009331993195866,-1.2923850426563814
3.2265625,-2.159806720259137,0.9383361149478109
3.23046875,0.6299724708293214,0.3662880523871811
3.234375,0.5214804265409383,-0.5393557537836233
3.23828125,-0.19387858260555746,0.1061774941906922
3.2421875,-0.26424387330803156,0.7217495174577415
3.24609375,-0.02674919740025195,1.8523955177002749
3.25,-0.017873711194711206,-0.5477806580617243
3.25390625,-0.6199311456571703,-0.2611582897167791
3.2578125,-1.9544384275132642,0.6533112366160343
3.26171875,0.7682269401037436,0.2511449631477964
3.265625,0.05348963780286611,0.310779017718726
3.26953125,1.3019387351219152,-1.383183064480669
3.2734375,-0.37683970354021795,-0.8380831151331283
3.27734375,-0.6693040564470423,0.01157350459017317
3.28125,0.009822419422151916,-1.9087770805059305
3.28515625,-0.5984018432405346,-0.6098153744157722
3.2890625,-0.9002335956655074,0.2564558855620263
3.29296875,-0.47918211160999674,-0.826509828606496
3.296875,-0.20620115278038376,-1.259618188467156
3.30078125,0.8644366829823821,-1.1517483660945023
3.3046875,-1.2284367924037072,1.6430669964127134
3.30859375,-1.264551821252628,0.3260425472933782
3.3125,-1.2058081998820698,-0.24132569241909158
3.31640625,0.7902770074794218,0.502570478307755
3.3203125,0.8437751071911042,1.4251425783335323
3.32421875,0.6659530021814399,-2.228345305008199
3.328125,0.3695279567619014,1.414081782521317
3.33203125,0.4142001420592163,1.5762840532529752
3.3359375,0.360107227025726,-1.1191359662342273
3.33984375,0.3528881285109967,-0.8330236219518589
3.34375,-0.8789108829601006,-0.283208140976672
3.34765625,0.2870698809608659,-1.3661641222400656
3.3515625,0.5009485352198951,0.2475047461366541
3.35546875,-0.8639483691966777,0.4673868112314639
3.359375,0.5297117024983315,-0.2302642507082961
3.36328125,0.33719924762100273,-0.1397094675283696
3.3671875,-1.2998948678002464,-0.4929204595327251
3.37109375,0.4864403812839693,1.6184025392965178
3.375,-0.0897225812208883,0.858982498967661
3.37890625,-1.0241391557421062,-0.6469935441563883
3.3828125,-1.520115677813381,0.8706185479908152
3.38671875,0.6252135796350543,-1.2655244926425055
3.390625,0.3242576720067288,-0.2747651852767274
3.39453125,0.7315266153233956,0.8449505720993744
3.3984375,-0.8865946860411953,-0.20255244757755242
3.40234375,0.21520916722012567,0.5458507158246257
3.40625,-0.3129801098788807,0.7627584347766242
3.41015625,1.9391111131859227,0.9270443899517204
3.4140625,0.8881099763380426,1.0347307389625315
3.41796875,-0.617494378435836,0.7025402808691064
3.421875,1.138353562311481,-0.8165986020867335
3.42578125,-0.6187277800717851,1.2116849173607236
3.4296875,-0.4405750604231096,-1.1291006958525138
3.43359375,0.2553360982115874,-1.4847806314143541
3.4375,-0.05213764597935659,-0.102908476054556
3.44140625,0.39789883598828063,3.0015174272907386
3.4453125,1.5136781928667278,-0.09950568042780943
3.44921875,1.2413005407699589,1.2330219471844757
3.453125,1.0343595881210754,0.9942287957626552
3.45703125,0.2920990981418304,-0.317061813021488
3.4609375,-1.3767491353291146,-0.08994024656362601
3.46484375,-0.917226944273149,-0.12069535130327586
3.46875,-0.5208239531034864,-0.537423025071448
3.47265625,-0.8721718990314808,1.0322074802545116
3.4765625,0.45509116744560685,-2.2065275871288996
3.48046875,-0.8721029364226385,0.343558909454273
3.484375,0.7038260750068462,1.3151742490347162
3.48828125,0.5398202154811548,-0.6018135632141887
3.4921875,-0.41033129184726674,0.4966404344207614
3.49609375,0.12547276783079772,-0.6215904189852051
3.5,-1.2325666200619605,-0.15001438056809452
3.50390625,-0.501410117757476,2.6217836232432767
3.5078125,1.2975695407271934,0.06383658416249934
3.51171875,-0.1492706673023511,-0.7821921396597497
3.515625,1.0419298781963386,0.5450137955420671
3.51953125,0.5010764831653917,-1.843541359432452
3.5234375,0.8757136912582871,0.4350983840685888
3.52734375,-0.08241195235616897,0.4146909350910892
3.53125,-0.13352781910817205,-0.15300704418302558
3.53515625,0.8849992001171517,0.33576254275582235
3.5390625,-0.536971535446882,0.8533018788665444
3.54296875,1.8503536329831707,-0.14378646692949723
3.546875,0.471673355551895,0.07121081822033673
3.55078125,-0.08052615420997601,0.3655068484670004
3.5546875,-0.30347025822574825,0.15180268674406586
3.55859375,0.14479029523695014,1.3486989427595224
3.5625,0.6660705404162739,-1.173192358209709
3.56640625,-0.593441245027609,1.0259898839744326
3.5703125,0.4023795919542668,-0.20066378618468622
3.57421875,0.664396557670204,-2.941110196839452
3.578125,0.05302258845288936,-1.2685409126079166
3.58203125,0.04143516271621685,0.9073788089286607
3.5859375,-0.7272341153741599,-0.3733537549817712
3.58984375,1.3817356545670079,0.7658869536849775
3.59375,0.3777255111492377,0.5883488472550975
3.59765625,0.46043006703580236,0.6435307734349355
3.6015625,2.4941522916791175,2.060269823738621
3.60546875,-0.9141831726058635,1.5729020777679872
3.609375,2.385729122838255,2.3081473709502895
3.61328125,0.43064885143427045,1.25576897068299
3.6171875,-0.0757701970805931,0.06748245875426129
3.62109375,0.3051994073647832,-0.6419178958558962
3.625,-0.2242041393892532,0.49405749804069404
3.62890625,-0.11098471021053409,0.04045433487170054
3.6328125,-0.5122183714748411,0.00369091175313579
3.63671875,-1.6950559865059347,0.17512069681318523
3.640625,1.7703204249509947,-0.22678882347018223
3.64453125,-1.5058918093944305,-0.405775794738271
3.6484375,-1.784915104017687,0.6021477604794395
3.65234375,0.38613610676981,-1.0879829094546785
3.65625,1.1154638127998155,-1.13228140137138
3.66015625,-0.16596436080379343,0.64166030766479
3.6640625,-0.19373738093182014,1.1253173555531615
3.66796875,-1.1111880550318671,1.1523556703100781
3.671875,-1.4911808475241457,0.008817185298651702
3.67578125,0.6137624043197896,0.4554798084786767
3.6796875,-2.220146623946517,-0.7957897893708715
3.68359375,0.5086386740364283,-1.2653323955123603
3.6875,0.8334297323555144,-0.7657351465191472
3.69140625,0.8958599693408812,-0.37116572248191054
3.6953125,-0.6482308892560315,1.9842409537920138
3.69921875,-0.27951141976619254,0.7557874141125035
3.703125,0.2998032204173127,1.4182911476255164
3.70703125,-0.4707764237461156,-0.29080207184710277
3.7109375,0.284787160075065,-0.7055407681175099
3.71484375,-0.4541772283928299,1.4110370748058725
3.71875,1.7730452636519962,-0.5644053644483953
3.72265625,0.5776604615340952,0.14214979065097477
3.7265625,-0.2580496439324224,0.5738109527200675
3.73046875,0.27168537002000925,0.47909268389441423
3.734375,0.7728255793937243,1.7674267806516086
3.73828125,0.7684070565123944,-0.8691483049650476
3.7421875,0.8492945630245459,1.6249126367839835
3.74609375,-0.5093081984879593,1.0767185538880195
3.75,0.9713157261492639,1.9375446077597036
3.75390625,1.0586492969617405,-0.21262958002286264
3.7578125,1.9093805143802824,0.937813107141866
3.76171875,0.16601727503982155,0.3575107929674357
3.765625,0.37884663920143175,0.20364180999903056
3.76953125,0.5219545234674148,-1.2414112121421352
3.7734375,1.8825089376246138,-0.5096880375741585
3.77734375,1.4928195508613622,-0.14866078779848424
3.78125,-0.49147739948671965,0.5544982852391123
3.78515625,1.9299641226635573,-0.1699887970395104
3.7890625,-0.671836708252058,0.4178320590521498
3.79296875,-0.618127042582083,0.0674140795472739
3.796875,-1.1517624521104992,-0.7592179162644069
3.80078125,-0.6346562460463981,0.5333553019712827
3.8046875,-0.4160639028784314,0.5582679546426274
3.80859375,0.1410403387698522,0.8726835339909211
3.8125,0.12745707380113186,-0.514438349712083
3.81640625,1.104025190204776,-0.2855483218594526
3.8203125,-1.0807128850987013,-1.1787517212098149
3.82421875,1.363952791813344,0.05131712334905741
3.828125,-1.1093867869208758,-1.087749004553373
3.83203125,-0.5094057047586655,-0.6027264935657107
3.8359375,0.005434754525001702,1.4155541625915278
3.83984375,0.9950075970285854,-1.2077600365759462
3.84375,-0.3910319402367053,0.2759692825671644
3.84765625,-0.30472811216895146,1.8460848341025482
3.8515625,-2.9370931279485455,-0.08909114622093296
3.85546875,1.0952329264082903,-0.7784661595403172
3.859375,0.8492986481950446,-1.7195882772679694
3.86328125,2.699628081229099,-1.4425294917518292
3.8671875,-1.1346691151238684,0.694407836962603
3.87109375,0.042187436847713845,1.5045481263467808
3.875,-2.3029875253782492,-0.7301885249531204
3.87890625,1.836727228071644,-1.954735516580668
3.8828125,-0.748635288834595,1.2411683620124465
3.88671875,-0.9929665604929719,-0.39651109906776616
3.890625,-0.6477163056394112,-0.9686927111936853
3.89453125,-0.7364341518780818,-0.7447581801229566
3.8984375,0.956674941913588,-0.6279249243681604
3.90234375,3.0569858461323514,0.15041698199181966
3.90625,2.5379202677922708,-0.8676635276035669
3.91015625,-0.6849084248052543,1.1821613731900833
3.9140625,0.29909301835112795,0.1524083246994282
3.91796875,-1.5108310749874898,-0.43894336358083114
3.921875,0.9264779686342453,-1.3889285366068072
3.92578125,-0.05886156740766101,0.9460854811260853
3.9296875,0.44336586641981235,0.9417021139098511
3.93359375,-0.7049510331806189,1.3024369586317759
3.9375,-0.2911646676626835,-0.8090034540847781
3.94140625,0.636033887929042,1.1754442801488907
3.9453125,0.425646625194838,0.6487008739690223
3.94921875,0.05370898049039452,0.6497643142631548
3.953125,-0.7520143336304641,0.9986018377833439
3.95703125,2.2359209040502512,0.13875737430801863
3.9609375,0.13174720169537757,-0.10747100135089645
3.96484375,0.5357571278372418,0.6284543647490127
3.96875,-0.19644347085249506,0.6628129383164255
3.97265625,0.45957566329873767,0.42198999742833376
3.9765625,0.009030204408830542,0.6683803367588408
3.98046875,-0.6631871759901647,-0.2511317072801096
3.984375,-0.6366444657676334,-0.3166009664145792
3.98828125,0.7580352778796001,-0.2093558524759658
3.9921875,-1.7762928315617474,1.5829199698285301
3.99609375,-0.2591795123636537,-0.1191933059543573
4.0,-0.2949392748889548,2.0776724306679775
4.00390625,-0.11777315006424685,0.6478474586961077
4.0078125,-1.1527778692823645,0.0018254194965868812
4.01171875,1.0323579033037846,-0.15894783887142588
4.015625,1.6242828083856315,-0.651242337381546
4.01953125,0.1616905612471368,0.34575147867088296
4.0234375,1.0170952371575879,0.09781987938579859
4.02734375,1.5335598826446357,0.550827476387285
4.03125,0.34590732074399555,0.3000383171893818
4.03515625,0.8134780917325153,0.8511950644994785
4.0390625,-0.3559189673492625,1.3670645959393064
4.04296875,2.1315679503780327,-1.843886979571737
4.046875,-1.8060542524987213,-1.3513495259975112
4.05078125,-0.7861349471632638,0.8037366711588794
4.0546875,0.35855596333977385,0.516962481430211
4.05859375,-0.36361197969940146,-0.38313032134767205
4.0625,-0.4592092885283433,0.017720804585386024
4.06640625,-0.9981333466107579,-0.10275457573404806
4.0703125,-0.5167640380909466,-0.6563775834698435
4.07421875,-2.286173819603304,0.13455296786511453
4.078125,0.747220005590317,-0.42302741022702545
4.08203125,0.1448972321744301,0.5785219864563492
4.0859375,0.6574397845739653,0.857677477823577
4.08984375,0.9451149375607609,0.889879254043986
4.09375,-0.849238866700196,0.12077728794773557
4.09765625,0.9871671048078623,-1.8315987552804913
4.1015625,0.5120079842148504,0.4986006646467844
4.10546875,0.12918280665643994,0.17460404647933464
4.109375,0.22841888450271683,-0.13808941439692538
4.11328125,0.9543908504055891,-1.9298115968482061
4.1171875,1.3331535096360545,1.3315340789702474
4.12109375,1.1802051811579968,-0.4329950472318778
4.125,-1.061951634476132,1.3539525692185856
4.12890625,0.02521923420032323,-1.0200715040658734
4.1328125,-1.2022249389172517,-1.6709784434400792
4.13671875,-1.9215823580892089,1.3099131234454584
4.140625,-0.6673227671703432,0.633218114817314
4.14453125,1.7036880828243242,1.2896151293691682
4.1484375,0.9411982708768196,-3.1053363113963472
4.15234375,-0.826181137695947,0.8027148139191759
4.15625,-0.6694676535109941,0.1747161801137195
4.16015625,1.3102458586451748,-2.507582688045274
4.1640625,0.2688411664977285,0.11367047527742914
4.16796875,-0.12865161146209594,-0.71846348559064
4.171875,0.14004774440622075,-0.4650939629590585
4.17578125,-0.7424419688881153,-0.49954771571877143
4.1796875,0.3505994735500643,0.6533706878398416
4.18359375,0.8922159571882092,0.5110428584047618
4.1875,-1.7411743968213147,-1.4845126701811548
4.19140625,-0.3320689736216938,-0.4759942429111509
4.1953125,1.7180911782970292,0.3369640798773452
4.19921875,-0.5094432476720133,-1.3182455510950035
4.203125,1.0801659068222411,1.5304898405535037
4.20703125,-0.5508464859317416,1.3903079205563766
4.2109375,-0.6491179848422214,0.12254726743948546
4.21484375,-0.03143905482284957,-0.7354447616897316
4.21875,1.1194340423401399,-0.6210317343452699
4.22265625,1.1033583130157583,-0.3327304450392683
4.2265625,-0.18206909810593522,2.1749914441830764
4.23046875,-3.2000911233594103,-1.120883902957367
4.234375,0.9407495568278963,1.2919933482528516
4.23828125,-0.9268599505034706,-1.2203736459338201
4.2421875,0.03743644428077256,0.29593526303009515
4.24609375,1.4428819041836696,2.1159004516307607
4.25,-0.03816183120956707,1.9208258869809407
4.25390625,-0.11347454366351764,-0.015648699686656716
4.2578125,0.9422223846530047,0.5535567315794074
4.26171875,0.32961944262970105,-0.1838566995012119
4.265625,-1.064826290238326,-0.9740429917446496
4.26953125,0.182837764588404,0.2983275681916888
4.2734375,-1.2864721409374662,0.7545275953221247
4.27734375,0.38906065338196877,1.2344729298810897
4.28125,0.45325695092308466,1.4361345849635332
4.28515625,-1.0597859492492832,-0.22761136951979513
4.2890625,0.36521329392467267,0.7982992495082382
4.29296875,0.21973248610705381,-1.0840697103978865
4.296875,-1.0318500812778126,-0.44012400061316864
4.30078125,-1.8807778790178724,0.3546523121497165
4.3046875,2.6063342514837933,-2.0228278507259203
4.30859375,-1.4975892742628594,-0.4913410609774007
4.3125,0.38643977538093716,0.6713756077261256
4.31640625,0.41768196228767773,-0.382367390572842
4.3203125,1.2163335593438689,0.24736086270570287
4.32421875,-1.4713108509268507,0.8859107892564899
4.328125,-0.6147161045717722,-0.47568196712151045
4.33203125,-0.8902046696172872,-0.11181817618833073
4.3359375,0.0616770588039742,-0.20991677803931233
4.33984375,-1.0638177073759307,1.9203710126088078
4.34375,0.9427149863643526,-0.7868162855236108
4.34765625,-2.2515652215088573,-0.07149747886460205
4.3515625,-0.35525704928513346,-0.051350159532226
4.35546875,0.7197501552245259,0.9002235030867541
4.359375,0.9528593672110065,-0.6656751660417037
4.36328125,-0.6301023635588603,-1.3239430609354423
4.3671875,0.6787477228510582,0.22200802722009294
4.37109375,-0.5583817504744006,-0.2672758476134872
4.375,-0.19413017528462134,0.5559922957132383
4.37890625,-0.3810054665311649,0.0313654289122661
4.3828125,0.8707039900872547,0.347142511025081
4.38671875,-1.7040179788647156,-1.283087291219884
4.390625,0.3265613284442728,-0.34324352491579946
4.39453125,-0.14706330992076433,0.5923608228571217
4.3984375,-0.06339143948180957,0.4538363762618053
4.40234375,0.058221233903303755,-1.1472399857710844
4.40625,-1.0718490369963254,-0.3360640992376342
4.41015625,0.19812471383443045,-0.14017003182427007
4.4140625,-0.07257014426500266,0.11637572439132816
4.41796875,-1.2494356829865025,0.6025618820655232
4.421875,0.17585708572112432,-1.2927237329409467
4.42578125,-1.167539613117669,0.15954692119216057
4.4296875,-0.7011693545577247,-1.083237395906787
4.43359375,1.069808901372071,1.295487901542284
4.4375,0.5260191593351151,-0.5369231255190079
4.44140625,-1.3841559464076358,1.4569180193359712
4.4453125,-0.7617578845288404,0.5307138072777314
4.44921875,2.117737239062428,-0.2081797214146346
4.453125,-0.18567439638376942,1.160684265944549
4.45703125,-0.5335924836957529,0.3925539188066731
4.4609375,0.8014693671883731,0.7306308509183284
4.46484375,0.572143465210371,0.1711868057983632
4.46875,0.831974017491849,-0.4929982800963249
4.47265625,0.753414756281447,-1.4175941798551797
4.4765625,-0.39910197587842394,-0.879883674318223
4.48046875,1.0336404094555398,0.1957479690702262
4.484375,1.2112492495614267,0.7637551424754404
4.48828125,0.7066282237374424,0.369430479538945
4.4921875,0.3032743621188655,-0.088754737496321
4.49609375,-1.562705175847478,-1.2278448497622991
4.5,-0.3209260431225794,-1.0462464547472174
4.50390625,-0.8988735620044503,-0.006871553663608567
4.5078125,0.3033803825760531,-0.6716345460799175
4.51171875,-0.9847412058666024,0.33800969344371523
4.515625,-0.205772625432496,0.9763063676936922
4.51953125,0.5529928415142695,0.5252960730305029
4.5234375,0.7019245284006281,-1.2050659341520367
4.52734375,0.8074290238014682,-0.18764961743341219
4.53125,-0.603289451060286,1.0332336452548347
4.53515625,-1.1223052561805673,-1.3006426852677482
4.5390625,-0.13837503235732843,0.5556184002529927
4.54296875,-0.2204902686996248,1.2282362931768054
4.546875,2.0125868338632964,0.8551389273431264
4.55078125,0.42389964856112033,-0.7124739731258811
4.5546875,-2.57895566080768,-0.3704796080439638
4.55859375,-1.2075716339838056,-0.6225687647099607
4.5625,-0.34873437771310484,-0.05778649292393427
4.56640625,-0.1740060821156688,2.6473342694970823
4.5703125,-0.10612538441966797,1.0721864325758712
4.57421875,0.09117401893633832,0.4682143287660709
4.578125,-0.33071363907296425,-1.5934962097234027
4.58203125,-0.4649679881228377,0.27540049366719727
4.5859375,0.10997296153515049,-0.18654887744437115
4.58984375,0.9207623206511373,-1.0430214702108342
4.59375,0.7345985974992809,0.6108080729023104
4.59765625,-1.0036730091653976,0.2749381186015793
4.6015625,0.26824340695304827,-0.018547934418751782
4.60546875,0.06096920225848086,1.8380547794581938
4.609375,0.9132405899859142,0.9750631551307462
4.61328125,0.09738617348014642,0.181410101312818
4.6171875,-0.09501368441807173,-1.3664246483762081
4.62109375,-0.5965544398433853,-0.547688837423741
4.625,-1.307806463956699,-1.766870423819613
4.62890625,1.4852390537141333,1.4257567416209005
4.6328125,2.005298521701855,2.2612321427328914
4.63671875,-0.9498723941154286,-0.34421063461909
4.640625,-0.08487105222460528,-0.4865137531176053
4.64453125,-1.0467351054148184,1.3417929814523515
4.6484375,0.7303142975326781,-0.9153440555946124
4.65234375,0.6238632327907294,0.11021410743387704
4.65625,0.2515594718836011,0.3324216512485535
4.66015625,1.2066605316355585,0.7071665366350567
4.6640625,0.6735742453075627,0.9188597243448543
4.66796875,-1.1108001283348738,-0.3201407906759064
4.671875,-1.51604392489789,-0.5569719484807426
4.67578125,0.8266255849469301,0.6801282348036495
4.6796875,0.249902238358117,-0.4576199840154262
4.68359375,0.87961629674936,-1.644456498311226
4.6875,1.408029641625373,0.6277100966336014
4.69140625,0.5029151140522771,2.0551098653615747
4.6953125,-0.8919340288236973,0.15219323801574533
4.69921875,0.5062427835097691,1.1109130770000744
4.703125,0.42363730799267735,0.049663012783428516
4.70703125,-0.2855350627275764,0.8548413673565025
4.7109375,0.2709296354824495,0.9454464914179946
4.71484375,-0.9183465705510084,-0.27439913068325633
4.71875,0.4741629795272886,0.6116741276219448
4.72265625,0.7722527883264264,0.6046194448504049
4.7265625,-0.9049629437431334,-0.7075003703454275
4.73046875,-0.8330872726322153,1.8051925219476133
4.734375,0.5347903653540783,0.7480941777881754
4.73828125,0.8380928622231125,1.2789851242346115
4.7421875,0.5374828446933686,-0.3456182439858353
4.74609375,-0.863262338460778,-0.575307400565096
4.75,-0.11741658881892868,0.4656554054710822
4.75390625,-0.5652781926783459,-1.2981090753585578
4.7578125,1.027674593464953,-0.024373326438967013
4.76171875,-0.832421849859543,0.6958116214286262
4.765625,0.1453838657730889,1.239167905100041
4.76953125,-1.8083278047358227,-1.121039556228347
4.7734375,-0.14346185020331415,-0.6720244449404816
4.77734375,-0.1174087284296671,-2.0580380904206996
4.78125,0.35341929424008023,-0.6675859981248891
4.78515625,-0.7639660020004486,1.1506960893049565
4.7890625,0.32081335839003267,-0.985807899671178
4.79296875,-0.9204618993048679,-0.8322247884539152
4.796875,-0.27246459971768,2.1295278400067343
4.80078125,0.4138281732113184,-1.3822561239141296
4.8046875,-0.16293992729408258,0.3333061945757782
4.80859375,0.702511682497433,0.7814433824901824
4.8125,-0.6849987769823661,0.8407999774215601
4.81640625,-0.7509204087468125,1.121704947449834
4.8203125,-0.8324680833884973,0.19404368673328565
4.82421875,1.3845390357873304,-1.666086818391122
4.828125,-0.2813561694355783,-0.8303432243115464
4.83203125,-1.4071508839288789,-0.858185659188532
4.8359375,-1.8950342126619797,0.2629314464716631
4.83984375,-0.2305608970857304,-0.7635795833792022
4.84375,0.05960732415851972,-1.8956422242480115
4.84765625,1.6598190750921271,0.9845155005820346
4.8515625,-1.189072831777028,0.12947524485632828
4.85546875,-1.1423981688300608,1.1660860367042147
4.859375,0.6289270767509578,0.8000584922092414
4.86328125,-0.6140622038241613,2.6813498882152924
4.8671875,-0.15281834991564422,-0.8112307934216298
4.87109375,0.6246836302316977,-0.8803117676241444
4.875,-0.23151648263489003,-0.02368947878369158
4.87890625,-2.1432655928694575,1.4194727628797439
4.8828125,-1.1244513418432118,-0.17285771228821575
4.88671875,-1.1917385910402138,0.5607479530133125
4.890625,0.6177199370813916,-1.5583252640689378
4.89453125,2.4389915815798937,1.2934974613598378
4.8984375,-0.7431592725763382,-1.3538843190042658
4.90234375,-0.4449328099557007,0.8902905340684074
4.90625,-0.26670627447645684,-0.20110337864904018
4.91015625,0.3193947785812119,-0.0312570330939312
4.9140625,1.5497513601389248,-1.4198141913797804
4.91796875,0.2520973083264059,-0.8287678157708251
4.921875,-0.7004590372394416,-0.5542464909898953
4.92578125,1.0956537328561162,-0.7136374758699224
4.9296875,-0.43562301565350137,-0.8201112969802058
4.93359375,0.34977939428076676,-0.5160721014422969
4.9375,0.6746232915598658,0.9054595197051475
4.94140625,-0.5283814958937687,-0.09107803992674018
4.9453125,-1.6171102037315384,0.09188343119958962
4.94921875,0.1315275594345577,-0.15787563203956168
4.953125,-1.4643157134228353,0.42481177309587415
4.95703125,0.8350218585938547,1.1851229316778713
4.9609375,0.3617826625093069,1.209222656300436
4.96484375,-1.726648169487326,0.565063345969113
4.96875,1.4298635217155422,0.5138353745166098
4.97265625,-0.9794161483159782,-1.1388061424978855
4.9765625,2.509381171389756,-0.6111705678382694
4.98046875,0.11558663604327685,-0.3206248294929125
4.984375,-0.03705215230379596,0.7328834049903543
4.98828125,1.4846570627507474,-0.44032577555926705
4.9921875,2.589140425927503,-2.175488600316776
4.99609375,1.5455556866571303,-0.3951451033544183
5.0,-1.440157142651521,-1.412045582166438
5.00390625,-1.3281849605205769,-1.1974608030515825
5.0078125,-3.437783710336042,0.902060178614963
5.01171875,0.30408068369328917,0.7941041511601762
5.015625,1.1492877995585247,0.01399009155413271
5.01953125,-0.39731775502245115,-0.12272393100174972
5.0234375,0.32439018339576436,-0.7482379756663271
5.02734375,0.5885379185375879,-1.9136277181438444
5.03125,0.7662846965633026,1.3630666731029157
5.03515625,-1.5193504833900822,-0.4553563031273616
5.0390625,0.3624730234759476,1.0610986953474806
5.04296875,0.12357913031358687,-1.5430575927146344
5.046875,0.0221761181538509,-1.0199326762724226
5.05078125,0.998830009681963,2.368841390614314
5.0546875,1.0291864617648518,-1.155626371814302
5.05859375,0.6450736011978556,1.6696003747242818
5.0625,1.6213209428907034,0.4539496865548973
5.06640625,-1.1364321512469628,-0.9615864044598037
5.0703125,-0.04653933135300218,-1.811569893918917
5.07421875,-0.02461593520621702,0.5855698062474013
5.078125,-0.7340989079902512,-0.07747303856246571
5.08203125,-1.1613269716625356,0.1926053344347973
5.0859375,-1.1279697037120733,-1.0346191838061112
5.08984375,-1.1671153985755767,-2.973546482674535
5.09375,-1.9787351375193205,0.04725801039925261
5.09765625,-2.5794216480388132,1.1412115100483755
5.1015625,1.0656447387745467,-0.03997411233021957
5.10546875,0.28597020987743815,-0.7698691790957303
5.109375,0.47146007012783797,-1.697528455513081
5.11328125,-0.2358263663293759,2.8256946212982923
5.1171875,-0.7594805493553296,-0.329941118736481
5.12109375,0.24547344294625698,-0.017152871048098383
5.125,-2.1971961738792443,0.887390254065127
5.12890625,-0.11490775102518233,0.13948841319303482
5.1328125,1.091013131555469,0.13095825515567727
5.13671875,0.4796412558804462,0.8345639223555135
5.140625,0.22170217895726946,0.30036311661043563
5.14453125,1.094636280677059,-0.019585569621235
5.1484375,-2.3118716127357914,0.7391630284281024
5.15234375,0.23054035957636487,-1.695411911992937
5.15625,-0.8274826887521525,0.579082199814149
5.16015625,0.4972485445948695,-1.6237340690681534
5.1640625,-1.9968599438368486,0.005873981094152124
5.16796875,0.43017131157111926,-0.3330765494290021
5.171875,-0.7026553189597151,1.1229377839108698
5.17578125,-0.27580082155164864,0.9533125900764952
5.1796875,1.8935612750050181,1.1474306115389596
5.18359375,0.34873293892779245,-2.1105892222476013
5.1875,-2.978461468084874,-0.3302611225953683
5.19140625,-0.29299192369670707,-0.3171452270268245
5.1953125,1.1582599138429805,0.6314772703721998
5.19921875,1.1255997201326435,-2.4033444158283985
5.203125,1.610553647363443,-0.9047580997022439
5.20703125,0.3012247859875698,-0.9434280533761583
5.2109375,0.6949618048088056,2.098313500289312
5.21484375,-1.4933243150853681,0.13860657565423035
5.21875,1.6377849527512034,-1.5013545710729512
5.22265625,-2.230760091245201,-0.5435822213580094
5.2265625,-1.5690017146886541,0.2936982944897361
5.23046875,-1.1134866654471791,-0.7999482815926507
5.234375,0.06953814306746756,0.16600110438782306
5.23828125,-0.8835439041872573,0.09541566942677393
5.2421875,-1.6818951983126247,0.28850898681138065
5.24609375,-0.5697459433806304,-1.8037898485368788
5.25,0.06432877122259244,-0.3264539472662445
5.25390625,0.36343883439224633,0.05173180700172796
5.2578125,1.1711100865176862,-2.4936858569299876
5.26171875,0.9675575938415122,-0.9828453083243505
5.265625,0.20703883102982187,-1.5884382646487463
5.26953125,0.5583369877473349,0.17113858914241312
5.2734375,-0.7293166912619428,-0.9407518328266077
5.27734375,1.2805926600277078,-0.6273300191115657
5.28125,-0.41251220031157215,-0.19688585236343598
5.28515625,0.6530546797184784,-1.5722752579849928
5.2890625,-0.7115567417114638,0.7986573302225374
5.29296875,0.48728084665018884,-0.7361673335772696
5.296875,-0.29566508188283186,0.06386241340040516
5.30078125,0.021574802745031846,-0.053524863126736946
5.3046875,1.5483357380276876,-0.2969734511602124
5.30859375,-0.1323883082346605,-1.6912465457969073
5.3125,0.5966800683003914,-0.7061813079705874
5.31640625,0.039060879769296744,-1.921557397384029
5.3203125,-1.3311363615037457,-0.061618168927233354
5.32421875,0.1447116916729221,-2.0071888838925345
5.328125,0.03654242659437879,1.1435299407364505
5.33203125,-0.04696866126799295,0.4400366913588526
5.3359375,-0.10542016055295425,-1.2995298100798853
5.33984375,0.09284575815277098,-2.324284040631957
5.34375,-2.4042126844824314,1.7824694724698835
5.34765625,-1.0745443460656525,-1.1039571411749685
5.3515625,-0.10872007918262445,-0.01371646395191535
5.35546875,0.6347993698526313,-1.8052478870919573
5.359375,0.5061977455571165,0.06383458496913015
5.36328125,-0.037065987309275746,0.20496173295547918
5.3671875,-0.8476843669520494,-0.8766706817405477
5.37109375,1.3844547274712464,-0.19462716592602541
5.375,-0.5079528863129851,0.022165493743309294
5.37890625,-0.5334315963641387,0.43089451328966455
5.3828125,1.376875071021777,0.2553194756750304
5.38671875,-1.6149657837492133,-0.6231415783617333
5.390625,-0.09935639130684697,-1.768985899397388
5.39453125,1.1938279461560692,-1.41093266832979
5.3984375,-0.5605433485680559,-0.8291653874212123
5.40234375,-0.1422514838751317,0.0640669994028046
5.40625,0.1333618637045249,-1.0213816493922174
5.41015625,-1.3750299093136136,0.9740934822351833
5.4140625,-0.009060727756063224,-0.8603724621213558
5.41796875,0.06664253116494298,0.5829449557705115
5.421875,1.7901208331232596,0.36632459650609167
5.42578125,0.15130618008422975,-0.022918761477778823
5.4296875,0.6218831224441719,-0.8634166411384971
5.43359375,-0.9253704856011425,-0.6062930785570756
5.4375,-0.27539928882595577,1.6073067961244971
5.44140625,-0.5316021567120685,1.109198965967212
5.4453125,-0.7043985015987209,0.15345044677298997
5.44921875,1.2397167245513308,1.4416648138901769
5.453125,-0.4457220203425897,0.018944359831274998
5.45703125,-1.4172507363280096,1.0862927809124525
5.4609375,-0.00018491797653627588,1.0818030966941359
5.46484375,-1.4640740307560587,-0.2601790299272845
5.46875,-0.5046868604716617,0.448348723469306
5.47265625,0.8769845705748543,0.0962930070622354
5.4765625,-1.0274371010431578,0.8476474921029152
5.48046875,-0.04460953007550836,0.5669255422545751
5.484375,-0.021648196979288853,-2.2856758671955664
5.48828125,-0.716598516492347,0.2855037889553731
5.4921875,0.7614586454362978,0.4912292180283432
5.49609375,-0.4636171638083267,0.4152527277455536
5.5,-1.3351302750532048,0.978199875832732
5.50390625,-1.0911194699099678,-0.588180647932869
5.5078125,-0.13090514439899809,-1.369071393697022
5.51171875,-0.00512798977293225,0.7096922876274615
5.515625,1.6453409322044552,-0.7860595076989074
5.51953125,1.4196353428921928,-0.4651149900863856
5.5234375,-1.505009710786366,-1.423632839678469
5.52734375,-0.016241397976921368,1.661349360158334
5.53125,-0.2597329814438853,-0.514616105425522
5.53515625,-2.4748499806577717,-0.37049666804802067
5.5390625,-1.1053678094103858,1.1425476983711313
5.54296875,-0.11401455103803124,0.1906848362249254
5.546875,-0.724933748743063,0.5678031317494936
5.55078125,0.3645625112224545,-0.6742474012384023
5.5546875,-0.38480618646563075,0.891230284400288
5.55859375,1.0471549770658608,1.135578581498135
5.5625,-0.28400122019453067,0.016922144873427903
5.56640625,0.18020695899594608,1.1279401715602837
5.5703125,0.6589414183343842,0.4942393184945315
5.57421875,-0.057428359098076205,0.16661934126056616
5.578125,1.7443344342378047,0.4614449415801455
5.58203125,-1.3856383737820372,2.021674803304143
5.5859375,-0.6503888115740969,-1.4462042807684592
5.58984375,-1.208071182069389,1.8410243526069616
5.59375,1.8790026604235472,1.8549067737734772
5.59765625,-1.3116399832608765,0.2876502740206666
5.6015625,1.1366604882947966,-0.18389950104757
5.60546875,-0.3863538122895608,0.7205164240874057
5.609375,-0.8745928091634638,3.191581478168188
5.61328125,-1.7863905682662042,0.9099917815050242
5.6171875,-0.3948419107082941,0.32273117817665326
5.62109375,0.2141395147272243,1.876475743500119
5.625,-0.10954338010583786,-0.008874858699425177
5.62890625,0.598223594025084,0.5280920875565239
5.6328125,-0.32493042411476675,-1.5924311173026595
5.63671875,1.4011656527008085,-0.8531706372537455
5.640625,1.2454350439489645,-0.6902251224347581
5.64453125,0.3692107403065819,2.3360879811030326
5.6484375,-1.6217760299636066,0.7775203768382095
5.65234375,-0.46513173654278894,-0.30270413005026314
5.65625,-0.10813764752620593,0.4923862535468028
5.66015625,-1.9938132713277144,-0.7309115178072056
5.6640625,1.1701421173102302,-0.4845241928232614
5.66796875,1.0349569335610256,-0.3822095101298829
5.671875,-0.5620391045834046,1.538056075272622
5.67578125,-1.104742127076839,-2.35441544643255
5.6796875,-1.0740225957327267,1.1884560853038666
5.68359375,1.3494631904191756,0.4200922094678755
5.6875,-1.0642198083632317,0.020655071469925235
5.69140625,2.66625884683463,0.4855482867350211
5.6953125,-0.5874223289950471,-1.5306718991037467
5.69921875,-1.8680680657729065,1.248200496277975
5.703125,0.8354299683871517,0.4955767384120804
5.70703125,-0.2441169466889027,-1.0195901856207623
5.7109375,-0.11070227883597984,-1.3794662924023267
5.71484375,-1.5463050082734642,-0.2301944516947626
5.71875,0.11140376045740126,-1.2950190361885814
5.72265625,-0.09668062416128,0.6821001116641648
5.7265625,0.10532866923928187,-0.8755469803988456
5.73046875,0.2347962826792305,0.16068731772804906
5.734375,0.018682654212599608,1.1158532864925101
5.73828125,0.1014637319314799,0.5494508380744468
5.7421875,1.2539699767374406,-1.4344048851888924
5.74609375,-1.3163473249353037,0.8412167443747973
5.75,1.3066446519476151,0.1370515169599539
5.75390625,-0.7845997197274754,-1.9121894966372142
5.7578125,0.42319400707442595,1.0563215228294949
5.76171875,1.2104289339936278,-0.24060563370112711
5.765625,0.8361588894337848,0.31822264519319504
5.76953125,-1.1471199809281531,0.4504158993507187
5.7734375,-0.3966433610412436,-0.8937067476903834
5.77734375,-1.3183056682829069,-0.7142168805708619
5.78125,-0.7330798248838303,-0.5767888498339295
5.78515625,-0.3607394577114574,-1.941707803185905
5.7890625,-1.2834354839725373,-0.43288064197921594
5.79296875,-0.11008470242645527,1.0806255341401998
5.796875,0.36688768001479133,-0.4892679473344663
5.80078125,0.5446797795927756,0.5894727948080688
5.8046875,0.5438975554025615,-1.129954435650824
5.80859375,-0.7943555865211082,0.4255910605773838
5.8125,1.0029170550707518,0.44144857193420284
5.81640625,1.2407372514963821,-0.1921730403218972
5.8203125,-0.5810330650650404,-0.033007175507235406
5.82421875,-0.9843143573448541,1.9605845579853511
5.828125,-0.8612164661081936,0.454766239486429
5.83203125,-1.0576459879316338,-0.4858660130701879
5.8359375,1.430117600500006,-1.6999266515468952
5.83984375,0.43199348844365415,0.23011369742561455
5.84375,0.7373272400023654,0.6419556338238059
5.84765625,-0.9456038060608606,-0.6000721036878215
5.8515625,-0.005006497934194043,-2.1128242161167323
5.85546875,1.618585911628433,0.48582254579460976
5.859375,0.6286071739169163,0.4414669408298217
5.86328125,-1.4194560180616094,1.9035093078770293
5.8671875,-0.8468128879359064,0.07247171167854348
5.87109375,-1.153486167624428,1.6447236070672147
5.875,1.1560747701162053,-0.5057995665892301
5.87890625,-1.0479407723419,-0.9191933388681733
5.8828125,-0.88594348613483,0.17245915257584263
5.88671875,0.48016688669298174,-0.6359015265489332
5.890625,-1.5481686118119962,-0.9866548561654481
5.89453125,-0.46584910387402945,0.4805080446685285
5.8984375,-0.27491742733457075,-0.2536032738999496
5.90234375,1.033752907092218,-1.0290031876851164
5.90625,2.045858667429691,2.1153134780363048
5.91015625,-0.31421155801484807,-2.9012450190653736
5.9140625,-1.3648687890078546,1.0257310156880295
5.91796875,-0.928313223909633,0.5223714387852103
5.921875,-0.26043315775191717,1.0228424857207645
5.92578125,-0.4904288293532737,-0.616320475386581
5.9296875,0.3409694268306002,-0.5861281592192463
5.93359375,0.9463822296766177,1.6459227565845411
5.9375,0.514603114815137,1.5697414975849582
5.94140625,1.2137894082168037,0.31570091340047546
5.9453125,-0.4296952015268098,-0.195068950140105
5.94921875,0.0904122431278417,-0.1572831538744098
5.953125,0.6154055024669948,-0.07493216632569422
5.95703125,0.39641992524869707,-0.3248460503358267
5.9609375,0.06470890081221252,-0.5292089062612465
5.96484375,0.7318653431876081,-0.7441421057257203
5.96875,-1.2185657616631642,-0.6617021340658658
5.97265625,-0.011764270183064186,-0.39455842888222387
5.9765625,-0.6100615293451542,0.8989671989456786
5.98046875,-1.0623036883669592,0.42609567436264034
5.984375,-0.07520251831600311,-1.0973295908209526
5.98828125,0.7336888735472018,2.685860327382854
5.9921875,-0.6677694363814711,0.23744754675647078
5.99609375,-1.2057683240151027,-1.2237806591647413
6.0,-0.011524457390171201,-1.0968697135074459
6.00390625,-1.6869170022152882,0.4233611283483759
6.0078125,-0.18487642292854817,0.3871326843022977
6.01171875,-0.6029567415376639,-0.49800863161555875
6.015625,1.7339424683078917,-0.23291809965294755
6.01953125,-1.024577750862452,-1.4475326877852128
6.0234375,-1.0958247261883924,2.313876619223648
6.02734375,0.6084746759046405,-1.433644194040802
6.03125,-1.0587870759827842,-1.5546254595840672
6.03515625,-0.6186527070511094,0.8998846266675108
6.0390625,0.2841753405673192,1.6124112290252186
6.04296875,-0.2243716718529219,1.1793429198258374
6.046875,-1.708046634020117,0.6570217567782686
6.05078125,0.32665725003197593,-1.1183795008102158
6.0546875,0.02493666795040163,-0.2605971856325513
6.05859375,-0.14790699399705962,-0.9600282768303158
6.0625,0.6487126383780618,0.25192953433870546
6.06640625,-0.1608270451238449,-0.18732758884581963
6.0703125,0.7097387075578863,0.9992044525822972
6.07421875,1.4972966548156526,-1.1206560052548675
6.078125,-1.4911674582116916,1.4410872711119012
6.08203125,-0.5653158606991977,0.4170375024840967
6.0859375,-2.0567227481604515,-0.6002905192260695
6.08984375,-1.4122795704107125,0.9731769762572331
6.09375,-0.9337826382955003,-1.4882072190289009
6.09765625,0.09904390207289869,-0.7287146065533527
6.1015625,1.5417399690625153,-0.21414567462919876
6.10546875,0.16349223665523496,-0.5387161343365476
6.109375,0.9951084168584982,-1.2506768866771116
6.11328125,-0.033500442147335566,0.937757796604699
6.1171875,0.13287294058745353,1.0652783297512225
6.12109375,-0.17903329066538695,-0.16337421898767643
6.125,0.029867169411294282,1.0880071161529905
6.12890625,-0.7180300196476469,-1.757326653979246
6.1328125,-0.1903828086466867,1.3577801232783386
6.13671875,0.8991734946769537,0.12252582690799041
6.140625,-0.3770813008899318,1.0701023583378897
6.14453125,1.3079339329946844,0.27142405957988935
6.1484375,0.4743620860883521,1.4190841453650644
6.15234375,0.9516823027001581,0.9664375693972536
6.15625,1.371803391947879,1.0555022190412402
6.16015625,-0.5535014010414088,1.6173839085277852
6.1640625,1.2449702804935285,-0.6906740630749179
6.16796875,-1.5751843054746462,0.6898346383267369
6.171875,-0.18607074755788683,-1.0071390539772225
6.17578125,2.0345932796095836,-0.3880488532925878
6.1796875,1.554465102260081,-0.5391389265197652
6.18359375,1.057468607454342,0.02204736028931189
6.1875,1.4534346656367525,0.5952964016304794
6.19140625,-0.5003414432679827,-0.25358255775317556
6.1953125,-0.28904669227083285,0.4938560706769818
6.19921875,-0.5427991947484814,-0.927866359316445
6.203125,-0.4933722524058299,-0.20170231770186395
6.20703125,0.24311656342607085,0.10752075476505292
6.2109375,-0.5606164192777042,0.8774694884995965
6.21484375,0.3579386796919666,1.6269139004394562
6.21875,-1.3564402619036342,-0.15266650810712792
6.22265625,0.9136379861334362,-0.3751523536481023
6.2265625,1.970037860651107,0.8911162997659863
6.23046875,1.312645709351727,-0.64712141044965
6.234375,0.18217381223449192,2.2878943619630405
6.23828125,-0.06990870443660911,-0.6491090026433616
6.2421875,-0.23400598000595954,-0.6750877478348721
6.24609375,-0.4150882867045306,-0.8014871854439951
6.25,0.4188261855463277,-0.017054529184151544
6.25390625,-0.28402205029668104,0.49893149059311304
6.2578125,0.22492284746498795,-1.0966021539017525
6.26171875,0.2500414261296435,-0.08412819557655675
6.265625,-0.562088808775452,-1.1738048321112666
6.26953125,-1.081934884639656,0.6630235325925337
6.2734375,0.8966260085319472,-0.3411812615991376
6.27734375,-0.1440256522587167,0.16678869270423688
6.28125,0.2930092881477413,-1.0736542211068687
6.28515625,-0.2839758801123936,-3.011467151048477
6.2890625,-1.1969002525333257,1.5685331721071485
6.29296875,-0.8278643446602884,0.6683529235595679
6.296875,0.33080999672562367,0.6051210322086046
6.30078125,1.5288955070168768,-0.5148926992738623
6.3046875,0.5185191488632005,0.9600626992209829
6.30859375,0.8979242313900393,-1.433247643926001
6.3125,0.7421733218286684,0.5348035090269663
6.31640625,1.0001609060476866,1.4686540274583662
6.3203125,0.7843929682629608,1.6655453485331535
6.32421875,0.2954782884474518,0.40153164693076965
6.328125,2.371604767855713,-1.5074792281000817
6.33203125,0.3726828010539713,0.9891909454120492
6.3359375,0.4705888638118912,0.8282706874279012
6.33984375,0.2820637725485932,-0.5556626156364356
6.34375,-0.6684713651556411,1.253691258334406
6.34765625,0.29414023867058287,0.29895963574392176
6.3515625,-0.20944276100075612,0.9269663293229335
6.35546875,1.1550692017977655,-0.5078043861556044
6.359375,0.003680379871310017,0.4750803156571311
6.36328125,0.9433551800121229,0.3672897255713685
6.3671875,0.41982657218615144,1.0893001688686939
6.37109375,-0.42688911381256917,0.7687076371882805
6.375,1.5709997454308926,-0.18232726924498152
6.37890625,-1.6792263267039975,-1.3335063952668593
6.3828125,0.4894433458382224,1.0873532147693483
6.38671875,-0.014599180902930315,2.825739995788821
6.390625,0.9551116116032871,-0.0245497959216176
6.39453125,1.1407556528998768,-1.275160444630767
6.3984375,-1.6779194447087946,-1.493185868482043
6.40234375,-0.7726852311168999,1.4492098401176279
6.40625,1.0871403750980828,-3.361920179279175
6.41015625,-0.3301234354093861,1.5649127976300137
6.4140625,0.14073987190185808,-0.5689179826871897
6.41796875,0.3286561179461998,-0.9973208460511421
6.421875,-0.4672446982437342,-0.3876270024143969
6.42578125,0.6050024630374315,0.581863220197784
6.4296875,-0.6600186126549902,2.263787971401956
6.43359375,0.5329802763904944,1.3631031190057301
6.4375,-1.1311905398731381,1.8115868548565588
6.44140625,1.0107190852087053,-1.2933782024258123
6.4453125,-1.518613088655052,1.7063305043482428
6.44921875,0.16853268396926044,-0.28228660884482126
6.453125,-0.24841925808521823,-0.6202173592790677
6.45703125,0.5438821814104916,-0.20364000887073544
6.4609375,-0.20316224829918675,1.3264113017470243
6.46484375,1.5035599516629519,-0.7414036860849994
6.46875,-0.246882947864153,0.8222254790229865
6.47265625,1.1335061334695782,-0.7043044646810578
6.4765625,2.003326167733496,-0.7814455475652767
6.48046875,-1.0150347790089118,0.583858138092796
6.484375,-0.10527862233700011,-0.9077374419579964
6.48828125,0.39547116926811376,-0.03449580809332737
6.4921875,0.057123156641422854,0.43100128629935835
6.49609375,-1.0904044323877011,0.08117450734104086
6.5,-0.965197910623497,-0.4817742730329404
6.50390625,3.8077224013714357,-0.9016082752501188
6.5078125,-0.44698710824442783,0.8544990567325244
6.51171875,-0.5297307255197841,-0.1879625496093635
6.515625,0.4687943353561627,-0.487171016798381
6.51953125,1.6683793802355835,-0.050046592449510145
6.5234375,2.940454995792745,-1.2366772559778547
6.52734375,-0.6034352198858174,-0.7835981963092449
6.53125,0.03481616542223176,-1.1922010166366104
6.53515625,0.3421689534362309,1.741896130087058
6.5390625,0.4266289622193791,-1.3204610942609443
6.54296875,-2.435695096257316,1.6499577559498042
6.546875,-0.9148232849044157,-0.3873327082727172
6.55078125,-0.316826757061875,1.3221089521093365
6.5546875,-1.9290258663688047,-0.2795700227431878
6.55859375,-2.518807839292347,-1.9022313967581734
6.5625,-2.128682863580206,0.4577952231210518
6.56640625,-1.7042532974686044,0.8160921510490405
6.5703125,-1.8916871782128775,0.25166995049771124
6.57421875,0.3107525663857481,0.5418711723249672
6.578125,0.17974500218932957,1.150213277834514
6.58203125,-0.5778962555938831,-1.0997603192778158
6.5859375,-1.0551094163750419,-1.3517376954394755
6.58984375,-0.20321997563696323,1.114973037251752
6.59375,-0.520497678732848,1.4820029779127817
6.59765625,0.17819355008533386,-1.2321877606831233
6.6015625,-1.6989116476633843,-1.6347876613108887
6.60546875,0.8011278265154257,0.3614488724720919
6.609375,-1.1614444525701693,-0.045402578526713894
6.61328125,1.5282495818719448,0.29736008715077156
6.6171875,-0.29227013139997493,0.6736176569138033
6.62109375,-0.6822236309331281,-0.9243304823462498
6.625,-1.1274057169819087,-0.9968487171759982
6.62890625,0.016900364662206326,-1.1272314168384827
6.6328125,0.878896849732856,1.3723127120099754
6.63671875,-2.4056568475699445,-1.1688370348254569
6.640625,-0.5732066064422173,-0.3274385921733744
6.64453125,-1.439406834478904,-0.7577645209526767
6.6484375,-1.8551422674979332,-0.8863238672800353
6.65234375,1.8330169885857663,1.38522085125002
6.65625,-1.1344442132601855,0.5852304068456885
6.66015625,-0.13735934711145073,-1.6155131964567142
6.6640625,1.0016029133345556,1.323445672606317
6.66796875,-0.3618784033389688,0.6354970037508682
6.671875,-0.7428956928190584,-0.1825157985538541
6.67578125,-0.1873409649599789,0.007265146245884459
6.6796875,-0.764473754292943,-2.15413454148035
6.68359375,-0.6165263328119053,2.1686758578493674
6.6875,-1.0838408817975396,1.2242868962824933
6.69140625,0.4623050824927061,-0.6596891153899783
6.6953125,0.22079177970658878,0.6900666865129447
6.69921875,-1.012215912793967,-0.9074868916027495
6.703125,-1.8855044552390985,0.8591605401852591
6.70703125,0.20554783044384412,0.6779031469302408
6.7109375,1.0629433207772068,0.6349080054501416
6.71484375,1.1619704672048767,1.3326559099344375
6.71875,-1.1825456762581097,0.013364450561008236
6.72265625,-0.5666292110128001,1.3512805518825457
6.7265625,0.5254613340141014,0.3745784871211569
6.73046875,1.01418162329408,0.7945382581268965
6.734375,-0.21869140827904188,2.003953004146676
6.73828125,0.6423273683311049,-1.7346270372366885
6.7421875,0.8059932390348586,0.05366241799484641
6.74609375,0.27210514480384923,0.848686888074388
6.75,-1.1788074043061614,1.317735348054719
6.75390625,-1.962133308267919,0.6578068339782236
6.7578125,1.3791100892018804,-0.016067446337551642
6.76171875,-1.351576778592441,1.2202411283639814
6.765625,0.8477004195367153,0.46784513250444004
6.76953125,0.4707428246361045,-1.0135324752005257
6.7734375,-0.3547582829361229,-1.771437524324439
6.77734375,-0.21793580388829134,1.2228395998177481
6.78125,0.9644150398942304,0.19004376995749028
6.78515625,-0.5661056432916446,0.470276699561371
6.7890625,0.7959166812705825,-0.2769336917491906
6.79296875,-0.49693712491971603,0.20853248631082388
6.796875,-0.46705894507113915,0.4454108468837077
6.80078125,-0.25364236376267857,-1.2575390950851064
6.8046875,-0.5599333690057494,-0.006093930207156795
6.80859375,0.9951398008282301,0.7844332028523355
6.8125,-0.487581126631797,0.22451208788396057
6.81640625,0.17044246928714357,0.14234134626880826
6.8203125,0.28576511397519644,0.5474649489821863
6.82421875,-0.4859672594405347,-1.465467249496474
6.828125,0.2774326830606763,0.31926591928405945
6.83203125,0.4974095640962149,-0.7664296214701635
6.8359375,-2.963030111890711,0.2708070164437886
6.83984375,-0.3457368051898547,0.5998011317707879
6.84375,-0.3025205831636138,0.04122808840268282
6.84765625,0.9084600287252311,-1.5674917208176782
6.8515625,-0.109366306016238,0.09512683592378854
6.85546875,0.7020538270485545,0.5435888797058397
6.859375,-1.0399200516513942,-1.5301742697582863
6.86328125,-0.8272921700642141,0.45826731167333284
6.8671875,0.4553399510140643,1.7217056929585923
6.87109375,2.0334681849388865,-2.9333159163632723
6.875,0.9102815489075861,-0.7784706450503076
6.87890625,1.6695815354971228,-1.5276847661198105
6.8828125,-1.4505046763358553,-0.7875741701284017
6.88671875,0.33495316713364287,-1.5768423978304429
6.890625,-0.4804953954513305,-0.8339808895167088
6.89453125,-0.8920531246627575,0.7058655691638193
6.8984375,0.834440134256358,0.659340299292817
6.90234375,1.2199748228358964,0.5058171077398317
6.90625,-0.6247714996535209,0.567961587022115
6.91015625,-0.3989181813395494,-1.2562904724710278
6.9140625,-1.1222604116538035,-1.0306163027268487
6.91796875,-0.363815569434204,0.3961617485019478
6.921875,-1.182509458658372,-0.035767640686877634
6.92578125,-0.8184646213667541,-0.18797179773117717
6.9296875,-2.2284825563504564,-1.183072456971251
6.93359375,0.2342451084780117,-0.43080257143920875
6.9375,-0.5432285790818416,0.11629294267574383
6.94140625,-0.31146430442174033,0.9636528724055153
6.9453125,1.6198848391009657,0.006778420309599321
6.94921875,-0.4324915450496148,-1.421238337575363
6.953125,-0.40652132666924806,1.246351263834386
6.95703125,-1.728867293087006,-0.11027388107597923
6.9609375,-1.6190985894994563,0.902309253867411
6.96484375,0.27020518809646377,1.1818793272573336
6.96875,-0.12938899031826295,-0.39877286873894896
6.97265625,-0.7020304628546927,-0.09199379292372653
6.9765625,0.7667277445952018,0.792361884812729
6.98046875,0.8819541263967714,-0.48578089464090635
6.984375,-0.32445628493274326,0.15893015327191434
6.98828125,-0.3161818974211065,-1.1817477215528915
6.9921875,2.1744147860789576,-0.15121709560668642
6.99609375,-0.6120419718595226,0.5046666035097445
7.0,-0.5028760521009996,-1.1148806016272852
7.00390625,0.5411952080223529,-0.7926354816518062
7.0078125,0.6687631520170514,0.47379193152128135
7.01171875,-1.3251227313386074,-0.4070145026986363
7.015625,-0.13921310724018557,-0.787653827253935
7.01953125,-1.043124229004466,0.0536032725638151
7.0234375,0.7765705605601465,0.16313176528739065
7.02734375,0.1909907692235565,0.6580893799569179
7.03125,0.8235122749936644,-1.3669964228239928
7.03515625,-1.0442658828646234,0.17549188696936002
7.0390625,0.5524950590275218,0.8098896442165361
7.04296875,-1.0577264534363522,1.2458371942866797
7.046875,-0.7383383440150652,-0.11940226918092306
7.05078125,0.3513266808433169,-0.4291239583978507
7.0546875,-0.0383898334926257,-0.2644970520611086
7.05859375,-1.0357096050829633,0.3866936273945351
7.0625,0.2736413697979633,0.7088890340748514
7.06640625,1.865755238975453,0.2628080875564125
7.0703125,-0.287325237839382,-0.21851774867509002
7.07421875,0.6939281113597978,-0.1552751037159322
7.078125,-1.025871187708565,-0.04858514209697975
7.08203125,0.4396455815275891,-0.48031540991021304
7.0859375,-0.6953426888263252,-0.18577324700251585
7.08984375,0.13697551638311226,-1.3329745381739413
7.09375,-0.846555087398144,-1.7488687946066153
7.09765625,-1.9266325676429252,0.16706202618582627
7.1015625,0.9333086337160522,1.052169527814113
7.10546875,1.9376430349122167,0.2678266085217917
7.109375,-0.811741578372186,1.0733944696064852
7.11328125,-0.43250531492420075,0.051757120949746216
7.1171875,0.8323559009550883,0.06078337041986055
7.12109375,-0.22681168731377715,-1.0352549817928076
7.125,-0.35797759913811217,1.9905331480835877
7.12890625,0.4115140571779667,0.6205976228701453
7.1328125,-0.6755488493861546,0.43717451379731986
7.13671875,-0.37807123570062967,-1.4597625173575273
7.140625,-0.3051649700470926,1.5148562921985753
7.14453125,0.37299240034340947,0.06690147002774981
7.1484375,-0.19602645975966995,-0.8898588006658483
7.15234375,0.698831972697018,1.8939723530943848
7.15625,-0.7296955040763726,-0.2807512519200114
7.16015625,-0.5656119092523979,0.44712640052538144
7.1640625,-0.9150962809288213,-0.780818162321081
7.16796875,0.45965564124730074,0.45726368216344054
7.171875,0.8453879390299514,-0.8689956622058453
7.17578125,-0.2973093635988633,-0.7559875098798403
7.1796875,0.6602476837920803,-0.5291636878841115
7.18359375,0.38072197293633075,-0.15355392268041682
7.1875,1.2263781046374347,-1.6031792720198514
7.19140625,-0.4901083733326513,0.47987379229664995
7.1953125,0.6786599659748146,-0.15447129755032368
7.19921875,-0.15713999610502702,0.7432029317358058
7.203125,0.43390442013206865,0.9522121428280506
7.20703125,0.599620311009882,-0.07666990239595584
7.2109375,1.4695188116725593,-0.7662567248805084
7.21484375,0.7589963562026558,0.51635394092163
7.21875,0.36048203394943396,0.35915677973001237
7.22265625,0.16460899645007945,1.8869346127229407
7.2265625,1.0450967111763476,-1.8010500961302383
7.23046875,-0.7855345031209141,0.6080419430731386
7.234375,0.6255551116434295,2.0901372994026706
7.23828125,0.7728438684733203,-1.1233678541616554
7.2421875,-0.6193395883478695,-0.1659894421659197
7.24609375,-0.7927383561070999,-2.2907100120375263
7.25,-0.3375490179899598,-0.37954205925329454
7.25390625,0.2257990912261345,2.3447013338067006
7.2578125,-0.3644148628196883,-0.8660355893414592
7.26171875,-0.9530718366068842,0.437259071576176
7.265625,1.2533586688941931,0.8835358028321554
7.26953125,0.7245175468765908,-0.3185358802228939
7.2734375,-0.2635319783534529,0.12652588149947117
7.27734375,-0.5918167315926938,0.18423773962474413
7.28125,-0.5508657587447015,-0.4945515978809117
7.28515625,0.6044184505479298,0.8426714068255695
7.2890625,0.2505427505205641,-1.7198497110326603
7.29296875,-0.04337261769784998,0.5062962880261661
7.296875,-0.43827052275329803,0.521477605704025
7.30078125,0.3332238918428292,0.9710208503090043
7.3046875,0.2561772313825725,0.9688739928945755
7.30859375,-1.0169187546208558,0.2178021859723823
7.3125,0.8849901731291648,0.2292819649488669
7.31640625,-1.278820135183933,1.3791424946742414
7.3203125,0.6704992058858565,0.7321853267609152
7.32421875,0.8834933715061393,-1.3514233228860038
7.328125,-0.02268963055304756,-1.0622176691525453
7.33203125,-0.5090167859470928,-0.20739248864692825
7.3359375,1.3670924008540666,-0.22123529120077057
7.33984375,-1.2299832346186383,0.6421374767400265
7.34375,1.5028555102783692,0.5554111592657222
7.34765625,0.812358405190975,-0.26703593559808697
7.3515625,-0.24993675535340099,-0.5931295769585937
7.35546875,2.2064085811305896,1.0096131528350758
7.359375,-1.4187341173757975,0.9207702740717627
7.36328125,-1.7455518243949835,-0.706048909774514
7.3671875,-1.1258035686794128,-0.1033052690882145
7.37109375,0.7085122993125201,1.3854299119811906
7.375,0.05504330751303381,0.5768476464776012
7.37890625,-0.08042109031452263,0.0955640746576147
7.3828125,0.5796390716302875,2.22264489222516
7.38671875,-0.7967583029572185,2.465457672493787
7.390625,0.055892003875546895,-0.2165645487940632
7.39453125,-0.7963193742315068,0.8065438875567196
7.3984375,-0.20186064927620712,0.4836036933011965
7.40234375,0.7398044348759857,2.21553098910505
7.40625,-0.3509320167475119,-1.8691307953838738
7.41015625,-1.6155129481774968,-0.12276170749850762
7.4140625,-0.5328708333334667,1.1662891827608388
7.41796875,0.354038675400073,-2.5163805521097093
7.421875,0.6294925379674147,0.9531846402612962
7.42578125,-0.8803380094253417,-0.724606272555689
7.4296875,-1.504921663117264,0.46747677100080204
7.43359375,-1.4816316699234227,0.677021506148612
7.4375,1.611863027945943,0.6382488821284813
7.44140625,-0.04201711914662411,-0.26986952396794256
7.4453125,0.023365587981997563,0.06493300193063647
7.44921875,-1.4816550562767863,1.1177637179992996
7.453125,-1.1499751217784289,0.7504721951810222
7.45703125,-0.13692801131994567,0.5099717058444175
7.4609375,-0.22328844415981636,0.6993801138522177
7.46484375,-0.28995150187746854,1.700167855337041
7.46875,0.2253042562278569,-0.08090338134605857
7.47265625,-0.5280893544494087,0.5429999732609359
7.4765625,-0.26922515638530414,0.570002921436633
7.48046875,2.2176719318047264,0.18904886558306994
7.484375,1.0042450697078031,0.3522670891016384
7.48828125,-0.02450999169289398,0.7811923660769953
7.4921875,-0.8062845512629254,-0.32605529299013114
7.49609375,0.8947173578697306,-0.5463946661698081
7.5,0.39108703819074986,-0.9317735305808248
7.50390625,-1.2602912808616022,0.4018335002768544
7.5078125,-0.7626907956857498,-1.748966034830073
7.51171875,-1.6396914406011869,-0.8866997537246701
7.515625,-0.4193627671938385,0.5097163243269534
7.51953125,-0.7767064594191554,-0.5734524814450006
7.5234375,3.0653587749174314,-0.36663460141633214
7.52734375,-0.10326493848014326,0.6757475949907494
7.53125,-0.6796426374670468,1.1595175385149799
7.53515625,-0.2650459905989751,-0.5135515763147248
7.5390625,0.7137768145252888,0.03221086082696986
7.54296875,-1.2277675137740842,-2.9414305121785125
7.546875,-0.9253424576882792,-0.0856386665672143
7.55078125,-0.6916998004664142,1.07451495459605
7.5546875,-1.7673349688879119,-1.533520980457577
7.55859375,-0.44100262147647934,-1.6163390713376082
7.5625,-1.794291558184586,-0.578174160046274
7.56640625,-0.6953486929470288,-0.3281250436498134
7.5703125,0.5635460262257458,-0.682462681107066
7.57421875,0.24759740706304206,-1.2915123787902494
7.578125,0.6006945769138182,0.00011350924669486492
7.58203125,0.825724266614304,2.2249212331703583
7.5859375,0.9957382760735317,-0.4539954788596243
7.58984375,0.6145041436293475,0.9751988757736859
7.59375,-1.2537193053499003,1.3185938007510714
7.59765625,-0.005723779139737512,-1.067364121296121
7.6015625,1.4453659146710092,0.2874226352688192
7.60546875,-2.1166429328376792,1.6913612080583658
7.609375,-0.36823224771766755,-1.124413641825386
7.61328125,-0.16078394987136319,-0.411744580131084
7.6171875,-1.1824332799903665,-0.19954653542167422
7.62109375,-1.192496807023146,1.132599487069447
7.625,2.6407597353627286,0.18311829849447378
7.62890625,-0.1994377257297456,0.9147956513851367
7.6328125,-1.3148702971433963,1.2825062732875052
7.63671875,-0.3404802974262624,-0.3102793357211256
7.640625,-0.7789635011984293,1.1075683485899595
7.64453125,-1.0531882528577334,-0.6312575226965804
7.6484375,0.695741291743204,-1.3524337822723014
7.65234375,0.1364090533635485,0.4730092690739988
7.65625,1.0292295401793823,-0.6371414802816621
7.66015625,1.163033808936532,0.3371518841369848
7.6640625,0.5775778492075614,1.4428448482592287
7.66796875,-0.12351949274117899,-0.7406977374188622
7.671875,-1.9248564488658542,0.9443176811928554
7.67578125,-0.747823096180693,-0.486877716930861
7.6796875,1.3444609012740911,2.049431738245799
7.68359375,0.8452618468541039,1.2169297519609061
7.6875,-0.8310572344845621,-2.2757476847542786
7.69140625,-0.2834472395138372,0.32064153119601585
7.6953125,-2.1223552115371738,-0.24743661362290936
7.69921875,0.8638032831631874,-0.21460300509677754
7.703125,-1.199944150520864,-0.4400323649356205
7.70703125,0.11274454448125272,-1.8206924833250222
7.7109375,1.6721987968137788,0.06789046004416997
7.71484375,1.9918056832826783,0.454185302642391
7.71875,-1.9901080888491145,0.4760568780088152
7.72265625,0.40293656693527496,-1.7327670642630815
7.7265625,0.6290948568353514,-0.9804488112304658
7.73046875,1.2464509837011208,0.5544211675440005
7.734375,-0.2124466354261001,2.494160561772467
7.73828125,-0.07271460770808826,1.67506937143391
7.7421875,-0.8434004238650943,-1.1275906545030703
7.74609375,-0.9125384405158531,-1.0565587736219926
7.75,-1.2536713224457001,-0.4099507378695439
7.75390625,-0.14471698341652373,-0.6925017892525727
7.7578125,1.6981822291216904,1.099823679808134
7.76171875,1.103001555305958,-0.8685794184238675
7.765625,-0.3440653326698735,-0.8702216509677881
7.76953125,0.8988586175750803,-1.8400502518362791
7.7734375,0.3409628900692172,-1.497532748537394
7.77734375,-1.7283154082168657,0.4680066235923083
7.78125,-0.7312369150463772,-0.27550107731630513
7.78515625,-0.10940917627866233,-0.11864140630200821
7.7890625,-1.152721060956694,0.4896824881942183
7.79296875,0.12102221525070381,0.23144941661987212
7.796875,-0.2531432369619909,0.8348083246605763
7.80078125,-0.9093507118054096,-0.025687465268179017
7.8046875,-0.6143060269302075,0.7651303511508187
7.80859375,0.23842268420587306,0.5079068421887509
7.8125,0.21459597212137294,-0.6861092152086478
7.81640625,-0.43620187926542886,-0.8324607897455083
7.8203125,0.8620552269671055,-0.2208430422931202
7.82421875,-0.5429054922156442,0.514873513881467
7.828125,1.1836511548972284,0.8379208185345525
7.83203125,0.6819370812160196,-1.5577704036182836
7.8359375,-1.435543956023078,-0.03368252456770089
7.83984375,-0.003139602762451201,-0.899506799393169
7.84375,-0.8897844710900793,1.135389860226575
7.84765625,1.5665600377724243,-0.06475565427710542
7.8515625,-0.5828619022937643,-1.2767836376641812
7.85546875,-0.22632742966097888,-0.48016325468730237
7.859375,0.07423743415436843,0.30398917369471407
7.86328125,0.8780595772351314,-0.5958090404062482
7.8671875,0.6651448734083195,0.777925958537435
7.87109375,-0.4343105640892519,-1.8549439284285807
7.875,1.538127695586196,1.3902891193119764
7.87890625,-0.15644975244308967,-0.49343585426719216
7.8828125,1.1581024660508845,0.7576184310684398
7.88671875,-1.353103365631755,1.1433449432833038
7.890625,0.7837723682849824,-0.04641300245429294
7.89453125,0.5376134531911733,0.019537021958823803
7.8984375,0.5359471306307958,0.48349163010922047
7.90234375,-0.27196240093904855,0.5220821453397511
7.90625,1.3069904604001998,-1.8368636732649175
7.91015625,-0.744285451776475,0.5336121347039541
7.9140625,-1.180279039883964,0.0604900071714463
7.91796875,-1.0614825931723542,-0.4573966004105036
7.921875,1.517322473248139,0.003672652706804028
7.92578125,1.0090197395871494,0.033584459755258055
7.9296875,-0.9846833292874286,0.2206822917700829
7.93359375,-0.2173832170288816,-1.0873596422820944
7.9375,-0.7491286601109483,-1.7079081426251013
7.94140625,2.1255888597962853,0.4406341764356667
7.9453125,1.4678643873211457,-0.2302472684590416
7.94921875,0.450204882807809,0.2831254369959724
7.953125,-0.06680770476414502,0.14687245249409267
7.95703125,-0.815322955124252,0.38613315594567255
7.9609375,-0.9225385028872786,2.057820360244411
7.96484375,-0.9292309117533306,0.46748874663269463
7.96875,0.04378438552637137,1.3612711865687628
7.97265625,-1.1116501153662497,-0.43549644301569046
7.9765625,-0.12626799488907017,-0.22380293276462995
7.98046875,1.194503732835433,-0.49871581656886665
7.984375,-1.7770589204981087,0.21446193181252776
7.98828125,0.26801723232619207,-1.5880029998712484
7.9921875,-1.8216578488151456,0.23011581553385926
7.99609375,0.915242361184331,0.7270750095519635
8.0,-0.09243478293960516,0.45382153814990994
8.00390625,-0.36171801032051526,-1.1093322655911728
8.0078125,-1.223826845897,-0.04346210227915995
8.01171875,-0.8477263126614379,1.022244382431282
8.015625,0.2483661963834665,0.013570358351982694
8.01953125,0.3996289106516982,-1.3343582959077138
8.0234375,1.2698981858016212,0.9320116602770521
8.02734375,0.6697883341442393,-0.34221868600517436
8.03125,0.7358179129940919,-0.06603622820286012
8.03515625,0.22217037668772605,-0.6361792246478999
8.0390625,-0.2552470577832749,-0.9726514015242325
8.04296875,0.10264737100071926,0.09318324650687103
8.046875,0.5814250516525283,-0.09549194296991882
8.05078125,-0.35652384363083933,-0.5538000951174676
8.0546875,-1.8388597672375393,1.5046550651630337
8.05859375,1.039740144263742,0.7196923636346314
8.0625,-0.1894891815387417,-0.08853589762234484
8.06640625,0.12292283780173904,0.7641922647063535
8.0703125,0.2984740978176696,-1.2783546666082437
8.07421875,0.09200762672629088,-0.8375400266159287
8.078125,-1.0914108178294033,-0.6091163185767139
8.08203125,-1.194714362893981,-1.7444752720677221
8.0859375,-0.3293169678854328,-0.38757791356617377
8.08984375,0.8075550249829544,0.16846072973783754
8.09375,-0.17482257313318428,-1.0575845978600007
8.09765625,-0.01520639198841631,0.338506093329286
8.1015625,-0.8673891334172147,-1.1594702941348476
8.10546875,1.542395810596301,1.7981319449010769
8.109375,0.7253663647153903,1.9525038004695738
8.11328125,0.650226835210502,0.16450162424798898
8.1171875,0.21086649209964808,-1.2657994483342385
8.12109375,0.5078262973511735,0.28086067049470953
8.125,-0.8152586298151722,-0.5965480177577941
8.12890625,1.1923690711871548,-0.7324175662928795
8.1328125,0.3023134348125103,-1.9680758981731576
8.13671875,-0.44893085412478856,0.2033346202877631
8.140625,0.8589133768235129,-0.49660404751472603
8.14453125,-0.82443846244142,-1.7146788674897249
8.1484375,0.3141196776728321,-1.091477495587703
8.15234375,-0.7473864629365277,0.708752801009823
8.15625,0.026336149936013954,-1.180445997508895
8.16015625,2.6832674721276875,-0.8483702505040889
8.1640625,0.24887902378903543,0.8629087095638205
8.16796875,-0.9709469174562876,-0.5916947779536805
8.171875,1.123215241930376,0.43047172138919226
8.17578125,-0.6532927857225691,0.33853133289719267
8.1796875,-0.660269636902037,0.5894541593370899
8.18359375,1.0401852578930975,-0.28976415417250406
8.1875,-0.8628390910802642,2.0620080390270945
8.19140625,-0.8416366547774106,1.2940519865281523
8.1953125,0.7337304622256287,-1.975394954061813
8.19921875,0.3563821282351185,-1.5571939241878858
8.203125,0.13120784647017603,1.4290839593191924
8.20703125,1.1836648365632554,-0.3414816476964655
8.2109375,0.7197181603361362,-1.1244033305119379
8.21484375,-0.4878068466654261,-0.4430450982444578
8.21875,-0.6652737666377757,-1.7750084548051999
8.22265625,-1.326147842139527,1.6250993287148952
8.2265625,-2.138439622912744,0.38683566926358365
8.23046875,-0.23434901608415654,0.5613001143364795
8.234375,0.43174333274660054,-0.0857288681391453
8.23828125,1.1982174864962376,1.1129832167444873
8.2421875,2.2099774375850316,1.4096815411337085
8.24609375,-0.2768282736272469,0.6622626943167892
8.25,2.173518942734214,0.777817336277631
8.25390625,-1.2279666952900716,-0.43344972307667906
8.2578125,-1.080194540815403,0.44924578707745816
8.26171875,-0.1707944798947567,-0.5494872536781964
8.265625,-0.9775896996940009,0.18266920995957717
8.26953125,-0.8742541702632138,-0.46886081087262904
8.2734375,0.21300489324103147,1.9251041999918843
8.27734375,-0.37050008070796947,-1.1689378124980043
8.28125,0.24686755644145272,1.586643418370057
8.28515625,1.357916743320947,0.7578650696839194
8.2890625,1.096015029017448,-0.5950681504218421
8.29296875,-0.6629053814268484,0.06702427428011194
8.296875,1.2802196495422875,0.26940680222683183
8.30078125,1.3083552644967242,-0.11562576380417325
8.3046875,-0.547703714157104,-0.3761316524715067
8.30859375,-0.8702535370527911,-0.3737198006171438
8.3125,-0.003025285141468832,-1.114564998450546
8.31640625,-0.5455638746034698,-0.9711458010644929
8.3203125,-0.5608308827877103,0.48649421787932123
8.32421875,-1.2345699131143748,0.12279008772733709
8.328125,0.7513096744170792,0.6213945778358233
8.33203125,0.13805996879250118,-0.02305729075173418
8.3359375,-0.529856702710254,0.7512576574505766
8.33984375,0.9358210077718445,-1.9972476939943695
8.34375,-0.18541031783044776,0.08226531741203154
8.34765625,-0.6089269644460388,0.6042699176312664
8.3515625,1.5188269166716233,1.449726440831104
8.35546875,1.2608383261425686,0.5326851239894372
8.359375,0.2888058736118797,0.052688766455093454
8.36328125,-0.3157232758816289,-1.6076668568153862
8.3671875,2.969794397769112,-1.8299262550689133
8.37109375,0.7847241678825879,-1.0243648421566265
8.375,0.2668240853717285,-0.18931630021500356
8.37890625,-0.6752199623955953,0.2618656754229623
8.3828125,-2.077235779193361,2.406726235353568
8.38671875,-0.06715849030500391,-0.5406829517573575
8.390625,0.5154632590088568,2.1759898009336873
8.39453125,1.0520192822553747,0.4714826178967882
8.3984375,1.3524441735831108,0.49562011075299955
8.40234375,0.32310123173999944,-0.21803814466911264
8.40625,1.842788524832542,-1.6450884436825033
8.41015625,-1.0691665695696062,0.5470993791686164
8.4140625,1.1882087683164142,1.355747476000932
8.41796875,1.337185021948813,1.252033428498313
8.421875,0.7833845860363303,1.0561816113598037
8.42578125,0.7571351258378153,0.7239245484154967
8.4296875,-1.9404847199574964,-0.6743655833269222
8.43359375,0.06140258063636667,0.7961258145691981
8.4375,0.09769786524947002,-0.28145839986833193
8.44140625,-0.037786547327493425,-0.130223758314902
8.4453125,-0.7917824404545875,-0.33378095516339706
8.44921875,0.1531439712277814,-1.3673965040294018
8.453125,0.9904701359200074,0.48173982082782985
8.45703125,-1.5793553970247038,0.2286181268006166
8.4609375,0.07725681436973794,0.35633866545549286
8.46484375,0.04091475909800245,1.1144486907758275
8.46875,2.0514021498089368,0.33972143546093614
8.47265625,1.2324771431475523,0.7257440899935313
8.4765625,-0.2619314994578249,1.042810291413087
8.48046875,0.5336236133017949,0.2640783331789261
8.484375,0.23804667295863458,-0.8095975467441341
8.48828125,-0.34369016989718976,0.38778450626435323
8.4921875,0.36227546847361086,1.3221527716682144
8.49609375,1.293116180231037,-1.31865597512277
8.5,0.5847166670033799,-0.947573307075469
8.50390625,-0.6854627201193999,-0.45933401804587226
8.5078125,-0.9634116758201784,-1.3693264348101681
8.51171875,1.8956444195639666,-0.6702252233493902
8.515625,-0.14349307729900107,0.9929301929622129
8.51953125,1.0300138151584612,-0.48873811192564187
8.5234375,-0.1335196341816199,0.2673872669779861
8.52734375,0.4781636770597819,-0.8102652053613616
8.53125,-0.13569659395070538,0.025966727415813348
8.53515625,0.6836761092140186,-1.4476181428822594
8.5390625,0.15441857032830886,-0.022651183926126278
8.54296875,-1.0370608826195955,0.6745884063602402
8.546875,0.5708336786372857,3.1014760610819647
8.55078125,-0.9682828715752162,0.16960472079643915
8.5546875,-0.5699804768821678,0.14362388587319308
8.55859375,-1.8345848740994584,-2.0815969623054005
8.5625,-2.322870933428425,0.0018377077380395458
8.56640625,0.31522867636150936,1.9293817153281114
8.5703125,1.3269858846627305,-0.6744733936433098
8.57421875,0.023703410315941306,0.6956438289445556
8.578125,1.288493815291636,-1.2740535046446615
8.58203125,-0.3338973686493855,0.1072594181617267
8.5859375,1.2042336917382785,2.410698176503292
8.58984375,0.50392949410368,1.7533705870723035
8.59375,0.125753342524692,0.4965653026707209
8.59765625,1.2491143588359976,0.48905280427183
8.6015625,-0.8639904610923106,-0.9650131873412097
8.60546875,0.5413910010166191,-0.6181373073972936
8.609375,0.8629253877021047,-1.2477128065848448
8.61328125,-1.8307863401381819,-0.06212772198054084
8.6171875,-0.04612231693725121,0.10087191564765974
8.62109375,-0.5117097604940624,1.2969147342678098
8.625,0.2935091130322946,2.5039886062312755
8.62890625,2.2227857968460296,0.4036148452333152
8.6328125,-2.358945269795967,-0.8503466311482087
8.63671875,-0.28779090387391737,-0.6969267498726853
8.640625,0.7091532528056697,0.620366551309284
8.64453125,1.1095732281579909,1.269330942549375
8.6484375,0.36214919540976587,0.7468340094772608
8.65234375,-1.0264852180000694,1.2741713529286112
8.65625,0.8171515748249047,1.0521055166258888
8.66015625,-1.3646548527278313,-0.7061050280996934
8.6640625,-0.19202707327122506,0.8754167686130868
8.66796875,-1.1715825850560242,0.6624302539069202
8.671875,1.4714593137331407,-2.4443463868911026
8.67578125,-0.30542065760244075,0.12366718408597635
8.6796875,0.03896148121169868,0.8230463760601445
8.68359375,-1.0595125773560252,0.567375589219778
8.6875,-0.20930531098107202,0.7997046785481926
8.69140625,0.25636613667681146,-0.28878988708683867
8.6953125,-1.436532635468984,0.35050438002073675
8.69921875,0.6807022839754902,0.3424979189290205
8.703125,-0.42809677624825054,-0.8094523820793049
8.70703125,-1.4809925798998191,-0.6617846937153242
8.7109375,-1.1521385262571595,0.2677447916756127
8.71484375,-1.260374040942956,-0.9633434951473674
8.71875,0.145005619960053,1.297604649778211
8.72265625,0.2512736962144998,0.29069898803628025
8.7265625,-0.031153773423241046,-0.8603402714531958
8.73046875,-0.7098221557676522,-0.4163919132520619
8.734375,-0.3908118337005154,-1.352964460758151
8.73828125,-1.284463914599466,0.7921890035461945
8.7421875,0.9622813400531569,1.0039551383021537
8.74609375,-0.1406357199238291,-0.23348305515930215
8.75,-0.6758958840945661,-0.5306977497143263
8.75390625,1.2813225555810466,0.19244974804198436
8.7578125,0.29719097594365007,-2.227517963997414
8.76171875,0.46330210849878783,-0.024592580046730237
8.765625,2.131710628176226,-1.6855991149067793
8.76953125,0.5672680656101945,0.002539641498867275
8.7734375,0.4403216920998504,-1.2302168019799993
8.77734375,0.17097524879707315,0.6760675604316226
8.78125,0.6063530846458367,0.9796830310268709
8.78515625,0.014504615487715193,1.8416089377942504
8.7890625,1.775684785433423,-0.5571425665873998
8.79296875,-1.1269864981066937,-0.6937205765840294
8.796875,0.37847337821839633,-0.6641713799018171
8.80078125,1.4350790111981881,1.0739725658904364
8.8046875,-0.27461717626997173,1.3790898027950795
8.80859375,1.0705264546583761,1.4351920740443895
8.8125,0.6893773656951626,-0.38974836052840467
8.81640625,-1.086663623108389,0.8430885159455695
8.8203125,-0.02088248268719827,0.7178418903208329
8.82421875,-0.17240523986165016,-0.39258535646500736
8.828125,-0.5438795416903256,-0.39192673141543005
8.83203125,0.32943385396326286,0.8356749966302925
8.8359375,-0.16421517123599008,-0.4575235121854383
8.83984375,0.23622676759871955,-1.7061317790518207
8.84375,0.6750246847602874,1.677898326357493
8.84765625,-0.3261483428313078,0.5901735725112486
8.8515625,-0.6786451618508755,-1.6202269973984875
8.85546875,-0.06941275391354375,0.3907507017861491
8.859375,-0.6195483057414151,0.8180640227812035
8.86328125,-0.23714454067218113,-0.1361511568385288
8.8671875,0.07757485369811595,-1.5296107285023952
8.87109375,0.18806930686986892,-0.8529975345015065
8.875,2.405931512847816,-0.11421195632290362
8.87890625,0.695658197499958,-0.5456148727249646
8.8828125,0.43785140942203915,0.7668260408335368
8.88671875,-0.649295913426378,0.6150060120826238
8.890625,-1.0442921535627174,-1.947676273469407
8.89453125,0.5415839551832783,-1.5386881739502916
8.8984375,-0.79563259586309,-0.799282075922217
8.90234375,-0.053727010933789884,-0.617780076052456
8.90625,0.2095192345984575,0.577125030870498
8.91015625,-0.19681481493412,-0.053794797831536754
8.9140625,-0.7386403878420046,-0.718600089465295
8.91796875,-2.0351347250050598,0.7917512245804971
8.921875,-0.3353873228232817,-1.9244840714600493
8.92578125,-2.0289180826801463,-0.5524095482824944
8.9296875,-0.6990937718159765,-1.9102851399590908
8.93359375,0.9301181103127403,0.36396424381106496
8.9375,-0.5257751160262741,-0.21320441994136297
8.94140625,0.4131488112512085,0.9130433216350078
8.9453125,1.2803949838638207,0.7718355121219883
8.94921875,0.901113291879697,0.3718319094744878
8.953125,-0.6023783608563777,-0.742668412829824
8.95703125,-1.444970889421607,-1.488301153156707
8.9609375,-1.8395341548286621,0.8884794263646218
8.96484375,2.6641823097834973,-0.08172580568602499
8.96875,-0.03538410467379079,0.9251192255919415
8.97265625,-0.291287619391784,-0.7000104034821678
8.9765625,-1.5886535964103856,0.5391825691623955
8.98046875,2.0201730645288136,-0.3480075455527353
8.984375,-0.38296065163078147,0.6823776312088504
8.98828125,-1.12395481547631,-0.752929911823689
8.9921875,-0.5386556438921565,-0.8309548134597434
8.99609375,1.041713227741504,-0.8710338650887521
9.0,-2.090471957222986,0.3815366179572557
9.00390625,1.3905281226186685,-1.1596522124388833
9.0078125,0.21451437564718387,-0.47056444626661864
9.01171875,0.1852339338338455,-0.3758280384942506
9.015625,-0.273139755611721,-1.058299983740581
9.01953125,0.4193765066784219,-1.309624851018443
9.0234375,-1.3259997204112528,0.5909894021384507
9.02734375,1.312137606341446,-0.09206606711511224
9.03125,0.24958539742550173,-0.6537547648867418
9.03515625,1.664863394458922,-0.7837420119581999
9.0390625,-0.2901560627309041,-0.5903834911987825
9.04296875,-0.4945479685354687,0.1412363873454082
9.046875,1.8673974637725872,-0.5878652995287964
9.05078125,-1.6255754072134372,-1.1630201122959674
9.0546875,-0.1783244802840709,1.4022914223241023
9.05859375,1.4868061313117424,2.016229816854417
9.0625,-0.5702826434194183,0.8864457706568437
9.06640625,-0.9508823806080355,0.19691584478154417
9.0703125,0.8132470022097444,-0.11486244262404866
9.07421875,-0.34456567509948177,-0.47407776827481307
9.078125,-0.7217648694256837,-0.7245887225052999
9.08203125,-0.6635123283067096,-0.4962663516559058
9.0859375,-0.09910869197173057,0.7039671706494768
9.08984375,-0.4219912527959077,-0.2620160792277467
9.09375,-0.6790493515128865,0.5396713387420145
9.09765625,-1.1579308332563945,0.9125254002044403
9.1015625,0.8739996174629877,-0.7485307294122244
9.10546875,-0.5939930773136484,-0.5279930246054475
9.109375,-0.26841638402624163,-0.9045777111967592
9.11328125,-1.7106200717646134,-1.9479849648042287
9.1171875,1.440992254376237,1.282345971801991
9.12109375,-0.8710143155707895,1.3438039738623027
9.125,1.0218950031093088,-0.4626153459428331
9.12890625,1.6402376084096377,1.1844228392514573
9.1328125,3.105584207274071,-1.034503838244446
9.13671875,-1.3641738123341156,-1.6191982658249402
9.140625,-0.48931828816000306,-0.4455253554989348
9.14453125,0.1422838144054753,-3.28848053847011
9.1484375,-1.5578987470501384,-1.5779579761375042
9.15234375,-1.6209510643091676,-0.200977936937583
9.15625,-1.407508032371719,-0.8985741548784615
9.16015625,-0.1036876272968516,-0.4627469913870606
9.1640625,-0.5565505676966193,0.1015492604797162
9.16796875,0.46593495603960555,1.007725195832894
9.171875,-0.10198273907440986,-0.13486856803449926
9.17578125,-0.7052461043823877,-0.1538463726836742
9.1796875,0.7712643577245483,0.7623964694416654
9.18359375,-0.12090871630297795,-1.1565053277905273
9.1875,1.258229735506703,1.328600551098912
9.19140625,-0.21803600538078058,-0.6794124278157151
9.1953125,0.643966524144963,-0.2150250789529581
9.19921875,-0.5187278797617892,1.307227899627219
9.203125,0.6485988545962672,-1.1900276191441552
9.20703125,0.5259360038879556,-0.19753314039873357
9.2109375,0.5873566440873929,0.2930049254782262
9.21484375,0.10510407374301217,0.7331029815064914
9.21875,1.3577809758768349,0.03554257056366713
9.22265625,0.2252448606196464,-0.04995204853369009
9.2265625,0.5778867290545462,0.4193263041589038
9.23046875,0.6567833813286168,0.9817954047555075
9.234375,-1.192582580341965,-0.09596335360768109
9.23828125,1.0067539319404495,0.9929278457747576
9.2421875,-0.2131517132317851,-0.4845114388763248
9.24609375,-1.6529325853992967,1.4901874475686134
9.25,0.40355677670873186,0.21094029023420538
9.25390625,-0.3397448668814569,0.754506115739438
9.2578125,-0.2310371663912952,1.5646301184798128
9.26171875,1.1173381268842593,0.5569799095009628
9.265625,0.9870725010364116,-0.9349723888004766
9.26953125,0.9531914733800673,-0.13825513020196845
9.2734375,0.35613070497776905,0.9044397723691545
9.27734375,0.6010046174169835,-0.04208859385464727
9.28125,-2.8174310736350376,-1.6415761308616603
9.28515625,-0.5432965536893684,-0.5839638072250699
9.2890625,0.8821860300737037,-0.3261209113175079
9.29296875,0.014344082809837243,0.1514979830404928
9.296875,-1.4418386632315383,-0.9330976327278439
9.30078125,-0.17238477315031397,0.9722648497636368
9.3046875,1.00138717412141,-0.7191144518088727
9.30859375,0.908313965639749,-0.7159698407548515
9.3125,0.4260215098591145,0.19719093101719412
9.31640625,-0.20140732449383916,1.1475126503700965
9.3203125,1.1153285876258878,-0.26884352042677756
9.32421875,-1.9402609050131165,-0.09293976163314484
9.328125,-1.3167848166810607,0.08126996146140672
9.33203125,-0.9056353769999258,-0.6559447612900317
9.3359375,0.5882923765079864,0.42734597065696844
9.33984375,0.11836097659205419,0.5822167259033395
9.34375,0.9958667713898134,-1.3996469192315217
9.34765625,-1.2264221373038116,-1.370646369726626
9.3515625,0.5694205445142231,0.9848121465133727
9.35546875,-0.09838627277870367,-0.9049802122649455
9.359375,-0.6415618384246461,-1.6628879522412048
9.36328125,0.5221101164091854,-0.9921992180368313
9.3671875,0.8536438377191696,-1.8162141788178086
9.37109375,1.4540202481202533,0.26317262448775736
9.375,0.28802854155278296,0.5096474252643005
9.37890625,1.0602363829212589,0.16686269750679286
9.3828125,0.8784583520371981,-0.26223205997409377
9.38671875,-0.2361103858441355,0.6948627592902663
9.390625,1.1572919999874747,-0.01141840942136088
9.39453125,0.5115760597293931,-0.06169585851510944
9.3984375,0.06553582595044542,-0.634248341276916
9.40234375,-0.5682187366224156,-0.31489423363465474
9.40625,0.5970748090335498,-2.0620589937889084
9.41015625,1.3769693826165152,-0.7023879893437307
9.4140625,2.0881937429403803,2.284016057937285
9.41796875,-0.7686223360627294,0.17517059061030976
9.421875,1.3424434618527092,0.5736499070411064
9.42578125,1.8240525652384232,-1.0917389410230474
9.4296875,-1.1803872338440398,0.5364011292487145
9.43359375,0.5224196675105414,1.210965854499368
9.4375,-2.039578566114301,0.934420919145116
9.44140625,0.21994303345052865,-0.6600967272103802
9.4453125,-1.0873193753199515,-0.35149704109609736
9.44921875,1.4533652094841847,1.6288942054156788
9.453125,0.3688305493705408,2.1082126083250214
9.45703125,-2.001100151755762,-1.614449514606339
9.4609375,0.13633885201221102,-0.6885830539180403
9.46484375,-0.8639501816100404,0.24489272921397542
9.46875,-0.84221921572643,0.09198286233068761
9.47265625,-1.3684026847094204,1.7160809832372903
9.4765625,0.7612834052680103,-1.432580781162555
9.48046875,0.15766204635729594,0.10985833753990829
9.484375,-0.8682909416719552,0.3840467633186485
9.48828125,0.2920545517024616,0.6765323748255557
9.4921875,0.40601560046167534,-0.39485364808931395
9.49609375,-0.8676746628070566,1.0196942857628901
9.5,0.3390292799401353,1.0993870010881348
9.50390625,0.6350806807583687,0.7833798777373381
9.5078125,0.24861111307524605,1.7135991233634924
9.51171875,-0.8120932874137758,-2.566862209519801
9.515625,0.9248794667326147,-0.6114137336378637
