time,ecg,ppg
0.0,-0.8405405703784405,-0.8753694559737926
0.00390625,0.033104079282194936,-1.0510454844850314
0.0078125,0.10782429818389179,0.07148443811556583
0.01171875,-0.5119684999751393,-0.9186770327347378
0.015625,-1.4958980096374188,-0.5719551229162013
0.01953125,0.30674854836544874,-0.4559852213747005
0.0234375,0.23130135662066956,-0.3198478990414535
0.02734375,2.2417952629269826,1.934031789977044
0.03125,0.490386085080474,-0.3452009553907757
0.03515625,0.23191498656043105,0.23781551151154998
0.0390625,-0.13826296190907603,-1.7317568543455057
0.04296875,-1.4558410221279094,1.5327206229200596
0.046875,-0.7892847091482076,-1.0627428394027263
0.05078125,-0.4798870360247372,1.7929521835687394
0.0546875,-0.9030430618046633,-0.14555602182060615
0.05859375,0.3268884809346756,0.9840433009888189
0.0625,0.8092605943668627,1.4717745167268061
0.06640625,0.19592731690442677,1.5951174083714577
0.0703125,-0.9572085930579036,-0.2755529969282412
0.07421875,-0.6392191674152436,-0.44236961017954257
0.078125,-0.38106147927240935,-0.8391212143867398
0.08203125,-0.05662094929331164,0.17783186790380795
0.0859375,0.3112865467663635,-0.5795649857248849
0.08984375,-1.6720599930753546,2.8095486151395273
0.09375,1.9177282554518895,0.6012595220424397
0.09765625,0.16284043955703525,0.0037131416109961383
0.1015625,-0.10910036232864283,0.5543250545311856
0.10546875,0.27798153101454354,1.7265166513786667
0.109375,-0.685265711786551,1.519409258824038
0.11328125,-0.8753292741886775,-0.8304307515165847
0.1171875,0.1654614452060821,-0.736675066199273
0.12109375,-0.5918235238166624,0.8559031072232066
0.125,-0.5989963532613902,0.7748703689118094
0.12890625,-1.2704754357104149,-0.25973938339481895
0.1328125,1.0622617605132139,0.3898982475881591
0.13671875,-0.8360531372262482,-0.7404576051354296
0.140625,-0.5746172439893565,0.45856936230544254
0.14453125,0.0724145115425832,-0.824813225957978
0.1484375,0.04662130062418464,0.9669245240849667
0.15234375,0.8898024450629562,-0.6222211046973085
0.15625,1.6470264061000732,0.9179464779626522
0.16015625,-0.11526852849763529,1.2798876349513286
0.1640625,-0.9268414386783719,-1.4907169064365644
0.16796875,-0.5957297272901604,-0.15617044471949723
0.171875,-1.4215028588213834,0.3519808031996111
0.17578125,-0.26883380489050884,-0.8496547251729852
0.1796875,0.5891828177007733,0.785625273246781
0.18359375,-0.18930114187274844,-0.4514152081889482
0.1875,-0.6474038545697834,0.3548157984950559
0.19140625,-0.6101659960551913,0.18838642882422682
0.1953125,-0.9517866520172782,0.13814551497311908
0.19921875,-0.19854583175157525,-1.2591116495859982
0.203125,-0.2390174457218789,-1.9922036145858946
0.20703125,-0.019397511889101233,-0.26293152427025596
0.2109375,-0.9642389904927928,-1.9369236296917083
0.21484375,-0.07212412147088905,-0.7549812774051542
0.21875,0.9373077140862621,-0.7011062170363942
0.22265625,0.5706010474858328,-1.1636695350751933
0.2265625,-0.7398394425327504,-0.9948540980721738
0.23046875,-0.18107166888323098,0.05292334584196036
0.234375,0.5747508180970523,0.01968993934806545
0.23828125,0.04400473568644001,-1.5170160972733238
0.2421875,-1.3916348086520185,-0.3919829431009637
0.24609375,-0.2847799615900501,0.08963419629512663
0.25,-0.0035550861463079972,-0.030178931528302116
0.25390625,1.9433659729210877,0.5577628135845827
0.2578125,0.7065863521399981,-0.29197771789161303
0.26171875,1.0519584079343698,0.07399027222313348
0.265625,0.7344836476063752,0.2178164037393467
0.26953125,-0.6734825971286255,0.1773654453178875
0.2734375,1.2003783196016231,-1.3111947476798973
0.27734375,0.7784428306988834,-0.6400600366418948
0.28125,0.7101987419265433,-0.7603648743624649
0.28515625,-0.3217873325578559,0.6354766359066727
0.2890625,-0.11579299591209176,-0.26809286593582643
0.29296875,1.1557792506738618,-0.1573169017351673
0.296875,-0.9245507785846364,0.5767028984564848
0.30078125,-0.1176814505416011,0.20799540885709325
0.3046875,-0.23596879275145868,-0.1694263797618276
0.30859375,-1.3573603665302474,0.686686842033622
0.3125,-0.6068384168659742,0.4584750112716717
0.31640625,0.12209458752931718,-0.37441615914245224
0.3203125,-0.1586165287204742,0.5644070350471431
0.32421875,0.5305229887729818,-0.05992841832547452
0.328125,1.0647983634237985,-1.441940090726452
0.33203125,0.18142284049955082,-0.7482514774620839
0.3359375,1.0535283463503131,1.1222429813520904
0.33984375,1.3078823518975535,-0.11376977178065466
0.34375,0.2822661261722296,0.9374643897241317
0.34765625,0.3602559360914699,-1.3190740416674316
0.3515625,-1.2888506068525976,-1.9306775735586525
0.35546875,-2.070626499105631,1.1766088110453
0.359375,0.23620148381748374,-0.17342227904203794
0.36328125,-0.7102815924686123,-0.4366128803144177
0.3671875,0.67230347684296,1.0624094878725163
0.37109375,-0.9038411603580104,-0.12027612454611956
0.375,-0.6940057253742824,-0.11486342376703244
0.37890625,-0.8361442354381272,1.3431485787820778
0.3828125,-0.8828090264786764,0.7773737447906938
0.38671875,0.5614940985647374,0.1340142818475695
0.390625,0.2869647562356863,0.8463542942609047
0.39453125,0.4686220162584833,0.689465933977061
0.3984375,0.38939870811807886,-1.1027039794185964
0.40234375,-0.026789676577052484,1.5110178919039265
0.40625,0.5372486805325353,0.41042960427157293
0.41015625,0.04875969601308854,2.006394054963698
0.4140625,0.5243539081535823,-1.075349613681169
0.41796875,0.13942149267217613,-1.4245858425057043
0.421875,-0.9206555949711478,0.06007541485609555
0.42578125,0.9253485256211958,-2.607080534151543
0.4296875,-0.7227895160395618,0.6591743104961998
0.43359375,-0.12078210655693315,-0.6616807694917417
0.4375,-1.7736295561869422,0.20626373675364065
0.44140625,1.1019102593173564,-1.8714887712345998
0.4453125,-0.10671123239085689,0.6155266365633859
0.44921875,-0.6109735423145817,0.6860664404824602
0.453125,0.6502435034853316,1.3683831213706368
0.45703125,-1.796197827459708,0.1876588024786955
0.4609375,-1.0822154326346458,0.3567814765911307
0.46484375,1.1609608672358258,-2.3424737274224863
0.46875,-0.8053732391779832,1.0210731112755247
0.47265625,0.20924067891714498,0.4638564554357408
0.4765625,-0.33963099810539743,1.599848134180251
0.48046875,-0.09512136101341219,-1.8208227392591634
0.484375,-1.8409907652882276,1.0471723091024185
0.48828125,-0.38135798736878346,1.20474099715409
0.4921875,-0.6417106973720162,0.04926095030808007
0.49609375,-0.44357871272630206,-0.4083235310427581
0.5,1.6935486745926596,-0.8351364204861408
0.50390625,-1.6410442680883446,-1.379866467065616
0.5078125,-1.31154944445221,1.4989665360390116
0.51171875,0.8062227377188735,-0.4384358397942974
0.515625,-1.37940386644515,-0.8035769875852958
0.51953125,-0.6420268605845872,-0.31638306416176726
0.5234375,-2.0297056605316195,0.6994842473302942
0.52734375,-0.6882092169612914,-0.45223637506505515
0.53125,1.1033895312428728,0.2292092295103568
0.53515625,0.6574822572915359,-0.7400181033794974
0.5390625,1.3385514125800722,0.7635603034558671
0.54296875,2.654219167788324,-1.9029661823638224
0.546875,0.03648025279928895,0.1646129548617136
0.55078125,0.5257351530925518,-0.4464400144060449
0.5546875,-0.09009783438794534,-0.45002508673430514
0.55859375,1.053765165515102,1.2594917023980368
0.5625,-0.7113205587192064,-1.0038254527101391
0.56640625,1.777967847196333,1.2214151943802263
0.5703125,0.4550518505347163,0.617751550321435
0.57421875,-0.6347092592832598,0.541181465600261
0.578125,0.601930100416552,0.5896867513068995
0.58203125,1.3830349170945426,0.35511513418020235
0.5859375,-0.6295536294483666,1.564810086623251
0.58984375,-0.9949973108113148,-0.25509864487532213
0.59375,-2.031544290943198,1.1574777507952332
0.59765625,0.1759083649414642,2.7810324702819007
0.6015625,0.6813300550135027,0.4327045808382439
0.60546875,-2.3980658733540627,-1.2632106619979528
0.609375,0.8415189770080255,0.5194639065125464
0.61328125,-0.8941946503235861,0.7295188913246994
0.6171875,0.6426440126236646,0.6046081071034927
0.62109375,-1.2010364681791663,1.3957774686716258
0.625,0.7444876528212957,-0.8315671172057845
0.62890625,-0.5199018575175999,0.9001406157142552
0.6328125,-0.9236754705484288,-0.24889367199844992
0.63671875,-0.4787507979175179,0.672139206408562
0.640625,0.6909042776348268,0.10682593216094013
0.64453125,1.1684655850065162,-0.009404931605257792
0.6484375,0.1853843668693621,-1.858972342248492
0.65234375,-0.7737783670236095,1.0659763832194389
0.65625,0.5287675524193368,-0.011930568164593282
0.66015625,-1.1053678561208968,0.7553448215090168
0.6640625,1.3161073568029857,-0.9099427146273358
0.66796875,0.5657829495921327,-0.583252908864195
0.671875,2.3894416207398734,0.7620931091581461
0.67578125,0.6383166919025847,-1.9084888063531733
0.6796875,1.1350958956256456,0.7812085108634097
0.68359375,1.3781304471499798,0.786479034645209
0.6875,-0.4653287751698914,-1.5504296128134731
0.69140625,1.0003033791687612,-0.8451151712988908
0.6953125,1.3521920042564515,-0.8472945500590416
0.69921875,0.709964593768217,-0.4931446522402084
0.703125,-0.049194546098427286,0.7059020159764018
0.70703125,-0.9991934799955543,0.2037188397461768
0.7109375,-1.348660727682349,0.7368842901819754
0.71484375,1.2396401764669007,-0.44121685165172786
0.71875,-0.8588505068178307,-0.25921733303189104
0.72265625,0.26265773552152744,0.6722511615338598
0.7265625,-0.3931914257829262,-0.03745240624192124
0.73046875,-0.46944679348414764,0.982540503696454
0.734375,-0.28624510438367073,1.877543235920241
0.73828125,-0.5821854843344744,2.349329634079421
0.7421875,0.5004396412492439,1.0146585899412117
0.74609375,1.3625803351406884,-2.5543216180059325
0.75,0.9254487627062514,1.2197596475058785
0.75390625,-0.3866080385164837,-0.6235167513317801
0.7578125,0.03007033135507838,0.10923145880797032
0.76171875,-0.517502588007958,-0.1172935873405385
0.765625,-0.2385994740966221,-1.356024274631359
0.76953125,-0.06044927155079288,-0.6079470169196615
0.7734375,-0.06811861169928006,-1.1232974421270983
0.77734375,-0.15234566137977237,0.44747266155342513
0.78125,0.5180918632180803,-0.09144125432823831
0.78515625,0.5435015784890705,0.4385208376730256
0.7890625,1.0624734485944174,-0.3834254318044265
0.79296875,1.1338205786975912,1.2456378095881333
0.796875,0.6232011305041808,0.6375226440105561
0.80078125,-1.2264158464048973,1.9006323718368665
0.8046875,-0.7731250531746909,-0.9826191221656422
0.80859375,1.181804381756662,0.1541516356750857
0.8125,1.4364687250699166,0.4684495372579163
0.81640625,-0.1416624677958668,-0.02270916596066425
0.8203125,-0.8182281215941323,-0.613099501580038
0.82421875,0.3325255181779779,-0.09910005157001864
0.828125,-1.5830829247029097,0.9687831047344402
0.83203125,1.2713408661616528,-0.880344696586739
0.8359375,1.4734885205935027,-0.13614298646031842
0.83984375,-2.3003300915365177,-0.7534266881766192
0.84375,0.9018146329680464,-0.6254475947861452
0.84765625,-0.18515354398100478,-0.6057608236784873
0.8515625,-0.448171982207545,-1.4200648499990112
0.85546875,0.5406911436685705,0.5035982049238173
0.859375,0.5036567051357786,-0.21051325941582744
0.86328125,-1.0519581055184084,-0.1066098191014374
0.8671875,0.2827693612423609,-0.8796732322233274
0.87109375,0.5033130265733933,0.06454744691669878
0.875,-0.7228403021072094,-0.2182294398237167
0.87890625,1.0512947165897293,0.30866333295565496
0.8828125,-0.8619433563405514,0.6995213670583691
0.88671875,0.40047368141495293,-0.3002474669724659
0.890625,0.5583521761559803,-2.2492434817589197
0.89453125,-0.1477461867409734,-0.2413697128742194
0.8984375,0.19818281029711968,1.4565565909079188
0.90234375,-0.2508667692804153,0.6718077573686524
0.90625,-0.8005131609708594,-0.9556061531779397
0.91015625,0.5774826759968513,-1.147869137918513
0.9140625,-0.8221216099968938,-0.7350522674272197
0.91796875,0.3731845443299213,-2.0668694677568795
0.921875,0.6300944023427252,-0.5570961148657593
0.92578125,0.5865666402616176,0.4520828865736251
0.9296875,-1.2966173969954162,1.5369159805467054
0.93359375,0.9260701221130269,-0.11653670414686244
0.9375,0.41251983255283614,0.09588703677853626
0.94140625,2.8433516494659483,-0.06820334016270935
0.9453125,0.07443538084685425,-0.15351834740689885
0.94921875,-0.5684194607666624,-0.2718739981014397
0.953125,0.7500891405872401,0.40432082233432365
0.95703125,0.25523788504059175,1.4427574106903926
0.9609375,0.528331582354248,-1.3844237544436322
0.96484375,0.2531388375577286,0.00869400354774529
0.96875,0.46213819588720545,0.536881009909606
0.97265625,-0.5123656339552564,0.9234327924869725
0.9765625,-1.0792113520919198,0.9592757233563118
0.98046875,1.533133196247326,-0.671465471108628
0.984375,0.5627317604914194,-0.26404147022131225
0.98828125,0.16458670792237476,1.6229253960010745
0.9921875,-0.04547196937840398,-0.3123638794320874
0.99609375,0.24293883678179745,1.259868700507089
1.0,-0.8998963911637426,0.004593536385811521
1.00390625,-0.676320457752275,0.9708482017103249
1.0078125,0.515306428512867,1.8034706798816715
1.01171875,-0.6489329922381808,-0.057828666551066096
1.015625,0.10923167118611375,1.5081686957340719
1.01953125,-1.0608425779014357,-0.6218435893097441
1.0234375,1.5978540781432544,-2.3961751721320317
1.02734375,-1.6876938779585153,-1.4269818649429096
1.03125,-0.7979538364302806,-1.3212781690915083
1.03515625,2.043601834889651,-1.7062832184580488
1.0390625,3.5427596871091684,-1.9727764131408911
1.04296875,1.6631910239551015,0.7432425321701087
1.046875,0.11124538221551175,-2.4392527831285946
1.05078125,-0.7425414310459474,0.6980125422281777
1.0546875,-0.4263852564573743,1.4858226443234834
1.05859375,-0.05702346965723162,-1.097709491184316
1.0625,1.2942627629800632,0.7364874748990338
1.06640625,1.1990532316725901,-0.7044745516211743
1.0703125,0.10152870929543843,0.2355343224489157
1.07421875,0.265820455036831,1.523503811331024
1.078125,0.23061803679540074,-0.38639390865772827
1.08203125,0.4161656044923621,-1.2405006421140754
1.0859375,-0.44872699511282005,1.8971158075197965
1.08984375,1.0058439782322992,-0.6108384958284117
1.09375,0.8592199971696082,0.22921162715729107
1.09765625,-0.9332003206175058,-1.0842996866055827
1.1015625,1.5457868796949363,-0.8509746401442343
1.10546875,-0.7810109294251643,-1.4051186093421082
1.109375,-0.3121377016729153,1.0928333463214712
1.11328125,-0.19691746396835008,-0.02403437959869777
1.1171875,1.6199689371477954,0.24677869012782055
1.12109375,-0.4531402443090597,0.1643947568344992
1.125,-0.3648850599720015,0.16382844849493927
1.12890625,0.23090426200819816,1.3331919375237313
1.1328125,1.417946149275694,0.5583429376651695
1.13671875,0.9108443950254901,0.09866764349319355
1.140625,0.5526708500091309,-0.14432180823621477
1.14453125,-0.479792561371893,0.04300517917428517
1.1484375,0.36887183775513793,0.3552247589901227
1.15234375,0.4607794361216703,-0.48468531419509486
1.15625,0.016092499342611657,-0.24091196331199952
1.16015625,0.33737561540301986,0.26609335941010237
1.1640625,0.2224065523228308,-0.04418178394557627
1.16796875,-0.2166252676261065,0.8956795016128463
1.171875,0.7699696084986576,1.1141815868616705
1.17578125,1.661111966119723,0.19280078516441476
1.1796875,0.8071443780234956,0.3327812412578022
1.18359375,0.5235009105317378,1.6710877893301923
1.1875,-0.6697254432367561,0.8253692077558797
1.19140625,-0.949901333814506,0.939693750017892
1.1953125,-0.2817391688460506,2.4350631829443747
1.19921875,0.7720531317471548,1.2056676676716382
1.203125,0.7328104604734391,-0.05156516153243478
1.20703125,0.5966219638428353,-0.4658006961868942
1.2109375,0.29941230836147875,-0.6724370449338785
1.21484375,-0.8707892417223371,0.2954129296285035
1.21875,1.0189807398252835,0.44632150814000393
1.22265625,-0.35607928748336953,-1.4427433118474708
1.2265625,-0.7905338471335511,0.3958948569990516
1.23046875,0.09340178066601144,1.4245320427713648
1.234375,0.1980742600715104,-1.514972992855442
1.23828125,-1.5627103003032277,0.32443651850567956
1.2421875,-0.747055079483644,-0.36715937954804867
1.24609375,0.21040543923776456,0.2438489794875523
1.25,0.3307174576135678,1.7483286086341518
1.25390625,-0.5969703309837803,0.39052313288530405
1.2578125,-0.0937545118054238,0.6779880836044412
1.26171875,2.0219646005179515,0.4520288622344198
1.265625,1.5930242076943393,0.17894979257129914
1.26953125,0.4892990748687154,-0.32710474110720184
1.2734375,-0.35687241562924016,-0.7045893334043088
1.27734375,-0.03884757027072003,-0.2463579654101734
1.28125,-0.7471025634480757,-0.8774506962972235
1.28515625,2.0340590791698268,0.08384431465324588
1.2890625,0.9714089287434822,-0.037775194657883246
1.29296875,1.2790248333556757,-0.020983141023848895
1.296875,-1.8069146431973604,1.695638517036597
1.30078125,0.8309351735728214,-0.7371649666087573
1.3046875,-0.3919490032087719,-1.7992332180253456
1.30859375,0.4606078900778584,0.7544575480137353
1.3125,-0.7737883135650978,-0.48971714544661343
1.31640625,-0.04644118356523998,1.5062206462076335
1.3203125,-2.387733931567022,-1.019316683901625
1.32421875,0.5579555192098294,-0.5817115605763494
1.328125,0.39891529269755055,-0.28492792390806304
1.33203125,0.372590272253354,-0.2566344888364086
1.3359375,0.3781697381549567,-1.3760649533617766
1.33984375,0.9854931509557513,-1.7610072618934667
1.34375,0.5727843576634576,0.7927417809455152
1.34765625,-0.04628201542199266,-0.017090608461872075
1.3515625,0.2078701897689217,0.015638610923817995
1.35546875,0.6358127485959871,-0.05805698797148453
1.359375,0.3816115658153443,-0.652735783005042
1.36328125,1.274640718922112,-0.9585548405358763
1.3671875,-1.8467717784348077,-0.26671691251876867
1.37109375,0.9849093549013945,-2.5338322698241114
1.375,-1.942993750165856,0.7893178488906961
1.37890625,-0.7271894597742296,-0.1811550161399763
1.3828125,0.32089419494021654,0.3729107573864482
1.38671875,-0.9202700646365553,1.8459936552481415
1.390625,1.8996856719024564,0.13535452182722993
1.39453125,-1.44928657802187,1.9968713945391925
1.3984375,-0.059356894853944714,-0.4601839698694787
1.40234375,-0.6787735951552908,0.9573703337903927
1.40625,-0.5265693215488058,-0.23961365650614086
1.41015625,-1.4681178120543104,0.4135661462085395
1.4140625,-2.0854041785300743,-1.2466043593953673
1.41796875,-1.359441171961274,-0.19473266651909324
1.421875,0.4494967446134797,-0.520758404744189
1.42578125,2.4268211580197985,2.5146367917737265
1.4296875,-0.5247881641535875,-0.7057211275273318
1.43359375,0.5311305911856157,0.3194259566996718
1.4375,0.4465848874717073,0.2602441195027163
1.44140625,1.251132418478189,0.7057113611011644
1.4453125,0.5927966323379805,1.5350900288751128
1.44921875,1.175586272946595,1.0180377092912862
1.453125,1.479719389407125,0.3580232927246173
1.45703125,1.058175485030427,-0.668686111221426
1.4609375,0.45220689303625705,-1.095880731662905
1.46484375,-0.5423020237439405,0.8849904699278119
1.46875,-0.5146782310557073,-0.17449791069016898
1.47265625,-0.7111844998568697,-1.267794514623949
1.4765625,2.6293471776427166,-1.695992317706024
1.48046875,0.620255886828808,-1.1322488058392546
1.484375,1.0951472533184674,-0.5167559864970619
1.48828125,0.7253148768452319,0.8693765765656074
1.4921875,1.5834122771686414,0.004309205260582902
1.49609375,-0.4036552912938013,1.6954543385575105
1.5,1.7224745805993844,0.7702480766834755
1.50390625,-1.1470523039258937,-0.8764787599553543
1.5078125,-0.362467036749556,-0.9300624832974207
1.51171875,0.6856772408018565,-0.04923463482942878
1.515625,-1.1888133804337706,0.55218991026273
1.51953125,-0.13638872752499662,1.4745989559256505
1.5234375,0.5612772360143353,1.0947406428940465
1.52734375,1.7293602178809147,-2.486554231067018
1.53125,0.7089352717124104,0.7643245974982238
1.53515625,-0.6321065489036704,-1.2800232746394344
1.5390625,-0.4930797167052994,0.8424952753170211
1.54296875,-1.9875453318578828,0.2041574098406437
1.546875,0.23267862783214857,0.07958109989909748
1.55078125,2.718853687473951,0.255792947415153
1.5546875,-0.8355121373641201,-0.3469758313060409
1.55859375,-1.2625691869898172,0.26385970623849525
1.5625,-0.5286638006273642,-1.738836986826436
1.56640625,-0.9205116773729077,-1.2704257574544275
1.5703125,-0.03160088884459638,0.8647524979659675
1.57421875,2.136238309578209,0.3507030428180826
1.578125,0.9629281736888398,1.1100560647891844
1.58203125,-0.03919541448792441,-2.213629204870983
1.5859375,2.485039755177233,-1.2556083513061578
1.58984375,-0.02837200428572093,-0.6862521873126898
1.59375,0.42831111661000365,2.784267874723203
1.59765625,-1.1964619509587637,-0.1983834108897522
1.6015625,-0.07090420811342443,2.9539628887079097
1.60546875,-1.4467179107949237,0.8204060294366542
1.609375,-1.8930331816927075,-1.2684231899890173
1.61328125,-0.4871515067387006,-1.226012128734246
1.6171875,1.7611947330139264,-1.0849822328939935
1.62109375,1.0680686775241077,-0.05657166959550121
1.625,-0.15263218374241902,1.7478711677900234
1.62890625,1.7215801649798714,0.22138273693552632
1.6328125,-0.42638994938728486,1.5727999811080375
1.63671875,-1.4719717675755966,-0.5591993891123044
1.640625,-0.02388962885681798,1.3139103382094721
1.64453125,0.8617569190334149,0.5567781583556867
1.6484375,0.5297380752806983,-0.8955026000698617
1.65234375,0.8792680946109257,0.35072595426309316
1.65625,-1.2818333089606873,0.1933167895020361
1.66015625,0.5700455840052221,0.31523990284771986
1.6640625,-0.402436543557367,-0.4535249523590385
1.66796875,1.449052141966386,-1.4662624400939521
1.671875,0.026414119703827954,-0.2119721160595668
1.67578125,0.4929944355927558,0.11618857224241105
1.6796875,-0.21344880262883373,-0.3391316236400926
1.68359375,-0.25021327388653136,0.06237433206891826
1.6875,-0.3414836258551261,-0.41643196540670896
1.69140625,-0.7092244951707292,0.6504248717280113
1.6953125,0.38418636385488003,-1.3709335321141156
1.69921875,-0.8921028892872359,0.6785029066635091
1.703125,0.8413446448118787,-0.8844682101175387
1.70703125,-0.9955682474983549,0.5021087677298686
1.7109375,-0.2912973458298284,-1.5936640471685757
1.71484375,-0.6278366199377514,-1.732970089345441
1.71875,-1.457397252426083,0.20290082367573795
1.72265625,-0.8592665987454499,0.4232034724345284
1.7265625,-1.6876900920050693,0.20579827278415483
1.73046875,-2.0731916875301537,1.5030789622587017
1.734375,1.4077518795388704,0.46436546770652964
1.73828125,0.04156886626881943,-0.35752238361114713
1.7421875,0.3227643518970412,-0.8876090050931115
1.74609375,-1.7940814887749692,-1.0750276996701535
1.75,-0.5237885877574373,-0.8686129198228142
1.75390625,0.61102755623314,0.369075733804754
1.7578125,-0.42122431212467815,1.1707991122551147
1.76171875,-0.15104593649955866,1.0052821763758506
1.765625,1.0010823261459398,-1.2939435373068695
1.76953125,2.0187337425420377,-0.22592362836107138
1.7734375,-0.1738900899087667,-1.0045595587321636
1.77734375,1.5764624192007861,0.569243488126718
1.78125,-0.2223326506782997,-0.5352890181776013
1.78515625,0.6408865407314208,-0.6580861955527032
1.7890625,0.8044440755007851,-1.1647202224099176
1.79296875,0.03869127832352968,-1.2137786672196476
1.796875,1.4902439319053462,1.7510622992015463
1.80078125,-0.5093152990834662,-0.9046561560611027
1.8046875,0.5471043620962351,0.5667047005975013
1.80859375,0.7102879709037395,-1.6644922302221898
1.8125,-0.4059813169018567,-0.8393918137517598
1.81640625,-0.43116489482774056,-0.42266766166302844
1.8203125,0.07617712291168396,-0.030380533377744552
1.82421875,-0.39298969250832205,-1.7509030450273309
1.828125,0.3420035234308402,-0.4827832882557516
1.83203125,1.0088881940500543,0.2848554909096608
1.8359375,0.4555301586283663,-0.42886527716190526
1.83984375,-0.21577255718941185,-1.3513872225242116
1.84375,2.322347822134759,-0.5018414188080532
1.84765625,0.2392051333349493,2.0692300816430826
1.8515625,-0.45124393925758655,-0.026340328116435104
1.85546875,0.6694639389935597,-0.6131383463465252
1.859375,-0.3179218875510939,1.8146458158066774
1.86328125,1.1754928947448757,0.10902063280918001
1.8671875,-1.308634402605983,0.8035597337891621
1.87109375,0.0975603531023111,-1.2890442670381825
1.875,0.13313994007138047,0.7206444117410513
1.87890625,-1.3594785659290345,-0.18396647837202706
1.8828125,-2.455383825466697,0.7985075927011959
1.88671875,-0.5945714288706954,1.0969276393418637
1.890625,-0.8547032114636446,-1.1091538473377685
1.89453125,-0.08317041673831257,-0.7573974641787589
1.8984375,0.5552741704756907,1.3291060036181286
1.90234375,-0.9074133670433794,0.504517313221525
1.90625,1.9539926181034937,0.9385501507505261
1.91015625,-2.7510055887290172,0.15319867698416065
1.9140625,0.9262767732330165,1.76523091551824
1.91796875,-0.2847029752948418,0.5907192296484217
1.921875,1.3570503561145284,0.1573741846164573
1.92578125,-0.45993929587898447,0.4296783993846833
1.9296875,-1.2631770075534967,-0.8551603711732892
1.93359375,0.6127330548754695,-1.4553154877347991
1.9375,-0.8124442962681621,-0.44277813411410355
1.94140625,0.7535630336600772,0.11795490052107864
1.9453125,1.7096085068300126,0.6887605171092626
1.94921875,-1.4277783744996861,-1.56501897546437
1.953125,0.17420862160839656,-1.7033394685711742
1.95703125,0.6122703173402135,-0.16673346878302076
1.9609375,1.6589228702445644,0.43259800532983694
1.96484375,2.940143609628268,1.2629337201784785
1.96875,-1.459355318291973,-1.7032454021585441
1.97265625,2.897635216228898,2.1158033306022985
1.9765625,-0.1936015969915118,1.3042413603224596
1.98046875,-1.848972470243819,0.5313048166834232
1.984375,0.16892124710316017,0.9282510718186556
1.98828125,0.4579908448744524,0.34914833980440246
1.9921875,-1.9934285689293478,1.1243489203228283
1.99609375,0.8745689411757201,0.8265314228289464
2.0,0.7177799393255385,-0.47215451758880345
2.00390625,1.5864613580088347,1.2168234747202797
2.0078125,-0.38156444688500213,0.24620618451253762
2.01171875,1.3470281057613187,0.5752596472179135
2.015625,-0.026978136676654302,-0.3545474264644301
2.01953125,-1.2648085889832699,-1.0309094715934815
2.0234375,-0.9232823703320941,0.3069514735154432
2.02734375,-0.5025534132052982,-0.0008262350696640244
2.03125,0.47475922069403415,-0.7710292739024863
2.03515625,-0.17863353207081992,0.7296631863234888
2.0390625,-2.00511738060593,2.1880607007747117
2.04296875,-0.27757778079328493,0.3727953059612543
2.046875,0.09722607933383988,-0.22239190430587943
2.05078125,0.8453482730989981,-0.7442720012402703
2.0546875,-1.0337436976393621,-0.5084996487640173
2.05859375,0.21541616523500495,0.06311037149478202
2.0625,-1.5473039953902388,0.7460217372387176
2.06640625,0.10700624338382642,0.19226620876714215
2.0703125,-0.3684490424542513,0.35726933346796275
2.07421875,-0.22461943581972116,1.3459524663755842
2.078125,-0.8582291155888896,-0.5212981706055398
2.08203125,1.8295339657553387,1.3807835170289549
2.0859375,0.6491116805457894,-1.6200176146959826
2.08984375,-1.3464472211577265,-0.19919666541836106
2.09375,-0.5899516422632367,-0.11395220535423216
2.09765625,0.4262702114540943,1.1681769476698842
2.1015625,-0.4935978464445673,-1.2448694943038137
2.10546875,-0.33499207803867476,1.9965024872716048
2.109375,0.8491092683013811,0.10766705511698536
2.11328125,0.2505691706569921,0.13554951878330965
2.1171875,-0.49268635860006565,0.3825633697062857
2.12109375,-2.0070967173395764,0.33768276345391157
2.125,-0.8416287664382804,-1.3003624023071996
2.12890625,0.23581245342021304,-1.7570672324421095
2.1328125,-1.4114973864385312,-0.23994743907206145
2.13671875,-1.188298488994779,-1.7167780380905089
2.140625,0.9672155281562961,0.5137653135650497
2.14453125,-0.5254424984501409,-0.052991728802999585
2.1484375,-0.8025804308678115,0.8360345684456802
2.15234375,2.489704285178285,-1.0151861266478222
2.15625,0.472787760098093,0.18690078390631282
2.16015625,0.014212563068727462,0.7031222796404001
2.1640625,1.9365191991359552,0.07831030736313094
2.16796875,-1.7667100465135883,-0.799943579357499
2.171875,1.898648502971321,1.1251573946759348
2.17578125,-0.6820337956558622,-0.7211804559328221
2.1796875,-1.4069872891764608,0.6436739629355502
2.18359375,-1.089731069269305,-1.3807061702866719
2.1875,0.19385192809650606,-1.8976410930637764
2.19140625,0.08674380836553393,0.8771111559791674
2.1953125,0.2852257171417925,-0.12881268146950878
2.19921875,-1.672845508544766,-0.4810256978059341
2.203125,1.4754124475903856,1.1690647440929125
2.20703125,1.4288248461457116,1.3172334640970742
2.2109375,-1.6928467782961123,-0.5212427582685176
2.21484375,0.472514150028577,0.5538043690576623
2.21875,1.8858318114712918,-0.28735610876856255
2.22265625,-1.1170996529194523,1.8122955624170818
2.2265625,-1.0492891834657678,0.2676066453215109
2.23046875,-0.3732825767221602,-0.9301578822593797
2.234375,-1.6882662758620492,1.1157923111659298
2.23828125,0.19532754073119668,-1.0398568252384868
2.2421875,-0.4874076387113029,2.287879256395541
2.24609375,0.4308698497241108,-0.5876099989885618
2.25,0.7063576451247503,-1.8217251898483877
2.25390625,-0.3942088509105663,-0.631970268668247
2.2578125,-0.5997494023939982,-0.0127955194779052
2.26171875,0.7166996746879168,-1.4123041335100883
2.265625,0.7431443552818023,0.3617019803108615
2.26953125,-0.7517267363064634,0.13422739109891793
2.2734375,-1.651529120300911,1.4241201855961454
2.27734375,0.9694623977081656,-0.5825080889771677
2.28125,-1.1849667783819737,0.8385092277225338
2.28515625,-0.4750863306862128,-0.3883398128688984
2.2890625,0.7118596302202153,-1.8159829112540475
2.29296875,0.04218220265950465,2.518843210167329
2.296875,0.7031242513563775,-1.198717347271326
2.30078125,-0.09379176772742395,-1.418360051080464
2.3046875,-1.4140677550695235,1.8378548240049006
2.30859375,-0.7022519392045399,-1.0569488417842479
2.3125,-0.9526187989285376,-0.24804258404370802
2.31640625,-0.6195593881114975,-0.3621231358145006
2.3203125,-1.4283657302036321,1.0437490603726052
2.32421875,-0.5432814525193153,-0.039769652821618956
2.328125,0.3447161284852258,-0.556420891727913
2.33203125,-1.7094218488262747,1.49193012619884
2.3359375,-1.3504467922019545,-0.30669325206190673
2.33984375,-0.813993339391709,-0.7309579595812179
2.34375,0.4915816956130713,1.3941130897380283
2.34765625,-0.6741554955157597,0.6647599974669753
2.3515625,0.8740199455753066,-0.6611691178871965
2.35546875,0.8435787360654888,0.5833487424715542
2.359375,1.4119937419163175,0.4256675665943595
2.36328125,-0.06320704581580895,-0.6669479790212861
2.3671875,2.2141515419983,-0.5979308823716043
2.37109375,-1.0958227730569463,-0.2648032103308115
2.375,0.5783406573349295,-1.361152825958151
2.37890625,-0.5300748388696018,0.3387456507386913
2.3828125,0.31232919295197503,1.0985779347240645
2.38671875,0.9178888191003008,2.4171048891739875
2.390625,1.043406936038695,0.5409351191531045
2.39453125,-0.9336634928208294,0.5627428054575506
2.3984375,-2.2866277270207647,0.3049032776575845
2.40234375,-1.2253754394583372,1.7648468062558844
2.40625,0.797623148133867,-0.03758284686538636
2.41015625,0.22060191638170273,-1.2060240076291266
2.4140625,0.6179513695278686,0.20436523295678446
2.41796875,-0.5115607919455779,-1.58554779506626
2.421875,0.08654213891040866,-1.265474292521174
2.42578125,0.13013137736884164,0.044502771382584676
2.4296875,0.5671750354078386,2.1578227724886223
2.43359375,2.0667592816579186,-0.5442698247830546
2.4375,-0.6106616374034436,-0.9460792353526537
2.44140625,-1.2645714448469794,0.4332875782339489
2.4453125,0.8948108796628862,-1.3626256050683587
2.44921875,-0.7750245231434579,-1.414515640198867
2.453125,-2.065405983886774,0.8594613511685067
2.45703125,0.8248535684214556,0.6745968090176451
2.4609375,-1.1137983881354823,0.8876469600296577
2.46484375,-2.0338247904559044,-0.7467280746913519
2.46875,-1.319983266778556,1.8328923918167574
2.47265625,0.3890354651638553,-0.993198419543627
2.4765625,-1.0164261924883287,-0.3581328614206783
2.48046875,-0.4412306540490793,0.9871589334118833
2.484375,1.4604054932379118,0.2239591822369689
2.48828125,-1.213128289077673,0.32527070752724785
2.4921875,1.2835437856639582,1.040061119200107
2.49609375,-1.1112941559216425,-0.877403867889468
2.5,-0.5726796310556072,2.788135404149791
2.50390625,1.4354854228176062,1.4452047363983789
2.5078125,-0.32900365437370477,-1.1535310784990438
2.51171875,-0.29104014423160546,0.0381077771890138
2.515625,-0.22031196078960583,0.6658253870011142
2.51953125,-0.679664911485932,-0.7538864422822981
2.5234375,-1.4640169644535792,1.9693582383073247
2.52734375,-0.9956724690066654,0.538749648762482
2.53125,0.16568413999473533,-0.0986424396684198
2.53515625,0.5674346049981029,0.6304511952092792
2.5390625,-0.5320979053377872,-0.3117203663319599
2.54296875,0.0042674538935211824,-0.9130784933973484
2.546875,0.1667724455245896,-0.6018474118724416
2.55078125,1.2602922015973885,0.5543638275892288
2.5546875,-0.7138441441233613,1.0018035023464906
2.55859375,-0.7665434132439972,-0.15092295245836812
2.5625,0.22234883722085877,1.1399514046648893
2.56640625,-0.3804034116823236,0.7946957723617166
2.5703125,-1.464956503370336,0.7062856889189005
2.57421875,-1.7238062792787496,-0.9667090488770652
2.578125,-0.39396965113883703,-0.23265430369810697
2.58203125,-0.4362294709133044,0.41375892593192853
2.5859375,0.6708348889080253,1.387614616876318
2.58984375,-0.04819672058089494,-0.031346790201239365
2.59375,-0.9215775022070638,-0.41077833210080283
2.59765625,0.8350450138716509,2.1478046744705237
2.6015625,1.018931329335402,-0.4718442591667864
2.60546875,0.12245273720214568,0.19000193622939407
2.609375,-0.13897585539021046,-0.4230409966629054
2.61328125,0.06324961151112635,-0.4600708759217317
2.6171875,0.265359743737361,-0.0306849621486924
2.62109375,-0.0461090552762861,-0.12000310662757724
2.625,1.711565700881751,0.775631158654544
2.62890625,-0.3787408482068354,-1.0947920864565202
2.6328125,-2.4899603047886787,0.3510922168035997
2.63671875,0.02161474612466897,1.52995786348237
2.640625,0.07448792826159381,-0.04727780308077685
2.64453125,1.4587102822878626,-1.0756267138799456
2.6484375,0.2192203904551142,-1.682549265132532
2.65234375,-0.7352219566420815,-0.31126910167685634
2.65625,-0.6318691859065643,-0.2815939749110773
2.66015625,1.0626994803171887,0.004644809299972388
2.6640625,-0.977352339776351,-0.2861143466060166
2.66796875,0.022251760522813115,0.23713473973822094
2.671875,0.10562826720587033,-0.8611641540395703
2.67578125,0.878920820927847,1.2223752311817402
2.6796875,1.2391241838797167,0.9393223908524675
2.68359375,-1.1891533748495395,0.8021131334350148
2.6875,-0.11566682239724653,0.02918807113939559
2.69140625,-0.6890921527724306,-0.5188707959636341
2.6953125,0.5498594384320967,0.337428792705736
2.69921875,-0.49457289934164655,-0.7930612937033019
2.703125,1.0470954832895543,-1.3599340165210827
2.70703125,0.25099326002764233,0.47356834476147813
2.7109375,0.32206096177244314,0.20866401813907054
2.71484375,0.7583321998638094,-0.768612643961347
2.71875,-0.6115729706231695,-0.8446040295469418
2.72265625,0.24662743213470553,0.5053228900718574
2.7265625,0.8163464094387137,-0.5948052737147961
2.73046875,-2.055170654136824,1.4802282865597467
2.734375,0.07505012394992551,1.339172281473887
2.73828125,-1.7517327696089968,-1.5299649351875684
2.7421875,0.9316200714615347,-3.008476783076407
2.74609375,-0.5775576475279857,0.7025471847210418
2.75,0.5496786090964448,0.26370023757791583
2.75390625,-0.8390772167834631,0.6313128136639885
2.7578125,-0.428859016401577,-2.3949697736823636
2.76171875,1.7247474928866802,0.08228124784785289
2.765625,1.0834273513517065,0.6819234646697204
2.76953125,0.25171847687532806,0.817433356782079
2.7734375,-0.17296119780179714,0.06602191639231336
2.77734375,-0.41337270368333445,0.29292615170017583
2.78125,-0.7804613964306053,0.16137656556589974
2.78515625,-0.13893639195147578,-0.05548070226322794
2.7890625,-1.7517896918589437,-0.9753021813472601
2.79296875,-0.6472083185121277,0.5204530355560179
2.796875,-0.6497747290573256,0.36994953814782955
2.80078125,0.37500051820636887,0.3548264487957543
2.8046875,-0.6757652809688459,1.0567045056840527
2.80859375,0.5352732862174799,-0.21240601970157333
2.8125,0.545334404303161,-1.3595312556481158
2.81640625,0.8037523719955066,-1.0095345251549421
2.8203125,0.3964218562879351,0.9027052975365872
2.82421875,0.422790258785674,0.3650505641616306
2.828125,0.6342494589638501,-0.8161213879382213
2.83203125,1.3238545223405154,0.22464370954301643
2.8359375,0.3514670265608748,-1.0407758815475279
2.83984375,0.8624680307538458,-1.0580552877520113
2.84375,-0.6016158890448513,1.5967997267393632
2.84765625,0.407988806068331,0.21531705845994772
2.8515625,0.054175630920165724,0.9237246262683814
2.85546875,0.813530486546831,-0.46166448085893885
2.859375,-1.7937105523659809,0.9196142212253271
2.86328125,-0.22371436218673088,0.29108329985641346
2.8671875,-0.805125724600484,-1.2643458868408266
2.87109375,-0.6261223992909254,-1.149296503577853
2.875,1.1134367608317746,0.6181438409317251
2.87890625,-0.8037860448249269,0.9690388177880399
2.8828125,0.0854260091971736,0.07721232309961387
2.88671875,0.3163373640679775,0.9566539738367679
2.890625,-0.9128329092974821,0.2761744668058153
2.89453125,-1.4539887889822904,0.37696484930972546
2.8984375,-0.31381956892617036,-1.42829678654404
2.90234375,0.6640338499501307,0.4806157996250313
2.90625,-1.1227414366611435,-0.7747301566737737
2.91015625,1.814353435612098,1.5242800781432413
2.9140625,-0.22269148599858848,0.3865795003449269
2.91796875,2.0663937659393294,-0.8798987038469883
2.921875,-2.1140127636514388,0.010611434452885054
2.92578125,1.4486114430914616,-1.8471807456447824
2.9296875,-1.1178030089716327,0.5422748489814709
2.93359375,-0.16588012749884695,0.79947375968681
2.9375,0.7938599427206813,0.4489832022137347
2.94140625,-0.04862272500366383,0.010961948099338337
2.9453125,-0.10277368744113927,0.2791727770619623
2.94921875,0.48510379195918674,0.6502640928406881
2.953125,0.7363406571675805,0.20288192046623538
2.95703125,-1.4204381290811385,0.05814872388378459
2.9609375,-0.9167405605334912,-1.0398574261066564
2.96484375,-0.20984748564982028,-0.9234210713210892
2.96875,-1.3110096837284662,-0.1618994068454306
2.97265625,0.46935052353439666,-0.03585258459448589
2.9765625,1.4867214521009897,0.9318182759346989
2.98046875,0.2645884888474851,1.2189654359964601
2.984375,1.3209133951852667,-1.4215029169760778
2.98828125,-0.32412345650177465,0.08866022348564656
2.9921875,1.73362798363879,-0.9393991176190689
2.99609375,0.010651606523685905,-1.1987347871551994
3.0,0.1395649117927904,0.2692211552100829
3.00390625,1.3826289815258455,0.09891697918376637
3.0078125,0.10475390885072765,-1.6156605317139658
3.01171875,-0.18523443540790957,-1.0565240397372178
3.015625,-0.9024825549470695,-1.0934457708738705
3.01953125,-0.012464690068429644,-1.0098683194982274
3.0234375,0.11518473359531446,-0.19173788372096007
3.02734375,0.37893562562642935,-0.5597547184375894
3.03125,0.5208463548386724,1.3218182983489943
3.03515625,-1.1502236225615396,-0.8292814206940213
3.0390625,0.18759945149995116,0.5436057624532118
3.04296875,-0.35503042495762377,-0.7749733407423857
3.046875,-1.2014784312618463,-0.9205931173123935
3.05078125,0.8220392690280584,0.9450881331697412
3.0546875,-0.6109920952561396,0.44690664708252736
3.05859375,1.4200938740045086,1.6228028921934854
3.0625,1.7640171566276477,-0.720143561722908
3.06640625,-0.47542205144458777,-0.956127991472312
3.0703125,0.20553939643578586,-0.015944733926524558
3.07421875,0.4594286296460048,-1.7306640662444417
3.078125,0.8995745036287943,2.6566140457266356
3.08203125,1.429697227734656,-0.9576679272660116
3.0859375,1.7086791762330826,-2.4660025354637862
3.08984375,-1.7302817287695984,-0.3994554761641011
3.09375,-1.8124798738094001,1.5697494421089961
3.09765625,-0.7076368423943478,1.1703095430528736
3.1015625,-2.0994143164510373,0.10743801507949667
3.10546875,0.3750528152512273,1.0199362660791318
3.109375,1.3445263616016385,0.4005617206911094
3.11328125,-1.4859739529233964,1.3052325357005052
3.1171875,0.9360229253973976,0.5629443262285055
3.12109375,0.20091069957366678,1.4412301997261119
3.125,0.3620492859754397,0.2330958577729115
3.12890625,0.34713364389564916,1.0213859142591437
3.1328125,0.113889347532103,1.1455684478248556
3.13671875,-0.6214138089091753,-2.2179974652065817
3.140625,-2.052919129772028,-0.9212096044465072
3.14453125,0.4725784433155687,-0.8833413907122745
3.1484375,0.11968449481713059,1.0864733494591843
3.15234375,-0.15535009343676423,-0.8967045095241802
3.15625,-1.2770144813449458,0.1752504766713025
3.16015625,-0.27216416082826245,1.4881199119524318
3.1640625,-1.8099184046584895,-0.24225318872283527
3.16796875,0.36840679597017634,-1.0527424800310934
3.171875,0.31899981159378304,1.3563815342154537
3.17578125,0.31118608247933066,-0.5543565024154407
3.1796875,-0.16252792112925118,-0.2298523173038319
3.18359375,-0.5148999706190217,0.1758238315192254
3.1875,-1.0307098824819918,-0.12273032387612816
3.19140625,0.0035314288992104263,-0.696591910203361
3.1953125,0.9916113021143136,0.15701035170166464
3.19921875,-0.38659473079571266,-0.22340781924161343
3.203125,-0.5494633261898179,0.23208672359817722
3.20703125,1.7676756844492636,0.13975740638354403
3.2109375,0.9311298982617097,0.8659803563650513
3.21484375,1.589233265055087,0.39477780243679395
3.21875,-0.11195856738014626,0.39434045347496466
3.22265625,-0.8097045388015935,0.9839349646568996
3.2265625,-0.3886049192320565,-1.516476922864057
3.23046875,-0.09941681507988538,0.3521938389712437
3.234375,-0.39774318970447764,1.0134442969027342
3.23828125,1.8916654637387018,0.16886983643066156
3.2421875,0.027985992604100264,0.9905370743903759
3.24609375,-0.5357325230229475,-2.4446779028948353
3.25,-0.8416413467921036,2.0306017481149152
3.25390625,2.070475996278785,-1.2401609234226854
3.2578125,-0.07476158649578774,0.36032883285377704
3.26171875,-0.38694639765571825,1.2104518671919304
3.265625,-0.9983123729914407,-0.3164654113807706
3.26953125,-1.113355761546898,0.030730712944013822
3.2734375,0.45709252242093196,-1.3451146627117367
3.27734375,0.8578641806149233,1.4122141954214633
3.28125,3.3906115228863998,-2.0236417612411324
3.28515625,1.4574140260936055,0.5074004516767371
3.2890625,-0.5352307180337808,0.9020391903986879
3.29296875,0.307828849081574,1.0001007544343785
3.296875,0.41931243671200547,0.11565816700668323
3.30078125,0.5254827704735471,0.7329242966568702
3.3046875,-0.9956075691999282,-2.1155521030116047
3.30859375,1.8743317148094045,0.2163603078588948
3.3125,-0.9926904387343705,0.6238119593171688
3.31640625,0.531984373926067,0.7124584769994197
3.3203125,0.731669543713085,-2.4542162962780365
3.32421875,0.22828629538984138,-0.7897502964704999
3.328125,1.4269858605450447,0.8475093586495157
3.33203125,-0.6430364609726291,0.10678229092250423
3.3359375,1.1560562076501635,-1.144089424562087
3.33984375,0.24881069904728725,0.4412170594368175
3.34375,-0.3330910266368267,0.2873311652610428
3.34765625,0.2264969568110815,-1.201950784903112
3.3515625,0.1728616006335279,-1.3088119088055477
3.35546875,0.648622714148848,0.09061005518413119
3.359375,-0.23736770953637398,-0.7977022633769905
3.36328125,-0.46152896490036,0.028574503574278206
3.3671875,0.7691309184923718,0.5126416060983764
3.37109375,-0.2655252066682643,0.9697700771737103
3.375,-0.7568987221632074,-0.43732973070629566
3.37890625,0.5536731357993453,0.2057104503071696
3.3828125,0.550966189939813,0.8113704780567299
3.38671875,-0.028913338056682645,1.4686768740413394
3.390625,1.9163153392847865,0.9707484695668818
3.39453125,-2.2397886329573278,0.90233006760127
3.3984375,-1.0570039186890747,0.7377494067812163
3.40234375,0.17928139530747228,-1.0868432246407809
3.40625,0.6356167956768956,-0.1348908113456997
3.41015625,-0.22474572064123485,2.0189962364014162
3.4140625,-0.804021531879924,-0.7770573072318148
3.41796875,-1.3957683252806976,0.700892201186287
3.421875,-0.16887684612300613,0.69647697844833
3.42578125,0.7937006798963575,-0.8737968337591653
3.4296875,-0.7094287469755837,-0.6978067164259487
3.43359375,-0.11492931678447234,-0.09193897023047191
3.4375,-0.4092505912937691,1.7847933470081963
3.44140625,0.15125693019972616,2.3302351095492946
3.4453125,-0.7672659147654965,-0.0035782967976216115
3.44921875,1.8201310736552259,-1.607584512600581
3.453125,-1.2226110929428504,-1.4715559514112742
3.45703125,0.13851507158473633,-1.0149346965986532
3.4609375,-0.19284907308038393,0.663715863384942
3.46484375,0.3544106177572835,0.862319201901507
3.46875,0.03122044745808024,-0.24643473960711493
3.47265625,-0.03582132224781354,-0.39500735034530887
3.4765625,-0.3442731354741857,1.343756231683488
3.48046875,1.7020317213018834,-0.04607948306461282
3.484375,0.41477071878720406,0.9445325394498966
3.48828125,0.24741569095507665,0.06208283039277901
3.4921875,-1.203748659788454,1.7572161726799136
3.49609375,0.790494645724219,2.5519663804893638
3.5,-0.5467144082741477,-0.4410775875403748
3.50390625,-0.629879930173602,-0.8042674971911995
3.5078125,0.863924102768051,0.9221181124940004
3.51171875,0.7096564076600332,1.644196672124598
3.515625,-0.07608879338969712,-1.2034524248050495
3.51953125,-0.8755070038367442,0.2545275095954439
3.5234375,-0.9203394764584764,0.3051965304940892
3.52734375,0.3725147455341073,0.930395451264345
3.53125,2.6612940499310893,1.3866057013815196
3.53515625,-0.6923459187734399,0.15453722471585837
3.5390625,0.7940740997735903,-0.9963832707255417
3.54296875,0.18567497321217688,1.1039272338994088
3.546875,-1.6851521343947284,0.35371988931564974
3.55078125,-0.9871630084103982,-0.8052288531451499
3.5546875,-1.946324320755649,-0.6130544070739681
3.55859375,-2.292836282806473,-0.5031413184414648
3.5625,0.39558502440297216,0.020967982082607813
3.56640625,-0.8073586987347127,-1.2094358409434849
3.5703125,0.356143765279104,0.39539395330035754
3.57421875,1.2689372017572833,1.1258515415106498
3.578125,-2.3758595586713556,-1.0429385088266052
3.58203125,0.27382218882525033,1.3425890545361518
3.5859375,2.1762068832248187,-2.198285823600619
3.58984375,1.02705188826565,0.7671708915367693
3.59375,-0.006954450968408436,-0.5395606917736215
3.59765625,2.7089633333627847,-3.1352539585448724
3.6015625,1.698052313505429,0.09688748055001446
3.60546875,-0.7524824823762565,-1.4151142252364313
3.609375,-1.8684876740941916,0.5440168898591722
3.61328125,-1.5764377264073,-0.37316282422716646
3.6171875,-1.448071657886717,-2.3219950426129623
3.62109375,1.8139947723810435,0.04379532082089888
3.625,-1.1450557422353111,-0.6187507008951341
3.62890625,0.8240436499599819,1.6858834957397593
3.6328125,-0.6857542682502236,1.5638528278001027
3.63671875,-0.8647019128232537,0.47983144553435364
3.640625,0.2648530279570774,2.1681248644315545
3.64453125,-0.09885615601697736,0.18812367885072356
3.6484375,-0.3286419341236652,0.16483697965256452
3.65234375,0.1135444511766648,0.744483768588064
3.65625,-0.5819338523623988,1.4544281001386654
3.66015625,-0.8529912052272172,1.0868422715784682
3.6640625,0.6335153939079854,0.6266148493450057
3.66796875,-0.10470525722337085,0.6611814862103272
3.671875,-0.3965132071885649,1.9091283874813052
3.67578125,-0.7126092758341724,1.614204349487918
3.6796875,-0.054354662263132306,-0.3860348532900317
3.68359375,-0.29167375476820306,0.6804742357497778
3.6875,-1.3357023237179055,0.6437061486921789
3.69140625,-1.208658973447595,-0.6906084516265182
3.6953125,0.04819800239414427,0.6574917792549815
3.69921875,-0.624457859043943,-0.2785745311022266
3.703125,-0.4559616362933748,0.7582476626028112
3.70703125,-0.0033233210815640474,0.48806118574415436
3.7109375,1.2099788565446385,-0.1180042553543617
3.71484375,-0.4816074030668584,-1.4989192752299316
3.71875,-1.3659299381038639,1.17872922957996
3.72265625,0.12886182469507806,0.3239025123875811
3.7265625,-1.1891201352858016,-0.9240125780682253
3.73046875,-0.5557782069973604,-0.04266751433765254
3.734375,-0.9275833441096201,0.24557661186066407
3.73828125,-1.0516271282836152,-1.3782927169121972
3.7421875,-0.6510032255400576,-0.7162648565205705
3.74609375,-1.4560825533264443,-0.20815812714137982
3.75,-0.5126792827184891,-1.672941756725314
3.75390625,-0.18843900596643753,0.9095858004144691
3.7578125,-0.8918988544745421,-0.02715120467541633
3.76171875,-1.5233093491167295,0.5994282831920846
3.765625,0.5816331094691883,-1.840421482732039
3.76953125,-0.18186409825604088,-0.09923525155828619
3.7734375,0.6651210397093502,-0.3695177622767107
3.77734375,0.9497392062735698,-0.1055251306377702
3.78125,-0.15423147766806297,-0.8507785897434649
3.78515625,-0.13272934703641287,0.5824677589905295
3.7890625,2.2169871280326063,-0.1095380768645136
3.79296875,-0.11238556638063618,-0.23272813445207255
3.796875,-2.2128709323555364,0.40025462216769836
3.80078125,1.4872225039134754,0.46730910033571993
3.8046875,-0.5467100871824645,0.4664116920773923
3.80859375,0.9562084361951649,-0.4518211365911863
3.8125,-0.8227001201659571,-0.2955080714259485
3.81640625,1.4201768868447395,-1.2620442201584494
3.8203125,-1.5850831718526979,0.37858795887920266
3.82421875,0.20551409898520384,-1.0869722723515152
3.828125,0.5283452114368621,-0.2588187327886417
3.83203125,1.846473168391486,-1.1921925869562844
3.8359375,-1.6271235761352238,-1.9139968794467013
3.83984375,-1.5741422851279534,1.0361500796363692
3.84375,-0.46299645545315865,-1.4290876039770963
3.84765625,-1.3683509300768701,0.9011566766081314
3.8515625,0.8314976442883334,-0.8677464433824946
3.85546875,-0.6528373721129701,1.1705237169455356
3.859375,0.15575887347032394,-0.7103460188066073
3.86328125,-1.227322697213568,-0.3405629632505888
3.8671875,0.5693265579309301,1.851604904879646
3.87109375,0.16495216838498464,0.827342989217477
3.875,0.9644207932428661,1.1332124584844345
3.87890625,1.2147648050619013,-1.1423175907319012
3.8828125,0.20127180293667374,0.5067408107735752
3.88671875,0.42384798707552845,2.163909455559292
3.890625,1.5268826997327778,0.18949356455783734
3.89453125,0.42339010154601875,-0.20036351026885263
3.8984375,-1.0098484519311128,-0.9358671287410476
3.90234375,0.8280524725278242,-0.8169253516490169
3.90625,-1.0783785818585168,-0.5730006329185982
3.91015625,0.9497767250699849,0.6738544436110915
3.9140625,-0.045750396244832896,0.3441788192468152
3.91796875,0.5299742437000265,-0.38772190005844226
3.921875,-1.6684067003338368,0.1557555252299217
3.92578125,0.1809843440195083,0.7148005837261143
3.9296875,0.16129017515026609,-0.730891534096307
3.93359375,0.35381037487431805,-1.1143390793758827
3.9375,-1.0646706937136297,1.8734109599678939
3.94140625,-0.21615886746957588,1.0038857335558646
3.9453125,0.45720906162966785,0.13294295474236803
3.94921875,-0.7856310689895843,-0.3771375604138456
3.953125,2.5953995582059415,-0.2811816663323359
3.95703125,1.2734983054751927,0.8302910324772365
3.9609375,-0.7736327485689224,-0.058167089390478696
3.96484375,0.8441427822881469,-0.011300277657633013
3.96875,1.250510364716755,1.5179323648804224
3.97265625,0.3507030842984226,1.9190020917542046
3.9765625,0.2706860110389057,0.4223217276786374
3.98046875,-0.3915849411084427,-1.3196757889449897
3.984375,1.5368484553508568,-2.486425624165516
3.98828125,-1.0272856202905498,0.25193726862475957
3.9921875,-0.8000901329602177,1.9046616244118881
3.99609375,0.530340159724305,1.2749802101209995
4.0,1.1641865103445592,-0.5818793729769557
4.00390625,0.6473761167919432,-0.39332450305386985
4.0078125,-1.1318888247688983,1.5809357036418668
4.01171875,-0.3015308931970065,0.37203756262275534
4.015625,-0.21856513026140362,-0.9846372943405047
4.01953125,0.14077739932056696,0.6889096637645287
4.0234375,-1.126864139976001,-0.7769487462606905
4.02734375,-0.014556626502691525,-0.23767257409056328
4.03125,1.2674374437851745,0.4710507026293915
4.03515625,1.2546809356693687,2.1535379099527256
4.0390625,-0.31127538070351174,0.7919830742247996
4.04296875,-0.9042036909458339,0.03504452488922974
4.046875,-0.5348902584268044,-1.1546308805783048
4.05078125,-0.26554830388474765,-0.7825690468357613
4.0546875,0.2353904505628834,0.9882408935682406
4.05859375,-0.6189735769710162,0.3895897822985506
4.0625,0.7470839809217041,-1.7469810574495135
4.06640625,0.7136156705304312,-1.2764773916562442
4.0703125,1.4339056059397213,0.23101018354489133
4.07421875,-0.05646789613225423,-0.24452276175605353
4.078125,0.253551311310748,0.37236077060200967
4.08203125,0.8788158336391808,-0.6023697061037312
4.0859375,-0.3382018411440213,0.0012868036634387917
4.08984375,-0.9365066196111962,-0.48917439079852665
4.09375,1.89259665599821,-0.3603957677640887
4.09765625,-1.0703180864589918,-0.09096184824353275
4.1015625,0.8808507319934238,-0.8305179527381444
4.10546875,0.9518723282634418,-0.9928421625907488
4.109375,-1.0932194942483946,-0.0015810329912161456
4.11328125,0.23176169485784817,-0.3404727498411507
4.1171875,-0.9841782505076897,-0.7469695668288869
4.12109375,0.21287374754229738,-1.8018012820463025
4.125,-0.014179193844620634,-0.3250159990264848
4.12890625,-0.555362444316207,0.5819929381035303
4.1328125,0.6423233877647149,0.987807653639094
4.13671875,1.2260933261062419,-0.32372605775524493
4.140625,0.036655535110580575,-1.5504581503319441
4.14453125,0.8190475183819943,-0.20175573192835997
4.1484375,-0.2976741101085158,0.09317482637113067
4.15234375,1.1873958974112584,0.6163774015344985
4.15625,0.058450042137862056,-0.4807879624903896
4.16015625,1.940371540870999,-0.25220655966011274
4.1640625,2.1500250761292823,-0.26127807434876626
4.16796875,-1.7943616559045958,-0.4882121147403574
4.171875,1.278928810580503,0.6849219623287301
4.17578125,-0.013482485174879927,0.6005798183080898
4.1796875,0.36521851344809053,-0.4400185276395976
4.18359375,0.39505257579847175,0.5501123896113347
4.1875,-0.922932692922551,-0.524435666925843
4.19140625,0.3945692026104974,-0.4749215022780168
4.1953125,-0.9229725955787196,2.433848843244727
4.19921875,1.176595907004911,-0.7594151857902117
4.203125,-1.1051234470250155,0.8326108014501756
4.20703125,-0.6109349636377538,-1.7063580732154204
4.2109375,1.4796396391556146,-0.45867140498575004
4.21484375,-0.16935839201181227,-0.5104112941646672
4.21875,-1.2432822501400338,1.3242289312212425
4.22265625,-1.035912606278626,0.7423549445384665
4.2265625,0.9928687207658915,0.6107355605224011
4.23046875,0.6167280428814598,-1.7829476140322882
4.234375,-1.0365106658992882,-0.02433591196744394
4.23828125,-0.3596564289483641,0.970214798887235
4.2421875,0.1349857799706139,-0.015493933282003243
4.24609375,-0.21507540960494773,-1.0780143595663105
4.25,-1.1632843714837282,0.856402993522741
4.25390625,-2.116291611513003,1.4567634555751412
4.2578125,-1.0114336457431634,0.7460022658534744
4.26171875,0.013431307058865034,0.20558044668969178
4.265625,-0.07957049519168684,0.1925163630890751
4.26953125,-1.281822608670199,-2.4647145020783894
4.2734375,-0.42881160921736716,0.7412020021661683
4.27734375,0.9819771233584043,-0.43857973787888205
4.28125,-1.14834989711896,0.6629845926460859
4.28515625,-0.8195327002862968,0.3883626903116566
4.2890625,-1.1035862264911493,0.2546527623490495
4.29296875,1.051979119487433,0.8649712559402372
4.296875,-0.33607020550019784,0.2841304288250586
4.30078125,1.5733513690758283,0.6525048806190341
4.3046875,-0.3002273033190483,0.32081524454741267
4.30859375,-0.5907885914639448,-0.03933265654465135
4.3125,-0.18111351648921847,0.32667826860653554
4.31640625,-0.49480155322937847,-1.1933040256648089
4.3203125,0.928573271270977,-0.6782699349936919
4.32421875,-1.1614045790311818,-0.6268642199994324
4.328125,-0.5788612376075506,1.1351066589037644
4.33203125,-0.2676005132740545,-0.7990230552733307
4.3359375,-0.3168253392210177,0.4001752642779999
4.33984375,-0.3642342602140228,0.6074856955363507
4.34375,2.1942077266596454,1.2092857308566185
4.34765625,0.5436722604920785,-1.237286140102172
4.3515625,0.0690085996331853,-0.22953770929009487
4.35546875,1.1119905354818531,-1.8088699842341343
4.359375,-1.4604231243578027,0.08119293939598918
4.36328125,1.0908704792412571,-1.5552300648579713
4.3671875,-1.8388408731107158,-0.2049643782050935
4.37109375,0.5635223243891987,-0.21429842014018893
4.375,0.7691648495130232,-1.1948241218121933
4.37890625,0.003401356032458145,0.03070793698606366
4.3828125,-0.8495557711281281,0.07978956351720609
4.38671875,0.8834716638423815,-0.5131183177729512
4.390625,-0.2660056323240889,0.4168775470954599
4.39453125,-0.7055983165146542,-0.8904021688295118
4.3984375,0.04146874358950749,-0.4577225178629859
4.40234375,-0.8404904439565556,0.34944164786733983
4.40625,0.08441512595345758,-0.6786273158869338
4.41015625,-0.032207746332938963,0.43150818704356175
4.4140625,1.3379236763580724,1.500205943605412
4.41796875,0.7882975374877332,-1.1876033663099896
4.421875,-0.8987846519906176,-1.6101479686569127
4.42578125,1.2819501817064356,0.18068261982092448
4.4296875,-1.5157793330040379,0.36975663712614104
4.43359375,-1.3646763510857398,-0.17838037264728016
4.4375,-0.6140125742225401,-0.9631975469982663
4.44140625,0.22637249673679258,-0.1361545843293395
4.4453125,0.5301522985161218,1.5196841530394958
4.44921875,-0.5892503010771543,-1.4695716129427678
4.453125,-0.7090987174625506,-0.09608668958354163
4.45703125,1.3562974322671142,1.152716288600701
4.4609375,-0.487968101098722,-0.8180129318225068
4.46484375,-0.4029106277167972,-0.6959467740450929
4.46875,-0.958227922390885,0.6219804171576516
4.47265625,-0.2922630298017362,-1.1101062056812476
4.4765625,-1.0811663162651488,-0.9161317109097966
4.48046875,-0.1350644569612444,0.5080314989650652
4.484375,-0.2748955178020029,2.3214448947649697
4.48828125,0.9446019567546228,1.0764625858300418
4.4921875,0.415522042329313,-0.9648937222790024
4.49609375,-1.3390461925434585,0.17180875881298904
4.5,-1.4737474513099371,-0.19665727852447706
4.50390625,1.5641556064406008,0.18259007893550736
4.5078125,-0.12816292195081913,-0.4106761583201862
4.51171875,0.27402679503143407,0.04017660493110021
4.515625,-0.7839149367613708,0.7507844583905376
4.51953125,0.4254836744612752,1.7921251659459072
4.5234375,-0.04406726590877553,0.8353668267167406
4.52734375,0.6831956143673207,1.2252466044697206
4.53125,-0.37689181412910816,0.5813235731127661
4.53515625,1.2579227853334842,0.7378348054795747
4.5390625,-0.6755457948931984,-0.6115663403446132
4.54296875,0.057685821363094,-0.9512805798239465
4.546875,-0.8953590585473519,0.2563943102446307
4.55078125,-2.62578765977267,-0.6628928875612823
4.5546875,1.5171059533373978,1.2839718059551763
4.55859375,-2.285052782015307,-0.5271820879748207
4.5625,0.3215801662370804,1.4674262575785484
4.56640625,0.33958648068087716,-0.40811311016416857
4.5703125,0.10811537955213413,3.083402979219461
4.57421875,0.8885570622090657,0.006736368606385576
4.578125,1.213811433131558,-1.365611235729493
4.58203125,0.20860066842837569,-0.017904424714122336
4.5859375,0.17381234151106312,0.6270339826249233
4.58984375,-1.047052088100506,-1.4070004004641241
4.59375,1.3083914364504108,0.6222502920135435
4.59765625,1.1780735658727135,0.9963505360254827
4.6015625,0.8125717392073363,0.2735828835135571
4.60546875,0.6720782370934569,-0.07218214869082683
4.609375,1.8236397684080423,-0.3530220849338002
4.61328125,0.24422385060044896,-1.4630932142960391
4.6171875,0.048905964987969064,0.7560364651413835
4.62109375,-1.5115739370940933,0.3812859748645633
4.625,0.696904876192653,1.0283415159622156
4.62890625,-0.6334599228870096,-0.22005674405135747
4.6328125,1.853676671448558,-1.5624060207226758
4.63671875,-0.7877109335728161,-0.5298462106642386
4.640625,2.3818694389747694,0.01380217557199317
4.64453125,-0.14869882616315958,0.21786799445613658
4.6484375,-0.5202937836924298,-1.6987909256150873
4.65234375,-0.048727699520555216,-0.22454102482662716
4.65625,-0.6007201677162952,-2.644273880659848
4.66015625,0.7145638842067652,0.07795320100751182
4.6640625,0.7321777235070819,-2.026081547300889
4.66796875,1.6131042517573355,0.3819672827136564
4.671875,0.20583584539945599,-0.026474531108381952
4.67578125,0.4860110290367071,-0.7230957035813563
4.6796875,1.4851988048624665,1.1901039623065093
4.68359375,-1.1775840975999432,0.7207270049692245
4.6875,0.2365596258723162,0.9239593574030678
4.69140625,-2.062880194082744,-0.6668387585332193
4.6953125,-0.5201697203905928,0.566357954549054
4.69921875,0.3866510057062352,-2.2413911106239492
4.703125,1.0681452122348989,0.18354592695190416
4.70703125,1.3612371030147647,-0.6164213361440161
4.7109375,0.9849981378031422,-0.13589255030293274
4.71484375,-2.4966528757661712,0.18839123188239953
4.71875,0.5265719101568924,0.7471386857910131
4.72265625,0.23849823254741717,-0.5714768452533262
4.7265625,0.6890702106984947,-2.1113091559653787
4.73046875,-0.13713436354195116,1.4197169243676
4.734375,-0.40967743997107936,0.4810028002299742
4.73828125,0.5957897990048002,2.1842297349716975
4.7421875,1.3785897150972737,2.027382563087439
4.74609375,-0.5739150385807742,-1.5110120024107132
4.75,-0.31240812510735516,0.09034939056653353
4.75390625,-0.34010739822598834,-0.5900302017602291
4.7578125,0.9908816964274956,0.9921226322112376
4.76171875,-1.8007756887619295,-1.6088695927059888
4.765625,0.7793947716139019,0.48207112965486687
4.76953125,-0.1125933213826931,-0.3143656149185499
4.7734375,0.22263288197561248,0.45129295621827725
4.77734375,-0.6941697328083598,-0.10690897931844472
4.78125,0.9803636001495891,0.7745200407751603
4.78515625,1.8763790795309598,0.71028009616709
4.7890625,0.46413892261436085,-1.9892357254855415
4.79296875,-0.15274437475711564,-0.30564374959568275
4.796875,-0.07675356174514328,-1.050640309887576
4.80078125,-0.5408019219343742,1.4271078059952094
4.8046875,1.7179903834632162,0.3381763012999058
4.80859375,0.08745094011659944,0.15276766079993606
4.8125,1.5068587837449763,-1.0151364977327284
4.81640625,0.1837587616029191,-1.0852359724666232
4.8203125,-0.2813501348318183,-0.4129752930563473
4.82421875,-0.725221947644472,-1.3802652897702206
4.828125,2.781959054909456,-0.19344879754489722
4.83203125,-0.6652570023547553,-0.49357956639400186
4.8359375,0.05147952998271331,-0.42023507698133095
4.83984375,-1.9163737239289556,-2.286018078983334
4.84375,0.09217799478480469,1.1825786424912086
4.84765625,0.31239952558647605,1.6503952669603439
4.8515625,-1.6498355023821476,0.10409606284183533
4.85546875,-1.4456287828632006,-0.5914246717492379
4.859375,-0.6939805373681593,-0.3322982498370986
4.86328125,0.44288646088619416,0.36685954555413813
4.8671875,-0.8575793833316617,-0.0891335069609489
4.87109375,-1.2216648980635088,1.1625420620851656
4.875,-0.025553591959047595,0.8813872296831886
4.87890625,1.2306854363380881,-1.3226350977277161
4.8828125,-0.15146182891460727,0.3760506099842644
4.88671875,1.0501873976825473,-2.069323479701329
4.890625,-0.9528208870326051,0.22524280402509161
4.89453125,-1.561913884409396,0.13688620691898734
4.8984375,0.280277415352911,-0.5027562383586779
4.90234375,-0.007768574482065167,1.4915973367252744
4.90625,-0.9153463629654345,-1.334199233023072
4.91015625,-0.9170384451310594,0.4994340136922311
4.9140625,1.7398604227224956,0.6533210952124955
4.91796875,-0.5852539896361436,-0.4213489186020447
4.921875,1.5207716067111514,-0.12936981209278917
4.92578125,-0.4621337669191954,1.174776025994607
4.9296875,0.06870862468635819,-0.38637764994477714
4.93359375,1.1152144412818823,-1.7741792132819885
4.9375,1.7599741693200186,0.8923163978826236
4.94140625,-0.36122472471277456,-1.3048759567272974
4.9453125,-0.034467485369645494,-0.9618787470440223
4.94921875,-0.9462618833617995,0.2279154535000426
4.953125,1.1480393854236817,-0.5821734221766676
4.95703125,-0.3013102924392792,1.6635819835616446
4.9609375,-0.12492882317353965,-0.10816188687223939
4.96484375,-1.2574591537243605,-0.23982116646452228
4.96875,-1.0295058343867989,-0.6458550266781758
4.97265625,0.217951822317639,-0.28067109992731953
4.9765625,0.26025541587867457,-0.09408345810032445
4.98046875,1.5995490086939639,0.9595804090727652
4.984375,0.0733332501648023,-0.04923403341889621
4.98828125,0.49258983713095794,0.5375525048034059
4.9921875,0.021742419261935927,-1.1147560232170801
4.99609375,0.7451770624016721,0.3202751535536736
5.0,0.39698241298307124,-0.023248768887264255
5.00390625,-0.8161235550019156,-0.5558956065669634
5.0078125,-1.026154137428113,-1.2311916872005553
5.01171875,-1.4021264516642291,0.2232102977311854
5.015625,-0.8735249986547002,-1.6963891908369901
5.01953125,1.3238643385146562,1.4600593726673243
5.0234375,-0.7474527997644411,0.3376402621390595
5.02734375,-0.24171139531058403,0.2158632037315513
5.03125,-0.3925971157315675,2.0155998131311748
5.03515625,-0.17143857569467233,0.9358988665076285
5.0390625,0.8138360957458095,-0.4881972056152424
5.04296875,1.2774181462327974,2.486464625607045
5.046875,-0.06185329626604892,1.518565266979924
5.05078125,-0.06057093365591179,-0.2904034851619993
5.0546875,-1.022265855569218,0.5988412740165271
5.05859375,2.207105635132813,0.5834702396749333
5.0625,-1.7027921795683958,1.1776688117017864
5.06640625,-1.7631357921564528,-0.47759059095312756
5.0703125,1.5242802278915053,-0.6300144504165275
5.07421875,0.1671723840762814,-0.8534856719011127
5.078125,-0.14042087288652264,0.6948853804716172
5.08203125,1.2875652627706469,-0.1595145932733663
5.0859375,-0.6576990119635027,0.11349833268222763
5.08984375,-1.6391566408676193,0.7092629564727481
5.09375,-0.5542866683321742,0.4709121706445852
5.09765625,1.2227058671812998,0.5720009705010997
5.1015625,2.501018826167202,-0.3590638124735986
5.10546875,-1.84272678540071,0.43155258267984176
5.109375,1.053547982988716,-0.1404530962031223
5.11328125,1.4995758611950272,-0.7256291404472706
5.1171875,0.15506199279662428,-0.15182916466187932
5.12109375,-0.3623818666301462,0.055595354877046414
5.125,1.6546060530966245,0.7990488827359394
5.12890625,-0.10857103228900385,-0.05934392382717635
5.1328125,0.547112517561157,-1.1755943895312388
5.13671875,0.7490723863464813,-0.6400861563538456
5.140625,0.6435084617814559,-0.06595473951863383
5.14453125,0.2852520846162857,-0.6626248961106621
5.1484375,0.1536586361688107,-2.1301271058049354
5.15234375,-1.0309916165347393,0.07960163927365446
5.15625,1.1489450185341947,-0.1781326008127923
5.16015625,-1.1110572175214168,-0.796461587833009
5.1640625,-0.32481854159764584,0.6486311660343297
5.16796875,-0.5533760224032817,-1.333090742410537
5.171875,0.12324953150924488,0.01807064272291199
5.17578125,0.20531823295369975,-0.2937206470156476
5.1796875,0.8109838640134498,0.6427939600109956
5.18359375,-2.08791815029284,1.3980023055805193
5.1875,-0.5359709735360324,-2.034583262708957
5.19140625,1.9433813800480133,-2.6007829793982324
5.1953125,-1.513567617424141,1.0046199726262441
5.19921875,-0.9677107407824538,0.2661921193853512
5.203125,-0.5165038289580363,0.9077031079616983
5.20703125,-2.4125972848159534,0.897607674441765
5.2109375,-0.876212978218214,-1.6156698783924095
5.21484375,-0.6998906843103665,-0.7246433967172851
5.21875,0.7692552103916046,0.1438637313555313
5.22265625,-1.06437987370987,-0.14061298346412676
5.2265625,0.2112562397510923,-0.2529083478022498
5.23046875,0.5327749261988388,0.21807467306757558
5.234375,1.550062856625429,-0.35225667615273787
5.23828125,-0.8255529481630653,1.8236999482358192
5.2421875,1.3499329492985137,0.7474323573591835
5.24609375,-0.6280385760962988,0.07467786738807516
5.25,-0.374808348686113,0.10084698018374366
5.25390625,0.38729155804400506,0.7197137236217416
5.2578125,-0.48186123292282756,0.20267800264591143
5.26171875,-1.0061291601248559,-0.9521511283911309
5.265625,-0.1519213349089561,-0.12459858587140045
5.26953125,0.17850489456518945,-0.5176106585680627
5.2734375,1.4168124137177462,1.728597354323491
5.27734375,0.4277497371994286,1.0192467907455298
5.28125,-0.22664790041841953,0.08497732839367905
5.28515625,-1.2728566521057183,0.5544705083871077
5.2890625,0.762219986647405,0.18447662198916467
5.29296875,0.9298509304061064,-0.3717341689126095
5.296875,-0.9678323975373967,-1.2630737929795117
5.30078125,0.7928509305435563,-0.5759967953363165
5.3046875,-0.4770961097466772,1.5506197957080572
5.30859375,-0.1084273557303536,0.06228194204555084
5.3125,-1.0788916268354336,0.8223495695617881
5.31640625,-0.20675570197109744,-0.4201795893874835
5.3203125,-0.2739508201055286,-0.3139761081394529
5.32421875,-2.6276650269227564,0.977299097706044
5.328125,0.43471270247922095,-1.8053041212790928
5.33203125,-0.3069946613050362,0.707926814965806
5.3359375,-1.0915756000855612,1.862019534204019
5.33984375,0.8350813077794559,-1.5153858654576164
5.34375,1.0291919711753976,-1.0469604392497824
5.34765625,0.09744018145185944,-0.7915551105202526
5.3515625,0.6361154494848356,0.18570209881647987
5.35546875,0.06329756201266137,1.0271751780723004
5.359375,-0.4456774189092723,0.7569446860599267
5.36328125,0.7728791771706894,-1.4671621022523902
5.3671875,-2.047524385695214,-0.14117139637292112
5.37109375,-0.58870509786617,-1.4754282415016817
5.375,0.1729661115419715,-1.1661335778505464
5.37890625,-0.6671805833823087,-0.7709714951819311
5.3828125,-0.40465536520183115,0.11465446548438366
5.38671875,-0.2769546058308264,0.4170783032960758
5.390625,-1.8499273799361713,-0.3404632811558389
5.39453125,-0.634105000925572,-0.9859818027372952
5.3984375,0.7828364799900344,0.6447020255578237
5.40234375,0.34298204131665166,-0.2341518681687794
5.40625,0.6945519774503252,-1.7376446406656818
5.41015625,0.11809079497708384,-0.5873876140438782
5.4140625,-1.450547803452165,1.0990673913810802
5.41796875,-0.4269009831537466,-0.33262842698495293
5.421875,-0.09332010849291786,-0.9702849209919601
5.42578125,-0.6494673224192091,0.6406859890153088
5.4296875,-1.0297536302752386,0.0016634580932195007
5.43359375,1.6416491660338104,-0.6879798671753781
5.4375,-0.3077927437498316,-1.0793969260367697
5.44140625,-1.7308863246169366,1.4390408707305438
5.4453125,0.14118087897243192,-0.5612039898938989
5.44921875,0.17601974565439424,1.1751678437026416
5.453125,0.9240637590262356,-0.41180317843351016
5.45703125,0.45773546030949047,-1.0771381453978621
5.4609375,-2.144096405717558,0.32491456788767964
5.46484375,0.3338070560972535,-1.4484099079990862
5.46875,-1.811067424018136,0.15737724399558295
5.47265625,1.039103524751877,0.069426768499585
5.4765625,-0.8054616428025161,-0.5030094562050119
5.48046875,-0.7728971538166124,0.31842860333926787
5.484375,1.4487340261213055,0.3585738446922609
5.48828125,-0.6449308060485526,0.37255253486622764
5.4921875,1.3763940031870596,1.5230437605587557
5.49609375,0.9230585758127094,-0.10524170112187065
5.5,-0.550009857878342,0.7074788796046751
5.50390625,0.25451233920332905,1.2610635435053372
5.5078125,0.37961881439731643,0.8335896313676344
5.51171875,-1.793666799623048,-0.9927489087790986
5.515625,-0.9555069889614124,0.1592850658000191
5.51953125,0.8568026907388921,0.10126510145680835
5.5234375,-0.13736418923360097,-0.6019978200298425
5.52734375,0.15350395640396983,1.679322370065199
5.53125,1.12913612309819,-0.6231832613566193
5.53515625,1.724828340171127,-0.09252651094583608
5.5390625,0.5461439558170542,-1.0450785132877443
5.54296875,-1.2345140031568278,0.8211172450123062
5.546875,-1.0028025646347964,-0.33678818817245976
5.55078125,-1.1496898219428828,0.6743518737483413
5.5546875,1.3742336431904703,-0.38505990858173866
5.55859375,-0.022298251230413773,0.14793078794208633
5.5625,0.17563470721754848,0.42979302166245964
5.56640625,-0.3530590857087986,-2.5941630899029886
5.5703125,-2.063367538546297,-1.0314739945635172
5.57421875,-0.5930090202792822,0.3117540250995516
5.578125,-1.143879374702991,-3.017733166430465
5.58203125,-0.05254043568002544,0.13392685921093267
5.5859375,-0.6148388740708741,1.5034491701157493
5.58984375,-1.5567857178782514,-0.6331696489021044
5.59375,0.3923939795379906,0.3960078744915289
5.59765625,-0.5035350675204827,1.2062743071952435
5.6015625,0.1452709459632818,-0.29947901833137125
5.60546875,-0.4802475378974677,-1.321767412300519
5.609375,0.12592297857828083,-1.1671563622230037
5.61328125,1.9371005029682504,-0.4031572612759375
5.6171875,0.34132612111850075,0.3098956231874527
5.62109375,0.6922632968070498,-1.173683787636093
5.625,-0.915623632501232,0.565161193254546
5.62890625,0.5012534715614421,0.4420736571897954
5.6328125,1.0473686640247388,0.11230157785682594
5.63671875,0.5877355573541373,-1.4170270961554026
5.640625,-0.06257786472792674,0.04537776979036999
5.64453125,-1.0573053916372432,1.285228716190172
5.6484375,0.8912527851816916,0.50261654604742
5.65234375,-0.19988117240433695,-0.17059667007333731
5.65625,1.7168652097758788,0.44277298596009806
5.66015625,-0.28251121392339756,-0.9318415145032668
5.6640625,1.3551003548119394,0.34495504971232743
5.66796875,-1.0307256497578647,0.20711341462345348
5.671875,-0.921387104839785,1.083976483765689
5.67578125,-1.4554187853417149,-1.1835716410936514
5.6796875,0.29659150130469725,-0.26490482666835274
5.68359375,-0.6448156976521585,-0.5380077890901236
5.6875,-0.9929441960432439,0.34626953500852486
5.69140625,-0.7618923828585437,-0.9991384849677166
5.6953125,-0.1687531058469902,-0.6583872108092801
5.69921875,-0.00519431011006591,-0.19147267107859212
5.703125,-0.3724195669808346,-0.15053643022926755
5.70703125,1.360828606176382,-0.2906773631857308
5.7109375,-0.1825795250116171,1.0724240443496273
5.71484375,-1.1523823190545526,-0.032704426587323955
5.71875,0.11508184704406949,0.4413982728627808
5.72265625,-0.06977654884641533,-1.0520773170948616
5.7265625,1.0017142903274505,0.1535333180382661
5.73046875,-0.657062656835316,0.527553685369945
5.734375,2.6762549600267502,0.5958155897811606
5.73828125,-0.43916297507155755,1.2384840128517653
5.7421875,1.4910696808901027,-0.5262513053802247
5.74609375,-0.014188785854077993,0.1874516305769485
5.75,1.738394077361326,1.429122575362163
5.75390625,-1.8808422645333036,1.1071950643078832
5.7578125,1.7809357246745587,-0.06951977469149749
5.76171875,-0.8724684039563392,-0.5256097189596732
5.765625,0.46636644613811407,-1.1315550380344461
5.76953125,-1.4862332471614714,-0.08035876110698141
5.7734375,-0.21166952463440053,-1.1686347625250466
5.77734375,-0.7216807281770882,1.0817233755390718
5.78125,-1.4904805701885422,0.5296248129609605
5.78515625,3.0617658540181143,-0.5886941839195714
5.7890625,-1.4079013425508913,0.5004541620770743
5.79296875,0.9403848865975244,-0.7074686539451284
5.796875,-0.6401781845945396,0.41101954000765506
5.80078125,-0.2282120010151626,0.45218793249903955
5.8046875,0.448266312541394,0.33041575889619684
5.80859375,0.15965935756358512,1.3323282692730862
5.8125,-0.5813307228183104,-0.3956025254691887
5.81640625,1.182288275593435,0.36396116732869654
5.8203125,-0.4118457638345094,0.34320475070256007
5.82421875,-0.5057089873628717,1.4569600887690142
5.828125,-0.8195939278483679,-0.9025001748866569
5.83203125,0.15550969322109082,1.2751936616948363
5.8359375,-0.6278951146569322,-0.2611897594880944
5.83984375,0.19080338103959243,0.6043262160777527
5.84375,1.225602903338959,0.5508553349482715
5.84765625,-1.9985778159011576,-0.08785444124139902
5.8515625,-0.22406070415100476,-0.04353216685178683
5.85546875,-1.9625444743626854,-0.9768632714326635
5.859375,0.9887304707525886,-1.673133019082859
5.86328125,-0.24831005352454089,1.4462584494686836
5.8671875,-0.4261884016396498,0.02604798141783225
5.87109375,-1.0968361605061934,-0.8007633580494851
5.875,0.07377229450935809,-0.32887216375349376
5.87890625,0.26675360558569544,-0.8853189130092466
5.8828125,0.6258515563250718,0.7698004300864272
5.88671875,-1.0727659959810103,-1.6932360885357933
5.890625,1.7919471732386756,0.24148994472668142
5.89453125,-0.22770281372943657,0.17029809948020838
5.8984375,-0.11784411984524501,-0.8146988101413075
5.90234375,-1.6971947638590903,0.01410111626579176
5.90625,-1.3994822548628731,-1.0750837408798426
5.91015625,-0.26648437955970433,-0.5076319345522995
5.9140625,0.1258551682442213,-0.7601760060015451
5.91796875,0.5413216351789435,-0.7395010999353274
5.921875,-0.5902798328030044,-0.16801673836338377
5.92578125,1.6521849968884212,0.7240685735321987
5.9296875,1.2981252816644293,-0.1330940194441703
5.93359375,0.011566251358189202,1.784595007971418
5.9375,-1.8060162380620706,-0.4930998445333545
5.94140625,-1.0692396765512224,-0.7128854557533683
5.9453125,-1.6314810071608026,-0.30791568023063787
5.94921875,0.23670205556182852,-0.826190261756459
5.953125,-2.2315020516233766,0.6371797837046195
5.95703125,2.5378793770978283,0.6098127229071569
5.9609375,-0.7658691559009605,-0.6327729578130116
5.96484375,-0.19234406469580131,1.2683905982037758
5.96875,1.912517670722469,1.31780696420487
5.97265625,0.04384921706602327,1.0482268736137454
5.9765625,1.5545801371365389,-1.1925875154786514
5.98046875,0.3994304773716712,2.5245484927025474
5.984375,0.7242356963977437,0.6475130248509636
5.98828125,0.8511853204881104,-0.48259157472392733
5.9921875,0.11802781717111047,-0.06041603411275087
5.99609375,2.3194293374661634,0.7414832073585775
6.0,-0.277440389574812,0.03153790092455452
6.00390625,-1.5605626093337426,0.743728805840552
6.0078125,-0.11988750752261536,-0.18551248246622473
6.01171875,0.4853682288086523,0.672932648790317
6.015625,1.09161387226385,1.5866970105588525
6.01953125,-0.23093683693207956,-0.7725505607337424
6.0234375,-0.6127470649981801,-0.3785697142035533
6.02734375,-1.1911187251570006,-0.7629714693222063
6.03125,-0.031140141594914152,0.9084938359726855
6.03515625,-0.9695872654429902,-0.15507464697238896
6.0390625,0.09786181208825509,-1.1747653675473098
6.04296875,0.8105408589894192,-0.39850867731688644
6.046875,1.8261332919781263,0.3571122117255366
6.05078125,0.2523208309393257,0.5193207354407614
6.0546875,-1.0594319845751994,-0.03441677396839117
6.05859375,-0.534562303763715,-0.27807130305684585
6.0625,-1.5828512569139077,-0.7588489489038373
6.06640625,-0.9513307178495429,0.7368687287243666
6.0703125,-0.5639695601758965,-0.8252280524450522
6.07421875,1.0328208379880799,-0.3294417796302957
6.078125,-2.0922288121331114,-1.0327993259372015
6.08203125,-0.49949996242255273,-0.1667195381307807
6.0859375,1.2375041421613597,0.4991680230514255
6.08984375,-1.0259876001954722,0.47725020737063806
6.09375,-0.00048695554180681574,1.0197041768655877
6.09765625,0.2749162066734397,-1.3203392373941951
6.1015625,1.2250181597013843,1.0495882228465168
6.10546875,-1.288464322633224,-0.5573607634883864
6.109375,0.6904499212185365,0.6660536412044147
6.11328125,1.4266038517693866,1.4728024814675007
6.1171875,-1.6533473783527246,-0.19114722246892296
6.12109375,0.604285379931919,-0.7799869822444799
6.125,-0.3544827999522528,-0.6231297502414123
6.12890625,0.2592213671369484,1.249764874441607
6.1328125,0.2926269607892098,0.05211898059227427
6.13671875,0.08397558428364303,-0.3875898779110131
6.140625,0.6645597080340143,0.15994935471105395
6.14453125,0.8108279633656915,-0.39873570024727745
6.1484375,-1.670700758853697,-0.18470093757296507
6.15234375,-0.44874498205046265,0.31609519233919303
6.15625,0.9068820134865719,-0.8589708538895491
6.16015625,-0.06935655266941315,0.37395488050593323
6.1640625,-0.6809036756227206,-2.0880062160310056
6.16796875,-0.07809599277572354,1.4342515105463507
6.171875,0.9114983130265905,1.407396773288861
6.17578125,-1.2692023067881395,-0.5131661943244684
6.1796875,0.5900441600976492,-0.45873779347378496
6.18359375,-0.6130399277315445,-0.4409776550103591
6.1875,0.9548791258427802,-1.0515375005508938
6.19140625,-1.2965673141566054,-0.5820495935109402
6.1953125,-1.2310848922871906,0.11549452193947027
6.19921875,-0.8981743578116314,0.2691668243636621
6.203125,-0.32648387594628,-0.40492049346783365
6.20703125,0.12425714471834418,0.16737755525956535
6.2109375,-0.013974652558374072,-0.39234773695176417
6.21484375,1.3992621190718013,0.11759174632300083
6.21875,-0.6554199669173862,-0.9857669213880434
6.22265625,0.22548962638864584,0.6476786429264239
6.2265625,0.4717964161260834,-0.3198978443879915
6.23046875,0.7474336956772265,-1.4533331466269228
6.234375,-2.227554492362542,-0.673114337563053
6.23828125,-1.6127308211219917,0.3284750196552289
6.2421875,-1.2228966566817014,1.3268660744110004
6.24609375,-0.05003381142164878,0.6141081494050722
6.25,1.0145329897579447,-0.6150921909077941
6.25390625,-1.2717628171229796,0.6466671787916011
6.2578125,-0.14904823839541725,-0.9153003267961826
6.26171875,0.7168759632017557,1.398999942396632
6.265625,-0.9119112931701798,-0.08242631473777763
6.26953125,-0.3486100448618805,1.0059692160976355
6.2734375,1.5706059718038072,0.5316101723271865
6.27734375,0.727382361790775,-1.1988507480149244
6.28125,-1.4612213510910048,-0.599231786566757
6.28515625,-2.294817894764542,-0.3093408035582678
6.2890625,0.629610516652391,1.7507767874342965
6.29296875,1.332959546640411,1.1823691397947895
6.296875,-0.5895461594597035,-0.2024200305520424
6.30078125,0.7162354862928495,0.18603647923990743
6.3046875,-0.011654296944258253,-0.37225090471381783
6.30859375,-0.3988427852507562,1.277038484798184
6.3125,-0.01732829941569288,0.07952978946711013
6.31640625,1.5556965213292722,-0.5773265517736607
6.3203125,0.7954354167063953,-0.3500642933595345
6.32421875,-1.2952013081841132,-0.42586787489557026
6.328125,0.23208136438982743,-1.3759565724339535
6.33203125,0.2089165659553743,0.9409495622247225
6.3359375,1.2736260798355579,1.1354741559255377
6.33984375,0.9098690909237285,-0.6164514924442906
6.34375,0.38891437992134514,-1.391748032957748
6.34765625,-0.6066197874792653,-0.6228077929623077
6.3515625,-0.2217304710725628,-0.45261000709046284
6.35546875,-0.20976260787497122,-0.4264575501809758
6.359375,-0.5483891882667763,2.086662417200028
6.36328125,-0.6896081338871456,0.6203419925635613
6.3671875,-0.04308798394075847,-0.1843118454458053
6.37109375,-0.04188068596480838,0.41052008053481426
6.375,1.4849976657156714,-0.9505729470401122
6.37890625,1.3298333725267664,-0.15222855867621296
6.3828125,0.6444408910353898,-0.9117779111443162
6.38671875,-0.42678383637633677,0.6664031985252238
6.390625,-1.3878878343212568,-0.21758983573662458
6.39453125,-1.1125080900295663,-0.9125134068016432
6.3984375,0.09022174202015963,-0.562710054836378
6.40234375,-0.1756787706564586,-0.1528416982201175
6.40625,-1.226409708743788,0.4689000305179312
6.41015625,1.2672840736675859,-0.35520369739804897
6.4140625,-1.6765472974819497,0.5644758158137783
6.41796875,0.4925332331301473,-0.18372919429750542
6.421875,-0.8586168402479581,-0.4481974217838084
6.42578125,0.7316538087940039,-0.15608557834195386
6.4296875,0.13198018005622633,0.2834714475530369
6.43359375,-1.1798517905944552,1.8835844948218616
6.4375,-1.7883643435000096,0.7245622654180934
6.44140625,-1.6267956760462314,-0.23133132789375493
6.4453125,-1.5174385309291358,-1.0572781972329188
6.44921875,0.9593149669912276,-1.2489559284944698
6.453125,-0.5493823182341802,0.24271378163653273
6.45703125,-0.5897383216386677,-0.4499004116111291
6.4609375,-1.8933580305715185,0.8844490846587871
6.46484375,-0.2039823786619164,0.02387017059642391
6.46875,-0.4551469518463499,-0.9399628848015784
6.47265625,-0.8563250328089373,-0.14561033135500023
6.4765625,-1.0049974679921332,0.3513150580402253
6.48046875,-1.1976099116511254,1.1430527306899765
6.484375,0.4259015357035155,-0.07117145624337509
6.48828125,-0.7013188963022504,1.2944166283996903
6.4921875,-1.266516394378574,0.39536136652995585
6.49609375,-0.867894426746648,0.328306129302691
6.5,-2.9799402848106653,1.1701369791987248
6.50390625,-1.3466422129049982,-0.1974194238727025
6.5078125,-0.1576983665337486,-0.5487638806134724
6.51171875,-0.33437136602711065,0.18472142587146775
6.515625,-0.13801715780757673,0.6565744644933278
6.51953125,1.5239536968541383,-1.860184977522348
6.5234375,-0.23167235011284212,-0.49898636069413327
6.52734375,-0.000952271045695731,1.2657934209010517
6.53125,1.06081197156271,0.12745955375206627
6.53515625,-1.0315656394042447,0.4185708456691154
6.5390625,0.29464290935598475,-0.29124515693585656
6.54296875,-0.0831079911398309,-0.6025440231313041
6.546875,-1.3701099042633456,0.04747754444038115
6.55078125,-1.4331573231025603,-0.30740319014258044
6.5546875,-0.805403343146444,-0.7029400759660688
6.55859375,-3.0437732150514587,-0.7596718857600654
6.5625,-0.45957366762797913,-1.055374957376883
6.56640625,-1.1689400094024986,-0.5016396270787274
6.5703125,-0.03861948477426078,0.2802978423690355
6.57421875,0.7480249467145834,0.3546265553752299
6.578125,-0.9467123169098687,-0.7968551027650475
6.58203125,-0.9745264351705089,-1.8182049222085948
6.5859375,-0.7024091806286356,-0.19850080722606428
6.58984375,-0.25071679343137926,0.13244710368420087
6.59375,0.6892144596438746,0.30837543947982
6.59765625,0.47057615511501616,0.06683829496595474
6.6015625,0.30834395093904543,-1.094061043287062
6.60546875,-0.5208527374824485,-0.4977540080578406
6.609375,-1.726011522120068,-0.10217450484528216
6.61328125,-1.0344890472422956,-0.05373446010005569
6.6171875,2.0762510557214697,0.3563698182266543
6.62109375,-2.096785243764064,-1.4069939567938599
6.625,1.963844598889423,0.6109231116346602
6.62890625,-0.5851649855321185,-0.3247560587240967
6.6328125,0.42839799051446664,-0.04029728891301938
6.63671875,1.0400721737076637,-0.8002216059690342
6.640625,0.7966671966991696,-0.283819908809225
6.64453125,1.9542115780040807,0.6765505428100983
6.6484375,0.2763116747713681,0.09810309830967691
6.65234375,0.12106203457665657,-0.1523440729531114
6.65625,-0.90251257866969,0.3750492686199831
6.66015625,0.8572584214062261,0.3310582846393344
6.6640625,-0.8150462599163557,0.2363190415727245
6.66796875,0.6926671914293867,0.5044407259240947
6.671875,-1.628915883003814,0.2840412013474952
6.67578125,0.5779176912964756,0.4685542718220513
6.6796875,0.6300317150964965,-0.2825666694787471
6.68359375,-0.9644887224366895,-0.5870208112289945
6.6875,-0.20409805024709274,0.7504368267960201
6.69140625,-1.4269355289597045,1.3423454745443968
6.6953125,0.04938178436813259,0.5011569432256406
6.69921875,-0.7234618985933104,0.3390467003731091
6.703125,0.3337517057348406,-1.5807891536425172
6.70703125,-0.1797336092726376,-1.0220910375879313
6.7109375,0.8898843090938958,-0.5678982389448016
6.71484375,1.846572592755165,1.549304607183388
6.71875,0.11023985205102974,-1.1491102657741612
6.72265625,2.338003982364925,-1.9481551104856454
6.7265625,0.9214315614851124,-0.8828929359844505
6.73046875,-0.2502309670057593,0.9921833306700629
6.734375,0.5386863041721583,-0.8485958740610987
6.73828125,0.23043867101888574,-1.1908943174144795
6.7421875,-0.2976528604355245,-1.5416855273969015
6.74609375,-0.34790254488692723,-0.26874219766509144
6.75,1.3878184004331109,-1.3488564939456626
6.75390625,0.034474391801034336,-0.08427138979582224
6.7578125,-0.7893726424743122,-0.8377614888727917
6.76171875,-2.18168940190586,1.9538645041691178
6.765625,-1.9083065123785672,1.1570819553335954
6.76953125,0.12080345273279867,1.265397061485647
6.7734375,-1.4617528156619206,-0.9020274283030885
6.77734375,0.7254612916375943,1.3065288642402844
6.78125,-0.9255777660742542,1.8143512686379695
6.78515625,-0.8298463459150776,0.1903806388337498
6.7890625,0.15089944684466866,0.840829345564126
6.79296875,0.6357333750087378,-0.9900912104793433
6.796875,0.29543869544688767,0.018356880411575006
6.80078125,0.1541522094831961,-0.08085722917270192
6.8046875,0.20111139036224418,1.7389760014450446
6.80859375,0.27695636898836057,0.3178332267166576
6.8125,-0.20052779738016108,-0.22718298675742676
6.81640625,-2.008500258226517,0.07106687407552831
6.8203125,-1.0934322096151872,0.28601608848934473
6.82421875,2.297394308852486,-1.5728739003903893
6.828125,0.931310531522093,0.2673548146603185
6.83203125,0.03303076880381354,0.032519431821336535
6.8359375,0.9227300105406309,1.1092011768219432
6.83984375,-2.094884991427357,-0.3719630172001886
6.84375,-0.22868797080043096,-0.0538669781195502
6.84765625,0.6627779996982532,1.3210022532503471
6.8515625,-0.02438522402973311,-0.5214495009538469
6.85546875,0.28985235004759896,0.572102948949665
6.859375,1.0553872418442325,0.9708029285524722
6.86328125,0.5360588798704191,0.22439702760303545
6.8671875,-0.015567455497542888,2.216946594605764
6.87109375,-0.35606149018992417,-0.003933308734491421
6.875,1.7372027787709627,0.8833544700662894
6.87890625,-2.0810005079907645,2.121113347287834
6.8828125,0.3257953267121987,0.5309999687704188
6.88671875,2.0364511774704797,1.1159891769173103
6.890625,0.4912679151371555,0.7430973012040433
6.89453125,1.26686483759629,-0.11288397209342502
6.8984375,0.34004503313652196,1.812499133368103
6.90234375,0.06862023611370341,-0.6837393501488519
6.90625,-0.4774864217015985,0.0237658225524808
6.91015625,-0.9999936948512975,0.19918326059869293
6.9140625,1.6588699144469035,0.8443217928423324
6.91796875,0.7301506101244595,-0.48457273056313777
6.921875,0.5513689543834337,0.03507993282511049
6.92578125,-0.6611179056187294,-0.6994094198083548
6.9296875,-0.4253238940438536,-1.2647888671882024
6.93359375,-0.6409077182973903,0.7527370065620664
6.9375,0.5737015901394332,0.3082722500474742
6.94140625,-1.0081157960474056,-1.171074536908987
6.9453125,-0.6719704208252323,-0.25279565246959623
6.94921875,-0.33435750240706147,-1.110419939571749
6.953125,0.47763230902812537,0.020065468060620612
6.95703125,-1.1540903740151471,-0.5175208146776102
6.9609375,1.3622388159406629,-0.5619815427444086
6.96484375,1.1029654013718817,0.7645941041330044
6.96875,0.3263335470756478,1.0253602000601107
6.97265625,-0.36456709454918995,-0.5680710648666604
6.9765625,-1.0709382339799152,0.20567296050713646
6.98046875,-0.06619556168007097,-0.6262614682052446
6.984375,0.29486233335140044,-0.553169987785556
6.98828125,0.09212703802086865,0.6803774615406606
6.9921875,-0.36004868728976896,2.6841079253406925
6.99609375,-2.0132253157231,0.2159223783052243
7.0,-0.164201103683049,1.5190920696478079
7.00390625,-1.7620463110108182,1.8031105546812123
7.0078125,-1.9730934408644247,-0.5396333884195988
7.01171875,-0.8276615917802749,-0.36578536585930843
7.015625,-0.21500552720978122,0.21496465955547087
7.01953125,-0.9413550029564103,0.813035760484884
7.0234375,-0.25067148069484313,-2.0704542892154056
7.02734375,-1.3539280633233994,0.8357762216324682
7.03125,-1.0858928818529656,-0.25292628696226965
7.03515625,-0.571577257274875,0.2790302034693109
7.0390625,-1.3008391053922628,0.18959910112860137
7.04296875,0.6971068327758868,-0.09269624998101593
7.046875,-0.4197245200842581,-0.2201917654768411
7.05078125,0.27803308083085543,1.7217058332931328
7.0546875,-1.6891171801965215,0.19121736473499681
7.05859375,-0.9155286868837115,0.08472442850094115
7.0625,-0.2103399946663518,0.00032272016242658127
7.06640625,0.02255527170608887,-0.03643624253722706
7.0703125,0.17222442721862244,-0.6051157349205678
7.07421875,0.5061629777298583,0.027353354246620887
7.078125,-1.362923844831345,-0.735849014576936
7.08203125,-0.9167583118855843,0.39747761656445146
7.0859375,0.7524908947918184,0.4865969566413239
7.08984375,0.12983345032278445,-0.24375496721278797
7.09375,-0.045814870973358096,-0.005439902098979775
7.09765625,-0.4934028159178388,0.28936051659537876
7.1015625,0.021777698634950812,-0.5468530702892702
7.10546875,0.49342888036195975,1.4069669420764008
7.109375,1.3653764948585596,-0.807364364275342
7.11328125,1.1808266425043579,-0.31887355399299067
7.1171875,0.5904010716014364,0.39645598085204015
7.12109375,-0.02083830877348724,-0.3068466696451979
7.125,-2.143715421098745,0.14039589661703933
7.12890625,1.1898347641323974,0.2897414696386209
7.1328125,-0.23098769958336018,-0.5942803133800779
7.13671875,1.70393918959791,-0.39008280459735156
7.140625,-1.4654536029511165,-0.5806459024496955
7.14453125,-0.3173432258702124,-0.9489163104941086
7.1484375,-0.7607249137543043,0.656497530108743
7.15234375,-0.6173216290853795,1.18204165219673
7.15625,-1.339460774079835,-1.2559233057238435
7.16015625,0.040786740152944874,1.3463967841091675
7.1640625,-0.37814481128799077,1.1038979349490092
7.16796875,0.23130764986000504,0.16477937145282465
7.171875,-0.059409502770643136,-1.6246527762040983
7.17578125,-1.0498585026969134,0.29840022835817204
7.1796875,0.9538071796156532,0.13793211049549978
7.18359375,3.8244193066324557,0.5844180833715767
7.1875,0.7603422581396976,0.5187662550683079
7.19140625,0.3885368800072548,0.9762003495018531
7.1953125,0.3980391521867267,0.5545168883871757
7.19921875,0.8747126445629045,-0.3281231876235306
7.203125,0.5092951827149238,0.8223806516096728
7.20703125,0.4279206629945804,0.703254347022433
7.2109375,1.0149151814646507,0.9486869534930586
7.21484375,1.4303221894466471,-1.4574709609164778
7.21875,-0.13563024678707059,-1.2007478346430764
7.22265625,0.3084504867562134,0.5685820399778585
7.2265625,0.4731264307250215,-0.83075308179713
7.23046875,1.037856285370046,-2.021470018208921
7.234375,-0.7012573653723077,-0.6832988787991247
7.23828125,-0.47725232028088566,-0.33306379612440085
7.2421875,1.8641155346636147,-1.8178104294355841
7.24609375,-1.167363447987639,-0.8145980207658011
7.25,1.4496303211089645,0.00320514319659056
7.25390625,0.49273101964524374,1.3640554472096427
7.2578125,-1.050414144727733,-0.8587424861802972
7.26171875,-0.19576197261403022,-0.1731398414232651
7.265625,1.3664931538088427,1.7887071841494635
7.26953125,-0.86211806793516,-1.2417281949796242
7.2734375,0.7406326862766838,0.024189210238673528
7.27734375,-0.06439339175668589,-0.03519521987719674
7.28125,-0.8393086392525333,-1.946331740585091
7.28515625,-0.009885426634116722,0.26414221352880124
7.2890625,-0.8470701619389486,0.06647725727537566
7.29296875,1.132333349858433,-0.3973156775368843
7.296875,-1.5565211823561758,1.8799618538884704
7.30078125,0.2203029847321733,0.13085819642688798
7.3046875,-0.18682409318738613,1.4162644185446431
7.30859375,0.7145511565982369,-0.28264555895782645
7.3125,-0.18131662133181625,0.7709983059472622
7.31640625,0.6947330999346818,0.19432775408331432
7.3203125,-1.6768773387360927,-1.7349742508411905
7.32421875,0.9341778140464059,0.915173759354279
7.328125,0.8375471390161537,-0.34702771306345753
7.33203125,1.9929824412173938,0.7108877085920643
7.3359375,-0.243299383636298,-0.5911719217286877
7.33984375,1.6859619808162027,-1.407280464354297
7.34375,0.2202080231749682,0.26213216932583333
7.34765625,1.0241544915626928,0.8613791998536015
7.3515625,-1.0393009685534924,0.907569036518666
7.35546875,-0.1536949891657864,-1.0406323377160314
7.359375,-0.30639451488413133,-0.3086997302343164
7.36328125,0.9734906403546311,-0.21903556825051432
7.3671875,-0.10574972987092202,0.09844967100258926
7.37109375,-0.4313875756353193,-0.04364671070984564
7.375,0.4765984319465826,-0.8278834518018142
7.37890625,-0.5834481534535557,-0.39190101673635613
7.3828125,-0.2050844284393227,0.6473071628274681
7.38671875,1.5806525978811623,0.13742987476582053
7.390625,-0.5413279056828978,-1.3143330042423933
7.39453125,0.809536760515025,-1.9829897621848518
7.3984375,0.15958123404851493,0.7689338587899209
7.40234375,0.33184612778725125,-0.5320788893642041
7.40625,1.5650583536644878,0.9493766099922669
7.41015625,1.0542364883428796,-0.26491917297199497
7.4140625,0.7858355093036107,0.3557593914588473
7.41796875,1.1936266992648923,0.7426844205213002
7.421875,1.3891583224769215,0.3263205850541992
7.42578125,1.9885431856521307,1.1129903422237237
7.4296875,1.8480034205446683,0.7510042010744984
7.43359375,-0.4457411974085189,-0.06219430092966559
7.4375,0.7198376770098016,-0.5557052040111632
7.44140625,-0.1779043261665907,1.4702565894256074
7.4453125,2.085081090640395,0.373447840491158
7.44921875,0.9373419921781874,-0.7695199643285926
7.453125,-0.15676434236945794,-1.7110226999440867
7.45703125,-0.5176786676080375,1.4320801029777988
7.4609375,0.6955795096374137,0.01190050213953389
7.46484375,0.23171417207967285,-0.9254806153406325
7.46875,0.2506865398589634,-0.17796821880587504
7.47265625,0.7758320980761475,-0.4481525919520008
7.4765625,-0.3153868192144281,0.041454152030639735
7.48046875,0.8474997837607837,-1.1907758299118716
7.484375,-1.3511457128498388,0.12443447975383437
7.48828125,-0.9852126872414257,1.6930490324333158
7.4921875,-2.374426295845469,-2.6859441926595213
7.49609375,1.636737898408775,-0.6551348683965484
7.5,-0.7352664895756404,-1.5923014198295287
7.50390625,-0.6142047520631089,-0.32560975943129056
7.5078125,-0.8804460097897909,0.08686905537786832
7.51171875,-0.21057592152780621,-0.662288380219691
7.515625,-0.7209370574598088,-0.5441251401992984
7.51953125,1.7092940397677556,0.1870778304954224
7.5234375,0.7194152661010805,1.2728841137914821
7.52734375,0.17145078594863994,-1.5525029924783005
7.53125,0.5831783985946546,0.9304052052376101
7.53515625,1.6392109467911453,0.023593989532245445
7.5390625,-0.18737494405678176,-1.872303978539436
7.54296875,0.9803446567852424,1.021990775823681
7.546875,0.3958326396716457,0.15254851808196285
7.55078125,-0.721303804791651,0.5121001856596248
7.5546875,0.1101140182689363,0.25683405990245733
7.55859375,2.584577066866534,0.4966055208959112
7.5625,0.5457901122195247,-0.8140580525392765
7.56640625,-0.8809305548445638,-0.49959158974359147
7.5703125,0.6552006401603184,-1.115279326652828
7.57421875,0.8361734319910051,0.7816893091074317
7.578125,-0.34158338670985,-0.20989956454156705
7.58203125,-0.8208252488716055,0.6390525124776611
7.5859375,-0.13183615432419074,1.3952863331372967
7.58984375,1.294335524202275,1.460469662763829
7.59375,-1.2277436340166088,-0.06099401307598956
7.59765625,0.7111255244474187,0.6869790460214577
7.6015625,-0.26338719210384115,-2.6104558347776217
7.60546875,0.6468604604788054,-0.564086878937996
7.609375,1.0535310775851032,1.1265274767928046
7.61328125,1.4571387561132263,0.32571245332463006
7.6171875,0.23492048352771297,0.12696864925693446
7.62109375,-2.329276046504808,-1.5828013830588683
7.625,-1.2119262456094317,0.022567158947837097
7.62890625,-0.8056904359490669,-0.17105792743943274
7.6328125,2.107781905439299,-0.9996161762709717
7.63671875,0.7535205102587003,-0.8669199272924578
7.640625,-0.004561432175803404,-0.491470970220181
7.64453125,0.4635152356933896,-0.13389335581710862
7.6484375,-1.324190849859705,0.046457643301173884
7.65234375,-0.30485116769985876,-0.4908270620113832
7.65625,0.00571860755393755,0.9176140964789957
7.66015625,-0.9137566537294141,-0.19869701867660267
7.6640625,0.9011365121150517,-1.5585273252260747
7.66796875,-0.8811081845479186,0.5244213429651887
7.671875,1.781856677564366,-1.3914997850139719
7.67578125,0.816606343399141,-1.1093284361722493
7.6796875,-2.3924079960033513,1.4444797686549802
7.68359375,-1.468498686246984,-0.1124582433664078
7.6875,0.24644609611784843,0.1159386803205996
7.69140625,0.4082907949874776,-1.3045387250672986
7.6953125,-0.9276254758571031,-0.7980810700203628
7.69921875,0.28633997828064955,-0.1695579211700998
7.703125,-0.39071515817833397,-1.5676707054080907
7.70703125,0.4322628524326791,-0.4482707827465919
7.7109375,-0.0801819194685785,0.08644786154046635
7.71484375,0.12492542681187914,1.2476523672882496
7.71875,-0.013907463080779463,-0.8328180830224171
7.72265625,0.09126216020282074,-1.085733181895621
7.7265625,0.4405948589768841,-0.6281928822131807
7.73046875,-1.2542361647991218,2.122107208842646
7.734375,-0.29385775599427477,-0.6331800200065831
7.73828125,1.8535510386724923,-0.5605617452675256
7.7421875,-0.514519396858086,1.3289775925218623
7.74609375,-1.062916162591454,0.4499488200687649
7.75,-1.1713587432350105,0.18420753176355167
7.75390625,-0.47510179216194803,1.1777997649940652
7.7578125,-1.0005101881516947,-0.5475149551395455
7.76171875,-0.027978585394861772,-0.18669843995686533
7.765625,0.5444722293822951,-0.4510824196765758
7.76953125,0.20992874826691169,0.6813739744305575
7.7734375,0.14090172000411358,0.8177504953002079
7.77734375,-0.15215443419551458,-1.4994200332541592
7.78125,0.16583966015348528,0.5464445724458701
7.78515625,3.979822471740189,-0.6472653248092445
7.7890625,-1.3130947666827484,0.18283774460083715
7.79296875,0.6951052591453297,0.9089700323013148
7.796875,0.15279008186352286,0.3600163516599422
7.80078125,-0.7905788957079039,0.641841924897049
7.8046875,0.34998351469125527,0.5410419483274466
7.80859375,0.16712382629471362,0.15245091808490643
7.8125,0.09502269293877885,-0.5581030918105266
7.81640625,-0.6633966353248549,-0.2121857389560732
7.8203125,-0.0712002445170377,-0.2466748380718812
7.82421875,-0.28084192540855074,0.20079366647067562
7.828125,1.6157685108628657,1.1637600238506765
7.83203125,-1.40222490012329,0.04043803409736782
7.8359375,-1.1765714102599023,0.2566925199901842
7.83984375,-0.49524746797159364,-0.5217220255552486
7.84375,0.47894958053868086,-0.5251969972007728
7.84765625,-1.078957373450144,-1.5043577143352729
7.8515625,-1.3074564232242762,-1.0059635830266471
7.85546875,-1.1612559186539648,-0.008449113034876228
7.859375,-0.44638936316339484,-0.7123076055279499
7.86328125,0.12861383245614857,1.4867278665893129
7.8671875,-0.1906514065322263,1.8684464424042173
7.87109375,-1.2108143577975872,2.1144823891736126
7.875,1.0661771285669082,0.86436062521482
7.87890625,-1.8334175943912383,-0.3219878813371218
7.8828125,-0.5713400887559511,0.19427662334620177
7.88671875,2.55856898193002,1.3750148307134324
7.890625,-2.1821209429198762,-1.2055616170609234
7.89453125,-1.3186594287722988,0.3692464623726415
7.8984375,1.7354784909602416,-0.9365901913609416
7.90234375,0.7051875447345641,-0.09954970755774528
7.90625,-0.14429590619762614,-0.0926033141601294
7.91015625,-0.16682545845022195,-0.1373035412723877
7.9140625,0.878035777812358,-0.7722613170205437
7.91796875,-0.2711669863283839,-0.057771187948413946
7.921875,0.42859808648222136,0.9199056457240604
7.92578125,0.6815286979155656,0.430853124404283
7.9296875,1.8892342458267528,-0.19929813738274466
7.93359375,0.19660007421239015,1.2963132566226387
7.9375,1.602412727251161,-1.5728296210795576
7.94140625,-0.8485503258250973,1.3683071892945897
7.9453125,0.048415229143808296,-1.0968849598419184
7.94921875,-0.5596678573718852,1.046898284009924
7.953125,-0.7555433183804288,-1.3757572372153821
7.95703125,-1.5158591162367356,0.6737478220394725
7.9609375,-0.8954581310226553,0.3529581561249375
7.96484375,0.8548061136788934,-0.509595253845958
7.96875,1.2753235544507515,-0.1577481179479206
7.97265625,0.1578827292692637,-1.121637448497943
7.9765625,-0.5638374621405393,-1.5346651820214061
7.98046875,0.12874943058492833,-0.03220153015981995
7.984375,-0.9860740966145984,1.0344649386611764
7.98828125,0.15695249963090727,0.9030079002494446
7.9921875,0.42684235046077174,-0.9654609773868276
7.99609375,-1.593601779599619,1.6365311099118702
8.0,1.037426836448065,-0.07362268758011241
8.00390625,-0.23105454116186638,-0.4750411862586286
8.0078125,1.2312950769747408,0.40971181247625327
8.01171875,0.0817222245388733,-1.5094672937955573
8.015625,-0.2967451585183549,-1.7129297587432126
8.01953125,1.0390826336312373,-0.4120581560858338
8.0234375,-2.4670949723476845,0.6213390009100795
8.02734375,-0.4545779203265755,0.4483775513134
8.03125,-0.39296517997779984,-0.6137630358577887
8.03515625,0.6645461088708374,-2.031773362267036
8.0390625,1.0163922078892238,0.12486754326541273
8.04296875,0.2204194865656028,-0.7572830143946091
8.046875,-0.12658948131800998,-0.08586447851583345
8.05078125,-0.1725816530298,-0.5959435942983415
8.0546875,-0.3566518746721159,-0.8650903848715483
8.05859375,-0.0607623758966483,0.19818615695632927
8.0625,0.8335201745435107,1.3910025816974367
8.06640625,-0.7097821217858238,-0.5323735330981653
8.0703125,-1.0390515131170288,0.05597779230300797
8.07421875,-1.17823089515684,0.08245730570817783
8.078125,0.09781701570481142,1.6077035414303353
8.08203125,0.5418337016927603,0.6771241595642172
8.0859375,0.005297879974625603,-1.3264963813421997
8.08984375,-0.568994697640754,-1.5423941069284663
8.09375,-1.9851053695597993,-0.2293149753664193
8.09765625,1.323430054964024,-1.3777305392200239
8.1015625,0.15309755351217788,-0.2736784180531914
8.10546875,-0.8140983714729078,1.8976446787335184
8.109375,-0.19140628449708408,0.8550575238761864
8.11328125,-0.7003436771324371,1.8503883655475517
8.1171875,1.2117141904978646,-1.0272087062918165
8.12109375,-0.6186751440588774,-0.6680651525906661
8.125,-0.4138278692640903,-1.5247235564006962
8.12890625,-0.8253599098405562,2.3425158442833647
8.1328125,-0.23898494501443926,0.06655254376533523
8.13671875,-1.455026837959807,-0.23119416573322102
8.140625,1.9416286439893242,0.22400444172238837
8.14453125,-0.3083113338643872,-0.4024128586440998
8.1484375,1.8600704913297248,2.2123655844171517
8.15234375,-0.6015077041249522,0.5463374366257038
8.15625,0.35558134787689644,1.4283527059841692
8.16015625,-0.04526893420070607,-1.6730045292534417
8.1640625,1.083001309920411,-0.44551880851919917
8.16796875,0.46607456133331365,-1.1950946868978305
8.171875,0.38221610916408666,1.343543888081025
8.17578125,0.3213672641641663,0.30491040091612
8.1796875,-1.140276465438045,1.9786779111499595
8.18359375,-0.13301437493600943,1.0008669521852152
8.1875,-1.1191533407306942,-0.9438332650337395
8.19140625,-0.77577186511908,0.9676490339500584
8.1953125,-1.2472516829709446,-1.7583513240131015
8.19921875,0.49548059773347414,0.003369321393455313
8.203125,1.100258026184014,1.1269314606302256
8.20703125,-0.02610730755596971,-1.1762399239170396
8.2109375,0.056825758292522704,-0.42821919640879014
8.21484375,0.3238257091610222,0.8148497807134889
8.21875,0.7540943261460502,0.1622881206610347
8.22265625,0.3762351236817585,0.42692628071726363
8.2265625,-0.00016114824210047637,0.0075450308690108376
8.23046875,-2.405081160152088,1.5969031568834644
8.234375,0.4883871857633136,-1.213200575450084
8.23828125,0.6471845112981754,0.883650490024543
8.2421875,-0.7781319078783919,3.175574900684761
8.24609375,-0.5349185252560777,-0.44416022004474726
8.25,-0.806564869228668,0.3373275139521744
8.25390625,-1.7432741822995241,-1.0454038012094555
8.2578125,0.29429827046942403,-0.20401996048903692
8.26171875,-0.1605482619960471,1.12742246378873
8.265625,-0.34085309279063064,1.4456125775623703
8.26953125,-1.1673449597085792,0.27785866936986847
8.2734375,1.898740260307579,2.2854258913519847
8.27734375,0.5988650543191989,0.6393597188879776
8.28125,-0.5767355614181623,-1.4809007277255475
8.28515625,0.7199622285129055,1.207944210176476
8.2890625,-1.3406985894828891,-0.2220463560885314
8.29296875,0.45200972146208973,-1.2274838898286975
8.296875,0.14607580949756338,-1.3987884135818522
8.30078125,0.6352171267307628,1.0740474849577661
8.3046875,-0.8221203785393647,0.353590509712453
8.30859375,0.5146034274861889,-0.12659796861448747
8.3125,0.3065796931839763,-1.1999903550554323
8.31640625,0.948361169594218,1.3300094502282065
8.3203125,-0.13862962187704658,1.3715883604793582
8.32421875,-0.03603394827347305,0.1718670154210443
8.328125,1.4491517270750325,0.8278192508033847
8.33203125,-0.6334312239491573,0.6335958110952027
8.3359375,-0.005991180264399754,2.050658503974738
8.33984375,-0.9752849753582563,0.47078454122973246
8.34375,0.3720844744041081,-0.5484413673820564
8.34765625,1.2446137880211505,-0.45728145012451626
8.3515625,0.08523601810527248,-0.22502343466646024
8.35546875,-0.5233753276543257,0.1147947447810273
8.359375,-1.308664329408263,0.8142171052136606
8.36328125,0.17224668087018807,0.2792588226623846
8.3671875,-0.1369696673852218,0.16112552160804763
8.37109375,1.4811776284139173,-0.6346721336914866
8.375,-0.556997945651823,0.5401568064020887
8.37890625,0.5078661248550247,-0.10814853647455748
8.3828125,-0.09937378246823146,0.15370367099902127
8.38671875,-0.58385591150003,0.20864712305209218
8.390625,-0.3363141480101366,-1.7612151910845335
8.39453125,0.5774704526658805,2.1062009303115956
8.3984375,-1.333270572608277,1.4476437527713149
8.40234375,-0.2514412574695856,-0.108688443315194
8.40625,-0.14185862212270658,0.8253045242748961
8.41015625,-2.7120057587898474,-0.9475402635083422
8.4140625,-0.4224191041500189,-0.7512711740874601
8.41796875,0.15900076559673174,0.9396094842427286
8.421875,0.09400584933954254,0.11102241718355707
8.42578125,-0.5280715527400585,0.9767436782992402
8.4296875,-1.3581572821201502,-0.9632265935335701
8.43359375,0.14729305552693694,0.8094195919219869
8.4375,0.39645539197471863,-0.6558311881369122
8.44140625,-0.20233326923357825,-1.2147284958564606
8.4453125,-0.5757091102374217,-0.6705013522314593
8.44921875,-0.26716117567007314,0.1302777403614799
8.453125,1.182537116759024,0.1200294518213793
8.45703125,-0.5787707703584393,-1.3239011384029347
8.4609375,0.29330482367053656,-0.554380726439925
8.46484375,-0.3551871242287898,-1.1185621415378242
8.46875,-1.1471648462903954,-0.5554406524453054
8.47265625,0.0845435669262073,-0.20020623150173536
8.4765625,-0.44084183631646606,-0.3412700822431772
8.48046875,0.6741107926458757,2.3148555778385735
8.484375,-0.3022899338863667,0.8835680557705518
8.48828125,-1.072798860135129,-0.09185826758016687
8.4921875,-0.8951320559780048,-1.168761147298037
8.49609375,-0.13346568704320705,-0.4467195455646179
8.5,-0.38335601869799224,-0.29907313231410726
8.50390625,-0.3587678271440253,-1.5848320863074066
8.5078125,0.3636880264100679,-0.510031530204323
8.51171875,0.16827353286997912,-1.01825573195165
8.515625,-0.8348707278497095,1.8716786803813736
8.51953125,0.031819955229018995,1.7649493180534972
8.5234375,-0.21655832557954635,-1.0682903020153136
8.52734375,-0.8220414839606474,-1.3671750741000335
8.53125,-1.223054403240145,-0.31943432990071197
8.53515625,-0.5339029398131201,-1.7367487852979302
8.5390625,0.0014750677684467392,0.617538059584502
8.54296875,-0.26846014737698226,-1.602832717790369
8.546875,-1.083702213856146,-0.17510877205683587
8.55078125,1.830369454462289,-0.5875085586333733
8.5546875,-0.2700332818405353,-0.8096216154378453
8.55859375,0.8350168027406846,-0.7069394501733882
8.5625,3.0308111502528456,0.7803729757823187
8.56640625,1.4734232108655891,1.3155713153164739
8.5703125,-0.654152096983213,1.229695357900468
8.57421875,-1.1006990951216258,-0.13547726845327604
8.578125,-1.8798797299659191,0.8926084625066685
8.58203125,0.10620519421627682,-0.016665008616277392
8.5859375,-0.7829062439384046,0.7956055428438068
8.58984375,-0.6914272966643341,0.5981603238105946
8.59375,0.8650737328367643,-0.564856374939487
8.59765625,-0.3242850688312109,3.2192906820254046
8.6015625,-0.06887405238190941,1.250478601040617
8.60546875,-1.1009019014552694,-0.05477512800914921
8.609375,-1.1925491253217801,-0.03255691808323323
8.61328125,-0.14798128991802256,0.9817136098903059
8.6171875,0.9600257620219282,-0.24198593229305498
8.62109375,1.2404191987343256,0.37450016021275634
8.625,0.11407220744681515,-0.4089338516370325
8.62890625,0.1456871022957877,2.637709628698679
8.6328125,1.040870908170286,0.6395130996109125
8.63671875,0.21471204169724195,-0.044027817978284894
8.640625,1.0759180978800678,-1.1498995200777675
8.64453125,-0.2808077164763447,-0.5907701568372523
8.6484375,-2.6687844616837157,-0.19885637282276405
8.65234375,1.2735231702697805,1.4969086823418334
8.65625,-0.7886401945919783,-0.02337015909948178
8.66015625,-1.509250003497179,-0.755869505056956
8.6640625,-0.21330597479056168,-1.0068099671134576
8.66796875,0.770754303774579,0.5481648408003292
8.671875,-0.43603271203779775,1.0119422962547875
8.67578125,0.13652152302872625,0.43314172543291196
8.6796875,-0.9952199018967987,-0.41606964590759454
8.68359375,0.4657986769064288,1.190804219620211
8.6875,-0.41769471037863587,-1.048983907176747
8.69140625,-0.7025015735956269,-0.3930694334936154
8.6953125,0.44387270406328133,0.4722367677338972
8.69921875,-2.1452480616322536,-2.1836437036991114
8.703125,1.0135168230596536,0.7944395213715791
8.70703125,1.2054094355103007,-1.7109607052542029
8.7109375,-0.7031053730310862,-0.696433634564125
8.71484375,-0.12602876388347253,-0.4836676326114041
8.71875,0.6726698081906218,0.12406190065820898
8.72265625,-0.6464881965299348,0.20069465667486708
8.7265625,-1.1447423178997058,-1.7015734254445458
8.73046875,-0.14531538639806535,1.2778059289700108
8.734375,-0.7508684449017771,-0.21688525671753114
8.73828125,0.2668655136035514,0.5792407622503893
8.7421875,0.2537025055015626,-0.1621786651245165
8.74609375,0.13859419166174605,0.6348938321982877
8.75,-1.1336271912349714,0.025920246714272538
8.75390625,-0.1136422328063424,0.34669486151746565
8.7578125,-0.7329769696869097,-0.7140604716762915
8.76171875,0.2888376033195661,-0.37149903257740624
8.765625,0.1702477013726298,0.2513608598601085
8.76953125,-0.3619540623612018,-0.6775502069958244
8.7734375,-0.6318540850902484,1.7578974782738404
8.77734375,1.4394141820767585,1.124615356410215
8.78125,0.6710121232782846,0.5639966976257815
8.78515625,-1.1939828655492675,1.227545729656653
8.7890625,-0.5078397135383943,-1.125315945939021
8.79296875,0.9842965177721594,1.0864640246488906
8.796875,-1.3285380884675484,-0.0898153269019179
8.80078125,0.21407191415515345,-0.07904482249376663
8.8046875,-0.3670329160240807,-0.8686380358300384
8.80859375,-0.23155599507776067,-0.6206230586894367
8.8125,0.15793456006349435,0.6322155186738829
8.81640625,0.2817507102149589,1.2377150066844733
8.8203125,-1.2729946275155262,1.8826589730543568
8.82421875,1.589610851349292,0.9439014625095073
8.828125,0.6384089144660134,-1.3402108257299976
8.83203125,-0.2502352296931158,-2.2665438126125435
8.8359375,-1.742004918987263,0.5976680736488622
8.83984375,-0.3295620795876858,0.3248339011741982
8.84375,-0.33075727962474083,0.2430816906538316
8.84765625,0.9074712633559706,-0.20350052323739515
8.8515625,-1.0759995750440798,0.05386605048288667
8.85546875,0.4592920843491581,-1.362017804784752
8.859375,-0.970976877984374,-0.5638909941090539
8.86328125,-0.7029961426193736,0.014155663470260219
8.8671875,-0.21088216808364524,0.28962297080108246
8.87109375,-0.4581744901260669,0.08918480616297739
8.875,0.7165323430720146,1.3327796804642078
8.87890625,-0.9133291050905139,-1.324915960368873
8.8828125,0.16571910506579987,0.7208053475454816
8.88671875,0.3571391618341804,-1.2458326578552155
8.890625,0.46151735884144185,-1.0578462174882937
8.89453125,-0.03995484566132697,0.4504641741203877
8.8984375,-0.43899574315000434,0.9988794090929551
8.90234375,-0.7281448201782589,-1.5276750563460084
8.90625,-1.2000278479348163,0.35980495894690845
8.91015625,0.36060798581997,1.8004651954120157
8.9140625,-0.35844674660314196,-0.44836807060795053
8.91796875,1.6570486713780674,-0.985803366622547
8.921875,0.3089426832571453,0.5470674777058447
8.92578125,-0.63927806234313,0.3373316331680036
8.9296875,1.2761984088677916,-1.1516980750825043
8.93359375,0.6414906701624792,-0.2952495305420751
8.9375,1.6836117536717123,-0.40193248253590885
8.94140625,0.8972799714089351,0.09092447661774891
8.9453125,0.3699362088735225,1.2486901687958856
8.94921875,-1.5579572730475018,0.20945254157414267
8.953125,-2.0006653212746652,0.19295136870402813
8.95703125,-1.281586392235835,0.6136718729077285
8.9609375,-0.5904220540439878,1.218776748963624
8.96484375,0.6712129346292973,-0.8488401897645416
8.96875,0.5916901170528107,-0.6561582880086464
8.97265625,-0.16005497264195173,1.3969378546036642
8.9765625,-0.47307289022682236,-0.511984822389641
8.98046875,-0.6211730407177822,-0.11580260497261606
8.984375,1.0937178942223273,0.28692085618685337
8.98828125,0.29448960328539114,-0.7642468735519888
8.9921875,-0.014965169208830982,0.6322786578761341
8.99609375,-0.5125489386727482,0.9724929798445646
9.0,1.4892007163569585,0.5478926471894564
9.00390625,0.4020330807808369,-0.4521596302646091
9.0078125,2.24229756508314,-1.6528764399768163
9.01171875,0.2582532532630325,-0.16780743545803006
9.015625,-0.8772083548832459,-0.12689783128950036
9.01953125,-2.07013725819225,-1.1069260592589618
9.0234375,-0.011541699396627862,0.6737913686295046
9.02734375,0.9204011869864784,0.17753158874022604
9.03125,-2.134265797591516,0.27538294951211933
9.03515625,0.12726094792901113,-0.47419886817169016
9.0390625,1.7968024159846405,0.07146714819434218
9.04296875,0.5143789171489983,-0.40371011669311907
9.046875,-1.1792549421497047,0.4686695615659152
9.05078125,0.7605233095098003,-0.782161068809586
9.0546875,-0.4484269458804686,0.4220821797985525
9.05859375,0.7354875350723605,-0.3041650798273638
9.0625,-1.269732191124148,0.36724168363311344
9.06640625,-0.8459188247288268,0.20688627810827068
9.0703125,0.08491260341614275,-0.47075172786533753
9.07421875,-0.8614984259691875,0.12793577929840713
9.078125,-1.588555580312832,-0.11615122534474864
9.08203125,0.254960282478737,0.6977393444544635
9.0859375,0.2746800964999689,-2.154554082908962
9.08984375,-1.3100760470290829,-0.7862782131788617
9.09375,1.28572011523855,1.5614653548848634
9.09765625,-0.19405855710664358,-0.22276425641045358
9.1015625,0.5161567703825171,-0.4985096914533821
9.10546875,0.23746104288645184,-2.217233898318143
9.109375,-0.8513210778480876,0.3072538590159675
9.11328125,1.9573534912272026,0.36706451002391643
9.1171875,0.6620451094993699,-1.4408267474349583
9.12109375,0.28405520041688387,0.9079691797979013
9.125,0.7605098291330961,0.489450981743864
9.12890625,-1.6748377523297988,-2.03920557380108
9.1328125,-2.6941806739473244,1.9177322178724174
9.13671875,1.714433710115084,-0.6915653115151137
9.140625,-0.10550309157119278,-0.3245579900474845
9.14453125,1.5854864276183782,1.6673556022278044
9.1484375,-0.03941493561657021,0.3024812339539893
9.15234375,-1.5251730353765272,-1.3226798877247974
9.15625,1.2820790060430964,0.2999032963725021
9.16015625,-0.6035456275720683,-0.9805502006166746
9.1640625,-0.8359990028654065,1.0716873860595872
9.16796875,-1.602840891128638,-1.806174773349282
9.171875,1.040538093064912,0.9551242598614372
9.17578125,-0.3483237585496576,0.6773550828142096
9.1796875,-1.118321894744737,-0.6356245433335023
9.18359375,-0.6176076739812897,-2.2299258121854666
9.1875,-0.9465277655439422,-0.773103700973944
9.19140625,-0.3277266482760438,-0.4438762853634582
9.1953125,0.9526611743662443,1.1499681120571936
9.19921875,1.105096589759394,0.09376190319232523
9.203125,0.7397007432223995,0.05518725189799225
9.20703125,0.702458013648496,-0.45118297366938026
9.2109375,1.4922149694570706,2.111596752791426
9.21484375,-0.23639778413258244,-0.8404485087094111
9.21875,-1.0852080214959416,1.4628432123061614
9.22265625,0.19797092770196256,-0.0818938074703692
9.2265625,-0.8437321150777308,-1.7274183210014704
9.23046875,-0.5221437641441595,-0.31709326711067115
9.234375,0.38642907911925367,-0.2421137266439307
9.23828125,2.1891981158153557,1.0132097155606712
9.2421875,0.4015658187948998,-0.9890894456991417
9.24609375,-0.7607188637320278,0.6888782432456967
9.25,0.5179785738985826,2.9330272568553672
9.25390625,1.6818355669734006,0.5496442737496511
9.2578125,0.35039934760945585,-1.1808494629777517
9.26171875,-0.599333159604751,0.46740776263187045
9.265625,-0.675381445164129,-0.5534994455731275
9.26953125,0.36891789339758574,-0.6712033092743004
9.2734375,1.9166073216672554,-1.2537127974351479
9.27734375,1.2391642504023912,0.7898536853850563
9.28125,-0.15440507856512758,-0.6717538626322926
9.28515625,0.06318527508872056,-0.3900875786334096
9.2890625,0.9144981648235302,-0.8468809653258398
9.29296875,0.786647219819779,-0.11171202494787805
9.296875,2.067395746517851,-0.08589672288266215
9.30078125,-2.107115878421529,-0.6767254092872943
9.3046875,-0.6580553152138571,0.48030817306906237
9.30859375,0.3682053001289033,-0.7106762789636513
9.3125,-2.0871623764835694,0.7246906407114988
9.31640625,0.7421817021203289,0.5015728252984638
9.3203125,0.033197310267284834,0.0350995245675036
9.32421875,0.6709282941187851,-0.8758210258034096
9.328125,-1.3486712451876217,0.6083674510947613
9.33203125,0.6730264760981916,-1.8369941311786617
9.3359375,0.497535187226622,1.4252546167312656
9.33984375,-0.5540303494430279,-1.455852900584149
9.34375,-0.09535263426097708,-0.11686539827116948
9.34765625,-0.38384921055442495,1.9629519267453264
9.3515625,1.1718523643621883,-2.0731866658221576
9.35546875,-0.16331457757320902,-1.1090049038294134
9.359375,-1.076390586798438,-0.6813384762057622
9.36328125,0.683530591702976,-0.11938280316532231
9.3671875,0.49078842200400236,0.9496019387796244
9.37109375,0.8862924429744953,2.391730068048945
9.375,-1.0994806609582235,-1.6709481996829432
9.37890625,1.284064626456759,-0.08964839400055989
9.3828125,0.2527668188729169,0.1659175743994794
9.38671875,-0.7902982829743167,0.10651085776461035
9.390625,-1.0189313873302812,0.20127864331404313
9.39453125,-0.6519791786810426,-0.996732034155579
9.3984375,0.26831813735023197,-1.43951254415679
9.40234375,-0.8838260591362807,0.22501310317882875
9.40625,0.7304765741228243,-1.0117428860045756
9.41015625,0.5689633825579992,-0.19273582507695874
9.4140625,0.11908017783525754,-0.6696802676349582
9.41796875,-0.26989050899321726,-0.7521540749888325
9.421875,-0.4186186089362829,0.15404220078796502
9.42578125,0.8618573206062708,0.5525178919821468
9.4296875,-0.7651519987552213,0.0956565326904065
9.43359375,-1.073067890112701,0.2487481920915601
9.4375,0.7476280576621617,-0.6778042554045832
9.44140625,0.8438149992773143,-1.801501013469943
9.4453125,2.8455269876521765,0.518361600029826
9.44921875,-0.6999554558829761,-0.997864053563376
9.453125,0.24503854424469487,0.15581964868195183
9.45703125,-0.6226386961962669,-0.19313900592931066
9.4609375,0.5378452715850415,-1.2792358171419687
9.46484375,-0.7027156976726104,-0.7360299569183539
9.46875,0.6021974864629605,-0.5888808650020834
9.47265625,-0.892524832502661,-1.0091596850272877
9.4765625,-1.487954259817675,1.7098886327790679
9.48046875,-0.11176266339896489,-1.1070957799761239
9.484375,0.3195359098904706,0.25880065991220275
9.48828125,0.8584178753481928,0.6914574354893054
9.4921875,-0.37278521388789765,-1.7183760369993653
9.49609375,-1.207281063664781,-1.3826674214792736
9.5,0.5029920703253078,0.005623698884742245
