time,ecg,ppg
0.0,0.622699027469573,0.7979397895430953
0.00390625,-0.4377268542146727,1.6162429930248754
0.0078125,0.7897537145297324,0.40119787231495807
0.01171875,-0.2642164418305276,0.1233307982031042
0.015625,0.8514229964105536,-0.9500536164022989
0.01953125,-0.7892907924168755,0.213117494267309
0.0234375,-0.10775955030763608,-0.5938663740583625
0.02734375,-0.4190948377071103,1.9406930188648142
0.03125,-1.260548497619035,-0.15026258450134802
0.03515625,-0.9318278330929474,-1.0782674976098394
0.0390625,-0.02008422156862153,-0.773521798395597
0.04296875,-0.159317386641798,-0.13062892905012674
0.046875,-0.2123577607542491,0.475870408760496
0.05078125,-0.15700779058928863,0.8135241425657761
0.0546875,0.013557729197694515,0.6548354535532781
0.05859375,-1.160939329647609,0.8787248190896797
0.0625,-0.6623710754445922,-0.44725649278250507
0.06640625,-0.6835438777370354,-1.2285384241039483
0.0703125,-1.39550423203386,-0.5924202206572236
0.07421875,-0.14616624797634875,0.7777441447600362
0.078125,0.5695668415474145,0.730337232907527
0.08203125,0.8941886451044762,-1.2823977516008316
0.0859375,-0.4342514908235826,0.11446737722788898
0.08984375,0.11026250105809232,0.8934512765632374
0.09375,0.48564307644990995,0.42676088994940903
0.09765625,-1.340060326405738,0.992498830868278
0.1015625,2.329995190238006,0.3082580148109304
0.10546875,1.254067073098866,-0.2593679910430167
0.109375,0.0205401002899509,1.6405407718830787
0.11328125,0.786725285120978,0.17872967972339998
0.1171875,1.2363831824307447,-0.07424377593304564
0.12109375,-1.0559679885036273,0.502254533480613
0.125,0.9696842119900698,0.8636188460728379
0.12890625,-0.3438425977545747,-0.14490662688079323
0.1328125,0.3404301964188288,1.0800518698646595
0.13671875,-0.6331658708368382,1.5715514373978525
0.140625,-0.19024742540795397,0.9386313695522908
0.14453125,1.3539284851335256,1.5513972062934513
0.1484375,0.2459239329505944,-2.1051147931600354
0.15234375,-0.164111328147793,-1.7553037020843358
0.15625,0.5956041788464905,0.9151977524456669
0.16015625,-1.0157806734518324,-0.5254614051736551
0.1640625,-0.5178379006813276,0.5383953029117106
0.16796875,-0.6102186410828607,-0.02871885100984161
0.171875,-0.13155639498472765,-1.0576139671008287
0.17578125,-1.4132268849388843,-0.14473456510877206
0.1796875,0.310723439263688,1.7122605691566284
0.18359375,-0.7034755135273827,-0.02285513515489668
0.1875,-0.3469666197151315,0.6015349599037549
0.19140625,-0.603455980190811,-1.3218336044410324
0.1953125,0.7369181959953004,0.8426716479076036
0.19921875,1.3272930495959552,-0.37497064164005023
0.203125,1.045335609061315,0.9828576969485167
0.20703125,-0.3079148899616073,0.0336555665230459
0.2109375,1.0622657861314324,-1.0472855108527659
0.21484375,0.2710729150693783,-0.7905063160615302
0.21875,0.9271220398098062,1.0918654221873283
0.22265625,-0.1068791335097643,1.3488123990842797
0.2265625,0.5004605090449339,-0.05201211478831056
0.23046875,0.6876544872585624,0.4268065540395256
0.234375,1.2912017164504819,-0.8973050762999868
0.23828125,0.9713348176395113,-0.13249084394645408
0.2421875,2.210567879076027,0.40644113130936643
0.24609375,0.9155513197034398,0.48455679920228967
0.25,0.7267442546297775,-0.08086346661235985
0.25390625,-0.590922758352709,0.7649646166131613
0.2578125,1.096802794972044,0.24029082624831286
0.26171875,-0.5718531691008049,-2.2327278473131456
0.265625,0.39141680507596405,-0.37964121595309047
0.26953125,-0.26808435183601403,0.045852544903291284
0.2734375,-0.26625286100327455,-0.7659309398342791
0.27734375,-0.8619231091229891,-1.7597257569422549
0.28125,-1.0085517291246406,0.3977477531154386
0.28515625,0.39486807322144557,0.8902803576854387
0.2890625,-0.49707793961774244,-0.33893712945792853
0.29296875,1.0287166561724639,-0.36344347354434975
0.296875,-2.102921789548015,0.1385315811273108
0.30078125,1.0170311838036428,-0.5381219375292073
0.3046875,-1.0387685462267264,0.839028243843813
0.30859375,2.293146493277206,2.692160860894101
0.3125,-0.09030313686732144,-0.8071946179197819
0.31640625,1.3539375491792642,-0.46726201365013
0.3203125,-1.041122329772738,-0.21264814139521726
0.32421875,-0.8831506518306033,0.3709223792112361
0.328125,0.6359715020899769,0.239844125427027
0.33203125,0.6606304698600589,-0.4478331029608778
0.3359375,-0.8323679613111837,-1.849003795657486
0.33984375,-0.3975536375777302,1.2878351147207896
0.34375,1.9141998902183084,0.8251507183391815
0.34765625,0.09218053209138914,-0.9949909082825448
0.3515625,0.798550909616337,1.097812141022787
0.35546875,-1.0464794819508143,-0.1380143716006584
0.359375,-0.7686982634697681,1.3962714670625251
0.36328125,0.4753297285827884,-0.39583854337441143
0.3671875,-0.8027805095730072,-0.880743406443475
0.37109375,1.1776704306827641,-0.11889673908463913
0.375,-0.5460523383967054,0.922831559481507
0.37890625,-0.5088412512385828,-2.1142435215666873
0.3828125,-0.93260242271999,-0.738229737894248
0.38671875,-1.1421877322513758,-0.13102007996097847
0.390625,-0.643638220576193,-1.5971681697287727
0.39453125,0.29980474718375194,0.6069264515992394
0.3984375,-0.023951167155296653,-0.9683488969844711
0.40234375,-0.9197239544336208,-0.11260937914929105
0.40625,0.2601225500553332,-0.45555143489818145
0.41015625,1.2776111295705619,1.3958482600682982
0.4140625,1.3792485478435519,-0.1398254381544215
0.41796875,0.9392832494839548,-0.8070631313322953
0.421875,-1.4427987404782157,-0.01742538812790106
0.42578125,-1.1278312176043688,0.4336552156804961
0.4296875,0.26297127595552544,0.006780310858330815
0.43359375,1.5992186663155838,1.5659770560583517
0.4375,0.3105708051040983,0.10273559125702565
0.44140625,-0.4566094288674315,-0.4456019890660042
0.4453125,-0.7601904814465292,-0.5232019618973169
0.44921875,0.7044811710957964,-0.02233703298255424
0.453125,-1.3229472953373156,0.9128571833751008
0.45703125,0.3714686058234806,-0.2839089708389251
0.4609375,-0.6694301234219937,1.681479894336302
0.46484375,0.14598242017034888,0.37235577583718366
0.46875,1.602220665380214,2.954942106061591
0.47265625,-0.5207094872642379,-0.12951981366973922
0.4765625,0.6176065753185308,1.6896054405291794
0.48046875,0.6436487681142927,-0.2052164269499984
0.484375,0.39675168258910215,0.35592686845855637
0.48828125,-0.3810802980787417,1.389105391178122
0.4921875,-1.0662505581491004,0.7515007875876555
0.49609375,-0.16858955781942414,-0.7164026353177564
0.5,0.7167504826030013,0.9058763562628993
0.50390625,-0.9424409431206393,-2.7375373761749624
0.5078125,0.641689243306383,0.06670239864397903
0.51171875,1.2342742096935717,1.5544927794772159
0.515625,-0.12365499716825432,-0.32888348676091916
0.51953125,0.06742796433514335,0.9101316576855983
0.5234375,-1.5772817527678689,0.6078523273128505
0.52734375,-0.3789993718236492,0.023391054189824272
0.53125,0.3333287466402182,-1.471620192450061
0.53515625,-0.16600071567337646,1.275509062446265
0.5390625,0.07026165313293208,-0.7019594534612055
0.54296875,-0.6058642661121217,1.0899836365744409
0.546875,0.5219609635504211,-1.5009053324630266
0.55078125,1.4498572558433893,1.7798673499298316
0.5546875,-0.14152123379128217,-0.21508467400698095
0.55859375,-0.7394180095304195,0.9284960412952108
0.5625,0.7245611974775972,3.0161948316302865
0.56640625,2.3237224701931583,-0.9589661518771655
0.5703125,-0.628102561643214,0.7931504903092543
0.57421875,1.0502190032710357,-0.3968688125662711
0.578125,0.5685107005695579,-1.2014427048894745
0.58203125,-0.9393131368922051,-0.4168888897251238
0.5859375,-0.6434149498531198,1.0773979326849021
0.58984375,1.9799247733361645,-0.012383944951891367
0.59375,0.5975426785285142,-0.4471254668379745
0.59765625,0.7018347053002543,0.5649559408628925
0.6015625,0.35258537161220027,0.04868578826743675
0.60546875,0.43652182221517055,0.8723630207454733
0.609375,0.7815395694978604,1.7011098160375817
0.61328125,-0.3511248635727971,-0.3937486649141368
0.6171875,-0.5669232640359807,-0.49654835931438646
0.62109375,-1.1693436951335296,-1.283779934641874
0.625,1.7182572599617976,1.008278204877005
0.62890625,-0.1739369297700986,-2.0026597764258876
0.6328125,-0.22046143717858385,0.7796337767946252
0.63671875,-0.1575241204929133,0.4040979168126976
0.640625,0.3736612291865531,-0.12103691947039823
0.64453125,-0.45831316416404955,0.6453885651806914
0.6484375,-0.21072191196372006,0.30272311303945765
0.65234375,0.2834843674401868,-0.6450566999761778
0.65625,-0.5607441900163764,1.093716758066759
0.66015625,-0.2576439522129025,0.3690831974313024
0.6640625,0.7493433788311775,1.1131975363034283
0.66796875,-2.291614727376205,-0.5601914401443451
0.671875,0.8550155445706702,-1.8817143370530194
0.67578125,-0.6582940432730786,-0.05507794291043181
0.6796875,-0.9394595321303743,-1.1929047842963916
0.68359375,0.7947730476101039,-1.2807557828626766
0.6875,-3.1292684186495343,-1.3889953528672474
0.69140625,-0.752822147107053,-0.542099768405485
0.6953125,-0.36508090579379127,-1.4969301745707224
0.69921875,0.21853770639442463,0.6343460057291447
0.703125,0.23765083053454217,-0.8881451547080843
0.70703125,-1.4563150892316608,-0.5654290657424682
0.7109375,-0.5471478314461478,-0.2535152423978503
0.71484375,-0.09022295053652596,-1.493961987060592
0.71875,-0.9759398054045924,1.9036767198408329
0.72265625,-1.0919980683931505,1.0136334343472195
0.7265625,-1.467451521888818,1.2638830311221882
0.73046875,-2.18205363693846,-0.7944113109169738
0.734375,0.21543574753401692,0.5973763339098334
0.73828125,0.9114670972339174,-0.8575815903158485
0.7421875,-0.3544824624332686,1.0079289109645795
0.74609375,-2.4327265906797226,-0.6940307597928342
0.75,0.23888382318604867,0.03226506764879091
0.75390625,1.1297420948810457,0.6829821659567847
0.7578125,-0.9804745854572914,0.43794864658733784
0.76171875,-0.15244439397865678,-0.42078381879676324
0.765625,0.4678799269382838,0.49578069129714125
0.76953125,-0.7856732734107598,-1.0360308606355193
0.7734375,-0.5045987398480439,-0.5185835396838661
0.77734375,0.8627109922393064,0.6759981919100335
0.78125,0.9652658109609968,-1.7304647963518913
0.78515625,-0.6826169789197755,0.13793001867905005
0.7890625,0.5752808782898214,0.7283379166004487
0.79296875,-0.6968081495047485,2.0503056466070677
0.796875,0.7200463225695959,1.4504823851200943
0.80078125,0.32905170359366753,0.016107018353076766
0.8046875,-1.085236043203713,-2.643193802500546
0.80859375,-0.7025864788065768,-2.007199020531255
0.8125,0.8395957300045748,0.4843440272788479
0.81640625,0.4010218301056427,1.1399104010010517
0.8203125,-0.1616385089582628,2.084652205665353
0.82421875,1.563083151566073,0.9198290883282837
0.828125,0.8972957040583848,1.6491715183321856
0.83203125,1.0531355086533443,0.5110728226417302
0.8359375,1.9161295940301561,1.2426697590982954
0.83984375,-1.4041266873098552,0.23794311565412696
0.84375,0.4882119492084668,1.35533245601715
0.84765625,-1.542037007686011,-0.7539660386448355
0.8515625,1.4342345273928545,1.1827589410116197
0.85546875,0.7931460301908447,-0.40619574602774533
0.859375,-0.7730244614495623,-0.7527428096858432
0.86328125,1.2560270151720618,0.16934092146815322
0.8671875,-0.7482870571567074,-0.567979389337805
0.87109375,0.19757888914735203,-0.7664042580557088
0.875,-0.27551694591162357,-0.7046195191086646
0.87890625,-0.19458036633165646,-1.740679760006494
0.8828125,-0.8271776853649211,0.7341378223451028
0.88671875,-1.4510797933088466,-0.24539756703244905
0.890625,-0.052515804729808095,-1.417983319799562
0.89453125,-0.40784830199671507,-0.15787307439072726
0.8984375,-2.533100770361291,0.4287252378644069
0.90234375,1.3105969431854025,-0.28543290426607715
0.90625,0.16122807399760025,1.0063822859534335
0.91015625,-1.8533796480260212,-0.9895151131331564
0.9140625,-1.1908287122839312,-0.5584881688807062
0.91796875,1.3466738187774394,0.6423257317012407
0.921875,-0.348321509945068,1.4581850454474456
0.92578125,-1.0621024333739926,0.5607549582872311
0.9296875,0.4403517898279964,0.14370310277424336
0.93359375,-1.087547526619366,-0.7714733920227335
0.9375,-0.10788118947492352,0.6366498756968206
0.94140625,-1.0103632314256215,3.183227546357253
0.9453125,-0.33032882876188224,0.25318787517891883
0.94921875,-0.4655375664914049,-0.47135708907115415
0.953125,-0.019448721902505607,-0.8223650314472113
0.95703125,-0.5745883897420971,-0.5061299573919993
0.9609375,0.7579004894893742,-0.5407007148596901
0.96484375,0.7524797019190688,0.07016387788985964
0.96875,1.1786254561146892,1.4297580834864059
0.97265625,1.0192027559649055,-0.30190768280083286
0.9765625,1.1303693201855518,1.1770093334001268
0.98046875,-1.2372432597343637,0.12173134139499305
0.984375,0.8598917292871813,0.8906389448662774
0.98828125,-1.2249403055934815,0.3579413928238973
0.9921875,0.690936311526133,2.160209943866148
0.99609375,2.651687255898364,-1.9773856636724327
1.0,0.30321713123852395,0.5727224204708699
1.00390625,-0.8873061881697144,0.4799759342428825
1.0078125,0.8016955501573374,0.8557717543549045
1.01171875,0.22668008581802387,2.5332195798968002
1.015625,1.5553931284840956,0.5473408537842547
1.01953125,-0.5488191578485384,0.3771798740202469
1.0234375,1.7470708911552253,1.7817287883176298
1.02734375,1.697660511876115,-0.6498838568864068
1.03125,0.4314466836571154,-0.3141875618452263
1.03515625,-2.145247330695207,-0.8001468050158326
1.0390625,0.1689486259082072,2.0623951657659396
1.04296875,0.47023817272540597,0.8825903500665097
1.046875,-0.5836571313956005,1.5809292573343756
1.05078125,-0.8915227743229266,0.19643340008929586
1.0546875,-1.6574858509544381,-1.026048313302247
1.05859375,1.4004944922128308,1.0284678219619199
1.0625,0.23765120651864052,-0.8675318117655192
1.06640625,-1.496974091282478,-0.5715755805365264
1.0703125,0.8512556872694581,-1.5482157065442075
1.07421875,1.5604837044669342,1.34997807028503
1.078125,1.9174882640213886,-1.6918759414170008
1.08203125,-0.4112486524222623,2.133901680987887
1.0859375,0.2518544376026662,0.2641149140440938
1.08984375,0.7797557225977368,0.6964964756519803
1.09375,-0.258088353176681,-0.36718242354669267
1.09765625,0.23598123067073543,-0.38988346035470356
1.1015625,0.3341250519309638,-0.041582726787412046
1.10546875,-0.49877888041048224,2.249684444335719
1.109375,0.8575490243293367,-1.1450581512538718
1.11328125,-0.5595411769750384,0.5592288384489904
1.1171875,-1.0599698706967895,-1.6570170502000923
1.12109375,-0.48133890623272724,-0.48089874293494145
1.125,0.5575447242209468,-0.49272091675430385
1.12890625,1.7625456838124716,-0.43137760819501675
1.1328125,-0.18556009724027608,-2.3089603437418953
1.13671875,0.48332527461982605,-0.9733178200534596
1.140625,0.10323180685766364,-0.3756913699020238
1.14453125,-1.1911094717896773,0.8684124189214794
1.1484375,0.5867074888581929,0.6456070593443325
1.15234375,0.5357661270147647,-0.20897027774694169
1.15625,-1.3062423724881203,0.4441533525423097
1.16015625,-0.035501254878939605,0.5565638834795406
1.1640625,-0.3430397703372976,-0.8563735151418115
1.16796875,0.6912938812988008,-1.9385198228548535
1.171875,-1.3147293151090356,-0.5910035062715558
1.17578125,0.6428491472961723,-0.7924104349667312
1.1796875,0.190634046148109,-1.2310573523497763
1.18359375,-0.2348981191460505,-1.435883055664045
1.1875,0.26424749851827767,-0.34058455658594355
1.19140625,-0.31108264224091314,0.8073789846342807
1.1953125,2.301138168447154,-2.34328807509134
1.19921875,0.3362191112196862,-2.3008256301507113
1.203125,-1.3507789277403581,-0.42246457565813755
1.20703125,-0.5211788789372106,0.4619127555545256
1.2109375,-2.1215031078130497,-0.19715972373506352
1.21484375,1.3407058811019301,0.4054193045926087
1.21875,2.096522761650408,-2.3684940648528476
1.22265625,-0.8329817217758964,-0.7224255011427572
1.2265625,0.5612752436867701,0.74025807170892
1.23046875,-0.22075448362832348,-1.3769191414784328
1.234375,0.5821780054782625,-1.0718476781029989
1.23828125,2.464761643631954,-0.8686002368773094
1.2421875,-0.5916222884474729,-0.3933970948343535
1.24609375,-0.07445384731585356,0.13982736631447032
1.25,-0.15765675415264463,1.3507121199615932
1.25390625,-1.5711262261475858,0.40615341014425
1.2578125,-0.45113279064896405,-1.524035408386132
1.26171875,-0.2694629375028731,0.848683531636215
1.265625,1.1507254164901106,-2.5567185382942936
1.26953125,1.6904664290392595,1.7642728085717188
1.2734375,-0.4797571341170595,-0.6084288635655105
1.27734375,0.7071389365230362,0.33173557259836256
1.28125,1.373629628203662,-0.5618213776883432
1.28515625,-1.6844023961554546,1.2495626503419197
1.2890625,-1.0548241923070703,-0.23732824322288326
1.29296875,1.2331448847109192,2.1506200441164007
1.296875,-2.058857869605081,0.4986424813663991
1.30078125,0.6881715349204675,-0.6772520352169255
1.3046875,1.3489393705786943,0.3849885940137819
1.30859375,-0.09941263942650423,-0.003462760918946989
1.3125,-1.0719363242805262,0.6868036003832552
1.31640625,-1.72128154979769,0.23748543646514786
1.3203125,-0.8809564121321091,0.7051745247716252
1.32421875,-0.6894324062977278,-1.5060693178952285
1.328125,-0.04029209140621548,-0.5454210189419375
1.33203125,-0.1677439793278956,0.9044808245885537
1.3359375,-0.10736381034671025,-0.25783999372725425
1.33984375,-0.2605756152438423,-0.2622080631527001
1.34375,0.1073882636101164,-0.06984534720586857
1.34765625,-1.2899690646629318,-1.2567609926410628
1.3515625,-0.16533638997755207,0.3594677726077544
1.35546875,-1.5498370904138696,0.4715026375928864
1.359375,-0.13076302225006708,-0.5955189718085532
1.36328125,-0.7480752236822055,-1.0327304085017053
1.3671875,-0.12846663846357348,1.524196545215896
1.37109375,-1.0320599428094595,-0.9594831770225247
1.375,-0.7870623527367453,-1.0098151064635683
1.37890625,-0.32690474496210786,-0.7372837179653535
1.3828125,0.7520829140595174,-0.4027132760859156
1.38671875,-0.7284845974687306,-1.450397291053956
1.390625,-0.9110903375598498,0.9144331898675804
1.39453125,-0.7587938824574834,-0.9825838788551281
1.3984375,0.9008379506036633,-0.4250239231246647
1.40234375,0.7714601355784328,0.08826737505119445
1.40625,0.6136731034582761,-0.04685867674453429
1.41015625,0.1507963863511019,-0.6102441219567118
1.4140625,-1.303023113034739,0.6107556634797763
1.41796875,-0.5272048366081344,-1.1709172229073581
1.421875,-0.6187876769518247,0.7624165032491942
1.42578125,0.07489402497627845,0.17548689763189854
1.4296875,0.6508666745515967,-0.037292291074759065
1.43359375,-1.2243941782798295,0.8262638204028186
1.4375,0.21531706346673413,0.8797656974725728
1.44140625,1.1720877271703523,-1.5935887657600085
1.4453125,-0.7684617898994073,-0.6612084657268814
1.44921875,-0.37525598463091164,0.31623071726243496
1.453125,-1.0847155394455108,0.2509902121536638
1.45703125,-1.500300620579486,-0.5371069696479235
1.4609375,-0.4984747237012452,-0.9709366169935092
1.46484375,0.9800213142818085,-1.2201587530562197
1.46875,0.2798989272728672,0.35432027665525356
1.47265625,-0.6362231458736877,-0.458124553786864
1.4765625,0.20323529017934494,-0.20093236706233866
1.48046875,0.8446140331943588,0.7612330075824428
1.484375,-0.48622500226199594,-0.611137992945184
1.48828125,-0.48593963181647987,-0.2439201913376109
1.4921875,0.5057671525423267,-0.5992618365538374
1.49609375,0.7723511123619519,1.1843995755720065
1.5,0.9842598673818562,0.1915343980982771
1.50390625,0.4583636718363404,-0.12376864136748136
1.5078125,0.1557751982271667,-0.9149808074904677
1.51171875,-2.081153655600588,-0.39165302819486236
1.515625,-0.9858756314891518,0.21003947094800143
1.51953125,0.35474232488168317,0.3234586209266334
1.5234375,-0.41155701220896357,1.6231457757908612
1.52734375,1.531766275682804,0.543714091684095
1.53125,0.49865122523005206,1.4541679095314028
1.53515625,-0.36047858384995324,-0.18331917038903642
1.5390625,-0.07107849882164503,0.6747456549115297
1.54296875,0.8468445948017037,-0.24645777276528735
1.546875,-0.09376148629325799,-1.144724935407396
1.55078125,0.345769122465495,0.9503049327466724
1.5546875,-0.17599339849762638,-1.0699742240055048
1.55859375,-1.2696473020259302,0.7291283691726996
1.5625,-0.8861164424558392,-0.08813120356193382
1.56640625,-0.7039001229736803,-0.35386588023171667
1.5703125,-0.13195976276389154,-0.611567750404936
1.57421875,-0.22863642010839433,-1.5959280797177076
1.578125,-0.40072685103907824,0.38300813535950695
1.58203125,0.8212876896455176,-0.2662244204449417
1.5859375,-0.693179390677697,-1.3352884566728307
1.58984375,-0.978792952025359,1.3872995082886503
1.59375,0.7100099379605699,-0.4647235796867697
1.59765625,-1.6495195205317947,-1.1886194350863832
1.6015625,-0.12029548255056592,-0.5895847074409468
1.60546875,-2.136148438622375,-0.7262066362998972
1.609375,-0.33366495602739815,-1.5847995391809224
1.61328125,-2.386014934034365,-1.864183183678198
1.6171875,0.4256884809836897,-1.9770463705950319
1.62109375,-0.41625185704220763,-0.388596982427178
1.625,-1.2449323783264121,-0.806732614257553
1.62890625,0.35908080861445174,-1.103653039362213
1.6328125,-1.2118954694578665,0.29230369947914464
1.63671875,-0.0457153303545888,-1.2786809231539984
1.640625,-0.4209344268564565,1.6184749671284024
1.64453125,-0.6024118723361781,-1.2584402649065973
1.6484375,0.07454907141404218,1.2706178911237098
1.65234375,-0.061041412185977535,0.5070950601030852
1.65625,0.7283518246939049,1.372568566027435
1.66015625,0.8647282258699319,-0.2960467161894881
1.6640625,-0.777331288291832,1.570550240067184
1.66796875,0.586599202439789,-0.6508878023896324
1.671875,-0.19484873829457638,-0.03713837639212167
1.67578125,0.33314613980170776,0.055418870424527984
1.6796875,2.0965741054963942,-1.223642831191125
1.68359375,-2.16703997046071,-1.1780584052397276
1.6875,-0.3076020978428769,1.7917302528611434
1.69140625,-0.5213302647241043,0.17150439573772364
1.6953125,-0.8569700916418621,-1.0988310699771224
1.69921875,2.0103753894746137,-1.4528751179176926
1.703125,-1.7465449742354588,-0.04076265655176322
1.70703125,-0.6306161233316042,0.2627883006373877
1.7109375,1.3299312595997956,-0.9596525102546847
1.71484375,1.1975736708373226,-0.14686566417716798
1.71875,1.3898001783101446,0.06191191981068362
1.72265625,0.16621898500629267,0.49648372433893706
1.7265625,1.3348234387133655,0.17936973253429386
1.73046875,-1.6972810417742907,-0.7773698046949079
1.734375,1.3831200036576459,0.35459600950357123
1.73828125,-0.5432033153569551,-0.4308879853276511
1.7421875,0.4586509431462864,-0.876489428892409
1.74609375,-0.7216397079984547,-0.6198605531228859
1.75,0.24764906850635038,-0.11238951853876773
1.75390625,0.8559559587904078,-0.19745193808816378
1.7578125,-0.5176430943376952,-0.5780091663852913
1.76171875,0.4179725993895967,-0.08964860847296707
1.765625,0.8826426378393751,1.7091618878119401
1.76953125,-0.5072224187562061,-0.3397995292639072
1.7734375,2.241107479068149,-1.67333178251529
1.77734375,-0.4724701177963385,-0.6699753251804723
1.78125,1.025695921440093,-1.9944334014366447
1.78515625,-0.15030912580467565,-0.5129561679394121
1.7890625,0.9982165202512576,-0.10569165751718104
1.79296875,-0.559782260481649,0.3865266369118739
1.796875,0.9658610876032276,2.19296493721763
1.80078125,-0.3755395819241214,-1.6659151973592745
1.8046875,0.9400033191781861,-0.4321985006127658
1.80859375,1.1166452849894566,-1.331895709678549
1.8125,-1.2701184004195238,-0.01632952269960075
1.81640625,0.14270913349975325,1.132988784749275
1.8203125,1.2093905543136452,0.6933219398930736
1.82421875,-0.37219817462557886,0.7374766197596871
1.828125,0.9982073883013908,2.6750722835691034
1.83203125,-0.4239568464233116,1.4525698142092682
1.8359375,-1.6366913671413057,1.3226673462798915
1.83984375,-0.06917891592870536,1.179961595246289
1.84375,-1.4106954180489923,0.39952888047336055
1.84765625,-1.086031095137358,1.0092069361816738
1.8515625,-0.34986066842167207,0.749139455574666
1.85546875,1.6607001517239657,0.6887823212768222
1.859375,1.1144417719271489,-1.882993359143823
1.86328125,0.47297496078247714,0.5651521743614025
1.8671875,-1.2016626387293965,0.29046462882831753
1.87109375,0.09586625647951616,0.23561496452221087
1.875,-0.09564622429282207,-0.2988335614062478
1.87890625,-0.09785027290233886,1.076188614777818
1.8828125,0.09364293776902383,2.047462197021376
1.88671875,1.5030480931723749,0.8220562222974869
1.890625,-2.566177772174289,1.215029059071328
1.89453125,0.23726139501383253,0.07644567472639556
1.8984375,-0.7839285525833156,-0.07888784443901667
1.90234375,1.3784767199346013,-1.2087360830363316
1.90625,1.9284727223764235,1.9506512268661118
1.91015625,0.7233114054747601,-0.15336313698915907
1.9140625,1.9536948265022316,0.5345613200917784
1.91796875,-0.34504494246342127,-1.159085684906062
1.921875,0.2531569187235335,2.20040920348429
1.92578125,1.523178976169469,-0.7402067322956458
1.9296875,-0.02995883583097092,-0.3313578912426854
1.93359375,0.142735656837115,-0.1733300322412602
1.9375,0.324218925486879,0.3406451884467183
1.94140625,-0.08613097315287936,-0.03206442913826555
1.9453125,0.1976451470215127,-0.3456534424984138
1.94921875,1.2912795439973483,0.4511523584851448
1.953125,-0.04212654591652331,1.0507983574841693
1.95703125,-0.7071966633718292,-0.9831651945217201
1.9609375,0.62221005417655,-0.8415909778305944
1.96484375,1.1879205676229498,-0.2725319514256634
1.96875,-1.4574523922894784,0.7305603182360494
1.97265625,0.2155821350442063,-2.297640667716491
1.9765625,-0.13610991371302708,-1.7233721280783059
1.98046875,-0.09411677750731291,0.016350728720926803
1.984375,-1.749125430248127,-0.7192795792969461
1.98828125,0.33287238050900736,0.6351823955056058
1.9921875,0.3502933991042879,0.6642968389442673
1.99609375,-0.8714837700040272,-1.2381318826612728
2.0,-0.8819917413306522,-0.47955470730143646
2.00390625,-0.9796656126772216,1.8093691556721732
2.0078125,-0.3566837239276109,-1.4223157831466795
2.01171875,-1.9790272976184962,-1.3378604267904803
2.015625,-0.13810081076033517,-1.2517301188554526
2.01953125,-0.7509260613093248,0.5232095853397682
2.0234375,-0.8090409051507177,-0.3534302042148432
2.02734375,1.6220676688969893,0.47284167563052576
2.03125,1.1580431503905873,1.8512008955214694
2.03515625,0.29360203058623,-0.22904302549100367
2.0390625,0.8798169003085266,1.4638660320043542
2.04296875,-0.5445996056659068,1.125436161496186
2.046875,0.3865874490610598,-0.6713197477507942
2.05078125,0.29322387361412294,1.7665711202615253
2.0546875,-2.421556496236598,2.13290479258144
2.05859375,-0.03489706484135525,-0.3409089416682685
2.0625,0.7225991451111526,0.06169302023567968
2.06640625,0.4228879144348569,0.26797870777764776
2.0703125,-1.8431118824751547,-0.10370505418689957
2.07421875,1.1883354781424398,-1.0429189421556389
2.078125,-0.6131933205472807,-0.1569100563049273
2.08203125,-0.7222482976772553,1.0662830835769985
2.0859375,0.2855190068284004,2.0319065910004497
2.08984375,0.4982137265333648,-0.3796780972762943
2.09375,0.9373785495719331,-0.7812800324100351
2.09765625,-1.3182436948674479,0.6113298124350635
2.1015625,0.9089790604627875,-0.6434382016553046
2.10546875,1.6934804286504,-1.340839329973298
2.109375,-1.3468882639219817,-0.37261848369322736
2.11328125,0.7035330797182553,-0.3339663466566582
2.1171875,2.1599674378904297,-0.10326559488036338
2.12109375,0.7508685548026176,0.9296558740781734
2.125,-1.5322261696921098,-0.46836302441049515
2.12890625,-0.5610373627262276,-0.002195444745688488
2.1328125,1.182492253910356,-0.00012472462766970258
2.13671875,1.2314857218477528,-0.9925155349104308
2.140625,-1.415897297620849,-1.0959082746220679
2.14453125,-2.083232926057327,-0.15347770595394972
2.1484375,0.8112935835233054,-1.4842027594669072
2.15234375,-0.5496732016686235,1.5554780407139468
2.15625,0.5991086757188089,-1.4861048571727182
2.16015625,0.35656465589551045,-0.9360557683516381
2.1640625,0.02063971626778721,-0.3746792404726494
2.16796875,1.0751999079397165,-1.9793084979923576
2.171875,-0.4679459823379624,0.2923574965064154
2.17578125,-0.2504591091226532,-1.016268648716149
2.1796875,1.5796639089545494,-0.24886945099516378
2.18359375,1.5245696505010664,-0.11695802152812738
2.1875,0.48955390746639404,0.16166996723281413
2.19140625,0.1244105063081916,-1.2953534177258959
2.1953125,2.4969267451405424,1.2408526086126368
2.19921875,0.31627956669173235,0.3475238244999606
2.203125,0.5101335453517704,-0.48476580392470486
2.20703125,1.2135894864945402,1.1205177303707354
2.2109375,0.09543418955915409,-0.4946675357195038
2.21484375,0.7177941396671036,-0.9447823504336755
2.21875,0.05688989677944519,-0.5308121943777296
2.22265625,-0.3991821390441525,-0.6288465804399286
2.2265625,0.8864442115879458,3.9312159949504197
2.23046875,-0.7535671748505757,0.3188543713799083
2.234375,-1.5363942317701438,0.17421282223159343
2.23828125,-1.6531959223631438,0.7327836827665608
2.2421875,0.27782856374795517,0.42394084199163123
2.24609375,-0.506050158355402,-2.713220458650638
2.25,-0.29129567866589096,-0.3941393703964957
2.25390625,0.8903422089936371,-1.560565417568237
2.2578125,0.5536756178881526,0.7939204306728693
2.26171875,-0.5482589946343696,-1.0427273496436773
2.265625,1.0832604024324854,-1.5158841710668618
2.26953125,1.0883560316865584,0.34854720419350854
2.2734375,-0.5657733910626238,1.1507216134734533
2.27734375,0.18652983526071182,-1.062841339675664
2.28125,1.0713687287073885,0.8697712007311491
2.28515625,-1.1349035602904005,0.6236978072815691
2.2890625,1.1348631527429678,1.256534310069465
2.29296875,-0.7870513145332793,0.42392312128368076
2.296875,0.5701562372338121,-0.5812685134426947
2.30078125,0.8719488801533483,-0.33647765812802527
2.3046875,1.545538953082524,0.994978998848491
2.30859375,0.9906656325346479,0.40933385227689884
2.3125,-0.29975585200991894,0.847519761793246
2.31640625,-0.5445165670822056,-1.1840635069859524
2.3203125,1.003079247728498,1.1482815166477989
2.32421875,0.23200924419221655,-1.6023996201235449
2.328125,-0.7743364837034107,1.0448861590987364
2.33203125,0.6548187162117417,-1.2054000901204318
2.3359375,1.2654203764288832,-0.42700882646764343
2.33984375,1.3389098430687945,-0.8112003477083981
2.34375,0.7030999495821516,-1.1594797760540092
2.34765625,-0.704324879180638,-0.3680648296484661
2.3515625,0.3316905243868852,-2.025791608823641
2.35546875,-1.2590414603977673,-0.4408671574087363
2.359375,0.8961809281932971,-0.8655500721397116
2.36328125,-1.6167343398629272,0.24704792311472745
2.3671875,0.30898495268710935,-1.450112729014169
2.37109375,-1.0839542998147242,-0.9312054517579493
2.375,1.2545177030916252,-0.944640859106374
2.37890625,-0.3682916267328247,-0.4001194281762062
2.3828125,0.30669850391523956,-1.7319264240135699
2.38671875,0.6063083833990054,-1.18139798972713
2.390625,-0.06586227240711078,-1.5576888849936137
2.39453125,0.6700812784957185,-0.845018256480606
2.3984375,0.11059946241603376,-1.5594588179007904
2.40234375,-0.058100130747695815,1.636350887354098
2.40625,-1.301700232435822,-0.6370624303356832
2.41015625,-0.2788960767665319,0.0506057001695775
2.4140625,0.22412485217981212,-1.8974115335126036
2.41796875,0.9773592895057974,-0.4595276436054621
2.421875,-0.4617720215891307,0.40905998866203835
2.42578125,0.28412857456351026,-0.7638293421227677
2.4296875,0.27663368927008236,-0.5369568344226453
2.43359375,-0.5362460337732589,2.3037690237073627
2.4375,0.7886847456438864,-2.0109309415450647
2.44140625,-0.4839427215917467,-0.32410624751575456
2.4453125,1.5646860155350404,1.0821807061836142
2.44921875,-1.2703648716898592,0.7660432404640437
2.453125,-0.3270969719422005,0.37188582552992955
2.45703125,-0.34606747362437934,-1.421210035928039
2.4609375,-0.25992258314882877,0.2453455258720734
2.46484375,0.2938543270679436,0.7530142752434278
2.46875,0.9842116957722487,-0.5774948929342365
2.47265625,0.4417104612578571,0.3223751838188826
2.4765625,0.002754354241150369,-0.028525216829369558
2.48046875,0.544751601061462,-0.37968383757749036
2.484375,-2.3482030193972885,0.41058281432134325
2.48828125,1.6062479194260482,1.8688825090315389
2.4921875,-0.8461822349280727,-1.4541237896277708
2.49609375,0.07688057312253103,0.7407341756821069
2.5,1.6916168243633332,-0.3069142615998769
2.50390625,-0.8045724006323056,0.7326124192851998
2.5078125,-0.8289039500234815,0.03677768221503446
2.51171875,2.379439168909477,0.20315527043689996
2.515625,0.9553394304037897,-1.127743246963986
2.51953125,0.18386118017822017,0.6402249162806827
2.5234375,-0.6503253725032282,0.7574837098143827
2.52734375,0.8574070199120544,0.017683999574735536
2.53125,-0.12609714119728926,0.5934405138776697
2.53515625,0.0029858561896817172,0.2613560493103406
2.5390625,-1.3132242557355616,0.6176039272828898
2.54296875,-1.077735127583452,0.1822837643146207
2.546875,0.1995575822653413,0.9168678728639819
2.55078125,0.3449923230290586,0.6928207367940641
2.5546875,0.7693773558025804,0.23600914254648747
2.55859375,1.017952212516908,-1.5817564062595477
2.5625,0.24809213992304494,-0.4307159882439935
2.56640625,2.662423204754044,-1.5269894373003496
2.5703125,-1.1398895854661741,-0.3449376472098376
2.57421875,-0.9092458449851042,0.3359726270708378
2.578125,-0.05703598088361246,-0.6664893254953979
2.58203125,-2.415364378039567,0.5518015378104706
2.5859375,1.0311994197867564,0.31344537347444035
2.58984375,-0.26820961200044624,-0.39179603888855224
2.59375,0.7991518580401847,-1.5284932004062828
2.59765625,0.2229744462741806,0.5431309512058136
2.6015625,-1.2179997032990417,1.4993427447805252
2.60546875,0.9547841798948246,0.33019671167441456
2.609375,1.4353189366772066,1.8384000228651105
2.61328125,-1.3663268158312258,-0.18244763601628405
2.6171875,-0.3791393772641358,-0.3726310972323058
2.62109375,-1.2633577854523814,-2.0663389018282565
2.625,0.29154362090283686,2.079395418854354
2.62890625,0.06919463780087212,0.3060846654711705
2.6328125,0.47381339230222613,0.034478874427809746
2.63671875,0.21684859843772283,0.42357678924640807
2.640625,0.9433813819517214,2.2739554132771285
2.64453125,0.22403332351771527,1.2087293872732658
2.6484375,-0.8377879557991443,0.4949133608796958
2.65234375,-0.5468492380616137,-0.405597083949648
2.65625,-1.4114336934422544,0.7889133602117956
2.66015625,-0.22631365708361695,-0.1035497063102201
2.6640625,1.276619950514321,-0.6090003319500911
2.66796875,-0.6490920349476819,1.2699189481615705
2.671875,0.8615718763032134,0.44932076503571106
2.67578125,1.8577750833117588,0.3081919527045503
2.6796875,-0.11780694116633657,-1.3362599255103291
2.68359375,-0.6155462303205428,1.634169155106902
2.6875,-0.530123365539499,0.9117244250756608
2.69140625,0.3086855255929884,-1.2340251412106464
2.6953125,-0.40436411522774435,0.14751958796037445
2.69921875,-0.5868240360942633,0.1554559317088022
2.703125,0.6179090051746136,0.7737211100920843
2.70703125,-0.6638966994501725,1.2606495034211962
2.7109375,-1.005364325279461,-1.2319758197312423
2.71484375,0.039717280918763496,0.3480064225634752
2.71875,-3.4560533000070386,0.43816117118271447
2.72265625,1.6916125975197538,-0.6276788331334879
2.7265625,-0.9634473170761317,-0.49338812202795984
2.73046875,-0.7167657546305662,1.0533417021949647
2.734375,-0.004649592215111265,-0.15425972996546763
2.73828125,-0.6267502472100109,-0.6831377265913036
2.7421875,-0.6991217152134569,0.22543234649905242
2.74609375,0.22277608797602028,-0.5319204003505306
2.75,1.0983733386298082,0.8960759291365809
2.75390625,0.5994424921459851,-0.8706006493653231
2.7578125,0.5745191795302822,-0.9499658061583318
2.76171875,-1.3153866105865848,0.4398562634192767
2.765625,0.04296356276323083,-0.4521464598757426
2.76953125,0.5072221468168803,-1.2065911681892225
2.7734375,-0.9607478590076421,0.23474224517536618
2.77734375,1.8609447447678948,-0.276128748908687
2.78125,1.300747242144263,0.1761866939289683
2.78515625,-1.5728502519056213,-1.7580950772800672
2.7890625,-0.86544841199724,-0.8148121838287451
2.79296875,-0.6409658079374088,-1.3922450325906923
2.796875,-0.7816292703587379,-0.20771715329056056
2.80078125,1.551516824516503,0.15327867214269955
2.8046875,0.1445096341883011,-0.5166332281242128
2.80859375,-0.6115464563228348,1.3979104256876376
2.8125,0.2549504505935796,-0.0004432088734909546
2.81640625,-0.37293185357474873,1.4901723382886243
2.8203125,1.0817441589915249,-0.6743648819689261
2.82421875,-2.8701907258940684,1.4946842412902812
2.828125,1.1989977327939336,-1.082887157491566
2.83203125,2.9755614385869755,-2.950072443536582
2.8359375,-0.9569784862874486,-1.5990358834624656
2.83984375,-0.28005820759600086,-0.9907160582343422
2.84375,-0.6326747238982279,-0.7236424063020992
2.84765625,0.6082853686189228,-0.3920934056928224
2.8515625,-1.2510635684902125,0.2788194197844353
2.85546875,-1.1700549883314295,-0.6060818528481937
2.859375,0.2755515364071034,1.350688248441118
2.86328125,-2.166232934227208,0.7035907147374739
2.8671875,-0.5672038247217999,0.6571561191403522
2.87109375,-1.5209289179346384,0.7845799054385619
2.875,-0.49496768032307215,1.1427773457779373
2.87890625,0.8966577099507913,0.811809462922765
2.8828125,-0.43498660244369836,0.359575365411781
2.88671875,-1.794237751856689,0.8653960779480245
2.890625,-0.4078908199712417,0.5642636275278385
2.89453125,-0.004294928196167586,1.063888074682191
2.8984375,-0.578844901510066,-0.14350743024565946
2.90234375,-0.8624099024888284,0.3659404086843983
2.90625,-1.137740894414387,-1.0486416496116215
2.91015625,0.6770327753984401,-1.6572131411911535
2.9140625,1.1871761136206949,0.41217998774457315
2.91796875,-1.3834560181550315,-1.36929892944061
2.921875,0.540553060503465,-0.43068987905860523
2.92578125,-0.7223554729079227,1.5157289748733398
2.9296875,1.1444975807072582,1.746944984533735
2.93359375,0.07760545811047447,-0.5953983619121124
2.9375,-0.14398501375227327,-1.746940913870837
2.94140625,-1.0897132269924603,-0.3103823519229178
2.9453125,0.6791809858525256,-1.8363406541060365
2.94921875,-0.29131425615965334,-1.9306959289609553
2.953125,-0.6723999409634004,-0.37531359887650306
2.95703125,0.6147060597824189,0.9990705007442062
2.9609375,0.45904346002330365,0.21830778062673797
2.96484375,0.005335087986116342,1.878356041334626
2.96875,1.669142693210704,0.16711910475717268
2.97265625,0.9199113764665179,-0.8365336463205312
2.9765625,-0.35467676627006184,-0.4768369759091454
2.98046875,-0.07576933457802747,0.754192275168577
2.984375,0.3432183208242448,0.68157748831783
2.98828125,1.9507975619876847,-1.150973952505617
2.9921875,0.4425128636234935,0.7559157201639335
2.99609375,-0.4262664755516002,-0.6365606852577561
3.0,-1.268799465504718,-1.079076938898536
3.00390625,1.058542172421724,0.5543084643081447
3.0078125,-0.017371982501947634,-0.9651068841902396
3.01171875,-2.210874678392904,-1.3860117094863
3.015625,-1.1886288266828737,0.12462496446148932
3.01953125,0.4207851432049008,2.912836243504907
3.0234375,-0.03948994612537696,-0.13046551565178136
3.02734375,-2.3876986573557937,0.9113606384042122
3.03125,-1.108050787239988,-0.03461021666614615
3.03515625,-1.3707848316536275,1.7685927865698357
3.0390625,-0.9042504265043253,0.644511330389966
3.04296875,-0.36533812525014503,-0.6079216288510366
3.046875,0.4087334085591537,0.7215857108608787
3.05078125,-1.0248227458769976,-0.3159819243576721
3.0546875,0.07849287264167115,1.1408538930287209
3.05859375,0.9045997351136581,0.06703906366959893
3.0625,0.4732692773341285,-0.5105110944616988
3.06640625,-0.8064136997328988,-0.1463478801755164
3.0703125,-0.6699087261429195,-0.7862915615113028
3.07421875,1.7179314858128198,-0.2587209121477486
3.078125,1.1273792033543215,0.018294895485940217
3.08203125,0.5649787765526896,1.164789429805048
3.0859375,-1.638284671037526,0.1156974431839726
3.08984375,1.4220130816578422,-1.4366364500106452
3.09375,0.9731365948604352,-0.46599134434624034
3.09765625,-0.6927457764868143,0.3299306585167649
3.1015625,-0.21182062538470645,0.9879531801162103
3.10546875,0.964975339093175,-1.8413251131574835
3.109375,1.066039398715467,-0.5600197707384865
3.11328125,0.275974967231654,-1.574300900234705
3.1171875,2.70434399995033,0.8293466744228049
3.12109375,0.9939694659433106,0.8369738810692954
3.125,0.8915668921122744,1.0492992829165262
3.12890625,-0.8374193621064392,0.2908121834833154
3.1328125,0.8734722431601286,1.9647056926303645
3.13671875,-0.005949368679305195,-0.24172630419801197
3.140625,-0.32676010491511853,1.7565607269072723
3.14453125,-0.0996667759540985,-1.3892318452691577
3.1484375,0.7917470894642912,0.20647968441099981
3.15234375,0.30972079153430143,-1.214330029357887
3.15625,-0.24756882600095745,0.682633840576143
3.16015625,0.05793033086563263,-0.7480970838641215
3.1640625,0.48808591868120527,-2.436081156933004
3.16796875,1.1917311433608115,2.329457782534441
3.171875,-0.06581938720595792,1.3422323866017294
3.17578125,-0.06806283825260483,0.7966046398353839
3.1796875,0.3782087771550055,0.13283091383513462
3.18359375,-0.37627571310113256,-0.7126699215026174
3.1875,-0.605474039914211,-1.3293130428873177
3.19140625,0.4378639684564014,-0.8254223415358188
3.1953125,-0.1397012098236408,-0.9312165122720661
3.19921875,-0.9092378243670163,1.9536108298500794
3.203125,-0.43241487862402733,-1.333644787547127
3.20703125,-0.6566645312651804,-0.6706502999851506
3.2109375,0.8168007740973758,1.0213569794789954
3.21484375,-1.0331171572267457,-0.03010918097370427
3.21875,-2.9431081579617477,0.006719172099048412
3.22265625,-0.700753130755988,0.22457051992016624
3.2265625,0.19943682729825563,-1.2216387613584676
3.23046875,-0.42501570574588277,-0.05363811537221245
3.234375,0.39623791531716535,1.352766649003933
3.23828125,-0.5522437903629311,0.0318523127894468
3.2421875,0.5876553486219368,-0.5109340266959603
3.24609375,-0.05574872491207006,-0.2362389930972606
3.25,1.706144815570805,0.1422352137312558
3.25390625,0.8108957968701428,1.118485703854697
3.2578125,-0.9292542150813917,0.5589668012722558
3.26171875,-1.0810657691062415,-1.915513223723802
3.265625,-1.018108772763908,-1.1207146101577912
3.26953125,-1.8758537989451936,1.577831757206518
3.2734375,0.16202410091068536,-0.49476359652758695
3.27734375,-0.6726798679140769,-1.8899008810642077
3.28125,-1.7328223504075237,-0.7741266495907685
3.28515625,0.6569282034963881,-0.1508395720870076
3.2890625,-1.400913585832691,-0.8990155182700725
3.29296875,-1.6916783198651493,-0.06754056061822
3.296875,-1.5290156517730487,-1.8477305928790742
3.30078125,2.276747925464735,-0.12121058969026109
3.3046875,0.4674607502269178,-1.2462092483600702
3.30859375,-0.875850735842983,1.9828921769742318
3.3125,-1.4124831537960296,0.13068313206095938
3.31640625,-0.660832404363528,2.62126050045899
3.3203125,0.21624250862895728,-2.096690410473809
3.32421875,-0.012035735614001104,0.700474422754349
3.328125,-0.43008722609425437,-0.18425940228534463
3.33203125,-0.9315614117939751,-0.6786906332240709
3.3359375,-2.207476977910796,-1.955202871578966
3.33984375,0.4782335928487009,0.09055743823152929
3.34375,-1.0943151629267946,0.5163246591216637
3.34765625,-0.7776696830253774,0.49163418664037517
3.3515625,0.5065119842431849,-0.2513688516618512
3.35546875,0.4699854089526736,2.1585064662646976
3.359375,1.8336118935957202,1.2492790048846183
3.36328125,-0.8774032704280557,0.3200244800829045
3.3671875,0.19198058564940407,-0.24749554285499614
3.37109375,1.6066865381343458,-3.298644939641827
3.375,0.25093738689314865,0.23676724267889043
3.37890625,0.6699557918288818,0.3563338604791477
3.3828125,1.257104079646562,-1.4851084530168608
3.38671875,0.5291991657266634,0.2916713848291513
3.390625,-0.9115987194466034,-0.29888435078831654
3.39453125,0.4042567454956948,1.0089508654813653
3.3984375,-1.9412118438319197,1.1687458458034736
3.40234375,0.9989606334493014,0.08081938362085196
3.40625,0.4178635339308961,1.3417033433696839
3.41015625,1.3142034341273772,1.845647456619273
3.4140625,1.08646328596012,1.8482581718365163
3.41796875,-0.3527274023237587,-0.4831436350123246
3.421875,0.48991851385457325,-0.8851385320726555
3.42578125,1.951005586920227,1.0634233414462735
3.4296875,0.5344075353378642,-0.720737741513036
3.43359375,1.1893670900081128,0.7208296915830323
3.4375,0.40024422134247833,1.0525413039292453
3.44140625,-0.572535958963058,1.103396371464763
3.4453125,-0.7346666677509335,0.35477331362943626
3.44921875,-0.5045973876191188,0.4659056607701728
3.453125,-1.6743601015700302,0.6126697577506492
3.45703125,-0.4948920322916439,-0.7263212221151919
3.4609375,0.5385940645301889,0.4453311741694177
3.46484375,0.209398434482677,-2.1781059106816727
3.46875,0.29999447574944416,1.1050130998518028
3.47265625,-0.26900916380925405,1.542381969430006
3.4765625,-1.0062685143474879,0.5360317506168504
3.48046875,0.7270507610746786,-1.5447968237212566
3.484375,-0.6777487545269639,-0.2564727433520559
3.48828125,0.3085217425758973,-0.4176917631529658
3.4921875,1.00845156240269,-1.455646500011188
3.49609375,-1.4023969472746207,-0.14281196366817628
3.5,0.18223473898202555,0.7505725855759351
3.50390625,-0.48791720971036995,0.7524920328626138
3.5078125,0.7076461867802601,-0.4679768667953074
3.51171875,1.5795700680324727,-0.2515484959382554
3.515625,0.4017021648123284,1.1186580660119898
3.51953125,-0.41828818578835786,1.3645096982231255
3.5234375,0.24067829543254476,2.147732335013916
3.52734375,-0.5991524548103231,1.5244977074399702
3.53125,-0.5702116841038605,0.34689817842067394
3.53515625,0.5375762334715721,-0.5650321040384131
3.5390625,-1.2421355609653557,1.2945693160051064
3.54296875,1.195873820750172,-0.6499357599566122
3.546875,-0.4637763880867578,0.6754494777950729
3.55078125,0.8882108538659825,0.9543408250785719
3.5546875,0.2665241941514638,1.2312076055295105
3.55859375,2.142023582296087,-0.20050869700885376
3.5625,0.17510354832125088,0.5096823404530613
3.56640625,1.2845200230117,-0.4945593375060803
3.5703125,1.0593107691763197,-0.021885396815337445
3.57421875,-0.8220855429503625,-1.4134122984306
3.578125,0.43966205365016714,0.31838268875808
3.58203125,0.8389528688610584,0.5861196939083454
3.5859375,-0.5943384749048188,-0.07726691381442584
3.58984375,0.19670678094592947,-0.565732250497293
3.59375,0.6366000440962348,0.4774007096051856
3.59765625,0.767381494892165,-0.775869849314923
3.6015625,-0.13358291308246273,0.39414939828046247
3.60546875,-1.7524980365766154,-1.424095881027417
3.609375,0.41470107005000545,-0.7970281930400965
3.61328125,-0.6676621023367421,1.6251564350623149
3.6171875,0.3660786239298667,-1.57789089873977
3.62109375,1.5902531108500393,0.5118246503414872
3.625,0.11039161588713188,0.8347486981534707
3.62890625,0.5628075608336359,0.18670564025412026
3.6328125,-0.7050950107308779,-0.6008164219974225
3.63671875,-0.051036682084147224,1.1594771833526833
3.640625,-0.8997250746325574,-0.5407682963447328
3.64453125,0.45781358026084373,0.4239039606177082
3.6484375,-0.17308937018791387,-0.01684237296968883
3.65234375,-1.7125143483177114,1.5589912192969468
3.65625,0.8472407193652245,-0.8377959101332115
3.66015625,-0.7392945719281167,0.7654941304254554
3.6640625,0.16519832029498976,1.263827916793068
3.66796875,2.5622843707895364,0.8069500809279158
3.671875,-0.5716610835651412,0.1815328770966303
3.67578125,-0.9785651981669242,1.9004964516706537
3.6796875,-0.7663100183583346,0.07121590820337598
3.68359375,0.2966645357416897,0.35222442517847186
3.6875,0.025738705343131822,1.3567939265479252
3.69140625,0.6748654220511672,0.735787870017963
3.6953125,-1.2297287331889137,1.8183199423919956
3.69921875,1.4224601073269911,1.352437695213987
3.703125,-0.9362298901999813,0.9677670083839748
3.70703125,-1.9559588621468154,-0.8905047042601262
3.7109375,1.031582763083159,-0.42102148709854736
3.71484375,1.243181828656994,0.15577588040309345
3.71875,0.06773326372986266,0.08657920455650316
3.72265625,-0.01863593076372114,0.939696333277335
3.7265625,1.8568102684915215,-0.6913530160265037
3.73046875,0.16934473915948411,3.278965793141108
3.734375,-0.4290526355340875,-1.0386530868286739
3.73828125,0.2714659686179168,1.410268487754673
3.7421875,-0.80673286418469,-1.6812376490150216
3.74609375,0.7149113200443167,0.38210564782346784
3.75,-0.5156580318791313,0.30811954988500717
3.75390625,-0.7766600493426531,-1.5650426693648085
3.7578125,-0.9675777152027546,0.8121944985458283
3.76171875,-0.5198200673175506,-0.29969702045362273
3.765625,0.7317996995133883,-0.6991725968192807
3.76953125,1.2516632960789769,-1.4022610047024713
3.7734375,-0.1264179704008762,-0.8025366424444241
3.77734375,-0.45187850539952257,0.3778004489652525
3.78125,1.1230346431894205,-1.6635956707107178
3.78515625,-1.0959702430675595,0.824008047501354
3.7890625,-1.5750106967282411,0.058743119213617065
3.79296875,-1.0018186307890335,1.4754863050958444
3.796875,0.10329978500383624,0.4267575298392402
3.80078125,-0.76877801660699,0.16274843023869318
3.8046875,-0.848983220516216,0.6204853795741783
3.80859375,0.502628305620465,-1.3800389088990281
3.8125,0.2726704808434142,0.25021643768500335
3.81640625,1.977409175247957,-0.7689705427330599
3.8203125,0.23853422383846187,1.6127914195341004
3.82421875,-0.6587261685681944,-0.06772460002602948
3.828125,0.5274462198215683,-0.4596283141223765
3.83203125,-0.44722641928561646,-0.26706505327034
3.8359375,-0.8295255830638902,-0.48944771583864405
3.83984375,-2.570490686468714,1.1680987286737523
3.84375,1.808857383071793,-0.044853385862725435
3.84765625,-0.37621420018490054,0.22746006331452331
3.8515625,0.05827421334123162,-0.7617352711447593
3.85546875,0.58075923895596,0.051346354845684235
3.859375,0.396324230513204,1.4609042141070911
3.86328125,0.16260199974105002,-0.7457861549470868
3.8671875,0.1690906919232335,-0.1904833274942244
3.87109375,-0.9828920453128426,-1.0103399936150244
3.875,0.30935506813644675,1.0552379389782922
3.87890625,-0.21867183303980262,-0.09186952240038375
3.8828125,-0.15649956090621747,0.06385749007598858
3.88671875,-1.131976076415022,0.02115825335565399
3.890625,-1.3827987195688334,1.4241294625038388
3.89453125,-0.1620690889825148,0.30626119606843255
3.8984375,-2.33057227443873,0.6435220244686485
3.90234375,1.0056309407691872,-1.155378367140792
3.90625,-2.8339524383199852,0.13289242938145862
3.91015625,1.0712536136061195,-1.506162564327734
3.9140625,-1.424915953853752,-0.8064205480955936
3.91796875,0.4010856787724258,-1.327178640160419
3.921875,0.8285489393093038,-0.475909619475206
3.92578125,-0.6530170808267934,-0.3352524682019987
3.9296875,0.17514623591849543,-1.6853769393242117
3.93359375,-1.6040897877356388,-0.9841685805798156
3.9375,1.7017603961755432,-1.2436246110689984
3.94140625,-1.3774023287406576,-1.4064074148587717
3.9453125,1.9250274201997102,-0.3992909205329358
3.94921875,0.5534593258309756,-0.7347163727097743
3.953125,2.478121105132301,0.36429415877451055
3.95703125,-0.1564375643018262,-1.2743190464744647
3.9609375,-1.0493675610652928,1.3933920629758194
3.96484375,1.1160963251690486,-0.11601842517462922
3.96875,0.6461027970581985,0.6312831752636202
3.97265625,-0.5983059719432384,0.8970780161688157
3.9765625,-0.15676152292587486,-0.7322857744586614
3.98046875,1.6805027042432805,-0.2751838428383834
3.984375,1.0291079952268698,-0.6809041024104862
3.98828125,0.5760679720214722,-1.9556234720797687
3.9921875,-0.15853085600678812,-1.6972334556578212
3.99609375,-0.7275091207094035,-0.17823454919521056
4.0,-0.7620295772453813,0.18406077970943005
4.00390625,-0.734826023504172,-0.4340641432260672
4.0078125,1.0468485750280572,-0.44188524506204013
4.01171875,-0.6525216802424207,2.1819985793524044
4.015625,1.4290790689297364,-1.0335018404642382
4.01953125,0.31782020246370757,-0.015431166730140316
4.0234375,-0.034130194594238876,-1.1363454165009477
4.02734375,-0.4434788561456622,1.053097653911039
4.03125,0.7612918909977596,-0.5712156689020099
4.03515625,-0.4930891389688285,1.7794541147846727
4.0390625,1.0027497693479868,-0.30381574905448583
4.04296875,0.866230958088882,-0.5787520800228207
4.046875,2.3721783852946685,-2.1780605184278845
4.05078125,0.9226795201552896,0.774778160842744
4.0546875,-1.7112071169077523,-0.06270954728778948
4.05859375,0.6351904771292959,1.0093237752989146
4.0625,0.08758490879219404,0.29821187362188156
4.06640625,-0.6337371062156606,-0.30875656628168097
4.0703125,-0.2047754253445043,-0.05254268095652949
4.07421875,0.942026131979374,1.3592357645645288
4.078125,-2.1889948981860017,-0.4985509308726999
4.08203125,-0.8388536228511424,0.7581251964327473
4.0859375,-0.7747420961494645,0.49036687178149646
4.08984375,-0.15388272947376275,1.5996215719023716
4.09375,0.7908540084209812,1.409873708208724
4.09765625,0.1754039963047536,1.7672399027940686
4.1015625,0.8792081944137297,2.372598643266874
4.10546875,-1.2183971017144037,0.19203361409749256
4.109375,-1.1732314326733202,-0.8765578235672483
4.11328125,1.1671370335073459,1.10281926797797
4.1171875,-1.0155776779785595,1.3809397311507323
4.12109375,0.8413524782315189,1.2966174551586238
4.125,0.428734524245632,0.855775859032145
4.12890625,0.10902734702523124,-0.703342342134257
4.1328125,-0.3969663663655938,0.07926869762461235
4.13671875,-1.3243164344333194,0.07379306445996203
4.140625,1.1832498334464452,0.2156050021310977
4.14453125,2.5901784688915512,-1.387933959166926
4.1484375,-0.6255696309796723,-0.341197459203033
4.15234375,1.3326660635865524,0.050007604097618834
4.15625,0.8579426767620473,-0.8492440819310532
4.16015625,0.29849460290479574,-1.2283779658763752
4.1640625,0.4603265260325142,-0.2644746135539216
4.16796875,0.11868925077038739,-1.0037448012340964
4.171875,1.713683591870892,-0.8800058183865571
4.17578125,-0.7002404198798698,1.0804769869085977
4.1796875,0.6250063243586542,1.0042705328000705
4.18359375,-0.24071972802158773,0.6575754491292686
4.1875,-0.38219044681318737,0.8960768053394249
4.19140625,0.22466635288666792,0.10356084210395836
4.1953125,1.3091088788417824,-0.0008229582033610469
4.19921875,0.09980208516440135,1.2111089604289313
4.203125,0.6925171355287595,-0.40206874131681264
4.20703125,1.0665013292635004,0.25325403688746606
4.2109375,1.34070293617033,-0.5553919518902598
4.21484375,-1.5989765956699258,1.4320220019037317
4.21875,1.0717635227068907,0.527595780069718
4.22265625,0.6098550145240519,-0.8870410738407887
4.2265625,-0.5044347519908962,0.004136512676330934
4.23046875,0.48701689096895706,0.5399146583563341
4.234375,0.05353935054761018,0.41696531718788643
4.23828125,-0.670195473746822,-1.6935414615434297
4.2421875,1.2998862672183498,0.9448232408079574
4.24609375,-1.0433393777966982,-1.5763690579302805
4.25,-1.2636986910560937,-0.73066738578099
4.25390625,0.39049585786186625,1.3374050358271998
4.2578125,-0.47175173907435425,-0.692214296844057
4.26171875,0.5936493353276325,0.06100099772523764
4.265625,0.11213920217847309,-1.4948477919286485
4.26953125,0.18718817035812926,-0.64780412854972
4.2734375,-1.049759718669396,0.558134823411413
4.27734375,-0.497000161776775,-0.7793199184163684
4.28125,-1.256620570157311,1.8683648358657847
4.28515625,0.2892856518896642,0.8327882216020799
4.2890625,0.048060157767979714,-0.05094627131307449
4.29296875,-0.9783262500733302,-0.31973649725580333
4.296875,-1.1940447630505115,-2.28825777701633
4.30078125,0.6479124798497284,-1.200103259455987
4.3046875,-0.3660048805465593,-0.25884120820124357
4.30859375,-3.323471865740319,1.1666024805690116
4.3125,-2.146636111634161,-0.1946795869670363
4.31640625,2.3221438223678788,-1.7754458991993003
4.3203125,-2.5658590281950913,-0.8172926223715853
4.32421875,0.9292611982498024,-1.6601642719062817
4.328125,0.059030135517100554,-1.1850667137974704
4.33203125,1.1044554204438801,-1.5537835952548493
4.3359375,-0.5816297502607091,-0.8577357166411029
4.33984375,-0.5078807527894589,-0.12790559218538927
4.34375,-0.09629071472121462,0.49319350714377985
4.34765625,-0.7114161036531095,0.2372469882487321
4.3515625,-0.413733320006461,-1.1100569111989815
4.35546875,0.3479699439527031,-1.2454580676394855
4.359375,2.2008627107546457,-0.07698237842606123
4.36328125,0.3375704017952481,-2.3121591083381783
4.3671875,-0.21205714625341818,1.3205957366957566
4.37109375,0.33815619592649515,0.9768116691709674
4.375,1.823350605238815,-0.054450770180441165
4.37890625,0.329236220773913,-0.8755833337809102
4.3828125,0.8667451922504887,1.580436621330037
4.38671875,-0.8308051893843831,2.601360703328268
4.390625,0.35996289437526807,-1.627760521789333
4.39453125,-0.899663376737125,-0.335807769958115
4.3984375,0.6300844874473556,-1.5586008464692596
4.40234375,0.24168195018236996,-1.7978491191519699
4.40625,0.6904694303887595,1.6749952429212127
4.41015625,0.11035407527333885,0.5047123923996654
4.4140625,0.7735056182469431,-0.4884583947936064
4.41796875,0.22783599833019946,-0.6571824156825963
4.421875,0.45490797424572565,-1.54219864899996
4.42578125,-0.0060658736582024754,1.2012758141018702
4.4296875,-0.8697448822599602,0.2938271662339332
4.43359375,0.9725993257523545,-0.24032815348012176
4.4375,-0.3431251833712438,1.1282226873494388
4.44140625,-0.5508221671348654,0.9410814938436183
4.4453125,-1.1131263012334762,0.25821914147083713
4.44921875,0.28293324199650105,-0.521033332127945
4.453125,0.8344441743131501,-0.23567179809179833
4.45703125,1.0372685229686918,-1.4740667070791462
4.4609375,0.4792395302787696,0.14539209376567952
4.46484375,-1.4108470949434984,-1.7846073197460421
4.46875,1.8472723399396414,0.2716506881000502
4.47265625,0.41409386015526256,-2.382315502538296
4.4765625,-0.17536028025005962,1.3335318581127427
4.48046875,1.6677468137488063,-0.32772959477032637
4.484375,-1.8380977726964072,0.17664196474716115
4.48828125,-1.7763911558184033,-1.1202700876577305
4.4921875,0.8585501073969182,-0.9532313679524759
4.49609375,0.9782027026425426,-0.004960078699648697
4.5,0.46774759747371025,0.28524654412941314
4.50390625,0.46176092465110247,2.266617452646053
4.5078125,-0.5202874223764146,1.3389758674380239
4.51171875,-0.29214505531757284,0.05338014382132096
4.515625,-1.0462020513971468,1.1140688612605198
4.51953125,-0.2728258050289778,0.6644860744310674
4.5234375,-0.6110415132563272,-0.3442662711926363
4.52734375,0.8080175852848223,1.1436992825282735
4.53125,0.27049069060138764,-0.3006880332571889
4.53515625,-0.13757203550629854,-0.28136709533832116
4.5390625,0.09719809899720878,0.292893437933726
4.54296875,-2.041478600382681,0.9052724396345622
4.546875,-1.378793331420589,-0.43994983174488056
4.55078125,1.1869250060613517,-1.0796527095184012
4.5546875,-0.3468829660029858,0.2366405012075489
4.55859375,-0.3599901666357801,-0.6485030855461772
4.5625,-0.8636214266527351,-0.148314685199967
4.56640625,1.2608688913875477,-0.9543993889490819
4.5703125,-1.5826374515586383,-1.1251451082261372
4.57421875,0.9207671843995796,0.2934800250006517
4.578125,-1.3106498632661423,1.4639579662061837
4.58203125,-0.9449244870707689,-0.7047795823210349
4.5859375,0.38319049601814925,-0.22430874699910838
4.58984375,0.5081383713341504,-0.12183437412095068
4.59375,-0.5092831376010188,2.4318398986371994
4.59765625,-0.055706929433306136,0.519800598597203
4.6015625,0.13937796506732353,-2.1887784124722183
4.60546875,0.6594645115446066,-0.778604568231517
4.609375,-0.12070450009379338,0.2301760934676533
4.61328125,-0.6936176575778152,-0.24297628241631827
4.6171875,0.12860836695022201,-2.1937481323726997
4.62109375,-1.1630278868551438,-1.4522454280550496
4.625,-0.8870493503114922,1.2874656909352513
4.62890625,0.4384188974272776,0.7016052523699005
4.6328125,-0.12417963257458224,-0.08964077410560879
4.63671875,0.5241460826184123,2.540245802043328
4.640625,-0.47076629266817127,0.3239310088614167
4.64453125,-0.8887779636043652,0.8239393444968958
4.6484375,-0.5762356050155211,-1.0032217221832107
4.65234375,-0.8749748433420034,-0.1015419214466886
4.65625,0.1176077128026428,2.5246964110618535
4.66015625,-0.24708954050438425,0.7288974890091298
4.6640625,2.2419961288308468,-1.0835432560773346
4.66796875,-0.41770666120849087,-0.36293207156680823
4.671875,-0.46880737859731964,-0.4386644082129013
4.67578125,0.13264832209050767,-0.5558043630228787
4.6796875,-0.04626423724709807,1.3112895740218249
4.68359375,0.4072087982363158,0.7110516633741428
4.6875,-0.22449911976613854,-0.31282172745954384
4.69140625,-0.8363635251017069,0.26599933674135545
4.6953125,-1.3849578473985662,-0.6351511977924751
4.69921875,0.4162780905245617,-0.3360147994251203
4.703125,2.078934377686143,-1.7055253233967649
4.70703125,1.0563317882070806,-0.19003537622625333
4.7109375,-0.2824494725460927,-1.5332335084720332
4.71484375,2.0201497632123706,-0.5431284898596648
4.71875,-1.514822318977319,-0.32353638381832556
4.72265625,-0.47234863767025115,0.9597552823535411
4.7265625,0.30328231122845895,-0.18928401271541953
4.73046875,0.13488333451824397,-1.6733720036442596
4.734375,0.6194419236839406,0.9467150813717924
4.73828125,0.5524101813065915,1.531386591510558
4.7421875,-0.4100877798012496,0.16600749091042524
4.74609375,0.2853103398728511,0.47874916329325207
4.75,-0.21818910307662207,-0.4701382705130638
4.75390625,-0.36109787345077615,-0.42834217552912335
4.7578125,-0.05948403827743596,1.035874239139831
4.76171875,-1.606548097246698,1.2531590687560985
4.765625,-1.0921633338357497,-1.080627699092427
4.76953125,1.3203088052423941,0.23205200054385136
4.7734375,1.5276699248257088,-0.6841246856741503
4.77734375,1.0623700109824543,-0.7228331781107241
4.78125,1.3644792350667616,-0.4651868880988536
4.78515625,0.6750303326872489,1.8014616558539738
4.7890625,-0.48818995195536813,0.24178507983904948
4.79296875,0.04025563066716264,-0.3910564584227363
4.796875,1.2443002546831556,-0.7782421445653005
4.80078125,0.8471264889639785,0.8854630805521091
4.8046875,1.6108503930284435,-0.20850688663056247
4.80859375,1.0791939575064038,-1.4041744801233136
4.8125,-1.7663497979363334,-0.6495828687416846
4.81640625,0.029488250417362038,-0.6360086162863905
4.8203125,-0.7916533974041053,-1.0471008695157948
4.82421875,0.25962794745681306,1.339206250900952
4.828125,-1.059883223004261,0.6964794611226748
4.83203125,1.6766735298234194,0.34237638702261675
4.8359375,-1.011387238365402,0.8485197885011471
4.83984375,1.9616901860623446,1.4851186180558675
4.84375,-1.1105872908718237,0.2871633933523656
4.84765625,0.6973498615211516,0.5538178437001835
4.8515625,-1.1602875219353557,-0.4612655918935753
4.85546875,0.025125846314511983,-0.7067251416596302
4.859375,0.5320926164423786,0.22480368672311354
4.86328125,0.5647834220471266,0.7792439301018986
4.8671875,-0.370158530145826,0.8480454866676079
4.87109375,0.33029943612931895,0.4134892991714537
4.875,-0.0902266521799859,0.3964049939667257
4.87890625,-0.29949112982679055,-0.9051930024707687
4.8828125,1.592162612656081,0.8002844979827255
4.88671875,1.219281358175828,1.31356146291104
4.890625,0.1448581117354458,0.10764418365588482
4.89453125,-0.36678250912736543,-1.0905580148412102
4.8984375,-0.7496062526447842,1.4574805735851522
4.90234375,-0.11688040577901405,0.4321895745666661
4.90625,-0.9998494637389548,1.4204754687001206
4.91015625,-2.349458965476723,-1.6131503525911874
4.9140625,-1.1281960527022818,0.1801453053419543
4.91796875,-0.07455977507590801,0.10494308983510325
4.921875,1.5912414451374803,-0.630903555418916
4.92578125,-0.38745005612226274,-0.9664902651966153
4.9296875,9.298732045545603e-05,-0.2654118909706272
4.93359375,-1.6704641001203153,-0.7083223488445262
4.9375,0.7946636448284867,1.3469584893375806
4.94140625,-1.3913953435525914,-0.7595629557484566
4.9453125,-1.0380139325084552,0.3664941868537872
4.94921875,1.7808279954638762,-0.5194754801386711
4.953125,-1.3035039756398312,-0.4009709372056015
4.95703125,1.3688967543123964,-0.9886063114779473
4.9609375,1.7255989963217104,-0.30710165713538473
4.96484375,-0.019642762841109582,-0.6211597069058088
4.96875,1.5765203665296827,-0.18533735779957874
4.97265625,0.11178547451892329,-0.3223403367011595
4.9765625,0.08788141119992776,-0.8621245527051324
4.98046875,-0.19416065008433317,-1.386086693722425
4.984375,-0.4676030091388637,-0.758802014217714
4.98828125,0.3499252028832193,-0.44845346469729086
4.9921875,-0.16533491217202856,2.757372717061749
4.99609375,-0.1670900683650358,-0.593936284220652
5.0,0.6271288673127839,1.030161240702123
5.00390625,2.191983862573495,0.7111100826932514
5.0078125,0.2330581453007374,0.931874248015664
5.01171875,-0.48518062416648744,0.6523060169018815
5.015625,-1.4730100931853665,1.238769605442194
5.01953125,0.7215092120264898,-2.50989070896155
5.0234375,0.6545494054003488,0.3020240955188116
5.02734375,-0.03156473589367447,0.5665522254725585
5.03125,0.6905761353337309,0.1722523964584893
5.03515625,1.3624948617647659,-0.23030942408199206
5.0390625,-0.037504783579547105,-0.4931667213955649
5.04296875,-1.2725021348403627,1.0391100774272686
5.046875,-0.03150031170429112,0.23830197052066887
5.05078125,0.26415523803362123,-0.16148441223710266
5.0546875,0.17735329061169433,0.29089468845581806
5.05859375,-1.0707590777994633,-0.1740436986765012
5.0625,-0.5227595618414692,-0.2500653354699541
5.06640625,1.3735583769378845,-0.08124682674203518
5.0703125,-0.6835559353198122,0.7117558036628296
5.07421875,-0.029941083487245456,0.4561789829548916
5.078125,-0.03854809124672652,0.4115409200254142
5.08203125,0.5571089481461947,-0.43255378656957005
5.0859375,-0.36715550347386855,-2.0285438163361293
5.08984375,1.080190713433868,-0.19812905507941822
5.09375,2.32431711315643,-0.10667901569420128
5.09765625,-1.5732431003785432,-0.6422835927976392
5.1015625,-0.6410182699801592,-1.8127442905058062
5.10546875,0.40472648940731326,-1.1329714602784933
5.109375,-1.0586856585060989,-0.27753412615628253
5.11328125,0.06573323645403908,1.3293021352508712
5.1171875,-0.20922780827356763,-1.4497725978781406
5.12109375,0.3861704125279543,1.2618385399966823
5.125,-0.5238671034718916,-0.2932245942923021
5.12890625,0.24203279396166588,0.4469891445390148
5.1328125,-0.3729950831145681,1.2512186068781403
5.13671875,-0.5600119926215097,0.7187049508052201
5.140625,1.802403125087282,1.128106239757166
5.14453125,-0.8277105262479025,-0.31687231542885963
5.1484375,-0.574227450118965,0.058369110214511674
5.15234375,-1.1074290148167885,-0.4591049360133836
5.15625,-0.16702092108876326,0.19217474751901006
5.16015625,1.4960357798454362,0.2161631625306618
5.1640625,-0.23085253478737577,1.8033696440242937
5.16796875,0.9449317622109848,-1.3190609829786124
5.171875,0.036117048737577664,-0.5207711046649878
5.17578125,-1.0681627728339476,-0.2040759890579753
5.1796875,-2.1715969030999926,1.2519321560981083
5.18359375,-0.4312744721889148,0.5047690488919842
5.1875,0.2541887815272933,0.00734974840616993
5.19140625,-0.133620123252106,0.24310195026692027
5.1953125,0.4235612280572532,-1.2791558531141507
5.19921875,-0.21800802846586506,-1.1713433079914346
5.203125,-0.2776491039571705,0.4632078328608009
5.20703125,1.7900800561723853,-1.1107940584410374
5.2109375,-0.48649786147095603,1.196595537250826
5.21484375,0.562096280374882,0.2976410659106016
5.21875,1.3252050713945223,-0.8208848170351927
5.22265625,-0.39059818545868036,-1.0746838208512275
5.2265625,2.36492343450741,1.0600623593023097
5.23046875,0.24006643333179328,-0.5914145838987818
5.234375,1.0783805466285734,-0.980573981122196
5.23828125,-0.0935461500650339,0.7688846929224233
5.2421875,0.8119128016622866,2.731524295306357
5.24609375,-0.8758819975420129,1.918151705612044
5.25,-1.3088402880502794,-1.0352121641774776
5.25390625,-0.5962132099897751,1.1737543304441462
5.2578125,-0.5163525233087162,0.6705860001957288
5.26171875,0.3906918270507609,0.7450458614235762
5.265625,0.05529366532216633,-0.9786668647497524
5.26953125,0.04523052409712846,-1.665566813652748
5.2734375,0.16963142161888256,-0.16682998973810856
5.27734375,0.42211142498279774,1.207629577120124
5.28125,0.37663847710399756,-0.18422929968943164
5.28515625,0.12653257838787885,1.9642396059122025
5.2890625,0.061967996198935636,-0.023981940876830445
5.29296875,-1.544457203035343,1.4237747154117457
5.296875,2.181829701698821,-1.3250386260248366
5.30078125,-0.8946757011456395,-0.7369279190904264
5.3046875,-0.8669837450973505,0.7188936076168938
5.30859375,0.7199430565431612,-1.0735023431275503
5.3125,-0.4902085333664143,-0.944652300015123
5.31640625,-1.3605126666873129,1.7740511720311973
5.3203125,0.8187428681404413,1.8419198946002169
5.32421875,-1.3664289351510217,0.48442580914659555
5.328125,-0.5938799276467221,0.225831253916434
5.33203125,-1.0185640399066194,-1.2478332648198274
5.3359375,0.65829790029388,0.09028248600602685
5.33984375,-1.7452441718139688,-1.409354573741395
5.34375,-0.5182550548648748,-0.5282894685553408
5.34765625,-0.7668145840365315,0.43308244954481834
5.3515625,1.5895433342586085,-0.4043164108456112
5.35546875,-0.17739537526861307,0.5782676226614593
5.359375,-2.1652206855818874,0.08226789779606332
5.36328125,-0.33022385924740105,-1.2741336801915948
5.3671875,-1.3917576347886713,-0.10868830436704427
5.37109375,0.23994500746859038,0.11991867050673884
5.375,-0.7213931676025425,0.616852053445634
5.37890625,-0.3182808904006139,1.0219626923611638
5.3828125,1.0755445915156547,0.4409581454929241
5.38671875,-2.146293077258323,-0.9058777106309116
5.390625,-2.449660699280662,2.114568028741344
5.39453125,0.5931524512608038,0.6334223426133996
5.3984375,0.5006223125836428,1.5220209312636974
5.40234375,0.04243862000538685,0.5802067022109424
5.40625,0.2952001587856893,-0.6227414234667821
5.41015625,1.2698809660978463,-0.24263391586603983
5.4140625,-0.4011963695033467,-1.3667866734141625
5.41796875,-0.6643615604921985,0.7146937960410419
5.421875,-0.0980711918498451,-0.8617958509853421
5.42578125,0.4110752720565367,-0.867201962780948
5.4296875,0.5944359802087293,0.5290172725968145
5.43359375,-1.5179343213133976,0.03915231545896492
5.4375,-0.4462495429114689,-0.5994662841450075
5.44140625,0.8151791756069429,0.8435262993196959
5.4453125,0.6602998894960999,0.3168263218465541
5.44921875,-0.8266098465203817,-2.329800983551968
5.453125,-0.310682747217081,0.1363428435672849
5.45703125,0.17211747658998808,-0.22086786858826551
5.4609375,-0.8081811653958956,0.6711145293410529
5.46484375,-0.9144337638855906,0.2884744430704641
5.46875,-1.381322539582661,-0.05489925032524628
5.47265625,-0.016064410790166243,-2.1177086237978515
5.4765625,1.004770367911226,0.9056120041462867
5.48046875,-1.5386070739205346,-0.14438589441000743
5.484375,-2.1628555407855465,0.590613557706859
5.48828125,0.10410976098852012,-1.345640808266916
5.4921875,0.6797740025339213,0.10255704292666337
5.49609375,-1.3472051111876355,-0.7525058894208398
5.5,-1.2382680042953422,-0.7114569004828184
5.50390625,0.3412242062515362,0.4407416016436517
5.5078125,-0.7798267737240725,-1.229694176271012
5.51171875,-1.2399808885393,1.0789812195286124
5.515625,0.7380873469293336,-0.18704040618459045
5.51953125,0.1780351385652813,-0.5981072031482515
5.5234375,-0.864788657729265,-0.7097436797929937
5.52734375,-1.534308557962467,1.586069054005053
5.53125,-0.6369379557565039,-1.2674191320175805
5.53515625,0.020506674764727614,1.4976562430890175
5.5390625,-0.1881267711247304,1.7841933040578806
5.54296875,-0.377238171483072,-1.2070375486166727
5.546875,0.43277675460737697,-1.857128614800571
5.55078125,1.3129573012718947,1.7281845339287218
5.5546875,-1.1402515595601697,1.7546797997999926
5.55859375,-0.61824909906186,-0.6879600831943107
5.5625,1.0761261772405737,-0.39571164473083453
5.56640625,-1.1663463380988015,0.32377876238401354
5.5703125,0.8849963316873299,0.3289477865733709
5.57421875,-0.3014418470702498,-0.8590384144529376
5.578125,-1.479151396640467,0.7432477077613276
5.58203125,0.1267199710366226,2.2357199105483656
5.5859375,-0.07411406664431566,0.39410320168892793
5.58984375,0.9226745515781493,-2.8392130829942337
5.59375,-0.6869831990140453,-1.4665968044593904
5.59765625,-0.7552449820321917,-0.6713726573759267
5.6015625,-2.8092964834405945,-0.15028480148029047
5.60546875,-0.4814519735331534,-0.33730336112331083
5.609375,-0.8781547023872516,0.19991787057221685
5.61328125,-0.37333863730356587,0.17025113115226911
5.6171875,1.5298836235287059,0.5145994202675687
5.62109375,0.5680425480642332,1.1711329252883325
5.625,-0.232525355885894,-0.49441122416633987
5.62890625,0.9990006561234973,0.23359361775690854
5.6328125,0.005311599328228117,-0.5176464434667026
5.63671875,-0.5293940326297814,1.3339153953895073
5.640625,-1.5872318769183842,0.13129461143388324
5.64453125,-0.3882196788977365,-0.7830469335910034
5.6484375,-0.08539265203103899,0.47537834900366066
5.65234375,0.12410827792973364,0.8501836352251264
5.65625,-0.530874164912746,-0.22900728735966425
5.66015625,0.626917991486514,-2.056385273001571
5.6640625,2.153313839782107,0.5530734126459753
5.66796875,0.4071923669688376,-0.9900980720683492
5.671875,-3.2798283037325255,-1.599234133968774
5.67578125,-0.28053574363328593,-0.22473965925866551
5.6796875,-0.16888954511334292,1.0972650049620556
5.68359375,0.5794346425533168,-0.3230182225549904
5.6875,-0.8074206275544428,2.5384806438372953
5.69140625,-0.6272112963557447,0.18233948989116852
5.6953125,0.45427514430908633,-1.6057841246795226
5.69921875,-0.34860940056365786,0.03956633713963035
5.703125,1.1713772458542304,1.3552598640485654
5.70703125,1.1976517792906178,1.3179179476031897
5.7109375,-1.4020952876052908,-0.5530689180412126
5.71484375,-1.2191073784133992,-0.7723546774463528
5.71875,0.5148432766816166,-0.7551974261598414
5.72265625,0.8178912288666494,-1.4991581527146827
5.7265625,-2.1494051072466536,0.011501966725774653
5.73046875,-0.485653244091394,-0.7145452268152916
5.734375,0.3800521993660539,0.04474763592052132
5.73828125,-0.8485423762289865,1.3347986504742393
5.7421875,0.702368992189537,-0.5216768572984817
5.74609375,-1.148470293290238,-0.6722759375429556
5.75,-0.6687283360886125,1.735476330884866
5.75390625,-1.2541082542965856,1.527324512133523
5.7578125,-0.23522881960547085,1.5967021414878557
5.76171875,0.4248972507585687,-0.03075526915070809
5.765625,1.2824758947834236,0.028489627336403475
5.76953125,-0.5361630703295786,0.8425816598566034
5.7734375,0.15748681904274778,-0.30500047548600323
5.77734375,-0.07709168333383877,-0.37779861322386055
5.78125,0.2198907135227791,0.5211599691002281
5.78515625,0.5280513649491791,-0.9204721405557308
5.7890625,1.3880213917111928,-1.7178852269697251
5.79296875,-1.1307594087354385,0.3409309626903769
5.796875,0.30347310815074025,0.10357943088375558
5.80078125,1.2990004367720454,1.5677775316441593
5.8046875,0.05106463123610472,-1.2083454985413522
5.80859375,0.6249002421966059,0.47046052412127987
5.8125,0.6927765067645206,-0.6015860281517195
5.81640625,-0.15883739848319506,1.2079128257235954
5.8203125,-1.0408770369089155,-0.9956362521634924
5.82421875,-1.0946054102358929,-0.23341862676609562
5.828125,-1.3312382384769188,-0.09216483903066457
5.83203125,-0.8916732679552545,1.4800708725040166
5.8359375,-1.6827191113017173,0.7234980378282274
5.83984375,0.45128721756912543,-0.15811215202640996
5.84375,0.9048026924094446,-0.6743418893490077
5.84765625,-1.3307144087752236,-0.7207278775958513
5.8515625,0.3629972026565553,1.7526761118092948
5.85546875,-0.9009901598322084,1.8367026526288996
5.859375,0.5306694666292535,1.6176856267857624
5.86328125,-0.3421521989506434,0.7595939904547465
5.8671875,0.8368416358468489,0.21950976183872997
5.87109375,0.22911224684643336,0.8787075723540005
5.875,-0.23416818264422534,0.028253852241496125
5.87890625,-2.203841057334998,-1.152713869747574
5.8828125,-0.32484242227273846,1.229559674906983
5.88671875,-0.2896233327186216,-0.6147639585274949
5.890625,-0.1695433600488392,1.0495999630284543
5.89453125,-0.0054030060837770705,-1.5317949313763646
5.8984375,1.2317510967558658,-0.7970381314508289
5.90234375,-1.2996500032191907,1.5622100046463694
5.90625,-0.06907358870508394,0.9146323791753774
5.91015625,-0.9934307646567716,-1.1728781467136644
5.9140625,0.05939783087874971,-0.649824222082315
5.91796875,0.08493413886137172,-0.4216795941368873
5.921875,-0.869959291653593,-0.11660718862486229
5.92578125,-0.7984127764056782,0.7930308183499435
5.9296875,-0.30270800925237007,0.4177328835796988
5.93359375,-0.3382100199924931,0.8815551706484709
5.9375,1.2058920759247944,1.466240881820663
5.94140625,1.2745038131400386,1.335088141104581
5.9453125,1.1386188065917588,0.3586713237246907
5.94921875,-0.318462862661802,0.033718929170956737
5.953125,-0.559156198752201,1.5016313457542994
5.95703125,-0.23125154069310028,1.1334859924176626
5.9609375,0.1259984695655488,0.1407062156005414
5.96484375,0.30240596807284814,-0.925898569465551
5.96875,-0.7904996641145442,0.36874748179901556
5.97265625,0.11899230352427022,-1.5856118348894994
5.9765625,-0.011432898530984108,-1.0393517638449488
5.98046875,-1.2777361949194903,0.407488372579006
5.984375,0.8283933667033005,1.3243347938617305
5.98828125,0.002842800516929045,1.38953767331274
5.9921875,-0.7792295564754519,1.090929827909846
5.99609375,-0.19630651618276132,1.655789221851379
6.0,-0.960872180895095,1.4414155480775237
6.00390625,-0.28568184987442063,-0.784652702971264
6.0078125,-1.9696134226684383,0.17711313159200198
6.01171875,-2.3959643782946465,0.16232619166560996
6.015625,-1.4006717258892862,0.7986767516064148
6.01953125,0.037201485961076586,0.43173282575118044
6.0234375,0.6072899964468165,-0.7068442674061066
6.02734375,0.16282653543577955,-1.0392634099702356
6.03125,0.8199387701139822,0.800571486880102
6.03515625,0.6448151843264791,-1.6420881030233951
6.0390625,-0.7237767186666549,0.6609388091810975
6.04296875,-0.33001743705712444,-0.4480576010373309
6.046875,-1.0707892899033837,0.2865850749104514
6.05078125,-1.3324775653407588,-0.3340655321475515
6.0546875,0.567280344995756,0.23310525300281318
6.05859375,-1.0633425478279865,-0.7712079563109245
6.0625,0.7260749691710067,0.8171743051525825
6.06640625,1.5136522218859816,0.7539058200013701
6.0703125,0.02070806818152943,-1.9537605511520684
6.07421875,-0.31115215245074707,-0.11408712824811257
6.078125,1.453727295066597,-1.6934769925726187
6.08203125,0.37341267070020295,1.0008653519202648
6.0859375,-1.3428709376167032,1.1820260731606285
6.08984375,-0.39203812940454524,0.34500791157062793
6.09375,-0.12455516514987681,-1.005010102654171
6.09765625,3.0108624975823814,-0.4398084851541883
6.1015625,2.23348171999236,-1.0230302690824533
6.10546875,-1.9482589791420633,-0.4749894997608943
6.109375,1.0419897941514906,0.8826960838219755
6.11328125,0.6030502610428456,0.3273613636688981
6.1171875,-0.41876560240893074,0.47247959995669336
6.12109375,0.6279431857865512,-2.2911305624698266
6.125,-0.3938387125439237,-2.3051611892987114
6.12890625,-0.6275596728266863,1.4377362578535875
6.1328125,0.029519018802073985,0.3341067777557685
6.13671875,0.06137234077591006,-0.7666428549990385
6.140625,-0.32036196912214226,1.4199931019540433
6.14453125,-0.13602197718224399,-0.6989576313335119
6.1484375,0.7112057912913858,1.538522330863856
6.15234375,0.5794853102324524,-0.0793667946471656
6.15625,-0.9571437886890185,-1.5291000618199577
6.16015625,0.16893655667577115,-0.12387766601364004
6.1640625,1.467793508216373,-1.0164203165644963
6.16796875,-1.561607996936445,1.5592579485819547
6.171875,-0.7920632915762523,-0.7582196772061633
6.17578125,-1.1727149537963153,-0.4734376393102993
6.1796875,-0.4221041005222624,-0.306045662551771
6.18359375,-0.5336735752390636,2.743838866052089
6.1875,0.8344778520673409,-1.073159532351631
6.19140625,-0.2246469877773867,-1.0398372202069626
6.1953125,-0.3150332945085582,2.076183064506894
6.19921875,-1.0990885372146746,-3.2182869695574063
6.203125,1.3836475996493531,-0.5971329374725037
6.20703125,-0.7508359446877082,-1.4248479806938847
6.2109375,-0.14367644325824325,0.2151835060391333
6.21484375,0.6050496949974512,-1.1631525960737528
6.21875,0.3965931941076604,-0.8618004284238773
6.22265625,1.1749825871966335,0.6970705114753264
6.2265625,-1.1195191283810266,0.8757535134478532
6.23046875,2.440358510892932,-0.33116511075366833
6.234375,-0.8975090501388503,0.7184780800934543
6.23828125,1.6685197381004762,0.7807773878765549
6.2421875,-0.36471338272092657,-0.23133274175135726
6.24609375,-0.7098375178552807,1.1013627765519056
6.25,0.21938349147534733,1.2624404960064681
6.25390625,2.0650357598292146,0.8970656015382826
6.2578125,0.2086384180062971,-0.659379571079544
6.26171875,1.3696180736854784,-0.6100728362863166
6.265625,-0.9724246383608628,-0.05714339998983387
6.26953125,-1.1733154476068435,-1.2235518563361356
6.2734375,-0.6513528943929804,1.0630917962008901
6.27734375,-1.8769330559002104,1.5443767108670887
6.28125,2.0330529759710596,0.37976470457790656
6.28515625,-0.6540041528114996,1.0809895731556098
6.2890625,-0.7842808561615653,-1.1238436153083247
6.29296875,-0.8530751645524284,-1.1665660664294157
6.296875,0.035374339035843784,0.2110711400601561
6.30078125,-0.8719420056987783,-0.36510031593983044
6.3046875,1.4364472721387753,-0.3057155985230684
6.30859375,-0.2613155790638027,-0.8908577911705156
6.3125,-0.36692165005774885,0.09542580269622422
6.31640625,0.09025875780670559,-1.9015163907249342
6.3203125,-2.074535994001348,-0.4792085199125291
6.32421875,1.4105566701131407,-0.6679797718389207
6.328125,3.1141799926348512,0.2199783436272906
6.33203125,0.14648708402736463,-1.4222489333806039
6.3359375,-0.14267014799025352,2.0541065108001546
6.33984375,-1.037681084927792,-0.4558649541711275
6.34375,0.12666999032354828,-0.709465441866369
6.34765625,-0.1507992076367013,0.5935127218954074
6.3515625,0.7918841039050419,-1.5592326216324317
6.35546875,2.590976931212265,-0.26242053582306796
6.359375,0.13175891359850297,0.6927679079312103
6.36328125,-0.34759435652363924,-0.05723558489616672
6.3671875,-1.1195783007548314,-1.4487725002317402
6.37109375,0.3207166675516016,-0.1683616907138874
6.375,-0.177737366722317,1.0462114548406065
6.37890625,1.8495349241892989,-1.4487023371158352
6.3828125,0.18836587068666522,0.33334344376429803
6.38671875,-0.5142325670426096,-0.7468201463860399
6.390625,0.6163270779043017,-2.085272495514543
6.39453125,-1.3719116677387848,0.8708326575554666
6.3984375,-1.0878619673276722,-0.31097298827421394
6.40234375,-0.6084508410886644,1.4591885579777963
6.40625,-0.3610862545412865,-0.8550999545893289
6.41015625,0.12636249254915752,-1.4904235965146926
6.4140625,1.3541729616960028,-0.6716725651003543
6.41796875,0.6574852391992303,1.275687103164951
6.421875,-0.16324021939868824,-1.3308506367691835
6.42578125,2.404742727957431,0.5434279327878803
6.4296875,-0.03229258189699993,-0.22796235190021297
6.43359375,-0.04159018072234858,0.9630250477494905
6.4375,1.8017060629682597,0.4387392514925572
6.44140625,-0.029832591791897456,0.45371809001355135
6.4453125,1.7864026384711642,0.6509504079224434
6.44921875,-1.1714612708201477,-1.2105551230746634
6.453125,-1.167457253874391,-0.39904687811509754
6.45703125,0.772213459897214,-1.2213993840780981
6.4609375,0.9887809781769707,-0.1941968454313509
6.46484375,-0.8558743448756153,-0.1853243694709843
6.46875,0.9186887641955143,-0.8869048859565237
6.47265625,-0.08575188403623825,1.4474810662215558
6.4765625,-1.129450454233742,1.8835824988588366
6.48046875,-0.13704111834338145,-1.080479560630984
6.484375,0.3298413498695664,-1.5294573886672573
6.48828125,-0.6496701656809424,1.3379441044270504
6.4921875,1.4845309107931757,-1.626335333462204
6.49609375,1.1425639811336723,0.7928907232890806
6.5,-1.0766657676860398,-0.5141304896951763
6.50390625,-0.7990367024821573,0.8884317133767909
6.5078125,-0.32902063279969523,-0.3541459467963524
6.51171875,0.2831907793725353,1.3135971258009111
6.515625,-2.4186510965404193,0.25669884347055605
6.51953125,0.16826030754124507,-0.7481183213824816
6.5234375,1.2864322632546432,0.43910559600067955
6.52734375,0.2195317625143198,1.70443797480914
6.53125,0.8065480679025663,0.6690644067432818
6.53515625,-0.33538509936528677,0.6146353865784879
6.5390625,-0.8626789858267999,-0.006272095308960362
6.54296875,0.7006876435417994,-0.4855157042373753
6.546875,0.025421620614706805,0.7123862990153313
6.55078125,-0.5556240225106153,0.5201138825260647
6.5546875,-0.6075801333737937,-0.19724200844768927
6.55859375,-1.4499887500539708,-0.08114197498501266
6.5625,0.12687659928799533,1.458368620186749
6.56640625,-1.3197784081749278,0.6849172702650776
6.5703125,2.0655852109494637,0.5873031900882274
6.57421875,-0.18447619784518493,-0.9216984199734557
6.578125,1.1497599417701923,-1.0489950702872015
6.58203125,1.177102731017784,0.397150276472699
6.5859375,-0.7759686502314759,0.4612014595114418
6.58984375,-1.0678974991721926,-1.2606772757638938
6.59375,1.2773711252352238,1.86686045585102
6.59765625,1.017846611285675,0.004778259615552171
6.6015625,-1.2722573048043335,-1.2114276040346321
6.60546875,0.460853594617551,1.2802884106953918
6.609375,-1.290415613199098,-0.4378669512564747
6.61328125,0.20216124265363364,-1.5865612255002297
6.6171875,-0.7782790134108432,-0.6217806331808671
6.62109375,-1.0569422304903995,0.6984736782661457
6.625,1.139447463313693,-0.2842978742084541
6.62890625,-2.0542668879482338,-0.2462561000905542
6.6328125,-0.08389261736348433,-1.3284525400189309
6.63671875,-0.3574744833240211,1.0074335340711875
6.640625,2.959781436036158,-0.5462625092914437
6.64453125,-0.3076952179302064,1.3294800670728912
6.6484375,-0.3809181886119728,0.0025006623849844344
6.65234375,-0.4215029997133342,-0.7682114140809674
6.65625,-1.7563226352943935,-0.43699921546151466
6.66015625,1.3970148181931616,1.0952699385295368
6.6640625,2.2980332189279022,0.882440352785096
6.66796875,2.604823711985659,1.2292344419202719
6.671875,-0.43987528669819287,-0.17470649664198795
6.67578125,0.9638276179886951,0.23604374839836786
6.6796875,-0.48735541902390755,-0.3496024876541626
6.68359375,0.27492315722164384,2.2253607495574372
6.6875,0.43317053517508375,-1.9390924849126356
6.69140625,1.4225245609596568,-0.6424498562725305
6.6953125,0.052716927977780374,1.1522958348806174
6.69921875,-0.9997621590450954,1.4033669689283186
6.703125,0.5419942870537806,-0.10668384777706931
6.70703125,0.9413065392243729,0.6444533391920844
6.7109375,0.8927621680583203,0.891866268835921
6.71484375,0.8215320172420335,-0.6297687247918081
6.71875,0.056372114498812305,-0.12364886392307184
6.72265625,-0.5994055810747143,-1.282367668569042
6.7265625,-0.26779166162832735,0.24908840003389296
6.73046875,-0.5060423232875706,0.693624554444497
6.734375,0.614277658477732,-0.8186017544215646
6.73828125,-1.9564359974317254,0.05053019210184981
6.7421875,1.7980660219007114,0.25834649825189865
6.74609375,2.0798992149737323,1.2615973792113213
6.75,0.9641438692545342,-0.21352228589790068
6.75390625,-1.94102390385567,1.094965302516726
6.7578125,0.415295028556202,-2.387946687793747
6.76171875,-2.790577200332094,-0.2838045597131528
6.765625,1.4098532779221853,0.7866039533244259
6.76953125,0.4470141580863385,1.1222972896013923
6.7734375,1.4206836190730963,0.1544444199874545
6.77734375,1.244614204446879,-1.0809427715557953
6.78125,-0.750936075179244,-0.3917335159476922
6.78515625,0.2643562078149056,1.6188422512411726
6.7890625,0.34537776618027693,1.0167762420510584
6.79296875,0.37925422898412847,-0.059306026422876
6.796875,1.518908642804603,-1.778671120998227
6.80078125,0.8476010083960778,-0.8372003870866388
6.8046875,-1.114579796957908,0.2603315908674814
6.80859375,0.35116099036464377,0.6276300930396063
6.8125,0.44561078108551777,1.3063357720346638
6.81640625,-0.0646773958837774,-1.339354794518275
6.8203125,-0.8095110347562424,0.4218914925178776
6.82421875,0.8837393662546941,-0.2393527509098615
6.828125,0.10294550085477765,-0.10553319237856304
6.83203125,-0.7146513945251135,1.6020863394977707
6.8359375,-0.709240018403768,-0.6867706141616845
6.83984375,-0.020359533463906145,0.9963638510417225
6.84375,-0.150980238100473,0.07639400796184585
6.84765625,-2.268067208327884,0.4588349655785617
6.8515625,0.2676818229390314,0.9947017406794186
6.85546875,0.6930636758363347,-0.42678307220031925
6.859375,-0.059893672369582,-1.4040007000237291
6.86328125,1.1543677616210035,-1.0631510491608849
6.8671875,-2.3758105332599655,0.1036056610462862
6.87109375,-1.6687444795604562,-0.08422861655279891
6.875,0.07191904412959295,-0.23452762834679994
6.87890625,0.9406109478057149,-1.3273569274521415
6.8828125,1.3455934568907402,-0.687399148303543
6.88671875,0.5777057959848103,2.0369466734703603
6.890625,-1.7712677329834672,0.45247422083812006
6.89453125,-0.10790998180370413,0.46135087299230354
6.8984375,-0.088499125100806,-0.3229122075993412
6.90234375,0.19146370294397264,0.7829983418980312
6.90625,2.2979657744984348,-0.29247820900771637
6.91015625,0.009297487941333,-0.4146740020308575
6.9140625,-0.9116777384422128,0.3264715714304058
6.91796875,-0.5075995494175412,0.2251413478253283
6.921875,0.7374658266712527,0.2689255996964239
6.92578125,-0.4544033862592718,-1.6001600223499757
6.9296875,1.4719287454485823,-1.0014566145401913
6.93359375,-1.4756494999917737,-0.32223057653497034
6.9375,-2.364466765302593,-0.7182111037317106
6.94140625,0.2564134170489478,-0.2461090473922558
6.9453125,-0.2691757849614124,-1.603693390117856
6.94921875,0.9437102194895319,0.4828271991425641
6.953125,-0.6927138542104853,2.482889754359601
6.95703125,-1.4081367025300426,-0.175148541910155
6.9609375,1.293044857175017,1.1709435978346183
6.96484375,-0.2562074961986997,-0.33965120427015966
6.96875,-1.9509293656621844,0.9047014391980563
6.97265625,0.70960688632871,0.5992807772361304
6.9765625,-2.622558698436925,-1.562450796479636
6.98046875,-0.2803806672842826,-0.31536424789607387
6.984375,1.3178934062115875,-0.6267497468130299
6.98828125,-0.45478305254423435,0.17140688003066099
6.9921875,-0.9256783425814556,-0.642285415078203
6.99609375,0.09607303007504213,-1.0238782504341442
7.0,-0.3710275458224829,1.3576760807500778
7.00390625,-0.17501324669458668,-0.1347673490729154
7.0078125,1.175753906682592,1.3184337380751354
7.01171875,1.1453083828451565,0.6034031328813115
7.015625,-0.4506511512918417,0.752601643393485
7.01953125,-0.157048468704435,-0.1978573435454428
7.0234375,-1.2190782737794166,-0.9365490311915718
7.02734375,-0.5430252356848513,-0.26291669001104134
7.03125,1.1647420691631805,0.8077399384055313
7.03515625,-1.5474141791415539,0.9729563794516789
7.0390625,-0.2685575425913705,0.3896835771751083
7.04296875,0.44858970303265716,-1.2120791310530368
7.046875,-1.084567136614032,1.8778392230524157
7.05078125,0.4889889622980628,-0.8482146443852916
7.0546875,-0.7231625584035214,0.7610270950378345
7.05859375,0.7990250943092853,1.3444630464559697
7.0625,0.29408951117695503,-0.08056876433141207
7.06640625,-0.3636902193934719,2.0726872698584926
7.0703125,-0.24905292805333848,-0.21955232405178687
7.07421875,-1.4164075499421973,1.848695743705168
7.078125,-0.37548313543177714,-0.7099666212684659
7.08203125,0.08680758584442856,0.3687700482003505
7.0859375,-1.1307531382295828,0.7321658382794919
7.08984375,-0.4426254435744625,-1.5313162881094606
7.09375,0.2936265957314721,1.2554732846246897
7.09765625,0.9249290054014573,1.0970373382454848
7.1015625,1.8981225894061424,0.3806586625471576
7.10546875,0.4688769386474497,-1.7122122363302448
7.109375,1.0406503702197314,-0.40211491332656435
7.11328125,0.46717965305114295,0.5730890796956952
7.1171875,-0.45616422410167945,1.0226573632372684
7.12109375,0.05723416514230633,0.5464577141049527
7.125,-0.7964660055695075,0.2620473950768713
7.12890625,-0.3961161346036343,0.57472674328023
7.1328125,-0.039554725702119875,0.5961512332298126
7.13671875,0.45445466157264247,-0.02919759754239258
7.140625,0.9369947648679504,0.6249588208820478
7.14453125,-0.3948322553151191,0.38516146246185684
7.1484375,0.5076588410861635,-0.4741702178552933
7.15234375,0.41909516020512605,0.8015455742292388
7.15625,0.03561583744470035,-0.8983547410787616
7.16015625,-1.0233882573267414,0.6336801361964274
7.1640625,0.5399540964639794,0.30495191193722154
7.16796875,1.0755869131794038,1.394557285547031
7.171875,-0.04825977634374422,-0.11147429443057418
7.17578125,-0.04216946914718794,0.12313671859250758
7.1796875,-0.26456467222794977,0.45838326972656895
7.18359375,-1.8841881754949603,-0.9504973842196597
7.1875,2.208806192147808,0.09220128737586945
7.19140625,0.8865332016763924,-0.9533025539691448
7.1953125,-1.659076673688886,0.7473748619700674
7.19921875,0.21347048055530274,-0.16788489371174692
7.203125,-1.9189593343582745,-0.8672873417804238
7.20703125,1.1748375726709892,0.05476629935735207
7.2109375,-0.4212925615000356,0.443221076555894
7.21484375,1.6845680547771824,0.28298124642024364
7.21875,0.7194211634179318,-0.5212504111698589
7.22265625,0.3183652292225935,-0.4977393210447835
7.2265625,-2.549322672928984,1.5346913194432863
7.23046875,2.162603316841427,-0.6333635898506754
7.234375,1.9062312730778996,1.4791991271434861
7.23828125,0.3165622220436387,0.11174752301329273
7.2421875,1.290328540359506,-0.2928099066824509
7.24609375,-0.5849799334701069,1.1162932753912589
7.25,0.89020887717282,-0.17954762289326628
7.25390625,0.45386018911827547,1.3167072523422654
7.2578125,0.03637334631105009,-0.1593136769587426
7.26171875,1.2672271219510611,-1.3637282395004826
7.265625,0.5381161937815789,1.5572747716615836
7.26953125,-2.0311020266445428,-0.5361538210943277
7.2734375,-0.7603442343915012,-1.0373825842635502
7.27734375,1.1272113983997905,1.2805234958963183
7.28125,0.5692573580784168,-0.9005982922479628
7.28515625,1.7068707518637642,1.3773561669039096
7.2890625,0.8686047590515436,-0.03152495436201878
7.29296875,0.7209903357676015,-0.04816173358029591
7.296875,0.2775312466414895,0.4480451366949276
7.30078125,-0.6941618556993568,-0.589570389770623
7.3046875,2.208895278290748,0.2086502341214448
7.30859375,-0.03608302896823743,-0.27026057778981244
7.3125,-0.7712115616050703,-1.5925778338149688
7.31640625,-0.375274544580195,-0.9229162027909432
7.3203125,1.34033802309457,1.173965234584048
7.32421875,-0.7516412170783998,-0.8030522666863349
7.328125,-1.2451710512273029,-1.4695775968453035
7.33203125,-1.8154716014396541,-0.9998683827336834
7.3359375,-0.5436756671441968,-1.2931488826516155
7.33984375,-0.08310940984999793,-0.7750603115925696
7.34375,-0.1792857307446954,-0.32414081145241125
7.34765625,-2.129515203099001,0.36758028690088884
7.3515625,-1.6520703449773857,-0.5256323089041035
7.35546875,0.23345263226881552,1.8729520053929696
7.359375,-0.6438207545114552,-0.2983461444885903
7.36328125,0.6593202973592649,-0.06176499188217135
7.3671875,1.5853108138844096,-0.31311538260580213
7.37109375,0.655641807731542,-1.6897745387360061
7.375,-0.7104591213184395,-0.15727805148110405
7.37890625,2.0121075873356413,0.7120607726172867
7.3828125,-2.496669864160454,1.5206073681225518
7.38671875,2.5366474813939592,-0.7549184750781945
7.390625,-0.4348675554847259,-0.3967223178666222
7.39453125,0.3999073005639221,0.7165299821354075
7.3984375,0.12194991899579066,-0.2886428885404113
7.40234375,-1.4260552548754395,0.2852159706707606
7.40625,1.3402785113616338,0.30881781757007676
7.41015625,0.0959095507016142,-0.5870488873632238
7.4140625,-1.3621327284240956,1.7089820147541932
7.41796875,0.03662363857059614,-0.4749517408814923
7.421875,-0.6722429487449754,-0.6413281333371007
7.42578125,-0.529974365767806,-0.4710383629142436
7.4296875,-0.33491902722080674,0.5629216449218027
7.43359375,0.3635697156802513,-0.062281525694863955
7.4375,0.5440513517561397,-0.0001318600867152691
7.44140625,-0.7475692652448134,-1.7799306143412172
7.4453125,-0.5431881190199007,0.087195291288663
7.44921875,0.24459847204095742,-1.2644858614018655
7.453125,-0.6350067339659735,-1.4606831793264647
7.45703125,1.1676350148568573,-1.7504936666600432
7.4609375,1.0168030507325991,2.071301349255932
7.46484375,0.9375936634822406,1.622423713887814
7.46875,0.8321007717253718,-0.6288259051414424
7.47265625,0.8097005508913798,0.6413958206750332
7.4765625,-1.0117934009957668,0.6528756947898599
7.48046875,-0.23018945923288078,-0.3943864627523892
7.484375,0.6316920749002743,1.1702154988652989
7.48828125,0.6629450704873562,0.37408664854687856
7.4921875,2.9036919464415942,1.0205862178314802
7.49609375,-0.9753882052780427,-0.5412574290277619
7.5,0.3688488978127343,-0.7016502455565365
7.50390625,-0.1494973234787221,2.458020688945019
7.5078125,-0.46243030182292943,0.5979304468986206
7.51171875,0.25473266381172266,1.6407478112918112
7.515625,-0.9239777340636325,-0.23553937944281222
7.51953125,-1.3285501732579588,-0.2940476654254336
7.5234375,3.7238575138218537,0.95609148106101
7.52734375,0.2727171296615437,-0.33972669232349695
7.53125,-1.4336912414041345,-0.052515010424389136
7.53515625,1.1394219545135722,-0.7136294632240681
7.5390625,-0.10496589229940008,0.26871514546446007
7.54296875,-0.027449436165842205,-0.6330740794894519
7.546875,0.8477460446505722,-1.1520893944218835
7.55078125,0.22350539943595857,-0.8530416018401138
7.5546875,2.0364481808460098,1.0049117921524005
7.55859375,0.15080921808191228,-1.525891161764564
7.5625,-1.042430219452198,0.611640377268762
7.56640625,0.9808364425689664,0.13825869100453914
7.5703125,1.0467433389846428,1.8003137597687595
7.57421875,-0.5910926825988364,-0.556761420547316
7.578125,-0.37304652272694944,2.0365090636747536
7.58203125,-1.985376204967862,-1.5996077568879963
7.5859375,0.11649671498192833,-3.8214583541304212
7.58984375,-0.773500762496486,-0.6720757118127788
7.59375,-1.1005276257494467,-0.6320555388410051
7.59765625,1.252774862326298,0.46659592393179383
7.6015625,-0.1546084487663537,0.31206126599609507
7.60546875,1.4517953871413203,-0.20113194298897935
7.609375,-0.8843487249311115,0.3233015143418626
7.61328125,0.3572865210768611,0.7315566503051314
7.6171875,-1.038287389307644,-0.871569905420331
7.62109375,-0.5663428778329312,-0.16577327800813677
7.625,1.3600682955950516,-0.010595046699094706
7.62890625,-0.8432070590536977,-0.22455714660516374
7.6328125,1.55012293978822,1.3138561198490908
7.63671875,1.1227310516850977,2.0237568247936077
7.640625,1.409020049802475,0.0847843763005246
7.64453125,-0.031237795765589254,0.4473223129514476
7.6484375,0.3624753812018738,0.2966742971087672
7.65234375,-0.1559118495367408,-0.3364461750739327
7.65625,-0.36631040046331736,-1.223170697198568
7.66015625,0.7420685307842411,-0.04070202367674688
7.6640625,-0.7221755188443315,-0.5916895181587163
7.66796875,0.3586659845210805,0.6186598591229058
7.671875,-1.9450759696360724,-0.4948340708549516
7.67578125,0.6622877430067681,1.6017819865788832
7.6796875,-0.6339222166507787,0.08651555142505428
7.68359375,0.7823569602057442,-1.5945478291525892
7.6875,-0.23787477321425857,1.5698857357013098
7.69140625,0.5977143378480737,1.5635578794421077
7.6953125,-0.2378950944429814,0.5061991017912215
7.69921875,1.8356383483317003,-1.1096698286479292
7.703125,-0.16045685425186476,0.23494429210426376
7.70703125,0.4579476647743878,-0.7292468038559501
7.7109375,-0.07073973378072354,0.3631688098619005
7.71484375,0.024426081460631372,-1.4105513256416415
7.71875,-1.3752584387398037,0.14448703378972216
7.72265625,-2.0497286086071087,1.1336138014827122
7.7265625,1.010107424048139,0.7375154881370596
7.73046875,-0.5792694557472419,1.4454412516257862
7.734375,0.6685778274784504,-1.1295959653858656
7.73828125,2.0916343813350644,-0.23609142088983356
7.7421875,-1.358753252520372,1.4049836081912157
7.74609375,-0.6627911022950516,-0.42221615292505743
7.75,1.0767427948678185,1.227542996732866
7.75390625,0.5993432566644598,1.490147964012013
7.7578125,0.5687256621420093,-1.5881943513474865
7.76171875,-0.08832625618677656,0.42037709789814176
7.765625,0.7054234249447688,0.9254085874845405
7.76953125,0.3624061712085055,1.1167128353429177
7.7734375,0.17751972211599878,-0.38567543746269944
7.77734375,-0.1337420481002958,0.15965900140012002
7.78125,1.0809210744075544,1.6689315673890048
7.78515625,0.5365969304813295,1.2665369068551302
7.7890625,-1.298123062257463,-1.818047009586111
7.79296875,-1.2098465516293677,-0.7445882137030321
7.796875,-0.27680468239587724,0.6529703854793187
7.80078125,1.2215462594564768,-0.04693388033031387
7.8046875,-1.5628594562726275,-0.13352162220156114
7.80859375,0.36464930058076656,0.21606258782451113
7.8125,0.22817275554261093,-0.790946758480241
7.81640625,2.1468504803641433,-0.8862044560644815
7.8203125,-1.4856567204098652,-0.755310909492134
7.82421875,-0.4785430658427218,-0.03133144125333688
7.828125,0.7166951467657151,-2.132245964977917
7.83203125,0.2049813184702052,-0.8172530834560325
7.8359375,-1.2059633358669506,-0.5857016035679227
7.83984375,0.5155588673230107,-0.1284771716575389
7.84375,1.7454284584220674,-1.6214550032317248
7.84765625,0.18570943760307426,0.015665094488973803
7.8515625,0.6135246084931137,0.304210964848002
7.85546875,2.342660750484553,0.5550285493572193
7.859375,0.8283792344303457,-0.01539422474025554
7.86328125,0.8816905956894797,-1.4930326962356426
7.8671875,-0.9077774604520222,-0.5212948556497955
7.87109375,-0.16947996872770296,-0.7478470120832463
7.875,-1.6870276425915127,-0.36015075079014186
7.87890625,1.1160001084293825,-0.474497913551111
7.8828125,1.925678719088207,0.35570669032984203
7.88671875,1.809114124379944,1.4444281227735123
7.890625,0.7806398504459199,0.31180840080738687
7.89453125,1.4295919140300917,0.09509954437191621
7.8984375,-0.5063984452792227,1.3519803211381405
7.90234375,1.2211681831157368,-0.34629049405154466
7.90625,-1.0002534722664038,0.23895545554555198
7.91015625,-0.9693054149574903,1.9919163133874
7.9140625,-1.9394100183391756,-1.0311048069799518
7.91796875,0.13413731700732273,-0.2494405545330093
7.921875,0.8525351682952494,-0.20648951359229037
7.92578125,0.0654177422266349,0.09503564745260461
7.9296875,1.9152191327064014,0.5084674637103596
7.93359375,-0.23821268692963898,0.508879305523185
7.9375,-0.3793729634804254,-1.0078288726318685
7.94140625,1.152299153688793,-1.3842059993436684
7.9453125,-0.10196750847997288,-0.32547968697526786
7.94921875,1.2233882964269154,-0.7148965244912215
7.953125,-1.0134602477716474,1.2042127279900297
7.95703125,-1.8372525415725518,-0.45558330030188654
7.9609375,-0.9161704742898639,-0.542567968044069
7.96484375,1.1654761555288684,0.15431245451728007
7.96875,-1.933121851552165,-1.3811679348980104
7.97265625,0.3818281014194673,-1.306191872000128
7.9765625,-0.6814140657885228,-1.6804063939744875
7.98046875,0.4532592271592348,-0.8853710262987157
7.984375,-2.8824577342778737,0.5370368030322793
7.98828125,-0.25504395341784397,-0.20910653068522445
7.9921875,0.18607408109395698,0.1821157778323689
7.99609375,-0.8880019802484024,-0.99526195878034
8.0,-0.704792588018498,0.7146866300082935
8.00390625,-0.9271638421304681,-1.6148578384108268
8.0078125,0.661873371603494,-1.6873819043907121
8.01171875,-1.3002108916204382,1.6454296735839826
8.015625,-0.7349930427155783,-0.10236206922005933
8.01953125,2.609566827092876,-1.1150418614357342
8.0234375,-2.211025595096403,-0.9033810204384325
8.02734375,-0.30504511579768173,-0.5478537104189752
8.03125,1.7922221822022706,0.72546552105349
8.03515625,1.7674437033996035,0.6004545832756693
8.0390625,0.7241285136987397,-1.2609665748740229
8.04296875,0.550351267571375,0.6717715209332696
8.046875,-0.5750194730016674,-0.8375085181580819
8.05078125,-1.0620628907860883,0.32062954435783375
8.0546875,-1.6785738716044287,1.549058224235167
8.05859375,-0.6051125022766869,-1.4128188157824924
8.0625,0.1541051789691694,1.8347146020107619
8.06640625,-0.3151502496434357,-2.1582614186251967
8.0703125,0.9800830094030812,0.08122961981777613
8.07421875,1.071893048072644,-0.9956336172817757
8.078125,-0.599813820390124,-0.24982317759920056
8.08203125,-1.4919854584055523,0.42467335217412816
8.0859375,-0.9667366691854518,-1.0362993683432191
8.08984375,-1.5135409301494112,1.01211080434701
8.09375,-0.0932285259425144,-0.6501770927043272
8.09765625,-0.5699515035202871,0.4454369920586644
8.1015625,1.0767843588233355,-1.5429177378132601
8.10546875,-0.6352194965128011,-1.0657224542137715
8.109375,-0.3653069806514249,-1.2016782671126025
8.11328125,1.296044690726109,0.23900791406187455
8.1171875,-0.0022407759598940323,-0.45566378575850774
8.12109375,-1.2392178579219206,-1.1556201590476318
8.125,1.1240867001512713,-1.1130620102861022
8.12890625,-0.4429980076974295,0.12469960662142399
8.1328125,-0.7540231049492016,0.5713753551864429
8.13671875,-0.5577610663939815,0.9830611954020245
8.140625,0.857550029714116,0.3611067653669481
8.14453125,0.3647280076951447,0.3487222484471081
8.1484375,0.3652225350373406,1.4528524335750084
8.15234375,-0.4145985747906537,-0.0411073730062944
8.15625,1.2587276633691487,1.4478905591966484
8.16015625,0.9756249086962235,0.7469700336201137
8.1640625,-0.3746395108320271,-1.4277293068785741
8.16796875,-0.15522659743155232,-0.9110178295744631
8.171875,-2.6428094814043153,-0.7007122111909689
8.17578125,-1.2066460880369367,-0.27251253583150054
8.1796875,-0.026461202217897103,0.5282548172999282
8.18359375,-2.031277785625881,-1.874531533618742
8.1875,0.5396860305672624,0.6760149893355938
8.19140625,0.4268875005080777,1.6129493327544202
8.1953125,-1.3101399624263765,0.43826710898111015
8.19921875,0.544030603068096,0.5581879141755725
8.203125,-0.32805657186461995,0.5899938287356842
8.20703125,0.11263455794093637,-0.8463882796615888
8.2109375,-0.6087011521988975,0.05228693558006216
8.21484375,0.13828842574396075,-1.8101606161596757
8.21875,0.1434360848281402,-1.4957010988090138
8.22265625,0.1377736027976922,0.057579350788357304
8.2265625,-0.07485049808908828,-0.7331470659338931
8.23046875,0.7002259779774352,1.4689320143112277
8.234375,-0.831100206464437,-0.65978033319675
8.23828125,-0.9165645678110669,2.6443669697688685
8.2421875,-1.1561395432691233,0.5439168400195509
8.24609375,2.1091409605929976,0.9606184614808221
8.25,2.024939322696139,1.3416202661753616
8.25390625,-0.5126527922746315,-1.4139243255293807
8.2578125,0.7705389271147136,0.2686743870516035
8.26171875,0.2728121405825457,-0.42294976175720844
8.265625,0.5425180076923424,0.9367485807956554
8.26953125,0.2207631905755253,-0.12792216344324422
8.2734375,0.4593643027756206,2.275098012005315
8.27734375,0.4876036371118791,1.4856375208535517
8.28125,-0.6771776900820347,-0.3990466999396701
8.28515625,-1.5194332982554493,0.7556949728233772
8.2890625,-0.48857001203804923,0.7071607226054416
8.29296875,-1.0815513359163385,-0.6218013602715468
8.296875,1.4583881624360526,1.3474115182228796
8.30078125,-2.6490996154281365,-0.6082562963127938
8.3046875,-0.4617103624288847,-0.0945191375096185
8.30859375,-0.610793462604799,-2.1033719752267444
8.3125,1.773151647611652,-0.5638638186603713
8.31640625,-0.9221283931142104,-2.828137639491283
8.3203125,-1.6046689343061808,0.6184210074004723
8.32421875,0.030410627365611,0.3921495438677995
8.328125,0.9424025848745636,0.4271899277839964
8.33203125,0.4584680538301457,-0.1206724558705632
8.3359375,-0.46432083819196585,0.0660402842134357
8.33984375,-0.6746155207432459,2.6079005018464114
8.34375,1.0590200957878912,0.15250377376093693
8.34765625,-0.2388268453279345,0.8231990144352029
8.3515625,0.11239953736984754,-0.14546306118027244
8.35546875,0.8432157545006326,-1.3687497738173575
8.359375,1.285587116127708,1.1378626533447032
8.36328125,-0.8219643180882849,-1.6137389924080117
8.3671875,-1.244085327704877,0.16494880031592057
8.37109375,-1.656567603024638,-0.67130541553314
8.375,-0.44039284913758675,-0.5317965040333857
8.37890625,1.2706557148881048,-1.1829983709716783
8.3828125,-0.17210627027598113,0.21732644329022613
8.38671875,0.3235142180925513,-1.420847128104026
8.390625,-0.17529262861556372,-0.7490457617057749
8.39453125,0.23945347242148227,-0.8613538402915308
8.3984375,0.27436824202531795,1.1765369177722311
8.40234375,2.0204857927861397,0.3102792583346369
8.40625,-0.7369394152282223,0.34064423476043904
8.41015625,-1.8833770828807312,1.3221260025385007
8.4140625,1.0721363166968731,-0.7394670144651988
8.41796875,1.9842439984784486,-0.6154627107371842
8.421875,-0.539140113679916,0.038908933565663356
8.42578125,2.1145827033967826,-0.00027285631359834047
8.4296875,-0.36450508369625456,0.3567052569116473
8.43359375,-0.3018810977488435,-1.3630597607439054
8.4375,0.35178298352705717,0.6103849071057839
8.44140625,-0.39228149903059406,1.731173306886651
8.4453125,-1.1277302480351976,-1.9696614479504084
8.44921875,0.7729721887689931,-0.03944789450031197
8.453125,0.12435326497088096,-0.3314214830216933
8.45703125,-0.46264524212375085,0.8980630767914255
8.4609375,0.5126359683499139,-1.5665152493107435
8.46484375,2.1952610404006205,0.5211730311593
8.46875,-1.039677912342634,0.4432803664815511
8.47265625,-0.9787223213754027,-0.43691030787502483
8.4765625,0.3986730357622141,-0.223102987600171
8.48046875,-0.2955340560388712,-0.22507910003702805
8.484375,0.33998827211492905,0.05164347008789014
8.48828125,0.7565340801993128,0.7053999323015921
8.4921875,-0.2802585406435526,-1.3010736226153947
8.49609375,-0.5229402125667696,1.0052026187306295
8.5,-0.7243601724729944,-1.415186317120684
8.50390625,0.40843812371483956,1.3116447579599118
8.5078125,0.13907609089285117,-0.6980104548139177
8.51171875,-0.06764519591957352,-0.7897282732157378
8.515625,-0.035706530438027524,1.6724702180874491
8.51953125,-0.33301406917124954,-0.6741694539377906
8.5234375,0.9126283991287012,0.5007208465602344
8.52734375,0.16390748835619087,0.09382320740167265
8.53125,-0.34682336552813536,0.7624333455228022
8.53515625,0.06478623791081738,-0.0855437349655328
8.5390625,0.7374942292903117,-1.0169432356863077
8.54296875,0.08848987439774549,0.680818653365624
8.546875,0.6210592119944168,1.4951445104129304
8.55078125,0.412052777642744,-0.10043582779132301
8.5546875,-0.4516873229993898,0.6263224438027704
8.55859375,-0.8929022144078957,-0.03215207777125905
8.5625,1.2704096964098301,-0.8912937342438793
8.56640625,-0.43366456706626094,1.4498397336846205
8.5703125,0.7848890571625668,-1.3613925342061204
8.57421875,0.48116678200454993,-0.1223069103735247
8.578125,0.03946375251630194,0.7408905615578576
8.58203125,-0.40167958528301145,-1.045041761563388
8.5859375,-1.0075311151682596,-1.6716504965155083
8.58984375,-1.3943373767793965,0.9489434483266301
8.59375,0.5543533841445316,0.30906349474487393
8.59765625,-1.3049865436314432,-0.22055141868480374
8.6015625,-1.168362069601004,1.164731959137167
8.60546875,-1.8413598349234535,1.1940490072966938
8.609375,0.3036211937259727,0.10736580386512776
8.61328125,-0.8143365489778264,-0.3440511159625303
8.6171875,-1.1211175441258616,1.0806866394274068
8.62109375,0.33689126487454124,-1.0497280014327715
8.625,0.7104616894429343,-0.803053134925376
8.62890625,-1.8588049890826954,-0.2876116186022505
8.6328125,0.17460595381797678,-0.05480703134352528
8.63671875,-1.3542969344080205,-2.245948243453033
8.640625,0.49266823244966046,-1.28119731085039
8.64453125,0.3133505989510515,0.16357530869296205
8.6484375,-1.6386643613824032,0.22433375073837483
8.65234375,-0.20391058117633765,0.9996598114556278
8.65625,0.8986909401954509,0.34395847728084955
8.66015625,-0.5254458429877235,-0.825140599898009
8.6640625,-1.2865832289821182,-0.9821009579945252
8.66796875,-0.6715397974397311,-0.4716955562811832
8.671875,0.06172879646956219,0.22939416360451415
8.67578125,0.14878970807833589,-0.03341140226107973
8.6796875,-2.4375824372827264,1.449493981166028
8.68359375,-0.7074600455584772,1.5931627979344043
8.6875,1.173554788890729,0.6231421058432751
8.69140625,-1.1314826937507838,0.6034346024021301
8.6953125,1.0097551942996048,0.7098867293029355
8.69921875,0.7526979349995234,1.331477721698307
8.703125,-0.4203720247540256,0.39035398673168586
8.70703125,0.3039015630721724,-0.9407729427180216
8.7109375,-0.11417585331745143,1.1149072325229439
8.71484375,0.5546363325185947,-0.4365798819672653
8.71875,1.0531594702810823,1.2786668142463153
8.72265625,-0.9352884672048386,0.41146945631420373
8.7265625,-2.172489045370162,-0.17057785516298868
8.73046875,-0.9748584213733136,-0.6792804121924099
8.734375,-0.23560146541103538,1.0427810945959133
8.73828125,0.9133369869447565,0.20750467847048287
8.7421875,-1.1886847433743857,0.6329096944193371
8.74609375,0.2722578608816416,1.3701231405320142
8.75,-0.2942526243829558,-0.46467534952497336
8.75390625,0.6522725503348105,-0.919411436424599
8.7578125,-1.3091886339884669,-0.3408922782876207
8.76171875,0.6338698343659855,-0.7246105791978105
8.765625,1.7451262084671089,1.1804116352382619
8.76953125,-1.5358276997459381,-0.24494994275063672
8.7734375,-0.3654102767505149,-1.150698039172179
8.77734375,-0.5367115631853068,0.2551581989779565
8.78125,-0.056072402633533344,-0.12013642139070213
8.78515625,0.005746989020142912,1.3301457135542627
8.7890625,-0.7586536262558865,-1.985175247806576
8.79296875,1.6803363525494641,-0.6381132906285645
8.796875,-0.7801824448342033,0.8270737436724024
8.80078125,-0.2343830173501912,-0.6548236303102045
8.8046875,1.840917337892063,-0.9967970651752197
8.80859375,0.8503776562853944,0.15643960011735375
8.8125,-0.932233439311459,-0.21774573494975655
8.81640625,-0.8612691909544548,-1.971221653202094
8.8203125,-0.11128364210631209,0.6785406440216681
8.82421875,1.125931201044272,0.9641338395135605
8.828125,0.3456656641313116,0.7510544664929928
8.83203125,1.1986011076627328,-1.4570081300978739
8.8359375,1.7457381510393502,-0.19867826879013065
8.83984375,-0.5151077341311598,-2.0605986662470883
8.84375,-1.5101109730065059,2.2417515310542746
8.84765625,1.0396782535720308,1.876213961335955
8.8515625,0.21080041436595626,1.7599421791566274
8.85546875,-0.06755155155299439,1.1715839365422347
8.859375,1.2928500558060398,0.8991674567621877
8.86328125,-0.5196347393369911,-0.009217997318945313
8.8671875,0.18310641703634384,-0.3891364772602888
8.87109375,-1.2027013628147292,0.22572252564188353
8.875,-1.9337796626717465,-0.744668585442042
8.87890625,0.4902082161444477,-0.4195626528395122
8.8828125,0.8202297551780517,0.7957091565637018
8.88671875,0.8296170500797315,-0.36642535828841355
8.890625,-0.1332704617385596,-0.5510614400613264
8.89453125,-0.14857158646749666,-1.2879655994609487
8.8984375,-0.5505754432065487,0.75322185125182
8.90234375,-0.730102624263745,-0.42215909905732146
8.90625,-1.1391455134375945,0.05308220958347024
8.91015625,0.1239903303824725,-1.5775488233757347
8.9140625,0.42970138209742786,0.7544056958204503
8.91796875,0.22335429872573387,0.7438237811483324
8.921875,-1.0598819382309965,-1.0337619833762646
8.92578125,-1.215600727328507,-1.425766230201005
8.9296875,-1.4968039638792183,2.0312569886756653
8.93359375,-0.6177242252991939,1.1449155246673144
8.9375,1.204560527863736,-0.9317724094116459
8.94140625,-0.4525427067850376,0.25377966873997015
8.9453125,-1.2870530795521753,1.524165210683659
8.94921875,0.8320760982918768,0.2768873294007955
8.953125,0.2646676159844223,0.4004210544029434
8.95703125,0.231095265159158,-1.2036692661216037
8.9609375,0.18405846296898562,1.2224593633461964
8.96484375,0.16531130750674886,0.26305928116902877
8.96875,-0.5138310795860375,-0.714608993840439
8.97265625,-0.5511103679971444,0.6763363403185069
8.9765625,1.7106345709437272,0.15050452393041136
8.98046875,0.7368774410032876,0.3320492954408821
8.984375,0.6623624452885488,-0.5712754090145542
8.98828125,0.5422036577150467,-0.004930179149361927
8.9921875,-2.0979097082922684,-0.1040024439327935
8.99609375,-0.2286817152670255,1.1119651378415065
9.0,-0.1659431400001335,-1.4779111853127864
9.00390625,-1.0063409573950706,-1.1741995653623376
9.0078125,1.2128407116671336,-1.1501572400248994
9.01171875,0.4315487022601303,-0.7130226971844026
9.015625,-0.649206661692347,0.8164635270672562
9.01953125,-0.17108729182237528,0.984937217727159
9.0234375,1.73968380763424,0.11701239888013198
9.02734375,-1.8465006579614474,-0.9978286680583716
9.03125,-0.3717635401076775,0.2114106660049104
9.03515625,-1.366832039374313,-0.9071975483720384
9.0390625,-0.6524079804868187,-1.186782796859583
9.04296875,0.6632184567531022,-1.5375235440334674
9.046875,0.508950560273125,-1.6287493561601654
9.05078125,1.1511866369330477,0.5833744280335236
9.0546875,-0.36609518425405124,0.6788034700438649
9.05859375,-0.7238561970086623,0.011619159926893784
9.0625,-1.3492768058595093,0.8172861436546919
9.06640625,1.0468335500086265,-0.5205822281481483
9.0703125,1.498484899325809,0.2097701282824632
9.07421875,-0.6965488024504427,0.7886805878596834
9.078125,-0.9432486230197075,-1.4429442229520522
9.08203125,0.9499920334232584,1.217998493163502
9.0859375,0.2619218427347034,-1.3156122331577222
9.08984375,0.5895715182156205,0.9053885554647019
9.09375,0.9315988314636953,-1.303337182031545
9.09765625,1.930043771085916,1.2176311749475397
9.1015625,0.4367570237722078,1.94467511080361
9.10546875,0.14348311816680565,0.9170673962658079
9.109375,0.3058336662379605,-1.6864783332784914
9.11328125,-0.49265514273655897,-0.4671747013176107
9.1171875,0.06125653052730727,0.20460417650209348
9.12109375,-0.07713915538087608,0.36561366580871907
9.125,-0.741763496812517,-0.7284687509653157
9.12890625,0.08171462623150219,-1.58731406366334
9.1328125,-0.060768309492009384,-0.5829395416972637
9.13671875,1.6769381810264476,1.8018473888423907
9.140625,-0.8762483202968614,0.48340746597709666
9.14453125,0.47500624564472976,-0.2110757232416495
9.1484375,-1.0667482579477163,-0.7365465924534352
9.15234375,-0.0074715530248123845,-0.764393648893256
9.15625,1.5684290717718468,0.5224877857110304
9.16015625,-0.3534458995102001,-0.6026518401968043
9.1640625,-0.395451543147255,0.35383657136349983
9.16796875,-0.19264086174064243,0.5564579797528033
9.171875,-0.9092092244391146,-0.8235909693322063
9.17578125,-0.41815149927367945,0.38212595472806293
9.1796875,-1.0880283722349666,1.022509859404237
9.18359375,0.5708190543692019,0.27105153898423257
9.1875,-0.1737531603277539,-1.21844788966536
9.19140625,0.8649347264835953,0.17514592911310892
9.1953125,-0.8554062686001607,-2.1492955709145263
9.19921875,2.3383971973813686,1.1500295377355465
9.203125,-0.7335703897699093,0.41897715297040694
9.20703125,-0.45264525457676397,-1.6260620150609493
9.2109375,0.15043435721651405,-1.2265439489736927
9.21484375,0.08372255185718233,0.36059211286051657
9.21875,0.315197020720568,0.45077696429506664
9.22265625,-1.1784989909064965,-0.5603164921444412
9.2265625,0.28460979849860163,-1.1280438123900978
9.23046875,1.1767255896870734,-0.7652248776246554
9.234375,-0.1715430770053789,-1.475955703411853
9.23828125,2.173250617997226,1.0923310438475418
9.2421875,0.15394091372288515,0.1195080558138398
9.24609375,-0.12757566286897107,-1.3645794938412255
9.25,-0.3414549037533581,-0.17108094116473377
9.25390625,1.5857680840349315,-1.5167383894508686
9.2578125,1.8942136653544335,-0.2498960227344712
9.26171875,0.49594309449852275,-0.8308536828813932
9.265625,1.4891931094769,0.4428885803928912
9.26953125,0.9684995368826687,0.38468039065463155
9.2734375,0.6494005229255495,-1.39860843280289
9.27734375,-1.0973999762190685,-1.2860640171495847
9.28125,0.3243978202656704,-0.9867586053185164
9.28515625,-2.675141739511661,-0.62611114652884
9.2890625,-0.029871746327595077,-0.3724798650234687
9.29296875,-0.06248849690277686,0.04051053941821976
9.296875,0.4556114449496988,1.591562083090403
9.30078125,0.5987702833983937,0.04080233298363988
9.3046875,-0.008441628388836034,0.9224950894934238
9.30859375,-0.39378695594554447,-1.1092196886986248
9.3125,1.232853888683803,1.8830171414015955
9.31640625,-1.087360355463197,-0.231956528185056
9.3203125,-0.35746581106183495,0.6434621155617201
9.32421875,2.121421387013009,-0.4702653497397445
9.328125,-1.5319366676422512,-1.2110608578536473
9.33203125,3.318464285295913,-0.6548656040668361
9.3359375,-0.5638838038061906,-0.11453508177183869
9.33984375,-0.09705270180625153,0.21552851031816506
9.34375,0.054849408943418373,1.4939505163719144
9.34765625,-0.6457913651533136,0.9251407178047513
9.3515625,0.27847953353386407,-0.5143861630712984
9.35546875,-0.22589607246660517,0.43824325201419884
9.359375,0.48772010900725515,0.6687069529934837
9.36328125,-0.6731208701873178,-1.2442680363948824
9.3671875,-0.4371560380738944,0.07599099633567638
9.37109375,0.3049545956499278,0.9822413480936468
9.375,0.863564129606733,0.31826461508318815
9.37890625,0.17071761469883034,0.47559728110531274
9.3828125,0.17175455425521893,-0.3281345557422088
9.38671875,1.2843516073409436,0.9761424004439501
9.390625,-1.1779183663303157,-0.6635844398379885
9.39453125,-1.711959962157929,-0.9668794665061162
9.3984375,-1.273446232682578,0.0833828327282842
9.40234375,-1.01746348029942,-0.40186285131707267
9.40625,-2.2797437557170332,-1.2203400658817969
9.41015625,-0.10768061638948158,1.3106103556357322
9.4140625,0.6527060177975332,-0.7724323733762467
9.41796875,1.643185270003942,-0.27717677944604635
9.421875,1.3434171539965927,0.1366780985654706
9.42578125,0.7020764384073507,-0.22741157608524298
9.4296875,-0.9367695187478241,-0.6213384334944265
9.43359375,-0.8357440026744594,-0.3491810895497142
9.4375,1.791704158910948,0.5815040065040119
9.44140625,0.1136574172979643,-0.4121799449804901
9.4453125,0.02072032599232814,1.8997633174517028
9.44921875,-1.2082938393804554,-0.4419390892485072
9.453125,-0.5989932600889416,-2.084032580339079
9.45703125,-0.17748009064390333,-0.4319052255382912
9.4609375,1.782623737782285,-0.17319412756721286
9.46484375,0.5962027210921409,-0.48773299418458027
9.46875,1.3512493945683877,0.0437028530264172
9.47265625,-0.29810252062029063,0.9111664318318548
9.4765625,0.3378214187891371,-0.7124836097876621
9.48046875,1.4118069458899551,-1.0017402300233467
9.484375,0.09735548481432618,0.1658613603150906
9.48828125,0.23799955521545996,-0.6234712101241401
9.4921875,0.4487069782894678,0.8372096842501098
9.49609375,2.7567481417556503,0.21473695905066278
9.5,-0.3650222222797685,-1.2706929995682532
9.50390625,-0.22717197562222097,-2.0264281439783987
9.5078125,0.2683853148580334,1.29753327346078
9.51171875,0.028354895274566683,0.6753212055387442
9.515625,-0.628850636644286,-0.31520851286658014
