time,ecg,ppg
0.0,-1.4025852750934846,-0.5192635124855779
0.00390625,-0.3663501527467559,-0.2029168133920661
0.0078125,0.9213087858612317,-1.8719144959107434
0.01171875,0.7769793841694921,-0.40533842338290776
0.015625,-2.546898349697702,1.44815879418321
0.01953125,-0.3442726466457179,0.7966687493880089
0.0234375,-0.04367418229112094,0.9749531963084791
0.02734375,0.4726311563519724,1.211409967065915
0.03125,-0.268657595300284,1.6837942278070002
0.03515625,-0.3087901372938141,1.6991965493528616
0.0390625,1.53242186382988,-0.4351338837886863
0.04296875,0.25202664684895293,-0.8810849175854625
0.046875,-0.7176921981284125,1.1753034734034749
0.05078125,0.09754551687896496,-0.350774856099425
0.0546875,1.2593782060711416,-0.31156418339984665
0.05859375,-0.9597550440658285,1.231039178516629
0.0625,0.7248036707305763,-0.21251604518343217
0.06640625,1.5541323709391714,-2.0904643864007086
0.0703125,-1.017469678903143,-0.43020528111336387
0.07421875,-0.2522028072122747,-1.0662924918865966
0.078125,0.3511793588950707,-0.7118741740691061
0.08203125,-0.2290114006577555,-0.6030016306766643
0.0859375,-0.4354101240390604,1.6565177656375074
0.08984375,0.35088431189699343,-0.7955377609368304
0.09375,-0.06750493142304874,-1.30854570416124
0.09765625,-1.2299816219648882,-0.7193589011054183
0.1015625,-0.2588532000723347,1.5899522148045522
0.10546875,-1.4162882555557177,0.20837954351438795
0.109375,0.8571108425700323,0.7131303412444873
0.11328125,0.2525071291906217,0.31254490570597393
0.1171875,-0.8114113688397503,0.48428195514816713
0.12109375,0.12653406676306733,0.08214891453706907
0.125,0.3444568461083258,-0.33645083414024507
0.12890625,-0.10513665533469728,-0.3925509622301046
0.1328125,1.1187425464783356,1.468551160291645
0.13671875,-0.16393296943037716,-0.026934698725550273
0.140625,0.29740939945505307,0.6986714892696947
0.14453125,-1.1266721256484251,-0.10613266616844964
0.1484375,0.2868890608233764,0.36285160634516994
0.15234375,1.4024882860351133,0.8608679409290233
0.15625,-1.2337035545341737,-1.5194043319705226
0.16015625,-0.9862308531317835,0.7946527519531601
0.1640625,-2.7563636793596116,1.4733333342750428
0.16796875,-1.9018931605471505,0.9595047003514511
0.171875,-1.569038554532233,-0.7675843984332974
0.17578125,1.2352389517743587,0.21833934395927843
0.1796875,0.6391742802780787,1.2432681005786748
0.18359375,0.0037755496852368833,0.5947143608640448
0.1875,-1.3356822020922563,0.3773887810730286
0.19140625,1.194460126624412,-0.14687948315823235
0.1953125,0.8852677577704587,0.2203007692854637
0.19921875,0.5246110806309985,0.4631100538190464
0.203125,1.8656401430945104,-0.6958964550544855
0.20703125,0.7336775785088782,2.020973274710291
0.2109375,1.6991916010362316,0.38765356107374455
0.21484375,-0.10779894398519664,-1.2652245979592853
0.21875,-0.05806672982897693,-0.04484306619874025
0.22265625,0.6629683763218988,0.6661350154111317
0.2265625,0.006265512842443333,1.2980926821483114
0.23046875,0.6913186777538786,0.3574546882774148
0.234375,-1.2676116492393588,0.5812918020350266
0.23828125,-0.030783097163564196,0.5649539867847918
0.2421875,-0.018905836962013374,1.321111272244829
0.24609375,-0.27101345411060607,0.49728058197660235
0.25,-0.2336161215182972,-0.2983220750160379
0.25390625,-0.22712354360379228,-2.039129940138185
0.2578125,-0.9618267567531367,-0.36612720562939255
0.26171875,-0.5308493671234191,-0.6306678835619884
0.265625,-0.1881233317649524,0.5451128789822441
0.26953125,-1.3712417695225314,-0.1297069516470042
0.2734375,0.7923179214090278,0.8493203634896438
0.27734375,-0.3808673171583277,0.7910196063238301
0.28125,-0.5423088246981476,-0.8120084744424874
0.28515625,0.24189308345730628,0.017296367603698227
0.2890625,-0.8745859619170215,1.158650826112452
0.29296875,0.6822892049707544,1.3144686038689455
0.296875,-1.1958133070645969,0.21445917597500466
0.30078125,0.9775659690689923,-2.7234136059100917
0.3046875,-1.183323157106342,-0.8724896501769066
0.30859375,-0.15986059852935972,1.4140248678160905
0.3125,1.2766281254009983,-0.06870208590709051
0.31640625,0.42746897800479033,0.6753106498457592
0.3203125,-0.4701703048512174,0.19542482364929337
0.32421875,1.4119105829740428,1.8840289750894041
0.328125,-0.6404133175022336,0.709205775971732
0.33203125,1.2054317482301702,-0.9952583127995713
0.3359375,0.9673015190581893,0.3123067140541734
0.33984375,-0.5821397364504283,-1.115131534454845
0.34375,1.7343600320310668,-2.0434261481231855
0.34765625,0.24251185215025467,-2.9677598611470204
0.3515625,0.06214027183681125,0.04888268204840124
0.35546875,1.451671167599943,-0.8582389257521925
0.359375,0.9237816456069938,0.5649455405543663
0.36328125,1.1052380530611576,-0.3763967308909383
0.3671875,-0.25880388627090156,-1.9045774870175234
0.37109375,0.8369414342052816,-0.05316056188090467
0.375,0.29350336648497494,-0.4957224497185733
0.37890625,0.6541689715140473,0.5990018866277191
0.3828125,-1.083630558020134,-0.632742772410446
0.38671875,-0.5602437987811673,0.28379023174301043
0.390625,0.021313013276244606,0.9631804340332529
0.39453125,-1.8584453460573436,0.2425126821145902
0.3984375,-1.2333697485886983,-1.083684779823112
0.40234375,0.04347304117477203,0.45939895459415425
0.40625,-0.2605826946452002,0.8725141571057073
0.41015625,1.0218650029446277,1.1360027680567086
0.4140625,1.1525030759732346,-0.02176714510845962
0.41796875,1.4338889809581916,-0.24323005971682884
0.421875,-0.5152770907859402,-1.9571475504601694
0.42578125,-1.0358081392628342,-0.5756180246561734
0.4296875,-0.9913902951378221,-0.3104004095498244
0.43359375,0.22423432599334717,1.596487102363784
0.4375,-0.15152570687522182,1.7263057674435844
0.44140625,-0.5260050238948615,1.1135620417812855
0.4453125,-0.01977963004147955,0.6976506260540276
0.44921875,0.3266907557499221,-0.5719209022047023
0.453125,-0.8461151339185314,-1.4278371338858098
0.45703125,-0.48493688354030795,2.181983770712107
0.4609375,-1.6133866639486938,0.03899221077392625
0.46484375,1.3629316825653184,0.09673225756356525
0.46875,-0.10893882208551135,-1.0415978318405668
0.47265625,0.24027510190972576,0.13759010383893383
0.4765625,-2.075915713408559,-0.4398754074116974
0.48046875,-0.877652021170782,-0.7632098797484074
0.484375,-0.9970724546705064,1.545530903115537
0.48828125,-1.0096830447218164,0.2285277091303579
0.4921875,-0.3986660924251414,0.6578855708093906
0.49609375,-0.908374558109742,0.4627166213128594
0.5,1.7432876332202007,0.5813455023690405
0.50390625,-0.541520555852028,0.2408967042548621
0.5078125,-0.798544796076577,0.6098349975200232
0.51171875,1.147955632724121,1.0186822144034582
0.515625,0.6639523231294997,-0.0008520090189143104
0.51953125,1.469410986420077,-1.9154315975503382
0.5234375,-0.6832786454476818,-0.9753476100932338
0.52734375,-0.15182167854137804,-0.17399742926809197
0.53125,0.8979061685141466,-1.0912852028255662
0.53515625,-0.19053060636245092,0.23334933767553764
0.5390625,0.7027220861055008,-1.6605273338895534
0.54296875,-0.8249052308461933,-0.9603349803710535
0.546875,-1.2805818516596723,0.5239262951321704
0.55078125,-0.5889388428554139,-0.253824853250306
0.5546875,1.198761463769417,-1.6330187371180787
0.55859375,2.184966068674854,-0.3870064218606846
0.5625,-0.45662392724039347,0.34700891742887374
0.56640625,-0.35098710549354434,-0.6468138415448619
0.5703125,-0.6215373420326278,0.2546213982792884
0.57421875,-0.28411054629483923,-0.8139892802365851
0.578125,-0.2008451082244879,0.42497698227259406
0.58203125,0.3640423609246934,-2.43414555691925
0.5859375,0.05476395070969911,0.36784356451653194
0.58984375,0.1548206945841333,-1.0912355726487806
0.59375,-0.7755744468405399,-0.04536633299194579
0.59765625,0.6818409434955338,-0.10239417366205036
0.6015625,1.087708788699387,-0.5729989864968031
0.60546875,-0.8943909261272838,-0.5018854508992306
0.609375,0.6178327037039607,0.27338319442820885
0.61328125,0.7001993158621348,-1.4512750540993673
0.6171875,2.3327906735410564,0.35927637115821404
0.62109375,1.298702650407237,0.6234266654334037
0.625,0.04088418345718473,0.39509906909471504
0.62890625,0.1738088814003193,-2.6345017737370866
0.6328125,0.9399652427355683,0.8860829097211035
0.63671875,0.34664846235068647,0.3876302762529255
0.640625,1.9304664375872613,-0.46369659081428943
0.64453125,-0.8636934775035436,-0.4491398352547729
0.6484375,1.8993968784075232,-0.5865297799645821
0.65234375,1.5434912096345188,1.9455597129629474
0.65625,-0.973628809712323,-2.1285984434416796
0.66015625,1.5214287502214014,-0.43306844435070113
0.6640625,-0.5049523662632948,-1.427627195540687
0.66796875,-0.8538167561865565,0.38976616315063256
0.671875,-1.6027135560217862,-0.10196985329467938
0.67578125,-0.4688331400879166,1.0744561217734367
0.6796875,-0.3907830844637681,1.1797699901959904
0.68359375,0.5916801565567605,0.6730789355873611
0.6875,-1.1234039604893173,0.38769960252027136
0.69140625,-0.689449911248638,-1.3456216414760462
0.6953125,0.7118493879552005,-1.0136922455755097
0.69921875,1.4003950938196763,0.675415143018672
0.703125,-0.31710829989657385,0.5961437540514296
0.70703125,0.2367628118194587,0.8871163754936829
0.7109375,-1.6546919684566408,-0.3891765288940404
0.71484375,-2.383138804071575,-0.2041459940837941
0.71875,0.5887026318018873,1.5329945002231649
0.72265625,-0.6039349358050772,-0.7951246691342561
0.7265625,1.1013501646466346,-1.7759822003394292
0.73046875,0.7440012614296716,-0.2909632695678007
0.734375,0.19782828330602623,-1.7840965821917814
0.73828125,0.4834394430974116,-1.327965781511985
0.7421875,0.6429773869164245,-1.0540587754943176
0.74609375,-0.4825911032737658,-0.4749146650331069
0.75,0.12483371510468276,2.1418851996249435
0.75390625,0.7427063801721323,-1.2175432019978703
0.7578125,0.5453026226364477,-0.17352872525097607
0.76171875,0.009336700821886939,-1.880657916738473
0.765625,0.7454283138165101,1.2715629151286332
0.76953125,0.7464034807402314,0.34940758813923767
0.7734375,-0.6817256139074777,0.6904529380685577
0.77734375,-0.5768469195262907,-0.06897243177584478
0.78125,-0.073965557939772,1.1610189611071193
0.78515625,1.2849065198308194,-0.16069419086930659
0.7890625,0.08789777864061205,-0.793941964739989
0.79296875,-0.03129015835616096,0.2963935143738396
0.796875,1.8705254405434544,-1.836901733648945
0.80078125,0.885913068085002,1.045537487686219
0.8046875,0.14908996048854833,1.465521410606729
0.80859375,-0.08338448241872262,-1.9071489681159441
0.8125,-1.050096668355786,-1.2571710834512702
0.81640625,-0.9925268147937972,0.33077283021147363
0.8203125,-1.938837900729267,0.8565343091459662
0.82421875,-1.2902710570697784,-0.8045355695529247
0.828125,-0.7720861385454268,-1.323649796475106
0.83203125,2.421502915623012,-0.5144521717569819
0.8359375,-0.4997065557751666,0.1388080846856699
0.83984375,0.4028025746420303,1.1124850150922596
0.84375,1.5543630407458837,-0.5705161037662289
0.84765625,0.16271274984761921,-0.4145211725691469
0.8515625,0.4545723272636424,0.12851023324679006
0.85546875,-0.9856656371154563,-0.9303630370991796
0.859375,-1.816783841106176,-1.5855466650608334
0.86328125,0.7126147895909037,0.4682097491170556
0.8671875,0.1824739843730243,1.5733175681088318
0.87109375,-0.6056545084062275,0.8871224627603295
0.875,1.7301728765166047,0.28952273695154984
0.87890625,0.43385266833701847,0.5909144694861438
0.8828125,1.1096949724974772,-1.4807244246815712
0.88671875,-0.0535068993269416,0.5574437468781809
0.890625,0.46613493016564145,1.7448314457333982
0.89453125,-0.29666974555498643,1.7143161817885737
0.8984375,1.6542649279945738,0.32491381010165576
0.90234375,-1.2710574862544,0.7575881151510874
0.90625,1.9763248177939563,-0.6035734910466809
0.91015625,1.6420193583968807,0.8532442236958492
0.9140625,-1.5396387184835116,0.09166198010293877
0.91796875,0.19736668964556223,0.2055598103241252
0.921875,-0.18039966768068103,0.8098912981385176
0.92578125,-0.02196719673222971,1.2760241153644103
0.9296875,0.7354850585794039,1.1650796304056623
0.93359375,1.6031882285338268,-1.4671790261541475
0.9375,-0.3622053879542372,1.1526852790811117
0.94140625,0.2671449962439899,0.9367524941749247
0.9453125,0.5664490070968897,-1.0844837095517388
0.94921875,-0.5002087455871604,-1.4857391386214795
0.953125,0.027498390242937903,0.31839192065620714
0.95703125,-0.9703078146212007,-1.6694415915162546
0.9609375,-0.24889289040074272,0.6991526094513614
0.96484375,-1.552390855721236,1.4529948424976338
0.96875,-0.4723681326640122,1.1268404836472135
0.97265625,-0.719581328454352,-0.08027057229041128
0.9765625,-1.162680853212162,-0.4142278954543547
0.98046875,-0.4048184339414446,0.12234356604481826
0.984375,1.0529729675801682,1.8799433113516941
0.98828125,-1.3557936116181664,-0.2050125366201611
0.9921875,-0.20342434523003836,0.012686573840748857
0.99609375,2.4270618676006513e-05,0.38094907445636056
1.0,1.070705492137264,-0.44229156744145987
1.00390625,1.1623580666575066,-0.294264428215234
1.0078125,-0.7290351780520684,0.5450083908666211
1.01171875,0.6188971492397739,-2.3108657203319396
1.015625,-0.1331676392044083,2.0833389372933047
1.01953125,-1.2146900635918236,0.8567724246954322
1.0234375,-0.8268914418784206,1.6810784415940954
1.02734375,-0.586669916082063,-1.5162808185505376
1.03125,-0.551773672893628,-2.682209915103537
1.03515625,0.021587601789182585,1.173939030177555
1.0390625,0.07618527534809351,-1.1863187235892194
1.04296875,-2.169058035893772,0.5320901228109579
1.046875,-0.8873695107485015,1.3616319324935595
1.05078125,-0.4257241456055989,0.4804061815224606
1.0546875,0.7268457831492335,1.069767497612691
1.05859375,0.5775227851491164,0.4902516164992222
1.0625,0.4524970809381928,-1.3617520301353014
1.06640625,0.9827793887526263,0.532535828649255
1.0703125,1.3396125836505202,-0.05321677940701711
1.07421875,0.4546581384319025,-1.4337734194910992
1.078125,1.6476668442347955,0.5698514477146824
1.08203125,-0.35661448412003915,0.43583463101009395
1.0859375,-0.6779917936843377,-0.3761622977004153
1.08984375,-0.5719546515957218,1.0446458883405891
1.09375,1.8013264625556331,-0.8241110995090742
1.09765625,0.0024287497600627996,0.4175509380908149
1.1015625,0.9002437129903405,-0.08864053985098408
1.10546875,0.1103064871630056,-0.39206711368618397
1.109375,-2.3127634038734017,-0.5051936687663796
1.11328125,-0.6495995004905908,0.284558706887093
1.1171875,0.025777863638200837,1.1554181347958115
1.12109375,0.09152072092088392,1.201250027030864
1.125,0.3914463452715731,1.0370840596916626
1.12890625,-0.6842670388751144,0.4081357459268121
1.1328125,2.0100647262542575,1.5125239075014443
1.13671875,0.022952147753024336,1.0172320770811858
1.140625,-0.6553927556565387,0.5134780187648579
1.14453125,0.18774789710703285,0.22578369403027565
1.1484375,-1.034555574500091,1.2905647873485162
1.15234375,-2.7750984498100544,-0.7159059468645955
1.15625,0.44624068907676995,-0.1218141144229877
1.16015625,0.7324058256611355,-0.7947838451228619
1.1640625,1.2239394216751533,0.16738665525726085
1.16796875,-0.5782158699558447,1.068802289910024
1.171875,0.7805426838446606,-1.2744662984188018
1.17578125,0.7624504723175954,-0.01252161210398303
1.1796875,-1.0865471675234357,0.473413522391219
1.18359375,0.012516033833592895,0.8359210704161317
1.1875,-1.0506800302160704,0.5777081399444833
1.19140625,0.3111704488707675,-1.6330641057144168
1.1953125,0.02050870765869999,-0.47080035417210137
1.19921875,-1.1256096681974952,0.7071488568861748
1.203125,1.8195378533478852,-0.8426777803427163
1.20703125,-0.9003405390019198,0.4478852584074858
1.2109375,-0.01286696108049126,-0.1555820816677284
1.21484375,-1.9177124098388263,0.7538873884463759
1.21875,-0.6851165708628405,0.08285926867984886
1.22265625,-0.31434521205396126,1.9648520738549962
1.2265625,0.5974116192918485,-1.0024585485571595
1.23046875,-1.104881141587707,-0.03203377153462701
1.234375,-1.125197645674785,1.1924300699888417
1.23828125,1.260342624906744,0.47304196665191056
1.2421875,-1.4253744093625227,-1.970079769702379
1.24609375,-1.4407045151144349,0.30831917747586995
1.25,-1.621954273300792,0.33581625618071725
1.25390625,1.6566291153540547,-0.027427447851126486
1.2578125,-0.48094056100519356,0.6812241543092831
1.26171875,-0.11484917459405475,-2.369412284263749
1.265625,-0.14750552772020564,-0.8560995655365967
1.26953125,0.5848126026310124,-0.831737267275152
1.2734375,-1.6950679062218919,1.2271271053077746
1.27734375,-0.4028429041063575,-0.09141450387958104
1.28125,1.1730948332280147,-0.8087423415063966
1.28515625,-1.5107406541773674,-0.3220092293504533
1.2890625,-0.6882188354640485,-0.04896795102352635
1.29296875,-0.12483868050148914,0.40448877640943204
1.296875,0.9880216035865512,0.7671938309714419
1.30078125,0.48162658131071673,0.1546205963296504
1.3046875,-1.9077123503955822,-2.0696522049272263
1.30859375,0.7321054774821744,-1.5437350618067855
1.3125,0.4253199890482782,-0.3038652051290148
1.31640625,-0.596361498115461,-0.3486785258172137
1.3203125,0.08820724038327551,2.0883246071817814
1.32421875,2.377871782650146,0.8503761142316884
1.328125,-0.24207875449562744,-0.8651401463464511
1.33203125,-0.2798256090347384,0.9345244530347416
1.3359375,1.4224465972959583,1.3331662353985194
1.33984375,0.8706812124739362,0.8867690633148205
1.34375,-0.8887180838657316,-1.4239237685942838
1.34765625,-0.16442900539477803,-0.869516029583212
1.3515625,0.11116703244631562,-1.723607551608994
1.35546875,-2.2483950006039177,-0.7058509410757705
1.359375,1.1974590272699792,-0.07027102843167128
1.36328125,0.6157937093356364,0.43997235655035877
1.3671875,1.1819350930341856,1.1859480017577397
1.37109375,-1.442989443757493,0.2480811508289618
1.375,0.8843262364641324,2.365291466958396
1.37890625,1.5220449180605065,-0.6007415307745193
1.3828125,-2.438460466420767,0.9986704559483032
1.38671875,0.8059297119429999,-1.1097045958783562
1.390625,-0.34721676213708447,0.44381353878354024
1.39453125,1.1837695881342647,-1.6363565032331027
1.3984375,0.44449013205237314,-0.33128632186323137
1.40234375,-1.9072533839600023,-0.231369942516212
1.40625,0.2238248007651831,0.4499982278785891
1.41015625,0.2739345601636308,0.07664786486562618
1.4140625,0.7712283408245494,-0.5293185284030351
1.41796875,0.04653888108412896,0.9953694331670764
1.421875,-0.9162155544739078,-0.7998590699820309
1.42578125,1.5427309744120956,-0.31273410594306805
1.4296875,-1.5513572373329134,1.0229822565811189
1.43359375,-0.854324747101128,-0.618266285799179
1.4375,1.915950167540738,-0.5052432694287916
1.44140625,-2.2877265073582453,-1.5885489890840438
1.4453125,-0.23387729304251062,-0.3910132167642204
1.44921875,0.8309296480694887,-1.5871415252327186
1.453125,-1.4491108848704919,-0.24200230321667646
1.45703125,0.7684917299686969,-0.6028616345464896
1.4609375,0.2873016702310495,0.19573362082397977
1.46484375,-0.0266556507354368,-0.35717390897937423
1.46875,1.8879968238706535,-0.6453786097113619
1.47265625,1.7693606726786975,-1.0664363323602741
1.4765625,0.7905033677119375,0.22650768035226282
1.48046875,-1.0258066853417764,-1.90566852353483
1.484375,0.5217259404177774,-0.26568729827613563
1.48828125,0.06455618503178924,-0.026631687155591274
1.4921875,1.3346792515749013,0.829146796613254
1.49609375,1.071415057340372,-1.109058729686099
1.5,-0.2852022911897077,0.055632484348192034
1.50390625,1.966591467306522,-0.7410536109631618
1.5078125,1.6484108050818724,-1.500713708935051
1.51171875,1.2228753308590246,2.5195151410906824
1.515625,-0.6539866515342557,0.276011928054297
1.51953125,0.05593982975185698,-0.9801944783898523
1.5234375,-0.15436955829678842,1.3854544223276053
1.52734375,-1.3045554560413883,-0.1578496705847035
1.53125,0.27721627404993754,-0.6995346798506816
1.53515625,-0.7250033925991703,-0.2910361922810502
1.5390625,-1.7790757361427947,-2.256414464331961
1.54296875,0.25447531995053907,-0.3905466376388173
1.546875,-4.148858498332184,0.6129078172975058
1.55078125,-0.45690752545642765,0.3779887390232051
1.5546875,-0.31557967672761716,0.20499835777240127
1.55859375,-1.377297099132549,0.037944884056275635
1.5625,0.9461060539747624,0.1274514096157033
1.56640625,1.1130004092257009,-0.19104355614311871
1.5703125,1.5939856075978662,0.8657450485297512
1.57421875,-0.12884792506864556,1.1712190761671972
1.578125,0.6046403993442695,-0.9649681708613833
1.58203125,0.17264520898739744,0.6875190392350047
1.5859375,0.1754664499676272,1.8464597809464083
1.58984375,0.3271343716979724,0.739995057868196
1.59375,0.05903029875715599,-2.098642581490411
1.59765625,0.22630884929293046,-1.7141793932799583
1.6015625,1.5079810668541045,-0.2623571188866503
1.60546875,-0.9431391424733873,-0.08478437356220775
1.609375,-0.07239644678411808,1.327759119271712
1.61328125,-1.090386208019388,-0.5719306688455582
1.6171875,-1.1007079641364232,-0.6028645115418896
1.62109375,0.4007723135389811,0.4733952674515273
1.625,0.6621584616979332,0.13076616209901384
1.62890625,0.8538087794903996,-1.3507726485703544
1.6328125,-0.6681243341565463,-0.9030550724451081
1.63671875,-1.6486395416739925,0.6156777473617318
1.640625,-0.5263209878315478,-0.08295823414769844
1.64453125,1.5492476300935192,0.528465122124178
1.6484375,0.690803011273974,-1.0972266032254303
1.65234375,1.3449072931862085,0.781413398299711
1.65625,0.37453543401417916,0.6394552583469743
1.66015625,-0.2986147048093464,-0.36902978554532256
1.6640625,0.6952413327401754,2.3601839429487588
1.66796875,0.9220363304304363,1.1042940518654862
1.671875,0.34004641826413645,0.6828991217493042
1.67578125,-1.2890809325242782,0.8025134840116347
1.6796875,-1.0239822697794525,-2.232029679587954
1.68359375,0.17431659326500573,-0.3109963422373078
1.6875,0.19641314315591005,0.7609791253556684
1.69140625,-0.049987054779099475,-0.1880636020370457
1.6953125,-0.01518908643890904,-1.3910315879607293
1.69921875,-0.26614169689059103,0.3331623635330676
1.703125,-0.4639164288552033,0.9044817488443183
1.70703125,1.5289726210198624,-0.16164355679738868
1.7109375,0.42601226068517534,0.7863384860762817
1.71484375,0.047080364522665896,0.06478001133307563
1.71875,-0.06239646338394933,1.1444582849536158
1.72265625,-0.42970612491262833,-0.39620644223000523
1.7265625,-0.09010093442129573,-0.3736395916239734
1.73046875,1.6064050171901185,-0.006047243516279922
1.734375,1.8654116971595667,1.5618958445542828
1.73828125,0.3166710162181778,-1.1029159812464544
1.7421875,0.24784783848021313,-0.6106462027056877
1.74609375,-0.7102955127098017,0.08310720109996021
1.75,0.09919024605358397,-1.3844076214765808
1.75390625,-0.37583061119398725,-2.220654931161993
1.7578125,-0.8331856402425457,0.7446572913416157
1.76171875,-0.2880772492449811,-0.006609751947424834
1.765625,-2.406206695399682,0.7175868142068292
1.76953125,-0.18224493230555647,1.0172930285462534
1.7734375,-1.3961779229680291,-1.2139419015887094
1.77734375,0.17005911081521355,1.0421318128752832
1.78125,-0.04820073637096556,-0.6595580686517023
1.78515625,0.4900655138970564,-0.5413261346880239
1.7890625,0.31682221865169,0.15799074737995536
1.79296875,-0.4305434735789171,0.19969891514578625
1.796875,1.862250770800517,0.07053360946198457
1.80078125,-1.8618019130555925,0.17262880853803397
1.8046875,1.4082636560517627,-1.8488949982364806
1.80859375,-0.8873284741463393,0.11187935806471591
1.8125,-1.3710010852887662,-0.20845887602985266
1.81640625,-0.0996927484816776,-2.1144499981094427
1.8203125,-1.2005942352259908,0.5515438753802107
1.82421875,-0.04011174458987913,-0.8045260488206897
1.828125,-1.065428380443483,-0.6395178014910432
1.83203125,1.4127669635909896,0.3807808059469626
1.8359375,-0.3922847385833903,-0.3262328499797371
1.83984375,-0.4867123462271075,-0.30543894311888503
1.84375,0.5295310251848883,0.7501133232456759
1.84765625,-1.8196196788502974,-1.9725182419032827
1.8515625,-1.402330659987922,-0.43479438805727055
1.85546875,0.5813847347109499,-1.8741106306728161
1.859375,1.1081479443064135,0.16768554542922046
1.86328125,1.5426073247238041,-0.5074206050130025
1.8671875,-1.3537242352143646,-0.36128636414659515
1.87109375,-0.4098478163539746,-1.505305189646029
1.875,0.4066907121747344,-2.6593144094362033
1.87890625,2.0740441463922257,1.6944156819565392
1.8828125,-0.15872929954396492,0.4186160651342021
1.88671875,-0.5981874986494544,-0.9073468845329287
1.890625,-0.42296101955053395,0.7127468149578242
1.89453125,0.26419765956192964,1.517266243486522
1.8984375,2.557513304354922,-0.7575648863571491
1.90234375,1.4608529069105982,-1.7647149307574974
1.90625,0.18081681367591493,-2.205927881439014
1.91015625,-0.09759597439560852,-0.7377899577749039
1.9140625,-0.8430036611105132,-0.06707266069451559
1.91796875,-0.6952717206600589,1.0426172504684168
1.921875,-0.9003092329108535,0.07256609744650626
1.92578125,0.6288269793641379,0.6976277768405662
1.9296875,0.9627486107306897,0.7408531320985766
1.93359375,1.273101255955576,-0.17485519914206465
1.9375,-0.3086856486200979,-2.1380683563855483
1.94140625,-1.9981371235328858,-0.6908977784368937
1.9453125,1.6213457501633495,1.5942594253104554
1.94921875,-1.367623021129573,-0.5624438173682785
1.953125,-0.4703691301129364,-0.7572874524768687
1.95703125,0.7655714465021541,-0.4789285552993099
1.9609375,0.2522019978496553,2.0862535746385786
1.96484375,0.9690718669636296,2.7797519187428867
1.96875,0.3534372239421327,0.13808073013322844
1.97265625,0.050746284647825254,0.9719181206239395
1.9765625,1.6994220355271523,1.176737407285221
1.98046875,1.1115936196449216,1.4285768486393964
1.984375,0.660359593625624,-0.21268457661119405
1.98828125,-0.18933010939689024,-0.2846390555074407
1.9921875,1.7532645373988012,0.2642583231996079
1.99609375,-1.7107417087918897,-1.09150301508469
2.0,0.8558758895311845,-0.8559961706816871
2.00390625,2.4502930918513863,-0.3913500094804437
2.0078125,-0.7377254369278418,-0.03733702361630765
2.01171875,-0.6680160092566044,-0.8403149241035978
2.015625,0.39772284934627516,-1.0966550675555178
2.01953125,-1.2827327511467674,-1.2720999732078357
2.0234375,-1.3881693074616348,-0.9556655828045911
2.02734375,1.658926531138958,-0.42339120869337143
2.03125,0.7874751784867003,-0.5813238921885479
2.03515625,0.2690836926452702,1.2287866663273115
2.0390625,-0.19733752731996582,0.22546190330933702
2.04296875,-1.1468072837859113,-0.6051268454702909
2.046875,-0.0781952926318156,0.4185331125476004
2.05078125,-1.5595388834163615,0.4350634287359679
2.0546875,-1.024785385406013,-0.5345414351102687
2.05859375,-1.5339691969794598,0.28118553549843367
2.0625,0.121918125378149,-0.36899314924871224
2.06640625,-0.07410585715179646,0.22180958036464776
2.0703125,0.16137848354693754,1.4339576818376545
2.07421875,-1.1044221203952536,-0.36553478701609093
2.078125,-0.5909878021785988,-0.31740116808325874
2.08203125,0.4927689151210007,-0.6829007849111787
2.0859375,-0.1353263791336894,0.6609994951670362
2.08984375,-2.1047414846967474,0.9402059130011462
2.09375,0.13862569960246404,-0.5662105065074209
2.09765625,-0.16960858137745075,1.307501923904123
2.1015625,-0.045561948605340276,1.116091878609448
2.10546875,0.6693736448824459,2.800543238078506
2.109375,1.0113709288549124,-1.0829295243558157
2.11328125,-0.5348713318008084,2.8471478952199196
2.1171875,-0.48952100995569914,0.6046485950808318
2.12109375,-0.3162826031864915,1.245912041870321
2.125,-0.25782766957626896,0.09407176389038181
2.12890625,0.4561581239675133,-0.2879244526659487
2.1328125,-0.7797555816351385,0.4395941457318898
2.13671875,1.1299016780280209,-1.1498298704393501
2.140625,-0.3382765483881073,1.0846090118496827
2.14453125,0.9947292348173568,-0.2327153991935599
2.1484375,-0.07233987002911735,0.7706300593886556
2.15234375,0.6872694674295126,-0.15033436717077273
2.15625,0.700078095152657,0.7152765412360435
2.16015625,0.2490332723797497,1.146724262657936
2.1640625,-0.5547304083467468,1.1325583100381469
2.16796875,-0.567029046021504,-1.3613554221631483
2.171875,0.7933590429685333,-0.1795863627907789
2.17578125,1.1704718653556831,-1.463421240726653
2.1796875,-0.02483173190816786,0.5842538313522051
2.18359375,1.3588923786809262,0.6217663137349322
2.1875,0.23536974151029208,0.1454576080309083
2.19140625,0.6783617151631474,-0.9213903899684678
2.1953125,1.2022455765245152,-1.171859633231154
2.19921875,1.1133838936148024,0.9541039106269362
2.203125,0.8326403008356719,0.8378424366457704
2.20703125,0.5891701688377425,0.7609409035648599
2.2109375,-2.464954662707268,1.5054866251154022
2.21484375,-0.333237848198385,-1.4906474245035712
2.21875,-1.5157890835130239,0.09523259124221325
2.22265625,1.879340935135512,-0.9681853234131523
2.2265625,0.3115774966309451,1.7152652805189958
2.23046875,0.9845410989760596,-1.1974234250299265
2.234375,0.7747639348954105,0.8977496864875998
2.23828125,0.14354346221590022,0.348080650813868
2.2421875,0.9172453512528992,1.2106036842969743
2.24609375,0.6306059247624803,1.0325543985580208
2.25,-1.42503580742133,-1.7075320530210663
2.25390625,0.10106328146521823,1.4237521788431051
2.2578125,-0.27201933802284384,-0.24908631370736817
2.26171875,-0.3495694635101309,-0.45329442538300163
2.265625,-0.9450346177386724,1.5257652335921865
2.26953125,0.38091825473769236,1.0875050112016615
2.2734375,1.7496920369304245,0.1400639845914528
2.27734375,-0.13986599299701252,-0.7779826496657841
2.28125,0.7818202904171743,0.4194074448906506
2.28515625,0.6604522748082435,-1.177927900329468
2.2890625,-0.34826433028997617,-1.2298710872880343
2.29296875,0.23883997733468865,0.4230725528471733
2.296875,-0.79474421758653,1.384691064236437
2.30078125,-1.1430285527384259,-0.9823188523717016
2.3046875,-0.04650356604907306,-0.3858828362241517
2.30859375,0.6753494627349046,0.9965744132446397
2.3125,0.5898322469563329,0.8923546223147943
2.31640625,0.13555577164723964,0.6471678951901648
2.3203125,0.5245610781153844,0.7864977577870682
2.32421875,-1.062226490585334,1.2624680637800887
2.328125,0.9018227948715087,0.08816907422815161
2.33203125,1.059774677391471,-0.9418309952390679
2.3359375,0.9598946178913171,-0.9670291184126558
2.33984375,-1.0875940967644315,0.07769268050202993
2.34375,-0.05613528173368946,1.8333616248005833
2.34765625,-0.7693221163120683,-1.3893544080048423
2.3515625,0.4522991681463783,1.718907923337421
2.35546875,-2.478275793576526,-0.13934336169522196
2.359375,1.3270872871827217,-0.8852494401866695
2.36328125,0.43749276806860354,1.8185729649524836
2.3671875,-0.8897756102271828,1.0664483776578
2.37109375,-0.060808103797278024,0.24422335067110476
2.375,0.20757223647283124,-0.2877673947592666
2.37890625,0.4270021313771683,-0.5405993137878391
2.3828125,0.3320353662475817,-0.1061950589763403
2.38671875,0.8624717242070695,0.549308216172489
2.390625,0.2396946043123432,0.33684959414431276
2.39453125,-0.31962868788030885,-1.2945090604759368
2.3984375,-0.210673092730201,0.19378718823831023
2.40234375,0.6885028259078523,-0.7269676583802333
2.40625,2.022645226389056,1.6704547337722173
2.41015625,0.7228053770850068,-0.8533834114163128
2.4140625,0.14533257699347044,-0.000313946681453868
2.41796875,0.5511675462985759,1.897393774062805
2.421875,0.1697410654609419,0.772574864075151
2.42578125,0.21107710392151133,-0.6056035806314225
2.4296875,-0.10850337539295284,0.04703766149373881
2.43359375,-0.9218877808559431,0.6570352382773184
2.4375,0.9028159427088183,-0.315507470907484
2.44140625,1.2658559152054263,-1.2158810886779348
2.4453125,-0.4033715047703613,0.6631597569282237
2.44921875,2.848382609788508,-0.14478549990505227
2.453125,0.8028453302272157,0.6593818371402395
2.45703125,-0.7743041174037852,-0.007112462842013209
2.4609375,-0.3422148063097883,0.8943779965663285
2.46484375,-0.7925793081120942,0.36804242892851136
2.46875,-0.7012976303324905,-0.430475895737366
2.47265625,0.6052614089018781,1.4982197029031947
2.4765625,-0.16369962047219883,0.4951511883517388
2.48046875,0.10005702998756838,1.2136663608576133
2.484375,0.9469174671490718,0.162316739473248
2.48828125,-0.0536389625687063,0.8716030097482257
2.4921875,2.181032094718229,-0.5431483350999288
2.49609375,1.8602875098522278,-0.5491129155752184
2.5,0.06632904686678244,-0.5502851184887245
2.50390625,-1.0192460367673588,-0.14127351683682085
2.5078125,-1.6519461076838728,-0.24157049768042732
2.51171875,-0.170054919582085,0.31601266766081276
2.515625,0.31650592176725806,0.40281236651601554
2.51953125,-0.24092823844997588,0.7359923151259837
2.5234375,-0.6940982438032692,-0.0006195885483681586
2.52734375,-1.018891664005554,-0.10095361637743641
2.53125,-0.9409101956264679,0.31466677460836345
2.53515625,0.4755676337203559,-1.013704950705572
2.5390625,0.46972411584737,0.21625576484634262
2.54296875,0.005440808870987601,0.9655689993249827
2.546875,-0.6932591670711774,-0.13034268412409386
2.55078125,0.8730671969054479,-0.5498348507213465
2.5546875,-0.30001470997606045,0.25983137843155274
2.55859375,-0.9146621814248109,0.8469027109491137
2.5625,-1.2371636204288492,0.8410593270762733
2.56640625,-1.3333261978619042,0.771751409422062
2.5703125,0.9729174760865026,-0.2157377020429229
2.57421875,0.049368487618485335,0.14767134626096048
2.578125,0.24189523584403075,0.09671951849881312
2.58203125,1.2729261003168755,1.6283068062486803
2.5859375,-0.7657680785424137,1.4583132585834788
2.58984375,-0.6082221102577423,-1.1330151076569939
2.59375,-0.5007925025650471,-0.1949359627572638
2.59765625,2.2091593873271105,1.5776165712423234
2.6015625,0.2441352560213787,-0.2380928452867718
2.60546875,1.0344336199270154,1.0838978463437865
2.609375,0.8258869842053812,0.5897085378886998
2.61328125,-1.2471526624560794,0.49220727806090575
2.6171875,-0.06161115150240325,-1.4714233883673604
2.62109375,0.8742499783098181,2.3429063313736656
2.625,1.1144357880083464,-1.2332433424911888
2.62890625,-0.3739159463053983,-0.828749019202835
2.6328125,0.08833830132765419,-0.15589828107941295
2.63671875,-0.24989341093727585,0.8121272036995237
2.640625,0.40619827777483364,0.5948546176508134
2.64453125,1.2753464962036387,-0.820156429451136
2.6484375,-1.8077092175398968,-1.531219703969251
2.65234375,-0.29638120925111844,0.038965248903921175
2.65625,0.9159332646149174,0.4760004603870302
2.66015625,1.3277510610400354,0.7069118435372399
2.6640625,0.5634999474150137,-0.15722536733301898
2.66796875,-0.077856328733545,0.39751489353130953
2.671875,-1.3094613179899581,-0.6058302170148938
2.67578125,0.14915925840918848,0.2617654068650143
2.6796875,-0.7226506210136726,-1.9912828656591708
2.68359375,0.19078998432262048,0.10885203014158863
2.6875,-0.2923190402759263,-0.43717124444255107
2.69140625,-0.12167257224483016,0.20447593341500755
2.6953125,2.301173905465899,-0.5448063209225992
2.69921875,0.15622479508220788,0.37066516653804116
2.703125,-1.3217661193827368,0.5663843764565666
2.70703125,1.2140444898171914,-1.5155384108289145
2.7109375,1.475724832402851,-0.5833973603056544
2.71484375,-0.6109960061633412,1.2902776678036485
2.71875,-0.10793615474544695,-0.5163327974694771
2.72265625,-1.2092735821823093,-2.8638324685957386
2.7265625,-0.27112807735738453,1.829975994841832
2.73046875,0.0017556841879281266,0.5675381137020656
2.734375,-0.7351495263823005,0.49104935357226054
2.73828125,-1.2501910130804152,0.10794177079878159
2.7421875,1.4763288857743095,1.1572018049160109
2.74609375,-0.630477557255322,1.465712674038273
2.75,0.5792540270661419,-1.0612094357917685
2.75390625,1.1380197717182918,-0.6630940954185384
2.7578125,0.7097833564385889,-0.6814187549013027
2.76171875,0.20097000093512335,0.17633900891949963
2.765625,-0.06446171199955436,1.0095882297479206
2.76953125,1.8146780478372309,0.3782383947164596
2.7734375,-0.0034505197554177713,-0.14393843480430973
2.77734375,0.5394299333653518,-1.073946299709519
2.78125,1.331279141635632,-1.6377445680542833
2.78515625,-0.4638423593586348,0.668646911566743
2.7890625,0.3852688359782824,1.035192842767924
2.79296875,-1.2223132984742084,-0.5882660105477711
2.796875,-0.7645240485765382,-0.6483910757622519
2.80078125,2.0078355831389323,0.05642044647443275
2.8046875,0.15229876769814843,1.8458108099187447
2.80859375,-0.9235777448793767,1.2182520591042998
2.8125,1.092047979304349,0.85773119390456
2.81640625,0.368200450732254,0.17515317429881422
2.8203125,-0.33257524237004604,-0.11934578041500686
2.82421875,1.5420892230023178,-0.046029302516996974
2.828125,1.485594742954722,-0.9631542728622539
2.83203125,1.4590104811321887,1.0121845170561858
2.8359375,-0.7854591603979896,-0.4348156064097883
2.83984375,-0.8413957300164857,-0.19804082882302967
2.84375,1.4779342698611906,-0.5651097805209269
2.84765625,0.43615729889531246,0.5623205636192157
2.8515625,0.6342604892921632,0.24513343331220372
2.85546875,-0.14065388898609246,-1.0815772408170259
2.859375,0.7868353128059652,-0.8412047488281837
2.86328125,0.10600902406918802,-0.5818521326214228
2.8671875,-0.6071181646006084,0.10027108729817708
2.87109375,-0.483934175077687,-0.6002276840964729
2.875,0.07889708493178005,0.4009452664607464
2.87890625,-0.5516414308867889,-1.5327488372297253
2.8828125,-1.0652666661170338,-0.7281903789267834
2.88671875,-1.5741451854839543,0.7231857667020032
2.890625,1.4112974545244448,0.21861283759915615
2.89453125,0.816057595520887,-0.39624035343054026
2.8984375,1.1416899294229976,-0.17973920541101804
2.90234375,-0.35132087897190856,-1.531585829670532
2.90625,1.5497966611811518,-0.5507328176563008
2.91015625,-1.3950650946167635,0.8878806175494751
2.9140625,0.01667463964185295,1.8924494929182465
2.91796875,0.3379570993993771,2.05211533965183
2.921875,-0.24481470206996916,-0.5489517490338803
2.92578125,-1.4212522066022375,-0.49301294681726937
2.9296875,-0.15772818497502858,-0.7334590428599279
2.93359375,0.9372284875818411,-0.8426520009986473
2.9375,-0.7219364212309527,0.7412859320526528
2.94140625,-0.7309960469422622,1.3249162798093528
2.9453125,0.6872625372430001,0.06672461097225471
2.94921875,-0.02622225500839922,0.32574077983171024
2.953125,-0.7753618210143117,-0.0892551604176048
2.95703125,-1.3272371709182103,1.0147018190567294
2.9609375,1.1891197840738126,-1.6699967728060598
2.96484375,0.9520908630079439,-0.6649438319143471
2.96875,-0.7785112705901176,1.6081202198286846
2.97265625,-1.2896444386885195,-1.946570014608838
2.9765625,-0.6407759626666991,-0.9384123085944057
2.98046875,2.5599297983464906,-1.6457633367592608
2.984375,1.5235612112193002,-0.25455911708834916
2.98828125,-0.13467077185183712,0.5532295627852787
2.9921875,-1.7864402975789808,-0.40915893342320536
2.99609375,-1.4384602244286144,0.19294339354652157
3.0,0.5592946723404257,-0.4302193032388472
3.00390625,-0.9849195856231345,0.5118590283488211
3.0078125,1.0001919528659393,2.128077941035358
3.01171875,0.8153868564452865,-1.1904269993883465
3.015625,0.019892292132929288,-0.6436747945828717
3.01953125,0.33150670362662954,0.9780115579500007
3.0234375,0.39607294195610865,0.8943052808303342
3.02734375,-0.060093518489496574,-1.8127468348005769
3.03125,-0.8862572414975108,-0.9004633191371888
3.03515625,0.038458556176696634,-1.5847711226519072
3.0390625,-0.2729790401174506,-0.032170564958646626
3.04296875,-0.46926068911509267,-0.4155563845498376
3.046875,-0.7617454663430165,0.8356060673547525
3.05078125,0.795519487700308,-0.09971633726685795
3.0546875,-0.40031422556468055,0.2507265287234753
3.05859375,-1.402779698327432,-0.7274058068869136
3.0625,-0.6172340438954018,0.7343510551385615
3.06640625,-0.1100921293459416,-0.6847596974171395
3.0703125,-0.06146443515099089,0.5449202253904847
3.07421875,0.47928090472850216,-0.9387382987610993
3.078125,-1.9797971663005154,0.558395525311901
3.08203125,-1.6625600945447012,0.5110648328108881
3.0859375,-0.9865867612797059,-0.2753772053268694
3.08984375,-0.3680779741263878,2.725340570345664
3.09375,-3.054830025333939,0.23421853492211275
3.09765625,-0.45701268014231167,0.5701376059463665
3.1015625,0.3332394697022267,-0.6025912505326828
3.10546875,-0.24431147320232494,-1.0738280055418148
3.109375,0.9956943588967543,-0.05044877152196309
3.11328125,1.124336607319256,1.0545911571211006
3.1171875,0.05180673388182814,-1.1132199501571967
3.12109375,0.25646971698107396,1.4501564789474815
3.125,-0.5593389043452422,-1.3461822003513282
3.12890625,1.0024557324863086,-0.8675015379896527
3.1328125,0.6980748126977616,-0.0007981758983955241
3.13671875,1.1435002886196135,-0.3638994440149551
3.140625,1.0127396384336613,0.3148560925144319
3.14453125,1.6019664818362434,-0.9609566970417174
3.1484375,1.7088627735218704,0.8457983145370152
3.15234375,0.03186689184362424,-2.2599676535468323
3.15625,1.6103498613269798,-0.20622239132891462
3.16015625,0.5934745178265445,1.3349639736189454
3.1640625,-1.234256362624125,-1.5625146245232369
3.16796875,-0.0524055630894263,1.2325523688854279
3.171875,-0.3450153424680735,-1.4176160267821931
3.17578125,1.0994228527182477,-0.20413335315483233
3.1796875,0.25956724479794896,0.3725848991645647
3.18359375,0.780240561008967,-0.8173287542956005
3.1875,-0.014606133598568893,0.40147222087312073
3.19140625,0.16744560069639525,-1.2694300454472633
3.1953125,-0.6486193369986992,0.2385904452469477
3.19921875,0.48632666730909074,0.8520385093713061
3.203125,-1.4399720447960025,0.3557632138964654
3.20703125,-0.965629874377989,-2.016258683811323
3.2109375,-0.04484085590943105,0.02505865151917294
3.21484375,0.07471319388682107,0.20616150940372374
3.21875,-0.6415023653486794,0.5277286790687749
3.22265625,0.6581423976686176,1.5330225518333245
3.2265625,0.0511854788931555,-1.5074385254686924
3.23046875,1.0248965511054542,-0.9397906528439095
3.234375,-0.07046641172402723,0.19944721460355383
3.23828125,0.29394666020962157,-0.40970407462653124
3.2421875,1.3645549479369072,0.021297650571236903
3.24609375,2.069359027386608,2.1084929266772314
3.25,-0.31285641367877215,-1.073006131972948
3.25390625,1.7708620604524827,1.8424667133388914
3.2578125,0.00497340013324135,0.040522690876709754
3.26171875,0.8009501586783374,0.12014030026335859
3.265625,0.37022406520839646,0.27217145450367203
3.26953125,0.15741435511048993,0.20409677267509838
3.2734375,0.2661987298021639,-0.8706947109844452
3.27734375,0.8113567749915873,-0.49634464601152267
3.28125,0.2945962614601914,-0.6282911732296329
3.28515625,-0.4850156978547021,0.6183260238122289
3.2890625,-1.3093700438515492,1.232273682562009
3.29296875,-0.9597721440023397,0.2166035112509107
3.296875,1.3220700622075057,-0.9986961097084945
3.30078125,-0.2209352672515262,-1.0715635072659084
3.3046875,-0.6813608378074143,-1.2306101259098485
3.30859375,-0.05394970985401335,-1.099827040567298
3.3125,-0.895671242655641,0.040712910141553794
3.31640625,-0.1874982542785794,1.5979973983693023
3.3203125,-1.8032664878799245,-1.6977988806363944
3.32421875,0.23035902385329432,-0.003447447301078227
3.328125,0.24402660094488174,-0.6436475500468141
3.33203125,0.7509912119812796,2.040012932983194
3.3359375,-1.6623973095818618,0.2775492536772144
3.33984375,0.1910448323215017,-0.7164795463349177
3.34375,0.7853912093131851,1.4840128450861787
3.34765625,0.3500081928220306,0.405265447156656
3.3515625,0.832895494285431,-0.07269756578945505
3.35546875,-1.061375967110877,-0.06262013900467676
3.359375,-2.4872654557728135,1.2693359495659802
3.36328125,-0.007846022460256698,-0.4196691779615354
3.3671875,0.29728674613094247,-0.28872354479213563
3.37109375,0.8371072376144161,-2.8974661214156816
3.375,-0.23643766926567922,-1.1851914219079114
3.37890625,0.3331204536235117,0.6334922709795197
3.3828125,-0.247403246596882,0.42708444488115677
3.38671875,-0.7419757211641622,-0.0678467363793302
3.390625,-1.298779249707391,-0.2016347465689121
3.39453125,-0.766256677650366,2.1250654575481054
3.3984375,-0.9115875293131338,2.25204047294565
3.40234375,1.3855285304383431,-1.4747378274391785
3.40625,1.4845732080702978,-0.3494494484085463
3.41015625,0.8452297616947252,1.0023422782275762
3.4140625,1.039711263011893,-0.21553832953014063
3.41796875,0.5048316921912871,0.1378423105931674
3.421875,1.1919097052551688,-0.9567861092768939
3.42578125,-1.0053758226667047,-0.13600430047666845
3.4296875,-0.16013889222316988,-0.9217810892311582
3.43359375,-0.37025272519699837,-0.5730415622395679
3.4375,-0.5112211042876323,-1.3627959121849735
3.44140625,1.34706674823451,0.06600434959373876
3.4453125,0.41119839134046354,-0.5156329629420732
3.44921875,-1.0479347027487071,0.008565657540470768
3.453125,-0.7278781486270474,1.3678613368614632
3.45703125,-0.7333968203269032,-0.22378931522078369
3.4609375,1.2776249953500765,-0.4148485526655491
3.46484375,-0.15444441985198573,0.5567570430083386
3.46875,-0.41209148188193523,0.9819023926167421
3.47265625,-0.1874307249382318,-0.10011820747451794
3.4765625,-0.6716805137608919,-0.877725577966635
3.48046875,-0.3284223982555884,-0.6374958032805844
3.484375,-1.3558103257834966,0.6494602664912923
3.48828125,0.6770051987431722,-0.014516967382031983
3.4921875,-0.4338967072917054,-0.7712339994479552
3.49609375,1.943818543222279,1.5481875169923185
3.5,-0.43485483705560546,-1.5232966036286035
3.50390625,-1.2433230915097833,-1.4552033722057234
3.5078125,0.34657226227620197,-0.8158658664467897
3.51171875,-1.371410619287888,-0.9727177755488969
3.515625,1.6465959081015409,1.0000864488983805
3.51953125,1.0051168511670958,-0.30698925765955865
3.5234375,0.8843110468407215,-0.01052922123860831
3.52734375,1.3984515872367458,0.10757048143779095
3.53125,1.3783308234336287,-0.7081694307813275
3.53515625,0.4149779535892151,0.37373642914848293
3.5390625,-0.854668017433942,-0.787925243239745
3.54296875,0.22162656925057758,0.22123538936899406
3.546875,-1.137479302296213,-0.10743869106470726
3.55078125,0.4902209458235893,-0.2608811664969301
3.5546875,0.2237778221201193,0.4124003890620345
3.55859375,-0.682914917312961,0.5225175306554737
3.5625,-0.7248296040772909,0.6550650965937798
3.56640625,1.2249393360442364,1.156492726893574
3.5703125,2.7499990419495672,-0.12780358488801266
3.57421875,0.10453096391049284,-0.4579577746326297
3.578125,0.17219905281648287,0.2700230389405475
3.58203125,0.5606816686307088,1.2043506562667425
3.5859375,-0.6449849046969433,-0.5391170491676066
3.58984375,0.5096473329639146,0.9557077677777317
3.59375,0.5839912420729811,0.8506504873698321
3.59765625,0.8222330119631422,-1.9579287430169616
3.6015625,-1.907334329014804,0.5364779016892094
3.60546875,-1.364947298787898,0.15155274614109257
3.609375,-0.05178710059259545,0.46784247691478786
3.61328125,-2.111928371878162,0.6681108807877235
3.6171875,-1.5401621149805271,-1.21499546848438
3.62109375,-0.5503618098621421,0.5459020462350572
3.625,1.5484050256044868,0.45627914961297694
3.62890625,-0.42247909867488675,0.12967170248632487
3.6328125,-0.868943230412659,-0.10238165272875381
3.63671875,-0.20512870711662767,0.7466905303462129
3.640625,0.5633797064499101,-1.3477902404049968
3.64453125,-0.530657406676132,-1.09478655329618
3.6484375,0.4612899551087066,1.6408625556397796
3.65234375,-0.08304678721341878,0.3076799359796986
3.65625,-1.0702831476293166,-0.22647715629023463
3.66015625,0.21335565222543568,-0.5469261256336044
3.6640625,0.9959166465268885,0.187582016951935
3.66796875,-0.33787011250898547,-0.7018424272804564
3.671875,-0.633865614860188,0.5270243138150844
3.67578125,-0.15515411466778958,-1.4078090965647672
3.6796875,-0.016064310567827457,1.350241664259057
3.68359375,-0.6241729667429261,2.44046469001368
3.6875,-1.057015970680264,-0.8839121012477791
3.69140625,-0.6261556889616544,-1.0120683339435883
3.6953125,1.6414293092635646,0.9979502018617566
3.69921875,-2.488159096177198,-0.28575395193548725
3.703125,-0.8062232609307458,2.0422247033085665
3.70703125,1.3710150305595319,-0.6761483624633662
3.7109375,0.8188576099890683,1.1119108157587305
3.71484375,0.2429129145106638,1.412698574417251
3.71875,-1.1650136263255644,1.1370234174093996
3.72265625,2.789537073764107,-0.48434478809091963
3.7265625,-0.4799043505284276,-3.011652472439313
3.73046875,0.6352384539330636,2.0274611231143584
3.734375,0.4779586656773632,-0.4399745762501587
3.73828125,0.35229869323327195,-0.16541998357726023
3.7421875,0.31383000632737335,-0.4477294481507829
3.74609375,1.0096272980333365,-0.24805248200439312
3.75,-0.6796485692688444,-0.34064906724815525
3.75390625,-0.5347469934437815,-0.7988473561635937
3.7578125,-1.0126697577321295,0.1736270853260843
3.76171875,0.1335608627342387,0.8547377573788278
3.765625,-0.09489437927510219,-0.19839685330022447
3.76953125,-0.4797014057543499,-1.6469226481443722
3.7734375,-0.5594676828286705,-0.45923150162252924
3.77734375,1.4120377104442063,-1.1789473444526801
3.78125,0.26967242124017105,0.7818949644186813
3.78515625,-0.5383791446197675,-0.5318063237685707
3.7890625,-1.4756754567795256,0.47524140594196757
3.79296875,-1.4867182883418186,-1.4867926657301709
3.796875,0.38162305496073046,0.6215630323454208
3.80078125,1.17914437981521,-0.7910474149624758
3.8046875,1.3600756735651125,0.5978820478684989
3.80859375,0.44042922360126213,1.0917947534373111
3.8125,2.6277010847773297,0.13093566416312474
3.81640625,-1.431014316539177,-0.4019510840706932
3.8203125,-0.2214759985941732,-0.5978257905088928
3.82421875,-2.009295782997318,1.1077319962822987
3.828125,0.522113353227609,-0.8430643183881934
3.83203125,-0.2522589863735777,-0.06968105057894063
3.8359375,-0.024222740772886577,0.14675887619519623
3.83984375,0.5975650455757011,1.6690840476601387
3.84375,-0.8655552402192556,2.756500706752524
3.84765625,-1.1539067761938584,1.8566109142108294
3.8515625,-0.03237898828687925,0.6863043940010533
3.85546875,0.6220160589806181,0.1433802591151436
3.859375,0.859087682701765,-0.43878208681448555
3.86328125,0.09543422340455271,-0.1951241843504158
3.8671875,-0.37112820004632907,0.9126025911364869
3.87109375,-1.5672291073584694,0.5773897690772981
3.875,-0.5912512614824367,-0.9539529070302637
3.87890625,-0.1250543839796931,0.8517500136445195
3.8828125,-0.2535762043048311,1.4602168067123775
3.88671875,-0.6085800831346538,0.07076215386818051
3.890625,-0.21241135437734335,-0.28611266792050694
3.89453125,-0.42691540685123025,0.4766543868665292
3.8984375,-0.5552789536296824,0.2722249831444836
3.90234375,-2.3750317660939317,-0.7662532380791068
3.90625,-0.2289714263842972,-0.3600848045218368
3.91015625,0.032123689556553155,-2.849505306316502
3.9140625,0.6081212763762543,-0.570012119362064
3.91796875,-2.1856293393659176,0.13854111788950446
3.921875,-1.2748011190926045,-1.6534524921092835
3.92578125,0.42086480497634604,1.399831127894276
3.9296875,-0.02438309723928029,-0.604219897832314
3.93359375,-0.344236387080301,0.8599200714676732
3.9375,0.3017741306821331,-1.3616615323861556
3.94140625,0.4695968602333166,0.7754041924496948
3.9453125,0.13416570518555979,-0.3244497925276373
3.94921875,0.12282844410175842,1.6150187909169338
3.953125,-0.938113152337997,0.5209807665233248
3.95703125,1.4916180813224518,-0.5223960047477704
3.9609375,0.8079131898148367,1.057785336020667
3.96484375,0.787134483018191,0.579772219551678
3.96875,0.9698919720403864,-0.0456977489088434
3.97265625,0.5961469142282869,-0.864786855376103
3.9765625,-1.3366261831642006,-0.855632840538825
3.98046875,1.6362355795568404,0.44012939320031214
3.984375,0.4598020033331555,-1.3338050113344049
3.98828125,0.02449337916657938,-4.022341018388445
3.9921875,-0.12707259701967857,2.682423550316081
3.99609375,0.46658495902541797,-1.7888768203566148
4.0,0.8883761878512998,-0.6375802213783347
4.00390625,-0.5358851791665978,0.2792830372905479
4.0078125,-0.3247303683209035,0.30345134288365766
4.01171875,-0.5024425836748734,-1.7894663163205486
4.015625,1.7345968626297021,0.6112794219966585
4.01953125,-0.9778422531520606,0.07527381793918052
4.0234375,-1.3294389784658711,2.440351419092468
4.02734375,2.1448998276582176,0.2849648870708467
4.03125,0.13202974134861295,-0.8809056325438787
4.03515625,0.8082589375782236,-0.9002888984484606
4.0390625,-0.47079682362494285,-1.7159355796094735
4.04296875,-0.42157491565168986,-0.03563892895659231
4.046875,1.4614497666602966,-0.0757941730462799
4.05078125,-1.5806213920304428,2.120935706147017
4.0546875,0.9338299642585167,-0.6204493582235134
4.05859375,-0.5967032876367494,0.9546282795955882
4.0625,-1.3918907528262374,0.2981370842481474
4.06640625,-1.5578078266934614,0.7022130581055684
4.0703125,1.6618192357007604,-0.012748596201624409
4.07421875,2.0697453232743213,0.19902776104800537
4.078125,1.1351843632053702,0.518324571427775
4.08203125,2.2446159416586995,-0.2594416565658302
4.0859375,0.3611026187185826,-0.27297001547578975
4.08984375,1.7882968482746118,0.6399044547973695
4.09375,-0.6189518111881386,-0.9276053066870605
4.09765625,-0.5731794584726752,-0.17382336844365273
4.1015625,-1.614175525477183,-0.2867948303966453
4.10546875,-1.3975336225878014,0.19294264354885
4.109375,-0.9435206715381971,-0.9985661062598128
4.11328125,-0.472183525735163,0.5032057335652
4.1171875,0.9842083082879564,1.5985608587486255
4.12109375,1.2655645737965178,0.08016522623625708
4.125,0.004598573358422093,-0.8362935843338198
4.12890625,0.9936536614339504,-0.06356258990710029
4.1328125,-0.46527040414406134,-0.630819259190528
4.13671875,0.6753378690844666,1.6292068910375068
4.140625,-1.1278725609838751,0.8251355342396397
4.14453125,1.2408370021789403,0.7278788264335686
4.1484375,0.834729716417443,-1.2834946784650496
4.15234375,1.3065719876834716,-0.19743319499890644
4.15625,-0.3035390717132782,0.21113205332959595
4.16015625,1.5779751519155785,2.1556460152801993
4.1640625,-0.30178794104737305,0.675749253293012
4.16796875,-0.5417465720929882,-0.7765680156972405
4.171875,-0.30212173883605264,-1.9934880536539434
4.17578125,0.2665151906409283,0.9694512287612097
4.1796875,-0.08695611565845737,0.5155841193744651
4.18359375,-1.1250805168249003,-0.12429718939893629
4.1875,-0.9632203828228016,0.04673117481196238
4.19140625,1.6643955824838625,1.5151393192086196
4.1953125,0.0059284464482572165,1.5274493151249176
4.19921875,2.166367436338791,-0.5544282085972398
4.203125,-1.3979316291986965,-0.8472896254139223
4.20703125,-1.411069868361266,0.8977878382099365
4.2109375,0.3176854082370459,-2.6706037201402113
4.21484375,-1.5005489970233181,-2.136154687819572
4.21875,0.6681232826071087,-1.023491656349227
4.22265625,-0.5701680652346619,-0.8399142428787295
4.2265625,-2.104307736886145,-0.594505537730448
4.23046875,0.18284431613629645,2.2034729258007792
4.234375,-1.296532187681617,-0.2139461569618569
4.23828125,0.9430299683461991,0.4083217689704096
4.2421875,-0.1482100331412327,-0.014695511819224957
4.24609375,0.16549137640330663,1.2436630384022433
4.25,0.821001776100284,-0.29593222185660506
4.25390625,1.5525595806026853,0.7094515034416473
4.2578125,0.42500705279186324,0.5796312460317558
4.26171875,1.005476175954732,-0.19535742694411645
4.265625,-0.9739700584838247,-0.559422918693476
4.26953125,0.5262328637980862,0.2008820865992896
4.2734375,0.8992599219229226,1.2855095327597297
4.27734375,-0.33905746237631224,-1.4216280410463087
4.28125,1.1738076590744098,-0.7002775029073955
4.28515625,-1.196369532518845,-1.049701148644128
4.2890625,0.6758390418207348,-1.3106372757183744
4.29296875,-1.1941379013498559,1.4784563649844897
4.296875,-0.43522435548559196,-0.6625661986929507
4.30078125,-0.3229206932787355,1.6391173543752342
4.3046875,-1.3378853999486129,0.4671590433052078
4.30859375,0.5608767439551168,0.44375930553056053
4.3125,-1.5341936117216872,0.9536010320218321
4.31640625,-1.2958052295469416,-1.285430022319245
4.3203125,0.5664519244975827,0.1225490839845393
4.32421875,0.6712200094319123,-1.6117355606601296
4.328125,-0.40855847101199644,0.6102279004261042
4.33203125,-0.3870079506290161,-0.16241803353458417
4.3359375,0.9785846611665536,-1.431000490372724
4.33984375,0.4097901906640199,-0.5660997639046211
4.34375,-2.066224672986348,0.33181594517657204
4.34765625,0.7734604606770552,-0.9726271283282405
4.3515625,1.6443603688058452,-0.8594560351636317
4.35546875,0.048781333450380056,0.8123633996231012
4.359375,1.9130004464664143,-1.1146699939354676
4.36328125,-0.5318658701403728,-0.22495682491956392
4.3671875,-1.0036017463119096,-0.5957264496801115
4.37109375,-0.32671524825827764,2.7660464955819397
4.375,-1.2811506083156914,-0.6338364884385583
4.37890625,-0.8040023136291874,-1.6668957893175227
4.3828125,1.5662778384993208,-0.06416984845863072
4.38671875,0.09227878368137524,-0.35547743694364736
4.390625,1.7793660850093196,-0.3703844730297328
4.39453125,0.19600784087977413,0.12755841953284686
4.3984375,-0.6162810958322282,0.4339708508608039
4.40234375,-1.7321097467000703,-0.34634009709268737
4.40625,0.7198956298872635,-0.7381392464169929
4.41015625,-0.9736526950116571,-1.1571771673969589
4.4140625,0.5418020709261309,-0.9824156876650566
4.41796875,-0.06151397019925717,1.565078381686182
4.421875,1.709187312083209,1.6003147631877326
4.42578125,0.8698031778897212,1.1123362438366104
4.4296875,-0.8554426521338957,0.19998734140889582
4.43359375,1.1976613095602404,1.1276204292254768
4.4375,-0.11842218325613668,-0.4160738978102794
4.44140625,-1.0477630677579095,-1.2630626608743685
4.4453125,-1.4847425588633836,2.1883859171497555
4.44921875,-1.657529353587476,0.3327935530222119
4.453125,0.5974950905731186,0.4928288533418839
4.45703125,0.8329899110487184,-0.6215998402112194
4.4609375,0.4564844471520776,-1.0694158422818725
4.46484375,0.19173716710551253,-1.4261895265971456
4.46875,-0.032117408060305455,0.1798748975208894
4.47265625,2.0740212472702173,-0.8413880223467938
4.4765625,-0.682032891666082,0.26313907970116746
4.48046875,0.9860870541093295,0.9827649873467001
4.484375,0.6886694524037695,-1.7268491247465416
4.48828125,-0.4071088150208453,-0.48496008723557915
4.4921875,0.6769359635297147,-1.0695973827081031
4.49609375,0.4870248061054087,-0.0896601548432976
4.5,0.3265492256221196,-1.8932891647298742
4.50390625,-1.246402144563239,0.6265290751507739
4.5078125,0.2825999377117222,0.7454135046772479
4.51171875,-1.0543774310070357,0.21360169655991285
4.515625,-0.06291642794702931,-1.2108340462730607
4.51953125,0.20951309782471608,-0.003094897115730594
4.5234375,-0.21073428943663378,0.25322854389132543
4.52734375,0.9389757701518218,0.6132927069845063
4.53125,-0.39433606190737297,0.26144184127874537
4.53515625,-0.6368996244010574,0.41773894744697915
4.5390625,-0.08389507496784031,2.169493913918841
4.54296875,0.7885633817726952,-1.0023605009600267
4.546875,1.8882793523870942,-0.5420586767257652
4.55078125,0.9816957472127269,1.022363720457851
4.5546875,-0.9486624487751644,-0.8132924538956657
4.55859375,0.80943211386871,-0.6985229948879593
4.5625,0.25936735120874893,-0.9158522634550392
4.56640625,-0.26698236891091975,-1.6219974106921118
4.5703125,1.3101285519178696,0.277360512033124
4.57421875,1.4556298235557252,1.2474299682928727
4.578125,0.6592257682403261,-0.17405298974920114
4.58203125,-0.5437842642842,0.18120724636809746
4.5859375,-0.17729772750474307,0.6435138190782451
4.58984375,0.5064009491681877,0.021590711974803514
4.59375,-1.1785488352916145,0.72384200130503
4.59765625,-0.722413763608251,1.3695410527583332
4.6015625,-0.3869157943285045,-0.8688475387687311
4.60546875,0.008008174736513824,-1.3203138541947785
4.609375,0.5851332543093652,-0.05775823914543515
4.61328125,1.1646046951319464,-0.7592781474594785
4.6171875,-0.33936629832331006,2.2546653090438764
4.62109375,-0.5093426447739056,-1.1973695930215218
4.625,-1.301952277415927,-1.5411407052955695
4.62890625,-0.41290391065229515,0.8410864509613237
4.6328125,-1.6512201370830344,1.0930240743265391
4.63671875,0.5120210754262245,-1.109590747041677
4.640625,-0.5534253166084722,-2.2740018892483476
4.64453125,-0.7652903639124599,1.5417294596138382
4.6484375,-0.5421250115450834,-0.9377176224053712
4.65234375,-1.089266550729967,-1.7232344473899752
4.65625,0.25167923389632013,0.3337808848402604
4.66015625,-0.5459474654884721,-0.46874810409265005
4.6640625,1.5655496631714336,-0.41708833624366015
4.66796875,0.6410681973221771,-0.7586342549013394
4.671875,-0.24115253843063902,-0.37805159918058556
4.67578125,-0.1906494259825012,1.436357229216841
4.6796875,0.47523456574895845,-0.8346431332813115
4.68359375,0.8601511485971871,-1.715817447100029
4.6875,-1.081836280496827,0.23019441716123384
4.69140625,-1.0439632408865287,0.937174296171758
4.6953125,-1.683360327572653,-0.09076639602756643
4.69921875,-0.19426637260499957,0.703180696269403
4.703125,1.4820068330364506,2.1425966903721
4.70703125,0.07172582587656916,0.11681512765047926
4.7109375,1.4545704420963175,-0.20887092730193962
4.71484375,-0.3802699016781202,0.4669842091794343
4.71875,-0.9873635188123552,-0.20865898512219577
4.72265625,1.666542747332482,-0.5658820008786346
4.7265625,-0.3320005264074415,0.6018165399080349
4.73046875,-1.8725063664376411,1.9122566637169371
4.734375,1.0150419931432633,-2.3479027903439693
4.73828125,-0.8287338754204039,0.10240001670653924
4.7421875,-0.3646700246449589,-1.251479801334073
4.74609375,-3.0610771339314415,0.33053431056540894
4.75,-0.40640280605743145,-0.15882890890691684
4.75390625,-1.8116329621299128,-1.271902769338475
4.7578125,0.6829798001092166,1.0877394715303055
4.76171875,-1.195402807986847,1.5198980315888166
4.765625,-0.6027124307256105,0.652758373151595
4.76953125,-0.5863557096522011,-0.6361011124129998
4.7734375,0.8707850511573764,-1.1096566892128534
4.77734375,0.22907243456447796,-0.45600988034015705
4.78125,-1.722684906355653,0.5695866855925442
4.78515625,0.5048358780716694,-1.0430001018071238
4.7890625,0.34687128663647593,-0.5680837708460249
4.79296875,-0.2803899923859966,0.2406793657608048
4.796875,1.689732223760622,-0.26757203556773407
4.80078125,0.0992297921190448,0.29084967188442623
4.8046875,1.179945998916422,0.23003464319685493
4.80859375,0.4993985436828555,-1.4265647905359413
4.8125,0.8771459716757615,-0.6591180256873332
4.81640625,1.21783174179797,1.2887739727587926
4.8203125,1.5809386234811358,-0.01980856945199888
4.82421875,-1.7034693599563782,0.39241848372982396
4.828125,-0.3922036331495759,1.3839617117875593
4.83203125,0.3251874603398455,0.5597473864353868
4.8359375,1.205069347772351,0.6100443372517996
4.83984375,-0.4899762324527992,0.9593777592209313
4.84375,1.2193991348885642,1.56584870510125
4.84765625,-0.22250955287116536,0.681484832962075
4.8515625,-0.19651256333683795,0.3635328606647482
4.85546875,-0.06842205710479266,0.55288921917697
4.859375,-0.38439499880948075,-1.4113826585490652
4.86328125,-0.6030229742098052,-0.828241151678968
4.8671875,0.3219086354987631,-1.4191937266132062
4.87109375,-0.1981924384336182,-0.9013581730801921
4.875,2.403519861563664,0.6454245960769437
4.87890625,-1.3476471776401862,0.11547781421661084
4.8828125,-1.977679942141829,0.23029072370457218
4.88671875,-0.53460771288726,-2.2408705810857175
4.890625,-1.7550770704281586,0.11701104131997804
4.89453125,-0.6622341555752818,-0.8244651421604785
4.8984375,-0.08637726110706401,-0.6015446164659886
4.90234375,0.09570450526016269,0.14501501159913022
4.90625,-0.11323806766448023,1.1310127590226973
4.91015625,-0.6818278697825896,-0.5531469487454412
4.9140625,0.46801011884666177,0.2316677659077133
4.91796875,1.4445908434697774,0.23857180622749397
4.921875,-1.3959894231636287,1.6586223712981885
4.92578125,0.8255867856387201,-0.07082860962498738
4.9296875,-0.261464656620574,-0.5796684839534212
4.93359375,-0.8386143304545237,1.2299280636625045
4.9375,-0.2130647489476295,-1.0796093360995653
4.94140625,-1.5881275593353565,-0.014305205461640241
4.9453125,0.09319713085041027,1.1545737409572607
4.94921875,-0.3215594835605767,0.05725066572349336
4.953125,-0.13683061781568742,-0.17935352863816284
4.95703125,-1.247187433947339,0.5242987740097299
4.9609375,0.27400501920584924,-0.3753208082286753
4.96484375,0.36972371930966946,-0.14901125622573946
4.96875,-0.16254388129914552,-0.22825488037103359
4.97265625,1.8104813126958395,-0.31955642184354366
4.9765625,-0.11030278101381188,0.8770382839256305
4.98046875,1.0345265404891828,0.06848495816676385
4.984375,1.024239475336219,0.39105901074251137
4.98828125,0.5343546982260804,-1.7370882145741007
4.9921875,-1.0566857197903907,-1.0960000590987813
4.99609375,2.0546785298371395,0.9668100956920089
5.0,-0.04919741339022611,0.9067030812150347
5.00390625,-0.10347660371368422,0.3970005158804953
5.0078125,0.18245497905322536,-0.6161271790837175
5.01171875,2.5777224078917564,-3.229468737971617
5.015625,-0.5445688459783046,0.1943920237139827
5.01953125,-0.2651379980099536,1.7461794353588567
5.0234375,-0.6369740813181658,-0.5383818724694663
5.02734375,-0.06886164299160825,-1.024533770085352
5.03125,-1.326342370361577,-1.5634217988601005
5.03515625,-2.616164895931955,-0.9222527095253172
5.0390625,-0.8834705833651741,1.2256148252287578
5.04296875,0.5375167036079895,-1.4905345682027518
5.046875,-2.864769531780711,-1.2901436717603598
5.05078125,-1.1601709650240657,-0.6537071393269187
5.0546875,-0.42699679297928966,0.8220947633791521
5.05859375,-0.9549231536572503,-0.41159822332151436
5.0625,1.0876913085988877,0.7894222161500611
5.06640625,0.7112294288956817,-0.6059982997124475
5.0703125,0.8450031286453288,-0.21603743405974074
5.07421875,0.014736398712053577,-1.1334071670486208
5.078125,-0.3804359461638402,-1.911038078246401
5.08203125,0.48165039195983195,-1.0218019348413212
5.0859375,0.9900292552222517,-0.08226052392823437
5.08984375,-2.983442327114285,-0.9215113298330666
5.09375,-1.0439634217335179,-0.9582100221780846
5.09765625,-1.1828099678749198,-0.35362949438977265
5.1015625,-1.5661877379483982,-0.05452277335259372
5.10546875,0.4978106089067753,-0.8263341205677114
5.109375,0.7220204249556997,1.045077832568781
5.11328125,-0.5375459099192867,-0.23805736516987544
5.1171875,-0.8679645209219418,0.9348554211836013
5.12109375,1.0931887205658535,1.4025165574427287
5.125,1.0803465507526269,-1.1998227218787572
5.12890625,-0.21369712609066466,0.7593294635761909
5.1328125,1.0180882457623688,0.14169210371749696
5.13671875,-0.6632316092375232,-2.8453511581289557
5.140625,-0.3563151194749709,-0.6226605903243171
5.14453125,-0.5603140390806867,1.03199399596313
5.1484375,1.0436443760989822,0.7832092092748228
5.15234375,-2.599073641107417,-0.2424469845642813
5.15625,0.06843208252417857,-0.23702074854870836
5.16015625,0.14153194401747962,-0.20462519437719554
5.1640625,0.5118823071081616,0.28198947520618267
5.16796875,-0.518909545268554,0.47524566752557396
5.171875,-1.448710965409754,-1.4766143515546
5.17578125,-1.5476462444196224,0.05057416073181145
5.1796875,0.6682900608807286,-2.26955726509976
5.18359375,-0.9070835219679578,0.8275659894518874
5.1875,0.9869071244979936,0.46412554777938825
5.19140625,-1.0549645231652587,-0.9979179648477857
5.1953125,1.5054372641282496,-0.43825188603162524
5.19921875,1.4338165607734032,1.1037004389266651
5.203125,-1.3715653939492611,1.3817953667280751
5.20703125,-0.4403544077013176,-0.49146808931315883
5.2109375,-1.1999754445234736,0.45988042090335146
5.21484375,-0.6677438245420648,0.22310013332255538
5.21875,-0.5309550484515465,0.08980281361052864
5.22265625,1.3597139444046555,0.4465880952254432
5.2265625,-0.5448742826096443,-0.6223380604782772
5.23046875,0.0178318743171972,1.7454949873467618
5.234375,-0.3908885762363337,0.6245539220023476
5.23828125,2.42434391897646,0.9557515108837599
5.2421875,1.6137473646237868,0.12168519313180845
5.24609375,-0.9108031178753294,-0.0029377179400807037
5.25,-1.0992163071182492,-0.8800031754973608
5.25390625,-2.0469866515856388,0.6634441845578409
5.2578125,-0.26034218312227975,-0.15603328014827098
5.26171875,-0.49942363334339057,2.324867145432289
5.265625,0.44216646936036835,2.194184459355037
5.26953125,-0.11512318856203681,0.618730250120568
5.2734375,1.4873869613977526,-0.3433270987584045
5.27734375,-0.7841205057520687,0.5014827591120276
5.28125,-1.0699667094829377,0.19571355315667502
5.28515625,0.4157152279811597,-0.9015612751221505
5.2890625,-1.3532644539725305,0.2459418700239398
5.29296875,0.5007708691233415,-0.5959368353277316
5.296875,-0.045638299572146754,-0.04707561864068954
5.30078125,0.30569623694437625,0.8593551162128462
5.3046875,1.9129403994660839,-1.46221013580094
5.30859375,-0.26309582406755394,0.27700690842680054
5.3125,0.3305067699338873,-0.2968465256193814
5.31640625,-0.5574056614694192,0.44543106300390223
5.3203125,1.235751782427805,1.7716720519751326
5.32421875,-0.32150465144091916,1.1329965567022615
5.328125,1.854967372451683,-0.32588671328824176
5.33203125,-1.7331138002255706,-0.31318949031180654
5.3359375,0.6059435959207435,0.06144249260796663
5.33984375,0.23814369641362046,1.2944834589257608
5.34375,0.0595617826168321,-0.6286649584468937
5.34765625,-0.8589310267978,0.33672762901995273
5.3515625,0.14636105633774393,1.315863652300249
5.35546875,0.6069612906364474,0.49233870051425954
5.359375,-1.6977836187735742,-0.2799389021363526
5.36328125,1.0953361746706132,0.7117433305170785
5.3671875,-0.46563228565501963,-0.7340309459352389
5.37109375,-0.1815997631209483,1.049203230088739
5.375,0.7242557327882629,-0.19667709865356728
5.37890625,-0.145834016012283,-2.0557195928750045
5.3828125,1.3045613317940998,-0.22284116273687885
5.38671875,0.10955673413945897,-1.1355688431881354
5.390625,-1.0204776467045136,1.3294477464274528
5.39453125,-0.5189330781295963,0.08743539781886459
5.3984375,-0.25594803434490293,-1.0394702474033002
5.40234375,-0.8982970196412562,1.0492739261178823
5.40625,-1.9496406072862376,0.2857641191632646
5.41015625,-0.3274383894831487,-0.2788799100664016
5.4140625,-1.7476683587895532,1.3191929412133312
5.41796875,1.4542583095610184,-2.2168087278536213
5.421875,-0.07801621265604922,1.1815423156480696
5.42578125,-0.7028298167114999,0.9112875998337944
5.4296875,-0.38572072024176335,0.5682153510085323
5.43359375,-1.2169793222552674,1.4713949389089878
5.4375,-0.035009521363746354,-2.166796600273616
5.44140625,0.6383229995099956,2.3385703459857603
5.4453125,-1.089652623991895,0.7508113678922429
5.44921875,-1.0884806970335719,-0.5837616869449326
5.453125,0.9467980886108999,-0.02717031541468599
5.45703125,1.7570855201988937,0.9954009634618293
5.4609375,0.4575420261012557,-0.39538158750417335
5.46484375,0.4510432059355814,-0.8113147578666818
5.46875,0.18031762965791748,-1.7991436418261908
5.47265625,0.5683146615598706,1.9594816209006591
5.4765625,0.03228515787959706,0.5970113899428824
5.48046875,-2.264991646928463,-0.8473602166938056
5.484375,-0.335005015945688,2.479291143695286
5.48828125,0.6205580720634483,-0.7484765420212628
5.4921875,0.8481334707907967,1.7316120991409896
5.49609375,1.4481874773539762,-0.031203899840790777
5.5,0.4448206522014864,0.5279799125251908
5.50390625,-1.7994010344111235,0.14726192683523706
5.5078125,-1.0132481832420879,-0.7821444332015274
5.51171875,1.123465400656064,-0.527168778403018
5.515625,-0.07028550653906525,0.7687778781320005
5.51953125,-0.7864792366070363,1.0204241164636703
5.5234375,-0.23701483948573032,-1.6259441284424179
5.52734375,-0.3505039010807436,0.22090329349605117
5.53125,0.47668340225891825,-1.2865681020000062
5.53515625,0.06989207364693188,0.1262000601695041
5.5390625,0.06745117770192971,-0.3952687092033147
5.54296875,1.639591724662225,0.22770243234539053
5.546875,0.40059783716740854,0.819512222775285
5.55078125,-0.3164763430579043,-1.1791841530336507
5.5546875,1.139547209679418,-2.033318090121347
5.55859375,1.8901525492883435,-0.6547300211413164
5.5625,-0.7539407881217435,0.6331609387506935
5.56640625,1.0825259887030507,-0.7989910724835122
5.5703125,0.24283323166701629,-1.1838184809752765
5.57421875,0.1996255132744547,0.7777810068076922
5.578125,1.7313854784331322,1.2834079887421748
5.58203125,1.8641072559269358,-0.2443607455308465
5.5859375,0.6528720151604409,1.4724054021290607
5.58984375,0.21485038357476496,-0.9238384122194624
5.59375,-0.8569569093437642,-0.4973992909009112
5.59765625,-0.528753632411636,2.613986930857635
5.6015625,0.8291454487371812,0.42312449293507687
5.60546875,-1.6204806239962664,-1.4127877734519645
5.609375,0.7316905115020274,2.5400896811921814
5.61328125,-1.7661113060722742,-0.2518077178620527
5.6171875,-0.11371317713461856,-0.16878289594629123
5.62109375,-0.7976496021431544,0.9195272872422257
5.625,0.8794391786174758,0.6562705396430784
5.62890625,-0.7606348580052371,-0.014468509983632276
5.6328125,-0.8142413342454683,-1.6577382563227103
5.63671875,0.6082034301818352,-0.66890860444414
5.640625,-0.027166958289255666,-0.3359590028451734
5.64453125,-0.987200823274965,-0.005159429980353744
5.6484375,-0.2573602276327432,-0.6241177589814544
5.65234375,-0.4168619352243001,0.516157330109491
5.65625,-1.0992407008592697,1.3099965013263022
5.66015625,1.3634974349714064,-0.2917390831127322
5.6640625,-1.9563568258953266,-0.5808867118284651
5.66796875,-0.8582676770361295,-1.347343301257572
5.671875,-0.17745057643061193,1.052112659900941
5.67578125,-0.14763647919824735,-0.6564010753884432
5.6796875,0.7348813755192802,1.7541590109923857
5.68359375,-1.9854703144773567,1.4447445623719815
5.6875,-0.21332689206930888,-1.0817278153527863
5.69140625,0.649068992559664,0.3814937964101304
5.6953125,-1.0386769689415054,2.3069991976115376
5.69921875,1.2434111577039186,1.5093801411633283
5.703125,-1.056703601377957,-1.2476935361376298
5.70703125,0.10937960451808412,0.8576619700192942
5.7109375,-0.08745401204454341,0.37719948662284525
5.71484375,-0.7413456428712638,-0.26201028758565287
5.71875,-0.09501608378745896,0.5295964079130397
5.72265625,-0.6326910787255956,0.9077109116061202
5.7265625,1.2069032813690843,0.6478834717910336
5.73046875,0.21329125144597935,-0.21082697833125946
5.734375,-0.007152656773554888,1.0213292111241423
5.73828125,0.00862483944148791,1.198380756207906
5.7421875,0.8877305255304073,0.055007195118132395
5.74609375,0.22836848982819807,0.4170193276209513
5.75,-0.3697448849198999,-0.4476948996922663
5.75390625,0.045919232459719864,2.115398339445678
5.7578125,0.9215166415615981,1.5179506492150296
5.76171875,-0.5174215053433117,-0.4872879788234872
5.765625,2.027823565252408,0.35561838436716975
5.76953125,-0.37981792020974464,0.13376440187217362
5.7734375,-0.8167598174816345,-0.2308982774507159
5.77734375,0.9585302731784615,-0.31951599807168
5.78125,0.7994670662363546,1.037805674109942
5.78515625,0.8687936128495476,-0.4565864330223064
5.7890625,-1.0573768085041686,-0.3554308145829685
5.79296875,1.1939490546289644,-0.6613502462573265
5.796875,0.1919107052812302,0.3470177783614025
5.80078125,0.9081283414467657,-0.6494103284104306
5.8046875,-0.7237680392543298,0.768040607732566
5.80859375,-0.5541617383463406,1.580235572739174
5.8125,0.19236863981404784,-0.4165394618312856
5.81640625,-0.4448408208111889,-0.5955557117545773
5.8203125,-2.354945599658759,1.7730044797529296
5.82421875,-0.5857180837311702,-0.3862533511940334
5.828125,0.3836731074985412,0.9147375442198644
5.83203125,2.466299562679287,0.05217033139820042
5.8359375,-0.37115264004101817,0.33606186967425855
5.83984375,-0.4987404614569134,1.1004570470415393
5.84375,0.11944688241743655,-1.3927390789485303
5.84765625,-0.3655338402228296,0.0372539810226451
5.8515625,0.7795588428829895,-0.11971247258430551
5.85546875,0.20867056894937114,-0.34562304227852303
5.859375,0.043946586858231246,-0.029591862420381358
5.86328125,1.725645621272829,0.4494755785808221
5.8671875,0.4610804601328353,0.06504840369682013
5.87109375,0.8475701318214641,0.856162677240276
5.875,1.836516807427787,-0.9066271887208176
5.87890625,-0.4154298325857966,0.7235153022552365
5.8828125,0.2792585304008831,-0.6594416955499004
5.88671875,1.8991176779317176,0.8366790933336224
5.890625,0.38362807487689693,-0.14325197098061024
5.89453125,0.4075538339813902,-0.15625184555735572
5.8984375,-0.49251786149711535,-0.6186148572920103
5.90234375,1.3768004603759603,1.0051057845688927
5.90625,0.5323245215857989,-0.18547997471805525
5.91015625,0.9518279266356261,-0.13175451491949264
5.9140625,-0.5512494783688369,-2.02471982321333
5.91796875,-0.5192876208113072,-0.1072121043682417
5.921875,1.9556721645532589,0.5887643273705768
5.92578125,1.4069061925583366,2.943936648448706
5.9296875,-0.374296705696884,1.254907796174185
5.93359375,0.7802691694093801,-0.10198783785778819
5.9375,-0.6860855995616877,-0.9804584699354496
5.94140625,0.3147048143155432,-1.5011880837623048
5.9453125,-0.23500842044415093,-0.2088508661990206
5.94921875,-0.3460894859488711,0.735076287432479
5.953125,-0.5399557295833232,0.10088809423056816
5.95703125,-0.4194549001550314,-0.4292136609383883
5.9609375,0.321337828825943,-0.29578247782152356
5.96484375,0.5557383496170343,0.18809621751871564
5.96875,0.613489791051369,0.5046455651359617
5.97265625,0.6653867529689473,0.4799605713066604
5.9765625,-0.818190372612603,0.22008666777593394
5.98046875,2.1713524039603165,0.6363333455369241
5.984375,1.4963231709292921,1.2626226762622412
5.98828125,-0.683208716861691,-1.872700801586036
5.9921875,-0.005178596570705361,-0.31618317496917836
5.99609375,-1.0771911447255824,-0.1164263646779671
6.0,-0.8908187937636172,0.08236880910223975
6.00390625,0.7366249602786148,-0.7680488975232954
6.0078125,-1.0278672872768018,-0.7706829081671155
6.01171875,-1.0706740200128202,1.2973019660328193
6.015625,0.5670923300595463,-0.23315498007008437
6.01953125,-0.09637595085382188,0.6336831288451812
6.0234375,0.13199463235531497,-0.8821663184045885
6.02734375,1.7103624593335358,1.0434138235538617
6.03125,-1.1128999493336507,0.7096497014241285
6.03515625,0.8987338281785576,-0.6984889343984579
6.0390625,-0.7693121209048213,-1.1047707828936424
6.04296875,0.15520804583194056,0.9508422268168806
6.046875,-0.11937146176879052,-1.8369523611308693
6.05078125,-0.6347383832097798,-0.7170053402337984
6.0546875,0.18671593422226845,-1.2446592835837405
6.05859375,-0.520246377648579,0.9052256811673861
6.0625,0.9948507730081456,1.1472711478038118
6.06640625,-1.298278007762766,-0.3823089829166346
6.0703125,0.39017378261443586,0.891999525013062
6.07421875,-1.5339629185179138,0.2016022787354678
6.078125,-0.3984847263469304,-0.6191520618470402
6.08203125,-1.0415068838726207,-0.4749106119330996
6.0859375,-2.150269255390974,0.13475335064243146
6.08984375,-0.4430554720114721,-0.9811914504454448
6.09375,-0.15554173668458635,-1.5040261409735647
6.09765625,0.9119056970466716,0.653894779300511
6.1015625,-1.261878188968396,0.12392184599863022
6.10546875,1.2843022333319172,-1.1696260448719926
6.109375,-0.3764676579297218,0.5707698995880586
6.11328125,0.5185083456079396,-0.2218119853022812
6.1171875,-0.015725651157772608,-0.515027785651971
6.12109375,-0.8439926860861747,-0.5062983677717194
6.125,1.130109361078694,0.9475969803544618
6.12890625,0.23811907257278098,-0.051229432811245264
6.1328125,0.22063056745902698,-1.1512078437147304
6.13671875,0.30189044555455125,-2.05670156767251
6.140625,-0.11603281931535492,-0.21787406404085244
6.14453125,0.014851527371794076,1.0187576631036483
6.1484375,1.9902687116811137,0.6661454780709715
6.15234375,-1.1746362344168013,-0.2598134538746195
6.15625,-0.8606734426469735,-0.1335220070648815
6.16015625,0.897061636260212,2.071803945262658
6.1640625,-1.7620682288344527,0.27349061596225405
6.16796875,-0.8941073892522508,-0.9808342345544037
6.171875,0.20467775281252268,-0.6377785059564784
6.17578125,0.42238111847973897,-1.8443173452722461
6.1796875,-0.9385155634853716,0.15396247014900033
6.18359375,-2.3158623092198347,0.7584666250486242
6.1875,-0.7881789950904736,-0.21429725842173036
6.19140625,0.30687203264010243,1.1800910782351985
6.1953125,0.1571072158608719,0.49820860213202484
6.19921875,-0.16992552119674106,0.5378365873396362
6.203125,-0.38842565453278094,0.5034337645005992
6.20703125,-1.8688723688243356,0.13117900576444938
6.2109375,-1.7287524366908067,1.566289473715488
6.21484375,0.04299050678481979,0.7102349772960467
6.21875,1.1740189393267995,1.3350472365004473
6.22265625,-0.4588322140524678,0.4310173654080459
6.2265625,-1.573780787250591,0.7497815306158632
6.23046875,0.8003390396024708,-0.7969661799533986
6.234375,-1.619535298364213,0.14717822755270693
6.23828125,0.08200858355224462,-0.5066060669079997
6.2421875,-0.2960556792704601,-0.9734577140295555
6.24609375,-0.3981281933850401,0.8566236692340767
6.25,0.09094693157811727,1.4890468135971056
6.25390625,-0.09243060508078636,-1.0332734139426176
6.2578125,0.17760325371400548,1.9127498891896382
6.26171875,1.0159421396160322,0.5401837251240127
6.265625,-1.416867291750665,0.8090373650758514
6.26953125,0.6022515987467096,0.06488625748329699
6.2734375,-1.460682985853697,1.299914527827604
6.27734375,-0.8083401270660533,-0.6162078668780916
6.28125,-0.737192903474481,-0.5581586026448105
6.28515625,0.9623551199503401,0.7328748881279102
6.2890625,0.46709937423710557,0.3589602399076643
6.29296875,0.043735677649785795,-0.42796040422326864
6.296875,-0.14626228452769893,-2.267712511731034
6.30078125,0.5480930785717844,0.4995798114911454
6.3046875,-1.5240244108934444,-0.1411322669600633
6.30859375,0.3693776243537607,-1.8851674950183037
6.3125,-0.3144065562500391,-1.5060778567181519
6.31640625,-1.355786353815875,-0.35386983659958393
6.3203125,-2.3367114198779806,1.3057782338032549
6.32421875,-0.6485007229953259,-1.1321952150171188
6.328125,0.12514787623740672,-1.477626646784239
6.33203125,0.2197169556374426,-0.5879577732193425
6.3359375,-0.20851913831190153,0.2693732371953981
6.33984375,1.0535532350832384,-0.40126798453064344
6.34375,1.3007040733594633,0.9932295994059921
6.34765625,-0.3069950989021517,1.1354325303412696
6.3515625,0.8587197383674446,-0.9631069636839831
6.35546875,-0.805369434691261,0.4009743452099751
6.359375,-0.7695118885885885,2.429110192771383
6.36328125,1.373671310814272,0.9411281649725731
6.3671875,-0.4837824355872014,-0.8001175488261807
6.37109375,-0.13377918421131768,-1.5705782029910327
6.375,-1.9790697015810232,0.013422072271324964
6.37890625,-1.049163814805402,-0.07858735475765004
6.3828125,0.9355991198994241,-0.37778784020576733
6.38671875,-0.06465489194955432,0.682903489296301
6.390625,0.35576185162827495,-0.9377603746441211
6.39453125,-0.9306955256727023,0.22820638185145856
6.3984375,0.0009147680720305152,-1.2741135715397784
6.40234375,-0.6155628742571521,-0.7015657640147238
6.40625,1.6797212921784852,2.6436009350043466
6.41015625,0.6898224687839791,-1.238885547790008
6.4140625,1.5305827041429425,0.40637565777310347
6.41796875,-0.571309456545098,1.5828989640660085
6.421875,0.7037945911791228,0.03252793017889047
6.42578125,-0.7375737866279443,-0.9425352272928117
6.4296875,0.6247422818176562,-2.1844705036522605
6.43359375,1.0513420791531014,0.45870509810579113
6.4375,-0.8130863805934984,-0.14923039158098875
6.44140625,1.1902012437968046,0.9777614799689757
6.4453125,1.7205916288229743,-0.5480300107972427
6.44921875,-0.07288712190503205,0.014939252123970577
6.453125,1.6475419034439502,-0.14416564017239308
6.45703125,-0.21397093851733245,-0.617537725717888
6.4609375,1.1553692317268305,-0.7778988848214177
6.46484375,-1.5935010491113062,1.4480753305357743
6.46875,0.19484207751239294,-0.7711548541987714
6.47265625,0.3221606885386111,-0.025479738644867737
6.4765625,0.34338348364697535,0.02406267092339559
6.48046875,0.6367774010026842,-1.3429314152053402
6.484375,0.5225424814574444,0.11136575972010108
6.48828125,-0.10761944998058141,-0.4888754674835945
6.4921875,-0.34235658335103586,-0.7371897407006306
6.49609375,0.18006950869903057,-0.3276828022167862
6.5,-1.8994009726151826,-2.7033350518226533
6.50390625,-1.0074751147002228,0.26062070315358343
6.5078125,0.17883118439633747,-1.0993430637125947
6.51171875,-0.8589085589085315,-0.5895542464434775
6.515625,-0.6373748016194173,-1.549449703611901
6.51953125,1.5953970506167163,-0.20387265683460587
6.5234375,-1.2685488899460993,0.5637437821716014
6.52734375,-1.5187330121190517,0.4504401882379412
6.53125,-0.4084012944634787,1.7669698273994925
6.53515625,0.39689423483508096,-0.6543303695014848
6.5390625,-1.9078785163029863,0.22747489656209716
6.54296875,-0.2802329130270853,-1.8794852846159185
6.546875,1.3969455776636768,0.8236914963371765
6.55078125,-1.1609538239536428,0.5195711263601082
6.5546875,-0.05044675452754041,-0.7142872225130167
6.55859375,1.8569323600476704,0.759436651279777
6.5625,1.2887841359055552,1.0535198002011608
6.56640625,-0.2402852224959432,0.6421132763432653
6.5703125,0.38238226573141326,-0.05623965979120188
6.57421875,-0.7980080655119401,-1.3156558181294369
6.578125,-0.7095747003425544,-0.24902313772963308
6.58203125,-0.6248062275714743,-0.06464601761497829
6.5859375,-0.8131004182870131,-0.26209203909570816
6.58984375,0.060891528990894415,-1.1884734556336254
6.59375,-1.483150482920482,-0.3997551123723957
6.59765625,-0.19662524036973197,-1.4296114066448784
6.6015625,0.5179208177732355,0.5584710762693812
6.60546875,1.8416360420349545,0.7225243521282316
6.609375,-0.32183778099306565,-0.19196698919222283
6.61328125,-0.7700861371199031,0.13655533724767957
6.6171875,0.5320236063627426,-0.29015984492142094
6.62109375,0.3141002245909801,0.2649019900454881
6.625,-1.1133919099443248,-2.416504178324757
6.62890625,-0.8485205804617751,0.31509391294884287
6.6328125,-0.8888310033346974,-1.3129734264516735
6.63671875,0.23386910057538787,1.0919839263190836
6.640625,-0.4736962306235576,-0.6651397268669968
6.64453125,0.534585386025548,-0.603708551506337
6.6484375,1.5519635270465757,-0.6815806452189894
6.65234375,-1.6640836155524255,0.9069086439261517
6.65625,0.576841935570837,0.5265553573275201
6.66015625,0.5393303957590312,0.3088183880651159
6.6640625,-0.48737540920207817,0.2865948245371729
6.66796875,0.3342526595028919,0.7392521063660492
6.671875,-0.2771986610995277,-0.111362320695865
6.67578125,1.2092954104792037,0.04808572452366614
6.6796875,-1.0450693478102617,-0.7543823354254886
6.68359375,1.4878023275535006,-1.268610545856133
6.6875,0.736454606271406,-0.16486357994426526
6.69140625,1.124462373994261,0.052327466175249325
6.6953125,-0.26850134491302846,-1.3083258755059988
6.69921875,-0.004982436571375495,-1.01228754011277
6.703125,1.7855212845360395,0.30878691166132577
6.70703125,1.1300134979945657,1.2006631834172978
6.7109375,-0.7119185257185823,-0.47812752689302745
6.71484375,0.3831991233341975,0.20907276845065298
6.71875,0.8950220045467865,0.20789108791881325
6.72265625,0.5465440238996977,-1.0595911128445388
6.7265625,-0.2492039693975761,-0.2291633994715879
6.73046875,1.4127943074817655,-1.1233630877320055
6.734375,1.6843974238141308,-1.7015939364005581
6.73828125,0.6740671162323352,-0.5064816786884232
6.7421875,0.33280975340347935,-0.09881782486659958
6.74609375,0.45870386908171973,-0.44044285251903187
6.75,-1.5590921024715423,0.3425918163703528
6.75390625,-0.5703875229229232,2.2933864812415856
6.7578125,0.9036535701329366,-0.022874971663841056
6.76171875,-1.062873314589727,2.2995771585551856
6.765625,0.13179402236448018,-0.6301549913270567
6.76953125,-0.695212529974396,0.1777471037497368
6.7734375,0.3432682380285638,-1.0882986291435133
6.77734375,0.24368953324523743,0.8364703476138013
6.78125,0.05678374567511752,1.0074244902249307
6.78515625,-0.31185111226048773,-0.18110358839798216
6.7890625,-0.41559244710773086,0.151683476844943
6.79296875,3.0376765160393244,0.037501362205295624
6.796875,-0.027407230701782016,-1.5252013893321572
6.80078125,-0.8024503237453007,1.6589261318764035
6.8046875,2.349376379596461,0.9287707189834031
6.80859375,-0.07204006657543903,1.0728291316712422
6.8125,-0.9599864246485446,-2.1919915660618403
6.81640625,-0.17276114199171327,0.44754809726391337
6.8203125,-0.9741565515756014,-0.3799019781380168
6.82421875,-1.4785352365392406,-0.19542766970930112
6.828125,0.8443896321724862,1.6117296496501454
6.83203125,-0.9025018246887755,-0.5751820536054034
6.8359375,-1.9911516804139213,-1.0446222803742145
6.83984375,3.2438669763895818,0.2384231865331258
6.84375,-0.8110592724331048,0.15537380683668506
6.84765625,0.6663058979498403,-1.205590926737337
6.8515625,-0.1502370990645373,-0.24450319373275503
6.85546875,0.2858592761977419,-0.6928697111400228
6.859375,-0.3276626736693436,1.0517815571167264
6.86328125,0.9846830266595868,-0.4742464206670942
6.8671875,0.9981528097858778,-0.9019198450744511
6.87109375,0.82481524064349,1.1008922257754952
6.875,1.0251623835516719,0.7601159746896876
6.87890625,-0.48968790500662246,0.27001149218977
6.8828125,0.7914696300042917,0.632203094313605
6.88671875,0.3250098637717441,0.9571751260570728
6.890625,-1.3893159525125924,-0.43457451605791053
6.89453125,-0.5000312067583883,1.915028391921453
6.8984375,-0.1563739167801631,0.8711136320186004
6.90234375,-0.08883261229565383,-0.6182661228099989
6.90625,0.799439914198104,-0.8846987102848632
6.91015625,-1.4651762930281325,-1.1785300409692054
6.9140625,2.0817848010713145,0.8203467364279075
6.91796875,-0.4639110069612044,-0.26308834786065743
6.921875,-0.38387745418379854,0.11600378454672207
6.92578125,0.6342093885420196,-0.30380388723267515
6.9296875,1.6975441584681115,-1.9484713839504362
6.93359375,1.5747154975338207,0.8774841972060259
6.9375,-0.7731902414357242,-0.8890565327515463
6.94140625,-0.4708896282737301,1.265792296395802
6.9453125,0.047731218747274276,0.5429306872007259
6.94921875,0.7557922559106063,-0.09347074814201546
6.953125,1.1078351221022278,1.4216912677742573
6.95703125,1.1786194231338787,0.5869701281858826
6.9609375,1.663445882602674,-0.13596092416270278
6.96484375,-0.8678439800616929,-2.6774295679439817
6.96875,0.912089811508832,1.093816302151663
6.97265625,-0.23257026983129184,0.7385395604188721
6.9765625,-0.556879211321781,0.714555748991606
6.98046875,0.7846561276180767,-0.5560689015350686
6.984375,0.49337679074074575,1.7950475681354752
6.98828125,-0.8643977778367752,-0.05054369993015221
6.9921875,0.04024819149986907,0.03953158622033347
6.99609375,-0.2892645289108469,-0.5355960970347713
7.0,1.462070737287698,0.6404037196352808
7.00390625,2.1494432060660946,0.28637802801765977
7.0078125,1.4459310832187404,-0.8637802509430186
7.01171875,0.5620759929321281,0.043999957951455775
7.015625,-0.21803076378898903,-1.2485274555614856
7.01953125,0.3185197298403947,0.37335700493658075
7.0234375,-0.8584475987657713,-0.7556517199353703
7.02734375,-0.24162530109722105,-1.0378060095788741
7.03125,-3.027366790819862,0.7189452372948388
7.03515625,-0.5013793104337172,-0.9034917057658709
7.0390625,0.17722225562676325,-0.3898598378870887
7.04296875,1.1576000611720416,-0.45137149605714183
7.046875,-0.021210730833820583,0.1909662030672442
7.05078125,-0.2076393865667736,-0.08099684700941269
7.0546875,0.4154258908812065,1.4245873447817907
7.05859375,0.33199603416320267,0.8665371529414471
7.0625,1.0606872505241758,-1.0355099022249072
7.06640625,-0.7725981621924247,1.0913674404895022
7.0703125,-0.2873686425140383,0.1367818943551528
7.07421875,1.8368008112247107,1.0100525791048227
7.078125,1.2185966411936815,-0.7511879803414052
7.08203125,-0.35299801243855694,1.5556887441806935
7.0859375,0.5991273934110034,-1.1208996490389536
7.08984375,0.12581999187823464,-0.3784940053879229
7.09375,-1.7857274989853251,0.06520520018940715
7.09765625,-2.0765929914574373,-0.7550209846621093
7.1015625,1.2498069647505463,-1.5709071443764653
7.10546875,2.1674876257441187,-0.16334676048455662
7.109375,-0.22264092345636058,0.5796920918138736
7.11328125,0.9548576293765948,0.2355323430470285
7.1171875,-0.05015324130884803,0.8026340629791306
7.12109375,0.06582412720669654,-1.3195171941208785
7.125,-0.5620534728679136,0.6690304383027759
7.12890625,-0.6022539558960849,-0.7920052385166896
7.1328125,0.1915866280479852,-1.2253214204689593
7.13671875,1.3311746957411221,-0.5020347183333649
7.140625,-1.5547912386205363,0.09086791075426805
7.14453125,0.1650716766135324,-0.7996591339538277
7.1484375,-1.1675325481305638,0.045341325338405784
7.15234375,-0.7927180247074836,1.6612209147408392
7.15625,-0.5563275009789796,1.3372127007922379
7.16015625,0.8099125467600515,0.8371407254051357
7.1640625,0.35060244524412815,-0.7877333840678864
7.16796875,-0.04518727598648176,-1.2592643215311317
7.171875,-0.5106376879670889,-1.2417919730178701
7.17578125,1.202751629459787,1.0027144985419352
7.1796875,1.0989242204865195,-0.8510083300843297
7.18359375,-0.3748399580846844,-1.5922122849647768
7.1875,-0.933139904577216,1.335312207072627
7.19140625,-1.1545919620558085,-1.0454049443563345
7.1953125,1.571034008388771,2.154802469048256
7.19921875,-0.8706151230069032,-0.006430468141839571
7.203125,-1.2820150418843779,0.6524077272791015
7.20703125,-0.6763085287663188,-0.09249542050893511
7.2109375,-2.5024112057762156,1.4325754175801741
7.21484375,0.06435003389204806,1.0053570738830682
7.21875,-0.7328178431757959,-0.17367284726754117
7.22265625,1.6931841128226934,-1.3056066532519106
7.2265625,-0.17627443486805053,-1.4460269894186202
7.23046875,-0.7339653811710305,-1.0219331354039065
7.234375,-0.27384529508913336,-1.2757279673546043
7.23828125,0.010836570129074645,-2.79411430244498
7.2421875,-0.6358979650841028,-0.8598562775631902
7.24609375,-1.023509518325557,0.7368715875720969
7.25,-0.1360156949043289,0.22999421108384221
7.25390625,-2.5113895297852253,-0.5631803435114979
7.2578125,-1.848922219700666,-0.7653161352931521
7.26171875,-0.8371495647687441,-0.740205042473764
7.265625,-0.7273988399965958,0.7939010250685661
7.26953125,-1.0534540631768747,0.5893104489883607
7.2734375,-0.24526446768393484,0.12550202209478087
7.27734375,-0.7923621156705353,0.2554282718292641
7.28125,0.47032984938235456,-1.4896590637180613
7.28515625,-1.4209891716710576,0.09027955904331202
7.2890625,2.385902744589586,1.602462701500522
7.29296875,-0.8676393184321871,-1.0291183689319963
7.296875,-0.8555207281225558,-0.9369290719871091
7.30078125,-1.4299268203288915,-0.9033947419174503
7.3046875,-0.7337560390351094,-0.18939089287431707
7.30859375,0.025383455628231306,-1.9444563015708798
7.3125,0.008399753879421375,0.9078725824054444
7.31640625,1.7497899985126528,-0.22540241677943784
7.3203125,-1.09095789904088,0.47689866870061687
7.32421875,-1.070136368308792,0.08235411136746236
7.328125,-1.5891889473704153,0.16725431228659077
7.33203125,1.0927276227347638,0.8896673825754127
7.3359375,0.02878836917859161,-1.9553127428479316
7.33984375,1.0784553288901968,-0.1874131764825567
7.34375,-0.0675418335017621,-0.3263007551156411
7.34765625,0.4172649327195296,1.0541042501805338
7.3515625,0.6190236052604644,-0.8238031879743393
7.35546875,0.3102322062134785,-0.727228231369982
7.359375,0.49022258524048945,-0.7731786863900428
7.36328125,1.320051870424723,-0.42582890292202585
7.3671875,0.40319516824623025,-1.2967677562614597
7.37109375,-0.6748335492178257,1.6534421681837748
7.375,0.843815181651375,-0.844777218793916
7.37890625,1.3244633712965312,0.17712577934950552
7.3828125,-0.6292684686945677,0.8179511970360968
7.38671875,0.8553778249364787,-0.28651774226714616
7.390625,0.8441412482770378,0.6263454549681939
7.39453125,-0.7883838800070306,0.2385193222545726
7.3984375,-0.09448221169523016,-0.27190477429703797
7.40234375,-0.6411538221444507,-1.80170214815021
7.40625,-2.46991001749594,0.2912213043314886
7.41015625,0.7291006855576825,1.6230356466412137
7.4140625,0.09230329294094622,-0.40460434456172284
7.41796875,0.10352186725394388,-0.6221479813366108
7.421875,0.029008300016126788,-2.292144352643722
7.42578125,-0.3224291020058514,0.5827106752433483
7.4296875,-0.7728365463781524,-0.4446128556333133
7.43359375,0.8978980162900647,-0.5878036851508563
7.4375,0.5071291381074003,-1.2261719458802571
7.44140625,-0.46886251493558756,1.3883714843735608
7.4453125,-0.8641048671555879,1.9866340203763788
7.44921875,-0.09799499775346655,-0.6098095592499251
7.453125,-1.0319212441050172,0.25011408547226777
7.45703125,0.84000336139334,-0.872666938666589
7.4609375,0.5854034836406387,-0.85046965075602
7.46484375,-0.001781533500580927,-0.024424152521636926
7.46875,-0.21754557560189128,0.1259259831139026
7.47265625,-0.713300143008555,1.0502516529847068
7.4765625,-1.138749424382737,-2.325045580343609
7.48046875,0.25823877125206135,-0.8551521548167129
7.484375,0.9187293531429047,-1.3405356427318706
7.48828125,-0.3092403199890346,2.574943805662105
7.4921875,-1.787890256195729,-1.0493364815660178
7.49609375,-0.07631430934823502,1.0126533254865386
7.5,-0.8563771604849676,-0.7093132217998329
7.50390625,-0.15756405115448527,-0.4464592446888179
7.5078125,0.9829158827662391,-0.1507216598050387
7.51171875,-1.9699589382689955,-0.16904796829731195
7.515625,-0.6258378705398188,0.5550659825966529
7.51953125,-0.15716414326880726,-0.9430957785977123
7.5234375,-0.6617065518586491,-0.10822083453445244
7.52734375,-0.6342283561601798,2.231835343908406
7.53125,1.1521814402802117,-0.42915483184440006
7.53515625,0.5527179159754144,-1.0379386401363195
7.5390625,0.3624656843821447,0.5549650468460978
7.54296875,0.22777822776132434,1.8610266997684968
7.546875,2.3902702523895107,0.3972764057172993
7.55078125,0.3151391358349538,1.4816995471780479
7.5546875,-0.9592492672587624,0.09906092302734595
7.55859375,1.8507465605546003,-0.8445946383969173
7.5625,0.34769868655888114,-0.5397148663909329
7.56640625,0.9365042353240839,2.086827358773931
7.5703125,0.03918322515986753,-0.9537531406720446
7.57421875,-1.6623568943480842,0.2854967315832652
7.578125,0.2264400487934828,1.6231522144763815
7.58203125,-0.10589886737292697,-0.1094774533228362
7.5859375,-0.24872536182209523,-0.5682937596867851
7.58984375,1.5093952582697732,0.23266705119643394
7.59375,-0.8717456766825407,0.9150159851268386
7.59765625,0.023330692624151574,-0.011937992381141464
7.6015625,0.46093458248642954,-0.9541198443523549
7.60546875,1.2558040498804341,-1.095828888758951
7.609375,0.8151490377947503,0.369576595116415
7.61328125,0.36778558448782994,-0.7758861106844848
7.6171875,-0.2445482298649317,2.3406857824617133
7.62109375,0.006422671870261902,-0.45493107230042473
7.625,0.12158416484692952,1.089947098642788
7.62890625,1.3993382089250919,-1.075720986511291
7.6328125,0.7953843576557891,-0.2735709781747365
7.63671875,-0.7121645714214421,-0.2583054176245441
7.640625,0.6838381157502407,0.32870186063213086
7.64453125,-0.6879087401083446,0.49667212615707496
7.6484375,0.18844486500983357,-0.0839098112828306
7.65234375,-0.6109913852114971,0.702596594778126
7.65625,-0.09995735265221885,0.5455135232509319
7.66015625,0.3744559531606976,-1.2765621599542343
7.6640625,0.9548354325307404,0.3800776023769981
7.66796875,-1.1516483431622342,1.764768400789681
7.671875,-0.8840826815127553,0.6869155572187419
7.67578125,0.03207459404141564,0.46051874855654357
7.6796875,-1.3921355612899453,1.9637639297572602
7.68359375,0.44411520692880696,-0.009608401320011326
7.6875,-0.06708065836272166,1.9117711865488256
7.69140625,-2.3049631225743914,-0.8611027155237482
7.6953125,-0.4067610297792707,0.0034893626465910587
7.69921875,-0.2768638239094565,-0.20711015483152045
7.703125,1.3067910097363187,-0.12667452039493612
7.70703125,-2.255288762502187,1.404729453369213
7.7109375,-0.20610495799636813,0.1370662712601268
7.71484375,0.06074594039651695,2.3479485023879305
7.71875,0.18832324560205874,-0.5117348439424635
7.72265625,0.8175500499254422,1.5172791945636592
7.7265625,-1.4385854463601653,0.9971694347923997
7.73046875,-0.3072107520016153,0.4511361346104458
7.734375,0.22898147061922572,-0.7089226540220943
7.73828125,0.12481042489193797,1.2205058616559414
7.7421875,-0.43667471800994795,2.260036325488077
7.74609375,1.3708535246736324,-1.534271420676474
7.75,0.1953691374068356,-0.046089190357970336
7.75390625,-0.5256314774825835,0.769717610593382
7.7578125,1.1227840012398602,0.008281675628571149
7.76171875,-0.12128346031896099,-1.150398518550545
7.765625,-0.9362076099242937,0.5590499041993985
7.76953125,0.2418810674382315,-1.1338956239947802
7.7734375,-0.07463292157917935,-0.8135828873669952
7.77734375,-0.28780351288116607,-0.29801849182725243
7.78125,-0.5625790490944164,1.6574937957674003
7.78515625,-0.10076373844934487,0.4156007130008679
7.7890625,-0.4338618699269593,0.9822185334376345
7.79296875,1.1906131679417136,0.5625620929094195
7.796875,-0.38376239994618944,0.17910156703737432
7.80078125,0.39230133843845466,0.0203100628529513
7.8046875,0.8468314919187093,1.7138334011200844
7.80859375,-0.6845748747903896,-0.02664479253284783
7.8125,1.5239594197789708,1.5822835503940924
7.81640625,-0.20378987276838284,1.2206484014289218
7.8203125,0.43753135281105765,-0.10196807184150318
7.82421875,-0.9170496979156986,0.25294269698714694
7.828125,-0.6769447402309763,1.636156592288411
7.83203125,0.5932828902138865,0.25060941653744884
7.8359375,0.8351643545154985,0.04791090197945849
7.83984375,0.35720815356380786,-0.48124126462689903
7.84375,-0.17711869364045726,1.5395853909397825
7.84765625,1.1372370753889147,-1.7215958785999212
7.8515625,0.0990809522540038,-1.0953787915344315
7.85546875,-1.2201070240724483,0.7418689237026274
7.859375,-0.33694826503179587,3.20977059287419
7.86328125,1.0248980640906034,2.7353035926289677
7.8671875,0.8177715961174643,1.2242183012638927
7.87109375,-1.2520845396374363,0.40366800118876994
7.875,1.6372956014842661,-1.025330823806034
7.87890625,0.9096491226292144,-1.5508607270819315
7.8828125,-0.845112669391096,0.5119761769230468
7.88671875,-1.9460531024100534,0.20601368739163775
7.890625,-0.06383650280120667,-1.400326920209765
7.89453125,-0.05212045380957841,0.5797331893224424
7.8984375,0.16812447145296397,-0.6739301597011278
7.90234375,-1.0472550979331139,0.6571950594595227
7.90625,1.17403760335268,0.20045405970662064
7.91015625,0.08700486930222204,-2.4695018158628343
7.9140625,0.6753389306562366,-0.5818171109636129
7.91796875,1.671267758319179,-0.4240149648844778
7.921875,-1.6701154676126873,-0.09492373983942137
7.92578125,0.19665247628376675,1.4387988817880235
7.9296875,-0.2296915895362684,-0.35633559754547817
7.93359375,-0.7452063685982054,-0.06774277512155878
7.9375,0.18601627194260792,-0.18756775110565746
7.94140625,-1.0361984693371393,1.4298271007017647
7.9453125,0.1274855920138847,0.6579502747966204
7.94921875,0.6465860416505878,-0.25328939957630286
7.953125,-2.530338463307894,0.24259748890930208
7.95703125,0.051802955517790496,0.16541564082463336
7.9609375,0.4653625699959963,0.40720154326863217
7.96484375,1.449370882831116,0.7456876433061684
7.96875,-0.04786396654495513,-0.1583892211423828
7.97265625,0.3401773468812976,-0.5747972274419202
7.9765625,-0.6084571734762865,-1.0249205088185394
7.98046875,1.258801148132496,-0.15317934573798725
7.984375,0.7505892035027124,0.8337805947485669
7.98828125,1.4277308718223913,-0.8816150905178561
7.9921875,-0.12571206768832008,2.1842511466861687
7.99609375,-1.5427496622339916,-0.2260609253397939
8.0,-0.5514739803108232,-0.9683533158922814
8.00390625,0.5822592430972606,0.21431510558568284
8.0078125,0.4551900100864631,-0.46477865946644153
8.01171875,0.4286571599089559,1.1638898459819593
8.015625,1.5102835318379595,-0.7367248102584949
8.01953125,-0.7760428126652126,-2.3547740906952437
8.0234375,-0.5851182544707241,1.473450459130917
8.02734375,-0.07359185588449191,0.9104339634591471
8.03125,-1.3952988298574862,0.16956991639401514
8.03515625,-0.07911424567516727,2.4055872748052693
8.0390625,0.34708651212309394,-0.684656223153241
8.04296875,-0.5566545607744019,0.7134866817961516
8.046875,0.301687192438118,-0.08353511917018676
8.05078125,-0.7955020605044298,-0.1902340787590098
8.0546875,-1.4162298663359194,-0.21900458820799093
8.05859375,-0.7915426707011445,-0.016462497278667478
8.0625,-0.26720273191622357,-0.24254789643807137
8.06640625,1.3810376548139953,-0.499674576822003
8.0703125,-0.18252381329410694,-0.591242855243105
8.07421875,-0.9957461708945022,-1.6731963824019163
8.078125,0.5781631687208839,-0.7702227846596739
8.08203125,0.1892559543874167,-1.1299678836577136
8.0859375,2.195181474286848,0.44391784447881233
8.08984375,-0.4690129617311312,0.30720348096824024
8.09375,1.2526400092023315,0.03412436320789332
8.09765625,-0.8540509851049777,-0.8387012394045124
8.1015625,1.5829773500036775,1.360272335269826
8.10546875,-0.16554847624167413,-0.3563756849724709
8.109375,-0.18233637595641128,0.006343418383979645
8.11328125,-0.8237930105779971,-0.12113835481425035
8.1171875,0.10433911810644532,0.6268206783761291
8.12109375,0.43890236651326214,0.24826157131438148
8.125,0.4467189445741938,-0.2833687828152592
8.12890625,0.3976829548688838,1.2003924088859723
8.1328125,-0.3729705449743168,0.5880249381738338
8.13671875,1.6169210190305339,0.5491891101235018
8.140625,0.8783162136413024,1.855271259502875
8.14453125,-0.5957815721913722,-0.329214031781175
8.1484375,-1.1405702658178325,-0.908991714997846
8.15234375,-2.9620452679090663,0.48392191484759867
8.15625,0.2733170998778774,0.6798617048840928
8.16015625,-0.36579577394083507,-1.0033000190982777
8.1640625,0.862102235791819,0.44665918363287915
8.16796875,-0.32778296116209804,0.03906582272422861
8.171875,-0.6887399693609421,-0.6904879900752274
8.17578125,0.20748348961637603,0.23097705448743328
8.1796875,-1.0287463687342,0.0910691270327309
8.18359375,-0.7954712508881027,-0.8506118625688025
8.1875,0.5786310791208708,-0.3501531334450628
8.19140625,1.4183862330998058,-0.7804023076048375
8.1953125,0.2821039828070359,-0.2249272582673055
8.19921875,0.6406005849459828,-0.5939339395118259
8.203125,-0.39310536024282666,-0.23697576026115239
8.20703125,1.5917063590400229,0.74089946198867
8.2109375,-0.46575554795586493,-0.48571074353970917
8.21484375,1.3374883814235616,0.2999440472348953
8.21875,0.13848588928356365,1.4951003462321315
8.22265625,-0.9102841499508457,0.4141143005442112
8.2265625,-0.12918329444075394,0.976281623113879
8.23046875,0.12208264342682243,-1.1121870957781403
8.234375,-0.4875664897655449,0.1517846050984851
8.23828125,1.0537793708830547,1.684224436771388
8.2421875,1.9754944761360351,-0.6695347982821943
8.24609375,0.4713003079608457,-1.3271484596899195
8.25,1.3509275772157867,-0.6554209765936041
8.25390625,0.2815015828164492,0.2731742943315344
8.2578125,0.4559449566540943,-0.3355798475191813
8.26171875,0.44985029991903863,-0.9010178097605813
8.265625,0.7670210053536977,-0.895689499204148
8.26953125,1.1453532382518568,1.9851423477534809
8.2734375,-1.1849559690559868,1.9325389283342187
8.27734375,-0.7167961031829707,0.253662921173743
8.28125,-1.168322038522012,-1.8820986740196826
8.28515625,0.8676573317386773,-0.5974327375184232
8.2890625,0.5341923131116687,0.04926857394446457
8.29296875,0.30673723929655144,-1.8992582226080221
8.296875,0.3329365649895511,0.24585645731470862
8.30078125,-1.5992229306512797,-0.10974179179256541
8.3046875,-0.7337143838803938,-0.7988084547890948
8.30859375,-0.7549285019156896,-0.31095364188913804
8.3125,0.4940462892369189,-0.15321802779029345
8.31640625,0.11832927799641664,0.4443940846704707
8.3203125,-0.1162136357109855,-1.052923841047186
8.32421875,-0.6646292077387197,-1.0119350136602274
8.328125,-0.13420873632775937,-0.8848369487628331
8.33203125,-1.0347203500852418,0.8107664561443576
8.3359375,-2.2709187834501585,-1.7211955002028687
8.33984375,0.3645681493693529,-0.8795260470970653
8.34375,0.9873497203892557,2.2703838234772573
8.34765625,-1.0107707106059451,-0.8405975891948437
8.3515625,0.5849655854425904,0.3020452425971161
8.35546875,1.2413784552688911,0.7016064760025728
8.359375,1.1974480041204316,-0.4293366315468106
8.36328125,-0.8553396744525015,0.6205645043644289
8.3671875,-0.13482423878965819,-0.7688444263845146
8.37109375,1.3623487512057535,-0.7631219777681437
8.375,0.6933295510362708,0.8213182929691983
8.37890625,-0.08818699808879543,0.7757523089770738
8.3828125,-0.35766539267200337,0.9351776932907165
8.38671875,-0.16185549539989513,-0.7582985045019681
8.390625,0.3140007317643704,-0.019920451328996055
8.39453125,1.0226298193620258,1.0690861899735729
8.3984375,1.0611488715862447,2.6060228509485537
8.40234375,-0.4626373243007246,-0.24289515230769965
8.40625,-0.0956024365793128,-0.5903634700102971
8.41015625,-0.38747617730322326,0.2445009827013263
8.4140625,0.6955583202013988,0.4865773765702659
8.41796875,0.2601021296767187,-0.13334165326737155
8.421875,-0.028401223425380342,-0.08284465285717757
8.42578125,-0.8939815478757661,-0.8624686455593115
8.4296875,-1.4097074134763956,-1.7295355812943396
8.43359375,1.8936410576865739,-0.1316890980235911
8.4375,0.9121765865535246,-1.8024790045954189
8.44140625,1.250015645633259,0.2834520425642282
8.4453125,1.2359514175254465,-1.3791013260833906
8.44921875,0.9195994240835568,-0.5993292725902503
8.453125,-0.30500911572983863,1.1185577326414677
8.45703125,-2.033146504345343,-0.8939892114558802
8.4609375,1.9984965465634605,-2.2632121054247825
8.46484375,2.7448531634101125,1.510543002443097
8.46875,0.2608232555622874,-0.23906033235479265
8.47265625,0.6375087456240368,0.2018999248122878
8.4765625,0.3486607092272703,0.3360251555111711
8.48046875,-0.29787960569783817,1.1051298687457203
8.484375,-0.9996676877318434,-0.1527563629653515
8.48828125,-0.3069179166538568,0.7691195344213091
8.4921875,0.3305568046490003,0.7462688391587184
8.49609375,1.3295931816246647,-0.3500038541904782
8.5,1.488763334831508,0.5504555582114415
8.50390625,0.5398899952223488,-0.29816212076398363
8.5078125,0.16664559954232966,-0.7140435762390035
8.51171875,0.383493905087946,1.648948467786329
8.515625,-0.11354705530826295,-0.5338951954388526
8.51953125,-0.28520935086696375,0.5911586237377008
8.5234375,-0.042795410348749514,-0.64379282241118
8.52734375,0.5452381215117599,0.8043571425049854
8.53125,0.18353013876374477,0.5994483347925524
8.53515625,-0.2976695564426103,-0.11304836462865235
8.5390625,0.5312444735278913,-0.04027213659884789
8.54296875,0.0694072666606919,0.7890955660034352
8.546875,0.7101276120474397,0.9174548947271183
8.55078125,0.47312455192246217,-0.2534409697899717
8.5546875,0.6736652742068546,-0.21715447544112224
8.55859375,-1.5403012811124044,0.09578065019364637
8.5625,0.3011798978398765,-0.8823957862562891
8.56640625,0.5095119952936416,1.786659756424761
8.5703125,0.2591058602233993,1.1259447796304107
8.57421875,-0.43791006015014655,0.9688622474524442
8.578125,-0.39695337797022584,-0.39807531678367375
8.58203125,-0.4604122625419303,0.7291565645540466
8.5859375,0.12971224124414785,-0.5632382107021892
8.58984375,-0.43346654596498524,0.000593007786753257
8.59375,0.7699587082216752,1.0077895912733457
8.59765625,0.1270545556926124,0.24591671211605592
8.6015625,0.3522833658336173,-0.8953925887207617
8.60546875,1.013653882429819,1.8561879407982214
8.609375,0.3657098787997634,0.6246624327785324
8.61328125,-0.0799198289001621,0.7080631707510576
8.6171875,1.2146260042100334,-0.8238159981292941
8.62109375,2.687655929919907,2.214277181147836
8.625,-1.9082121033798471,0.4360755867840538
8.62890625,0.9475484609913334,1.1717588291700922
8.6328125,0.7005909899360001,0.15076064838644568
8.63671875,0.8132365625120201,-0.839737876550691
8.640625,-0.121105828078477,-1.3153683533827438
8.64453125,-1.171173586670477,1.0750737519977362
8.6484375,0.3469111011202825,-0.20308326584595493
8.65234375,-0.40215279963471434,-0.41170993458286026
8.65625,-0.8732147940502125,0.631162950612453
8.66015625,2.6826154373719566,-0.8434705369649004
8.6640625,-0.6416002851217562,0.12662146520512368
8.66796875,-0.2703747024121496,1.3148891659799848
8.671875,0.9153173206339732,-0.25482173939270714
8.67578125,-0.9855497192795446,0.04778577792089374
8.6796875,-0.5936275316479461,-1.011258574947012
8.68359375,-0.10535551046502878,0.6607406349403732
8.6875,0.39857157677100513,-0.1796478838770016
8.69140625,0.7928099753783864,0.8948686189392557
8.6953125,-0.6186095958263619,0.46473554044465754
8.69921875,0.9386408118726445,-0.00862997423339792
8.703125,1.315505145766088,-1.0616526534395565
8.70703125,0.5264806486919903,-0.05700410574231727
8.7109375,-1.3653729813094548,0.6474873134507649
8.71484375,1.2369624632475733,-0.18885046198742217
8.71875,-1.2632939001127572,0.727927919745893
8.72265625,-0.3653031737782289,1.269281872574406
8.7265625,-0.23252823396738714,-2.4783057158211665
8.73046875,-0.6128203223630428,-1.6546716103791763
8.734375,-1.6723109321489313,-2.0899070988626853
8.73828125,0.041192320725475066,-1.0750078535462884
8.7421875,-0.6427717270099507,0.18084297854386658
8.74609375,1.1161071758353847,1.0728942905137682
8.75,0.4981232032630905,-2.292558163705461
8.75390625,1.796042472628642,-0.855788308941011
8.7578125,0.07473630726395558,-1.88116840027367
8.76171875,0.46546080446784416,1.6954858645849626
8.765625,-0.7996051227341165,-0.7292568247249019
8.76953125,0.016557301302772588,0.18986020827576428
8.7734375,0.3701274972390738,0.5663166313091552
8.77734375,2.7827978203476147,0.06018843853613045
8.78125,-0.8794309466392132,-1.321117608506982
8.78515625,0.6690127761088198,1.440927123489385
8.7890625,1.3833353638002968,-1.080142114761131
8.79296875,1.1336167024399904,-0.9641916965205126
8.796875,-0.7187238334483678,0.21879928254761302
8.80078125,-1.605830634889996,0.26548278924986785
8.8046875,0.9144409666452632,-0.8514897343575051
8.80859375,-0.762544166478216,-0.5745972610201153
8.8125,-0.2699361268822344,-1.0306233638910653
8.81640625,0.4916368451310177,-0.9280109293693573
8.8203125,-0.8341565862151235,-0.14671028749365578
8.82421875,0.31590877336733997,0.40711795442489773
8.828125,0.7512657763822805,0.30757592736471107
8.83203125,-0.21310654729458303,1.4690234955397945
8.8359375,0.4800824945999828,-0.21253677466409776
8.83984375,-0.3273035203722014,-1.9129929891450321
8.84375,-0.9219462635487831,1.51017894968849
8.84765625,-0.7016961557033067,-0.8659439360209817
8.8515625,-0.740527709738998,-0.4799621502241565
8.85546875,1.5121137068754678,0.47784637544170294
8.859375,-0.1758866199169097,1.1256272327981725
8.86328125,0.5639118079201421,0.4731572043834107
8.8671875,0.24937864105628543,-0.5053207478383933
8.87109375,1.9616296505765258,-0.2631969685637496
8.875,0.44017708286488855,0.7219913519315794
8.87890625,-0.9469888264688197,1.4367249544052418
8.8828125,0.9952585061355469,1.7923780343226154
8.88671875,2.01801800414081,0.5357730266246551
8.890625,0.6525173819065325,1.3235696315808854
8.89453125,-0.5665501646821375,1.2723923100999863
8.8984375,0.3624502941238365,-0.39561969125228347
8.90234375,-1.4706695257339295,1.245678299353743
8.90625,-0.7571192089207667,-0.4528841013453659
8.91015625,0.041144834373090335,0.7892335022820377
8.9140625,0.6667797805613372,0.31780252546413335
8.91796875,-0.29532005681473655,1.266466177736649
8.921875,-1.291679792149127,-0.7579634472665503
8.92578125,-0.09881525861409382,0.1252785887364419
8.9296875,0.6467420197292572,-1.048632264788376
8.93359375,0.7016201193015931,-0.25222441599064604
8.9375,0.30099129574229005,-1.2787060285156577
8.94140625,-1.3561891919628986,0.3111801816345456
8.9453125,0.0038398659363950566,0.05187647707111577
8.94921875,0.5364058014531286,0.5405749097272217
8.953125,-0.1578380549745074,-0.8702261522940292
8.95703125,-0.11386949790472801,-0.2210226394349777
8.9609375,-0.6695587127015875,2.1794055511718122
8.96484375,1.6397275493347039,-1.539320940361399
8.96875,0.7854819065569133,1.221158077155383
8.97265625,1.1223118803827803,-0.4108141018686558
8.9765625,-0.8250787488747283,1.070949828360953
8.98046875,-1.1344478211928144,0.0437588956537844
8.984375,1.2426674757596883,0.3626725995675757
8.98828125,-2.0403055112646014,1.0212483350965693
8.9921875,1.7995044907943853,0.09470538562415243
8.99609375,2.0715414260175136,-0.8512667865206068
9.0,1.6948950292658296,-0.3039636887173911
9.00390625,-1.9479249863425534,-0.959749515929125
9.0078125,0.9857629843969771,-0.7509905469475093
9.01171875,-0.8220392590372241,1.1526034644299532
9.015625,-0.3776531466072546,0.011817620879520315
9.01953125,0.1008035209934198,0.3227948986678004
9.0234375,1.0981884159758428,0.35127068910308024
9.02734375,0.6795105614097228,-1.250884205696286
9.03125,0.1494323170705785,1.000357513907567
9.03515625,-1.1910486737346007,1.5181898870414572
9.0390625,0.6391918257266134,-0.37511344824320303
9.04296875,-0.29910570008977394,0.33479071677654165
9.046875,-0.19919106797943809,0.2982527555345772
9.05078125,1.04306154149326,0.09610715028536523
9.0546875,0.422580672033553,-1.1232934907082133
9.05859375,-0.8099626692506422,-1.21286385470829
9.0625,0.6078908786875167,0.21621554902062803
9.06640625,1.718375743833323,0.3736285574633349
9.0703125,1.6684363705360092,-1.6256646333429028
9.07421875,-1.8089655326989116,-0.5864338564683693
9.078125,0.9908391141619849,0.7779574346968217
9.08203125,0.3879738697678706,-1.0795124779948089
9.0859375,0.7016899028674631,-0.07371395201131635
9.08984375,-0.6801829244873592,-0.6420607392784417
9.09375,0.7035918739932839,1.7765680549673024
9.09765625,1.7518786471687169,-0.6882135096121877
9.1015625,1.6072302592281267,1.6927144772480869
9.10546875,0.5466086131568683,0.22731736663747895
9.109375,0.8822294001293963,-0.27937620501445215
9.11328125,1.2164056583522966,0.6399757006009742
9.1171875,-0.7764036343990536,0.9793143139598733
9.12109375,-1.057337420120886,0.046834113401526024
9.125,0.4420179002532931,-0.4027100342077723
9.12890625,0.07431811138476122,-0.029439694700538675
9.1328125,1.2250573067654826,-0.944571908978944
9.13671875,-0.6657194233795457,-6.1011930636443683e-05
9.140625,-0.5205995409509109,-0.37690460610023935
9.14453125,1.1465329406443214,1.8413676239621584
9.1484375,1.300548564617052,-0.04505315554610286
9.15234375,-1.0058413635447345,-0.02542889565318846
9.15625,-0.353559807393991,0.6400304065396767
9.16015625,-0.10615940252490143,-0.9440323154727566
9.1640625,-1.4269655041395424,0.6548368322779874
9.16796875,-0.4455686852900235,2.595998390880398
9.171875,-1.1047194683272565,0.6817249835688867
9.17578125,-1.0948912993465862,-0.9250730471324442
9.1796875,-1.6564853136798527,-0.00743900416551846
9.18359375,1.0357815978878413,-1.1341294070166077
9.1875,-0.970681377037817,-0.8983046223652332
9.19140625,0.7481872877860354,0.7746639598700698
9.1953125,0.3627954785184459,-0.44195443425938147
9.19921875,-0.2097580724547246,0.8847333832342401
9.203125,-1.0890541630682495,-1.466007422979372
9.20703125,1.3544334087976553,0.07512532373593983
9.2109375,-0.40325571221636997,-0.6212373070722377
9.21484375,0.2432815017887861,-0.6780482673886001
9.21875,-0.27968243342371046,0.8215846416907103
9.22265625,-0.08702106710033969,-1.8215541047118549
9.2265625,-1.108508220810764,1.0804074009749216
9.23046875,0.4465946966967949,0.5744999364358879
9.234375,1.3850270826961768,-0.9866603792494532
9.23828125,0.060128125790436866,2.772580660567926
9.2421875,-0.013620665819779464,-0.22339094055866868
9.24609375,0.705182464314004,-0.8043300411065627
9.25,-1.4544390052847105,-0.17721702766289443
9.25390625,0.6549105693043378,-0.38458384555170594
9.2578125,0.39923839144569884,0.8209486014319576
9.26171875,-0.514599037687174,0.45691300277461244
9.265625,0.7102523002057033,-0.9042874965490857
9.26953125,0.4208462334262448,-0.27417768359770917
9.2734375,0.3299871696610406,-1.1308180498542946
9.27734375,0.070630486478451,0.5527835828399548
9.28125,0.3273809833151618,-2.1208292972384246
9.28515625,0.9668728912162737,-0.6127302495610892
9.2890625,-0.1479233162535836,-0.4017693556734223
9.29296875,-1.1482260265401016,-1.4918999967701387
9.296875,1.0008783629498732,-0.40613918016632244
9.30078125,0.551133730694435,-1.2775795839512374
9.3046875,0.608555438867307,0.1416433206926646
9.30859375,1.3190792161527303,0.3550504686979504
9.3125,-3.0141685870756283,-0.9709053733097536
9.31640625,0.22696453840186648,0.7213868655688812
9.3203125,1.2348246357654842,0.9169294082651672
9.32421875,-1.5075043300416886,-1.2026023774875816
9.328125,0.07749999138405912,1.2962755509677069
9.33203125,-0.444149187871346,-0.9516260074957218
9.3359375,0.4940997021501352,-0.2699081521851588
9.33984375,1.049263305408224,-0.5306610784667878
9.34375,-0.11148570075192787,1.2335744913241125
9.34765625,-0.13841878726024298,2.435845758086634
9.3515625,0.33372536933668917,0.3989276180325932
9.35546875,-1.0898080600698854,1.3750551755155462
9.359375,0.3263911128058721,-0.6334789696889557
9.36328125,-0.04270525327754922,-1.741659277589543
9.3671875,1.5603783939669431,0.522212993239312
9.37109375,0.5781894403079807,0.23491733127906514
9.375,-0.0255175751762777,1.5599956175918057
9.37890625,0.7023798308274452,0.4990597502728992
9.3828125,1.2591198034555244,1.0954013085140972
9.38671875,-0.5877948193004378,-1.9862922558352278
9.390625,1.0414720987510835,0.18369142593303234
9.39453125,-1.7584785212564327,0.6493670248864181
9.3984375,-0.25161766232761795,1.0300955039146091
9.40234375,-0.5373155330856021,0.578557941105008
9.40625,-1.1885524020586007,-0.4394131105140394
9.41015625,-2.117091036473248,-1.0336144337492241
9.4140625,0.4427919708159363,-0.48114615479190864
9.41796875,-0.5479937245516038,0.7836489359834637
9.421875,-0.10634349641839791,1.3894628635224708
9.42578125,-0.6648869246169485,1.339624365772324
9.4296875,0.15125944564145358,0.5477053841192644
9.43359375,0.04381955890029451,0.033740303027444275
9.4375,0.11212122212105938,-1.7417669775587061
9.44140625,-1.3467979626264206,1.259354624849582
9.4453125,0.4674603024393599,0.7590971517463737
9.44921875,1.7343157995313487,0.8906588889548788
9.453125,0.11085492547612834,0.4954711732325319
9.45703125,1.3185173736699882,-0.4060723150486732
9.4609375,0.10302641092607356,-2.442675719546026
9.46484375,0.4347081291538524,-0.9333879503037069
9.46875,0.05196977649502536,-0.30304318489695115
9.47265625,-0.8017737037203473,0.45862529879609354
9.4765625,0.7996445080988103,-0.28648404722295967
9.48046875,0.13383098155531617,0.04986281410627854
9.484375,-0.9537522411646875,-1.3940117059361035
9.48828125,0.478998934456111,-1.2654733759134886
9.4921875,-1.8320382923660974,1.1131916524337142
9.49609375,-0.5553274890917747,-0.7256745190218573
9.5,0.46897617883025594,-0.4985776748306692
9.50390625,-0.23270986037969058,-0.5114823782931648
