time,ecg,ppg
0.0,-0.9899600777613333,-0.4376362221018093
0.00390625,0.11111827803394556,-0.9924528284456723
0.0078125,0.00952522265481267,0.18309188461476703
0.01171875,-0.2217411668124411,-0.4606797316539433
0.015625,-0.839783930083999,-1.6728081082971424
0.01953125,0.19766536270346538,-1.1573232530846778
0.0234375,-0.3881133764367108,-0.8938550988350716
0.02734375,-0.9876492562660619,0.9535067154032985
0.03125,-0.6133016154075717,-1.4431098369176314
0.03515625,-0.10057484069218761,-0.7350666109628868
0.0390625,-0.1584360007648853,0.7234178359594398
0.04296875,-1.6389848317142628,-0.7937659311572899
0.046875,-0.03476663729533959,-1.065462169208476
0.05078125,0.0912239603576533,0.44841982432462907
0.0546875,-0.557423512561774,1.465545121359678
0.05859375,0.7184265284024968,0.09022038303592878
0.0625,-0.08753103977324174,0.8665558088835719
0.06640625,0.6471815731781665,1.5051703161680499
0.0703125,0.26651063515319395,0.07365583814293136
0.07421875,0.7854615143127043,-0.45791188041407754
0.078125,0.2550749183001535,1.0943411216897478
0.08203125,0.6145297712991367,0.7620363371109391
0.0859375,0.7964343667486297,-0.12563753668174873
0.08984375,0.2726432144554262,1.820236019794643
0.09375,2.0979736664937634,0.44555595516451657
0.09765625,-0.08744794769546986,1.6488518183333456
0.1015625,0.8724894694130958,1.2778600239475444
0.10546875,-0.5272461298499257,0.17314850474946208
0.109375,-1.018526067308522,1.0564628456272265
0.11328125,-0.15257172114041556,0.06963557344102013
0.1171875,-1.0092637280664358,-0.8588385464630344
0.12109375,1.2767230832381646,1.1192465196749828
0.125,-0.22487087866813665,0.33461252493337573
0.12890625,-0.30379699999129933,-0.4761246467376524
0.1328125,1.3765612320588625,1.015385562367663
0.13671875,0.7132480832980954,0.07609427923255295
0.140625,-0.8208741330491903,-0.2549720481560093
0.14453125,-0.4103960440244996,-0.48395932421384863
0.1484375,0.4515207017365459,1.11419577025471
0.15234375,-0.7127089239922901,-0.7843026890687971
0.15625,-1.0985002873201493,-0.2309180483042847
0.16015625,1.557520474261503,1.0712197299337216
0.1640625,0.6751682854414415,-0.6294705940226901
0.16796875,1.040272542805653,0.2910318661012081
0.171875,-1.9075234977811308,0.9549115096676852
0.17578125,-1.8021592462167468,0.6666929640308203
0.1796875,-1.399808129450016,-0.7200698936858057
0.18359375,-0.4578881786929515,0.2750807947106779
0.1875,-0.7309816746414282,1.2557737168870762
0.19140625,1.7979744268908417,-0.0792753522227493
0.1953125,0.018465425492157437,1.35007903214556
0.19921875,-0.46326951333677324,0.5105052889454952
0.203125,1.01304759083012,0.8881802428619056
0.20703125,-0.09278746216329642,-0.7648403249765627
0.2109375,0.4097369489930293,0.255036130172893
0.21484375,0.17054430423722147,2.0189151183482377
0.21875,-0.7009993765930201,1.253626490993838
0.22265625,-0.9728036377281652,0.33422487193693823
0.2265625,0.879244685269509,0.23814901483207146
0.23046875,-1.1390840444162698,1.32499266263666
0.234375,0.5848596813995945,0.9263057636505302
0.23828125,0.4188173249673343,0.8299523548795168
0.2421875,1.5354607674407577,-0.004260681519681836
0.24609375,0.8779415857972389,2.042171458436298
0.25,0.2851820937054142,1.7831742150386647
0.25390625,-1.9441153988123563,0.2231317163816319
0.2578125,-0.8485957642191453,-1.3337778568075649
0.26171875,-0.7009692593267618,1.2551793090137509
0.265625,-0.3482072207948834,-1.4381922206067432
0.26953125,-0.03764472027525092,0.38463098336839896
0.2734375,-0.36585389562898174,-2.252947254153446
0.27734375,-2.351018801547681,-0.9767169881426914
0.28125,-0.28960685534834596,0.7099847637344819
0.28515625,-1.073989314986804,-0.5217567760936397
0.2890625,0.5022166012655582,-1.4589500851496295
0.29296875,-2.127626844902374,0.6747791848362187
0.296875,0.17530758529154677,-0.9397318153097416
0.30078125,-0.5928732589702721,0.17804794339218555
0.3046875,0.3128513643389068,0.8547558854835279
0.30859375,-0.84398752829496,1.4377523676313935
0.3125,-0.13766128354066037,0.7419996917677273
0.31640625,0.4790887855408501,0.014044911538278169
0.3203125,1.4254195707178765,-0.3075233998317008
0.32421875,-0.47882446342622154,-0.8515565351881081
0.328125,-0.6500150934154166,0.9105868367442518
0.33203125,0.8377660553812566,0.5133019463803533
0.3359375,-1.0567654731343439,1.6784254020895981
0.33984375,0.02078885657923928,0.1534363013955247
0.34375,1.482258701684303,0.3626169248826016
0.34765625,0.06801444739198377,-0.7667626794713133
0.3515625,-1.528948947597805,-0.6231740911965457
0.35546875,-0.3325739159276626,0.1279321514340641
0.359375,0.7147947263986941,0.9995517864928725
0.36328125,0.6404054269981215,0.15803583957360218
0.3671875,2.332640899603451,-0.8828641417986796
0.37109375,0.27845659588047333,0.33294398244133255
0.375,0.26827030647861766,0.436564949552981
0.37890625,-0.15791542732141012,-1.4274095693727933
0.3828125,-0.6232663844415697,1.3480110966905443
0.38671875,-0.15340999130331595,1.197270658011546
0.390625,1.0157113067432992,-0.3894404212199827
0.39453125,0.44354104302175146,-1.0494296731728077
0.3984375,-0.5098356779315396,0.8692919455598881
0.40234375,0.6085608888997378,0.37920955620221514
0.40625,1.482116842407669,-1.4682202472015833
0.41015625,0.45908027194679424,-1.0071556582887093
0.4140625,0.3513884406272692,0.23308233680071447
0.41796875,0.6497873438355868,-1.4978686210122654
0.421875,1.2298771723756736,0.7787233169517299
0.42578125,0.8738237988087191,-0.7405545348807107
0.4296875,-0.18156168191311045,-0.7861617499692511
0.43359375,-0.05278444559894655,1.839591928278098
0.4375,0.7467290031207195,-0.2574648417533471
0.44140625,0.4381799421508802,-2.202587114514413
0.4453125,-1.2420490229089753,1.14764199682153
0.44921875,1.8650610353748167,0.060458574258197166
0.453125,-0.39455140085329354,0.909273956730458
0.45703125,1.6637078894781208,-0.5652932226313461
0.4609375,-0.5051046010263838,0.4152707208061492
0.46484375,0.72403385846169,1.124669201041929
0.46875,-1.7735707515298942,-0.9134148161471862
0.47265625,-0.12541581717525022,-0.8543071710282277
0.4765625,-0.2506999837715671,1.2432888863384974
0.48046875,0.020092184589401662,1.015838934320606
0.484375,-0.5353170663330736,-1.4497997526253716
0.48828125,1.3235548448685017,0.7106367551519264
0.4921875,-0.8596956781232971,0.2641773457980417
0.49609375,-0.7293385098882943,0.027920486340154056
0.5,1.5671417563370227,1.840449627115833
0.50390625,0.1726809514597044,0.006153766859928597
0.5078125,-0.7153216476669393,0.5231900464359099
0.51171875,-0.7566139612490822,-0.6224381653379892
0.515625,-0.9788022585174145,-1.6047206586515712
0.51953125,-0.2655969817283955,0.07260589867440752
0.5234375,-1.2971144013248463,-0.09390491103802937
0.52734375,-1.7280216296404711,0.5172662910735285
0.53125,1.4963259427017097,2.3161747221024958
0.53515625,1.8457422605132348,0.26813983427469795
0.5390625,0.08863193183727672,0.7424695811673001
0.54296875,-0.0023268878025818865,-0.5488170722583959
0.546875,-0.4295049809449652,0.19799214180088506
0.55078125,1.8334847558916167,0.6124397316972376
0.5546875,-0.11465277975534775,0.07737556214473686
0.55859375,-0.9065798986267997,0.7355469566702119
0.5625,-1.6303989616857755,0.5197810242814963
0.56640625,0.7459042491039615,-0.37896452618247906
0.5703125,-0.8471734525409763,1.7220513626405847
0.57421875,0.29355397627980884,-0.8694683634444634
0.578125,1.3125406301903335,0.43345170627196183
0.58203125,0.11261989042206559,1.0290877343053941
0.5859375,0.35370289809150834,-0.7881026868714635
0.58984375,0.9968473881835903,1.09018747471112
0.59375,-0.9319149928469854,-0.4237199754235218
0.59765625,0.9138379889274308,0.5429370291430812
0.6015625,-1.6787536448599765,-0.7503442459408295
0.60546875,0.5130389253166063,-2.019172535536256
0.609375,1.2237628012188648,1.0604810499326072
0.61328125,-0.2572217792039106,-1.7013025121117034
0.6171875,1.3617858376872658,1.292507229304316
0.62109375,-1.9257583646832424,-1.0903902042468419
0.625,-1.2299514327285677,0.042833919418260674
0.62890625,-1.2034934070833523,-1.8959335717407417
0.6328125,0.7404846412635296,1.6995494525658492
0.63671875,0.08092592380966424,-0.29651367617508395
0.640625,0.8788240316417155,1.0589230039526643
0.64453125,1.4135251674668503,-1.6337805957346874
0.6484375,-1.4562350602567047,-0.8606457632293375
0.65234375,0.9392110711907478,0.2381616860807177
0.65625,-0.742215768256363,-0.23726955567610472
0.66015625,-0.4792520839387089,-1.0931222361157098
0.6640625,-0.7948315978392289,-0.6458914351951782
0.66796875,1.0768775689076944,-1.4668822660092233
0.671875,-0.4083541498969523,-0.6951936790447563
0.67578125,-0.3513378929801313,-0.9242622234322345
0.6796875,-1.4585236593858093,0.07517622892741907
0.68359375,1.0390400390484615,0.301939963965687
0.6875,0.2542501823334909,-0.9155866401498632
0.69140625,0.14866006550410413,0.748517755413937
0.6953125,-1.9400601204347476,0.473285927358219
0.69921875,-0.5807849528999657,-1.4490267701124366
0.703125,0.5467615528477668,0.2700479081074537
0.70703125,-0.8416196351332783,-1.6510828031266427
0.7109375,-0.3110837210450156,0.1577974593174727
0.71484375,1.1656404600715928,1.7355788002916304
0.71875,-0.5110768769483978,-0.7921957868126358
0.72265625,-0.40871166340529796,-0.5383566835390668
0.7265625,0.5016618309179602,-0.2696895102101725
0.73046875,-0.2047480962398386,-1.294924978396783
0.734375,-0.17195375499951251,-0.5142333914591399
0.73828125,1.767999454351646,-0.5866867324241132
0.7421875,0.4436055476293401,-0.02845816123217379
0.74609375,-0.357101395657716,-0.010285377507387311
0.75,2.135832214101635,0.8363758413183889
0.75390625,0.5600760242405738,0.055134595239939084
0.7578125,-0.21427227695955633,-1.1076216733499562
0.76171875,-0.8147543757521478,2.1525676757978576
0.765625,-0.64318562884192,1.3875017322474092
0.76953125,0.37401447268987287,1.7475700639131357
0.7734375,1.4715958756905416,-0.4102641704782523
0.77734375,0.2501654069688313,0.31513930437537735
0.78125,-0.05650050831029437,1.51855450654912
0.78515625,-1.5232695007320483,-1.0533490514980923
0.7890625,2.1455452492285985,-0.2483465957167352
0.79296875,-0.17369126458688527,1.5962672131757738
0.796875,-1.6797090237214574,-0.8830452282966594
0.80078125,0.11850887060525796,0.3489500440951187
0.8046875,0.2213458150064431,-0.37864673667186255
0.80859375,0.6173019545656285,-0.5763521131652675
0.8125,0.333376448259092,-0.24473141043709012
0.81640625,-2.303954679769954,-0.13732622679974668
0.8203125,0.07725334045218447,0.9592841811575561
0.82421875,-1.4250805624651273,-0.5288432278383973
0.828125,-0.5674107751468962,1.4881328746540021
0.83203125,-0.23373249541310873,0.09339267623110245
0.8359375,0.3117898130647617,0.017812481538327655
0.83984375,-0.32639313908025225,-0.8545282500539886
0.84375,-0.6123774128292944,2.282281295392601
0.84765625,-1.0260828785489602,0.5664821267625719
0.8515625,-0.6171940990866618,0.19628509717806755
0.85546875,-1.0230390963501523,-0.09834573936838328
0.859375,-0.9613144868731337,0.2081597012656372
0.86328125,1.4002230854891586,0.7002293703962915
0.8671875,-0.6593655232104861,-0.7675870631611139
0.87109375,-0.32630139900048316,1.0447340966470435
0.875,0.4015550998410255,0.489950878528835
0.87890625,-1.9030496699535222,-0.07872489181418993
0.8828125,-0.22824846393458095,1.3847535528694237
0.88671875,1.7208444354022925,1.180232556367166
0.890625,-0.2281930740777363,-2.025854163994429
0.89453125,1.2368289612406853,-1.1390502902302457
0.8984375,-1.4490309939634778,1.8562104392765786
0.90234375,-0.4418606880280926,-0.8102438357823192
0.90625,0.35820041088359195,1.1073002989604739
0.91015625,0.007674440749535099,-0.15387697248153107
0.9140625,1.00018585117401,0.24251516839419252
0.91796875,-0.6967841858515343,0.09619933869418772
0.921875,-0.27845548808268,2.65876503070275
0.92578125,-0.985959104256202,1.1164835423866366
0.9296875,-0.47996587921478173,2.263619406001003
0.93359375,-0.2825542099416529,1.6997733530007757
0.9375,-1.378768273379381,0.15774789679698364
0.94140625,0.1476211069717479,-0.2688547974836329
0.9453125,1.6008450824758347,0.36054980902542516
0.94921875,-2.0361039832664205,1.3045071494452372
0.953125,-0.43188839085506775,-0.6857690373585988
0.95703125,1.277832297620773,-0.6734204454974948
0.9609375,3.241268703497365,0.9310072016605998
0.96484375,-1.7876701222252203,0.7034393104410047
0.96875,1.2889109937929646,-0.19232244034159895
0.97265625,0.10803203181060134,-1.3354658439622245
0.9765625,-0.8228402766197453,-1.1149696186140483
0.98046875,0.3710798059090103,-0.07080504406597285
0.984375,0.5759236490044927,2.3730631669875915
0.98828125,-0.4389218408857603,-0.5955352345504829
0.9921875,1.9307239894236097,-0.15109362287313044
0.99609375,0.6516605838113134,-0.088371161576941
1.0,0.22801029454088564,0.44921770837161235
1.00390625,-0.5896317523285752,-2.1311426988713236
1.0078125,0.44862930140641805,-0.5175880472832752
1.01171875,0.12857613180577737,0.08337779437082211
1.015625,2.175286626170782,-0.31307352093585816
1.01953125,-0.3884431961004176,-1.0631938388687407
1.0234375,2.930177757205142,0.6780621470541431
1.02734375,-0.8913264354501167,-0.3471952399759881
1.03125,1.4691040624223293,-1.7470928953336395
1.03515625,-0.265078113363039,0.1396624225712637
1.0390625,-0.6891470011514779,0.4619739627667515
1.04296875,0.22818603270160684,1.0933767789792659
1.046875,-1.321405384775887,-0.22474243714638498
1.05078125,-0.12142826579590132,-0.7040254449753464
1.0546875,-0.793309677253057,-0.44378124144282577
1.05859375,1.2365031536587736,0.5299236395116247
1.0625,-0.2047939619535365,1.3789973407921678
1.06640625,-0.5324883717138967,1.0292945754982479
1.0703125,-0.2974437982282049,0.756300691023667
1.07421875,0.2709661246902615,-0.5287002305454984
1.078125,1.0062614499014713,-0.08968189295724081
1.08203125,0.9163864359088947,-0.08197100583046166
1.0859375,0.9158599925997206,-0.017279545994115582
1.08984375,-0.4909791001169932,-0.1799974760266539
1.09375,0.25307972780538524,-1.0742025359634924
1.09765625,0.6529097087485428,-0.0066516117033928995
1.1015625,0.2097652221485032,-2.1181111583220473
1.10546875,-2.694211238625495,0.8687181846835587
1.109375,0.8292971683439424,-0.06275612811176493
1.11328125,0.5572162674202831,1.6249571567323937
1.1171875,2.916770555044792,0.1401810978655068
1.12109375,-0.294393760146121,-0.2596759790478774
1.125,0.8355364859418192,1.8916045506549473
1.12890625,-1.1744925710512304,-0.1851208470269212
1.1328125,0.6548228170329988,-0.7636745820244026
1.13671875,0.49156158245354387,0.9974362658070549
1.140625,-0.8799369028856768,1.1524344640014434
1.14453125,-1.2704506806028608,0.7801762597248683
1.1484375,1.2714547378328114,-0.3380066704815457
1.15234375,-0.9042118839223913,0.9822451349889955
1.15625,0.6435974416281495,-0.1975434588882526
1.16015625,-0.14056931448744095,0.17246107385494064
1.1640625,-0.22448257332969582,1.294802903723492
1.16796875,-0.3074786982168665,1.6724324765639964
1.171875,0.7802268587347502,0.3006318538960696
1.17578125,-1.594434941968382,-1.6524118239195968
1.1796875,-0.7927899064295078,1.6150812933174659
1.18359375,0.48573588752163255,-0.3234441726452704
1.1875,1.8335260930752109,0.5036419181073097
1.19140625,-1.3730632018733553,-0.5319180340814164
1.1953125,-1.140568287143328,-0.5897560516444424
1.19921875,0.6723978942173533,0.2799581176564496
1.203125,0.22295337547672894,-0.9855718859587359
1.20703125,0.3043796016051074,-0.45817454651817313
1.2109375,0.6444217919966247,-1.108437493091113
1.21484375,0.5649794054167157,-0.6795343232541906
1.21875,-0.8266518362373129,1.179374943246877
1.22265625,-0.46241650809976503,0.28850760296772393
1.2265625,0.2256893824026808,-1.751080140011256
1.23046875,0.72362740213565,0.547025517421396
1.234375,2.3392969763692433,-1.2383365276572862
1.23828125,0.47643159079751435,0.0427045427840311
1.2421875,0.25203176745495465,-1.2575215484229518
1.24609375,1.5863162697792312,2.1196469141723964
1.25,0.12055388240019195,-0.41312554369529364
1.25390625,-0.4069570283534476,1.0127073400534379
1.2578125,-1.0005844872134873,-0.5439598469388586
1.26171875,0.30944491815002445,-1.0885185073188313
1.265625,1.3548197176202657,-0.8285200252355722
1.26953125,-0.3440183371784909,-1.6379587109916542
1.2734375,-0.44499039173857835,-0.7714934603815543
1.27734375,-0.05526853987048504,-0.17948416295072217
1.28125,-0.23690197147814318,0.4799408861117682
1.28515625,-0.5225681098973872,-0.8272244424052484
1.2890625,-0.35834972007058746,1.0456394854285334
1.29296875,0.21275327038769867,0.5712581818174619
1.296875,-1.3051286786173695,-0.7021779206494386
1.30078125,1.5724833688851714,0.1946109039734353
1.3046875,0.16073556198623348,-0.8552068734714002
1.30859375,-1.5007760987749472,-0.7177540843942257
1.3125,-0.024322756841606747,-0.9462454809879057
1.31640625,-0.6110112230794273,-0.566089722681567
1.3203125,0.35898184151134394,-1.4093784895383803
1.32421875,-1.1143421491877687,0.03003163141333289
1.328125,-0.0844521877992841,-0.0010260036182252676
1.33203125,-1.0119973084767262,1.4030851466004912
1.3359375,0.22675919256850474,-0.15448854594148348
1.33984375,-1.0041779122953727,-0.8781723100518128
1.34375,-0.2078139401021438,1.7713385087690308
1.34765625,-0.9290503419109222,1.3396739043017578
1.3515625,0.4342304100645627,0.9312661681535809
1.35546875,-0.8920416096200123,0.4261588539514707
1.359375,1.413831023875178,0.9034783024356572
1.36328125,-0.23908135630620725,-1.4429029020808093
1.3671875,0.4259678510068624,1.1117414763490445
1.37109375,1.2698010681943255,-0.17695371030629276
1.375,-0.4015999608500985,1.5339686763161362
1.37890625,-0.5290899103295051,1.0401973896945764
1.3828125,1.9286297738127995,-1.6114584252253936
1.38671875,-0.2323480968950706,0.6359407840444647
1.390625,-0.6196358816935392,0.13545861302797885
1.39453125,-1.6481475287722047,-2.3640246437217516
1.3984375,-0.3588918909338168,-1.1083483924174575
1.40234375,-0.6439434236910707,1.0682206973220858
1.40625,1.7731313174394168,-1.2501445990887212
1.41015625,0.8875024325497646,0.7260710774663114
1.4140625,1.0481875487712826,-0.7263093813609869
1.41796875,-1.2112434204294311,0.1873532603731442
1.421875,-1.4824570627637546,1.231982831638925
1.42578125,0.9220138203748676,-1.3244950096727919
1.4296875,-0.8531475649155132,0.30717973334237875
1.43359375,-1.1127809876383454,0.3123241899864184
1.4375,0.10702842896011769,0.23776391719391055
1.44140625,0.770944955792591,0.020015797979767568
1.4453125,0.07734740719448788,-0.12477248198302499
1.44921875,-0.2587551643770408,-0.13413894510438729
1.453125,0.6221424645351793,1.2881571814232369
1.45703125,-0.1139601081205336,-1.3749025052116746
1.4609375,-0.2101625476398806,-0.5621448507357465
1.46484375,-1.394752801091809,-0.34651327230263596
1.46875,-1.787212058470838,0.9863621392952387
1.47265625,-0.5612764986579193,0.647121023436984
1.4765625,-1.2557270192869854,1.1732500256830127
1.48046875,-1.433591465000682,0.2393716499941578
1.484375,0.7615833980047046,-0.048392978578809746
1.48828125,1.3294719259120307,0.35311250473204875
1.4921875,-0.3847234178775588,0.28924291054584345
1.49609375,-0.09641115739973213,-0.5621098279492687
1.5,-0.1583255228099407,2.3889605662714137
1.50390625,1.0404737702282105,-0.33245884650840135
1.5078125,-0.006030742972730973,0.061238303695413325
1.51171875,0.006787336841295847,0.15905710127758332
1.515625,1.183048278154388,-0.03897013524416882
1.51953125,-0.3380769250959958,0.2037305325820627
1.5234375,2.2332042116612776,0.14209609886056257
1.52734375,1.2067630949125667,0.03012708346100963
1.53125,-3.0088505082425856,0.1584678758118126
1.53515625,0.9849475452168178,0.6203323387544706
1.5390625,-0.4703710926324468,-0.43092627933523703
1.54296875,-0.9320542011557071,-1.2334600063810743
1.546875,0.10888052185134232,1.0554052735148998
1.55078125,-0.8429895569337827,-1.4686418948719075
1.5546875,0.7546885614221759,1.3153497688747535
1.55859375,0.2093947733680439,0.6435024136512373
1.5625,-2.549116854112694,-1.1005367872799514
1.56640625,-0.6970033563788012,0.5561163216333073
1.5703125,0.31413524903429924,-1.6243695524716635
1.57421875,-0.13925987017222397,-0.7458312978771958
1.578125,1.6847849657877252,0.967412451211716
1.58203125,-0.492261800655669,-0.8057138552053893
1.5859375,1.4168167612742018,1.6205446204120062
1.58984375,1.5547448805162245,1.2031574497524948
1.59375,1.1587341814980514,0.29539439736367606
1.59765625,-0.23128009429779148,0.11741271692965198
1.6015625,-1.7498717998868152,-1.3914685392036612
1.60546875,-0.27235635974480377,-0.6031069479709787
1.609375,1.2854858774915445,-0.4790971092610032
1.61328125,1.590003579767399,-0.5843674547729663
1.6171875,1.4026758450985288,-1.5361654489739998
1.62109375,0.3655946849378223,-1.2734151905402484
1.625,-0.11843023955744168,-0.03285690477713565
1.62890625,2.395945279557972,-0.6446410460412968
1.6328125,-1.560912137079889,0.913073527605963
1.63671875,-1.1124029980308263,-0.5720616862543887
1.640625,-0.5399642005880881,2.4801732004127692
1.64453125,-0.011699221765012596,-1.8521276377332128
1.6484375,0.43246254350557095,-0.7110247752096023
1.65234375,0.4659195732893798,-0.8331640921170097
1.65625,0.8903216769360836,0.7127179843380299
1.66015625,1.0473133844006712,-0.09871025238929343
1.6640625,0.22260173579009077,-0.11577153517222201
1.66796875,-0.9522433826231246,0.5786664106986182
1.671875,-1.9502003814564086,-0.12495061343588573
1.67578125,-0.5272168813724442,-0.6361145254498797
1.6796875,0.27150775471377625,-1.5722826415866655
1.68359375,-0.054362005480819514,0.4623604866728041
1.6875,-1.8275942140495411,0.15286515792286004
1.69140625,0.19376066693918267,-0.4842824968216096
1.6953125,-0.4717520256732009,-0.14989038505267777
1.69921875,0.7504469632583026,-0.9333051907345196
1.703125,-0.387847601366041,0.8744586134396358
1.70703125,1.123440190258495,0.7711825428012882
1.7109375,-0.34814140857819054,-0.8903097902488382
1.71484375,0.6038854702320349,0.7949807279889917
1.71875,-0.35317987313683097,0.4230600568621268
1.72265625,1.0438699919926373,-0.5491927786785223
1.7265625,0.39028014967569985,0.32221092530896717
1.73046875,-0.22311530349793376,1.280929695188434
1.734375,-1.2607831922295156,-0.21413016741776086
1.73828125,0.09567247437324425,0.6222249498587249
1.7421875,0.08940394685689934,0.9119180690040808
1.74609375,-0.1500707674553254,2.808392578545336
1.75,0.1731788280738837,-0.4628036657274313
1.75390625,0.503288439331233,1.2254191955722844
1.7578125,-0.19008503194419687,0.6659706596493472
1.76171875,-1.3299671279411263,0.05209449519789211
1.765625,-0.43071160591878926,-2.217207176194602
1.76953125,1.2093737925382562,1.262129052405185
1.7734375,1.5294071084496508,-1.2670033798025868
1.77734375,-0.9315545049688552,0.40734611334265636
1.78125,-0.04664841675995535,0.004454206078750982
1.78515625,-3.2544982482164624,1.3729081813636925
1.7890625,0.3064414075074336,-1.3329041173246827
1.79296875,-0.22341373325561448,0.4325496480781898
1.796875,0.5380764268046484,-0.5421453938260721
1.80078125,-0.6210044909882726,1.0380327809429688
1.8046875,0.40480998070702523,-0.1132362188098523
1.80859375,-0.8026191562877649,-0.6370366104001954
1.8125,1.368762411472924,-0.732775496153975
1.81640625,-2.2273433307810193,-1.4164329917649496
1.8203125,-1.6776188170645299,-0.4042035627800458
1.82421875,1.7952642954868905,0.36201667598043435
1.828125,-0.3805427499457758,0.8967050553281459
1.83203125,-0.39526508101975133,0.7266838403667069
1.8359375,1.4577920878825898,-0.5773594512833029
1.83984375,-0.0838534024120708,-1.9390590494763127
1.84375,1.6667995959541893,0.2415490105393641
1.84765625,-1.0371846090904007,-0.02972984826773824
1.8515625,-0.11331594671730058,0.3647891595911558
1.85546875,0.942891349088293,0.28447162128796405
1.859375,1.2339774798136567,-0.9344184453405451
1.86328125,-0.47897048955084504,-0.7255688389964504
1.8671875,-1.170818067261348,0.09803655865170502
1.87109375,-0.6311056772167343,0.2554794504197584
1.875,-1.296593873830794,1.7833755242150515
1.87890625,-0.3009760756959551,-1.1893027867011263
1.8828125,-2.1863161338853354,0.9819914987566077
1.88671875,0.7822747161321851,1.1606091511270804
1.890625,-1.8599872461091203,0.4980724444988283
1.89453125,1.2267185628028,2.2824241910931273
1.8984375,0.012175815142082392,-0.8805585603587873
1.90234375,-0.9537549417007793,-1.067007272226873
1.90625,0.2274511668243161,-0.26302630572618235
1.91015625,-2.010655605043408,0.11073361864969067
1.9140625,0.8367102519226863,0.019827378461678077
1.91796875,1.4380108735193713,0.35210503004421606
1.921875,-0.3865180187308249,-0.780929965070946
1.92578125,0.15961092974960442,-0.6194657711774296
1.9296875,-0.6196732600658453,0.3141853515914499
1.93359375,-0.05000713801677269,-1.4335362526012894
1.9375,-0.18684185135159584,-0.2682007733930808
1.94140625,-0.11881745694509355,-0.60972098289354
1.9453125,0.44080354708510605,0.8535331596399856
1.94921875,1.2156758069427507,2.578489495348556
1.953125,-0.4685392236494207,2.2860157300418025
1.95703125,0.8454862659588068,-0.993094165155198
1.9609375,1.2997698526669812,0.9335528003758433
1.96484375,-0.11850728073962077,1.1341047748170048
1.96875,-0.9431481772474692,-0.06561927909109715
1.97265625,-0.017398253258397684,1.6381447914057705
1.9765625,-1.1644834877785628,0.23259592546201396
1.98046875,0.8093148125642136,-2.056016582022394
1.984375,-0.048891219555744776,-1.170903000419772
1.98828125,0.4383549693300752,0.4387525108664413
1.9921875,1.0748251052267517,-0.367188294061415
1.99609375,1.7166175341535217,0.2941072593721501
2.0,0.6232384609637638,0.8449376397787621
2.00390625,0.4106106054530092,-0.09781752778194708
2.0078125,1.2512083177075122,-0.8839602459210542
2.01171875,0.6859811889767612,-0.093501918738227
2.015625,0.4477677019657971,-0.44597393807390806
2.01953125,-1.5392376409226658,-0.4874577003326574
2.0234375,1.3161993397172382,-1.2577233750131294
2.02734375,1.3354617064818375,1.778890790794967
2.03125,-0.047271337111937164,0.35665203785267213
2.03515625,0.2974339266932168,1.5875504021370743
2.0390625,0.43748245958287235,-0.04669760139665483
2.04296875,-1.4450989807723318,-1.0668967818499737
2.046875,-0.3927869302864554,1.150440806173311
2.05078125,-0.993859547459651,2.5092409540830385
2.0546875,0.5419745830083221,0.010976307295071316
2.05859375,-0.2990375218597405,0.647523502010967
2.0625,-0.11147446311912174,-0.819363836158899
2.06640625,0.5222064898869659,0.828598982415131
2.0703125,-1.3006053929871377,0.6497905455825536
2.07421875,0.1943977682145258,1.9187306423932986
2.078125,-0.592900931005855,-0.8744689170928975
2.08203125,1.125822924473425,-1.9675725833917457
2.0859375,1.0809396432871168,0.8596598402329438
2.08984375,-1.0242439876138199,-1.8962113333359496
2.09375,-2.1437304264137724,-0.9844356428866797
2.09765625,0.6188351666737266,0.5347357601900945
2.1015625,-1.7998554236549689,0.5013201156381709
2.10546875,-0.8239615738737963,0.5186045866942003
2.109375,-0.2578367272472789,-1.6481727658388663
2.11328125,0.08888091541017336,-0.9229320798960583
2.1171875,0.0492235123383707,0.8408969969185736
2.12109375,-0.1812292056265105,0.4474775480019929
2.125,1.1692729593700144,1.2140920967755577
2.12890625,1.2784915170574924,0.4628369915515859
2.1328125,-2.4511978753319537,0.3088136590497409
2.13671875,-0.2751243550320605,0.1302002477146999
2.140625,-0.6819629964927317,-0.0542634478852747
2.14453125,-0.015754402051864742,-0.8637411130172127
2.1484375,0.3062075028439354,-0.6201796442313579
2.15234375,1.1168438285466478,0.856273799972142
2.15625,0.9313946609146526,1.4362322194858588
2.16015625,0.11750421321167831,-0.7483589691435055
2.1640625,-1.8018918244202076,-1.877340857220253
2.16796875,-2.194413770242016,-0.14852677150222265
2.171875,1.200097341551688,0.3239419406264173
2.17578125,0.31230604212882174,-1.4467710487917247
2.1796875,1.7647105454491172,-0.8661506752952818
2.18359375,-1.950768452584359,1.9243101655381933
2.1875,2.0981273229150896,0.4508586828836747
2.19140625,-0.10067316171218955,0.8157594098559526
2.1953125,1.7807548044725192,-0.03493622348189163
2.19921875,-0.24991434235072252,-0.07814806388508708
2.203125,1.2616580662702075,-0.8173036230491867
2.20703125,-1.7150229293573702,-0.4404868443163336
2.2109375,-1.2841991737233034,1.268183217261063
2.21484375,-1.35756543519197,0.7610712608152662
2.21875,0.4887287174155138,-1.4122771942520944
2.22265625,-0.5735289817086962,-2.2803712638144007
2.2265625,-0.7325425478458477,0.5192061522781323
2.23046875,0.44080976377001735,1.096900175229295
2.234375,-0.5980497807314843,-1.068393022773921
2.23828125,-1.2423490259238716,-2.0412717574908235
2.2421875,-0.972244242322179,1.5665671663014358
2.24609375,0.37528960788960647,-1.6702774735442971
2.25,0.4435496036483231,0.8298543840471914
2.25390625,0.8549645873613813,-0.5334109993567275
2.2578125,0.3918916773447975,2.232067680430501
2.26171875,-1.5571598651531058,0.3540466137167184
2.265625,0.4322638348276106,-0.2627149374202143
2.26953125,0.4304127182820161,1.2018875890372858
2.2734375,-1.29705473263925,-1.7962387748401578
2.27734375,-0.43970438103330983,0.4402279174304221
2.28125,2.242899993962228,-0.41528153020509184
2.28515625,-0.9289274168473673,-0.4255009508048446
2.2890625,-0.6188692970294369,-1.1787845345076922
2.29296875,-0.004035037816794247,0.21586493708183585
2.296875,1.1175211095914799,0.6910005316055059
2.30078125,0.13053851176869918,-0.8854373286509493
2.3046875,-1.5139637647467452,-0.18155456658809505
2.30859375,-0.6536792528449967,0.7565897513488645
2.3125,1.6849501926144175,0.16463996573460532
2.31640625,-0.4993635429820805,0.012210027928385594
2.3203125,-1.337332729854632,-0.7890432640200373
2.32421875,0.8215979810449594,-1.6922932707960907
2.328125,0.6197049348117898,0.31973855477153135
2.33203125,-0.5732601823172884,0.9026252880161378
2.3359375,-1.1191983791052866,-0.8570021109444924
2.33984375,0.2557743819075324,0.5632355494674784
2.34375,0.34282712450506636,-0.47606234595918195
2.34765625,0.38025113088161355,-1.2612899354970963
2.3515625,0.479366403943002,-1.26872736002921
2.35546875,1.2552034890006574,0.1004165217745355
2.359375,-0.04384608860316925,-0.6879393856733476
2.36328125,1.3019212299438554,1.002564935210015
2.3671875,0.13310124947248395,0.05561077177504266
2.37109375,0.3296131463315429,3.0331744575822848
2.375,-1.1054594961908821,1.1915091841387737
2.37890625,0.6764340221149915,-0.575338759502611
2.3828125,0.34352715867094935,1.3653660656768283
2.38671875,1.3181449843002135,-0.7432781193729847
2.390625,0.2548379551191575,-0.9420271284250931
2.39453125,-0.4323832665719997,1.123753039492037
2.3984375,2.0255131455053266,1.17457681371605
2.40234375,1.1494531653669073,-1.2653016612326262
2.40625,1.0019838599870607,-0.6736687244044184
2.41015625,-0.90108352888058,-1.157373036691527
2.4140625,-0.1520467302907003,0.1491182692914432
2.41796875,0.5395124381992691,-2.33238789677989
2.421875,-0.5360855996953778,-1.762798735203104
2.42578125,0.08551432578838954,-0.36238331081837266
2.4296875,-1.9469433674647054,2.3979247006099516
2.43359375,0.34692039392788176,-0.920976488155876
2.4375,0.1505929894087224,0.307307702840062
2.44140625,-0.11964893701082317,1.8155130341924672
2.4453125,-0.32696550551110715,-1.2051204421836645
2.44921875,-0.303978511238435,-0.04108707994053541
2.453125,1.2635048645951457,1.0382511423798542
2.45703125,-0.4615036961056551,0.6466998586875509
2.4609375,1.061348286749492,-1.6255219133753682
2.46484375,1.5859299460445353,-1.8632047118866868
2.46875,-1.5295204022661868,0.9331026314754096
2.47265625,-0.016772045855975266,-0.921057496612636
2.4765625,0.9118859737936152,0.5331607173110915
2.48046875,-0.34265143946026083,-1.0598470082124738
2.484375,-0.10719930277639887,0.6511137673166837
2.48828125,-0.7744034282843335,0.04943496451733551
2.4921875,-1.7598938374445965,1.8841752891347565
2.49609375,3.4558383792071967,-0.5983404154558073
2.5,1.1843162165556895,-0.4690700202259836
2.50390625,-0.6946527455858332,1.1836957069420342
2.5078125,-0.4933379120255841,0.1410949924573469
2.51171875,0.12880636482307264,1.0317412019662358
2.515625,1.0701604487616867,0.34443763284711515
2.51953125,1.2388605292458537,0.34373270927707006
2.5234375,0.30911394043399504,-0.32317007278713206
2.52734375,-1.269634604489482,-0.01269209549422378
2.53125,0.7119196817003112,-1.4735349846460963
2.53515625,-2.142465933425911,1.7803180778876488
2.5390625,-1.1517700383657778,1.0162442081866614
2.54296875,-0.7753511109133341,-0.1990888495816764
2.546875,2.03283697831364,-0.7971931085347846
2.55078125,0.015149956975566623,1.1927147926916686
2.5546875,-0.35116605366991643,1.626356408119985
2.55859375,-0.5645982947690285,2.0618400477748287
2.5625,-1.9132508427337105,0.00806841717669299
2.56640625,-2.004075478411855,1.3253784720069781
2.5703125,0.4496815337918979,0.4714394488131821
2.57421875,1.3629550018629295,-0.9082181051837549
2.578125,1.5622419386850492,-0.7385222499603272
2.58203125,-1.7218195620850743,-1.57133519320048
2.5859375,-0.3011396682948198,-0.22656799704769712
2.58984375,-1.6941714120747589,-0.3142409897302452
2.59375,0.9143577477632403,0.005491278574382285
2.59765625,0.2986312463382747,0.37849119351648974
2.6015625,0.6784014134111134,0.17810142629893863
2.60546875,-0.6184562700906591,-0.5325513978949568
2.609375,-0.7738669080887162,-0.1497164136777801
2.61328125,-0.633975096028201,1.1329592749282422
2.6171875,0.3028081248118693,-0.6854713112585713
2.62109375,-0.6674529285296344,-0.05324097610925825
2.625,-0.32202522150271096,0.8924512756249604
2.62890625,2.2078561192428863,-1.696358489538469
2.6328125,0.1794692586332254,-2.7591441005545865
2.63671875,-0.9789490251886208,0.7428308445043579
2.640625,-0.0749367350830423,0.01526273487166773
2.64453125,0.5153123983034772,0.8562428086833046
2.6484375,0.23975033951772165,1.3322663860561146
2.65234375,0.3359451393850086,-0.4771992116371867
2.65625,-0.05966748289304562,-1.1468388307380397
2.66015625,-1.2925041999175984,0.6470963196139382
2.6640625,0.3301281333706041,-0.6998321584226392
2.66796875,0.5281597983939039,-1.0991410783181015
2.671875,2.007091758278958,-0.053561629858005
2.67578125,-1.1294422662500971,0.9270241057395217
2.6796875,0.4004665258672381,-0.3407545585335482
2.68359375,0.19111601877494816,0.8916243177801724
2.6875,-1.1697209811809888,2.4681557491070696
2.69140625,1.2547010577985003,-0.5518240030458476
2.6953125,0.682662361559287,-0.5161689765538989
2.69921875,1.0279555032444012,-0.473912134432316
2.703125,-0.39979349377964696,-0.3005817655439254
2.70703125,-0.8344026015032222,-0.5919207741782669
2.7109375,0.8207402581705546,-1.1790935680401433
2.71484375,0.777183847641408,-0.5948269186898207
2.71875,0.6106092651536301,1.3158082329631404
2.72265625,0.7569169433226688,-1.2677971290364602
2.7265625,-0.2570345842221456,0.21854323178762264
2.73046875,-1.2101444645859585,-0.2823636406100674
2.734375,-0.12381193601893714,-0.5816471845181207
2.73828125,0.34346420233007113,-0.4770707613815183
2.7421875,-0.23423305443260256,-1.223449376540989
2.74609375,-0.3912370612250748,0.42765079329459127
2.75,-1.4343172667609736,0.0639792345643527
2.75390625,-0.4761762443918649,-0.3576986231711107
2.7578125,0.2392266927626785,1.165509016962052
2.76171875,0.6708783712254021,-0.5931165703346447
2.765625,0.6583622265473872,0.302115631280572
2.76953125,-0.008930727202475796,0.40124234575083917
2.7734375,-0.3389747397531184,0.9292112399330886
2.77734375,0.2673067481046371,-1.0141755372531138
2.78125,0.5400242071381605,0.6521713546496368
2.78515625,-1.3937006564608436,0.20406230375759477
2.7890625,-0.12517957720434955,-0.7344779825704156
2.79296875,1.0056888442474559,-1.3283777528589873
2.796875,-0.19869725768506907,2.6048962372158124
2.80078125,-1.5133559775401497,-0.4455812916844794
2.8046875,-1.4480320600086611,0.4771406062438519
2.80859375,0.5830518756999626,0.8545837169898851
2.8125,-0.6917135216555096,-0.5138066115900572
2.81640625,0.46053618649626954,-1.7655159405326812
2.8203125,0.6364716494619936,-0.334815921447755
2.82421875,0.6049644636384919,1.0620273332946086
2.828125,-1.4972121638488594,0.3560250168128886
2.83203125,-1.7414777693608732,-0.9813198026441586
2.8359375,-0.7470987510119106,-0.14259686509126537
2.83984375,1.2272598625377724,-1.4664949552773514
2.84375,-0.2815040880329265,-0.5615084335603902
2.84765625,0.7907840500332881,-0.004692291814655612
2.8515625,-0.58590768169546,0.46374720566313266
2.85546875,-0.2527690437034523,0.2313440637765948
2.859375,-0.7433299958684197,0.5852869256243128
2.86328125,-0.7157409499090377,0.06840447566914139
2.8671875,-1.4610068178189002,-0.25204281249492405
2.87109375,-2.0473376835443533,1.2523184610769416
2.875,-1.343993874799186,0.6815418766425833
2.87890625,-0.6916323567505962,-0.8446766091034633
2.8828125,-0.7147776874216124,0.5822794503658594
2.88671875,0.836291745057151,-0.0030235191134214356
2.890625,0.791152091056397,0.08843133140818701
2.89453125,-0.679129298161184,0.8046718195275299
2.8984375,-0.39114713136355295,0.024749147344769993
2.90234375,-0.1430532512915691,1.6392318797229624
2.90625,0.7326825043974554,-1.4790910196951788
2.91015625,-1.068412448279381,0.41169047511938944
2.9140625,1.1699674083800218,-0.30499909634224376
2.91796875,2.0107915636451543,0.044856925746538066
2.921875,0.9275474505307072,1.4472159419011326
2.92578125,1.0800736415257206,1.5997512300720136
2.9296875,1.4869754123232688,1.7315849991522523
2.93359375,0.9201350173346994,-0.054037193373626974
2.9375,-1.5170252848803014,1.6315311255194351
2.94140625,-0.8520435947003766,-0.5839741735283521
2.9453125,-0.02134528082050024,0.41974481286157794
2.94921875,-0.3108038048720945,1.3506151669285067
2.953125,0.1537816665417928,0.9441485436833902
2.95703125,-0.8762291121052002,-0.6362581320389291
2.9609375,-0.32691857907401434,0.18094523934872972
2.96484375,1.0260623516864977,-0.010629204235370199
2.96875,-0.5950355345371616,0.6527878795523722
2.97265625,0.36565214957834746,0.5448297333630755
2.9765625,-1.0856661632913966,-0.1662517815233878
2.98046875,1.4084966144183888,-0.2139702329778022
2.984375,-0.2081274770288158,-0.13325825581569695
2.98828125,0.19450398888632303,0.9861898887938176
2.9921875,0.730428950883179,0.4673563475789487
2.99609375,0.6676469533577656,-0.5752254379895072
3.0,-0.7729649212929643,-1.2840119591615746
3.00390625,0.6429197178255004,0.5759564406597794
3.0078125,0.2213654850033942,3.1744943087078323
3.01171875,0.039904533982660285,-0.9136688793862987
3.015625,-0.39436697491219486,-1.0372756160116183
3.01953125,1.8894636072722946,-0.09947072929967034
3.0234375,0.675602260059792,0.5782659056290916
3.02734375,-0.6179373150939627,0.7269425961823549
3.03125,0.1984705527485252,-0.5158459357509655
3.03515625,0.5120869169646605,-0.15750402980908965
3.0390625,1.1264757977963535,-1.3833197746624029
3.04296875,-0.3553655238763719,-0.5218760345482798
3.046875,-0.4914480341453177,-1.179448946782198
3.05078125,0.0030257034190842034,-0.8244092229117503
3.0546875,-1.367419375334957,0.6247165635995047
3.05859375,-1.3394176898885115,-1.572480637156021
3.0625,0.9247591769416444,-0.8399016820022277
3.06640625,0.0655484525850685,-0.2746235927510226
3.0703125,-0.31258672648960806,0.19615381270742616
3.07421875,-0.1453179363594021,0.9641718294792715
3.078125,2.381869597492685,0.03443546428759406
3.08203125,1.4865966212762776,-0.6271883003712343
3.0859375,-0.4135264649663642,-0.10415894889498097
3.08984375,1.6859028056921703,2.168738760556643
3.09375,-0.6147326096811846,-1.103998585953549
3.09765625,-0.40482318208453977,0.6759375019875319
3.1015625,0.20350639020709027,-0.04623235924581565
3.10546875,1.4710358470622134,1.9931656018184092
3.109375,-1.7781209231281807,-0.9377434583925467
3.11328125,-1.4575373038052155,-0.6197975096073857
3.1171875,-0.6317438233049838,-0.032637574000363184
3.12109375,-0.6741818762054971,0.17677348547324123
3.125,0.13702868575251112,0.3411144193338231
3.12890625,0.2423034848113898,-1.4519209481520103
3.1328125,-0.2343934974948803,-1.0521014661690498
3.13671875,1.7594278911413563,-0.09134164645213465
3.140625,-0.303719600866727,-0.05852666869992861
3.14453125,0.027194265480107876,-1.6967569791517518
3.1484375,1.1372285880245334,1.419112283293706
3.15234375,-0.32966530616967893,-0.3218902597254515
3.15625,-0.48169622938044565,-1.7232809850482131
3.16015625,-1.694176362097939,0.8426387930365524
3.1640625,0.3766175687015182,-1.9181962788537703
3.16796875,-0.7634332081768976,-0.5509066078513616
3.171875,-0.4680174539322772,0.2214104229566428
3.17578125,0.0005671689674392621,0.7307788551113302
3.1796875,1.7996417858422102,-0.008448187456018599
3.18359375,0.49607969664881385,-1.0325584858401629
3.1875,1.1666919666267312,2.0919910695962045
3.19140625,-0.5309508803104128,1.2240483880962278
3.1953125,-0.8118095309390574,-1.038482909602886
3.19921875,0.5080280081416103,0.1324057853276304
3.203125,-0.31730366871829063,0.5036736962189872
3.20703125,-0.8737739201867495,1.135035314720927
3.2109375,0.9414436911068252,0.05062655108308246
3.21484375,0.6779716413802279,-1.0707310713212284
3.21875,1.6765680125398363,-0.5416924992915922
3.22265625,-0.8317000373733775,-2.068769373387848
3.2265625,-0.9470941469767816,-1.19867334531423
3.23046875,1.1634485130211816,-0.9923300104630967
3.234375,-0.5971934479194612,1.1238938912292222
3.23828125,-0.5096288397108696,0.5013031305181613
3.2421875,-0.37669497530286,-0.7868201908931685
3.24609375,0.4042888270410004,0.5377485606934101
3.25,0.47811531527579093,0.044237435206234486
3.25390625,-0.5155673787768138,0.012803466011838608
3.2578125,0.2482778943361603,-1.3105774927432505
3.26171875,-0.7554911092122175,0.8927074952597999
3.265625,0.6304246306369935,-0.788408591464508
3.26953125,-0.7232397253535627,1.1702762466409864
3.2734375,0.14691327673794827,-1.0546598823616822
3.27734375,-0.038821077423764436,-0.1823484521229302
3.28125,-1.03484621925227,-1.7908680135528514
3.28515625,0.2562081773757777,0.4599206110738213
3.2890625,0.5522763118653664,-0.9647111940866429
3.29296875,0.7008650730498704,0.3964795105283002
3.296875,-0.8554265219642806,-0.48518854943357903
3.30078125,-1.5409141893128941,-1.6983583617587037
3.3046875,0.515380613969333,2.860912584470529
3.30859375,0.18968838216151862,0.10572654445898294
3.3125,0.6575333167990289,1.5955234512143652
3.31640625,-0.8892254627461608,0.23227834266928452
3.3203125,1.3637882905735548,0.3691225090785257
3.32421875,0.33728815365161013,-0.44664415221073556
3.328125,0.4679188463463488,0.08256329619563577
3.33203125,-0.7370522811545402,0.06055623228561584
3.3359375,-1.023827612422165,-0.8444625910940373
3.33984375,0.26970685430286995,1.0178605244933896
3.34375,0.2004491803474931,-0.7605698567013865
3.34765625,0.693650756411466,2.73707654110736
3.3515625,-0.7244028842180407,-1.0786623232708576
3.35546875,0.6779983797793682,-0.02002049929037878
3.359375,1.4119498181383194,0.43366372425752403
3.36328125,1.6651683528344576,-0.673076024319167
3.3671875,1.087174362596521,-0.7657394228214905
3.37109375,0.015079956997883778,2.5950887364251085
3.375,-1.7787994313280246,-1.1572098141118594
3.37890625,0.6829474624648466,-0.381677732951664
3.3828125,0.9397815793732867,-0.6094579186649232
3.38671875,0.8052560383376158,0.6075222645317551
3.390625,-0.33527969809177766,1.6443933201361036
3.39453125,-0.5701107206687935,-0.6337119274976086
3.3984375,0.5962741791745696,0.6540410773142257
3.40234375,0.12416704646096781,-0.03384755875389375
3.40625,2.6205174881446505,-1.1405682034119955
3.41015625,-0.346830764768674,-1.926164718558832
3.4140625,-0.7968910478694625,-1.0290906984428598
3.41796875,0.6671607474164872,-0.2675547272755117
3.421875,-0.48996975166066487,-0.17592465672184293
3.42578125,-1.3623718305136556,-0.47468134250869853
3.4296875,0.20218885237391665,-0.34739805104926086
3.43359375,-0.7365600877899329,0.3903464208600628
3.4375,-1.702560511664499,-0.4206726143887847
3.44140625,1.0264055723100936,-0.5092972719361732
3.4453125,0.15861962888180625,-0.9075106891764785
3.44921875,-1.5812438215381817,0.6111086087684078
3.453125,-0.8542237470006137,0.1730278852867088
3.45703125,-0.29974526446925975,0.42211837605530167
3.4609375,0.32166642993796085,-0.07725618261062915
3.46484375,-1.501072600415113,-1.2586578428009099
3.46875,0.8466675739057912,1.3920147221780286
3.47265625,1.0821772646056151,0.46101898342962855
3.4765625,0.6673841764218373,1.6007638209765696
3.48046875,-0.6545208446914142,-0.4288207564684912
3.484375,-1.2926088757986927,0.42077116922734215
3.48828125,-0.9651030070195419,-0.7460884074360188
3.4921875,0.42569447669633215,0.04380253417866643
3.49609375,-0.5869497559938875,0.6107206668702934
3.5,0.47289609225878226,-0.07309296517201566
3.50390625,0.7241597659376736,-0.27915103467020974
3.5078125,1.4709248482019868,0.03418855717593673
3.51171875,-1.6176061177176002,-0.9744870757188968
3.515625,1.1930162862104414,-1.4485151283355275
3.51953125,1.681334989372706,0.05975751592063586
3.5234375,-2.6752430227345787,-0.042775263135731746
3.52734375,-0.36832751732219776,0.5499618991656015
3.53125,0.7860188680142146,-0.19536210619873848
3.53515625,0.10575736566090875,-2.1996661875981105
3.5390625,-0.02410664951807491,0.5901898331459768
3.54296875,0.21105132194483064,-0.7065580776607564
3.546875,-0.9921185781917397,-0.9104817386880586
3.55078125,0.1566682831113681,0.7528385248244902
3.5546875,1.7530303919291108,0.1480098968053506
3.55859375,0.920498885174977,-1.3314279558607331
3.5625,-1.3141144201628112,0.5326861492911785
3.56640625,1.0898731237852806,0.7910741145264119
3.5703125,-0.36046844585525856,-0.9938508937786169
3.57421875,-0.5723754559984482,-1.1945652368816995
3.578125,-0.7706476214165038,-1.3673901820611598
3.58203125,-0.2025658487043321,2.7971819469433017
3.5859375,0.4146514449918369,0.4913202193878854
3.58984375,0.4120378978907726,0.5642047649886832
3.59375,0.04899856028456708,0.6434904001658971
3.59765625,-0.6470644533981841,-0.17418618431091182
3.6015625,1.1352234179916079,1.8179274924498798
3.60546875,-0.7425010652419152,0.8569504285794295
3.609375,1.382806787009463,1.0515371813572556
3.61328125,0.31632383018127946,-1.6887449971672521
3.6171875,1.8102374207886989,-0.17546265296298838
3.62109375,0.10293513860888284,-0.5812012815114335
3.625,-0.1319380021504573,-0.3701993747313673
3.62890625,0.7249288901788893,-0.8334086380614903
3.6328125,-0.5205607810691584,0.657278551216721
3.63671875,-0.9511219577728018,0.7326678188585217
3.640625,0.18499513017949484,0.846077048769241
3.64453125,1.2081108515818497,1.4429128285390729
3.6484375,-0.9048002424515599,-0.0890116873897024
3.65234375,0.291002742990529,-0.15760986675793823
3.65625,-0.9349949095665003,1.2208540950707094
3.66015625,-0.9910765164858174,2.681545864131548
3.6640625,0.9247492363655966,1.3291994494065786
3.66796875,0.1317517681511825,0.6113757627564235
3.671875,0.31277394359267285,0.1308622380204556
3.67578125,0.049162147860122934,0.29460925610334754
3.6796875,0.20111535213001946,0.4479280600553789
3.68359375,-0.425333737740685,-1.9584508032066248
3.6875,-0.9067390600414247,-0.41826762079954577
3.69140625,0.3483638377139989,1.423577185711408
3.6953125,-0.3449507418185378,-0.3259238519637007
3.69921875,1.1321251307370945,-0.0292629737734022
3.703125,0.15114327133098995,0.18689882997561655
3.70703125,-1.43125988657262,1.4021468950653067
3.7109375,-0.681888169575865,1.4018037091486457
3.71484375,-0.008709396121673523,1.4706572892606442
3.71875,1.1500922220469878,0.9411741666251249
3.72265625,-0.03575868020703693,0.3576883046608425
3.7265625,-0.539927588808422,-0.24728633632172725
3.73046875,-0.694628463086275,-0.09838378253239578
3.734375,1.0799793452685473,-1.9829506715783305
3.73828125,-1.0825346435369712,0.24489951449338804
3.7421875,0.7041914280706937,0.7454544816298496
3.74609375,1.1157987501144377,1.0422120299495996
3.75,0.18775376653103856,-0.2258705463667303
3.75390625,-1.3680890922473232,0.8232152182399338
3.7578125,-0.9039150014470478,-1.4135664119775144
3.76171875,-0.9653041596137967,0.6169813929127853
3.765625,-2.508590791985303,-0.09805292174429767
3.76953125,-0.02828757725213357,-1.2781989712172468
3.7734375,-0.6905522824127464,0.05234772900795618
3.77734375,-0.11586878337020998,-0.4167355716557153
3.78125,-1.1566710439510917,0.8661268465648888
3.78515625,-0.8246157841926153,0.16546934126755
3.7890625,-1.4944586153303254,0.7634342438187427
3.79296875,-0.0998801810881507,2.406918338636266
3.796875,0.4765796733298938,-0.4981324927280324
3.80078125,-0.20007974021723715,0.02968930469411118
3.8046875,-0.813974467629478,0.20953283159739122
3.80859375,0.30357436607843,1.9819114239194713
3.8125,0.48030533529752467,1.8075967688689667
3.81640625,-2.1522042082885413,1.3696765960641843
3.8203125,-1.270853514219406,-1.1791231708463437
3.82421875,3.0167550223949524,-1.5728071717655414
3.828125,-0.7023998038217282,0.6513479874422506
3.83203125,1.526926970220541,-0.20972505235172825
3.8359375,0.37636322000976113,-0.1240811041636077
3.83984375,-1.5350866353772585,2.5202998927098523
3.84375,-2.2756125997837904,-1.7421942830578936
3.84765625,-0.8347344479018669,0.7978780614216371
3.8515625,0.8467893134835852,1.654669995047624
3.85546875,1.7799909529349132,-0.5423560590978457
3.859375,1.9690370737624074,-0.4665766941784504
3.86328125,0.11062568925832825,-0.468925674999373
3.8671875,-0.7999308423925038,0.2516173717027929
3.87109375,-1.0603808925562748,0.8185336742608491
3.875,-2.12754784301826,1.1797307712944545
3.87890625,2.3240392855567986,1.0874547469728757
3.8828125,-0.5469616385625895,0.12954834383214592
3.88671875,-0.29800866683498145,0.7496246265996747
3.890625,0.5832852156892117,-0.1472955375075754
3.89453125,0.10418483555182684,0.8571179840715293
3.8984375,-0.8984175510884916,0.336376431136048
3.90234375,-0.12028166262722605,-0.41724970579914833
3.90625,0.05864123254033554,-2.170139476611254
3.91015625,1.0044542169186328,-1.0598817133892684
3.9140625,-0.42308990215229614,0.34039478116639105
3.91796875,0.18719346810847895,1.0538042483891217
3.921875,-1.1921315702705566,-0.700154348759481
3.92578125,1.387768430521708,0.3797874410653005
3.9296875,1.4224826019827945,0.4222730403362617
3.93359375,0.2722787024052897,-0.11344037050736434
3.9375,-1.0596840727476733,1.0431940837558995
3.94140625,-1.6110988290269015,0.5165172402568031
3.9453125,2.0208297505610284,-0.5521692702735524
3.94921875,0.289006807749306,-1.114439192356087
3.953125,1.8666512445819392,-0.0833261025015682
3.95703125,-0.9268667082377822,-0.40890068314698164
3.9609375,1.5035428720261077,-0.38438163483544985
3.96484375,2.1293889098763823,0.7206886159606276
3.96875,-0.267879969921665,-0.5993365677795837
3.97265625,1.370812003762241,-1.5447895245079857
3.9765625,-0.6216857487917552,0.8621613345085205
3.98046875,0.655509932503296,0.8934591984941662
3.984375,-0.2786723157251863,-0.8064128713387188
3.98828125,-0.3066493452645281,1.4743867195515596
3.9921875,0.2867320665958317,0.7262656701750281
3.99609375,-1.0993478027749566,0.22919345402320937
4.0,-1.194527019477975,0.0676238804308262
4.00390625,0.11232483009559056,-1.3420728167862623
4.0078125,-0.9184266911068473,1.6113778722441134
4.01171875,-0.3995000506756232,0.31942838676793045
4.015625,2.5437750998840967,-0.8121427050097929
4.01953125,0.5045772487456984,1.0036683971730844
4.0234375,-0.1358701836429862,0.04147875416553699
4.02734375,1.629744851659633,-0.1988703021783745
4.03125,-0.33201430426143325,1.3117114960568441
4.03515625,1.7774045687681688,-1.0101512853968329
4.0390625,0.2686384012663898,0.9973999873392172
4.04296875,1.038526705199515,0.03460033447863433
4.046875,0.2787101120280315,1.4936541518525348
4.05078125,-0.3433178728228341,-2.889483767043014
4.0546875,-2.018576889019655,-0.9444649273280966
4.05859375,-0.35666523201178474,-0.4530256371527711
4.0625,0.10780919615067244,-0.245389614714346
4.06640625,0.8292901966604119,1.9182135226407266
4.0703125,0.625299697603714,0.43193761625350546
4.07421875,1.0803880860865287,1.4967178392629894
4.078125,0.4079006518419568,-0.9726505938729478
4.08203125,0.31807638424504875,0.14293893785315445
4.0859375,0.16379651158408046,0.5972835928552707
4.08984375,-0.022142665474584017,-1.1088543946554688
4.09375,0.5336748522743309,-0.26182591210522094
4.09765625,0.4881510099028097,-2.0772000807195514
4.1015625,-1.5418569946167844,0.9557853164512162
4.10546875,-1.4545763809062309,0.7020292842729579
4.109375,0.7426008307932145,0.9249238219447751
4.11328125,1.280887313075255,0.1879011726472999
4.1171875,1.0908093156879375,1.4017417659425226
4.12109375,0.8760822671289556,-0.06184819174502669
4.125,-0.5668825527880827,0.5583811916964281
4.12890625,-0.10296587843152918,-0.4179323027012738
4.1328125,-0.04039970361440562,0.6534083872535534
4.13671875,0.4280310172715107,-1.283544614938854
4.140625,0.7933140011264331,-0.3147494784503383
4.14453125,-0.8920957931206465,1.7707172663146313
4.1484375,1.125260951532331,0.244810791604996
4.15234375,-1.2860539593966378,-1.274780939694914
4.15625,3.7050324154326653,0.29163565807643815
4.16015625,0.8660909720547327,0.38921517186743815
4.1640625,-0.7117076654571247,-1.5475108194229676
4.16796875,0.5138052377696054,0.6079383050314625
4.171875,-1.5784783620335368,-1.5432748991878225
4.17578125,0.28216131861491317,-1.3388656307258198
4.1796875,0.9006981698599313,-0.5410569703815613
4.18359375,0.25906757543414455,-0.38901433449803596
4.1875,-0.3157958045372074,-0.6279113586585969
4.19140625,-0.5103823438736586,-0.45347340617105264
4.1953125,-0.41490623220204115,0.5143462669668789
4.19921875,0.5947441976184781,-2.2271543735500434
4.203125,-0.5016305118487228,-0.12493929037228496
4.20703125,-0.4610908820681588,-1.6822677647004567
4.2109375,0.4409022673190794,-0.8979772752359007
4.21484375,-0.3966530147510434,-0.16081913438517317
4.21875,-0.7035923553739051,-2.0471681855409978
4.22265625,0.15000401015569767,1.390918258568374
4.2265625,-1.9865670860535394,0.004763125325767499
4.23046875,0.43239785834145295,0.027384917951234565
4.234375,-2.1694953323610338,-0.8799371948449143
4.23828125,-0.046984056511000426,-0.8903022837412816
4.2421875,-0.5814769957804312,0.22150288222828993
4.24609375,1.0505167636608987,1.9178587053765854
4.25,-2.2610762169234953,1.4588880095042853
4.25390625,-1.7535054069998566,-0.36768549964780856
4.2578125,0.04712670630028533,-0.7277324877791306
4.26171875,1.1397210719529107,-0.43295714524157225
4.265625,0.5318564592195739,-0.36964339920401235
4.26953125,-0.5271339090410629,-0.6723480253061209
4.2734375,0.5673274260030924,-0.11490629887391217
4.27734375,-0.9706404342773226,0.29620736302732115
4.28125,-0.9576439813237868,1.6319101828233138
4.28515625,0.568804874362161,-1.5222253929488025
4.2890625,0.19868835080587788,0.6917774342400206
4.29296875,2.7696376620609833,-0.18443929621673222
4.296875,0.04841620994513473,-0.44300837044384084
4.30078125,0.12494509066347881,1.079947432649785
4.3046875,0.819663740028209,-0.37747783826049464
4.30859375,-0.8539448388864047,0.020958572317363006
4.3125,1.4639301552610884,-2.307912980131191
4.31640625,-1.3263375835377103,1.1666324361033216
4.3203125,-0.09624238618723346,-0.8167772149176313
4.32421875,0.6308793636036744,-1.8240693704773225
4.328125,0.5489248744308285,0.038630127831688135
4.33203125,-0.7308853672345778,-0.23403906496345359
4.3359375,0.5520005554611769,-0.5580485871844085
4.33984375,1.0656067518329477,0.887297185444716
4.34375,0.3437393105155119,-1.4473633282022758
4.34765625,-0.15484148325902922,-0.9446869128074286
4.3515625,-0.6539473597315502,-0.013514209239323621
4.35546875,-0.3930606143126275,-0.18389546452148778
4.359375,0.33727448516365477,-0.06284551342587869
4.36328125,1.1140757759593796,-1.1105694245312652
4.3671875,-1.7518889717895927,1.1905178442270332
4.37109375,0.05085218770817706,0.4167856738902231
4.375,-0.1345543433595877,-0.8107700027933329
4.37890625,-1.3367435939472996,0.6428782207781449
4.3828125,-1.4565764657929527,0.25384181695256186
4.38671875,-0.04687037121973911,1.0063822448509976
4.390625,-0.42591848413640065,0.13500822170269372
4.39453125,-0.7554818090665,0.36156959999082683
4.3984375,-1.0439262454386402,-1.7393186131209106
4.40234375,0.6427884558837051,-0.12753270000048347
4.40625,-0.9003331929430324,1.2357520651871785
4.41015625,0.05131710466753771,-0.43432201145176264
4.4140625,0.8915142410896595,0.12709182172455832
4.41796875,0.43811435649128583,-0.27048594146934357
4.421875,1.4913786107353657,-1.3545973869662902
4.42578125,0.6375622864520136,0.7413792470428818
4.4296875,1.2500575313119748,1.7561585290528965
4.43359375,0.22976052604077293,0.9287809484618804
4.4375,0.4334456765425805,-0.8446672288857929
4.44140625,0.092526167556614,0.7463109812577653
4.4453125,-0.4110447678949335,-0.8045044514456559
4.44921875,-1.1257608978298883,0.3437374586049005
4.453125,-0.24640849501223144,-0.33274078984701866
4.45703125,1.2935067211560916,1.3382364887787213
4.4609375,0.4745929549387359,1.7190621499781547
4.46484375,-2.0901050623341324,-1.3651400654616366
4.46875,-0.43320478547318164,1.4124310352361615
4.47265625,-0.06475860161383747,1.4186884003637543
4.4765625,-0.7852312139013817,0.776246768302692
4.48046875,-1.3626948449379999,0.6914221851725508
4.484375,1.564488942997832,1.4553613292788208
4.48828125,0.8979103321101679,0.6298592660113275
4.4921875,0.20200646390041102,-0.19981869295816582
4.49609375,-0.06570108598749559,-0.37949302900012566
4.5,-0.13287450861215583,-0.5134008667073645
4.50390625,-0.12698425829238316,0.3188482710528991
4.5078125,-0.20148461830333142,-0.39909359798803695
4.51171875,-2.347251639522814,-1.3959548603988827
4.515625,-1.3034236884860548,0.6899139078528278
4.51953125,-0.4535139083871979,-0.429750338140181
4.5234375,-0.685419084211306,-0.252943981792465
4.52734375,-0.014974992395792962,-0.7483365802954802
4.53125,1.0484437497686994,0.6190910204333758
4.53515625,0.4818250373289,0.7446043876193735
4.5390625,0.7398676964737967,0.7043386274319664
4.54296875,-1.464091050720297,0.6293657165754599
4.546875,0.4666497570181389,-1.6658979720768803
4.55078125,1.760350366966679,0.044183888102061086
4.5546875,0.6112248688237416,-0.9842698417438122
4.55859375,1.3687846263582206,-1.5064768875243386
4.5625,0.40059772336907246,-1.971964380749023
4.56640625,2.11713782644368,0.1602419577744682
4.5703125,-2.442477324837857,0.04223654366722787
4.57421875,-1.6767890451886998,-1.7936664747113136
4.578125,-0.5426751032808358,0.6466167845147617
4.58203125,-0.6170837811406051,0.8980394869490116
4.5859375,0.28374232857239756,1.185265696439226
4.58984375,0.5549934478538598,-0.17042963174746584
4.59375,-0.5356412939571666,-1.2910421205579221
4.59765625,-0.5975241796621846,-1.5210117690495044
4.6015625,-0.47770486671302387,-1.417602855844162
4.60546875,-0.32440638607350164,-0.11345736067859978
4.609375,1.8381571932062517,-0.2609951537297979
4.61328125,0.7603706281668015,-1.695312892335
4.6171875,0.5057322170931121,-0.8950413138348182
4.62109375,0.5420398294992768,0.7646151765947592
4.625,0.23655961109914544,1.0052529747636876
4.62890625,0.4494448086273133,-2.243312701399241
4.6328125,0.021868654955284648,-1.0320677453881737
4.63671875,1.271442101516547,-0.4784877501638902
4.640625,0.5456141215318755,-0.500643227022303
4.64453125,0.28787844416169955,0.7770448382039826
4.6484375,2.088915649264358,-0.08332325665615921
4.65234375,-1.504787500607263,-0.4416204329475502
4.65625,-0.1300570852558415,0.5581370603350486
4.66015625,0.34641927632860764,-0.8965118278045635
4.6640625,-0.8180869625819248,0.43591186154437234
4.66796875,-0.8869222728239611,-1.724043286736648
4.671875,0.0346159200326905,-0.4016213581813779
4.67578125,-0.2694637655438397,0.0654600545168198
4.6796875,1.0683015911550384,-0.5608675926467185
4.68359375,0.9691212069986744,1.2430919901439703
4.6875,0.8940874066747726,-0.48447536766184146
4.69140625,0.04827544292682548,0.04157137166075989
4.6953125,-3.3715987592542156,0.4543797396439245
4.69921875,2.5039105023771127,0.14509898158850973
4.703125,0.761637427263566,1.970560377577997
4.70703125,0.1172930803802316,0.9592823444961807
4.7109375,-1.5122082740229832,0.19043311147361675
4.71484375,-0.49652685609705205,0.8261512916005561
4.71875,-0.43767627355065475,1.4170287887197175
4.72265625,-1.5489654514581066,-1.8994281786574192
4.7265625,-0.5092492311647907,0.7112850384771725
4.73046875,-0.7686274367191567,-1.9682037093237175
4.734375,-0.9388955026972395,-1.5741874869739856
4.73828125,0.3800827330699939,-1.4456226694691936
4.7421875,-2.1359736781590803,-2.01565722927
4.74609375,0.30404353556875063,-0.4198242161441458
4.75,0.4397470157593924,-0.5811183062555495
4.75390625,0.5631084596989824,0.5229113224164489
4.7578125,-0.1250281994879062,-0.4413956997686682
4.76171875,1.512997056328003,-0.29691119930180265
4.765625,1.6823586518887643,-0.6614403983801146
4.76953125,1.5269226074487887,1.7182985583918153
4.7734375,-1.3189939072194243,-0.719861572474212
4.77734375,-0.17643929330966956,0.8362907102286864
4.78125,0.6171423468410578,0.7880538872687696
4.78515625,1.0233177184566957,-0.7294989599414667
4.7890625,-1.5600642685339365,1.7688710118628863
4.79296875,0.4267878593108184,-0.3320644164966893
4.796875,-0.33923734860325266,1.7057792748713225
4.80078125,-0.08883110035611955,0.5653586300430999
4.8046875,-0.505957935001824,1.0077336955783371
4.80859375,0.19474237529567456,1.0740681201947424
4.8125,-1.5563099229563435,-0.9415615589519645
4.81640625,-0.6712053177147492,-1.8329340045299738
4.8203125,0.7256538542517706,1.3261292414863664
4.82421875,0.10612737878832396,-2.1740870821833096
4.828125,-0.06780189189838644,-0.9644757601872621
4.83203125,-0.3371778208973631,0.14583339029478776
4.8359375,-2.062487535313057,-0.6674289471012542
4.83984375,1.0244252911766927,-0.9352718856521003
4.84375,-0.9049924377083378,-0.6157919457227322
4.84765625,0.2608854417265105,0.5328660457674648
4.8515625,-0.39394944603206455,-0.06302317117219017
4.85546875,-0.7586898497042572,2.568153906794144
4.859375,-0.6714072164604977,0.14419732280295797
4.86328125,-0.5122558563146519,-0.031090109129252138
4.8671875,1.2867996723367419,0.7730910605270606
4.87109375,-1.3924939351407484,0.007970196889300802
4.875,-2.5066437614191712,0.4559313878459745
4.87890625,-0.5900823818243887,-1.2558518813847048
4.8828125,-0.6906449561872231,0.04771831767609537
4.88671875,-0.038963347030231806,1.4604828942107257
4.890625,-0.8154746272955615,0.1609739976478129
4.89453125,-1.1105044783702458,1.6420915690077729
4.8984375,0.7716356942631404,0.8181392110999197
4.90234375,0.5668579400104091,-1.3649133411716017
4.90625,1.9106458725875741,0.30153646414673435
4.91015625,-0.8721570978040064,0.8768077139167728
4.9140625,-0.5362112557961765,-2.216909880998142
4.91796875,-1.4407205626361288,-0.31269064605583463
4.921875,-0.059293675607955565,-0.8662004917522376
4.92578125,0.05367406780603261,-0.05821198562742247
4.9296875,0.6475568409058453,-0.013720989453696245
4.93359375,0.6674623552147864,1.5690164265301987
4.9375,0.6557053132362227,-0.23697353517775208
4.94140625,-1.3703534578272512,0.09131331326948373
4.9453125,-0.47700698578463424,-0.9137984548206181
4.94921875,-0.3805325191817354,-1.4752702999796676
4.953125,0.6527219443089535,-1.237243903596236
4.95703125,0.17463618648677032,-0.5907347432503482
4.9609375,-1.1990613676487207,-1.7746058889724443
4.96484375,-0.5579556024531271,0.09929474565598433
4.96875,0.9492086862212918,1.2033518072261695
4.97265625,0.7907111557390185,-1.0346912288191237
4.9765625,0.5494421229475154,1.9419193525758565
4.98046875,-1.1598230054226117,1.3889808876569276
4.984375,-1.3519589021046645,0.482032582964335
4.98828125,-0.4802577410611756,0.9181879317463999
4.9921875,1.5467881646269144,-0.2756672197522969
4.99609375,-0.5992728169250066,-0.5062567420044088
5.0,-0.3166117377388657,-0.17534198039675167
5.00390625,-0.2625028262551019,-0.5357912252750253
5.0078125,-1.159994434409828,1.0413744268903726
5.01171875,-0.4313118921972468,-1.681144535405726
5.015625,-1.5394860060779116,-2.2099287488764405
5.01953125,-0.22846441682318497,-0.6112302557570264
5.0234375,0.6027104632984838,-2.0214767664483135
5.02734375,0.14355330273748335,0.5405030950526121
5.03125,-0.6314878457423961,0.5687752023850228
5.03515625,0.7196944299702719,-1.1813784476754063
5.0390625,-0.4667317802767384,-0.7817642504848389
5.04296875,0.21312035415652933,-0.2810206543983926
5.046875,0.01621439914645539,-1.4154296276253693
5.05078125,0.8074115951211711,-0.35657857281848004
5.0546875,-0.21565814759878657,0.40169366148227265
5.05859375,0.08027015575770503,-1.0333528650340393
5.0625,0.33251494406289,-2.301232704000992
5.06640625,1.6783493788572104,0.2924666379702767
5.0703125,1.3080465561623755,0.4450408059518156
5.07421875,-1.5111991177638815,-0.2339496564954565
5.078125,-0.3429898541639671,-0.7467728816214289
5.08203125,-1.4401203416651067,-0.17249436813769245
5.0859375,1.191641022141563,0.7142834355991866
5.08984375,-1.2152595014915148,-1.3717234343729523
5.09375,1.0481414096474118,-0.14121971093590946
5.09765625,-1.1699432148210207,0.9992399480024549
5.1015625,0.5896084202257001,-0.14083808364580774
5.10546875,0.8152645459772975,-0.9059828647676976
5.109375,0.45706437933860444,-0.15711087373628752
5.11328125,-0.628242045537029,-0.18532210765238294
5.1171875,-0.4790457523575803,1.260199848456065
5.12109375,1.2720631882216238,0.28192132771691436
5.125,-2.092286955755036,-1.4439080719247863
5.12890625,-0.9173412081941797,0.8369922408193421
5.1328125,0.21270812730740624,-0.2575668616478575
5.13671875,1.7322310880569973,-0.13561665435708117
5.140625,-0.31509882797802885,0.6840749319295495
5.14453125,-1.0566380091829484,-1.0273328935940407
5.1484375,0.18609248427152647,1.259240388161155
5.15234375,-0.06908633851643273,3.0438928870142865
5.15625,0.471124035199026,0.4620965789793833
5.16015625,-0.7908544419801417,-0.6895559969175025
5.1640625,-0.34138627885840395,0.6711375939871331
5.16796875,-0.3591486741127371,0.7574410333628692
5.171875,-0.7763900956171544,-1.1960763425031307
5.17578125,2.1325098391469357,1.5283932591468299
5.1796875,0.3474848788538426,2.397983825098739
5.18359375,-0.6384947799815452,-0.8318790558112522
5.1875,0.6533549593771563,0.5406091002976252
5.19140625,-0.7740076663115225,-0.18068724843428838
5.1953125,-0.714883186647224,0.816683469196862
5.19921875,-0.32104003870990383,-0.32639726555196674
5.203125,0.9250607496620349,0.7235768113670628
5.20703125,-0.4342752098029233,-0.35715508248022987
5.2109375,-0.2976214731990864,-0.2359944752684105
5.21484375,0.009409869743236234,0.8300007790330615
5.21875,0.10534192326674648,-0.2519464583618762
5.22265625,-0.5291055149850938,1.111844592138432
5.2265625,-1.907434920974992,-0.5001650035901043
5.23046875,1.4453184478074748,0.5154822866882199
5.234375,-0.19534087131482752,1.1606731364958962
5.23828125,0.8959957837371227,-1.974456797586501
5.2421875,-0.06677985135740407,1.3921924387724174
5.24609375,-0.00118989957122297,-0.6637416181770902
5.25,0.7959532391972527,0.5404472499178143
5.25390625,0.7725419398377814,-0.18445776859723634
5.2578125,-1.7328273077388368,0.2558261414167505
5.26171875,0.5608549233655136,0.7334184731152414
5.265625,-0.21731063219821306,-0.8656448562829577
5.26953125,1.652805883257228,0.28057831543125694
5.2734375,0.637497609743536,1.7142044732875072
5.27734375,-0.741487804598449,-0.8206649845145806
5.28125,-0.6382603331137324,-2.129104632995876
5.28515625,-0.0799306318916481,2.0445959409474534
5.2890625,1.2240506870123877,1.0432046623902114
5.29296875,0.06636499439771061,0.9560916395950145
5.296875,-0.6078835649266725,0.5186466144318143
5.30078125,0.34845077320045154,0.080750177789289
5.3046875,-0.9790592950808732,1.396366574211152
5.30859375,0.8211197114688294,-1.190077095749629
5.3125,-1.7869023192039484,0.42024414044847863
5.31640625,0.3412337305448759,0.05718333122452707
5.3203125,-0.19168395132595442,-1.4089154665997288
5.32421875,-0.8612909639623004,0.5517649263119632
5.328125,0.11569354741531292,2.2307899388000507
5.33203125,2.0995770889480947,0.8771000839843068
5.3359375,0.14175033247262392,-0.6841558051744637
5.33984375,-0.7845832834700565,0.41937030519586854
5.34375,-0.8196205864935504,-2.0816824276379453
5.34765625,0.5261255891307257,0.616016346887196
5.3515625,0.0253091714774105,-0.6579988368007329
5.35546875,-1.5597838917515814,1.0207539711701819
5.359375,-1.582808731828641,0.5854817723424786
5.36328125,0.08402867024381816,-1.7091301375510668
5.3671875,-1.2048433640471812,0.48281503264999004
5.37109375,1.6661426083276516,-0.6216987360090545
5.375,-0.825602265124824,-1.3192186570927302
5.37890625,0.11198927166151298,1.1372044443633655
5.3828125,0.404319986084598,-1.3488713835510278
5.38671875,-0.6687944794766898,-0.940628722255877
5.390625,-0.3980539062774417,-0.7328211647200824
5.39453125,3.441117189004543,-1.7420628069934447
5.3984375,-0.14541279463464493,1.2830442639376245
5.40234375,-1.6959428974538489,0.10869290372133576
5.40625,-1.1097144816758857,-0.12958782206302244
5.41015625,-0.34259370312138415,-1.6029384627325605
5.4140625,-0.06510446805261769,1.599981796853897
5.41796875,0.6311659447125817,0.7848072990752943
5.421875,0.1759629351281718,0.7014719473250284
5.42578125,1.1752247924786687,1.9161460369570555
5.4296875,1.4326131517345124,-1.9118061210917825
5.43359375,1.6216077144246497,-1.5474617923088565
5.4375,0.33809255006041433,-0.1406246258760554
5.44140625,1.4785268078270155,-1.9105374603059169
5.4453125,-0.3050937670611638,-0.44344422974039477
5.44921875,0.5007069147232204,-0.22799418187284465
5.453125,-0.9484491443962925,-0.9504423191718543
5.45703125,0.8532709870292029,0.7613809128244275
5.4609375,1.64960876320788,-0.6148657964420854
5.46484375,0.4385994242834902,0.6871057881189129
5.46875,0.4260843887001613,-0.7828749142701408
5.47265625,-1.5031346399207792,-0.2950675245887611
5.4765625,-1.0085936205280435,-0.09713686413335505
5.48046875,-0.9904196943117249,0.2855102103703949
5.484375,1.203054373781408,0.3736400562773902
5.48828125,0.21797830421742043,-0.9316944980554557
5.4921875,0.9794792557648148,1.5144629208716274
5.49609375,-0.6347410997069945,1.493852200064049
5.5,-2.0284086422941385,-0.7916388257904954
5.50390625,-0.2989270133668447,0.6263157477382141
5.5078125,0.27172336315960716,-0.8625353369184375
5.51171875,-0.46689750184796097,0.019541868671240265
5.515625,0.20580894073638104,-0.7523155969315798
5.51953125,-0.5829552166627658,-1.5328885957415976
5.5234375,0.3747395052894449,-0.3503280389709022
5.52734375,0.7543151750919258,-0.9694088208794284
5.53125,0.12187407349330791,0.5555725124791165
5.53515625,-0.4891095807003225,-0.6762698881078812
5.5390625,0.5760190670438363,-0.8360194604889433
5.54296875,-1.3669430647226113,-1.3996070039754513
5.546875,-0.3701403306288635,0.743816309786419
5.55078125,-0.30847112008292377,-1.1708674168949704
5.5546875,-0.05472627779056553,0.8395054019496462
5.55859375,-0.1009274257299659,0.310194701169005
5.5625,-0.4714090231158316,-0.8849028072968175
5.56640625,0.06995465760600024,-0.3532056394401314
5.5703125,-0.28457853781160924,1.0960892058677132
5.57421875,0.3473137556869531,0.9922182788264053
5.578125,-0.047509815075638576,-0.8620730796872212
5.58203125,-0.5408472895201352,-0.6858647249669797
5.5859375,-0.2228149790284263,-0.1381311667675123
5.58984375,1.0155188615143422,-1.7686715233809245
5.59375,1.0716715414657447,1.110384047247783
5.59765625,-0.7184890176625905,0.2140548166899462
5.6015625,-0.40203917578728077,-0.5663022400923339
5.60546875,-0.6771007769044061,1.5065297082615443
5.609375,-1.3236595117509597,-0.5977699624022994
5.61328125,0.9299319219158775,-1.5388901152404968
5.6171875,-1.415694919233375,-1.4173257078796595
5.62109375,-0.6340772472337848,1.3838961689128542
5.625,-1.874020155323022,0.35049408872999066
5.62890625,0.5427835614536772,0.9412390177725346
5.6328125,0.5554451722966632,-0.8535367547915464
5.63671875,-0.45255881703673784,0.8710857009111465
5.640625,1.806574150519265,1.2184540313570211
5.64453125,1.1700971603679713,0.5876244607619906
5.6484375,-1.1944174617174939,1.3537826749065665
5.65234375,1.2873203931148467,0.3125704742236123
5.65625,0.13534439537109824,-0.709420042181109
5.66015625,1.6810362954992562,0.573018901583634
5.6640625,0.11855341199685908,-1.5295263449873495
5.66796875,1.9565298622092817,-0.8152413496563525
5.671875,-0.015424830625880634,-0.10735752712407098
5.67578125,0.7998934278196875,1.3524302038980602
5.6796875,-0.31147503809688926,0.6533742467154763
5.68359375,-1.2059944441944523,-1.5677429534683651
5.6875,1.3977634080263652,-0.503444415799484
5.69140625,0.12167888822694185,-0.19976712132865776
5.6953125,0.9877791836205555,-1.3730690311748965
5.69921875,-0.41624728677858336,0.0794563663813909
5.703125,-0.24375436980128376,-0.0512164633575613
5.70703125,0.06049025099140229,0.6882859876434763
5.7109375,0.12974209606940598,0.6687125178079338
5.71484375,0.6456481152457383,-0.07488717633878085
5.71875,2.715066911053628,-1.004079742374117
5.72265625,0.4288709859037882,0.5578362167018371
5.7265625,-0.7517005741399682,-1.7148981938824837
5.73046875,-0.7959405849685286,1.2899358276290442
5.734375,1.0347081327469203,-0.660396193794863
5.73828125,-0.7312952118772378,0.4107599612800971
5.7421875,1.911837019140265,-0.5579787525930155
5.74609375,0.5658266529645896,-0.21190108951532255
5.75,1.5445704088663401,-0.18750002705258206
5.75390625,-1.6495195557930404,-0.5667352848176952
5.7578125,0.08558348364513987,-0.9615931336260503
5.76171875,-1.9260199021618325,1.1691358683194442
5.765625,0.9380359078729708,0.10401294638962587
5.76953125,0.438881873553569,-1.3561976272139973
5.7734375,-1.1045638801954152,-1.5899599417152188
5.77734375,-1.1996343252977757,0.6922486927909081
5.78125,1.2343213082967046,1.1512596050494837
5.78515625,0.5841177557383479,-0.6769652602869815
5.7890625,0.12443640796629932,1.2846163538380602
5.79296875,0.26615755477925834,0.9139052962083096
5.796875,0.030898897391747816,1.0588348581019902
5.80078125,2.373225070695189,1.7005914019264867
5.8046875,-0.3376410524999769,0.293028435437637
5.80859375,0.5705976146038176,2.7113946210615403
5.8125,-0.9046687012974314,0.1377219052354752
5.81640625,-0.60213410409082,-0.2719070554390659
5.8203125,-0.39971251929324175,-0.0713684301978467
5.82421875,0.23393305221943728,0.28687239527086017
5.828125,0.11945750550366734,0.6651348070632384
5.83203125,-1.3500926889717428,0.6921984005770787
5.8359375,0.3632362877514276,0.38417013821419776
5.83984375,-1.3303036190958801,0.9932947198939557
5.84375,1.4277716829884228,-1.6322832022389941
5.84765625,0.009472075724066241,0.3156529791625423
5.8515625,0.12478349975019913,0.08441430036475596
5.85546875,-1.4064596113863799,0.7548957398593625
5.859375,0.1852909839197968,-1.7531499629865652
5.86328125,-1.2167112273517497,-0.6035634865871151
5.8671875,1.5876815364182149,0.009345604270840814
5.87109375,-1.7447659447218204,-0.0242509069410222
5.875,0.6115941070108409,0.8725517483255476
5.87890625,-0.19631902980989652,0.6255617669734519
5.8828125,0.35058612650782117,0.8908960690900363
5.88671875,-0.9340678826384882,0.1413838095820424
5.890625,0.5750050430253579,-0.24806856072503625
5.89453125,-0.8961456358935224,-1.2964191175754856
5.8984375,-1.1490375343800394,-0.9492809571155447
5.90234375,1.1507191060610138,0.6867026680229785
5.90625,-0.13644686460626249,-0.43985334497661666
5.91015625,-0.2603592121479766,1.0100677162773188
5.9140625,-1.3354047924297257,-0.34358938081997265
5.91796875,-0.7555084254588459,0.49024690518845415
5.921875,-0.2301123459971813,0.994624438953751
5.92578125,-1.1026437308994654,0.5918419658494645
5.9296875,0.2198596874971407,0.6717249039962283
5.93359375,0.5111474341431511,-0.6610168974820122
5.9375,1.8932145990402043,0.7835651608362388
5.94140625,1.5221427302683603,-0.10848605323480111
5.9453125,-1.3318678523446184,0.05856544679365291
5.94921875,-1.9435155272861193,0.26052229162141805
5.953125,-1.2660817985054709,0.06820897808974159
5.95703125,0.7245408837993993,0.937477786678009
5.9609375,1.0266871964752586,-1.4363032533777949
5.96484375,0.4917988836082909,1.8285148013553663
5.96875,-0.7886693025490468,0.0706041853605133
5.97265625,-0.9394732123749735,1.5325870260979928
5.9765625,-0.9408591660280082,-0.895955627279392
5.98046875,-1.369661653511289,-0.13769425438270744
5.984375,0.1672875865880478,0.925886569596418
5.98828125,1.6166162321906257,0.006355360366415169
5.9921875,0.3134387730388916,-0.8764107089699843
5.99609375,-0.14361609428357708,0.1366834089579047
6.0,-0.9598458351281663,-1.6187812608252996
6.00390625,0.6364093991574977,1.490333685710072
6.0078125,1.1432849846143367,0.3200949852427648
6.01171875,-0.686378236250958,-0.039612780794727846
6.015625,1.0537874180610902,-2.4700858537417765
6.01953125,0.5391341156849971,1.166470941725683
6.0234375,-1.861915568230411,-0.6902677481468089
6.02734375,-1.034396846604283,0.5862062395303554
6.03125,-0.42185237140769094,-0.49808248482065304
6.03515625,-0.6507810012709614,1.036201019504644
6.0390625,-0.6581259700388409,-1.2452847832809584
6.04296875,0.7449077021632198,-0.35053080308689
6.046875,-0.6814147498815801,0.15241950020059827
6.05078125,0.9978234860223705,-0.5707766364898496
6.0546875,-1.2649871473633256,0.21688049360408507
6.05859375,-2.512566824399028,0.01961033978058591
6.0625,1.3054039148571053,-1.2776874419353688
6.06640625,-0.8068958792993811,0.7561089844956221
6.0703125,-0.039964183940158354,-0.7075936313758998
6.07421875,1.6434019825643762,1.7208466651087908
6.078125,1.0671892064297828,-1.0246712845199784
6.08203125,0.12295488862276105,0.09826340652754903
6.0859375,0.2220161914210022,0.647787151369182
6.08984375,0.009489166139219681,1.543914993110309
6.09375,-0.07588466062723596,-0.590003084079419
6.09765625,-1.3521813505655236,-1.1821064800079502
6.1015625,-0.5540018381631517,0.46703394368745227
6.10546875,-0.6662373985637163,-0.1288362618302888
6.109375,0.13558433529930097,-2.0597577514676977
6.11328125,0.9804798326132899,0.7075816215749848
6.1171875,0.5672716058245993,-1.6618921866679153
6.12109375,-0.3070125752245641,-0.9136269962073306
6.125,2.1851220917871204,-0.5951284844784155
6.12890625,-0.542651845723286,-0.30302386181682806
6.1328125,0.7683507614049061,-1.019332747642984
6.13671875,0.5797342697029436,-1.3029559219092137
6.140625,-0.28563914898455667,-1.0334728974031773
6.14453125,0.41312442816045436,-0.5615513973984181
6.1484375,-0.4678342616349182,0.22269779726930755
6.15234375,0.5429391716304776,-0.012869752306392857
6.15625,-1.8906057588982446,1.4247091718679425
6.16015625,-0.41806227087187725,-1.773821408725725
6.1640625,0.5687304901582717,0.07761739505432647
6.16796875,0.023536652852241123,1.254538242750312
6.171875,-0.1868483123638808,-0.596081257419756
6.17578125,0.5990750434670228,0.5346973082191687
6.1796875,-0.8214510119385635,-1.963153488818091
6.18359375,-1.1097403125613896,0.9687382112563979
6.1875,-1.2797919151719794,-1.4773879494718567
6.19140625,0.48750670780334276,-0.7766309324510745
6.1953125,-1.5230786425489906,1.145735882061635
6.19921875,0.48592153210512057,1.9286794730876267
6.203125,-0.25075934093964986,-0.711339567435637
6.20703125,-1.0680320710087328,-1.4869246246791115
6.2109375,-0.5464570107581722,-1.2398930925632459
6.21484375,-0.600545379633024,-0.07259079187552035
6.21875,-0.5168361289725942,1.420715346485427
6.22265625,-0.3729745152752414,-1.1991370577515972
6.2265625,-0.781396719042796,1.4199188479523535
6.23046875,-0.015754940216059877,-1.137453704872407
6.234375,-0.9394042941665895,-0.40333699352558805
6.23828125,0.4479754218229362,0.22162576458428232
6.2421875,-0.47687971426687026,2.051578056259825
6.24609375,-0.5839878745275443,-2.0110362927501155
6.25,-0.059477321608975474,0.8371925045605296
6.25390625,-1.501449146428489,-0.749167136743134
6.2578125,0.20082119624628414,-1.3842146843740903
6.26171875,-0.6046783698096181,-1.6698434731211307
6.265625,0.011675571848424994,0.5876004361350644
6.26953125,-1.0699618316441923,0.7763428694487547
6.2734375,-0.16187720301147118,1.1204991965094724
6.27734375,-0.9476345888852512,-0.15967836956541392
6.28125,0.47552079869516817,-1.91722754996681
6.28515625,-0.31700080213309506,-1.3283033155213066
6.2890625,-0.17010072524036335,-0.25379109683894047
6.29296875,0.8021233692675892,-0.41157167020244073
6.296875,-0.16179980594295343,0.8519417117801023
6.30078125,0.8275064229134234,-0.4399348322801891
6.3046875,1.2268062391389865,0.5514500137829182
6.30859375,-1.6427868826097338,2.0838397235599766
6.3125,-0.23901359090621366,-0.6991479414770007
6.31640625,-0.9517923237530722,-0.12521677470688003
6.3203125,0.8475050295019088,-0.5425779584733796
6.32421875,-1.8861944015817282,-1.3474244738156789
6.328125,0.7221371892225121,1.5567428183403125
6.33203125,0.4260972304305161,0.08085544339818106
6.3359375,-1.4377727721042222,-0.2662104866929634
6.33984375,0.11607918662207145,0.05945880894044319
6.34375,-1.3753874318334955,0.2272728075970411
6.34765625,-0.39584992974660616,0.5197958556458913
6.3515625,-0.5189018486860961,1.047775885941486
6.35546875,-0.1542044367578974,-0.8880258309832282
6.359375,-1.3207381529497615,0.7570555207373161
6.36328125,0.8968340362284517,1.4037761423725645
6.3671875,-0.6798200867303106,-0.2635512524478923
6.37109375,-1.1413137028014202,-0.5560265699147658
6.375,-2.7882385806484566,0.7033148229288614
6.37890625,-0.03628494255161953,-0.4588400948005437
6.3828125,-0.38306885275193825,0.012053248238258232
6.38671875,1.4853618445726162,1.2626496335543569
6.390625,2.2259813492114846,1.5978671115032888
6.39453125,-0.2327916636918674,0.5334139759519226
6.3984375,0.9534837780835994,0.6950134451983166
6.40234375,-1.1338619385269382,1.405995562744262
6.40625,1.0280107244371597,0.9010436537540336
6.41015625,0.8545443911526556,0.1828587021085721
6.4140625,-0.8907552477512991,-1.4165693102297923
6.41796875,0.10950290641009335,0.3869917120041199
6.421875,0.44511570422666497,0.21005291409103868
6.42578125,1.1920276869666442,1.7749508031690273
6.4296875,1.195064187288893,-0.17821143180385648
6.43359375,-1.091890368577421,0.22261321938402745
6.4375,-0.6933078558146325,0.09385393568024067
6.44140625,-0.1380060612702822,0.41311504013921585
6.4453125,-0.7997776125337319,0.6222978356869535
6.44921875,-1.5435140643878453,1.2015036885703139
6.453125,-0.18419551274574295,-0.42018445384091485
6.45703125,-0.8510676553125236,0.1837920286162858
6.4609375,-2.0853766510767353,0.16475291900193914
6.46484375,-1.5010051795436867,-0.03880679583504095
6.46875,-0.5211873116958353,0.6855930078329718
6.47265625,-0.4671058636733496,0.9578026499384633
6.4765625,-0.1044307627206003,0.267000304252929
6.48046875,-2.420098882381113,-0.09702252527333044
6.484375,-0.7383143016316132,0.12363191058994788
6.48828125,-1.4116175900453127,-0.007229479734331428
6.4921875,0.09749544726537633,-0.8575400850338651
6.49609375,-0.6863207670510881,-0.015145884900157586
6.5,0.1842294703843069,0.10162235206892392
6.50390625,0.5566263216015406,0.2655024789340887
6.5078125,-0.32430174531550815,0.22075283833682885
6.51171875,0.7284291455516176,0.5033193631610936
6.515625,-1.196778838107365,-1.381782870115604
6.51953125,-0.5600636574330036,0.04036441132943278
6.5234375,2.137452915169835,-0.13053402515670254
6.52734375,0.9004571178289964,0.6320958537069647
6.53125,-2.127447557074086,-1.1139605777573562
6.53515625,-0.8806359652712086,-0.35401897481931927
6.5390625,-1.3834127372624243,-0.5112374763982197
6.54296875,-0.050186343061438786,0.3331227610688704
6.546875,0.043864867057010114,-1.2929954574795783
6.55078125,-0.46227917367858545,-0.6643051297293656
6.5546875,0.9096278051804442,-0.07340388100237584
6.55859375,-0.4171694032308249,0.8467412173855333
6.5625,0.11302694046565895,0.3240898293965407
6.56640625,-0.433738799939637,0.7298856350282534
6.5703125,0.3192979774516811,-0.25067890503232143
6.57421875,-1.105117280104978,-0.6862415456907249
6.578125,1.642222309196579,-0.4525105734455804
6.58203125,-0.01624776396469077,1.169677088984829
6.5859375,0.8160320160803344,0.3272634883812797
6.58984375,-1.036542504487708,-0.21253468059723823
6.59375,0.8337116651127532,0.543386282940661
6.59765625,-0.3854308487060441,-0.1180711345816423
6.6015625,0.8492554619233933,-0.49136722329075
6.60546875,-0.3275524576775253,0.6280713824349068
6.609375,-0.42844750610374127,-1.90560869804517
6.61328125,-0.07894187654635272,-0.7770340977659432
6.6171875,0.10989550246074184,-0.9449374412017407
6.62109375,-1.3727753459409884,0.9495591692419443
6.625,1.263102000456776,-0.1155846228641937
6.62890625,0.7899384890794576,2.307312589019431
6.6328125,-1.3318168294386832,0.38457137566285066
6.63671875,-0.7880904521141121,-0.44788851744354113
6.640625,-0.3572657398096669,-0.15995837877841276
6.64453125,-2.2547692401481454,-0.33313853305263685
6.6484375,-0.6850236042506763,0.2704863988417142
6.65234375,-1.3802000973756683,0.5210604278897613
6.65625,2.076610311974718,1.3220395672385332
6.66015625,-1.2768709695425322,0.06455088038691091
6.6640625,-0.5132132790721259,-0.834719576382531
6.66796875,0.6364744286223525,-0.942147822009703
6.671875,-0.63407601224822,0.16261988596856974
6.67578125,-1.0058271452706338,0.2648680657753266
6.6796875,1.678964881593269,1.0574266072768728
6.68359375,-0.2150005815247717,0.2780608747367606
6.6875,0.16837172782704157,0.993334172933959
6.69140625,-0.9915598987752023,2.2105557754175282
6.6953125,0.018353616648135822,-0.76171091064602
6.69921875,-0.6401657668826091,0.43051155833694255
6.703125,-0.07942226501158274,0.14020384444232173
6.70703125,0.7189636658138892,0.5981111895182419
6.7109375,-0.69458801678747,-0.41284754429439485
6.71484375,0.271331333788028,-0.5614728928470546
6.71875,0.37345902091735844,-0.0023681088006465333
6.72265625,0.741593755820969,0.8908472593259524
6.7265625,-1.7136326571444054,1.1692203749201224
6.73046875,0.7390949811116039,-0.14836255954533614
6.734375,-0.021927679508246697,1.2108576797868411
6.73828125,0.051334454918749294,1.9099072677732933
6.7421875,-0.9968548051626279,0.9128404787124212
6.74609375,1.0848599645689647,0.6346577893286984
6.75,-0.7255468832569391,-0.7078334213957906
6.75390625,0.0841203974509669,-1.5940425494243402
6.7578125,1.6396275222086139,-0.22489708156825555
6.76171875,0.37765451102960507,-0.14125918819424738
6.765625,0.9569924147972562,-0.9820037599652974
6.76953125,1.4594450019170175,-0.6269967001612787
6.7734375,-0.43221586846868726,0.6101963363634021
6.77734375,-1.7451602061568008,-0.6833608414961955
6.78125,0.5773129293440853,1.813135000443791
6.78515625,-1.9415779667761646,-1.3585885092071928
6.7890625,-1.2697318160572502,-0.5349840529908111
6.79296875,1.720093915826164,0.15242298089345818
6.796875,-1.452376208550172,-0.7646700307567795
6.80078125,0.22512995534802338,-0.9251586430338037
6.8046875,-0.4424211413463779,-0.8412773436676023
6.80859375,-0.5519804195627551,1.1997681188549252
6.8125,1.3729542298094586,0.8642181060950886
6.81640625,-1.1072968354181796,-1.1945150607523247
6.8203125,-0.21379167102638547,0.6663083941867286
6.82421875,-0.41483575975176157,1.252465072171934
6.828125,-0.4212569751084872,-1.1473745506186495
6.83203125,-0.11421987933939078,0.6368671000795201
6.8359375,-0.6613747262205212,-0.3654284356183323
6.83984375,-0.8479466491103568,-1.3605221963586487
6.84375,-1.3309084070255754,0.14531634876940935
6.84765625,-1.5975376773622132,0.1554405906336876
6.8515625,-1.0140946675283444,1.224332584833077
6.85546875,1.436335173146254,-2.0135719405812456
6.859375,2.2185774763397514,-0.9754613707650392
6.86328125,-0.6974193845791989,0.5859772655951861
6.8671875,1.6651024229759652,-1.116920979447514
6.87109375,0.37370940979765527,1.1487915867267804
6.875,-0.19829404163653921,1.3664873441549272
6.87890625,-0.047895587163076556,0.3548146159941985
6.8828125,0.491247140200314,0.28132507464985823
6.88671875,1.3986060139207699,-1.229692527896918
6.890625,2.114880577044067,0.4814605781496822
6.89453125,-0.02314876397056272,0.7045834510177627
6.8984375,0.8699640839028474,-0.8544447750489247
6.90234375,-0.6554184548836984,-0.5659522383914317
6.90625,1.4643408331036554,-2.051541904829529
6.91015625,-0.878491167094653,-1.2395010985093566
6.9140625,-1.7293549372108368,-0.4995305063987513
6.91796875,0.36519668617035045,0.7669343436359787
6.921875,-1.0555537233573706,1.8505053890924394
6.92578125,0.6681827358501191,-1.0657599260591788
6.9296875,0.32575198686438145,0.6880409669862738
6.93359375,0.06781151777232035,-0.6373679879919582
6.9375,0.661428556547014,-0.8587895447635506
6.94140625,-0.2670486159210271,1.1600125466234945
6.9453125,0.38072925421356135,0.30268079641393353
6.94921875,-1.0874322075511587,0.9216224638931201
6.953125,0.17866920369849273,0.9952202212917534
6.95703125,-0.830278180653325,0.03746113403298436
6.9609375,2.3161451242658493,0.7685589690509695
6.96484375,1.0768021788909832,-1.7751277275847268
6.96875,-0.9530317899773675,1.2520046108205227
6.97265625,-0.6807096065720001,1.6178441612227439
6.9765625,-0.8005709625176015,0.031360153558619513
6.98046875,0.6539594043102672,2.0277824951247694
6.984375,-1.1988707789980209,0.6648301434932862
6.98828125,0.8938465649165224,0.547647833816106
6.9921875,-0.018807972545075307,-1.4870338806610885
6.99609375,-1.0584959693273877,1.6975521123284585
7.0,-1.0922998630140472,-0.8484626227558856
7.00390625,0.5453499259954343,-0.40634970301785067
7.0078125,2.27382359289855,0.48798597985669073
7.01171875,1.1265513172733344,-0.6858184310646454
7.015625,0.6782212145062184,-0.09161927302804626
7.01953125,-0.01903626505448645,-0.7000693799253094
7.0234375,-1.5493536968069164,0.3678941588045254
7.02734375,-0.12036917686002284,-0.7756322754684162
7.03125,0.8948100063154919,0.48428570342966787
7.03515625,-0.5126605914706382,0.04378329999950465
7.0390625,1.4614175900016446,-1.464978987152733
7.04296875,0.4169919780056062,0.9912811006372546
7.046875,-0.7794350996428742,-0.10987757333253872
7.05078125,-0.33656908656075724,0.21456319795715126
7.0546875,-2.1655274109828473,1.645607379284533
7.05859375,-0.7138760179575716,1.1350562923284067
7.0625,-1.0689505321214838,1.2917523117860947
7.06640625,0.31424502795022125,-2.32602125992795
7.0703125,-1.1583447193676615,0.3213203163230558
7.07421875,-2.3158378682260987,1.2276149443383368
7.078125,1.620234600907626,-0.5965363796719313
7.08203125,0.9087774377975245,-0.6574092842568263
7.0859375,1.708139368295778,1.1953924840294463
7.08984375,2.0160477170629485,-1.95433208691483
7.09375,1.6939000219449747,-0.5865553259567766
7.09765625,1.2650664630592439,0.296603875838343
7.1015625,0.24144879747761364,-0.808828710536058
7.10546875,0.5353805936217042,-1.0710791264467248
7.109375,1.3770740534145942,-0.6774266812056217
7.11328125,0.1334782123808177,1.2254684557199245
7.1171875,2.4766978795529826,-0.15101245282746706
7.12109375,-1.696315867517721,-1.8592286258203448
7.125,0.4028398206313181,0.9102099853594073
7.12890625,-0.9631599013584543,-0.508864973279976
7.1328125,1.435939785844952,1.0594990559360613
7.13671875,0.9543204177680376,-0.472378057015797
7.140625,0.3985312402520193,0.14587094343403936
7.14453125,0.3752936979689317,1.5493021768149122
7.1484375,-0.4624043587573185,-0.35671273216203414
7.15234375,-0.9801643521788403,1.5591831352624832
7.15625,1.3703333628004286,-0.8052949722373095
7.16015625,-0.05254221325368605,0.7036063921252887
7.1640625,-0.3237852801537222,1.3110868386904106
7.16796875,-0.20955887556841177,-2.699192686046765
7.171875,-1.0307635661992927,-0.4097616670344086
7.17578125,1.0619353511739635,-0.7827472741549987
7.1796875,-0.4573678796985987,-2.7300675985355545
7.18359375,0.5393582430833027,-0.9115156136450137
7.1875,0.771424805979295,0.2591311346165301
7.19140625,-1.2733908607165256,0.15489327101601574
7.1953125,-0.6028422000727219,1.0743763674040154
7.19921875,-0.6853153863273355,0.9429372104776116
7.203125,0.5701395436133541,-0.5683341994076061
7.20703125,-0.8104471561922817,0.2682549048708272
7.2109375,0.24348071136751487,0.8441261360974913
7.21484375,-0.6641998170143247,-0.5870570027796618
7.21875,0.43415942819619274,-1.1342669715469058
7.22265625,0.2399634240789076,0.39371266159057117
7.2265625,-1.5745973631879402,0.8777326154075383
7.23046875,-0.8766115811432058,0.12652064982454608
7.234375,-0.9254516044352494,0.9633026698814942
7.23828125,0.6765308434339813,-1.2531756221629844
7.2421875,1.2775653052995057,-0.4942999876791703
7.24609375,-0.45254905485794794,0.43630688312890736
7.25,0.14263314533479943,-0.63350079295799
7.25390625,0.7150254906486002,-0.578262048405469
7.2578125,-0.12738199191939645,0.5911629766296643
7.26171875,1.2746825381080096,1.5153951558225058
7.265625,-1.6504184087244234,0.10259556330824139
7.26953125,-1.8841513594931723,0.02740691056616114
7.2734375,0.5823032380751005,1.2537837989211769
7.27734375,0.7229147877553895,-1.3010048354648949
7.28125,-2.111943391948394,-1.620147172288004
7.28515625,2.416526546737985,0.6072128126130429
7.2890625,-0.7783939332559014,0.5105761831977607
7.29296875,-1.1302996805316727,2.172107355621122
7.296875,-0.08592512736861393,-1.4362376903370349
7.30078125,-0.3144160605692535,0.4751815258933495
7.3046875,1.8131562144966835,0.4614750963929295
7.30859375,0.004750088707243597,-0.5667217636499234
7.3125,-0.2502136546085706,1.4397587136851395
7.31640625,0.22430866015047995,-0.043154009042765666
7.3203125,1.59402578590291,-1.5049752334509487
7.32421875,0.7917775441935682,-0.5366902860871986
7.328125,-0.23202164268560857,1.616888095293744
7.33203125,1.4125653406347427,0.36225344299239415
7.3359375,-0.4204446592186717,0.021812555276424866
7.33984375,0.8781417377497969,0.9560439105036699
7.34375,0.6988972149665578,-1.2108567281496665
7.34765625,-0.7260974119635905,1.3269511051393883
7.3515625,0.829839879641252,-0.00815942582575884
7.35546875,0.2967130812011832,-0.6723650460755859
7.359375,1.1346757778501395,-0.1952036349305058
7.36328125,1.1004471716060569,-0.36502492131385234
7.3671875,-0.9889546926025903,1.4380698058063515
7.37109375,-0.031043835122615868,-0.9473811433521137
7.375,-0.4324541803446482,0.35060002031658793
7.37890625,1.2491587836002873,-0.743282676178008
7.3828125,0.5608393921380849,-0.7772947693407942
7.38671875,-0.40907110156985893,1.6933647783854135
7.390625,-1.0878392730015878,0.8576374688043398
7.39453125,1.5482706209948076,-0.19438776806837232
7.3984375,-1.0396669574321378,-1.0914805908052565
7.40234375,0.47488489114283067,-0.15489435051448458
7.40625,-0.35899138521827473,-0.8677046965758662
7.41015625,0.7777820338788626,0.7536035151504773
7.4140625,0.5779982370801712,-0.9457508570609644
7.41796875,0.04947675205628009,0.4622312725656523
7.421875,0.6751915246972339,1.0813725327338273
7.42578125,0.3128698239931585,-0.74669414832029
7.4296875,1.187769477117238,-1.13919612330114
7.43359375,-0.20898030756186245,-0.3363370174613663
7.4375,0.6467805646547463,-0.042301206284534286
7.44140625,-0.49802057548148515,0.6376626128070597
7.4453125,0.12689332151567892,-0.806117164044372
7.44921875,-0.7396027080416432,0.08935260235820144
7.453125,-1.3409957884136907,-0.9112612073042002
7.45703125,0.7113916436061916,-0.3815763453448707
7.4609375,-0.6259194724316557,-0.6581593557536735
7.46484375,-0.429951062843532,-1.096442761490249
7.46875,0.31872002886380707,-1.0042892598636906
7.47265625,0.44387130573089073,-0.9317395318528889
7.4765625,-0.26817231155867455,0.25012354766633355
7.48046875,-0.33321015676700394,-1.113919899370997
7.484375,-1.0410701875102024,-0.8724424985747469
7.48828125,-1.170662340262643,0.8661838898012565
7.4921875,-1.2860321842994134,-0.06783942864914588
7.49609375,0.15046073949307484,0.2539856462388212
7.5,-0.7214499557806461,1.2035715933087876
7.50390625,-0.4421223675048613,-1.2527145627068634
7.5078125,0.042822167023202094,1.5476602814428466
7.51171875,0.06243223237466378,-1.5684770521707267
7.515625,0.07755081400819329,2.6989805407930643
7.51953125,-0.23258989285826395,-1.4969565047069608
7.5234375,-2.4206552163886834,-0.6878676809993362
7.52734375,-0.775792352936621,1.0416760133179235
7.53125,-0.5057655568694456,0.7678910830877257
7.53515625,-1.0613067201943656,-0.3046511718374342
7.5390625,1.2721007404030824,-0.5053800752079725
7.54296875,1.322909974525339,-0.19503717391577544
7.546875,0.7820275909305077,-0.02134579400216559
7.55078125,1.4113133066030799,0.48127216532058786
7.5546875,-0.5458874583897253,0.32032743597783037
7.55859375,-0.682530737094013,0.37951050162152206
7.5625,1.4329382563807405,0.8938039125997737
7.56640625,1.317856271592916,1.2606952064205077
7.5703125,-0.9025023041971781,-0.6511986281400834
7.57421875,1.7958729697087314,1.2723700974974552
7.578125,-0.929940952899348,-0.5440405775087508
7.58203125,0.3548628923855326,-0.8420613940458687
7.5859375,-1.1663463954540416,-0.877598546174792
7.58984375,-1.0375595943146485,-0.7526505481948267
7.59375,-0.7502799581224819,1.4824979025870573
7.59765625,-1.1219353423962188,0.40541262176076653
7.6015625,1.2778978872557385,-0.4738244630364919
7.60546875,-1.2032644602006168,1.533096096525193
7.609375,-0.781355710471215,-1.8117827747003545
7.61328125,-1.8674987258795788,1.5507848857251467
7.6171875,1.2404105221413628,-1.6501462061769554
7.62109375,0.2996323613965407,0.8767074311652364
7.625,0.4476590741156367,0.7771269490511796
7.62890625,-2.1563484839964677,-0.3155930183841297
7.6328125,0.018846487280673743,-0.47756303397727023
7.63671875,0.48901188411813046,0.7592046395911306
7.640625,-0.9523048324014303,0.08411300171808134
7.64453125,-1.395927784338079,-3.797206594899967
7.6484375,-2.3635106065631675,-0.4225692871148608
7.65234375,-0.5396001417766907,1.0768779042953196
7.65625,-0.4496400360555886,0.9351091326632303
7.66015625,-0.006256031645829862,1.7608496950158061
7.6640625,0.2883806298439517,0.968303160897523
7.66796875,0.30544437808308494,0.22527025566697914
7.671875,-0.0735302086623622,1.577393580144366
7.67578125,-0.8233756789774709,0.020934613634630107
7.6796875,0.1516997951522224,-0.6919915355138235
7.68359375,1.057212746516299,1.7925633691825973
7.6875,0.29778398273002676,0.38724843970538786
7.69140625,1.0079277524369648,-1.4980274861839287
7.6953125,0.5699893589553242,1.1566206701298904
7.69921875,-1.0463985569981984,-0.269959561597797
7.703125,0.08695988992817408,-0.6496602685345285
7.70703125,1.2240245541368773,-0.4729514080725636
7.7109375,-0.7422205391974941,0.6571492738748075
7.71484375,0.8026952034469548,2.15060497794201
7.71875,-1.2988022240964958,-0.3835169566811246
7.72265625,0.1457533069819703,-0.7763608631103821
7.7265625,-1.7906542072205724,0.11200168771930746
7.73046875,-0.16845361110348087,-2.3450138469071375
7.734375,-1.7976176242282527,2.3939106809078043
7.73828125,-1.9708282146675415,-0.5130790624538668
7.7421875,0.9091271043323289,0.017115466682010513
7.74609375,-2.0134216682243267,0.3982111960128431
7.75,1.4413649617238742,-0.9294864342396659
7.75390625,0.23356720403985434,-0.0625520920551724
7.7578125,0.15517790013388094,-0.15574276888928215
7.76171875,-1.7502336371622798,-0.2612135402759124
7.765625,-0.008362807288611981,1.2457963290574867
7.76953125,-1.387647379114996,-1.0503939828486137
7.7734375,1.46931361095514,-0.7336287999865434
7.77734375,-0.33681155472892216,0.34436340635084195
7.78125,-0.4689124075065619,0.7455196221469849
7.78515625,0.07365986181904488,-0.5492387297309542
7.7890625,1.4931513797497198,1.0419281616710658
7.79296875,0.12426128384495197,1.5773267209757584
7.796875,1.9263954696172378,1.3094502828395422
7.80078125,-0.9266079905833297,-1.1486542950925371
7.8046875,-1.3249674682065344,-1.4727095056223118
7.80859375,-2.259196328556602,0.3781259016240461
7.8125,1.80642462372697,-1.1116545412027357
7.81640625,-1.2909568309489396,-0.8856695820094131
7.8203125,-1.1804131635470685,0.7856791360504413
7.82421875,-0.28906908881926224,-0.9887138827248642
7.828125,-0.22866223483794973,-0.9746796517079191
7.83203125,0.8769789216331823,2.68570876936673
7.8359375,-0.35931941825705177,-0.057488243150895395
7.83984375,0.481299793305946,-0.009166472732689366
7.84375,-0.2604529466519474,0.655974983716046
7.84765625,0.7199111770076392,2.2221475601937954
7.8515625,-0.7281856176949603,-0.8865374593662956
7.85546875,1.2065865584951,0.26662578895555317
7.859375,3.3213101220687307,0.38980928815102645
7.86328125,-2.5856688554403253,-1.2633731543594628
7.8671875,-1.4143573516141819,-0.27609045502619656
7.87109375,1.57890075825486,0.3395656388083548
7.875,-0.10496089965833054,-0.0029507147090843014
7.87890625,-0.4261851131806642,0.6584249949203026
7.8828125,-1.2443257669126555,0.9636358519700132
7.88671875,-3.0770849030191214,0.3806552062742621
7.890625,0.6840157246827689,1.8222657908714008
7.89453125,-0.7156675420157315,0.8128248841237721
7.8984375,-1.0235725302471539,0.2381872728389553
7.90234375,-0.38534562916196363,-0.45169100142067414
7.90625,-0.206079870786576,-1.075540403124789
7.91015625,1.0442988746959618,0.15704923291189385
7.9140625,-1.043330614398448,1.086858597338259
7.91796875,1.5065978543467666,-0.3944652902025497
7.921875,-1.2652411809188786,-1.2565136829614958
7.92578125,0.2997671865647646,0.47410138999462825
7.9296875,-0.4376815881227788,1.5853496028186438
7.93359375,0.39558738728384385,-0.22038654688232862
7.9375,-0.2717672832434016,-0.6311382968914623
7.94140625,2.062914506930666,-1.3604157283530127
7.9453125,-1.3338605959951637,1.0581421654122822
7.94921875,-0.9392017814319675,-0.37271938938808175
7.953125,0.2916823625871061,-0.048871501875449815
7.95703125,-0.8643539669858761,-0.17586369485518466
7.9609375,-0.04549669145342207,0.4495622206925141
7.96484375,1.2877559043921316,1.6502738269860384
7.96875,-0.14651206412603934,-0.6765502266461118
7.97265625,0.8916224430913938,0.44798816987165335
7.9765625,-0.054623229563801855,-0.8914545252276621
7.98046875,-0.48239359927044534,-0.5547819341141985
7.984375,-0.5115748641425504,-1.0444332335175575
7.98828125,0.5965617056210347,-0.2917885163091489
7.9921875,0.9031289953285838,-1.6828694670386593
7.99609375,0.9174152945341144,1.2713430657342781
8.0,-0.8469995622084313,0.6888028558373905
8.00390625,0.6994735904231334,1.5400878142332375
8.0078125,0.13214583237946806,0.16166065241564634
8.01171875,0.15244791356478654,-1.304469217549151
8.015625,0.8180461620991988,0.13459919955754632
8.01953125,-0.7373627628588498,-0.8567247780428622
8.0234375,0.01624464004350407,0.5039064819575405
8.02734375,-1.9990773777273523,0.103337067768919
8.03125,1.0362291909527093,-0.7451224680233616
8.03515625,1.4416376136598776,-1.0473172816210665
8.0390625,0.5269324082057831,1.102009646691117
8.04296875,-0.9789269340267678,0.7946144468950576
8.046875,0.006988612623314539,-0.6413789088747638
8.05078125,-2.4679139322941563,0.5573304574651305
8.0546875,-0.6956365534313029,0.09358399390424331
8.05859375,-0.3073620767092288,-2.0237329329120874
8.0625,0.7599498814666428,0.2547697692288098
8.06640625,0.4461262916951815,-1.0527426521531165
8.0703125,0.06708298454483244,-0.7555518460780243
8.07421875,0.49683753816140536,-1.880124830268966
8.078125,0.868541308673089,0.4856390959958789
8.08203125,1.9817118118130197,1.2634857656353964
8.0859375,-1.5550455552671307,-0.6182577114734323
8.08984375,-1.3321906599945832,-0.19924506280066934
8.09375,-0.29808327376457144,-0.3864129370936073
8.09765625,-0.3590152687943417,-0.7399564659812425
8.1015625,-0.280406456629951,0.6534304643920131
8.10546875,-0.3275776311668627,-0.828867234703926
8.109375,1.6974110335190575,-0.3182764753206812
8.11328125,-0.9758696903716226,0.8173957182008675
8.1171875,-0.8801015713481527,-1.4017572807518368
8.12109375,0.6741508685680047,-0.6881690296094148
8.125,1.1879392684704617,1.2526747356786163
8.12890625,0.15406149878931993,0.09505853768778252
8.1328125,-0.061156925886933285,0.0014227378079739827
8.13671875,0.637739258650553,1.4871185531160647
8.140625,1.2629289159551607,-0.09378773754034829
8.14453125,-0.5209759506118072,-0.032421663594639494
8.1484375,-1.8498482344093727,0.21904817492036704
8.15234375,0.08735797862524121,0.6269460666724406
8.15625,-0.4093799970489761,-0.48584186371203597
8.16015625,1.6782459997976842,0.058768035317964325
8.1640625,0.6383500031773813,0.3492628951868477
8.16796875,-0.26798470117499446,0.4876989841589585
8.171875,-0.3259486958163319,-0.33452560570835693
8.17578125,-1.5891807423096598,0.09099527918619807
8.1796875,0.5848276795837163,1.8144018703214808
8.18359375,-0.15634920953805936,-0.18897986437884545
8.1875,1.1919694919640729,-0.29994092457939214
8.19140625,0.25660874902054703,-1.4054577000429591
8.1953125,-0.3289423008921048,0.15199933410274738
8.19921875,1.1057982969097582,-0.026825010376176246
8.203125,2.0207807452264186,0.3779213813609324
8.20703125,1.2172379084690477,-0.2757220892212617
8.2109375,-0.8983166614091874,-0.0143759136285046
8.21484375,1.8873277173045915,1.6990739336327276
8.21875,-2.132273320520778,1.4018090198304418
8.22265625,0.2390328057926908,-0.10833327085735532
8.2265625,0.49926131888535086,1.0615516226554775
8.23046875,-1.4662006714730726,-0.3317419187883627
8.234375,-0.48342221918614,0.6215488831738303
8.23828125,0.7732165809879487,0.527384331792194
8.2421875,-1.3837881073986058,-0.0388929064471147
8.24609375,-0.16300830363792754,-2.0470855707809643
8.25,0.754562927541954,0.04810440375265695
8.25390625,0.5552643706113195,1.0329545909955635
8.2578125,0.3160694113130346,1.2929679465377
8.26171875,-1.0918187141948725,0.3461913875759176
8.265625,-1.0610329996462575,-0.9180500120219358
8.26953125,-1.4942258251039227,-0.01157743758451665
8.2734375,-0.6671575417321703,0.5720288747646511
8.27734375,1.816894234336824,-0.16880437415408364
8.28125,-1.1104128255302943,0.5035190066084818
8.28515625,-1.151626746396127,0.19123879356099033
8.2890625,-0.45377721396617066,0.4007900259621453
8.29296875,-0.190285419507514,-0.2530375788779119
8.296875,-0.49706252424223535,1.648267926534576
8.30078125,1.5787246440690317,-0.07279834209859504
8.3046875,2.6391823623180306,-0.07638662447986862
8.30859375,0.8550878674967607,-0.7154754792747469
8.3125,0.3250248140815405,-0.5485530176289978
8.31640625,-1.7557554737164398,-0.17657197469324779
8.3203125,0.09713839243377724,0.046151653517948615
8.32421875,-1.0017809959985864,0.671779948357507
8.328125,0.6521514528033284,-0.8513322102877231
8.33203125,-0.6909157639257537,0.9776132482718647
8.3359375,0.016493719540304225,0.7650124201504613
8.33984375,-1.021575624234141,0.9604247533021428
8.34375,-0.02444933819797305,0.033206804589814155
8.34765625,-1.2968039681002177,0.009691336965699515
8.3515625,-0.0020783693728727063,-0.016302242379051108
8.35546875,-0.35096671221193504,3.063093153531447
8.359375,-1.2257720903085014,-1.6148678119995037
8.36328125,1.1654931198633334,-0.6868334117103878
8.3671875,0.7467517069077226,-0.25791247045961047
8.37109375,1.1691213117298687,-1.2387696041989613
8.375,2.087575138693516,0.6793603467586186
8.37890625,-0.536840026251706,-0.6827938786262945
8.3828125,-1.9480087610320995,0.5544026087572823
8.38671875,0.5422346111163966,-0.30944165631653836
8.390625,-1.816341416434584,-1.197036543428414
8.39453125,-1.1326329395468704,-1.5824693401021908
8.3984375,0.058057407519895105,0.08588428061221598
8.40234375,1.0189240762267173,-0.5520221536412631
8.40625,-0.24039743529675636,-0.5684797959353222
8.41015625,0.8168445024305235,0.32629465568913296
8.4140625,0.443924477279323,0.08911964940564167
8.41796875,-0.9894773091962201,-1.0384933121256041
8.421875,1.1233420046077924,0.8406834913133728
8.42578125,-1.3504248684449904,0.2901149572932562
8.4296875,-0.08806546995060176,-0.2806576888482338
8.43359375,1.022505597548631,-0.8217673962079627
8.4375,1.9460260389873927,-0.5897082615193854
8.44140625,0.08070390717459394,-1.8834507628455095
8.4453125,0.02988765870706242,-0.9596356358491016
8.44921875,-0.4118895721758349,-0.8488163033824987
8.453125,-0.9245280774598763,2.0304848875275217
8.45703125,-0.6319181595371335,-0.37269490320268395
8.4609375,-1.3612741923537781,0.9719273265956536
8.46484375,-0.6955974697828391,-0.3967244883982914
8.46875,-0.4966807701724195,0.7561154333952561
8.47265625,-1.0357301714559533,-0.8993272630668112
8.4765625,-0.5241938246711477,0.8734191083930227
8.48046875,-0.9182174044726462,-1.0657163663400908
8.484375,1.665881028425511,0.15805234722715653
8.48828125,0.9577629344181916,-0.10490851095560287
8.4921875,-0.46088071175528766,-0.7683085750851285
8.49609375,1.0148676582237561,0.22875635827420418
8.5,-0.7750593934324407,0.16923983632432885
8.50390625,1.997247764733036,-1.0191280605958652
8.5078125,-0.005377035800168365,0.23474354841520656
8.51171875,1.4181718706638444,-0.0888432368173725
8.515625,0.5733698920089725,0.1075774892647488
8.51953125,-0.05807326239325708,1.0469035016943515
8.5234375,0.9215224477239751,0.6032457884664764
8.52734375,-1.133599870894831,-1.6680383088853963
8.53125,0.17462358581576914,0.30929645746761253
8.53515625,-1.2632099283785365,-0.6051103790965321
8.5390625,1.4539304054596949,-1.9058658137817635
8.54296875,0.5579601615971246,1.0313647409386757
8.546875,-0.8690303180199397,0.576179775048614
8.55078125,-1.579257229564919,1.3207230291385792
8.5546875,-1.5678905986628469,0.37028838057147756
8.55859375,0.7099438554580384,0.9477755213452218
8.5625,-0.2960406356703245,-2.0705997693114546
8.56640625,-0.5490096615558051,0.5425837711733985
8.5703125,0.398915745707143,0.4178167700484019
8.57421875,-1.428401297325287,-1.6047737084041958
8.578125,1.002784454296562,1.4931774885823257
8.58203125,-0.9361079919906994,-1.143363974482494
8.5859375,0.4544613710144792,-1.1348785909428207
8.58984375,0.2172321840872883,1.508676050638944
8.59375,-1.094383260870683,-0.964665565810619
8.59765625,0.07831269153820378,-1.4722355256933346
8.6015625,-0.4428022734399397,-0.19828389138140734
8.60546875,-0.019337363565878108,-0.076192136713957
8.609375,0.12606067820905292,0.44105406180971035
8.61328125,0.5777013077884631,1.3839052185016658
8.6171875,-2.7288654009179423,0.9878772642103021
8.62109375,-0.1700027649606776,1.2229549626642562
8.625,-0.790012427345634,-0.650069941312383
8.62890625,2.1422588266067697,0.23478453749245845
8.6328125,-0.5333450387049489,0.40404071497510063
8.63671875,-0.11256283021023225,0.8464826759145831
8.640625,-2.17835701025409,-1.360516046885686
8.64453125,-0.021137575505298628,2.0979603689736512
8.6484375,0.21598311880959326,-0.7411372478348298
8.65234375,-0.4846852863683905,1.157825298020993
8.65625,0.48196462423603875,0.4304196046812589
8.66015625,-0.33048851486712816,-0.6171489025146504
8.6640625,-1.437372788323531,-1.4379323421321795
8.66796875,-1.6828502016177729,0.03485380264699759
8.671875,0.05548337603491988,-1.1499015057001987
8.67578125,1.4906637982953648,-2.050002212427452
8.6796875,-0.4646053878251712,-0.5259667589790467
8.68359375,-0.04806861244822119,2.6605413198037984
8.6875,-0.8034548141228574,-0.6013818998960593
8.69140625,0.47103373407322696,1.4436179501531294
8.6953125,0.29784152702684097,1.1209093248212698
8.69921875,2.0465151757234863,0.09091866127854621
8.703125,-1.6329133347949778,-0.0026913711679315776
8.70703125,-0.45219027822845737,-0.6921112082163348
8.7109375,-0.84655042872836,0.28640384077629755
8.71484375,0.5365337300055633,1.1274861146473045
8.71875,1.1886910881470154,-0.2496118000573922
8.72265625,-0.8914100539531945,-1.0765569580708423
8.7265625,0.8363168958672058,0.29490326777220643
8.73046875,-0.10802801247011382,0.9556896459841266
8.734375,0.029309073606870746,0.7125374225332836
8.73828125,0.1729302392195387,-0.282472481410981
8.7421875,0.8372651280401311,-0.3991741233007768
8.74609375,-0.61509088479017,1.141747267083404
8.75,-0.2899107409350387,0.45353048172366284
8.75390625,1.7593335720137309,0.8726158554544291
8.7578125,-0.12641629287910253,-0.6167523787732322
8.76171875,-1.2131084393438822,1.2126330163381531
8.765625,0.40967868062169277,-0.35268662966594716
8.76953125,-1.817830024236854,0.22059992985051446
8.7734375,-0.06921832733098963,-1.1168333882854615
8.77734375,1.269267725629758,-0.46306529858877976
8.78125,-1.4166924741190434,-0.3777736212435238
8.78515625,0.9277259943130307,0.7378725576629845
8.7890625,-0.5933597243651088,-0.7862128610680683
8.79296875,0.11857186887577399,1.2474744460495035
8.796875,1.4435396275937102,1.4325190293327392
8.80078125,0.559609544119738,0.3449937930327074
8.8046875,0.8243962874003877,-0.5963113843320353
8.80859375,0.5799751424387364,-0.11310752330586162
8.8125,0.8927330734583768,-2.14522604772228
8.81640625,0.8806053123663813,-1.512196257131055
8.8203125,-1.5236772928366105,-0.5437048749071485
8.82421875,-1.57025888051462,-0.028483719906713816
8.828125,0.01491013791040815,-0.7478227675062153
8.83203125,-0.256269423707449,0.9865741987103115
8.8359375,-1.323935179125673,1.4226993036860447
8.83984375,-0.42253044112120225,0.6543957706781472
8.84375,1.249713603426594,-0.44925544579305293
8.84765625,0.2797023949798269,-0.5276256120868305
8.8515625,-0.675468574753006,0.6002671414048625
8.85546875,-1.3869898350275855,-0.8399896036417752
8.859375,-0.5203091982249659,0.08696613228662388
8.86328125,0.002445440796419839,0.3602281464848741
8.8671875,-0.5721261858552257,0.9155471761859425
8.87109375,-1.6981315430026562,-0.0261052438759046
8.875,1.3406667176720313,0.051468340285991426
8.87890625,-1.2969409732866204,0.7124870985067813
8.8828125,-0.3459958559307024,-0.0769611176938398
8.88671875,-0.6913406831522101,-0.7024497820506397
8.890625,-1.4872830680664049,1.1274078737863642
8.89453125,1.2900056102586386,-0.12386807584672051
8.8984375,0.6289467147691031,-0.38439873882178355
8.90234375,1.1309334537003883,-0.33089438221602546
8.90625,1.7010004663509362,1.1705850940713902
8.91015625,0.5924331036819551,-0.5737915286504018
8.9140625,1.0207376404629755,0.39201574501051323
8.91796875,0.3705988490995643,1.4213565028492519
8.921875,-1.5278172281050268,0.8151240694142355
8.92578125,1.0906449168274246,1.5250670042492687
8.9296875,1.1020686183248223,-0.9922693300673465
8.93359375,-0.4242756361851494,0.4948748625052852
8.9375,0.3704187399200579,-0.7155476011942928
8.94140625,-0.8530626394458934,-0.25513998350633643
8.9453125,0.5747541928007011,-1.0854726175710532
8.94921875,0.5590101778922388,0.7928431540319831
8.953125,1.1865813580242388,-2.0325720591588925
8.95703125,0.24934444052790244,-1.1547013478114152
8.9609375,0.6074802932401518,0.6182722503369414
8.96484375,0.44798556783528964,1.2310969143817705
8.96875,0.7982194058977362,1.4129883376466605
8.97265625,1.4812178633115276,-0.07662858314947046
8.9765625,-0.15670714286033477,0.3904552242864156
8.98046875,-0.9853044641604685,0.18380982822289832
8.984375,0.0008655464717350592,0.13816807600317982
8.98828125,-1.205952782713607,-0.17359141689594157
8.9921875,-0.5052463311503502,0.12636099636978287
8.99609375,0.41017666113386764,-0.03485243736995424
9.0,-1.4072348585934427,1.5887177237779142
9.00390625,-0.6481202328527863,-0.08073408663964579
9.0078125,1.3280068748073912,1.937821236891375
9.01171875,-0.13181775998653963,-0.3889028277422559
9.015625,-0.44225421862103215,1.1267972555452999
9.01953125,0.013430941579778801,-0.2430222684321089
9.0234375,1.976726558282717,0.5139779056491461
9.02734375,-0.13055743608766768,0.4042777952091393
9.03125,0.7111089932026572,0.8851451068590265
9.03515625,-0.3595621485682167,-1.0341467793287762
9.0390625,0.14770789212829838,-1.7531601885662327
9.04296875,-1.314400650908359,-0.6190118323591569
9.046875,0.058155833481399195,0.4707820985678642
9.05078125,-1.0649602784545933,1.0838625684195837
9.0546875,-1.1231075198192706,0.1625498976379082
9.05859375,2.2111044003587668,-1.6311180582506661
9.0625,0.12448081905730422,0.5690888025834341
9.06640625,0.7594776957886655,-0.7856375273344334
9.0703125,1.9625668813982013,1.290401854916414
9.07421875,0.5550441515823092,0.4513051331211615
9.078125,1.2258787863742908,-0.6389031058296704
9.08203125,0.32906379532322716,1.168278110906008
9.0859375,-1.0188664812777057,0.17317319154948344
9.08984375,-0.07048065467150272,-0.6028828061881201
9.09375,1.7212505933260047,-0.010042028673519804
9.09765625,-1.4175131167418822,-0.2757260424012972
9.1015625,0.2835016338006038,0.7824937905237821
9.10546875,-1.1245183525079006,0.2969643238494429
9.109375,1.2446557535375127,0.4534293465958429
9.11328125,-0.14549189691730613,-0.5522164750083717
9.1171875,-0.7541826269144695,1.0373007123149522
9.12109375,0.6294842920522916,-0.9651557688511141
9.125,-0.6672716159365735,0.31263337625196386
9.12890625,0.6141401049235375,0.06164288805169609
9.1328125,-1.8482699938648106,1.0088053444010125
9.13671875,-0.09594401787997936,-0.0027204959145103176
9.140625,-1.0354365960828957,-0.24375559740161673
9.14453125,0.18083258564766166,-1.596359122653127
9.1484375,-0.4949372141097423,1.2396810273865517
9.15234375,-0.6569365926356128,-0.6986845160324259
9.15625,0.4821303023605601,-0.022733064017623133
9.16015625,-1.2584803663833084,0.6774481598390918
9.1640625,-0.46365187142223435,0.0252016846562107
9.16796875,0.11515067999974525,-0.5848769009373825
9.171875,2.477776273551781,1.4824879077103925
9.17578125,-1.3531263526394646,-1.3068598101450097
9.1796875,-0.23922744442176558,-0.26778785771154645
9.18359375,-1.3502104547713456,-0.7967778041820164
9.1875,-1.0779064316884976,-1.5064975920173622
9.19140625,3.2471794892667116,1.8347254434993274
9.1953125,-0.6683037308863193,-0.09584877603184183
9.19921875,-0.4894632066260005,2.0187486431822874
9.203125,1.4966134323930305,0.6546103643912689
9.20703125,0.6684037136968378,-0.18638341795604968
9.2109375,-0.9072110607344371,0.2293856387219884
9.21484375,-0.2949617291931231,0.4326240123100771
9.21875,1.4015958458613502,-0.7484860269529855
9.22265625,-0.6725015101950962,-0.03694229886450579
9.2265625,0.14659591949037573,-0.1687166503739866
9.23046875,0.23620875999132007,-0.18021757349174375
9.234375,-0.2872111204265329,0.9862835271347904
9.23828125,0.7518399877048814,-1.0048076552502196
9.2421875,0.3082169256917176,-1.6969064235588422
9.24609375,1.204907110788697,0.23984841920141953
9.25,0.1871677734618974,1.511735830992471
9.25390625,-1.8853631740904115,-1.8369617957410815
9.2578125,0.25039492955987996,0.6906985208098777
9.26171875,0.9639153868847286,1.5224951722538667
9.265625,3.1567787522417405,-0.04499164832956858
9.26953125,-0.10984006287803713,-0.6997467962624107
9.2734375,0.20170347198895627,-0.5733525136230296
9.27734375,0.4257406206716129,-0.24473086000742864
9.28125,1.0940897402775673,-0.19798324942521472
9.28515625,0.08782818420982656,1.464001900382902
9.2890625,-0.9326257070671276,-0.6514407101101013
9.29296875,1.4100437002305561,0.18488730116538585
9.296875,-0.26396360080464965,-1.7402700810227734
9.30078125,0.8267889842019865,0.5393682106625637
9.3046875,1.4320075485117678,1.4718105148192278
9.30859375,0.6762307547265759,-0.31056861153209364
9.3125,1.6704837449999843,0.6006482345219406
9.31640625,-0.20890950330959668,-0.11233276635996671
9.3203125,-0.2904934805701061,0.1300569169102729
9.32421875,0.6592903708915763,1.4748499034089133
9.328125,-0.7787091430853731,1.6308767880101507
9.33203125,-0.1473111704982968,-0.11235835593048359
9.3359375,-0.8544614377599085,1.007324752247502
9.33984375,-0.5720917203901558,0.606487130736127
9.34375,-0.6884668780528911,0.9818721338587901
9.34765625,1.072377392558121,-0.2352569958674061
9.3515625,-0.5185020660292753,0.7600124141485761
9.35546875,1.2191753031086607,1.0202845251743875
9.359375,-1.2399551710208252,-1.3245609303059396
9.36328125,1.4631023445442843,2.0532840044617844
9.3671875,-0.8147360329075141,-0.67018290887903
9.37109375,-0.9077852293078886,0.38198930227572014
9.375,0.7740731272347307,-1.1177717180974491
9.37890625,-0.686298860374066,0.06161143093808898
9.3828125,-2.098488238766452,-0.701009400642024
9.38671875,-0.4187110899821878,-0.5478544271679773
9.390625,-0.911611381303149,-0.8523475352898602
9.39453125,-0.3596985518611785,1.0287882520266953
9.3984375,0.021507617468164673,0.0324830018618425
9.40234375,0.2314546629959776,0.4203292814949226
9.40625,-1.534642250353179,-1.109442065613268
9.41015625,0.30950626010738075,-2.0928024495937496
9.4140625,-0.6481419294606879,-0.38962544373411123
9.41796875,-0.04388152978777266,-0.3220598982846175
9.421875,-1.5489322352465476,-0.5389142931347791
9.42578125,1.3067845389554666,0.6441187683318932
9.4296875,-0.17481590894914742,-0.310318019430107
9.43359375,0.5844698441522952,1.1210134248918198
9.4375,0.8100761388631778,0.9167903378251823
9.44140625,-0.47193619227278044,-0.8246248721669154
9.4453125,1.6458234321961633,1.92956246061753
9.44921875,-0.8533041891563757,-1.193745374988216
9.453125,1.1231422464191214,0.07802024282656993
9.45703125,-0.02464004757389261,0.8331786378266262
9.4609375,-1.9007028351317332,0.07821307026077214
9.46484375,-0.11895201074370874,0.1365428935126033
9.46875,-0.4693751991420729,-1.4097667334650728
9.47265625,1.5027045236913563,-1.8985033532249356
9.4765625,-0.7478596547322012,-0.48116995672595264
9.48046875,-0.5358530551633734,0.5166410351184337
9.484375,0.8391700283479264,-0.2839774885971297
9.48828125,-1.3116554553013424,-0.15525019877966645
9.4921875,0.38786955956119246,-1.2072509928825768
9.49609375,0.3956883638902158,-1.0701016133799424
9.5,1.254552787613797,-0.417490264697101
9.50390625,-0.3539681504074951,-0.2671656645185731
9.5078125,1.3457032149529393,-0.13196027768832216
