time,ecg,ppg
0.0,-0.45071687129684535,-0.8253586757093593
0.00390625,0.8941933589401576,-1.1309664838696705
0.0078125,0.7830276192228878,0.061098956551155964
0.01171875,0.4886492611242775,-1.1533426352101215
0.015625,-1.211333774436436,0.5259153555361902
0.01953125,-0.2333708962607878,1.2849660053735477
0.0234375,-0.8039251025955927,1.7457129683295745
0.02734375,-0.9086622939970299,-0.7722666384792577
0.03125,-0.8999949164769682,-0.13984514539127155
0.03515625,-0.7292784629634094,-1.351725526357145
0.0390625,-1.0833839167271246,-0.29359504889659227
0.04296875,0.3552296644365156,1.6493671886296812
0.046875,0.00152273925518605,-0.3344638056223962
0.05078125,1.170532361983777,-0.4650256520197707
0.0546875,-0.5427732571062246,2.0938602299823437
0.05859375,0.23550074834348106,-0.9382714514013002
0.0625,-0.6377996356952084,-1.2868583968377358
0.06640625,-0.7495408346564427,-0.8770151052365497
0.0703125,0.6524193659475392,1.492984886804854
0.07421875,0.07598791564338925,-0.8990901814827306
0.078125,1.9177000266426592,1.8196612899546225
0.08203125,0.39123761657241446,0.16750982119156696
0.0859375,-0.33417725803229814,-2.4930803429234563
0.08984375,2.303358535122305,0.8980420529703457
0.09375,-0.33177073311771105,-0.3728393118506837
0.09765625,1.8267612865685376,1.5567173792190372
0.1015625,0.18229233875708556,-0.6443102514618511
0.10546875,-1.3156304110841806,0.6847165285266794
0.109375,0.40357867698860844,1.579111789631282
0.11328125,-0.8728723685415624,-0.22594608100576571
0.1171875,-0.5193470732564294,-0.22327231726019509
0.12109375,-0.6290984250513546,-1.1441941215516436
0.125,0.12485536262935674,1.013894496623237
0.12890625,-1.3431899649933967,-1.1114780834831564
0.1328125,-0.5902224316666685,-0.08996221971390142
0.13671875,-0.3099104778789119,-0.5255451992477144
0.140625,0.3931483975466639,-0.19027490370714514
0.14453125,1.248390995709692,1.6003152819624322
0.1484375,0.38032931754045773,-0.4937740227040626
0.15234375,0.4696908763056975,-0.80082814072705
0.15625,-1.0272719188888166,-0.839207027671798
0.16015625,-0.6111686189294436,1.8095294552216434
0.1640625,0.3990815369765641,-0.6396618300322198
0.16796875,-0.5244425942770482,0.7492123430513085
0.171875,1.088869846209139,0.10911667108707436
0.17578125,0.26915849716680146,-0.6862883293525802
0.1796875,2.095342842987473,2.1498653461601087
0.18359375,1.8588700299572285,0.1930731590136941
0.1875,0.10744226654735153,-0.29631205178992975
0.19140625,-0.4480529893561055,2.727189631270907
0.1953125,-0.9293204591991067,-1.155701884714518
0.19921875,0.9797339917909343,0.3706599734249442
0.203125,0.2067555087131821,0.5896929161348524
0.20703125,-0.7480684772570667,0.9584773440339132
0.2109375,1.966335983084889,-1.0571713114116583
0.21484375,-0.35374661382095096,0.043065424057439315
0.21875,-0.26731521568676836,0.17887483163360934
0.22265625,-0.3029590281769832,0.8405117679209022
0.2265625,-0.842880742432224,1.2404838994998273
0.23046875,0.0698569092862531,-0.3214467122473881
0.234375,-0.3240669771924546,-0.3252696520272041
0.23828125,0.27581823527349075,-1.1707240422421952
0.2421875,0.2858661546124997,-0.07667331062627404
0.24609375,0.11769820632565169,-0.6750796969975286
0.25,-1.348058714900047,-0.3971104829448842
0.25390625,-0.1350260192722333,-0.6916228504298473
0.2578125,0.5455135855865261,0.9585200492315591
0.26171875,-1.3884708873843767,0.03181203589607605
0.265625,1.673558667295359,-0.44579961186901923
0.26953125,2.1457229562182,1.2863747601291342
0.2734375,0.4002087423194974,-0.6427596387884261
0.27734375,0.48005528391667146,1.1503557694733495
0.28125,0.05487680684679135,-0.3580360055878021
0.28515625,-0.5232107748200795,1.2239637339843608
0.2890625,2.0048088167476608,0.5730973601223288
0.29296875,-0.20272991415446417,-0.04239118413558296
0.296875,0.32510860936172475,-0.003454933007827115
0.30078125,-0.9595585983256196,-0.8273285821612989
0.3046875,-0.14025813087817385,0.39661050168604417
0.30859375,0.567746988679967,-1.1408059295318602
0.3125,-0.5141808803285576,-0.948682756161473
0.31640625,1.5122469551063447,-0.15587737287249048
0.3203125,0.6734277497680798,-1.917552717456636
0.32421875,0.8004137078271841,-0.8742144335942738
0.328125,-0.3772202884592864,-0.05041524061338035
0.33203125,-0.2469543885441967,-1.1370722722216489
0.3359375,-1.92269991750493,1.8389147455347106
0.33984375,0.2824647284763875,-0.008749123205158835
0.34375,0.08498872845187436,1.1785060867297954
0.34765625,-2.0547459778868773,-1.1832586287822298
0.3515625,-0.11675489484435006,-0.804261203492063
0.35546875,0.7471652934399399,1.0072132837708663
0.359375,0.7133945370748651,0.26380598707005065
0.36328125,-2.027710596017782,0.5619157586356606
0.3671875,1.122989331072652,1.2119729333596936
0.37109375,-1.535214413138715,0.33694384844980907
0.375,-2.2389992302359896,-1.3528601946090124
0.37890625,0.4534516259019744,-2.177689288254837
0.3828125,-1.5255606962130428,-0.6577172165460966
0.38671875,-0.005872604506311453,-0.4249940943849972
0.390625,0.8722143515939194,0.32519514897858254
0.39453125,-0.9298556416221468,-0.4767541540123615
0.3984375,1.524682884937556,0.5502239720451894
0.40234375,-0.025555604958502044,-0.36547668167269687
0.40625,0.20346764711917667,1.1195355254047092
0.41015625,0.8608178234148869,2.4158241238737572
0.4140625,-1.2330680110702479,-0.1709454798437789
0.41796875,1.246686864858537,-0.8554577532446442
0.421875,0.8374591160728577,-0.9415649989901647
0.42578125,0.11778708383312902,0.17218792607503686
0.4296875,-0.339469647263636,-0.1268451394514062
0.43359375,2.0558265268127167,1.3875054581155357
0.4375,1.787477285868486,-0.3930336797086151
0.44140625,-1.7603278566528495,1.5379427737966536
0.4453125,-2.5321153269196772,0.13898800817424245
0.44921875,2.976139528877154,-0.2563973347781981
0.453125,-0.14136157100816335,-1.2331878290881162
0.45703125,-0.42532963561898024,-0.8773867837053015
0.4609375,1.8672283890970487,-0.07446040021459754
0.46484375,1.4537606704693586,0.2901598515497204
0.46875,-1.2962134638455107,-0.6738534584618938
0.47265625,0.5502175768125497,-0.7703251689301974
0.4765625,-0.15544597935341373,1.6364299855882294
0.48046875,-0.2781373336385403,-0.15416188356324106
0.484375,-0.7532884045706917,-0.540701659869531
0.48828125,0.3846280478373279,0.44671793801477677
0.4921875,-0.7050167016647244,-0.3002573529558283
0.49609375,1.3485267871048756,0.574778562282542
0.5,-1.1421211826229416,0.9401195680367153
0.50390625,-0.1694160030741319,1.1579236044801182
0.5078125,1.640885744847062,0.048346242797402794
0.51171875,0.7441957791626009,-0.49403467685562236
0.515625,1.315753829701048,1.7734639212317518
0.51953125,-0.8249924333958174,-1.177009255826861
0.5234375,0.5288581612102795,0.9045871213051775
0.52734375,-0.06162571802817989,0.17351647269749088
0.53125,2.6502883959404966,-0.14991587215057844
0.53515625,0.23812638906009964,1.8381680333434436
0.5390625,-0.38052600366060174,-0.9277808940271572
0.54296875,0.7319910084292786,-0.6283568609803475
0.546875,0.3494612854257582,1.0083633871060234
0.55078125,-0.39605144445577717,-1.4367925862149442
0.5546875,0.8493197266087289,0.29855140733016244
0.55859375,0.3347116125155857,-1.5945796905668221
0.5625,0.9041661179573661,-0.5292924097718547
0.56640625,-0.35770189598973556,0.20272641351148318
0.5703125,0.9653714217566842,-0.29864457146649376
0.57421875,0.16378467201687766,1.5642312669861098
0.578125,-0.746378376514909,-1.1969174199127048
0.58203125,-2.234494684132666,0.22635816802894365
0.5859375,0.1547018880087353,-0.7812886851112159
0.58984375,-0.9694869451556388,0.7378134154667371
0.59375,1.3520349469055815,0.2987219992542385
0.59765625,0.042918542200122874,-0.49966569183222775
0.6015625,0.5555922700696323,-0.10900882470098344
0.60546875,-0.06552727758745408,0.5728647722974484
0.609375,2.1954639446005393,0.45529364664236077
0.61328125,-0.5732812196922022,1.2662500353027362
0.6171875,0.5779340397714606,1.873263247388926
0.62109375,-1.3038415334644475,-0.0865241077401946
0.625,-1.233976142801141,0.35708268354628164
0.62890625,0.8063012364741274,1.111157404325054
0.6328125,-0.031381838092546126,-1.101648707097062
0.63671875,-0.17692317894601925,1.6730629582933485
0.640625,-2.8650027247605,-0.00927535699840744
0.64453125,-1.4931880699225117,1.7541098396406452
0.6484375,-1.5421540625124674,0.9920523997498208
0.65234375,-0.8168383429817221,-0.9531462748086501
0.65625,-1.4288563272807362,1.5381957683287901
0.66015625,-0.5089533588928513,-1.036822886785963
0.6640625,-0.2747526276218115,0.25179966036319
0.66796875,-0.22208929384244464,0.03201101411489269
0.671875,-1.082271532510056,-0.5857348969560662
0.67578125,-0.8335819368403833,-0.22228437461511694
0.6796875,0.5472646691674288,0.3168774055849094
0.68359375,1.413359927076127,0.14399649300320214
0.6875,0.7736272897041314,0.7235384094084418
0.69140625,-0.8795085136549945,0.13423736428648333
0.6953125,0.5273380346065877,-1.0524401346987615
0.69921875,0.5052974708939406,-1.4847480035704865
0.703125,-0.9870821506507323,-1.499736404602197
0.70703125,1.2942424144009816,0.7364800289736397
0.7109375,-0.10378521021010476,1.1463395304810697
0.71484375,-0.4458520771908192,0.6882668915462978
0.71875,-0.44268406805128335,1.7633275585909791
0.72265625,0.25778457661967613,0.17043181317711226
0.7265625,-0.9191560367553001,-1.5530738743116868
0.73046875,-0.6365216693707942,1.1198356009480523
0.734375,1.2615662104357415,-0.05228061816244021
0.73828125,-0.4105797570306106,0.08629671435382222
0.7421875,-0.3707411608607433,-0.6915474560753018
0.74609375,-0.8050093167703958,0.7895562784473484
0.75,-1.2986464422809176,0.571057730320155
0.75390625,1.6480109663815627,1.5735353685863631
0.7578125,-0.9159496430948246,1.2137994708270086
0.76171875,-0.5676710770156971,-0.074059204832298
0.765625,0.8770173867677933,-1.3400275218693418
0.76953125,0.8655075730105337,-0.4655969461577499
0.7734375,-0.45638756961938065,-0.785665427091853
0.77734375,1.4883805648097872,-2.5650243016816905
0.78125,0.6704280666815302,-0.14440688634254426
0.78515625,-0.9095738290457194,-0.3473957999485348
0.7890625,0.24265432947386,0.7325752825924408
0.79296875,1.309490499184861,-0.15571767774101358
0.796875,-0.6613909696847409,0.28787198165390915
0.80078125,-0.008444379903916137,-0.8141772956307688
0.8046875,-0.8424495642256572,0.8398444883942561
0.80859375,-0.14824186924618177,1.0586425146028031
0.8125,-1.6954411984734665,1.4085268486027154
0.81640625,0.8588334838786125,0.9420268636286862
0.8203125,-0.3687985673536882,-1.2133111946814756
0.82421875,-0.7282692734414389,-0.46784785318249056
0.828125,0.10180347562840272,0.10356036626681933
0.83203125,-0.8385941508086984,0.12053144150532268
0.8359375,0.3060599676568499,0.25928528924741384
0.83984375,-0.2030104274065024,2.046644503489143
0.84375,0.1063116574551038,0.07462004857077789
0.84765625,0.4616723693810507,-0.034984212647578214
0.8515625,-1.4960836326287712,-1.4744529715489667
0.85546875,1.5629465196094376,-0.03923352698821579
0.859375,0.6295333484128169,-1.1028159196861689
0.86328125,0.22961313304905617,-2.07870408895356
0.8671875,-1.908045795592703,-1.3266542316377548
0.87109375,0.6043342005905485,-0.5678053343499755
0.875,-0.597628667935023,-0.7799008745319703
0.87890625,0.7862885899173572,1.417447476709947
0.8828125,1.5183486836418856,-0.07706925139888451
0.88671875,1.69348216970328,-1.3581507292967594
0.890625,0.2516132824048821,0.15702354281055428
0.89453125,-0.4817521533280905,-0.35909633589834344
0.8984375,-0.9798652327306963,-0.6013261829639251
0.90234375,-0.21446818201216933,-0.28414018554126236
0.90625,1.2729248297879137,2.2720289578618256
0.91015625,0.11843323200433059,-0.9789031034520602
0.9140625,2.2708121863216446,1.186075922935325
0.91796875,1.375192527779642,-0.6151080898041008
0.921875,-0.6801673656834898,-0.8176464623199453
0.92578125,0.8135073483505213,0.5958135130204538
0.9296875,2.002437361138292,1.3583564880794534
0.93359375,-0.8881504736648065,-0.7896322436244353
0.9375,0.33061225439552466,1.355153763181933
0.94140625,0.3999470263905314,-1.5566264600546535
0.9453125,-1.1319521278446858,-0.31402447580296194
0.94921875,-0.021731253763649847,-0.006130333811637922
0.953125,0.689715019395952,-0.644314353708319
0.95703125,-0.41546830662189105,-0.10518647905319528
0.9609375,-0.572894049722766,-0.8303049369119821
0.96484375,-0.23521985915296817,0.1067085392928638
0.96875,-0.4467405646781611,0.2049062107316984
0.97265625,-0.946570564969476,0.9344540158062102
0.9765625,1.142683105105583,0.18623902042720372
0.98046875,0.7573052787713166,-0.699879143874479
0.984375,-1.5095924645984409,-1.2050938842924432
0.98828125,-0.47728267001704117,2.2117570079151387
0.9921875,-1.1584067395140103,-0.9440638720184639
0.99609375,1.7195179772508447,1.0136289151770947
1.0,0.9393832406371181,-1.626745278378946
1.00390625,1.0565613952767618,0.5812199553399346
1.0078125,0.3102930774691949,0.865326469915666
1.01171875,0.2918972645622811,1.303995265050155
1.015625,1.1637133272096107,1.7951507472503945
1.01953125,2.126190443222511,-0.7546543098171212
1.0234375,-0.48584655763659473,-0.6388124260251594
1.02734375,-1.1249407053704186,0.526844900970665
1.03125,1.2997680113636678,-0.4333891813857098
1.03515625,0.05576688741741986,-0.35968719140504396
1.0390625,0.10002358321243816,-0.6117606751658471
1.04296875,-1.6972336431980266,0.4023384779341636
1.046875,1.5702096845936822,-0.8320510226647421
1.05078125,-0.46503904453680117,1.4809727422374208
1.0546875,-0.3614006097208838,-0.1601569013115744
1.05859375,-0.33167633083332787,1.3500909095190885
1.0625,-1.2206228892885693,-0.21788382810917128
1.06640625,0.8472121863219529,-0.29306689661867713
1.0703125,-2.270468340939413,0.2341488722696048
1.07421875,-0.610764997116851,-1.5741925297290458
1.078125,-0.38886194770612953,-0.3013978865532821
1.08203125,-0.07332470661867477,0.6257570171340058
1.0859375,0.22296017474079166,-0.007261542716963384
1.08984375,-0.986371405007682,1.1806398228896835
1.09375,-0.8277801321854728,-1.4353388694849378
1.09765625,-0.13982884010103427,-0.2435017448457306
1.1015625,-1.8822301725129504,0.8268069537216618
1.10546875,2.195480142090796,-1.3580446310304797
1.109375,0.3767827306346616,1.0256638043032769
1.11328125,1.0121255108862983,0.8089389255473415
1.1171875,0.2235229386438712,-0.14706861943792104
1.12109375,0.23437631924040137,-0.04842607319275943
1.125,0.5803130386698533,0.8593526162100692
1.12890625,1.490226161176193,-1.2664331815619025
1.1328125,1.025983139188879,0.632148427741544
1.13671875,-1.333106261351816,-1.2320966052116356
1.140625,0.9105800083650993,-0.9672344786979005
1.14453125,0.6509578092427495,-2.1064360770419692
1.1484375,-0.47427117832002075,0.8646131557918314
1.15234375,-0.819235594092562,0.05708337457017572
1.15625,1.9192944013947033,1.2987912565995767
1.16015625,-0.9229984632870109,1.0390616915793052
1.1640625,-0.4630113946093077,-1.6261604866889483
1.16796875,0.9106414146416812,-1.47222554025047
1.171875,0.0010792471244372955,0.6181955484502937
1.17578125,-1.503857249388703,-0.4709734793244956
1.1796875,1.2626708237491617,1.3588387447082908
1.18359375,-1.4909505486468784,-0.1969320404665552
1.1875,0.1431093495932165,0.5141249004821487
1.19140625,-0.08700645771617482,0.7488991403994436
1.1953125,-2.1849884834202644,-0.06729711973384273
1.19921875,0.5141638400972939,-0.12255887448433529
1.203125,-2.2892012963332204,0.7999046058714112
1.20703125,-0.874343343065814,0.5588795229236263
1.2109375,1.2151747789752532,-3.2381776172926804
1.21484375,0.2426770200128227,0.1853427651454264
1.21875,-1.5418544839854493,-1.173676947225071
1.22265625,-0.9848781223797346,-0.8423103568699349
1.2265625,-0.6632679963744765,-1.5070467125315137
1.23046875,-0.88348321955218,1.6591708212601501
1.234375,-1.5269633862862984,1.2113386561076243
1.23828125,-1.6222882297893542,-0.3284522155201208
1.2421875,1.5791837955208583,0.004888642091359961
1.24609375,0.10336060152079073,0.9069393656635046
1.25,-1.6377876504281352,-0.36532701802661555
1.25390625,0.9152965991154635,0.2357690840785187
1.2578125,-0.3102249452446765,0.3796511082061449
1.26171875,0.09223660045512375,-1.819962632438145
1.265625,-0.6064951601480023,-0.3193425104253695
1.26953125,-0.25687828542340535,0.5638351805821856
1.2734375,0.8243194888323021,0.9599134136131794
1.27734375,0.9907737619455509,-0.08049467030341514
1.28125,-0.6294991407954622,-1.1806426453310301
1.28515625,1.1069163774420074,0.46850236725662553
1.2890625,-0.44467341347378464,-0.9056615869335756
1.29296875,0.9277984821364674,0.9142249702935241
1.296875,-0.720095986580943,1.506748702268144
1.30078125,0.08723255716275624,2.033236092568002
1.3046875,0.32779772217549435,-0.019152748190998423
1.30859375,-1.856734939341163,0.33049256322151954
1.3125,-0.6270309959449425,-0.25306228117018065
1.31640625,-1.4867720475764732,0.24854865882051935
1.3203125,-0.6762850111727259,-0.14297782645374568
1.32421875,-0.22187637748647465,0.3679934342923281
1.328125,-0.8329267211907598,0.6770216936690389
1.33203125,1.6619947552708865,-0.4656479331898336
1.3359375,-1.4320441917672095,0.9035008038782403
1.33984375,-1.444696360304395,-0.6236878782542271
1.34375,-0.669386452417816,0.31146949176252653
1.34765625,1.4926036099232691,-0.764460303735983
1.3515625,-0.1500720186600764,-0.028697725447461925
1.35546875,-0.13666095818435514,1.1878750352585123
1.359375,0.6806635314021372,0.23743864187047506
1.36328125,-1.5583457672729784,0.18338934099754955
1.3671875,-0.5921796606341035,0.16327142160139882
1.37109375,-1.7795460178114573,-0.7020010429972795
1.375,0.9727868734479003,-1.4286951720329337
1.37890625,1.3061039785153943,0.20487303617732847
1.3828125,-0.9828468306925499,1.6480139050390714
1.38671875,-0.16294090577545636,0.7529762593790446
1.390625,-0.5148743758362697,1.171415077658785
1.39453125,-0.5437442520054326,-0.5569424668987552
1.3984375,-1.298618375573596,0.8674861206751898
1.40234375,-0.9860127743853516,0.6974329185893624
1.40625,1.6287653388249888,-2.0968696719025965
1.41015625,-0.942292040316917,-0.20552883741573597
1.4140625,-0.7757714888629289,-0.13622364369971615
1.41796875,0.42067904431748787,0.7774519031429352
1.421875,0.42001777787740946,-0.7257200794962549
1.42578125,-0.8971707510598157,0.09665462753030639
1.4296875,1.5883823424464854,0.8881437338738717
1.43359375,-0.10247448975515872,0.6712004809687401
1.4375,-1.628457948387903,-1.0161315217212554
1.44140625,-0.9019431952463853,-0.23269767404499753
1.4453125,0.20673451077282964,-1.5030137758955229
1.44921875,0.2332115726747022,0.15133850658338183
1.453125,-1.264081307314455,-0.4566145976900637
1.45703125,0.2970898116620619,0.4609322272065004
1.4609375,0.444577647637397,-0.02466733099005591
1.46484375,0.31957673470359205,0.42663643627671133
1.46875,0.6971274980387823,0.7992504352599542
1.47265625,-0.7905930269873046,0.1399611495239005
1.4765625,-0.48275649115511454,0.9048687330840326
1.48046875,1.6003257467789307,-0.34561232737533626
1.484375,0.1899119163273886,-1.1376743813640906
1.48828125,-1.1005531445735337,-0.1937209961462392
1.4921875,0.31289516178507765,0.3889920685598929
1.49609375,1.0319253690113281,0.6657362004215421
1.5,0.40270886946174705,-0.04629209281590254
1.50390625,0.18099272895759563,0.7917772149643477
1.5078125,0.255405930907632,-0.2980294457483374
1.51171875,1.3745446990041512,0.37911122430780275
1.515625,-0.446196014887117,0.4348056426140866
1.51953125,1.135036901989209,-0.28222564119391047
1.5234375,0.2055459429317374,0.9705170864073872
1.52734375,0.5426939033509165,-0.18621433066208307
1.53125,0.42733558593929527,1.3663167139082644
1.53515625,0.41377102913882124,0.750213355071849
1.5390625,-0.5177601235779051,-1.1854253175274458
1.54296875,-0.13822227109076268,0.13006879080433234
1.546875,0.08087589779407135,-0.3992907538529948
1.55078125,0.9363564453396568,-0.3480664063634544
1.5546875,-0.9977762686550123,-0.5894132619904137
1.55859375,-2.737577211143802,1.4917942625378338
1.5625,0.774893373792336,0.2778049829294775
1.56640625,0.2968873785527566,2.1730718767073234
1.5703125,-0.6939346765897076,-0.2670832932503819
1.57421875,0.796872742780802,0.9984493426904181
1.578125,0.5535145101322577,0.9559712547889572
1.58203125,0.6137640080298631,-1.0689253551005216
1.5859375,-0.683266342029607,-0.07857455278816973
1.58984375,0.008450274657951258,0.6207931373846044
1.59375,-0.05442532145513308,0.639534426753761
1.59765625,1.5205583529356157,-0.7546422623120836
1.6015625,-0.41053608777470285,0.19081762358405863
1.60546875,-0.6053510212781188,1.260216541797968
1.609375,1.4090284047906751,0.6847067089135355
1.61328125,-1.7778274105517768,-0.6637176824692556
1.6171875,-0.6549675551023018,-0.39141088721447076
1.62109375,-1.251130783479858,-0.9863752255567751
1.625,-1.3754242173822306,0.7628872810750178
1.62890625,0.817196294761102,0.08627296990750835
1.6328125,-1.9851215365564474,-0.9610863973438183
1.63671875,-0.10330550647641779,-0.4115072636741187
1.640625,0.542676964990371,-2.1253166353409014
1.64453125,-0.023104652032772476,-0.2840133403485581
1.6484375,-1.4372314041105203,-0.5529497452852358
1.65234375,0.25576835478533416,-0.08953062278444962
1.65625,0.26132417492521437,0.553647080826394
1.66015625,1.0888767684704028,-0.0255522500599079
1.6640625,0.2035198938455931,0.4720102118908437
1.66796875,0.9466132834167351,1.8563042481755287
1.671875,0.5291270545613375,0.6941084227755159
1.67578125,1.5665646895311438,0.5357401370997279
1.6796875,1.1182872422580528,-1.614694833400282
1.68359375,-0.386717568604751,-1.1970658690208933
1.6875,-0.49320073895712707,-0.5205932834019062
1.69140625,-0.23936024306446313,-0.10205913121896544
1.6953125,-2.375599064633644,0.658545989855797
1.69921875,1.8100131093065537,2.7583375800413523
1.703125,0.11864878656746762,-0.2024985415114401
1.70703125,-0.4255909758985113,-2.464585936619191
1.7109375,-0.43702060362058137,-1.588663385929111
1.71484375,-1.1244206830691073,1.8314743345335722
1.71875,0.07465189336052422,0.32950626313262943
1.72265625,-0.19143791871436064,0.5001736309189231
1.7265625,1.007547407774085,0.5690709126787878
1.73046875,-0.058882255279655904,0.9949662337362443
1.734375,-1.5174506619367283,0.2375637290090146
1.73828125,1.9620537011256667,-1.2567830015860768
1.7421875,0.37955895944959095,-1.1766174979235173
1.74609375,0.10519534898271915,1.7261176677874477
1.75,0.4908982554192033,-0.3402513404151044
1.75390625,-0.1305666654845526,0.45923538029506555
1.7578125,-1.0499386512087392,0.07181475201991079
1.76171875,-0.7005591207251506,-1.3541723536540549
1.765625,-1.01712971364085,0.3759220140191815
1.76953125,0.36333213601393366,-1.8226931895278409
1.7734375,0.019651834313317736,0.3246669808874464
1.77734375,-0.4634130334540973,0.9394717323642308
1.78125,-1.958545157682941,0.674295936691384
1.78515625,-0.18111267459658587,-0.2869265570483259
1.7890625,-0.1868053513063159,0.8707138872066644
1.79296875,0.6410353374652277,-0.24321294062768362
1.796875,-0.5840221421133636,-0.2522675943846211
1.80078125,-1.0376736188336486,0.6260943266564998
1.8046875,-1.025726189057831,-0.07489665983563658
1.80859375,0.6628703724348464,1.4658444595626898
1.8125,1.4579650697897553,0.11894001202786214
1.81640625,-1.5347268328736057,-0.5202766670261733
1.8203125,-1.4496702121726526,2.4191038747186333
1.82421875,0.811468817129207,0.6400992624420746
1.828125,-0.24537013409216718,-0.358485861553274
1.83203125,0.3383663964231214,0.016806472025186814
1.8359375,-0.31683492403529057,1.697593651528385
1.83984375,0.9514322217872195,-0.027660286206904038
1.84375,0.43265038702174746,-0.3386341049346554
1.84765625,-1.1081227008695782,-1.0702345827309996
1.8515625,-0.2750834988764307,0.05581179838027969
1.85546875,-0.14315287713943975,-0.4727008444897395
1.859375,0.4947671717853914,1.0222508839498798
1.86328125,-0.5406113677795192,0.22573439156093159
1.8671875,-0.6639052011025794,-1.0260090005534779
1.87109375,-0.37651010774331733,-1.156763274420757
1.875,-0.5525082237552387,0.6851977328853761
1.87890625,0.20740566429997484,1.568835776965366
1.8828125,1.6067553952254419,-1.554471113403496
1.88671875,1.6526174997240772,0.7271279716659638
1.890625,1.6924603718416267,0.6768448153739054
1.89453125,0.3616454590636082,0.7401664978023745
1.8984375,-0.4859372108218777,-1.2070043312684502
1.90234375,0.7154684402158598,-0.9063190348824353
1.90625,0.28260742589131027,-0.6158929855091674
1.91015625,1.9577371468429976,0.22393886234582094
1.9140625,1.149920386547626,1.4033860790303994
1.91796875,-0.28899175190680976,-1.8041565738703993
1.921875,-1.264071551921346,-1.495916639218288
1.92578125,-0.8227632284538736,0.53395120749422
1.9296875,-0.44246083140491976,2.176718511886823
1.93359375,-0.6299592880563272,1.9417569298068387
1.9375,-0.3459457050787058,3.288599278821721
1.94140625,2.1703494922491675,0.9984321807339223
1.9453125,-1.1715767674548,1.053944994447157
1.94921875,0.06194212435793359,0.39780660460693174
1.953125,-0.35350203316263756,-0.6709172309554358
1.95703125,0.874802894355244,-0.6227664262460245
1.9609375,-0.8857010955434693,0.35274474396237093
1.96484375,-0.0281586825711679,-1.3117771980261692
1.96875,-0.8255490463917424,-2.183942261569511
1.97265625,0.6603160949887658,-1.3899538280706072
1.9765625,-0.9031813806387571,2.7339782660131937
1.98046875,1.4472426819270117,0.6379530391963008
1.984375,-0.5470505947526583,0.6287265496148363
1.98828125,2.0747810883470756,-0.6762566535282407
1.9921875,-2.1425480116012174,-2.316489691276636
1.99609375,-0.4004179100422548,0.2862857901061877
2.0,-1.0998524295449488,1.0902420965102053
2.00390625,-0.21336946486886177,-0.336164832490111
2.0078125,0.30482012227596966,0.5673897130221551
2.01171875,0.8948157298420127,-1.2473995501219086
2.015625,-0.593235470653891,-0.19492912869590717
2.01953125,1.6988910243181725,0.2833289897453617
2.0234375,2.1248257093945484,-0.24406180814223552
2.02734375,0.6630835134521416,-0.3780280094149087
2.03125,0.40631934212193094,0.4425257882538819
2.03515625,0.011493297709602746,-0.7787480874510591
2.0390625,1.3659579927005203,-0.7924717662370431
2.04296875,-0.5481972894615204,-0.33138878261856985
2.046875,0.37856245194898586,-0.45525864864486026
2.05078125,-0.35449214046050176,-0.8085720293528295
2.0546875,0.9516522142988367,-0.37226891190786954
2.05859375,2.2496594188041796,0.8496856179656435
2.0625,-1.7342623380374775,1.023190426780799
2.06640625,-0.5911381571886731,1.2987694164870704
2.0703125,0.2773372653752484,1.0649188660355255
2.07421875,-0.39700584575011955,0.5945760967015092
2.078125,-1.1633723004445415,1.1285283213314516
2.08203125,1.004251144511405,1.222469916477604
2.0859375,2.3629697706810124,-0.3600811069048962
2.08984375,-1.1827923279016244,-1.7447568141557703
2.09375,0.501558336293048,1.6492649753691555
2.09765625,1.1301443298834313,-2.0040663099269533
2.1015625,-1.7689693523886125,0.8323621558581306
2.10546875,0.5531700174598272,0.26572993365709263
2.109375,1.1628271238728254,-0.5133091448874499
2.11328125,0.8216929799154725,-1.1729146505315067
2.1171875,0.39336863766609076,0.7175339686624376
2.12109375,-0.9668918714551994,-2.1251571733381476
2.125,0.3898942520307434,0.16714139802535014
2.12890625,-1.1940829066588563,0.07530085313037746
2.1328125,1.79272813516179,-0.9953612926479747
2.13671875,-0.19342499018222198,-0.09578656057268291
2.140625,-0.835066561914386,-1.1150487134170626
2.14453125,-0.1100572910936946,0.552420552298372
2.1484375,1.50803994912205,0.987814212872409
2.15234375,-0.7630480059313924,0.6306807700348052
2.15625,1.1249513167520546,-1.4581740737122133
2.16015625,1.176307526469024,1.9192913533086198
2.1640625,-1.698869535276501,-2.086005995330627
2.16796875,-0.021757538462356125,0.8285536825451104
2.171875,0.6959481126055177,-0.9461191853767038
2.17578125,0.4242540635314381,1.605998346172724
2.1796875,0.5699077585947442,-0.49791009103994566
2.18359375,0.24119102877098572,-1.3105209427518236
2.1875,-0.2941868016779492,0.38967112385221186
2.19140625,2.4429877303840373,-0.36273660604230856
2.1953125,1.0203599911598797,-0.8750791308371167
2.19921875,0.8363497580347269,-1.3918851646537738
2.203125,0.3388398490399695,-0.44283058547049803
2.20703125,-0.17278406173104732,0.8991342631517396
2.2109375,1.1355058915120426,0.12742614561850063
2.21484375,0.018449070554918432,-1.0014670196218833
2.21875,-0.44408700566293824,0.3952910295328362
2.22265625,-0.7854141565741685,0.7463596643036519
2.2265625,1.7223230213899805,0.36608273029509364
2.23046875,0.4672157163654852,0.21786147260536193
2.234375,2.0067083689725687,-1.4863823213082334
2.23828125,-0.6361749108864236,2.1567278380505996
2.2421875,0.8804930611557411,-1.1884464563300532
2.24609375,-0.5494872384981311,2.011035525408152
2.25,-1.4128524446146322,-0.1469676754638146
2.25390625,0.6192977591606322,-0.7363423726756751
2.2578125,0.8562498311013057,0.8190816659315571
2.26171875,-0.061195452881827955,-0.4937974401803637
2.265625,0.009839184518204029,0.20189962639758138
2.26953125,0.4327655503575091,-1.3221032876524068
2.2734375,0.6648831240738365,-0.9463274445060962
2.27734375,-0.3248970172840125,0.4230606312218845
2.28125,0.09503507210639649,1.1567683638252404
2.28515625,1.6762298220771203,1.5123283273185666
2.2890625,-0.74479386579541,0.5462560446075451
2.29296875,0.01133984992882208,-0.887764834290747
2.296875,1.1823605429513306,-0.6996314887596271
2.30078125,0.8935327677338304,0.2348871394751056
2.3046875,-0.017740269541567943,1.5004238834415702
2.30859375,-0.629231114831635,1.603684388916751
2.3125,-1.6418161726219656,-1.0372621423915205
2.31640625,-0.42552592497825453,0.8166892902340198
2.3203125,-1.6498950246857296,-0.9818537613121502
2.32421875,1.1543247115216884,0.20965431792039832
2.328125,-0.8916462067857023,0.32771815992204156
2.33203125,-0.8481703476426897,0.8212389982521486
2.3359375,-1.3499395089398127,0.5732458126734931
2.33984375,0.6640965004337639,2.3451491242347458
2.34375,0.028465001402989396,2.6649888753587057
2.34765625,-0.036414178762420805,0.4125109936083817
2.3515625,0.024639006049475463,0.4919198916569474
2.35546875,0.09760213741155749,0.2618092770930083
2.359375,-0.4565090765873947,0.8415510473526175
2.36328125,-0.8536727600990067,-1.8212519497534565
2.3671875,-0.3726661771416895,0.46110295143782865
2.37109375,-0.18540506760923997,0.7488581730880308
2.375,-0.066524629922612,0.4060741651770896
2.37890625,0.07338719276693675,0.14232647797246145
2.3828125,0.22764825357055024,-1.0259391727678076
2.38671875,-0.40055484808475345,-0.37303595942275775
2.390625,-1.9755081843531348,0.2826220716619696
2.39453125,-0.6515246561377633,0.9755671181651524
2.3984375,-0.2085841744929433,-0.9639724826134705
2.40234375,-0.4597058365176529,-0.9226180265068442
2.40625,-0.004108674950996711,0.8041461280790532
2.41015625,1.3950716247671437,0.05403049570246221
2.4140625,-0.9576036739755491,0.1882130203905954
2.41796875,0.9117400205826781,-1.1799062855241367
2.421875,-0.6736698931800952,0.5167615106861593
2.42578125,1.1489560594166914,0.15483089240355316
2.4296875,-0.48926903072612726,-0.1588653042034566
2.43359375,0.8882924347339387,0.24914241186747432
2.4375,0.06466934464276186,0.7813451877048964
2.44140625,1.1601126253973273,-1.037095872895806
2.4453125,2.3181901601664063,0.3862562612690837
2.44921875,-1.8443516360081047,0.34601696254599223
2.453125,-0.589637925840696,1.2049910759967364
2.45703125,0.6033348721985734,1.0138921238006575
2.4609375,-0.0647625196235715,0.4608776798848578
2.46484375,-0.7103955815193844,-0.17303512956952893
2.46875,-0.428568960505081,0.10822203346732137
2.47265625,1.0643882964309241,-0.8692824363971646
2.4765625,1.5008253346602858,-0.3609457574484205
2.48046875,-0.318202833671944,-2.1510656583742094
2.484375,-1.2147378417662607,0.5994325958760998
2.48828125,-0.3132795522162069,0.8978244551450972
2.4921875,-1.5603847033809077,0.8101205784908951
2.49609375,0.7931144602545107,1.1534876718924343
2.5,-1.6286416774201882,0.95255858987901
2.50390625,2.5343257507683483,-0.28788362894604835
2.5078125,0.15218128966823197,0.8866656209568204
2.51171875,0.05056146956235584,-0.2223248553430588
2.515625,-0.7044989427742336,0.6270484747186776
2.51953125,-0.2952901976474477,0.49798180774187095
2.5234375,0.312207807716915,0.0999499041950864
2.52734375,0.20664695392223756,0.29233513091067165
2.53125,-0.2799071409752906,0.3169646151218704
2.53515625,0.7106972951464114,0.15253938349904217
2.5390625,-1.0276917261110332,-0.3679847783369475
2.54296875,0.6958383875317732,-0.9922992313674208
2.546875,-0.8353478469127853,-0.8963761792182048
2.55078125,-1.0470121108568387,0.7200544447787222
2.5546875,-0.6565702280466944,-0.15962117791963631
2.55859375,0.14624049106822376,-0.1810015876360371
2.5625,-1.265436072999576,0.840400339268611
2.56640625,0.1561473999977824,-0.609061577705623
2.5703125,0.4183307917175078,-0.33374327258248676
2.57421875,0.7093046423168111,-1.458349523376824
2.578125,0.21324008137915598,-0.8074788835020682
2.58203125,-0.2210542888600923,0.23037340406512838
2.5859375,-1.329393369662378,-0.500657940066332
2.58984375,-0.3146976742596742,-0.901588667292236
2.59375,-0.035824385277074274,-1.0136652853655468
2.59765625,-0.7353282929382574,-2.1441812376522136
2.6015625,-0.0538303439584073,-0.23656765924685258
2.60546875,-0.7967863601412881,0.01147207181200826
2.609375,0.7082959354893168,-0.88805999988652
2.61328125,0.5033509192063774,-0.2981180132357093
2.6171875,-0.22885700338439752,-1.4194593207778667
2.62109375,0.5873845159327861,-0.857215363148594
2.625,1.1050934475800989,-1.891590896530559
2.62890625,-0.1104719966996797,1.2984989425744604
2.6328125,1.363397380368621,-1.7597263164711747
2.63671875,-0.28095957061400884,0.5510680051114785
2.640625,-0.5586256052772179,-0.24749423465147044
2.64453125,0.529212928902335,0.06025770684792019
2.6484375,-0.2118899916953484,-0.045810425914494884
2.65234375,0.15536946506483432,0.30928458656574437
2.65625,-0.7764222500343102,-0.6262029906925756
2.66015625,-1.0462460915578204,0.537152717842132
2.6640625,0.9454877586540278,0.7706034008704433
2.66796875,-0.4451319653968074,-0.8485239406071716
2.671875,-0.03446349417829231,-1.4836716014217035
2.67578125,-1.2476747138117554,-1.0431333992955896
2.6796875,1.6667479316463416,0.14933359423266926
2.68359375,-0.04138438030903508,-1.9120546542012906
2.6875,0.28691401865805966,-1.4241596183827407
2.69140625,-0.3663655199443704,-2.254290692019604
2.6953125,-0.35409694848779316,-0.4694096190237054
2.69921875,-1.4699134202030166,1.0598321118160774
2.703125,-0.8029492029333749,-2.10531379421193
2.70703125,1.766301473251652,0.2277715363078216
2.7109375,1.3350255043571344,0.7818126215082443
2.71484375,0.07806270239866785,-0.2701006701378194
2.71875,1.2219308039085082,-0.18629670457371786
2.72265625,0.6426361252173526,0.6484041595994692
2.7265625,1.1594603758370798,-1.8852586932626223
2.73046875,0.5071901555222323,-0.8352477672634006
2.734375,-0.3035730533556806,-0.8407781915921918
2.73828125,0.6549930808556883,-0.6248479530284404
2.7421875,-0.7540113385708972,-2.3829131888708592
2.74609375,-2.2645798541068105,0.11231590201904451
2.75,0.24236000727688167,-0.9501692153134094
2.75390625,-0.26158855674622145,0.1001634876142271
2.7578125,-1.2488460682687554,0.36029927536872525
2.76171875,-0.17568910510915972,-0.565873229289495
2.765625,-0.7448346020593185,0.10981916164984706
2.76953125,-0.9835014715425485,-3.1406701468614564
2.7734375,-0.6890810390619926,-0.557265934835947
2.77734375,-2.268959928805121,0.18434551656524628
2.78125,-0.9557502534200403,0.8956452556947418
2.78515625,1.1901181713539806,-0.13993299329729672
2.7890625,0.5725123419465595,-1.5999391068857216
2.79296875,0.4849494428970113,-1.3654250405887858
2.796875,-0.14270418600669896,-0.8117034570807442
2.80078125,-1.605684850815792,0.2667951303415128
2.8046875,1.986189405997509,0.39790111155106955
2.80859375,-0.10773245679742326,1.0714564520553451
2.8125,-0.3592558383675657,2.2631122522672595
2.81640625,1.377909408037769,-1.1457477803464946
2.8203125,0.7235207991686186,1.4540871105915931
2.82421875,0.06675023447393413,0.6068944752957094
2.828125,-0.6852748613147023,-0.04228101935547559
2.83203125,1.7828763736021174,-0.32242865488366534
2.8359375,-0.6950323441718227,1.0291735842638263
2.83984375,-0.8021945348731361,1.879362742838304
2.84375,-2.877821891109401,-0.2655728190218371
2.84765625,0.4852054362349059,0.08041760810568079
2.8515625,-0.17583719334686937,0.622849592962796
2.85546875,-0.04238353594613516,-0.45150680646697355
2.859375,1.340181204327801,0.20413347126605455
2.86328125,-0.34068042951536476,-0.14365362482863775
2.8671875,-0.25320439162366554,0.46057436114762623
2.87109375,1.8678969044874103,-1.0270512698167948
2.875,0.24670289435567902,0.5487760300452832
2.87890625,0.1159115763893546,-1.0394355210258421
2.8828125,0.22104660234675758,-0.23624902078089047
2.88671875,1.2186660134616807,-0.6431840404067564
2.890625,0.24270128337168842,-0.0731202443646333
2.89453125,1.8173825079826351,-0.03563889965027991
2.8984375,-0.9272136749093549,2.5640131931444565
2.90234375,-1.541953343348315,-0.360432748373513
2.90625,-1.199662016719835,-0.44922619414328224
2.91015625,-0.336873680114832,-0.4997549198542428
2.9140625,-1.0535939674116563,0.25723678113710247
2.91796875,-0.14286553472173133,0.1752098201577545
2.921875,-0.7077620122661343,-1.2127378264571052
2.92578125,-1.027892639992973,1.2922118826689253
2.9296875,-1.2855102252259256,0.7297068430081719
2.93359375,0.4241999791679783,0.5214891515947764
2.9375,-0.936128311731844,-0.6867981688700209
2.94140625,-0.08260029360256038,-0.32288366177207173
2.9453125,-1.2583543061638685,0.8417354223622906
2.94921875,1.1747587923351976,-0.16832145200116913
2.953125,-0.495385551619606,-1.3029326637964005
2.95703125,0.039108804196023285,-0.16227709818610955
2.9609375,-0.8910963635107247,-0.6397179391551292
2.96484375,0.3372889018887966,1.1772641687543475
2.96875,0.5629047988708157,-0.052413267444872375
2.97265625,-1.9171969631253518,0.16755121612122434
2.9765625,0.4696720951619217,0.8564578148952396
2.98046875,0.2020532703188326,0.9800226433270927
2.984375,1.440519895654241,2.3627732440185216
2.98828125,0.19857361745543275,1.0899171234695375
2.9921875,-0.8627372841489119,-0.4239932020375106
2.99609375,0.4281716012974761,1.0236140630832544
3.0,-0.6147636922069339,1.453155058281066
3.00390625,-0.43780916819327687,0.7486194103435728
3.0078125,0.6265844990657483,-0.719004709901085
3.01171875,0.247165718894816,0.40419924102407523
3.015625,0.24947096076805325,-1.3525209704960588
3.01953125,-0.5546515568165203,0.5499635027148697
3.0234375,-0.6769034043934551,-0.9352388410146455
3.02734375,-1.1968706165932914,1.4526658627779294
3.03125,-0.9308960110096955,-0.5138745206553885
3.03515625,1.3394195327151048,-0.4715566718682948
3.0390625,-0.49242122652889964,1.2381002194205726
3.04296875,0.9231809595865719,-0.8256652314635082
3.046875,0.9279399236614956,-0.3683949452153172
3.05078125,-0.19544001786309792,-1.77282726327611
3.0546875,0.7776711540266533,0.5382421566013169
3.05859375,-1.496511758304473,-0.45083462937165636
3.0625,-1.9247569110266036,0.0048144119409483
3.06640625,-1.1524662022405017,0.040906674443788836
3.0703125,1.4101097607528215,0.1738530244688225
3.07421875,-1.597644366159681,-0.6631331537851268
3.078125,-0.2556978533365446,-1.2781987062615212
3.08203125,0.6946738193662739,-0.6878001266028255
3.0859375,-1.1549591053376485,-0.03414378336754546
3.08984375,0.5669758140751788,0.3226061411499259
3.09375,-0.3044140138753588,-0.4277994206346449
3.09765625,-1.5913576186555392,-0.00022705032576011543
3.1015625,0.2888367565969769,0.5562747020500075
3.10546875,-1.2781773886254078,-0.318064483950791
3.109375,-0.6736259110710537,0.8203839556979413
3.11328125,-0.3081308991841021,0.9876515309749134
3.1171875,0.6549611832272948,0.5732713010742445
3.12109375,0.9183374765430071,-1.4549379837859855
3.125,1.8678690269602594,-0.7739917052262713
3.12890625,0.24318676302324974,-0.561440166643297
3.1328125,-0.02283267484056107,0.8641584404620536
3.13671875,0.832579367197423,-1.4765632403221576
3.140625,-0.6973020547695782,-0.7349134908960584
3.14453125,0.30509833018321564,1.0397856613955279
3.1484375,-1.1413431582260312,0.49360865839958784
3.15234375,1.0788760213609556,-0.038246489748789206
3.15625,-1.6083155176281116,0.1589337171561789
3.16015625,0.4073040358859779,0.6931876005842665
3.1640625,-1.7176580192102857,1.4537709943027368
3.16796875,-0.15674882838912613,0.7946322715565419
3.171875,-0.8839935705504973,0.5582269968516634
3.17578125,0.4713652391404004,-1.2737405083820164
3.1796875,-0.4983344584002581,-1.6259270696400696
3.18359375,0.886447752889961,0.4856330650755336
3.1875,-0.20519938738436985,0.8343270343419754
3.19140625,0.48102984984441166,0.647345658853991
3.1953125,0.5041229430352727,-0.32637501541380015
3.19921875,0.19809365729986841,-0.16218214204388864
3.203125,-0.6908635250031694,-0.0900096867678316
3.20703125,0.8548419895637107,-0.28692748128287515
3.2109375,-0.4100687563007206,0.536815257987925
3.21484375,0.7539972668945888,-0.5503246615723124
3.21875,-0.7847162733409834,-0.2497959652627467
3.22265625,-0.7421263686045985,-0.6590655845142788
3.2265625,0.11190890194147032,0.683097732343445
3.23046875,-0.062484847103836824,-0.9092508593977094
3.234375,-1.4619956292073626,0.355665331638252
3.23828125,-0.861599899664755,0.4357118862174685
3.2421875,-0.04673468671195549,-0.2114047177418621
3.24609375,1.4952207934878528,0.632090546553445
3.25,0.11172797122833636,-1.222754778527756
3.25390625,1.2784966017981358,-0.7755359772174093
3.2578125,-0.13864577661971583,-0.23822847257724084
3.26171875,0.08767453107769463,-1.046615542852356
3.265625,0.40349394429667323,0.655086898646169
3.26953125,-0.12259627037073362,-0.08253474303419031
3.2734375,-0.09780897276296141,-0.04654824472597015
3.27734375,2.3471167208455697,-0.44425365590392346
3.28125,-0.6278521901557939,0.6071235159256435
3.28515625,-0.16778444677371995,-0.6446624739043301
3.2890625,-0.8342954771255464,-0.9640806679118693
3.29296875,-0.6985959896528762,-0.788364307447142
3.296875,-0.9630376117026228,1.0189730157291705
3.30078125,-0.5441844581621432,0.14087177187600072
3.3046875,0.39484166882527727,1.5824734665290046
3.30859375,-0.49255399803392497,-0.35272202554384036
3.3125,0.8746530367111232,0.36459064164924904
3.31640625,-0.03992227323771873,0.5281900798916414
3.3203125,0.6195651756936489,-0.23042436925448356
3.32421875,1.8892902214045668,-2.553712610207269
3.328125,-1.3410982361129158,0.757935524070194
3.33203125,1.961570269309867,-0.2560106217819802
3.3359375,0.16674751051341483,-0.8010305488456283
3.33984375,-0.5410015004584662,-0.19833264698020084
3.34375,-0.5351945366836989,1.4222562471420002
3.34765625,-1.6117213419256946,0.6455231655119014
3.3515625,-0.02881006748952176,0.24794988580616087
3.35546875,-0.19812414890995317,-0.7770655425103341
3.359375,-0.6716954202780273,0.3502180905596945
3.36328125,-0.6117768460794679,1.098291008260276
3.3671875,-0.36156999318939903,-2.093343367372295
3.37109375,0.02444044688239853,-0.8618293646093225
3.375,0.22779480124603288,0.09824149728265087
3.37890625,-0.532875856111247,0.5315547155883862
3.3828125,0.022774370644765313,0.9796545521016973
3.38671875,-0.09660617128793401,-1.770364614429636
3.390625,-0.9954769261375537,-0.36651388463910095
3.39453125,0.8152278951615222,0.4489456890368682
3.3984375,-0.5150909505474824,-0.04247526140753554
3.40234375,-0.150975809506101,0.6210273154125314
3.40625,0.9597255176862529,-0.6719084354736944
3.41015625,-0.12396640219338267,1.0685038158455087
3.4140625,-1.0203028538861945,-1.270504461102357
3.41796875,-0.2261912952640633,-0.7136196058594108
3.421875,-1.106771408305554,-0.6457650404354601
3.42578125,0.8368484796807777,-0.3891183167531771
3.4296875,0.020993753300212633,1.379045672010557
3.43359375,0.1672803292259006,0.4128042202303276
3.4375,0.44115203061147373,0.19107279828061383
3.44140625,0.40877842178185886,0.8999761040180033
3.4453125,1.8252345517600692,-0.7185080812886766
3.44921875,-0.4795501643640986,-0.6356948518385396
3.453125,0.0011321727603086607,0.6458954358241817
3.45703125,-0.879264959932444,0.5333619270031433
3.4609375,1.4102514920803688,0.3145492777532235
3.46484375,-0.2619773118111918,0.560983896988091
3.46875,1.1907248444492162,1.8430558473747218
3.47265625,1.2266967423888229,-0.5769736195174422
3.4765625,-0.37855872041007704,2.0870058317166005
3.48046875,0.06115362024558138,1.4884168180519748
3.484375,-1.9896177223402454,-0.7299434153760068
3.48828125,0.971282242957354,1.7005902110356907
3.4921875,1.9693127734345401,-0.6530775992898942
3.49609375,0.06091242080499686,2.8259232571274673
3.5,-0.16857845184577494,1.2100895403844696
3.50390625,1.134032834940964,-0.25703467915348527
3.5078125,1.0614429324072712,-0.7596340680829267
3.51171875,-1.1121928786514044,-0.06148491410516869
3.515625,-0.1728507807369229,-0.5506536318198447
3.51953125,-0.861802342932919,-0.551008681043466
3.5234375,-0.5552849275570386,-0.14769683584525947
3.52734375,1.555818459279095,-1.5031310721199762
3.53125,0.8609790004195567,-0.2794276568690234
3.53515625,0.6173967676213215,0.5227599046130682
3.5390625,0.4501199383208137,0.29433953128380186
3.54296875,0.4945498712721653,-0.8401409640917209
3.546875,0.30276983241931255,-0.027803521385551106
3.55078125,-0.6260300563830463,0.4704341677351679
3.5546875,0.15540093286107007,-0.35911719318937463
3.55859375,0.35425845712425325,0.27866170627009734
3.5625,0.8225981287651755,-0.05008191984978855
3.56640625,-0.353873861020228,-0.9700320569085016
3.5703125,1.1694352465949769,0.5538597990163368
3.57421875,-0.9324552226578948,0.07329870105954658
3.578125,1.5143974586540496,-0.6361552943997257
3.58203125,-2.4389843173776034,1.4601231261684022
3.5859375,-0.8341688669119257,0.9584210751824827
3.58984375,-0.6016980704380581,-1.41526834023596
3.59375,2.004935413306536,-0.6986612666534943
3.59765625,0.2943584308993344,2.1159380621897865
3.6015625,-2.7907804355696797,-1.296707138394116
3.60546875,0.4273078751967782,-0.3606947255226632
3.609375,1.1585315304299977,0.0012523102906164749
3.61328125,0.3192091199696204,-0.7823094310918745
3.6171875,1.4988184396476931,-1.4838046952496036
3.62109375,-0.949538761069749,0.34723170884161586
3.625,0.3171835155375672,0.40943184638459
3.62890625,-0.28000356729839854,-0.15899465092165604
3.6328125,-1.1904023177010956,-0.44132837404196684
3.63671875,-0.6154748177929491,-1.0424456205418875
3.640625,1.5930673135348612,0.10624501247912078
3.64453125,-0.1896741453058077,0.3100232522698153
3.6484375,0.7440139947603964,-0.4319482687588893
3.65234375,1.4670592693875202,-0.27330421444238856
3.65625,2.093863188517907,-0.19082116822519588
3.66015625,-0.01881416303165643,-0.938857580180241
3.6640625,-0.6962728291508099,-1.0213189902460358
3.66796875,0.8815839471575264,-0.06382142347177408
3.671875,-0.1246407900462594,-2.2876604067431434
3.67578125,0.38613334533424054,0.8731698179522258
3.6796875,0.8227311304702448,0.01268876288893402
3.68359375,-0.09229242108183607,-1.15059146347352
3.6875,0.10138286502072212,1.1784945068507824
3.69140625,0.6702121152346108,-0.8823428755145518
3.6953125,0.30216700945130937,-0.8626736966029994
3.69921875,0.7226515786180581,-1.018839416202409
3.703125,-1.826470205167055,0.9404537455396444
3.70703125,-0.4859736388245446,-0.23069483865900073
3.7109375,1.0111734870272804,-1.8336942706402604
3.71484375,-0.6906826332532622,-0.22698226148524164
3.71875,-2.1465533534505847,-1.1378896873479696
3.72265625,-1.6970476731698052,0.7646152328158138
3.7265625,-0.9469883882884278,-1.046941317583917
3.73046875,-2.415513677755124,-1.910916000652594
3.734375,0.6765779597896153,-0.593870712402262
3.73828125,0.46820179278145685,0.27453525389609934
3.7421875,0.06962554160207259,2.4354539012301437
3.74609375,-0.37567332858048663,-0.9631531346427764
3.75,0.8336217826519157,1.065592081787415
3.75390625,1.623105092577381,0.797654937937381
3.7578125,-0.6988961595009366,0.7590814145504879
3.76171875,-2.1178881285244935,-0.7965589862698916
3.765625,0.716098938609598,0.4952583591922241
3.76953125,-2.062731737104512,1.3695964824764868
3.7734375,-1.1596698935027017,-1.8131028258459616
3.77734375,-0.01772163745196943,1.2388526899769836
3.78125,-0.942664959652274,-1.1294335989423872
3.78515625,0.8487388286795746,0.488084330666755
3.7890625,-0.9912838180423246,-1.9046577909159719
3.79296875,-0.4434537137136649,-0.6790684614704047
3.796875,-0.25028244920531534,1.7029241683004177
3.80078125,-0.44354506967093416,0.08635233178484263
3.8046875,0.4527120123093936,-1.5877277191701555
3.80859375,-0.9853415277166799,-1.0424611388241447
3.8125,0.7257725708013686,0.9489334435405068
3.81640625,0.5318252452284766,-0.5736679225813852
3.8203125,-1.4128806654920412,-0.2782965305418531
3.82421875,-0.6650359717454825,0.6942908868580088
3.828125,0.48259798078174687,1.8349541709092723
3.83203125,-0.5368090013997511,0.13535704098218623
3.8359375,0.9130354372332596,1.0785058198701993
3.83984375,-0.4021650466652578,-0.740898756077257
3.84375,-0.36882080099620507,1.6758889745745296
3.84765625,-0.19465679428403784,0.1369514249033846
3.8515625,-0.2389360298925036,-0.5834335567540625
3.85546875,-0.762175001937446,1.2852063077302482
3.859375,0.879985649310497,0.5047685846774819
3.86328125,0.32655129200258626,-1.112247745612706
3.8671875,0.10302942288889141,-2.2770937441772765
3.87109375,-1.276375301433662,0.1078239701163403
3.875,-0.041752318896426305,-0.005905379277412184
3.87890625,1.9589040517639056,-0.3441617390949103
3.8828125,-1.0579959674892137,0.5693626785937201
3.88671875,-0.06270973123485105,0.5371082783708468
3.890625,0.9636705252374073,0.6663426947446772
3.89453125,0.022628829294023937,-0.9134781632958618
3.8984375,0.24384535130482976,-1.1484403565224732
3.90234375,-1.566130673376523,0.09102991207356789
3.90625,-0.6457141866239726,0.4122428717348122
3.91015625,-0.6467834214471461,0.09678346847172055
3.9140625,-0.002342297941500277,-0.7908683326803244
3.91796875,-1.3843312175688198,-0.9839966137349481
3.921875,1.255861562287646,-0.17187388111396082
3.92578125,0.1576190670008744,0.2062433189545205
3.9296875,0.40397500746197623,1.2713163925135202
3.93359375,0.1879041298336038,0.20643528762019514
3.9375,0.4061487074825508,1.2706810770931523
3.94140625,-0.04159789258874633,-2.5437115827741557
3.9453125,-1.3415402446620535,-0.3732989841451058
3.94921875,0.5457947202020631,-0.33840759139048254
3.953125,0.448684779142189,-0.054497637667893464
3.95703125,-1.1463773858094224,0.7403956227575835
3.9609375,1.3176771746599962,1.1854613190139003
3.96484375,2.095794751385584,0.11331539207816249
3.96875,-2.2161238357597584,-0.8925632145208413
3.97265625,-1.2026109858708685,-0.08629779976126556
3.9765625,-0.5237702761724158,-0.4284006872651056
3.98046875,-0.42906474531903255,2.163928706745487
3.984375,0.8927794972685162,-1.4243150981091601
3.98828125,-0.2959211858334876,0.39253724810753543
3.9921875,-1.4483349389020654,0.4195037610977938
3.99609375,1.0432442638087989,-1.3490970042800448
4.0,-1.5848737666013648,-1.6436438377993163
4.00390625,0.5101067688840605,1.0387610843470958
4.0078125,0.542150262022402,0.19570628718866237
4.01171875,-1.5981890862005041,0.690797766466113
4.015625,-0.8604084571597409,-2.1407956486034596
4.01953125,0.8590522597556184,1.4758404121713102
4.0234375,-1.4104792062886276,0.971277833861796
4.02734375,0.792646523945452,-0.23280814144319317
4.03125,2.4244699627196407,-0.8550364994109971
4.03515625,-0.5998572464714855,-0.76507274091383
4.0390625,0.13534293963259392,-0.569136215136071
4.04296875,-0.7057434246128851,0.49697288184475935
4.046875,-1.2988788644767326,-0.28400354493069613
4.05078125,0.6914182585993275,0.058139106544663935
4.0546875,-0.8362250868299902,-0.9853507223688006
4.05859375,-1.1095802290281283,0.5644761670280183
4.0625,-1.8950090622898499,0.8883683144783083
4.06640625,-1.0610259936336175,-1.4652249865603544
4.0703125,-4.24531660394559e-05,-1.9033053935785806
4.07421875,-0.6080897959321633,-0.04057077328495408
4.078125,1.868827989199528,-0.21676478076690303
4.08203125,1.4586476128313088,-2.9924521010113083
4.0859375,-1.788280460968069,1.7687204406535448
4.08984375,0.5740763285619237,-0.05218050275493456
4.09375,1.5856837864418396,1.6448457188403238
4.09765625,0.9257754664188962,1.0346023034684197
4.1015625,0.8642118563863957,-0.32060557753183766
4.10546875,1.0535491342398948,1.3859336756479717
4.109375,1.9676310654582114,-0.5464591463974741
4.11328125,-0.30847590265775354,-1.353531641421178
4.1171875,-0.8763055062529335,-0.7432123803709109
4.12109375,-0.3305069867447935,-0.5851215280294525
4.125,0.6391650094534599,-0.6384378877747329
4.12890625,0.13991989762958906,-0.4870424333144739
4.1328125,-0.4718431108525964,0.9303336577920699
4.13671875,2.6196014023447023,-1.0255324109882638
4.140625,-1.0573016606821373,-0.5029974625223324
4.14453125,-0.415687347723828,-1.8390412074294045
4.1484375,1.6034607631685593,0.2501138034407283
4.15234375,0.12093690551997467,1.2947357683979954
4.15625,0.9890806284523251,-0.4786181146723237
4.16015625,0.18966779324449015,0.6855850060720335
4.1640625,0.5903323288082545,-0.8378979370618871
4.16796875,1.5560601925212136,0.16130229133657625
4.171875,0.2983483250364242,-0.6828006543267867
4.17578125,-0.2212618644853737,0.11985173295108749
4.1796875,1.5243964832740042,0.1869197482460371
4.18359375,-0.2786252812538882,0.5335568813490483
4.1875,0.33771070176806495,-1.860395153323337
4.19140625,0.20843883158469906,-0.46465248927148795
4.1953125,0.053832761823887805,-0.11521654979050625
4.19921875,1.0193269529144617,1.8099439521849983
4.203125,0.9137070507111374,-1.2310963471415985
4.20703125,0.031149756570107188,-0.6193866857794468
4.2109375,-1.5040858587648729,-1.301675238068795
4.21484375,-0.5503607406932102,0.00797055846743102
4.21875,-0.18038187523148652,-0.18225562899334932
4.22265625,0.43600459976121864,-0.0013310473108798383
4.2265625,-1.483543782558372,-0.8479712585729722
4.23046875,-1.0878113539446255,0.4547150695366313
4.234375,-0.08488459991329157,-1.7754166841214436
4.23828125,-0.9956611900458957,-0.09743802800653438
4.2421875,0.583178200189857,0.43991751533208795
4.24609375,-1.7871468551672778,1.2744837562368692
4.25,1.3168997051167854,0.2872481862519582
4.25390625,0.5960631658225433,-0.38876659258345914
4.2578125,1.3135409668666096,-1.592581766017878
4.26171875,1.5652056051440244,-1.8331957311146885
4.265625,-1.8346768377630185,-1.5003153128625029
4.26953125,1.1043445961425304,0.21024690021818576
4.2734375,-0.18292006228332877,1.0823676047890347
4.27734375,-0.08660963780736888,-1.3390776124471198
4.28125,-0.3534743231447225,0.861780024545294
4.28515625,1.1339529725904351,-0.6337029905901141
4.2890625,0.915620024903779,0.08326563193626706
4.29296875,0.09380938198361559,-0.6878782891035512
4.296875,-1.469627402830699,-0.9711638436478928
4.30078125,-0.49194991522592985,-0.15104055265437574
4.3046875,-0.016514418790117967,-1.852993421805944
4.30859375,0.664031689041547,0.24756249413318934
4.3125,0.43205563474715347,0.885525818424939
4.31640625,-0.9975917388655642,0.6404480816982735
4.3203125,-0.33801433087998206,0.5913307228407851
4.32421875,0.9241982366670386,2.1079919276355574
4.328125,-1.5727794480870936,-0.24837668317271427
4.33203125,0.4934957938422002,0.7791506775366872
4.3359375,0.9782582523067421,0.8461173119700901
4.33984375,0.15870348966799536,0.24354187173867575
4.34375,0.14962024577461253,-0.5071341177723337
4.34765625,0.6362194003722856,-2.7034001864750556
4.3515625,-0.29347315777927185,-1.0845159503785782
4.35546875,1.1668528328588956,-1.0108723752110205
4.359375,0.06640326505440745,-1.4581885277630724
4.36328125,-0.6674502182723356,-0.9597287598992573
4.3671875,0.12523646761433227,0.23025474856599745
4.37109375,-1.323035414184256,0.3326697823373412
4.375,1.1385571145825901,-0.6313221959017462
4.37890625,-1.1910834581062697,-0.3796716040127088
4.3828125,0.08592702119205517,-0.6028391087339579
4.38671875,-0.5356534539600589,-0.769596456978029
4.390625,-0.137907976207943,0.8199951796644739
4.39453125,-1.0029366075874788,2.1440114203649663
4.3984375,-1.143181690529184,0.8461935158110735
4.40234375,0.19319059489030607,2.0450068989812578
4.40625,-1.4954774957214783,0.8662156291240998
4.41015625,-0.021356547711356345,1.1664618122294959
4.4140625,1.000434646181873,-0.8060866665684727
4.41796875,1.2421618684301725,-0.025522964467167477
4.421875,0.5927536507897824,0.29965539472920266
4.42578125,0.4027071635294269,0.13859840145077157
4.4296875,-0.47336771894957796,0.7080873801675532
4.43359375,-0.22417779756761366,-0.43979884712604284
4.4375,-1.0561725398873827,-1.4657194100601953
4.44140625,-1.4399499363969717,-0.4044450600578735
4.4453125,-0.9102139860921445,-1.1203718053598561
4.44921875,-1.2952163381119406,-0.0841752797043894
4.453125,1.0826296269626432,-1.1286637656083012
4.45703125,0.8950385658557657,2.355149990514979
4.4609375,1.219556588105583,1.602603706758471
4.46484375,-0.1714747205318434,0.993073015524299
4.46875,-0.15350642124539243,0.9570207744749117
4.47265625,-0.37401235873916644,-0.579799001437657
4.4765625,-0.6215512608687803,0.6398683049023641
4.48046875,-1.0164312417745915,1.5286334137470823
4.484375,-0.5805336799250146,0.912445020432135
4.48828125,-0.615162230664572,-1.598462185010161
4.4921875,0.2885316604054629,-1.1321185603045703
4.49609375,-1.0799471838455381,0.3922234285935704
4.5,-0.6240801375292433,1.3532311873851184
4.50390625,0.33767860949662154,0.993221424043017
4.5078125,0.59936304969094,-0.4245887417705721
4.51171875,1.2676875983343983,-1.0194488376201698
4.515625,0.3211766273712564,0.5741637421904218
4.51953125,-0.34486178557925873,-0.8272733763639666
4.5234375,-0.09025057774818608,-1.1356973416487042
4.52734375,-1.4388647405372754,0.3253391825477064
4.53125,0.5640555184621456,1.3332383944261437
4.53515625,0.7922644103415188,1.6062622929539208
4.5390625,1.525063558247335,-0.6560059909676762
4.54296875,1.4058496424026443,-1.242069100205584
4.546875,-0.3590622881497972,-0.5542077232949342
4.55078125,-1.2817415094109186,0.22385996190233048
4.5546875,1.0031250601494794,0.41885156619475034
4.55859375,-0.23401411519687004,1.0124123914567484
4.5625,1.9273343514536287,1.58428597186686
4.56640625,-0.9636810679544564,-1.1371410757304523
4.5703125,-1.4223288198300275,-0.10904633864209773
4.57421875,-0.11963177262605773,0.8409037362197667
4.578125,0.9510833999989642,-0.7743147407282922
4.58203125,-1.6179122559116852,0.1449459168884627
4.5859375,0.2576401268838792,-0.9435662368965003
4.58984375,0.9865001462209302,0.5863276885949474
4.59375,-0.6822753510052284,0.24525932066113662
4.59765625,-0.7609215656808355,0.6714179562421864
4.6015625,-0.010382396919333535,-1.7636986460403317
4.60546875,-1.8769132898636007,-0.12780902099131974
4.609375,-0.08482287171748262,0.551370267668848
4.61328125,-0.8594384488837439,0.30313012362327174
4.6171875,0.8183282532963639,-1.8300066437742777
4.62109375,0.05153759797566067,0.24597545957554395
4.625,-0.0884105064744254,0.11580824133117867
4.62890625,0.9186638078165396,0.13939341392899132
4.6328125,-2.359332469371212,-0.6793886927503492
4.63671875,0.46302570529337483,-0.8845046342343812
4.640625,-1.5748916503445531,-0.1268751737211065
4.64453125,-0.05135739946168111,0.8254818290973792
4.6484375,-0.3991646938835863,1.0326749025523614
4.65234375,0.5090391430156117,-0.45497291367155007
4.65625,0.022975661135185326,-0.6179756011991043
4.66015625,-0.4251283357417572,1.1717319894772578
4.6640625,0.08519530231781068,-0.37618554609551635
4.66796875,-0.8570320402450932,0.33941170404646726
4.671875,0.22904092207107954,-0.9174554984069778
4.67578125,0.3286181786027264,-1.9972047829116493
4.6796875,1.4227179982233054,-0.40675798986606615
4.68359375,-1.7116649919842177,-0.7823223318702415
4.6875,0.20817226218575927,-0.04357975428584182
4.69140625,1.2752005998361515,-1.0232956566278995
4.6953125,-0.28740999063511075,-1.551546960342203
4.69921875,-1.6130153862637338,0.5686593721553005
4.703125,1.2010472577042424,-0.9850091013736937
4.70703125,0.5551061875164646,0.03715155977544972
4.7109375,1.7923609259595128,0.7823059473249528
4.71484375,1.7997977117185744,2.1508923124158623
4.71875,-0.6931650484851118,-1.37002594421123
4.72265625,-0.2631287589296908,0.759609526732177
4.7265625,0.7931332798240338,0.19874988442419825
4.73046875,-1.3538716384019285,0.3955524711913053
4.734375,2.146934628852901,0.5660399327897555
4.73828125,0.23989110472727998,1.5884208013535495
4.7421875,-0.46936813050355924,-0.5690535991251519
4.74609375,-0.24392294222156327,0.5582782977805519
4.75,-0.8474344194361719,0.3790150706324176
4.75390625,0.7667966882975189,0.08180854351650131
4.7578125,0.713605955743791,1.6829518915668689
4.76171875,0.32616197042463435,-0.6296913970361903
4.765625,1.4468022046149722,1.1089735576445965
4.76953125,1.5692260229240398,-0.8110560464670475
4.7734375,-1.4915541563534516,0.43453377501063994
4.77734375,0.5314119980872128,-1.32572258581046
4.78125,-0.16800196985216273,0.4205463492093337
4.78515625,-1.555305414876221,-0.2052892129681486
4.7890625,1.3799394664125169,-0.7948902617745502
4.79296875,0.1098750807568696,0.37574357574664813
4.796875,-0.1531068491117257,-0.2003903071410632
4.80078125,2.4572758322128734,0.11853654091586313
4.8046875,0.11015129297948187,0.4655940969341997
4.80859375,-1.7405712903109756,-0.6097401653817934
4.8125,1.76522612167183,1.4495933853232768
4.81640625,-1.0288288108044978,1.7492396163939525
4.8203125,-0.6405456425653512,0.5846198559054214
4.82421875,1.5091540764551459,-0.726043420700687
4.828125,1.481746730164791,0.776786880350052
4.83203125,-0.9969767754560189,-0.870348449357846
4.8359375,-0.9020904286090314,0.892955594857365
4.83984375,-0.7613346001177037,-0.22377568382364355
4.84375,0.09673279800258854,-1.568401892571693
4.84765625,-0.06680191311447295,-0.48394331637985766
4.8515625,-0.24429958482452435,1.2896757158654293
4.85546875,-0.38124568032458456,0.33853188225009956
4.859375,-3.1754770999467796,0.24246439557306282
4.86328125,0.22618883927331737,-0.7352906323234436
4.8671875,0.532989757021587,-0.4622148382287812
4.87109375,2.4781021526743325,1.0008520901348887
4.875,0.17101641200489578,0.23231708237108525
4.87890625,1.1894703222641971,1.404588736798137
4.8828125,-0.5190575392811339,-0.48233467210366093
4.88671875,-0.44255513436050703,0.8549452972713455
4.890625,-1.4166960499559942,0.6644101975974386
4.89453125,-2.0147280120753845,-1.909392575052478
4.8984375,-1.2489489409782855,0.18702699793366712
4.90234375,0.9215974659657057,2.305201090958404
4.90625,0.12098272268812515,0.3464073383027228
4.91015625,-1.9441579793564148,-0.5403738185065967
4.9140625,-0.5217944976674928,0.47652510915366136
4.91796875,0.39521863340873814,-1.6031034999417582
4.921875,-0.48346033820977774,-1.4663386422142974
4.92578125,0.6342709640466911,-0.5895788964740698
4.9296875,0.8781259330930737,0.28230456705588003
4.93359375,0.0925808074721733,1.6608863386320678
4.9375,-0.5834728600533694,-1.6842851249024828
4.94140625,-0.6262913447090196,-0.4595427689324961
4.9453125,1.4970605789168288,0.24409993863281268
4.94921875,0.8226892950249806,-0.30409307506496375
4.953125,-0.44572265246472265,1.7442953583682803
4.95703125,-0.8395020585988201,1.7200057717799475
4.9609375,-0.8836843164517095,-0.3167499645196461
4.96484375,0.4245113501861274,-0.930894389743945
4.96875,0.4413401711115192,-0.7641068323018109
4.97265625,0.8762275181567041,2.216997200251743
4.9765625,-0.3474333877703173,-0.5742435622740276
4.98046875,-1.6974419767800104,0.057167539858223114
4.984375,0.7088908892995379,0.7602198737312961
4.98828125,-2.5938023036065845,1.9807967850841819
4.9921875,-0.7020522552211219,-0.5827739250912904
4.99609375,-0.35304819802778065,0.731671114695579
5.0,0.6033094821041824,1.7278902428960163
5.00390625,0.349269904098125,0.8125792221365558
5.0078125,-0.73320336425988,2.6717153944104868
5.01171875,0.7841301474595781,-0.04357927117747505
5.015625,1.3937842056954632,0.4584048989581664
5.01953125,-0.6871452588219487,0.5577619340428417
5.0234375,0.7795143506777268,0.13654630082767735
5.02734375,-0.5862466527012318,0.31618167409020786
5.03125,-0.46958794453076735,0.9562455498602421
5.03515625,0.006427262275979062,-0.2960345843188309
5.0390625,-0.815764433644027,-0.3986345827413614
5.04296875,0.2505245611308141,-1.1372071535146615
5.046875,0.4295600183350547,0.7434086500049257
5.05078125,0.5331025181419545,-0.9630759684954178
5.0546875,-1.154468716239926,0.11918903647941663
5.05859375,0.35917078169491057,-0.5669203676008017
5.0625,0.35596684794030053,-0.6256049948459503
5.06640625,1.116807699851888,-0.5618038742762679
5.0703125,-1.307406168958658,0.48361058268032164
5.07421875,-0.021892171702913077,1.3174735699663371
5.078125,1.1274709140966321,-0.5332789901262166
5.08203125,0.34329651418575224,0.630760900738295
5.0859375,-1.5658226219705424,-1.711954929810964
5.08984375,0.49837628046483207,-0.5758830158432077
5.09375,-1.0644973177484682,-0.6487993779115308
5.09765625,-0.013078250209220437,-0.47769921839679536
5.1015625,0.6756580077167486,-0.6615636125707002
5.10546875,1.956523046967059,1.2962849786152733
5.109375,0.6520919474651943,-0.1970845677336457
5.11328125,1.1645808649298517,-0.8067753622777071
5.1171875,-2.300697658516922,-0.8563195838830091
5.12109375,0.4501864705315304,1.1248245683901743
5.125,0.21322639605194085,0.7518861627584684
5.12890625,0.39984938801487974,-0.5333287506609705
5.1328125,0.026122292438423782,-0.8685052184102897
5.13671875,-0.21296405017737796,0.6004397591189984
5.140625,-1.3106596521321319,-0.5759635954688076
5.14453125,1.3855534990123972,0.06690798547018799
5.1484375,0.22314997142036613,2.0188925672849676
5.15234375,1.5108084822252417,-2.2490983195435743
5.15625,-0.8380839389492608,0.7498973928175898
5.16015625,-1.5465847903631535,-0.592157072426568
5.1640625,-1.511884432015397,-0.21195980224773428
5.16796875,-0.6945942040157469,0.43571759701050394
5.171875,-1.216966492440353,-1.8992012605786228
5.17578125,0.039975481850917996,-0.43004510948842606
5.1796875,0.29366065256611773,0.4791410700757903
5.18359375,1.7223890214004145,-1.5153854023240958
5.1875,1.7482120203439047,1.3941905791490665
5.19140625,-0.04011408725824191,-0.33746160353432214
5.1953125,-0.07318356311611765,-0.6819274173815781
5.19921875,0.9938921763450651,0.6529968809226171
5.203125,0.466171358364419,0.2879175108576062
5.20703125,1.3785248419763731,-0.10977090127521665
5.2109375,0.6207155420621293,2.824170062977857
5.21484375,-0.45774410945155636,0.11009289501976567
5.21875,0.8286546170490878,-2.247918514355947
5.22265625,0.7993336753765791,0.17760519094462968
5.2265625,-0.4954988651373794,-0.24643700605814517
5.23046875,-0.839289307721683,-0.6803695156907743
5.234375,-0.6896624818141247,0.7574676805206387
5.23828125,-0.02802729338870741,-1.8442738448297142
5.2421875,1.450873233894006,-0.9821621665330957
5.24609375,0.8087323710950709,-0.14314591579671465
5.25,-1.0432825978695348,-0.26144520128758614
5.25390625,-1.010839573995463,-0.010378084481552106
5.2578125,-2.355340238519452,-0.21147474537956343
5.26171875,-0.7674680715669728,-0.01828908087591722
5.265625,0.06929622738034728,0.026162134390716272
5.26953125,0.5384859439902349,-1.7441570186360271
5.2734375,0.3764532987453424,-0.36182714247646125
5.27734375,0.44911538819707497,-1.5058673401818634
5.28125,0.4667990644696232,0.2619386672660345
5.28515625,0.4728273758883892,0.056308336304971604
5.2890625,1.4155580957172547,-0.6684118851549726
5.29296875,-1.9632609230469094,1.3673622272198347
5.296875,0.7674462687630279,1.5317306581065078
5.30078125,1.127564396468358,-0.6123269295412195
5.3046875,-0.5148960449876114,1.0525248506834606
5.30859375,-0.4732828551492519,-0.5204548309568554
5.3125,-0.9497511020293183,0.804012957314098
5.31640625,0.059779051837878225,-2.304611102217477
5.3203125,0.3101123480050081,1.2850520302749304
5.32421875,2.113678949226922,-0.1501872178860589
5.328125,-0.4135285865574326,0.4098836071018522
5.33203125,-0.1713561314462553,1.0086959918611915
5.3359375,1.171861921724843,-0.688428165877991
5.33984375,-0.2195249539167614,-1.024827129147994
5.34375,-0.408403646131907,0.48401590301923275
5.34765625,1.664891803127093,2.251479699138772
5.3515625,1.3839495401208057,0.42536488569160597
5.35546875,1.6672159594742981,0.7409001701141908
5.359375,-0.2402943792388567,1.7542237659475481
5.36328125,1.1366160121396136,-1.1501339828479067
5.3671875,0.4892262320100751,0.1519456496664527
5.37109375,-0.7880771546115015,0.9510471854904301
5.375,0.9536595929127399,-0.31862330801275396
5.37890625,0.3694805202450248,-0.1937276820607644
5.3828125,0.1313823332427352,1.0789441453283999
5.38671875,-0.09325931006605574,1.838634749522123
5.390625,0.7274492078886191,0.6064826028039194
5.39453125,0.8788064051815936,1.4381207757007795
5.3984375,-0.1568965647137759,0.7603127754710735
5.40234375,-0.2745832085816069,0.3653510892518674
5.40625,-0.5276734917867654,0.647644968129005
5.41015625,-0.44726823718938435,0.02912475220186754
5.4140625,0.8644467447910387,-1.6399588063079902
5.41796875,-0.2209315266348475,0.002307411801725668
5.421875,1.2539910314980978,-0.2994762425502857
5.42578125,0.601353729621898,-0.7111373867667177
5.4296875,1.422031285411643,0.6964536643997632
5.43359375,-0.34756641348737205,1.7895765104908345
5.4375,0.4786901298386751,-1.6578522347744518
5.44140625,0.020107147726996528,-0.0888718329301635
5.4453125,0.30204525843700936,-0.1113732207823486
5.44921875,-1.0430972409349513,-1.5086005230193826
5.453125,-0.9028651789778892,0.12411371830347062
5.45703125,0.1753911701447355,-0.397775535747532
5.4609375,2.1764808160889926,0.33567248125954274
5.46484375,-0.25492207343038303,0.38869638338807505
5.46875,-0.14474378759211784,-0.24355066381786628
5.47265625,-0.5541695729968649,-0.2100891287690503
5.4765625,0.3128739865685483,-0.28619811730028694
5.48046875,0.15486554317936158,0.30168532311543267
5.484375,-0.5369274586644399,0.18251364496416247
5.48828125,2.0428649912493984,0.4161221504846948
5.4921875,-1.029323808372028,0.7399786156202351
5.49609375,-0.49551665014743773,-1.627900035627049
5.5,-1.3161913905124583,0.3080137207061845
5.50390625,1.0262671494293374,0.0037460166270854344
5.5078125,0.11487316641947568,0.24778537920373336
5.51171875,0.03651983297490035,-1.4045105105352698
5.515625,0.44046760694593395,1.286862417120213
5.51953125,0.3057355489873148,-0.4325099050406221
5.5234375,1.0085241532741611,0.06945045673751182
5.52734375,-1.1382698139761216,0.7953945488955443
5.53125,-0.6441549225533859,-0.594666129810703
5.53515625,0.38322067740890325,0.8983059823378968
5.5390625,1.2638701681352924,-0.1578162795200953
5.54296875,0.8135106962311536,0.7300939846894092
5.546875,-0.7424541649382876,0.3044540358869548
5.55078125,-0.4400678049061695,0.39143515261630624
5.5546875,-1.0433641351580345,-0.9260988775389103
5.55859375,1.0498132586520148,0.4582101098010688
5.5625,-0.3357449726785774,-1.4406455925084873
5.56640625,0.2761455068651931,0.07789795105914747
5.5703125,1.1184185833988427,0.7469074316633275
5.57421875,1.373794904396694,-0.3369124741969052
5.578125,0.773453512071707,-0.5385152972334123
5.58203125,-0.3987450781942623,-0.31359470857484123
5.5859375,-0.4086387090284413,-0.017457551735475443
5.58984375,-1.427207848741819,1.842843311903572
5.59375,-1.3543694730317284,1.9873850330155098
5.59765625,0.28825432493715136,-0.32981077076299814
5.6015625,0.9518317458667028,1.200277692387679
5.60546875,0.2705142515963001,-0.31367991177560717
5.609375,0.4404748384344871,-0.6053022211805204
5.61328125,-0.44791030914151186,-1.075573898026464
5.6171875,0.6679671425823198,1.6960002671498
5.62109375,0.43007473008986025,-0.44337118651863144
5.625,1.5872780299390044,0.10769443870241498
5.62890625,0.8284933502698697,-0.7947820154124576
5.6328125,0.6453244816334186,-0.6851650649390705
5.63671875,0.11289866131001476,0.5034214540169037
5.640625,0.14796272773752095,-0.7242770591994828
5.64453125,0.7994985097814035,-0.6832174112534438
5.6484375,0.3528094679438741,1.8963316280517943
5.65234375,-0.3029777424005182,-1.8023380767338797
5.65625,-1.791955306476354,0.9693197295081083
5.66015625,-0.9793311801392468,-0.4527663484486502
5.6640625,1.5031928961121919,-0.44409642596422566
5.66796875,-0.4467431831355108,-0.4088731736281961
5.671875,-0.18953590793127836,-0.05916653639780404
5.67578125,0.40462304830531004,0.08457435930602825
5.6796875,-0.7124216432340946,-0.8889378492546558
5.68359375,0.3326722385915849,0.8114761309269924
5.6875,0.23064194142661484,0.15165892793126576
5.69140625,2.1970090074515998,-2.379341028399148
5.6953125,1.349832926944723,0.26103025586477785
5.69921875,-0.1688302000814513,0.42072196894725544
5.703125,-0.12307164146836774,0.471756398766863
5.70703125,-0.8171184871871279,-2.4304261984371776
5.7109375,2.470951724381408,-0.7452258053584281
5.71484375,0.7059822613814452,0.18804693807437176
5.71875,0.33697451702755105,2.010328252727174
5.72265625,1.2569311164581602,-0.24974385178013536
5.7265625,0.5586437583138135,0.8093343806493054
5.73046875,0.12286704633499718,-0.11001935110276502
5.734375,0.8452242421064786,0.992680627952313
5.73828125,-0.6775025856005571,1.403263851153274
5.7421875,0.22535942746530685,-1.5353569663810496
5.74609375,-0.766978395642328,-0.7645615963048785
5.75,0.1373918018163804,-1.571299219959857
5.75390625,-0.30639038068897956,0.9080791826989831
5.7578125,-0.49732841013356804,1.0648073026526128
5.76171875,-0.4827111394086159,1.0284236697519789
5.765625,0.5486229289871768,-0.7942612716456809
5.76953125,0.8223959624273279,-0.3941639557814646
5.7734375,1.0318295660664079,0.06675723318659829
5.77734375,-0.6685687856210767,-0.5536124974784747
5.78125,0.028714998185209412,-1.2642975742435305
5.78515625,1.5487841837768341,0.002237565746508726
5.7890625,2.0666675224493796,-1.8229037224826372
5.79296875,-2.293953891820149,-0.1523682935171825
5.796875,-0.10415741066530598,-1.0871194926996914
5.80078125,-0.4853760592046559,-2.9327845422308862
5.8046875,-0.5211696277270182,0.30571937410256217
5.80859375,0.7220425283489814,0.21186732478764253
5.8125,0.31032935563548447,-0.11539038154701213
5.81640625,-0.1023617384363711,1.1137497403803984
5.8203125,2.272977710303767,-0.9050658061187447
5.82421875,-2.3608993537201273,1.269210752858355
5.828125,0.07643717270223845,1.8194248790630039
5.83203125,0.9739424436932113,0.20174100167514553
5.8359375,-0.666728114977989,-0.8230379851463271
5.83984375,-0.3187200183407525,-0.2880696045631084
5.84375,0.3316463952029615,0.10399530151332353
5.84765625,-1.2925500236654712,-0.2123948159705694
5.8515625,-2.2897751342863355,0.5784207127479495
5.85546875,0.40085154172729565,-0.4447426647661939
5.859375,-1.6216828094501174,0.43547668023024827
5.86328125,-0.06748909770568996,0.2742098029014602
5.8671875,-0.30081031629386784,-0.046163010866274376
5.87109375,-0.7045943325548265,0.8536416904558332
5.875,-0.4814164364885655,-1.7354812755368614
5.87890625,-0.10792611486955771,0.6634162849811912
5.8828125,-0.11448603263384013,0.846838106687356
5.88671875,1.2511006754726393,-0.4636351103535414
5.890625,0.7480931030236533,-1.1690776824649003
5.89453125,-0.47117595123005046,-1.8329554851368106
5.8984375,-0.7873144004796317,-1.0876156636107168
5.90234375,0.3699719519155071,-0.6660961400799652
5.90625,0.31237554826519087,-0.5287864352086838
5.91015625,0.6395838376219977,0.7681605897329592
5.9140625,-0.2556859058662642,1.4673231609918616
5.91796875,1.9872474984776187,-1.1307787643875424
5.921875,0.6038322364011638,-0.9678611689197637
5.92578125,0.4638635330144796,-1.2432855150745161
5.9296875,2.179100646398795,0.30796108956665397
5.93359375,1.686912968993538,-0.14191970098306816
5.9375,-0.23876319935251333,-1.1653185220137001
5.94140625,-1.406693367531638,0.8974185646049468
5.9453125,-0.2397046842773907,0.27985905866785277
5.94921875,-0.4083357861115107,1.1476182387528158
5.953125,1.1757911894652004,-0.5902373273042651
5.95703125,-0.5585173682438075,0.7166687539699607
5.9609375,-0.5746571189861003,0.19623804658320096
5.96484375,0.4608745778707758,-1.1614286368670772
5.96875,-0.21616689228668093,-1.1851763196149694
5.97265625,-0.9310386181206293,0.47197887719001663
5.9765625,-0.7243964288241708,-1.1519591280416672
5.98046875,0.4401557921381365,0.5908023106409346
5.984375,-1.4783698684445024,-2.049366913413923
5.98828125,0.902666447655582,0.08134682559619599
5.9921875,-0.5643839594078086,2.3215707699782135
5.99609375,0.7707042941684605,-0.9970943901147284
6.0,1.5608450560720022,0.3019093912539035
6.00390625,-1.2693703335633402,-0.8941235275899745
6.0078125,-0.19414630094395913,-0.40145103561868706
6.01171875,-1.8270369800281259,0.12595009354262637
6.015625,-0.37019108951217633,-0.46810809079614235
6.01953125,1.3926390519173593,0.26270327137176436
6.0234375,-1.359687697727044,-0.6972067521537725
6.02734375,-0.009835636119233696,-0.40592631118142997
6.03125,-0.4682601523263273,-0.1856515770316226
6.03515625,1.9526200073013071,-0.3871361777501211
6.0390625,0.638850701642114,-0.13848980333945612
6.04296875,-0.029671597394897078,-1.4321497219484023
6.046875,-0.05863847300191173,1.4319205518176057
6.05078125,0.4028491134293874,2.0934956647684304
6.0546875,0.4018264274850134,-1.1674573865788145
6.05859375,0.9188051400070184,-1.673632246952278
6.0625,-0.7669658319172256,0.9677289272965619
6.06640625,1.4096838334190647,0.40955155909735985
6.0703125,-1.748216353355875,0.0314201075785677
6.07421875,-0.7917388146357077,-0.2303507419506391
6.078125,0.3334597075756665,-0.8763656301204102
6.08203125,1.2152659886626411,-0.1432337322053447
6.0859375,0.10173402961313016,-1.239223706711542
6.08984375,0.10635345917876274,-0.1587835446685207
6.09375,-0.23378066787204205,1.0256575585538157
6.09765625,0.2691711772669907,0.07223576893779148
6.1015625,0.30475688120977584,-0.9800807480810668
6.10546875,0.08904080958891873,-1.2285302517164192
6.109375,-0.5311835053888154,1.0460357286858506
6.11328125,-1.0743088930152536,-0.27208166511487214
6.1171875,-1.719580873978513,0.04221857723410439
6.12109375,-0.5870171770584105,0.18200760976782773
6.125,0.10611848381480211,0.7711511002064041
6.12890625,1.3726504173212053,-1.2201115670921268
6.1328125,1.502551482888936,-0.503371382471465
6.13671875,-0.5882413190330252,0.5797423126680743
6.140625,1.3375606473566735,0.6854060686911283
6.14453125,-0.2035884412300066,-1.1414177459225274
6.1484375,-0.6462606281469467,1.1804276908515778
6.15234375,-0.12440484314279797,0.4691728467935454
6.15625,0.2774055289652554,-1.2494401103495096
6.16015625,0.3059402998522084,1.9156798865478564
6.1640625,1.224034424016011,0.3597489503170179
6.16796875,1.1909326217478398,0.35447379484442054
6.171875,1.7329110771250689,0.07173237072085291
6.17578125,-0.49496638529131765,-0.770620399435828
6.1796875,-0.7438522356121328,-0.39318683740123206
6.18359375,1.1941692728118765,-1.1630320918086907
6.1875,0.297371462427236,0.48148933097695046
6.19140625,-0.31260372384379975,0.8769558782343596
6.1953125,-0.04654965529043381,0.7321637575259385
6.19921875,0.8963069800939009,-0.3947794432000784
6.203125,0.7836279585839587,0.39631522157781807
6.20703125,-0.22370172874359476,-0.4166940024509514
6.2109375,1.0300376373666118,0.5370353169235071
6.21484375,-0.13905645954737297,-0.27876694998840185
6.21875,-1.5017496722742585,-0.8087926518626827
6.22265625,-0.15513121391098916,0.016594039342238284
6.2265625,-1.8832986412998438,0.1617220609942991
6.23046875,0.2357336457807408,0.4535636239163891
6.234375,0.8142121994121575,-0.39395608739135995
6.23828125,-0.14070976327324777,-2.43437920773807
6.2421875,1.7387204522593798,0.988807943420794
6.24609375,0.10552162578506909,2.25590832288121
6.25,1.7172472008269744,0.4369193550357333
6.25390625,-0.8838729103686725,1.0170889885043444
6.2578125,0.7851376950850494,-1.2180602806513352
6.26171875,-0.24209645413862924,2.2080701000729137
6.265625,-0.6444615829001292,0.9833342000425164
6.26953125,1.0230152474533212,-2.0972850292589005
6.2734375,-0.5694181257626091,0.43170402823733484
6.27734375,0.09628582011679764,-0.629410174170649
6.28125,0.5900045569492611,2.1537419665072086
6.28515625,-0.4417633805185939,0.34516764051104926
6.2890625,0.14551817414697216,-0.09586176997654396
6.29296875,1.159783583904061,1.0505244144795762
6.296875,0.09603412398571413,-0.7759206342204913
6.30078125,0.8715596723766548,0.8174660421901416
6.3046875,0.8498395637037017,1.4647985064539926
6.30859375,0.9885442750323723,0.5451895712242472
6.3125,-0.540662983780865,-0.19615779411847659
6.31640625,-0.7739161551901611,0.683746792961585
6.3203125,1.449236810151184,-0.6909976516566757
6.32421875,0.6178318486131733,-0.7950472879687401
6.328125,0.8277635886280638,1.1079784021954902
6.33203125,0.1125475935439799,-1.3202786564424274
6.3359375,-0.09478871002724977,0.09453190022912361
6.33984375,0.41379827940427,-0.8819616220070188
6.34375,1.8813313467597903,0.8259973057584874
6.34765625,0.6794332002891098,1.2926511874309488
6.3515625,-1.6201107898566112,0.2825760425484106
6.35546875,-0.4145228091785012,0.8524915473149893
6.359375,0.3271423525390489,1.5575853097339438
6.36328125,-0.7447594475778014,-0.9578816716538096
6.3671875,0.48826797319836696,1.231524594248404
6.37109375,0.11525573938513689,1.211714530375563
6.375,-0.23002220911872195,0.733046221851666
6.37890625,-0.40188608076562593,0.10939526911545024
6.3828125,-0.0042468589785970515,-1.3420896055643807
6.38671875,0.608853514688268,-0.840414758755786
6.390625,-1.439737049915036,0.13963662941639962
6.39453125,0.2622023203285496,0.7432554455422331
6.3984375,1.4569654280055715,0.4501670464911271
6.40234375,1.4070283250464883,-2.692257343908816
6.40625,-0.36555641526921956,0.1583263604078199
6.41015625,-1.0553663475048387,0.10891507736581027
6.4140625,1.5180482459622637,0.9735991640400357
6.41796875,-1.119303418080458,-0.23994935451235927
6.421875,0.24400977106168795,0.0019171304577138334
6.42578125,0.7890073805815756,-1.1470620845467476
6.4296875,-0.2535314088824671,0.45341429700567715
6.43359375,-1.42627675302233,-1.2335870643025584
6.4375,-0.9095364433826048,-1.1612792657025444
6.44140625,0.17781486623775233,1.592983556417929
6.4453125,-0.871262601523612,0.593961924316821
6.44921875,0.8271022097582585,0.3604406216005365
6.453125,-1.1999159149759713,-0.39862544634243646
6.45703125,0.9215431431832604,2.010430849975379
6.4609375,0.9381988339212812,1.6080928477068734
6.46484375,-0.1545001536459601,0.039767855622355866
6.46875,0.38857873407008386,0.4533210723100635
6.47265625,-0.5973829338905122,2.352405752609666
6.4765625,-0.22572752216088796,0.904453643803051
6.48046875,-0.7870252039826119,0.8318186955260316
6.484375,-2.4084825602847593,-1.1872275170370583
6.48828125,0.26160201508258407,2.2920160013542104
6.4921875,0.7586580755365007,-1.5200843369563724
6.49609375,0.31145078014225225,0.0067095803563799895
6.5,0.03978880796805233,-0.19551469239329158
6.50390625,-0.6851600197734371,-0.006905112272318384
6.5078125,-1.1083687606422397,0.39368238578377396
6.51171875,-1.3381343131431882,-0.6981318701258162
6.515625,0.42706677218355765,0.5096465304660367
6.51953125,-0.003679318379902951,1.0507795149987607
6.5234375,0.12192431995239465,0.5264343418342879
6.52734375,-0.6690340506699883,1.0985851300154805
6.53125,-0.29250143809146184,0.44381172656491935
6.53515625,1.2470196365881034,0.202733282400522
6.5390625,0.26333105882277175,0.01569982683848699
6.54296875,-1.2971466958828393,-0.12129759202252019
6.546875,0.6253284390880299,0.12113583977750286
6.55078125,-1.986566735786927,0.27483825956990227
6.5546875,1.9009610945540891,0.37382077270426
6.55859375,-0.0914278741150974,-1.7987227147780256
6.5625,-0.21135107602804598,0.27479874034079177
6.56640625,0.6392729876476475,-0.11565034231750462
6.5703125,1.4097408570850982,-2.3327094556445775
6.57421875,0.530229484029061,-0.15313844190701156
6.578125,0.07701228986895618,-1.164855361462332
6.58203125,-0.11722648818576022,0.73261893647139
6.5859375,0.8657240125916676,-0.858525961442416
6.58984375,-0.7189558193056546,-0.330070966784344
6.59375,-1.3927669991843117,-0.7164562576641436
6.59765625,0.32615515949549007,0.8089527813680139
6.6015625,0.018708038919980633,-1.1724253388588277
6.60546875,-1.5112640032573124,-0.5856242869704011
6.609375,1.0550431404202274,-1.5842262174396344
6.61328125,1.2081442143927874,0.0009241846225736051
6.6171875,0.9978509059756672,0.6143717625868133
6.62109375,0.3191966481724055,1.0777675591973632
6.625,0.15799796521067253,0.2185577740708431
6.62890625,0.41988607988293775,-0.9501312554998952
6.6328125,-1.2275053513265652,1.6010704972791976
6.63671875,-1.7231872243115682,1.3764683450874489
6.640625,0.72374618779696,-0.23586315654549783
6.64453125,-1.0507629468474349,0.6814131883599434
6.6484375,1.6333420878568636,-0.5364595779492951
6.65234375,0.8914360325221614,0.49104182038408795
6.65625,-2.1551072991861346,1.4327476024935175
6.66015625,1.4468014828746583,0.6846947537508442
6.6640625,1.7079237948555788,-0.6988554508425375
6.66796875,-0.5187588009425183,0.22211432321894178
6.671875,-0.46002794097385036,1.2049371203357557
6.67578125,-2.4809583334309724,1.0496278582052907
6.6796875,1.2097482586042976,0.2152578845689435
6.68359375,-0.4959169068869949,0.30395694180151506
6.6875,2.121718015699681,1.0865139493275597
6.69140625,-0.4794932399836515,-1.0775577970149464
6.6953125,0.9030404515279281,0.5798840730042805
6.69921875,0.10256319549333398,-1.0444483282275583
6.703125,0.9356153313982144,0.18116176512524693
6.70703125,0.2799224291421422,-0.7831765422661074
6.7109375,-0.025846861408439014,-0.668159047212341
6.71484375,-1.6806155077736198,-0.49558215977441056
6.71875,-1.3844119630318847,-2.4585769825504094
6.72265625,-0.024133648623876562,1.1617160773589228
6.7265625,0.055522220858247436,-0.16674743598749212
6.73046875,0.7532117734076478,0.6083202316480887
6.734375,-1.4222286690134185,0.8318544654495112
6.73828125,0.24556751210313396,-0.4945220562568765
6.7421875,0.05673084682503012,0.2490280615659945
6.74609375,1.7904110817812091,-2.8627635141788783
6.75,-1.9004449130529188,2.053932360788816
6.75390625,-0.007046503934404313,-1.1822239050587784
6.7578125,1.57709156630661,1.4078898399059563
6.76171875,-0.32599288670070636,1.1861006548849211
6.765625,-0.8738788042534381,-1.2809478876510068
6.76953125,-1.482958271178737,-0.4370318717927206
6.7734375,0.17595061330323847,-0.49817778346234204
6.77734375,0.8109783943039017,-0.9216875514627928
6.78125,0.593838680939356,-1.5579823889667557
6.78515625,0.1773958653191484,-1.806366864722952
6.7890625,-1.686047120822965,0.058029342211522006
6.79296875,0.2451674951792474,0.08046087494526498
6.796875,-0.561159199378912,0.03529999250242668
6.80078125,1.217341265237017,1.6316675364223954
6.8046875,0.5250031324215221,-0.393637746285915
6.80859375,1.243026344432424,-0.5566192680806228
6.8125,1.0950867472208603,-1.0046937765835773
6.81640625,-0.13879213512482916,0.5056035026080892
6.8203125,0.971393835031993,-0.0917413578632465
6.82421875,-0.7820562111117886,-1.6057876940715898
6.828125,0.22263822379124587,0.3612009333132118
6.83203125,1.1059333051265516,-1.2556225192921509
6.8359375,0.053792658834734684,0.3587822938311932
6.83984375,0.4756750921566615,0.7633134095508827
6.84375,0.5480075646463357,-1.2220162125262877
6.84765625,-0.0017463186273463573,1.782974772494986
6.8515625,0.8371897716637136,-1.5855560621211497
6.85546875,0.6122240833599728,-0.0596615030725466
6.859375,0.41051141424755283,0.16404468197673566
6.86328125,0.9082801733831037,-1.6015141020784016
6.8671875,0.577299168102561,0.4538979574846879
6.87109375,-1.755303927534211,-0.6583537539316731
6.875,1.4868570093879312,-0.3428815270551859
6.87890625,-0.5127949468620885,0.914999644082703
6.8828125,-2.0847885366640604,-1.5477380971646924
6.88671875,-0.800798186673998,0.874180480741686
6.890625,-0.33418663839129376,0.548203937543792
6.89453125,0.08800986738999428,-0.5243193962272997
6.8984375,0.5846947097967718,-1.5970919840565867
6.90234375,0.4097469863111749,0.11912199235265127
6.90625,0.1841534423712167,1.0254821594771786
6.91015625,-0.2920957213003517,-2.083084304895878
6.9140625,-0.2129934414098395,1.730547464829895
6.91796875,0.20690351752417557,0.14167580121248685
6.921875,0.24469211381047817,0.5094352630767424
6.92578125,-0.32181878418492654,0.7938598012991039
6.9296875,0.07540436134990716,-0.4684359356117716
6.93359375,-0.0853940224973516,-0.8094400900587014
6.9375,-0.5062995407030301,-0.7685443263008828
6.94140625,0.21141243687950317,2.243667933576362
6.9453125,1.0263859594517193,-1.4376617747145504
6.94921875,-2.026807366803922,1.4838776294242488
6.953125,0.02440184519887272,-0.4191137682678125
6.95703125,-0.3580683879609187,-2.6261513661641422
6.9609375,0.02229930385505944,-0.7749672468827721
6.96484375,1.0847759753599249,0.8821710023822631
6.96875,-0.10901026730897179,0.3093729266446887
6.97265625,-0.5612789955241142,-1.5829016610165907
6.9765625,-1.5638473997627447,2.35103273170335
6.98046875,0.8542368611032605,-2.2277824265889827
6.984375,1.3055755465408532,1.4952727276063569
6.98828125,1.3319522838739517,0.2496509621679196
6.9921875,0.6885319035903995,-1.1633486983483041
6.99609375,1.2991626441944741,-0.4162839300767163
7.0,0.33579870496954967,-1.1931723076149854
7.00390625,1.0074456963874263,1.3044352240243724
7.0078125,1.412458305144088,0.10299217639199122
7.01171875,0.0064250019063955425,0.9372685106738345
7.015625,0.02602600520923306,1.5733312044040275
7.01953125,-1.6199803301819606,1.3673260926534523
7.0234375,-0.6816589998869501,-1.985733751124539
7.02734375,-1.3711442586137421,0.1174755597179105
7.03125,-0.7578989544888086,0.8723595755777922
7.03515625,0.2036247454672534,0.07824044677697399
7.0390625,-1.7389667044948187,1.184897528898581
7.04296875,1.3645422786811663,0.1436258978291382
7.046875,0.7128598452691868,-0.9025499508212373
7.05078125,0.9622205797099768,0.6062048424154557
7.0546875,-0.25168542726969434,-1.2903707993058735
7.05859375,1.2417136766625783,-0.24359748262206377
7.0625,-0.4731943463492762,1.3568764701450173
7.06640625,0.3430411701658697,-0.8511594639863743
7.0703125,0.6595054110962383,0.8125717214240622
7.07421875,-0.39407388533627674,-1.0361900431259143
7.078125,0.1340551444526657,-0.3602162009183332
7.08203125,-1.470754834269965,1.3298562662902136
7.0859375,-0.27875258047414186,-0.3478485153637164
7.08984375,-1.7355361645643368,1.97335941351753
7.09375,2.439206852507551,-0.14062559859326518
7.09765625,-0.23218220673005938,-0.8053484500974408
7.1015625,0.9990712126524389,-0.32380513184759696
7.10546875,0.09212081746497079,-0.0019638264737301125
7.109375,0.17954586777976186,0.8105562018949231
7.11328125,0.08592719225065835,-1.4046489272234792
7.1171875,0.3910633613538562,0.409421144651181
7.12109375,-0.7763695201383796,-0.8646921911510825
7.125,1.1038685887294364,0.44678055068781775
7.12890625,-0.5620050937161062,-1.006303787771862
7.1328125,-0.7013296657833693,-0.5425434654424155
7.13671875,0.357505595894788,-1.203899877837355
7.140625,0.6713156135498761,0.42767576180346684
7.14453125,-0.45152929491893445,0.7757396130572288
7.1484375,0.35597089363862316,-0.23795448007912173
7.15234375,-2.966720615899383,1.3118090028594576
7.15625,1.3610045209201225,1.1525540271997785
7.16015625,1.3169640218414047,0.10532649189963847
7.1640625,0.4034457430761457,0.9554702251897018
7.16796875,0.9577016088328084,0.5334509541805891
7.171875,0.051271171370862956,-0.5405838057329315
7.17578125,1.5874963003448361,0.6333960442459466
7.1796875,2.5376329974213507,-0.4145797844549019
7.18359375,-0.1503600898353087,1.1384997851321892
7.1875,-0.7111915147516368,1.471582899438852
7.19140625,-1.7683394973737403,1.942783997669016
7.1953125,-0.24759873375028305,-0.17250904269958806
7.19921875,0.1326682106815829,1.2218412244104693
7.203125,0.9333322549774167,-0.19343818234105764
7.20703125,-0.2710366257777777,0.2784743842398607
7.2109375,-0.6409302743322064,0.46212922208512974
7.21484375,-0.46983516446972323,0.5075625437812589
7.21875,-1.511090849183462,0.4817348251227819
7.22265625,-0.23772425009652323,-0.16180264527779234
7.2265625,-0.5981034670234221,-0.32894863400821395
7.23046875,0.5870133174531047,0.2183460136952977
7.234375,0.6325878400298146,-0.30762926059318796
7.23828125,-1.203014204651071,-0.027807691100561062
7.2421875,-0.8525652177033398,0.5781895971907071
7.24609375,1.754261736368566,1.5943267731573751
7.25,0.10846198765589458,1.5783612683318435
7.25390625,0.07636026947170593,-1.6072073762719172
7.2578125,-0.3340233682391403,0.29115864312851286
7.26171875,0.16013055325440007,0.6399816380959429
7.265625,0.34854819909744394,0.5583516860376524
7.26953125,1.092504035768839,-0.4869015777085727
7.2734375,-0.6958649291210107,0.06963275171628025
7.27734375,0.8196936984527252,-1.8447909223459242
7.28125,0.9129770059514379,-0.4344202547372432
7.28515625,-0.43211332024798804,1.1979476628852108
7.2890625,1.8833715334999608,0.100336629409579
7.29296875,-0.164442411297435,-0.2498124701948702
7.296875,-1.0070285932562542,-1.153493127811157
7.30078125,-1.8493078585761367,-1.4891032563546858
7.3046875,-1.2358773104294862,-0.6036242050368121
7.30859375,0.21467160625650789,-0.6975639232341514
7.3125,0.3658219886398989,-2.7884790049434303
7.31640625,-1.2313426475844045,0.44109415681474634
7.3203125,0.9579236955510565,0.5742884468923205
7.32421875,-0.5769253149900241,0.02523104803238012
7.328125,2.673162634199628,-0.17820617239579215
7.33203125,0.14825675882051426,0.9440333939228085
7.3359375,-1.0731142649304377,0.6357512222697269
7.33984375,0.3680159509335235,-0.24175125829218064
7.34375,-0.5516757246643813,1.5730180942342635
7.34765625,0.4074580725231262,-0.7262455138464186
7.3515625,-0.10272550506512597,-0.4873319871334355
7.35546875,-1.8713020190299534,-0.33053275615003314
7.359375,-0.3458521893910329,0.6154205296877983
7.36328125,-0.7040380878484548,2.7214712541557353
7.3671875,1.5458390082164186,0.39302860267423423
7.37109375,-0.9383119090810141,-0.9095719385144025
7.375,0.7414435581424058,-0.7468040271014427
7.37890625,-0.9152213482779022,0.1990453294842832
7.3828125,1.2474048662627775,-0.6594017834026196
7.38671875,-1.0836969599062887,-0.17073783189070432
7.390625,-0.3343626689967653,-0.9836530033044827
7.39453125,-0.2713873946858771,-1.0869689542792174
7.3984375,0.24125593320173006,0.5650509670291295
7.40234375,-0.7167162796290494,-0.10685932306327031
7.40625,-0.5960079584806228,0.5155529926200342
7.41015625,0.39085957438107305,-1.4273720448060119
7.4140625,0.18502054761125164,0.4475116388394671
7.41796875,-0.895832747420156,1.0797265467423285
7.421875,-0.3528177217206458,-1.0910571481742146
7.42578125,-0.7032176025853909,-0.7106202973335353
7.4296875,0.3125116658430176,1.1423664886786957
7.43359375,2.0343705646466663,-0.5811453182495806
7.4375,1.1130217746052586,0.07439046149270284
7.44140625,1.0387671912560168,-1.3366100122879276
7.4453125,0.7578549556742225,-1.3413517275642233
7.44921875,-0.4700663652023925,0.72199670473232
7.453125,-0.10402518662474174,-1.9665317657672925
7.45703125,-0.27044905640358,-1.1541996979763942
7.4609375,0.823151623600585,3.1809841272409725
7.46484375,-0.02096541921816916,-0.06720203969932433
7.46875,0.3061616046253205,0.14220422034098812
7.47265625,-0.9083335068842229,-0.5515530087142351
7.4765625,-0.02213772513379065,1.82171396759423
7.48046875,0.24733432965846655,0.32230803046314366
7.484375,-0.23684354709476738,0.43142525701150475
7.48828125,-2.895273835704145,0.2172426953396318
7.4921875,-0.6236521990213947,0.44200919347866185
7.49609375,0.006547000738025867,-0.39841885777738045
7.5,0.30718408914907724,-0.990647720242239
7.50390625,-0.13238576977681482,0.04735488093063145
7.5078125,-1.051959503894247,-0.3668825690846075
7.51171875,0.8416135528003776,0.21152877606105416
7.515625,0.35856864188204113,-0.13805075676939227
7.51953125,-1.5736034212684527,0.11347495427363152
7.5234375,-0.1968252406049439,-0.4823329138729491
7.52734375,0.9687750019641346,-0.024948729220678287
7.53125,1.3565116979181286,-1.2326479256821194
7.53515625,0.5563015706009004,1.4726574989522272
7.5390625,-0.5228515753746159,0.37101200600167134
7.54296875,2.975241881435609,-0.5437061794933413
7.546875,-2.1107967152591565,1.2569023176191265
7.55078125,-0.9328833189082257,-2.0884859745194513
7.5546875,0.3534312570741363,-0.4154518176890665
7.55859375,1.2573345282944324,-0.21014093113456223
7.5625,1.8355647487604256,0.4567676625307507
7.56640625,-1.8522563976675819,0.054103026344428234
7.5703125,-1.2428220602447677,-2.168830977368395
7.57421875,-0.8349225896153085,0.9608469766636811
7.578125,0.7388513449535675,-2.40997116959701
7.58203125,1.9986044550571374,1.361255861419232
7.5859375,0.14897123920681196,0.24519502099396306
7.58984375,1.9437512676621573,-1.2260414474734924
7.59375,-0.17343184597097464,-0.13798059424747966
7.59765625,0.3085024337934463,-1.35592429091005
7.6015625,0.18918179598775772,0.5904491862330857
7.60546875,-0.5273331895513275,0.7911373552888693
7.609375,1.425195310158261,-0.5191072530998928
7.61328125,0.2771983616926689,0.023699609257387594
7.6171875,0.09975504234045973,-0.32914869164542626
7.62109375,-0.3910154610706207,0.2779481052222397
7.625,-2.200601976598697,-1.824587405628491
7.62890625,-2.3466599346915746,0.09466830349789188
7.6328125,1.4484427226187222,0.3112775466803277
7.63671875,0.8955717288853471,-0.3345450411691735
7.640625,1.044633045409649,-0.08427880402451725
7.64453125,-0.3678400007380006,1.940900047181545
7.6484375,-0.2299571201757841,0.7217251449252584
7.65234375,-1.0236352980671362,-0.18820771650175083
7.65625,-0.1872855748783742,-1.3084435668112981
7.66015625,0.431186536760889,0.2620870716079743
7.6640625,-1.6673770928783527,0.3706275010312886
7.66796875,-0.8922190859536342,0.011963032231322881
7.671875,0.2261069703282527,0.37314019177467705
7.67578125,-0.08177155448606743,0.9364273080808425
7.6796875,0.4133098851596521,-1.3433350508253992
7.68359375,-1.2891166573678228,1.59153673872413
7.6875,-0.3109741488423293,-1.5624743942021504
7.69140625,-0.6763575256974474,0.29433770047214797
7.6953125,1.4798158533225871,0.4209666711134159
7.69921875,-1.7963441074318127,-2.7311269078849203
7.703125,-1.0586430779152862,-1.0375360083365814
7.70703125,0.6366923748429635,1.5649111934543942
7.7109375,-1.0840182405399894,1.2253939617755367
7.71484375,0.7479546468955038,0.5362451621158625
7.71875,-0.16984330186442162,-0.009818725792828784
7.72265625,1.7945969579766734,1.3712416616204606
7.7265625,-0.5886451090692131,0.4908392794220557
7.73046875,1.357178688398473,-0.05997983595780219
7.734375,0.5791008441066133,-0.9882515671080082
7.73828125,-0.3142761655780892,0.9200821922185312
7.7421875,-0.5349234652317512,3.0835269578611135
7.74609375,0.668924997241283,0.3222366792612458
7.75,-0.23266648479662036,0.7720128704917949
7.75390625,-0.14592958892886854,0.4516703303955046
7.7578125,0.35023161459503,0.03254821630697
7.76171875,-1.2339762849486064,0.9584862209298936
7.765625,0.25306835612332235,-0.47336807849575374
7.76953125,-0.8393357646429874,-0.2934292744037219
7.7734375,-0.19780718521818139,-1.4975839070827173
7.77734375,0.4008136188279621,-0.3096311811340082
7.78125,-2.0291909607069147,-0.052775410333290335
7.78515625,0.5014980597131641,-0.9095577661166467
7.7890625,0.15279204453900144,-0.8583265210998693
7.79296875,-0.1508623826921708,-0.5207167046767914
7.796875,0.16707499726561115,0.9245740737945105
7.80078125,0.9720634668277423,-0.3127363277375268
7.8046875,1.371529142841649,-0.9467903112860531
7.80859375,-1.4044744416620623,-0.915992135054391
7.8125,0.4709776188479504,1.7323406787453406
7.81640625,0.8746211178547418,0.7774089018024892
7.8203125,-0.2766002649327242,-0.4379802082373542
7.82421875,-0.856115571723452,-0.20347495707829372
7.828125,0.5457505959491699,-0.3384187625896783
7.83203125,0.5114474846080632,-0.24674506073632047
7.8359375,-0.2903512680258607,-1.693912213804362
7.83984375,0.23368042062336053,-0.8195594989380605
7.84375,-0.37570978222237394,-1.0438449390645574
7.84765625,1.346197578742207,-0.34930231332402517
7.8515625,1.0017530246089994,0.04394291610800939
7.85546875,-1.964024496386698,0.28159509072380945
7.859375,0.517948502043267,0.15765443938649046
7.86328125,0.124493751995205,0.64946690850102
7.8671875,-0.577826862622681,0.14137211204100172
7.87109375,-0.8763826187981655,-0.42390213040892954
7.875,-0.04585527135510806,-2.386749125627344
7.87890625,-0.04021939422222695,-0.6467054965653457
7.8828125,-1.3551398224714357,1.5580547913439686
7.88671875,0.030818118924552686,-2.453926900303824
7.890625,-0.0895285669972132,-0.656638198814996
7.89453125,-0.5620456836923774,-0.5275206374716882
7.8984375,-0.16124182893170377,0.36654316114776725
7.90234375,-0.6493941337798474,1.3807817951027577
7.90625,-0.4323986667752014,2.261230639707687
7.91015625,-0.3793955073689372,0.303151479783081
7.9140625,-1.2319313190168177,0.373560612791179
7.91796875,-0.32961578112793194,-0.27017068828982804
7.921875,0.8369266949579407,1.1592168834924708
7.92578125,-0.462717860858284,0.19649101707614805
7.9296875,-0.4790029583668184,0.3320371392981464
7.93359375,0.3355419616352491,0.7493944093843399
7.9375,0.6590172072435452,1.4647697858066753
7.94140625,0.48244604854324935,0.15745461496539362
7.9453125,0.21822385002306657,-1.5544660595434847
7.94921875,0.27692974802721476,-0.8929410785458486
7.953125,-0.6672993524959577,-1.327200220686435
7.95703125,-1.2459191570911488,-0.7548360819081468
7.9609375,1.2595099991395833,-1.775130668089092
7.96484375,-0.5575904651643293,-1.7971023230674288
7.96875,-0.6795497506917965,-0.3095817623056509
7.97265625,-0.8364764143487446,0.3726718473218285
7.9765625,0.2974684570859875,-0.00364033536060357
7.98046875,0.30631213621659337,0.015623780786131634
7.984375,0.16265796256395548,-0.007890493241949499
7.98828125,2.348239674546425,1.1304473243587898
7.9921875,0.035440188384291554,-1.1681189473675193
7.99609375,0.22457362943564205,-1.0307646356961837
8.0,-0.7078167204248536,0.27382281710663914
8.00390625,-1.0230948650301963,-0.3442496677253185
8.0078125,-1.080377974812895,-1.7271748043666781
8.01171875,0.9704180194238486,0.34617197743015016
8.015625,1.2327884415563812,0.9333659554234747
8.01953125,0.20802618476105586,0.5932452374614148
8.0234375,-1.0840111893287858,0.05095395246957214
8.02734375,1.1376222870522654,1.693409126724909
8.03125,-0.7264846254559908,0.7962242584999105
8.03515625,-1.2447145724658508,1.1066816322222686
8.0390625,-0.37096270524152736,-0.5646015550297793
8.04296875,0.7446177463211483,1.0491045956854435
8.046875,0.8815361337777476,-0.40782059834168305
8.05078125,1.1449719895655641,-0.5425993559917061
8.0546875,-0.3306710923099106,-0.9903326392163764
8.05859375,-0.40656265412413656,0.2754100103479871
8.0625,0.6300578443118707,1.1668675458309463
8.06640625,1.8161577117503347,-0.15833309825382816
8.0703125,-1.7351135658727983,-0.396254349573984
8.07421875,-0.3244508837085579,0.9303839322779643
8.078125,-2.0445673214953977,-0.3779926387478916
8.08203125,0.07297923198742491,1.2195930087427405
8.0859375,2.1918465448197346,0.12014369518154838
8.08984375,1.1896436356956257,-0.2131944433788946
8.09375,0.4556359307739566,1.8701883078585733
8.09765625,-1.791293628345643,-0.5506053256772241
8.1015625,1.7286247512025168,0.3987312242451966
8.10546875,0.4173691209603509,-1.2034175334578396
8.109375,-0.7726874848758576,-0.13380199700412293
8.11328125,-1.2014225602896706,-0.4143790884125661
8.1171875,1.2785887203057151,-0.6952136901641467
8.12109375,0.1858317240320311,-0.542976127111285
8.125,-0.7092035057567952,-0.03996420948468621
8.12890625,-1.0554074787626233,0.1098744182570407
8.1328125,-0.6740980707235795,1.2322036229950808
8.13671875,-1.6489439780808859,-0.8035294875264177
8.140625,-0.04532109776295807,-0.05221347540724986
8.14453125,-3.1722176008094873,1.7147782025426919
8.1484375,-0.9400581771783398,1.2201141234325164
8.15234375,-0.9959071893177097,-0.22268806101395522
8.15625,-0.6283691990308383,-1.8060157527619496
8.16015625,-1.1705414557814464,1.9410541428626276
8.1640625,-1.0815715654151479,1.116851924324309
8.16796875,1.0138133398819893,-0.4282826476613978
8.171875,-0.35921878147814773,-1.4136051843441269
8.17578125,-1.4638571556830522,0.5965883116903685
8.1796875,1.8230664475359146,-2.38747820660158
8.18359375,-0.9185207519608897,1.3707866936241104
8.1875,1.3401040623162443,-0.003309509132333119
8.19140625,-0.06516810701815484,-0.34497836051546577
8.1953125,-0.81609412542845,-0.3844263743471115
8.19921875,1.1712957194810925,0.885569030811926
8.203125,0.11602090015541325,1.1367442153038183
8.20703125,-0.5661651658536011,-0.17579226247172122
8.2109375,-1.260199159550513,-0.534175902710592
8.21484375,0.2774773936724691,0.8248587954694927
8.21875,0.1722879085592687,0.029189251225539923
8.22265625,1.435223348059116,-1.1118956342269193
8.2265625,0.23321630934421372,1.1778794718582244
8.23046875,0.8778609415671509,0.7974398457241559
8.234375,-0.1996552155010811,1.054255110269988
8.23828125,0.7984490568896743,-1.0982619365048243
8.2421875,-2.928557503438219,-1.1207423512870784
8.24609375,-0.3148026566428365,-1.8288854511888628
8.25,-0.27112327327987007,-0.9016768632653708
8.25390625,1.514911221103496,-1.8757578838305538
8.2578125,1.2501711852638389,-2.1807670899193603
8.26171875,-0.7733234892274742,-0.30827397641396603
8.265625,-0.5541524280484177,-0.3132828769352454
8.26953125,-1.8491502199528889,-0.052096869680947774
8.2734375,-1.159659595466649,0.3312520801210801
8.27734375,0.7677233987809041,-0.2875505816303962
8.28125,-2.3038504518665497,0.6680267176978945
8.28515625,1.3564805350051121,-0.6704868447288939
8.2890625,0.6844107720835341,-0.46663735261003875
8.29296875,-2.5901088659418225,0.11572820435009593
8.296875,1.4222947671189436,0.7050133054989102
8.30078125,0.691233504063216,0.24734459865159916
8.3046875,0.2641956567227989,1.1407588641727349
8.30859375,-1.31969046655635,0.8992032514850444
8.3125,-0.11707268109631082,1.3607444505531552
8.31640625,-0.8880390644537485,1.2595569984801058
8.3203125,-0.5788498364718948,0.21595682145455794
8.32421875,-0.028028259752933524,-2.228792828214619
8.328125,0.819841951719964,-1.536689993589951
8.33203125,1.331681256125984,-0.047442645529378956
8.3359375,1.4408981105554317,0.5490782990332228
8.33984375,0.014269468902877783,0.92170101764081
8.34375,0.6213773147452435,-0.022587528212183756
8.34765625,-1.189873450009869,-0.28117981040250445
8.3515625,-0.929356901404739,0.36437569933159186
8.35546875,-1.5440824070691443,0.08102028413410281
8.359375,-0.17378898648608992,-0.417435527081649
8.36328125,-0.4083306766474215,-0.17951157694530315
8.3671875,0.8542095476139003,-0.23350410815033348
8.37109375,-1.3288145119866999,1.9316174375539328
8.375,-0.007837907886015414,0.6654526798157635
8.37890625,1.3063319078621851,1.6683991024383755
8.3828125,-1.4623641970356964,1.42032719391735
8.38671875,0.20301654392196639,2.393931598454372
8.390625,-0.40199215682606165,1.310723836643318
8.39453125,-0.5463094625655116,0.8324420179191269
8.3984375,0.4866003442311582,-1.3011732751835232
8.40234375,0.3253439956086022,-0.17351585400904487
8.40625,-1.1151950801796244,-0.40645585264268275
8.41015625,-1.416403916281399,-1.4903522752573544
8.4140625,-1.3560141046271845,0.552721326220014
8.41796875,-0.16999119074670133,0.00023415496619878575
8.421875,1.8620967885102677,-0.14786883819619076
8.42578125,2.302244226002573,-0.3744120161345587
8.4296875,-2.966827042294045,1.512165048097827
8.43359375,0.6348936760024718,-1.4668849351463646
8.4375,-0.785010551663826,0.9169177545684701
8.44140625,-1.0870561140946484,-1.3789494985131514
8.4453125,-0.5449448257662788,-0.8574863706589915
8.44921875,-1.4262703117402835,0.0461916779593396
8.453125,-0.5915880854220634,-0.7047029390923613
8.45703125,0.7475264979753082,-1.723994339061545
8.4609375,-1.1524717672974316,1.2646991512801253
8.46484375,-0.1451865150877266,-0.2807050308438842
8.46875,0.7375309699968501,-0.6332870810240493
8.47265625,0.6257380342599883,2.0283444269642854
8.4765625,-0.08629158308793448,0.5384209913282091
8.48046875,0.9465662273558402,1.118745682915116
8.484375,-0.12298725869682309,-0.6839529134833883
8.48828125,0.6395610269730808,-0.04871872008706007
8.4921875,0.03591424819555113,-1.3930430928176962
8.49609375,-0.2831735624233495,-2.6442230916241427
8.5,-1.673187913288699,-0.6228732615896633
8.50390625,-1.1807693788262035,1.4764290058038358
8.5078125,-0.35061110242931437,-1.087214140259753
8.51171875,0.7153484974135319,-1.0048372184737968
8.515625,-0.22399892414881634,0.9198121140099931
8.51953125,-0.8878216664580824,0.06927953856839376
8.5234375,0.27082912654086705,0.41735186540420655
8.52734375,0.23483447958109102,-0.664842070580857
8.53125,0.694562437159835,1.48257351114403
8.53515625,0.6455015140648745,1.511942165354305
8.5390625,1.1137821732699549,0.24823782432873043
8.54296875,-1.4028353373789346,1.0366673991296904
8.546875,-0.1975856024396904,-0.7265897838397982
8.55078125,-0.15368790971435964,-0.032818679370301224
8.5546875,2.4420844907384405,-0.4902288355761853
8.55859375,-0.09954049877989049,2.402057717151816
8.5625,0.15755972581160715,-0.16741948749915478
8.56640625,-0.3371730870851813,1.1242817739681352
8.5703125,-0.6694970785043659,-0.5021123723072648
8.57421875,-2.0901429950023553,1.106109989637063
8.578125,0.7542530515118832,0.18902983326364386
8.58203125,0.8249565119852502,0.1754556032579156
8.5859375,-0.24403051093998793,1.471572551215796
8.58984375,0.45324203459273854,-1.7779854332434009
8.59375,0.6343926287343122,1.7280355498895974
8.59765625,1.803950264305379,-0.17095416917858053
8.6015625,-0.6506032867822644,0.7927254290091656
8.60546875,-0.44110602083199946,-1.1269660083628532
8.609375,-1.143823835515215,-0.36844382703844586
8.61328125,0.30465308970285887,0.40012270938832023
8.6171875,-0.28542901191607045,1.4052620765083033
8.62109375,0.30087603600425616,-0.9644884532456386
8.625,0.43450356528961087,-0.2596958730873776
8.62890625,1.1604208699020062,0.5008501570606498
8.6328125,-0.12113944522589988,1.4981636601048391
8.63671875,1.241246464675362,-0.39444187227477845
8.640625,1.2769171579376348,1.9683951878076194
8.64453125,-0.15645369737748668,-1.8430197824352583
8.6484375,0.701020384239161,0.002971527189610769
8.65234375,-2.4620663280964834,0.6449025396880504
8.65625,-1.5491369430283646,1.5488812301943844
8.66015625,0.5349410952763562,1.129427037988255
8.6640625,0.11917374017103219,-2.8641443777122615
8.66796875,-0.48308099237772895,-0.21120914047795075
8.671875,-1.599322536840583,-1.2354025299823486
8.67578125,0.09244770987270984,-0.06708476993963262
8.6796875,0.5325641486257499,-1.2967215664368745
8.68359375,-1.7227536677619952,0.30124542126399895
8.6875,-1.1620201083431454,-0.23976686593128585
8.69140625,0.6438955900236285,0.35932158074488163
8.6953125,0.38524027501817343,1.1581159888451205
8.69921875,0.33676722495627137,2.830899969935837
8.703125,-1.5892368491030444,0.5717599002061496
8.70703125,1.2059761371777318,-1.9819484719145957
8.7109375,0.5694598327201282,1.178368145586401
8.71484375,0.5539799998919782,0.12947731117392192
8.71875,0.3691430789600544,-0.6043228274706446
8.72265625,1.4880078308629494,-0.6467546127959258
8.7265625,-0.031870806233658726,-0.7979333600100251
8.73046875,0.5155250886396173,0.9843605599268562
8.734375,0.7874178667666912,-0.209809659224774
8.73828125,-0.11475121147766812,-1.4028158430364117
8.7421875,-1.8227238939299155,-1.2851557939794596
8.74609375,-2.0368368216211588,-0.8615126989594099
8.75,0.31648292060704974,0.6780985241189816
8.75390625,-0.6124008605640052,-0.03876759673337499
8.7578125,-1.4383132387572921,-0.6245238173086936
8.76171875,-1.4126006396011355,1.4024814613688252
8.765625,-1.1049306477373455,0.4536442054976669
8.76953125,-0.6593234438043538,-0.7982220774531621
8.7734375,0.4177208668974314,0.8547122187801647
8.77734375,0.039133789305055136,0.3318766135084304
8.78125,0.5159279487885349,0.16384737519334697
8.78515625,0.1729655676668035,1.0669389116144787
8.7890625,0.6545839007805984,0.40109390953464524
8.79296875,-0.9771029259559932,0.07789273530372869
8.796875,0.03545396312863949,1.5427880119191901
8.80078125,0.4754563376040894,-0.7563327704695935
8.8046875,0.946129946128448,0.43470554684613627
8.80859375,-1.590261601507809,0.7293062866378943
8.8125,0.40087981334740974,1.2895381611516694
8.81640625,-0.2010622178859831,0.6489815054945658
8.8203125,-1.2558748907285961,-1.4383216851490177
8.82421875,1.5993103763935972,0.7508643653738825
8.828125,1.2695335613962602,-1.1073485402453487
8.83203125,0.23938350302088302,0.17678276709679577
8.8359375,-0.08119863751632549,0.47830887255052695
8.83984375,-0.3175909008267685,0.4454584739073441
8.84375,-0.5821133669155486,-0.3022475003266858
8.84765625,-0.08416212643216522,-1.8143874368514556
8.8515625,-1.8162676526342123,0.6996994898118015
8.85546875,-1.4585382390720212,0.029487519076265182
8.859375,1.3952373571623395,1.0236716918715147
8.86328125,-0.4502772520494745,-0.8562394920693057
8.8671875,0.8239476359997079,1.0565529500585193
8.87109375,0.5061551452329337,1.020075692617045
8.875,-1.4405282941589381,-0.814588903986585
8.87890625,1.2553855902783773,-1.324943539640897
8.8828125,-1.0189804664302704,0.2274710304783432
8.88671875,0.002638500201588514,1.269632954777779
8.890625,2.212833020009259,0.4048562549763
8.89453125,0.5995971631425516,-0.8572710775514881
8.8984375,0.652122694561716,0.7575260763980367
8.90234375,-0.8044794442176241,0.1049145195761118
8.90625,-0.3067002347661728,0.5097093717510068
8.91015625,1.1742270178158345,2.5570987266869323
8.9140625,-0.4537901293047325,1.2760581236182487
8.91796875,0.9652732779093555,1.0755071835621575
8.921875,-0.11937193694886325,-1.51737225046545
8.92578125,-1.8756922768656539,1.205668296978367
8.9296875,-0.42154996660435157,1.4562283910671086
8.93359375,0.41357247076654885,2.86285017184313
8.9375,1.497430683995358,0.7398352682538815
8.94140625,-0.9308054103329865,-0.3381172374648975
8.9453125,-0.1504289429656858,-0.42480528870186635
8.94921875,-0.5414909845585155,-1.2684805327826794
8.953125,0.4959863028333341,-0.8176360237925103
8.95703125,-1.864686922173008,-0.918381238934772
8.9609375,0.8240521537310509,-0.6705936642676877
8.96484375,-1.2860646433839762,1.4773545328913147
8.96875,-0.7310042002033154,0.38082766507968246
8.97265625,1.3572601581930417,1.186390252383052
8.9765625,0.2773191208973772,1.6732865343613437
8.98046875,0.12615993213801585,-1.2244376357599334
8.984375,-1.4782864548849617,2.1053753832909012
8.98828125,-0.5012161940130634,-1.3175245916595724
8.9921875,1.3175093180152035,0.3232473362249281
8.99609375,-1.1853611980131933,1.0741689416527398
9.0,-0.5433410995828054,1.4377353470174445
9.00390625,1.1356045640709334,-0.8581440061254382
9.0078125,0.6356571571113561,0.1728505872553991
9.01171875,-0.49399008542591905,0.7898848298096942
9.015625,-0.11216268774979402,0.3786277587169334
9.01953125,-1.092695668978986,-0.01021923827025962
9.0234375,1.012480691527008,-1.4783457680768595
9.02734375,-1.2466655193063056,-0.5119365492489061
9.03125,0.26456517280766406,-0.4184698756993481
9.03515625,-0.6420114109742603,1.0016259218094654
9.0390625,0.6326442057744601,0.6814952270064859
9.04296875,-0.5944298162398619,-0.698678660310714
9.046875,-0.6880847863540612,0.009649860872158552
9.05078125,1.5330703763456253,0.241568186044625
9.0546875,-0.3598667531259314,-1.689756507503289
9.05859375,0.9729618534546908,-0.6108531293023148
9.0625,-0.035060317257887656,-0.012566363146868589
9.06640625,-0.738605573386386,-0.2594336919008291
9.0703125,-1.913801717398667,-0.05248161798585267
9.07421875,-0.643661951154213,-0.24161094730323215
9.078125,0.39337480950976583,-1.4979584949505362
9.08203125,-1.891319812946003,-0.22573593621562207
9.0859375,-1.5429824134444619,-1.1996563539042906
9.08984375,-0.6501028538161064,-0.2242275282933264
9.09375,0.8036399546877624,-0.8979055224613406
9.09765625,-1.8164396829981833,-1.8532399148155614
9.1015625,-1.4349963024481154,-0.9610735278381499
9.10546875,-1.2143397514899072,-0.3953886236048822
9.109375,0.6224628381524537,-0.12032040411223786
9.11328125,0.21716899022037633,-0.014049692551330331
9.1171875,-1.1571785579244227,-0.8049769606173311
9.12109375,-0.028225832025157403,-2.2463212585679693
9.125,1.1037151890163772,0.5732826629173786
9.12890625,0.944741955085866,-1.1168524877902486
9.1328125,0.7214806397774608,-1.7647614591662975
9.13671875,-0.6938794292092797,1.4617017464261928
9.140625,1.8677202732730243,0.5807811898903049
9.14453125,-1.2108237643898359,0.5048801837886399
9.1484375,0.5725069457149372,0.44755513236291433
9.15234375,-0.6590018181541237,-1.3964747246518785
9.15625,1.964782647172919,-0.79988514711538
9.16015625,0.8039959869468245,0.025723305315043653
9.1640625,0.5459742195409497,-0.8126524183928059
9.16796875,-0.6686290402908615,-0.7407089639544083
9.171875,-1.0642579047571816,0.5949652503711774
9.17578125,-0.47109488916002207,1.3400712467596114
9.1796875,-0.9404862902676423,-1.9731733513132632
9.18359375,0.3269421446294867,-0.4350672572118022
9.1875,-1.9031591996726782,0.18190672882640363
9.19140625,-1.2010913958210652,-1.3933853320457215
9.1953125,0.9044373806960679,2.042548671866063
9.19921875,-0.6561761300712928,1.1090745951553003
9.203125,0.09450657170752863,0.03101406114870263
9.20703125,0.9004571260552808,0.23121560216916923
9.2109375,-0.8549433999475152,-1.0665581897205048
9.21484375,0.8392561485081127,1.0759613847514584
9.21875,-1.1900642063118902,-0.10222193820809589
9.22265625,-0.5800334595526073,0.16643020305519834
9.2265625,-0.25914101207933743,1.2198376233374328
9.23046875,-0.40819889140076404,-1.2764360498057985
9.234375,-0.27609110809775755,-1.7422537454613314
9.23828125,-2.2891264169765098,-0.49727892951482017
9.2421875,-0.7747446041960154,-0.3007769825954057
9.24609375,-0.6525121535410977,0.46943580175585997
9.25,0.6384118444749388,0.4096219447501416
9.25390625,0.45628875586996537,0.053685735551607584
9.2578125,0.18167599552750463,0.36443662115811937
9.26171875,1.6443922189690485,-0.8717534107294002
9.265625,1.57306486379602,1.3063722900155081
9.26953125,0.17003867776924667,-2.4216551246814206
9.2734375,0.05911914609353072,0.508481108021748
9.27734375,0.3771146443127338,1.0616208450125524
9.28125,-0.035276631534681996,-0.9043380695892141
9.28515625,1.1991074696577668,2.1413165655598396
9.2890625,-0.19124902351336578,0.4259164398577978
9.29296875,1.3741932279087508,-0.9228391945858881
9.296875,-0.5433389816149415,-0.22649832655352195
9.30078125,-0.8394067280068005,-0.9731125473222783
9.3046875,1.198374850859648,-0.3934088832940903
9.30859375,-0.9342941755201138,0.5888815135769253
9.3125,0.8726730615011974,0.31425127334321995
9.31640625,0.7611176668520356,-0.314890618587916
9.3203125,0.8848467871406466,-0.963381436399094
9.32421875,-0.7251985911785741,-0.6746810880960195
9.328125,0.4249080458645816,-0.05803918981814195
9.33203125,-1.1685445044855327,0.11335262977942093
9.3359375,-0.7641539150882347,-1.005280939323345
9.33984375,0.7100523274998796,1.099984424251164
9.34375,-0.4449601887788387,0.4059776201683345
9.34765625,-0.24970982074401715,0.034294852709906586
9.3515625,-0.06314020693634426,0.4506445615359397
9.35546875,-0.8056032480263114,-1.313824300277288
9.359375,-1.2003852474873475,-1.400582270649432
9.36328125,0.3528136931944768,-0.29473658679018694
9.3671875,-0.29912059269674635,0.5137033706867902
9.37109375,0.9660278140298609,-0.2510434108598357
9.375,-0.7356024994676548,1.726189841443356
9.37890625,-0.24785652085310247,0.2807452370494373
9.3828125,-1.184659220684064,-1.7634495774797507
9.38671875,0.965928619952793,-0.5945362363060052
9.390625,1.3158482665883238,-1.6132151135075654
9.39453125,1.5039555658348065,0.10615210980922538
9.3984375,-0.13263737561092534,0.10502013832847261
9.40234375,0.3230084228080556,-1.2416707142746821
9.40625,0.18034124657459977,-1.1167292171587917
9.41015625,-0.8996666431611281,-1.544450936333388
9.4140625,0.5741998903870338,0.26619060182447263
9.41796875,0.7437630308546672,-0.511414245169029
9.421875,0.3881978249349068,0.477217608581111
9.42578125,-1.2902729871857637,0.7736202851455158
9.4296875,1.2934991159105904,1.1824123085571168
9.43359375,-0.6793199709880243,-0.7444037328191698
9.4375,-1.3136748994607765,2.9564436373168204
9.44140625,1.7002354834315059,0.6254060647799565
9.4453125,1.6961598006823573,-1.2929162034625845
9.44921875,2.328097743358507,0.1561202258055091
9.453125,-0.17886037135525368,1.9689081979770187
9.45703125,-0.8424306073016795,0.06935133497711751
9.4609375,-0.34341279429276256,0.4417947667217098
9.46484375,-0.7960786593436152,-0.6761567823527238
9.46875,-0.2731761140276914,-1.6948748500194177
9.47265625,1.568249035258125,1.2282006963023018
9.4765625,0.5241579967713637,-1.0730417250883053
9.48046875,0.31340494156306126,0.505344427974794
9.484375,-0.37137264384900026,0.8999526097895001
9.48828125,0.2972394830651982,0.8508240360591167
9.4921875,0.9191826206937979,-0.4299670559748943
9.49609375,-0.27747524216595215,-0.0712981576404697
9.5,-1.347022473214757,-1.1221524041536557
9.50390625,-0.3368057416278914,-1.3028871832331133
9.5078125,0.01112412178960996,-0.2898148039553056
