time,ecg,ppg
0.0,0.722826181107475,1.8579160500643643
0.00390625,1.0026693421873274,-0.24735235411883114
0.0078125,0.06402298986802324,-1.245815345432978
0.01171875,-2.1924731045638617,0.2584771205419318
0.015625,-0.22107997084981576,-0.7854144690628028
0.01953125,-1.4827017380785796,0.7419126421078097
0.0234375,-0.7558115193646118,0.6365036664047097
0.02734375,-0.13170036986093303,-0.424387280691356
0.03125,0.7360635869380232,-1.4494735278032185
0.03515625,-1.5845558392619778,0.5338906926408343
0.0390625,0.00574926648178138,-1.2080719567079257
0.04296875,1.0259833893239192,0.8045501955058748
0.046875,0.028478437127962,-0.3592420515259413
0.05078125,1.053001533302395,-0.27179800682733635
0.0546875,-0.660745978163298,-0.5466022715412026
0.05859375,1.1984653700467964,-1.5604471212041358
0.0625,1.2876505664282143,0.3771930290229419
0.06640625,0.9730628639146784,0.3790236843301682
0.0703125,-0.08548009758589277,0.08490538081475152
0.07421875,0.501447556990688,0.23985194781047497
0.078125,-1.067316552950322,-0.026479003608723437
0.08203125,-0.3893945716538419,-0.1785133038395832
0.0859375,0.5157759580913138,-1.5937349019389682
0.08984375,-2.6660754496743544,0.4485581664252768
0.09375,0.11720655141457648,-1.6007965286329913
0.09765625,-0.3097700930577614,0.41123578195687543
0.1015625,1.18901952581908,-0.6840159819363438
0.10546875,0.08880328453275924,0.7859032056782747
0.109375,-1.3074760427654668,0.005778023807324417
0.11328125,-1.2036641139310142,-1.8423832013532955
0.1171875,-1.7524305782197167,1.4882861374123795
0.12109375,-0.6641084427142905,-0.9680689437362472
0.125,0.9352184797307056,2.058966103235232
0.12890625,-0.4873613784406794,0.7913724724069999
0.1328125,0.4233375666503935,-0.08357951669101205
0.13671875,0.48661497549148897,0.5751767902487637
0.140625,1.1881596831195917,0.7551029097692982
0.14453125,0.46094542221846185,0.8213229816703168
0.1484375,0.2581126591852356,1.0635212588826484
0.15234375,0.1368640549370661,0.13692943050496284
0.15625,-0.5170190042084372,-0.6064317437844634
0.16015625,1.7899470310520529,-0.8559524501512279
0.1640625,-0.515795692259064,-0.8062695197603232
0.16796875,-0.46054244549989237,0.8723960370100504
0.171875,-0.21334396758694013,0.45943690794037845
0.17578125,-0.3077608830623544,-1.746127433356097
0.1796875,1.3378252504629984,-0.7205382480524867
0.18359375,0.13428230503420124,-0.29016684117877467
0.1875,1.065686059764064,-0.4769935806906195
0.19140625,-1.1437601040429932,0.7128242062547707
0.1953125,0.20162435445183444,-0.33519354418993175
0.19921875,-1.364052023192706,0.20907894770528618
0.203125,0.3893143113763664,2.0571426852109407
0.20703125,-1.1945094618058896,1.1842734491398335
0.2109375,1.304752477771553,0.3386145046984153
0.21484375,1.1217869090685337,1.563408421521142
0.21875,1.021547904470233,0.4339087638969647
0.22265625,-0.8416528740835626,-0.512933958037758
0.2265625,-0.309418803101462,0.524577572457757
0.23046875,0.9648081769714927,-0.7439498329460282
0.234375,1.6979246354610518,2.1495188267916996
0.23828125,1.2020076406605782,1.1139261062738905
0.2421875,0.9670446086110037,1.4850219081812621
0.24609375,0.4454110094354563,0.7387085681269572
0.25,-0.8546639884057726,0.7210983290257603
0.25390625,0.3387006857254659,0.16376322242790992
0.2578125,-0.8968311647690494,0.7124203671422152
0.26171875,-0.21343415519470194,1.9587287534525373
0.265625,-2.102668204058071,-0.04538906458241536
0.26953125,-0.612892066998925,-1.5034702344797914
0.2734375,-0.011015054723945088,-0.8710252896477351
0.27734375,-0.8579980580419779,0.4603966797886288
0.28125,1.4155866529802072,-0.3267328801119154
0.28515625,-1.3116739195691072,-1.3939555661213332
0.2890625,-1.5904993725120578,0.5746207266022022
0.29296875,-0.7886967899428414,-0.08923929067624695
0.296875,-0.0343071426743427,0.24030590888498665
0.30078125,-0.39528666465991713,1.5840567682892737
0.3046875,0.13926433587469392,1.9315961304624762
0.30859375,-0.396431981325418,-0.4827721400733907
0.3125,-0.2073673658717515,-0.5743793004283246
0.31640625,0.81086969884166,-0.753748576556314
0.3203125,-0.5123919838498044,-0.4469594332085003
0.32421875,0.5269943979702224,0.20056687262704068
0.328125,1.6049489148163265,-0.7476030081495765
0.33203125,-1.2252649733022627,-0.29480919035389125
0.3359375,-0.45515554388063617,-0.7885514598944363
0.33984375,-0.5143474197760811,-0.23954085514108076
0.34375,0.17404314403125842,-1.826310194236249
0.34765625,-1.7524704993545734,-0.34543116857891787
0.3515625,-0.8482140413023086,1.8495877606770192
0.35546875,1.9493210037708946,-0.5861294380704171
0.359375,-0.4482260226850236,1.971177745457337
0.36328125,-0.7540689460929251,0.4948404678285412
0.3671875,0.7710128972157301,-0.9728979350468553
0.37109375,-0.9784215300101561,0.4344082157109103
0.375,-0.9335086080899232,0.6771981199279887
0.37890625,0.2436419417740621,-0.41637019787057633
0.3828125,0.3727404839970536,0.35257089318331103
0.38671875,-1.1489894995875705,0.5048209207162412
0.390625,-0.5976309389408935,1.3918184075541857
0.39453125,1.189810691616039,0.06030957899127661
0.3984375,0.6303861127465945,-0.7812607812128287
0.40234375,0.20706291628472145,-0.0872114097939091
0.40625,1.0855219482836866,-1.2632531601859938
0.41015625,0.28285447593417423,0.6999871121743079
0.4140625,-0.47777081691724005,0.436025606341615
0.41796875,0.1771700820601858,0.9676479601719853
0.421875,0.1542270272413693,-1.6505218180611665
0.42578125,0.5108027021121136,-0.9309852396855003
0.4296875,-0.32907783100572724,-0.603721334239032
0.43359375,1.1057956808360927,0.885498872763752
0.4375,0.4642975910053802,0.4218126115701651
0.44140625,-0.9415036888786106,-1.361920764173183
0.4453125,-0.7624662664917252,0.06240456503863959
0.44921875,-1.0088236653041731,0.8114503041661694
0.453125,0.8166802652168957,0.45768071054610027
0.45703125,-0.11899594999353062,0.0714963739763252
0.4609375,-0.9135488441972899,0.806375707520334
0.46484375,-0.843844003805135,0.03301860799781193
0.46875,2.556138785141775,1.039201240904833
0.47265625,0.7093604652354655,-0.23294898185290308
0.4765625,-0.6520185282189764,1.370424624842273
0.48046875,-1.034789711319647,0.06374054614380475
0.484375,-0.41138149766619064,-0.5477605519179989
0.48828125,-0.02902232593267081,2.5265963525868083
0.4921875,0.24033294849780468,0.23305313289033547
0.49609375,1.5488586575153163,-0.5795850279067657
0.5,0.9767687447097625,0.45715665044151343
0.50390625,0.46376765585297586,1.5210317358550944
0.5078125,0.8752008658671063,-1.475352521838284
0.51171875,0.07200672690253984,0.2467660742579685
0.515625,0.27747924569688964,0.0171251170180091
0.51953125,0.6355380427389569,0.7481336464030024
0.5234375,0.018325602558019755,0.048728506639704953
0.52734375,0.4506187422754623,2.2630695496839994
0.53125,-0.07695090479299385,1.5767818069796704
0.53515625,0.2053504632662284,0.6460685933315351
0.5390625,1.0495299036876624,0.722082586111005
0.54296875,-0.24530528701703258,-1.1858023735938392
0.546875,0.724350571043263,0.6924531352363741
0.55078125,-0.9556675526838818,-0.5379281192193067
0.5546875,1.4226180982369083,-0.6743943599359362
0.55859375,-0.4790622413401254,1.7047901952831288
0.5625,-0.6104733576043007,0.10034587705600821
0.56640625,0.5089078189063515,1.164691254773156
0.5703125,0.8418428331485214,-0.0947346543515052
0.57421875,-0.4987642776144343,-1.4517015696404802
0.578125,0.9419723505132865,0.47252156471747486
0.58203125,-0.7416306540261431,0.5209329744683943
0.5859375,-0.04189407987861209,0.781769041848187
0.58984375,-1.4495632053422156,0.964870991391356
0.59375,-1.612493349028674,-0.5819527440199097
0.59765625,-0.33960616706450797,0.7160393372373989
0.6015625,0.948622050972733,1.366392591942502
0.60546875,-0.40518070384548116,-0.7119123394679145
0.609375,-0.5223783778888568,0.4667194578714654
0.61328125,0.4436899328110977,-0.9240589908729028
0.6171875,-2.5754817283200038,-0.39741653430873936
0.62109375,-0.2741788286126617,1.0697175918430968
0.625,0.2972559029729077,0.2967209233351136
0.62890625,-0.2948373142917358,-0.09519593228936779
0.6328125,0.19207504255736832,0.28097941014736016
0.63671875,0.7308681180559129,-0.508342254783135
0.640625,-0.4361199193521854,1.9381596356438213
0.64453125,-0.6517665639221903,1.1956636809893328
0.6484375,-0.4084008348250457,-1.3611334847898324
0.65234375,-0.8000436024896143,0.6572900257303539
0.65625,-0.6899185149886177,0.4373583946444507
0.66015625,0.768074148279888,-0.1346826214794933
0.6640625,-1.0823734463142323,0.5518289377407569
0.66796875,-0.4275005105712202,-0.5055615659023391
0.671875,0.007711456784275629,0.9531140402216473
0.67578125,-0.6025484519760386,-1.2344366617238116
0.6796875,-0.23198117779113675,0.37273930964618235
0.68359375,0.06768585272250174,0.7480114829434308
0.6875,-0.30891469536149985,0.2442283936500227
0.69140625,-0.12866470385667203,0.7939126646301091
0.6953125,-0.9750354631952994,1.448882119780537
0.69921875,-1.2487322968754788,0.44881192706551254
0.703125,-0.17451804453237385,-0.2970468132297271
0.70703125,0.3797222653898185,-0.46253214040808194
0.7109375,0.09360290800447109,1.5978210757335791
0.71484375,-0.1935898967811631,0.7585939379028007
0.71875,-0.3392952090137722,-0.5490244118074848
0.72265625,0.5797041075066101,-0.7775218124940922
0.7265625,0.6801969827192527,-1.23863978829481
0.73046875,-0.6595865018341058,-0.09307927365863049
0.734375,-1.1816420007508297,0.1689826879642039
0.73828125,-0.34741040715698285,-0.1425834447046647
0.7421875,0.02111200227680965,-0.4275525972746483
0.74609375,0.8040768144310633,-1.6197000320712565
0.75,-0.254157809940319,0.09672266130494965
0.75390625,-0.6303959206334238,0.5147732558823324
0.7578125,0.6544014111175834,0.8810848492255894
0.76171875,1.0097711459730812,0.2875978687853658
0.765625,1.4653372513025789,-0.4162636418947659
0.76953125,-0.06901514485099554,0.3991442794522826
0.7734375,-0.3640610352180738,-0.27358507250422254
0.77734375,-0.29700229044037313,1.9896539779063727
0.78125,-1.0704126639403424,-0.5804397941059275
0.78515625,1.7976330266130833,-0.5093064228551727
0.7890625,-1.4009704264916072,-1.952389360159291
0.79296875,-1.5309585615597896,-1.4297695778551283
0.796875,1.119920670705308,-1.8277886673493977
0.80078125,-1.1033355684966937,0.7551223696654153
0.8046875,-0.6014864121164919,0.22777002141896438
0.80859375,-0.7430507245358616,-0.521488778525351
0.8125,0.15882603809726484,-1.148794418300247
0.81640625,-1.7577455472897872,0.5293077519984207
0.8203125,-0.02139608516509519,-0.8353126550998811
0.82421875,0.11066793036777871,0.6067416830795703
0.828125,1.627140957155783,0.7876796095696972
0.83203125,-0.4423917422600426,0.9627261581654484
0.8359375,0.05535240061420678,-0.9389455165227568
0.83984375,-0.7485490229284594,1.339720135707906
0.84375,-1.3767831996093989,1.0457334351152812
0.84765625,0.1032533808906344,0.008119499016396513
0.8515625,-0.20888567996755264,-0.6021295175400758
0.85546875,0.619350998019443,0.24424075183387559
0.859375,-0.2464873093936565,-0.22789230737810165
0.86328125,-1.7865050529968463,-0.4239981029023984
0.8671875,-1.360051487707076,-0.12937453693506756
0.87109375,-0.9012601340070846,0.3721382300630852
0.875,-0.971533011581803,-0.14855738085721518
0.87890625,-0.5441997920118266,-0.8250541274681943
0.8828125,0.6554288811087906,-0.06850783275799911
0.88671875,2.079984859960488,0.28517083404857807
0.890625,-1.1344378877665053,-0.884546212416951
0.89453125,0.3571276916658613,1.3029274230290535
0.8984375,-1.4960832763310081,-0.3765470503691297
0.90234375,-0.6235692012106583,0.536547181518636
0.90625,0.31156301553533094,-0.532911364731861
0.91015625,0.5696799348040492,2.0769538208200897
0.9140625,0.5866984070760546,0.4282097169700319
0.91796875,-0.19856817788066677,-0.3568436963311086
0.921875,0.11735121228374928,0.3258363295964154
0.92578125,0.15705661779346838,-0.8693945430995924
0.9296875,-2.8723936895632,-0.33176455139978683
0.93359375,-0.1740211826443538,-0.15983885461724515
0.9375,0.6339565558100273,0.6725928360097096
0.94140625,0.7226739599303662,1.63464522260059
0.9453125,-1.1112191881451319,1.2477932972696384
0.94921875,-0.6958023503303367,-0.6603721864152998
0.953125,-0.8478418160678193,1.0422702268462516
0.95703125,0.6588921929988919,-1.2037204757282056
0.9609375,0.5593003652303987,0.46226837198897375
0.96484375,-0.6221428400492093,1.7250588336852
0.96875,0.39571592932695737,-0.5730735433656362
0.97265625,-0.0793338785612999,-1.4711295041788248
0.9765625,-0.52815567653832,1.3921888045004847
0.98046875,0.907722329796626,-1.1601775663158818
0.984375,1.089897194566086,0.24823776275507436
0.98828125,-1.4636555937510223,0.03130525038610687
0.9921875,0.37501216170090695,-1.5936603712417572
0.99609375,2.1240372268749503,-0.2841647574072141
1.0,-1.1704870481697016,-1.4961664741384164
1.00390625,-0.19198951989195398,1.0871881460557808
1.0078125,-1.068763287680711,-0.5614173500741302
1.01171875,1.5420235902457375,0.09150053189747288
1.015625,-0.9109524780982435,-2.5059213795241573
1.01953125,0.12915644098878348,1.5090852977893108
1.0234375,-0.6171350427862426,0.28883785944922574
1.02734375,0.705355380823873,-0.6993135327524787
1.03125,-1.0456730716210842,0.6832151595002683
1.03515625,0.24242596357359195,-0.10948063801260974
1.0390625,0.3788534175888872,0.04036149446309457
1.04296875,1.4554809985001433,0.6627941954157371
1.046875,-2.061494052385,0.35893646776086185
1.05078125,0.6750823860562548,0.3517136070556759
1.0546875,0.2604639871225609,-0.8806749319619506
1.05859375,0.9356991910557134,-0.9395456688703991
1.0625,-0.5871646018214233,0.5949676626301263
1.06640625,-0.7964430456831689,0.45186816556668463
1.0703125,0.9706502325977661,0.15303259082950796
1.07421875,0.16187485844905236,-1.3243094785199427
1.078125,-0.7641268998650952,0.7826247207878004
1.08203125,-0.8670838635035801,-1.0210115702598335
1.0859375,1.0112620006506534,0.6183033040191064
1.08984375,-1.695897517252522,0.5302045061248941
1.09375,-1.5526016849947724,0.9155727920809289
1.09765625,-0.15256614936444013,-1.0068834198165368
1.1015625,0.24625696726850635,-0.6798765813082581
1.10546875,-0.0900367277624073,-0.4955421834254758
1.109375,-0.6060785327834767,-0.13466402845512335
1.11328125,-0.9362180409720839,-2.2538570805858216
1.1171875,0.46564181791956916,-1.1327074760570526
1.12109375,-0.08254862544853095,-1.7012854125420156
1.125,-1.5783995852241337,0.054017771499797286
1.12890625,-0.34327924857546294,-0.20074141408045235
1.1328125,0.24504389299099166,0.6733059540446947
1.13671875,-1.2518074072512284,-0.6034419712801098
1.140625,-0.8768747474027222,0.9996275118046212
1.14453125,-2.098213421349544,0.3753604720413563
1.1484375,-1.135286690223217,1.340483426668831
1.15234375,0.9688050053299366,0.3809268935868595
1.15625,0.7777959562659332,-1.290178440692954
1.16015625,0.3158278071780143,-0.7559132165011256
1.1640625,0.5658234609581009,-1.0396851201348365
1.16796875,-0.7255586637608955,0.970857514991345
1.171875,1.8598086007091845,-0.0994654898533642
1.17578125,1.366574130180326,1.5021451869063538
1.1796875,1.8399230915683866,1.7967873166869277
1.18359375,0.36707615173021724,0.05055967753625237
1.1875,-0.43095514345401464,0.20188970869839015
1.19140625,-0.4072771566778192,0.0684640978888365
1.1953125,-0.00165992391795123,1.3370084470542913
1.19921875,-0.03952882414019242,0.46454643160732495
1.203125,0.09355096248780828,0.8507236520753086
1.20703125,-0.36712695203991325,0.5019416016173931
1.2109375,1.4050389235411656,0.4339597534016837
1.21484375,1.9963027686856603,1.3793123875729438
1.21875,-0.3605650950982057,0.4992356834116765
1.22265625,2.053470443246189,-0.7297761153914543
1.2265625,1.7869649823689437,0.7540296000795396
1.23046875,0.7206371155372159,-0.704666439237824
1.234375,-0.011490249451090794,0.8056407022050923
1.23828125,-0.05916914251564671,-0.061172630533559105
1.2421875,-0.6455642771470043,-0.5461471102899085
1.24609375,0.6288802078634492,1.5055552484077235
1.25,0.22476373885287093,-0.43653009129573134
1.25390625,-0.5806709412560421,-0.4670234386889294
1.2578125,1.6818386192850803,0.5128548320555469
1.26171875,-1.128643266922792,0.6818725324160113
1.265625,-0.013028558358676215,-0.5589428576649942
1.26953125,-1.5055131493648353,-1.0710577957898424
1.2734375,0.008349359192038157,-1.5048900106922969
1.27734375,0.512267151534905,-1.2338868432051853
1.28125,-0.7943423325106281,-0.17868912005853602
1.28515625,0.5183723737801909,-0.36760775228608633
1.2890625,-0.6463554743445877,1.123497746596425
1.29296875,-0.229420019671179,1.8874245235813396
1.296875,0.5063177640249065,-0.925249914102665
1.30078125,0.17700691281967032,0.40032429103541955
1.3046875,1.1384253283803445,0.9161768134264495
1.30859375,0.9450280873297876,-0.05826489304448906
1.3125,-0.16121268516812076,-1.1001603987897612
1.31640625,-0.3220007887688904,0.04372121833066419
1.3203125,-0.2628206991698646,1.8909665817135568
1.32421875,0.3649059008102015,0.36100072087954255
1.328125,-0.785971946231019,1.0910709862123695
1.33203125,0.06263225417886839,-0.9581384752342039
1.3359375,-0.21136055496862519,0.8298031826375738
1.33984375,-1.2141362901263402,-0.9603932616485775
1.34375,-2.24746415759329,-1.7462595785224067
1.34765625,-0.5657250663184621,1.5068173884951277
1.3515625,-0.9217722002487542,-0.6219531604380019
1.35546875,0.09228161957779574,0.28384352103995775
1.359375,-0.17204568733138892,-0.6449215140709409
1.36328125,2.1594926215431944,0.4025977835171501
1.3671875,1.4518629881359735,1.6843794056855845
1.37109375,-1.291363890429528,-0.09106463852072814
1.375,1.049357363559438,-0.5705750175131054
1.37890625,1.2535378027321813,0.6391844160933569
1.3828125,-0.3061129023750689,1.2194472031024512
1.38671875,-0.9514393886984992,-0.05386671824353957
1.390625,0.3783620575054625,0.43710892564918474
1.39453125,0.1904252503196742,0.16498235055535165
1.3984375,1.4364511144011491,0.7948063921015235
1.40234375,-2.001909945551854,-0.035220778950341876
1.40625,-1.537470151164816,1.4773546203061334
1.41015625,-1.413884827762601,-1.2198250932670172
1.4140625,1.6907984615427407,0.7468177086279066
1.41796875,-1.2245404392010448,1.4683868775598485
1.421875,0.21994898086943362,-1.376940128481681
1.42578125,-1.64693760244136,0.8558707675662441
1.4296875,2.2578682261622776,-0.5465376599725779
1.43359375,-0.9864588001719562,0.3484072957114146
1.4375,-1.0706055288693546,0.6304294774638035
1.44140625,-1.7749232056660884,-0.7036618884395953
1.4453125,0.16681909263010145,0.13143995191773333
1.44921875,0.4691620899239547,0.04333038734951215
1.453125,-0.24968943327048107,-0.47659893723791763
1.45703125,-0.7425159192719041,1.4733093092284042
1.4609375,-1.3249006016081888,0.5413886452303724
1.46484375,-0.5543138760719724,0.2269205362894874
1.46875,0.5453206782586528,1.5409892044968088
1.47265625,0.20587642473949352,-0.002788181925651237
1.4765625,0.2816089396235561,0.08662353669067874
1.48046875,-0.3536779963969945,0.44293855429367424
1.484375,1.388628135716793,-0.19750982606592046
1.48828125,0.13837600163467204,0.5492391768860921
1.4921875,1.9235563955877437,0.48264116527420653
1.49609375,0.36078852108416226,-2.071777169553345
1.5,0.564362552917834,-2.402687476599375
1.50390625,0.24192485092924657,-1.0735668008494
1.5078125,-0.8251835930662647,0.336211157847002
1.51171875,0.06569136449514947,-0.9577550238728486
1.515625,-0.8270909227932142,0.5197675585165328
1.51953125,1.5613174330762047,-1.1609718914068539
1.5234375,-1.8828029398534307,1.1823348105079508
1.52734375,-0.9465584093448446,-0.554536259793512
1.53125,-1.54335049960096,-1.2323824992077395
1.53515625,-1.3578956200522891,0.5157327329639403
1.5390625,0.5615075517993644,-0.4339644175960649
1.54296875,-0.11366335829081246,-0.3640247134529576
1.546875,-1.0166852973314642,1.1444504374292188
1.55078125,2.043160682991031,1.928657705423906
1.5546875,0.47427419050362973,0.23361106619293065
1.55859375,-1.4763002878431535,-0.03971268594758531
1.5625,0.4648576828653191,1.413226772085578
1.56640625,0.1364444571378502,0.09219306511029117
1.5703125,1.152552851204275,-0.4074506715925045
1.57421875,0.66092941317583,-1.4987251653136484
1.578125,-0.07883849148904143,0.2429696959694412
1.58203125,0.5466502689760218,0.34883513255758597
1.5859375,-0.5962760641632588,0.006894717186518325
1.58984375,-0.6228813916713394,-1.4314680920461547
1.59375,0.1558114629406254,-1.760008740000334
1.59765625,0.05999988318586211,0.42404458834037506
1.6015625,-0.3396573917411585,-1.5692408817157235
1.60546875,-1.3340208542409187,0.25668343855573345
1.609375,0.9997957159688249,0.02915056199092097
1.61328125,-1.365464864780601,0.18791356098186107
1.6171875,0.07138218383619538,1.8206540646147114
1.62109375,-0.35622899760467724,0.07354013208100109
1.625,2.2195323299642893,0.49792764749907636
1.62890625,0.27052017506922504,1.2770318376911327
1.6328125,1.7181221367544484,-0.3636596053240652
1.63671875,-0.08527744871103787,-1.9424267214960798
1.640625,-0.06888800892924685,-0.17697716004776806
1.64453125,-1.3247181455117494,1.1351226928464648
1.6484375,0.24288297868912034,-0.8015013484251069
1.65234375,0.7345577411871562,0.6439574898056701
1.65625,-0.8772793675656594,1.3356077257822552
1.66015625,0.9474166372747845,0.35948902598231913
1.6640625,-1.460759923891281,-1.6460943503455212
1.66796875,-0.6656310506561067,-1.574668519048115
1.671875,-0.18912553752605638,1.0730949514584176
1.67578125,-0.682578641671123,0.7104579642651041
1.6796875,-2.70915293374377,-0.4496344153085369
1.68359375,-1.7761093734271491,-1.924922753318857
1.6875,-0.12071593941105975,-0.9444344875111726
1.69140625,-0.8755432647566628,-1.0248819454606781
1.6953125,0.15327298109413565,0.03567837485868262
1.69921875,-0.7288738056654546,-0.9148463459408575
1.703125,-0.2564140301291228,0.6300507306704248
1.70703125,-0.8419712024811314,-0.56101313913038
1.7109375,2.045076618588402,-0.13313340291285194
1.71484375,0.010807939753053464,-0.4874244078927753
1.71875,-0.7754843793170401,0.46532124777886996
1.72265625,-0.8292161481220144,-0.7257191380477045
1.7265625,-0.17895888035153829,-0.6605352171261075
1.73046875,0.2161137282669747,0.15673449699761485
1.734375,1.0168405187268255,-0.6511889384871844
1.73828125,0.7252678612151344,-0.725666402267048
1.7421875,-0.09935163607693168,-0.17840650662579738
1.74609375,-0.2359887443468095,0.49521985702633853
1.75,0.1638581314366267,-1.20529595458586
1.75390625,-1.8554535433421724,0.5056896303286857
1.7578125,-0.2797397031769617,-0.5465316783179766
1.76171875,0.6670554362754904,0.28870657147705686
1.765625,-0.39013143073007617,-0.41184656374180995
1.76953125,1.8611710448812053,1.1026152663337874
1.7734375,-0.4056717507719501,-1.1010390258508604
1.77734375,-0.28660592972942167,-0.47210301221869355
1.78125,-0.6971579778634351,1.8127059726816561
1.78515625,-0.8057713863326351,-0.5492581884009582
1.7890625,-0.8298324627349034,2.0110203197290413
1.79296875,-0.430934054358203,-0.05167240011944471
1.796875,-1.2999394598599079,1.2317537055558856
1.80078125,-0.556814053183429,-0.6798887563575865
1.8046875,2.4014840659949934,-1.1546575107154116
1.80859375,-0.8604802155202582,0.8175637631503697
1.8125,0.49723928865918543,0.12337127781239095
1.81640625,-0.11354563638853862,-1.0090247812882625
1.8203125,0.5100843528624814,-2.2172700928875515
1.82421875,-1.3036188387782717,0.12430390339446241
1.828125,0.017991892460412006,-0.599479926324269
1.83203125,-0.5397235920494698,-0.022911115354780118
1.8359375,-0.846113064167889,-0.5302079373085941
1.83984375,-1.641478729562543,-1.812551765211649
1.84375,0.07541264377220307,0.7095569243809808
1.84765625,-0.3497142846796958,-0.03754597901529334
1.8515625,-0.1421225699051789,-0.9126626059601549
1.85546875,1.596279203708499,-0.8827284241632991
1.859375,1.023691863758404,-2.1915541105513454
1.86328125,0.03877120241113093,-0.24774654777450095
1.8671875,0.41424717469197414,-0.1788838653226517
1.87109375,0.06647985857812484,-0.47867226200984064
1.875,0.15179237411083424,-0.6316444558992703
1.87890625,0.15197275019399334,-0.706578565359686
1.8828125,0.8813503620974132,0.5666603790550736
1.88671875,0.3265654651615508,2.3540020860227053
1.890625,-0.5422824733893192,-0.8764456578826616
1.89453125,0.43638402102751056,1.9264977039061362
1.8984375,1.0251363135465046,0.4687877984528273
1.90234375,-0.755146160788067,-0.6794873637925777
1.90625,0.41111440315599784,-1.1678109153533256
1.91015625,-0.012693031372086121,0.025114379289692824
1.9140625,-0.2770297429822369,-0.3666754631951251
1.91796875,-0.3227445305619454,1.2763040156836256
1.921875,1.3915190666366164,-0.6505090046437988
1.92578125,-0.47372405665917605,1.4953756203745059
1.9296875,-0.969443030770776,0.9410119292962067
1.93359375,0.30994949236022507,-1.363088941833649
1.9375,-0.06215299382992385,-1.4883332266451241
1.94140625,0.8692762756080307,-0.14458809999266825
1.9453125,2.218715485239363,-1.287598183544658
1.94921875,1.7541768320416786,1.143706220160983
1.953125,0.2745968731342856,-1.8496514998020466
1.95703125,-2.3196826105982282,-0.1024333456900282
1.9609375,0.3034546220882782,-2.170959433471198
1.96484375,-2.203169418335412,-0.7990444015262553
1.96875,0.23597647345698058,0.2957479280449001
1.97265625,0.4350998493720758,-0.3898206663793622
1.9765625,0.5383285439841209,0.609298933608669
1.98046875,-0.11268281730988287,-0.29023077416591225
1.984375,2.286968656167236,0.09133050541475336
1.98828125,-0.5258732488186983,-1.3327057733397298
1.9921875,-0.10829568585810695,0.597539827991306
1.99609375,-0.7150498276203849,-1.2725127099786206
2.0,-0.6103773618469805,2.3119364575168118
2.00390625,1.8470122767881376,-0.3048221777200063
2.0078125,0.24725386085781315,-0.6489485545802779
2.01171875,-0.7512866490481845,-0.31125394260689293
2.015625,-0.2927563409398308,-1.4069843308779828
2.01953125,-0.40203133693295307,0.8233770282217999
2.0234375,-2.6624291034659517,-1.0470895970682557
2.02734375,-0.34745776376197024,-2.029448399996782
2.03125,-0.7114230628996304,-0.9801118188055465
2.03515625,-0.7753496864673494,0.9209189075967117
2.0390625,-0.24918232004917118,1.127530582346535
2.04296875,0.09821119068090678,-1.109014510565905
2.046875,-1.989725614034989,0.29689171453408114
2.05078125,-1.6362427585285342,1.1724849239445385
2.0546875,0.8953428839473554,0.36808040398109904
2.05859375,1.4209567008837807,-0.7005473196289718
2.0625,-0.31873087033461583,0.28801348472935945
2.06640625,1.96824755692032,-1.2375876738722384
2.0703125,-0.37054651758611257,-0.17401974368945575
2.07421875,-0.7963191147799764,-0.5707409286394741
2.078125,0.8933530709236949,-0.11438979191639305
2.08203125,0.19177355349430122,2.2662233111955215
2.0859375,-0.31000292000894597,1.4796968291655572
2.08984375,-1.6327509918518677,2.172190967236126
2.09375,1.493121460881994,0.3186350264063757
2.09765625,1.1726349991537794,-0.3178592388181302
2.1015625,-0.0022047852493688853,0.3791084564140955
2.10546875,-1.9332622960983832,-2.177383360205411
2.109375,0.02626071070045089,1.1063379201171022
2.11328125,0.1657747282059033,0.3840388930758654
2.1171875,2.2308725136494596,1.4287953275759606
2.12109375,0.9626699138870847,0.6639603230642344
2.125,-0.0027507180229175434,-0.6975482355405719
2.12890625,0.42753806744273887,-0.9088002146205829
2.1328125,1.290519987103929,0.22261460868357402
2.13671875,-0.11735116241942811,1.2342613735962036
2.140625,1.3214553746220452,1.3279473777375195
2.14453125,0.303666298453838,-1.3995236312551353
2.1484375,0.6714721901596546,0.1995037450043643
2.15234375,-1.7988728460002015,-0.2873651865482103
2.15625,1.2467720656597634,-0.31946701730633575
2.16015625,-0.3081960656376969,1.836434513977244
2.1640625,1.0813938450216964,-1.9433737335469738
2.16796875,-1.698931774821838,-0.569130262508561
2.171875,0.7099154526375301,0.017346232496408563
2.17578125,-0.994025713306989,0.04330699388431274
2.1796875,0.0580914567912935,0.21891119173048235
2.18359375,1.5243290069408206,0.0025039174483329854
2.1875,1.4949036829128501,-1.927787602599917
2.19140625,1.4730232833251915,-2.151150956377864
2.1953125,-0.4268770362223263,1.373913497478993
2.19921875,0.789383633142865,-0.3501929981520636
2.203125,-1.1021627246476886,0.5692219581591658
2.20703125,-0.5961283390613581,0.6262067763614608
2.2109375,-0.25769189513244845,-0.946126894924399
2.21484375,0.6929496899738764,-0.43067153106607975
2.21875,-0.6518688340453573,0.33828291365387686
2.22265625,-1.9671137930561196,-1.1730066028858193
2.2265625,-0.2790156488159404,-0.8961991409904363
2.23046875,-0.41505268225035724,-0.05874467059982505
2.234375,0.3767830994123598,-0.6498458902420056
2.23828125,-0.18576862420123827,1.9484634961589602
2.2421875,-1.0170966174146676,0.5852117697408422
2.24609375,1.0359934801296933,0.2030342082296199
2.25,-0.2545368236253858,-1.3679178383635513
2.25390625,-0.5582247434555989,-0.3755662060083865
2.2578125,0.536202093769708,0.6687017567404415
2.26171875,-2.2343563993233024,-0.49303509011383395
2.265625,-0.2160996848125196,-2.3352427908061766
2.26953125,-1.0804696740334547,1.435656989539134
2.2734375,0.9681335957839302,0.46910968622616017
2.27734375,-1.092623604385274,-1.4277827021681975
2.28125,-0.2227005046421117,2.031942418406889
2.28515625,-0.6350480529542789,-1.119218648199433
2.2890625,-1.0270343571605938,-0.7338204236693785
2.29296875,-0.11268050049878935,0.46096351297233057
2.296875,0.19691973755175796,0.44204453188656145
2.30078125,0.03542916300670669,0.8964023010244274
2.3046875,-1.286707906846503,-0.3591888061529229
2.30859375,-0.6169576216280389,-1.1663381785537845
2.3125,0.3937910957875406,0.09043440083421678
2.31640625,1.136426451268778,1.9499963962392979
2.3203125,0.1758508656050205,-1.1686275990943331
2.32421875,1.7950428999697492,1.6596977415480247
2.328125,0.676194397509189,-0.7780457578350436
2.33203125,-0.5694911758312985,-0.10124786995716685
2.3359375,-0.5757148865894003,-0.02251513523523447
2.33984375,-1.4943693470206285,-0.39206449103754454
2.34375,0.5158315915051803,1.599663689093121
2.34765625,0.9740255042663682,0.5954284517312327
2.3515625,1.581223308944722,0.40442431046985383
2.35546875,-0.8560812271745706,1.5755406145870001
2.359375,0.8037333377890665,0.6725520771008058
2.36328125,1.3450251820918382,-1.3243302502908376
2.3671875,-0.14760856874332284,-0.8016161831381431
2.37109375,0.16769576481198353,-0.5624051610403449
2.375,-0.589564252345276,-0.7914550700889333
2.37890625,0.8638878988105403,-0.8798786369828078
2.3828125,-0.8080934567140846,-0.42360707693778665
2.38671875,0.6112925888549015,-1.2182652942925314
2.390625,-0.303015588565067,1.3877067511536048
2.39453125,-1.357229932054184,-0.9382451790761146
2.3984375,1.2417900523873198,0.6200983719457653
2.40234375,-0.5795713520282413,1.3531438217904384
2.40625,0.29695119450153995,0.8547231955446611
2.41015625,-0.39747656170714746,-0.3155800110457425
2.4140625,-2.031593149734813,-0.538070005573226
2.41796875,1.6712523609429322,-0.04559899461142732
2.421875,-0.284751093321598,-1.3908194029295209
2.42578125,-1.5719763019461293,-0.8088791342481281
2.4296875,-1.4920339736640575,0.10391436882207461
2.43359375,1.3037671723688173,-0.5557556364556024
2.4375,-1.099677503680581,0.3553823838902099
2.44140625,-1.5913270919252451,1.161316462855547
2.4453125,-0.7400241155416448,-0.08474116433140551
2.44921875,0.7763205872344797,-1.2241862232534777
2.453125,-0.26018804685467367,0.01694887478596869
2.45703125,0.8204032700064317,0.048744664307187234
2.4609375,0.6475114300380564,-0.35222779304445023
2.46484375,-1.6883477677839591,-0.011336868693827938
2.46875,0.033693597203461566,0.0987745040788776
2.47265625,1.1840536636991097,-0.9278009647316193
2.4765625,1.4353455473779435,0.2784401947763932
2.48046875,-0.2133476364796714,-1.1690450235995944
2.484375,-0.07715188948882491,0.5239856707104565
2.48828125,1.1132046870609458,-1.3428867263302575
2.4921875,-2.07706760921047,-0.41624273157515923
2.49609375,0.996267021640722,-0.15603067046319993
2.5,-0.6669263488523823,1.307683304594888
2.50390625,1.4529585075840692,1.6732099306561732
2.5078125,-0.6372162950249985,-0.91289706018602
2.51171875,0.6856835954766759,0.7506771766411321
2.515625,-0.8698386264931693,-0.4028337081664305
2.51953125,0.04729807626285427,-0.24974506271418098
2.5234375,-0.621314900674375,0.8812328267602083
2.52734375,-0.26707556966088997,3.1302269819422084
2.53125,-0.19361453020200756,-0.42944348655455095
2.53515625,0.6760147517965021,1.6279970867747129
2.5390625,-0.8493271425319633,1.1652396573052597
2.54296875,0.23688451897834042,0.5596121934426551
2.546875,0.9527867915158447,1.1411688195894296
2.55078125,-3.1566784807453216,1.4024118075908916
2.5546875,-1.187744312850689,-0.6496479714768799
2.55859375,0.0036826239108678814,0.7449576549341828
2.5625,-0.018530406909920177,-0.019775924653128392
2.56640625,0.14120968126044406,-0.5426203280921598
2.5703125,-0.31522788113072575,0.8149275998514219
2.57421875,1.6704218369895212,0.07301571939535222
2.578125,1.9278915504450522,-0.6249940850948592
2.58203125,0.3292282316648641,0.2736455863397905
2.5859375,-0.2657224529296543,0.21853934620824353
2.58984375,0.11012191375088916,-0.111899611787299
2.59375,-1.4279439842997852,0.1494210422075976
2.59765625,0.23262191824294204,0.6124287687316176
2.6015625,-0.9638054423861172,1.5109299247376364
2.60546875,0.4058136517185084,0.7362264190230686
2.609375,0.005181659243698389,2.466003489665599
2.61328125,0.9073858209262314,1.3796273217686417
2.6171875,2.0883038434295087,0.1698649539626564
2.62109375,-1.4661968944258355,1.1204744477032438
2.625,-1.046883760525001,-0.10188528321278849
2.62890625,0.6503028114240123,0.20436383916397236
2.6328125,-1.6315706697901537,-1.0286199859474965
2.63671875,0.7018743875782171,0.4763531782536901
2.640625,-1.1127017337180973,0.283089174051047
2.64453125,1.1507626113156453,0.26634291538616184
2.6484375,-0.25349566147487107,0.3575814288729155
2.65234375,-0.8736703730480586,-1.1906857524299972
2.65625,-0.43893335667120803,-1.2348862894711061
2.66015625,-0.11500106843285991,-0.34795193488661036
2.6640625,0.2450926617223062,0.613751798010553
2.66796875,-1.3571565328687245,0.09991337354869315
2.671875,-1.972709753001253,0.5404478529603332
2.67578125,0.4123772064915409,-0.5710358536753006
2.6796875,1.281435410723746,-0.01875167518199934
2.68359375,-0.14149620037535923,-0.8703495533586519
2.6875,-0.0639037418779577,1.3309241605250623
2.69140625,1.440563379427166,0.20350265626604594
2.6953125,0.47194213134959967,-0.21786957078134864
2.69921875,-0.858284031185955,1.9618484614532217
2.703125,0.7141646788066491,-0.43682212336440446
2.70703125,1.4303063681073893,0.589006073609595
2.7109375,0.11366383244063605,0.18740790712078914
2.71484375,-1.1881365326788622,-1.4259877702263173
2.71875,1.2159511902887834,1.5746568539096306
2.72265625,-0.8931793626599227,0.6586742304361264
2.7265625,-0.03397876384757338,-1.1937011226293561
2.73046875,-0.3961017788031026,-0.5235222909887868
2.734375,-0.8198556321502721,-0.8150101131302675
2.73828125,3.228780327421514,1.2754434421723013
2.7421875,0.9416459169970642,-0.30306882545405556
2.74609375,-0.37122466739595567,-0.1067676862381997
2.75,0.022241222408893903,0.7088546713726966
2.75390625,1.539689124660084,1.1611672477960093
2.7578125,-0.6120603134032084,0.06437478174897543
2.76171875,2.1351115722869114,-1.1102455758871377
2.765625,0.3373642678278184,1.8158176887634263
2.76953125,0.22970053158663034,-0.16469242178965304
2.7734375,0.5197011373009536,0.05857162312729746
2.77734375,-0.05987742082837485,-0.7694003516364215
2.78125,-1.5127183574295753,-1.5173319830872967
2.78515625,0.5272693247961066,-0.8386995779303613
2.7890625,1.650761070913039,-0.060698198394183674
2.79296875,-0.21012111927367888,-2.1806853135190933
2.796875,-0.5852266781841017,-0.2845461087678702
2.80078125,-0.9738719409273933,0.5109114301555985
2.8046875,-0.3206732399277455,0.4705183649426018
2.80859375,-1.0341497179432615,-0.3930867602434084
2.8125,1.1094463811538966,-1.4233173071753487
2.81640625,1.668016206129507,-1.4824166700931694
2.8203125,1.525191726287644,1.0104244275543115
2.82421875,-1.1117141266427466,-0.6110581602718587
2.828125,1.023321388110287,-0.1412041522839604
2.83203125,0.01170980972801219,-0.04893533653836723
2.8359375,0.5521579896462245,-0.616486021812936
2.83984375,-0.46895835877832054,0.011330046363602866
2.84375,0.0016317693882871994,1.3311000122859746
2.84765625,-1.7953806324071966,-0.10909811746367813
2.8515625,-1.5228057787096443,-0.25917049718521346
2.85546875,-1.2721311159585575,-0.5332887195724291
2.859375,-0.5252978886948698,-0.7596718589880398
2.86328125,1.5119362903562057,-0.06098433171777207
2.8671875,-0.4336213751675961,-0.7005542217940112
2.87109375,0.18611139088240763,-0.824436961699229
2.875,0.0016584261780553174,0.8969210877310524
2.87890625,-0.3938184997390658,-0.18287588881814973
2.8828125,-1.0661681409180184,-0.6747004319615194
2.88671875,1.0466725940360944,1.087553280752966
2.890625,1.506322784628947,-0.6123421652118383
2.89453125,-0.09923899271697675,0.30035153974862744
2.8984375,1.0125336072394788,-1.2879298085000181
2.90234375,-1.225733763417386,-1.1661647545983058
2.90625,0.33242505835472547,1.6626082624417151
2.91015625,0.8638831212590119,0.4025771748713573
2.9140625,1.2133229380211894,-0.5169752910226019
2.91796875,-0.7864034943210173,-0.08721451044669284
2.921875,0.38751373155903146,-0.7072972034833779
2.92578125,0.7076142608483192,0.6040958522128844
2.9296875,0.8311364909597818,1.2293180601115947
2.93359375,0.484777113554926,0.5437592306619214
2.9375,-0.8268097751081871,-1.263481937522183
2.94140625,0.6210947360330394,-0.6707359841803322
2.9453125,-1.4529381511605488,-0.06431316722538541
2.94921875,0.2212520609617433,-0.4949785360185661
2.953125,-0.9894411636721997,0.7593745429307875
2.95703125,-1.5705018337893437,-1.1417642744005903
2.9609375,0.4393767187721415,0.4080011457559941
2.96484375,2.1417580961350025,-0.4356532719140674
2.96875,0.4713925221812976,0.14153083058001964
2.97265625,1.6202747600456102,0.5437169056294823
2.9765625,0.2038640277910976,1.2308264107252558
2.98046875,-0.3903020507826734,0.44227305717764687
2.984375,-1.0788072576729182,0.4018045860785081
2.98828125,2.263986108963209,0.16527774557355515
2.9921875,2.252973907447882,-0.029392144367543057
2.99609375,1.713568819107428,0.6711450320179683
3.0,-0.35689822798673904,-0.4057886438792226
3.00390625,0.21595584980097368,-0.9837683502709421
3.0078125,-0.002025169190443332,1.0338305027604624
3.01171875,1.0038010949076943,-0.7510752597557632
3.015625,0.543143451725863,-1.9062353158807095
3.01953125,3.101622257585425,0.9081156251768208
3.0234375,-0.831792699198635,-0.39930900025295657
3.02734375,0.8752419482149115,-1.4953764645283039
3.03125,-0.12751740565503442,-0.2551043705945888
3.03515625,-1.7706083481488828,-0.8861608050274229
3.0390625,-0.6788954228415542,0.9005855438602905
3.04296875,1.4059085925567587,-0.8745783707281486
3.046875,0.13384088427418347,0.5438104874890207
3.05078125,0.8062215652697083,-0.23478030810671702
3.0546875,-0.35676547028863165,-1.2753859066896616
3.05859375,1.101612655869013,0.4166713830415226
3.0625,-1.3646784588469376,-1.7882609356930979
3.06640625,-0.045409320106011494,1.0945009175669431
3.0703125,0.9480298249697232,-2.414154240670489
3.07421875,1.147936917089575,-0.12676345568593475
3.078125,-1.0621529496654165,-0.8927306595612888
3.08203125,0.4942387262628942,-0.3078151246890486
3.0859375,-2.43166590567251,-1.130529265382199
3.08984375,-1.9258527202489157,-0.2753482023084258
3.09375,-0.359994615321493,-0.14647324697119932
3.09765625,-1.582585363586128,-0.40270784250758335
3.1015625,0.027386207958427732,0.5106931708124361
3.10546875,0.7014087853782521,1.6533593340242225
3.109375,-1.9248572274889364,1.0741535019459083
3.11328125,-0.08171980549026986,-2.2158060430758946
3.1171875,-0.07784041413017534,-1.2136374970499726
3.12109375,1.4212943010022,0.03354150883055975
3.125,1.3778290922408383,-0.14640862217458037
3.12890625,1.5011565510943976,-0.5476554369436426
3.1328125,-0.6560541592606741,1.0595623099544633
3.13671875,-0.3886941887493365,1.2256377476963938
3.140625,-0.8828138728162402,-0.25879014592108107
3.14453125,-0.4725607733811028,-0.1415280080757294
3.1484375,0.004469230944230405,-0.029172412294467983
3.15234375,-1.1239648041191188,-0.30233691926640344
3.15625,1.5839795369700436,-0.5602600930570288
3.16015625,-0.3290880861499965,0.1934936722973838
3.1640625,-1.1655617466341557,-0.22863202276230885
3.16796875,-0.23843642242607008,-0.8165302867296665
3.171875,-0.8283233059444061,0.30928538924468457
3.17578125,0.3299971561103951,1.1240815879461061
3.1796875,0.41127391966501686,0.03456417385401452
3.18359375,-0.14289054714533136,-1.0884157726333628
3.1875,1.4400580637212217,-1.6869279919709173
3.19140625,0.29098413381777627,0.18549066250944046
3.1953125,-0.961822257584526,-0.23206222033184418
3.19921875,-0.10488032609974068,-1.5756430580057772
3.203125,1.8701144885407426,-0.05288388242503337
3.20703125,0.038674963950484316,-0.4228839075452586
3.2109375,-0.8309869651458236,-1.2139842439178024
3.21484375,0.023022423639158157,-0.4021212310493158
3.21875,-0.24619061521888577,-0.7118889396950541
3.22265625,1.2493842400203266,0.5270546089592832
3.2265625,0.06907141872592587,0.8408245652037387
3.23046875,-0.005794730681860294,-0.4129575977493964
3.234375,-0.788978088230431,0.3390255654111895
3.23828125,-0.2930947266779381,0.5490353879273637
3.2421875,0.42878056584983615,0.009510102723274686
3.24609375,-0.656594532813274,-0.5308402118254583
3.25,1.3656346038581826,1.134055474977179
3.25390625,-0.5824079014495038,0.5157996507888533
3.2578125,-2.0941977119371487,-0.19517410038027055
3.26171875,-0.638490233286756,-1.3308585752672037
3.265625,-0.2515771224692617,-0.6055742515988334
3.26953125,0.5776427500430765,-0.8797825101213378
3.2734375,0.18914173428750689,0.8902850136636056
3.27734375,0.28699162919545196,0.877711476727991
3.28125,0.3496537746153071,0.7858783630504816
3.28515625,0.5274557300100953,-0.8761210459320993
3.2890625,0.7991894612691596,0.36739259655687895
3.29296875,1.547662929106817,-0.27870456739394034
3.296875,-0.15484400197067577,0.7240783197849461
3.30078125,-0.45279323509156266,1.1494171447083206
3.3046875,-0.5440237510968607,2.3182340247784423
3.30859375,0.24976968152095558,1.6192874174281906
3.3125,-0.12383259637757284,-1.024509243705905
3.31640625,1.083868123840833,-0.1810689264411325
3.3203125,-1.1534128702195958,0.9155178618853502
3.32421875,-0.11961122187970243,-0.21931544034530337
3.328125,0.4006784166398149,1.447491864020172
3.33203125,0.9195256418875036,-0.9705574141691744
3.3359375,0.25368013597206707,0.9799122570113746
3.33984375,0.6555279080161776,-0.23179867600516546
3.34375,-0.07601827570512984,0.41700268031131144
3.34765625,0.1600561247590625,-1.1685465436148574
3.3515625,0.323478765566413,-0.4194081575602583
3.35546875,0.6245050186206034,-0.13064004638816543
3.359375,1.4587231329350208,0.7875486153785525
3.36328125,-0.8887165471075821,-1.4174452359037943
3.3671875,0.7569242601374033,0.17455264137098653
3.37109375,0.12370526880466659,-1.2381603138027735
3.375,-0.10851641177910366,0.696744377446727
3.37890625,-0.9240308141769475,0.12180508830653401
3.3828125,-0.12495786142759539,-0.4225412078526857
3.38671875,0.662388672896287,0.7770256054458456
3.390625,-0.39925049225529463,-1.4352737866528142
3.39453125,0.5266241530675153,0.8519922051828585
3.3984375,1.1163073750644807,2.392289727380625
3.40234375,1.2230225430153747,-0.21345604854748929
3.40625,0.05496810403474142,1.0593181932510316
3.41015625,1.0328104308316852,0.20006303174996332
3.4140625,0.7540396076317237,1.8886668628812213
3.41796875,-1.0376082815158298,-0.2241294221423402
3.421875,0.9066736768521703,-0.01219602205390346
3.42578125,0.5369414279744812,-0.03679497039360445
3.4296875,-0.8568272962834141,-0.4113652575250292
3.43359375,-1.256488817452846,-0.36007103868308354
3.4375,1.5809376650526952,-1.9464541857503563
3.44140625,1.7956275280539584,-1.198481500128901
3.4453125,1.4021554729923063,1.7240322278231326
3.44921875,-0.9146054228216159,0.8746942709932873
3.453125,0.6602390795401122,0.699431308192883
3.45703125,-1.241934095816732,0.01829399495513684
3.4609375,-0.1695686297515211,1.0911182114004496
3.46484375,-0.33875688514902186,-1.7420851904883858
3.46875,0.6518397178550223,-0.5404087126593934
3.47265625,-1.2774933184792379,0.6709425366900686
3.4765625,0.7810358650912309,0.6789417713823388
3.48046875,0.47879485200764393,0.598707172852017
3.484375,1.0787837632005541,-0.5373219921905614
3.48828125,0.5605790556253206,1.5896857498266506
3.4921875,-1.5152584813952306,-0.5636961724622312
3.49609375,0.16267550648551587,-1.2165632398521415
3.5,-0.05433174867969119,-1.061739620919718
3.50390625,0.048689894820299374,0.9442008141967562
3.5078125,-0.6850341457818022,-0.7895116301305504
3.51171875,-1.410326356500419,-0.01340024799840343
3.515625,-0.027606228375761748,-0.11858009842453873
3.51953125,-1.8231713692818916,0.09918058582571457
3.5234375,-0.3488895501951289,0.1698823941878726
3.52734375,-0.41816923534596573,1.199333451160343
3.53125,-0.028927847768752016,2.198322852078067
3.53515625,0.32241085244520146,0.011181357485974803
3.5390625,-0.3493723254207503,0.4654959089561409
3.54296875,1.085353378924779,0.1316306498472454
3.546875,-0.48143504420115957,2.186159967977919
3.55078125,0.0580015056882563,-1.1519979039129284
3.5546875,-1.1281948403329745,-1.0124665361640237
3.55859375,-1.524697114592151,-0.5985902829140485
3.5625,0.6855232286269881,1.3906388879116496
3.56640625,-0.6728079083481157,-0.7778335906492309
3.5703125,1.5388101803720633,0.6623328838106302
3.57421875,-1.424040538981265,-0.46804851188677626
3.578125,1.15296265869279,0.3016723912718481
3.58203125,-1.047016458225246,-0.19875968537943475
3.5859375,-0.5228690139475755,0.5164747216380634
3.58984375,0.6162912007491145,-0.9054448320681949
3.59375,0.6110788513197103,0.3876966280650065
3.59765625,-1.4218315946093854,-0.3695230136800247
3.6015625,-0.5708808226049973,-0.4272756907368725
3.60546875,0.7952507751742588,0.07725219208448886
3.609375,0.4969644524985668,0.7165359850198884
3.61328125,-0.985477725396883,-0.3680188531278513
3.6171875,-1.6040140937241925,-0.053901420920101285
3.62109375,0.44177348249845044,-1.015551813744239
3.625,1.2420306366593048,0.9955780055190087
3.62890625,0.6357980548039617,-0.8822751131478084
3.6328125,0.4093184017541677,0.10876151792276599
3.63671875,1.2585449031135219,-0.8796396810679649
3.640625,0.7302009925725592,-0.7979867431307134
3.64453125,-0.5842358009485334,-0.21161928326092863
3.6484375,-1.6727734130032224,0.5670499345073569
3.65234375,-0.23800576066921053,0.32361876488719615
3.65625,0.10785590259642595,-0.8421953995011969
3.66015625,-0.061751667372404624,1.7238666331299424
3.6640625,-0.6854643522284434,-1.913399783016053
3.66796875,-2.247225365664963,1.0757202718448233
3.671875,-0.8631933255642721,-1.0981597267942957
3.67578125,0.9048839112742127,1.1026314291397041
3.6796875,-1.992570850850966,-0.35183727422929034
3.68359375,-2.2708709197828987,-0.47008181320941916
3.6875,0.37936475259759855,-2.0426701050756377
3.69140625,1.5516057992930234,1.321331552945633
3.6953125,0.19645661014313148,-1.814061043347624
3.69921875,-0.40009187323134227,1.0128590979265615
3.703125,1.5509947664939616,1.6005821419394426
3.70703125,0.19999539689874998,0.05076783396272312
3.7109375,0.32281475490728423,1.8121004028432985
3.71484375,0.6431463311574167,0.48926256074957397
3.71875,0.3524644802847424,-1.5632597745094448
3.72265625,-0.8371210781449618,-0.4875340412289784
3.7265625,0.8659995775507331,-2.8185797624522535
3.73046875,0.2432775664601377,-0.5084461933281075
3.734375,-1.233756656683253,0.8621254722759643
3.73828125,0.4746066862721645,-0.30337770627415117
3.7421875,-1.597582216422479,1.5854093286111766
3.74609375,0.02850945250097097,-1.4848541724665276
3.75,0.8612192764661267,0.42147446995466464
3.75390625,-1.3735012115935703,1.2480447170424198
3.7578125,0.47392454611822793,2.377361720911006
3.76171875,0.7620929356410686,0.8686945516591498
3.765625,-1.013548954944676,-0.7970806868910243
3.76953125,0.08051311205521293,-0.25736175927917476
3.7734375,-1.3204104222358575,-2.000589590326577
3.77734375,1.6757484958081796,-0.18376297834705757
3.78125,-0.18793860443834437,0.3320458234677143
3.78515625,-0.35737604260975153,0.11379695044361261
3.7890625,0.0025216733354094965,1.0404071150437537
3.79296875,0.49274832301311783,-0.9405255896364566
3.796875,1.6080145627840674,1.0420544696039824
3.80078125,-2.223591028276022,-1.5254614419794386
3.8046875,0.2979995857965423,0.8791156420932748
3.80859375,-0.7483053352347508,0.7337021940489926
3.8125,-0.6029886650865971,-0.3179264568558866
3.81640625,-0.0623714826463635,-1.574170536199686
3.8203125,-1.6456318167096535,-0.445264340075047
3.82421875,1.8704253891408138,0.8728922595242272
3.828125,-0.04472757079212213,0.8457400479107674
3.83203125,-0.7872820054474317,0.522981447772036
3.8359375,-0.5149265738731614,0.25253517861625696
3.83984375,-0.5523885475939956,1.6217604542835857
3.84375,0.47830855028660246,0.5460174482113289
3.84765625,-1.9310946473439587,1.5121493648946969
3.8515625,0.6699408890182236,-1.5128469745247075
3.85546875,0.9198044300278633,1.258162886745161
3.859375,0.4786282996928725,0.5261970508818834
3.86328125,-1.303881476767322,-0.19896800448095328
3.8671875,-0.44767449849475444,-1.3711644632922964
3.87109375,-0.7290385862389028,-0.3870200080666339
3.875,-0.294688387155985,0.04426395399179987
3.87890625,1.0256040222657736,0.5834947697022702
3.8828125,1.4625234757468717,-0.5530984195399152
3.88671875,-1.1426229976475473,1.4987940775120077
3.890625,0.9855499388007285,-1.2686917624151146
3.89453125,0.10637821294138965,-0.40234514706888874
3.8984375,1.1402941311632413,0.20991097603737408
3.90234375,-0.6576469535514459,0.3335494570417098
3.90625,-2.192179771665258,-0.044809666919864224
3.91015625,-0.6020610550063129,0.586223742486948
3.9140625,-0.24864799457197317,0.6829640004748965
3.91796875,-0.7430971031612286,-0.254788683068332
3.921875,1.1547592858636213,-0.6589287546061988
3.92578125,-0.37718241346221704,-0.10704099854526164
3.9296875,-0.24492247798032943,0.08453507953236498
3.93359375,0.7046172093533594,0.9960434808316827
3.9375,0.889192909555312,0.3204892514894109
3.94140625,1.2726815314968776,-0.26548031736208055
3.9453125,0.6995531007182774,-1.5283896838691204
3.94921875,0.5405229948219671,0.47681491218331123
3.953125,-1.5188676414575597,-1.3386937622711883
3.95703125,-0.42792139461542983,-1.4445071128884512
3.9609375,1.9545069231094072,-1.7519754630125757
3.96484375,-0.7317600458184882,-0.011455550759999811
3.96875,0.408797937350001,-0.6355934567357227
3.97265625,0.6115872550111259,-1.111782362075338
3.9765625,-0.3770457160946484,-0.13929551745522806
3.98046875,0.5205443058872309,0.42765633721251745
3.984375,-0.7394628552098732,2.0147908190765893
3.98828125,0.01855633122255687,0.3612352842433419
3.9921875,-0.09546504078245689,-1.2122307395092857
3.99609375,-0.3288077713204383,-0.27330487814385795
4.0,-0.22581810985434342,-0.8284110204024802
4.00390625,-1.0135544409675128,0.3749413912747055
4.0078125,-1.8404037562930753,0.21892625596293108
4.01171875,-0.9335134571819848,-2.6441697962985815
4.015625,-1.4634198793346496,-1.3812277241463398
4.01953125,-0.5000988123422078,0.5928575405395244
4.0234375,-1.5435178101337221,-0.7170815875920006
4.02734375,-0.036718964997827355,-1.2186070563885842
4.03125,1.0938296104414438,0.5812216758054431
4.03515625,1.5840294829405466,-0.47003759737567735
4.0390625,-0.7474099545561307,1.2028840390622406
4.04296875,-0.9195115956274795,0.8838189267527139
4.046875,-1.4499430929598116,0.6115617666134997
4.05078125,0.1059279597810903,-0.4016381716041369
4.0546875,0.11810158611116413,-1.4299685086196723
4.05859375,-0.914675861775866,1.4978570624682819
4.0625,0.44880780559777267,0.36906866849964537
4.06640625,1.2507941082981588,0.09212961793633784
4.0703125,-0.07448449441122862,0.19552525609399968
4.07421875,-1.2741377562012803,-0.6910019204848176
4.078125,0.399178605355491,-0.171819345312622
4.08203125,-1.0158365799907125,-0.6072187246810826
4.0859375,-1.1844016878661239,0.461823977034504
4.08984375,-0.23430923702335288,0.09027324730101768
4.09375,-0.24124842968277654,0.9938027953405377
4.09765625,0.6325259603057859,0.4957107943506956
4.1015625,-0.2325369793170385,1.7429199003824247
4.10546875,-1.4217072864830853,0.3383236851393497
4.109375,0.8801870404566988,-1.3448609716730513
4.11328125,-0.6011100816741254,0.9501511564305469
4.1171875,-1.1221954525672193,0.13407270532503995
4.12109375,-0.4870502804456189,0.20043040631027118
4.125,-0.45226529643272956,1.3900297908843318
4.12890625,1.0947663279308228,0.20103242113175346
4.1328125,0.5930107774450096,1.1832264779214823
4.13671875,-0.9251968084929855,-0.7054798452068765
4.140625,1.5709479208219996,-0.7137870054135104
4.14453125,0.04351273292516601,-0.3089723877346828
4.1484375,-1.2798918218258788,-0.7048586896190564
4.15234375,0.975657046442323,-0.5395197706875903
4.15625,-1.2498970560169111,-1.027974285359028
4.16015625,-0.2402858373825231,0.5197487431849256
4.1640625,-0.7666847347501294,-0.16635420616210436
4.16796875,0.470993974954783,0.4832689096658839
4.171875,0.3052108972979572,1.299927356070227
4.17578125,-0.05563119530087466,-0.9953115771693959
4.1796875,0.6686766022283525,-0.3882191515834898
4.18359375,0.9992775416791638,-0.502937003174638
4.1875,-0.906964468324799,-0.45685479581937205
4.19140625,0.049815134536316814,-0.9972231424305241
4.1953125,1.0973430083093658,-0.613778851143301
4.19921875,-0.39545495868917585,0.988346851784131
4.203125,1.5330716637551483,0.25156659127108405
4.20703125,-0.5119295406980785,-1.9403407155524137
4.2109375,1.0088668742674163,0.4758669767925949
4.21484375,-1.1049836184435655,-1.91705359322339
4.21875,1.0138933743655851,-0.9651983903506991
4.22265625,-1.2972712043283072,-0.25133681450738765
4.2265625,0.8913588747911522,-0.18828483795511752
4.23046875,0.31586111399064315,-0.45279062208723575
4.234375,-0.8590633008731724,-1.0171814584710814
4.23828125,-3.1975151065240075,1.5163808770570584
4.2421875,0.2784688106499908,0.7544977168708599
4.24609375,1.4411348100034855,-1.2931427861213172
4.25,-0.029247494780831055,-1.2630563804314547
4.25390625,0.6907928933024764,-1.5014415526911846
4.2578125,-0.1572796346595957,-1.756505361196945
4.26171875,-0.7182138676466365,1.1675291589544678
4.265625,-0.995334962319567,-1.610151458362777
4.26953125,0.8815540299783404,-1.6867362034183881
4.2734375,0.16619118851615122,0.6421453519756674
4.27734375,1.4343843201779807,-1.0858115960731718
4.28125,0.2941748558704621,-0.5248684884571047
4.28515625,-1.4338464853021733,-0.12167721491506342
4.2890625,2.5091682612826833,-0.7258368255230242
4.29296875,-0.4725137885257253,0.0294056960151344
4.296875,-0.1368289202125405,-0.9671020768726054
4.30078125,-1.0564172473310771,0.890324515949114
4.3046875,-1.565109752280658,1.0236708823947096
4.30859375,0.12629190078704394,1.557756231617241
4.3125,-0.20190789910252738,-1.6722674109501372
4.31640625,-0.5491853698529692,0.8351818061296428
4.3203125,1.3537885071651115,0.365333185280102
4.32421875,0.9256530039239305,0.16099147498092575
4.328125,-1.549361810211551,-1.0226524484813915
4.33203125,0.9512104302685793,1.2484681575117347
4.3359375,-1.2528828201563906,0.19152270257719953
4.33984375,0.8408771962548005,-1.401914365430961
4.34375,-1.992353640034276,0.8206497853899428
4.34765625,-2.22655382380427,0.3707367380425104
4.3515625,0.8344054828913139,1.66637297322561
4.35546875,-0.401203725445355,1.7470937276891565
4.359375,-1.6030582586660989,0.9077399144793185
4.36328125,-0.9857660761512027,0.9421377523519716
4.3671875,-1.1026595087399607,-1.530773480427786
4.37109375,2.88349782120852,0.3517740697125593
4.375,0.6011469002165435,-0.13169151802650714
4.37890625,-0.5342175165427472,0.8637526456227939
4.3828125,-2.0152438448154992,-0.27487496717698745
4.38671875,-1.1160350232700726,-0.2555859039312034
4.390625,-0.3368822267226801,1.7911737930339817
4.39453125,-0.4634547991105821,1.007567427973178
4.3984375,1.8191684345438088,0.06346215382919808
4.40234375,0.4436494649336983,0.4070197980250748
4.40625,1.1048983707473607,1.102859735628492
4.41015625,-1.0601556153704548,0.0531228730895101
4.4140625,-1.3814619729581932,-0.8194734565249817
4.41796875,-0.9709716517109511,0.19424017301175256
4.421875,-1.1359262259953984,-0.6187987520020145
4.42578125,-1.551761010635973,-1.3066812918768316
4.4296875,-0.808722399522779,-2.3297231226087427
4.43359375,-1.2216961435255629,0.027964480442509848
4.4375,0.3431549276159204,-1.2386871281001468
4.44140625,1.7491919661704387,-0.3008998720895007
4.4453125,0.38115948561105367,-0.5944971578389667
4.44921875,-1.2032558572611194,0.018313120987779593
4.453125,-0.3155294363516806,0.7797964496092551
4.45703125,-0.1809999023329547,1.2035648338055418
4.4609375,-0.36597404876695233,-0.21472206705546312
4.46484375,0.17888878035405215,-1.0993815407277239
4.46875,0.5132766717944319,-1.6708104604456087
4.47265625,-0.022502861180289938,0.09458195824087319
4.4765625,0.6749662169277033,-1.150845856193886
4.48046875,-1.5308013186174318,0.6703084953509806
4.484375,-0.18721824019131977,0.128766398501279
4.48828125,0.08539985970894824,0.5730783641312057
4.4921875,0.5222847425400491,1.416426235826305
4.49609375,1.3383912517651633,-1.1596221694049476
4.5,-1.1092834762444914,0.2901240131004702
4.50390625,-0.3103116840912499,-0.7900924618800227
4.5078125,-0.22497350669983984,-0.05591401881870836
4.51171875,0.22202658779490905,0.6267363862547322
4.515625,0.34910233156737736,0.4750891065385744
4.51953125,0.8718353958095225,-0.7451980338138303
4.5234375,-0.9293201002952493,-0.5760291590723197
4.52734375,-0.1203649483599024,-0.5981301139806088
4.53125,0.3222333322805669,1.4798217779666496
4.53515625,-2.21865794381954,-1.3031431417722734
4.5390625,-1.8524138823607272,-0.7465033507094718
4.54296875,1.1884314347414644,-2.1826434401624133
4.546875,0.129107127365016,-0.3508794595605195
4.55078125,0.7565480486228024,0.2014970601704092
4.5546875,0.4141326570900559,1.3131766345718587
4.55859375,-1.4132110993874947,0.444789414373835
4.5625,-1.037250297359356,0.3462666675751396
4.56640625,-0.13030945261210058,0.5109049091370467
4.5703125,0.28891878671542,1.0052973022380425
4.57421875,0.43587657611910685,0.7566010635306835
4.578125,0.8931981092412994,-1.0422724166467434
4.58203125,0.14780189595574517,-1.629516729710345
4.5859375,0.2916203018842588,-0.6738117265925313
4.58984375,0.8255698835720794,1.362584443373344
4.59375,-0.9660329774209954,-0.9373471855977576
4.59765625,0.6849131489879084,1.2058093246884811
4.6015625,0.9055666964813802,0.06724754619823507
4.60546875,1.5737055918880283,-1.074485087414338
4.609375,0.7390390140475466,0.4450018612826771
4.61328125,-1.7481237076156568,2.168378486700908
4.6171875,0.9212468788224829,-0.6660669643227243
4.62109375,-0.9825288483917083,1.4680906442373072
4.625,-0.954490270249756,0.2685636586449699
4.62890625,0.1978857169275797,0.20238043235769665
4.6328125,0.06612711399689049,0.18190509532144827
4.63671875,2.376027755039626,-0.11959255001264033
4.640625,1.2608055452827114,1.1752754634462659
4.64453125,-0.5522192733370079,-0.5605576627891901
4.6484375,-0.5623940798888558,0.20878196678108604
4.65234375,-0.49125181965981274,-0.21481555793601298
4.65625,-0.09883721422793962,-1.1365823987415669
4.66015625,0.3633583423071281,0.6215767651791777
4.6640625,1.5853236337794032,-0.19954797593446752
4.66796875,1.7095462271242043,1.5114278414566678
4.671875,-0.9815485500152646,0.21453658511038823
4.67578125,-1.8499781675802551,1.1708696881270377
4.6796875,-0.18014766452861122,0.37137239340538936
4.68359375,-0.43392253690258,1.0568744208861138
4.6875,-0.29277799274034016,-1.2177644851007308
4.69140625,-0.15731652775810062,-1.1113428491493431
4.6953125,0.4936956206870134,-0.5991091532593925
4.69921875,-0.48700793098931844,-0.47487186467996423
4.703125,0.03899588363130873,-0.8048607700570819
4.70703125,0.8031344732101798,2.827610632008189
4.7109375,-1.0608173350161065,0.2796978954314172
4.71484375,-0.3546645666435102,1.1412790143141502
4.71875,-0.7191990124053651,-0.6083150286712964
4.72265625,0.278500826656996,-0.7154084324571744
4.7265625,0.9770992381056687,1.511765166211489
4.73046875,0.6161673164702098,0.0017380416881171924
4.734375,0.39926864270401685,1.3064482252768665
4.73828125,1.4110384229102948,-1.318443941113317
4.7421875,-1.02457655886684,-0.191870298891726
4.74609375,0.4716778272912871,0.31663090756028145
4.75,1.3058231879671753,-0.7024648358698317
4.75390625,-0.6218336582992634,0.21868022269032347
4.7578125,-0.346714847356835,-2.2289886341895686
4.76171875,-0.2982009375209144,0.503451081805714
4.765625,-0.11739264352746202,1.3578960412437686
4.76953125,-0.16935779877490617,-0.9497055542332878
4.7734375,1.0563125074936162,0.013165908077949474
4.77734375,0.41362756989576915,-1.1829251893362247
4.78125,-1.3278504478709443,-0.30296387039627926
4.78515625,-1.152126823015452,0.1400792643801878
4.7890625,1.6681285475994716,0.2786863331374798
4.79296875,-0.03534179698709104,-3.152180981551426
4.796875,0.7747901137637955,0.7218755171841104
4.80078125,0.2958983808164599,0.0947278582706563
4.8046875,2.058624009696258,-1.2840996147595463
4.80859375,-0.5543875019968725,0.3119188335298598
4.8125,0.48221987290370794,0.2832819914749205
4.81640625,-0.561051278048594,0.6984310084258323
4.8203125,1.1024181418637509,1.1566119791986256
4.82421875,-1.0750244337079493,-0.49115118490406523
4.828125,0.22771179719566476,0.3971986889726742
4.83203125,-0.420512119942824,0.8418483732353433
4.8359375,-1.652113035572881,-1.6533544582567041
4.83984375,0.284538969528336,-0.39029678796932227
4.84375,2.041729003367648,0.03879967866862606
4.84765625,-0.676015344933465,0.608665087159959
4.8515625,-1.1987691080617986,-0.7493164430809869
4.85546875,-0.20077071131798072,-0.44199979306727677
4.859375,-1.2492317627517282,0.5979496591660951
4.86328125,-0.47045656777900147,1.3891598571557164
4.8671875,-0.634978230187014,1.2415611135634657
4.87109375,-0.8899511699983372,-0.5531093109787606
4.875,-0.16236041370285975,1.0088051656047434
4.87890625,1.8172088205993713,0.6636002759812729
4.8828125,0.2230319072916559,0.030218819972861043
4.88671875,0.326039645920445,0.7351790966421978
4.890625,0.5488970324849717,-0.2881907813114314
4.89453125,0.840768733893678,0.9222833062242355
4.8984375,-0.2253945816215863,0.7900787251794303
4.90234375,1.3203793694316868,1.3381844322562397
4.90625,0.2863888764576162,0.8323799349168564
4.91015625,-0.10642308206826585,0.8726191504988325
4.9140625,-0.018496150337543066,-2.016849406901199
4.91796875,0.8493252876756655,0.24925961956171974
4.921875,-0.6657101698534714,0.6413354641387321
4.92578125,0.14264478445158368,-0.11877853217565464
4.9296875,-0.22973798631846667,0.19577598602005994
4.93359375,0.5663650414135288,0.46193157858862527
4.9375,-0.8917443257617481,0.13719005979770726
4.94140625,0.29167278182072104,0.5409848064554369
4.9453125,0.08933515694058419,1.1948954444214677
4.94921875,-0.7270749846856049,-0.3947526761578752
4.953125,-0.7154274793988854,-0.751515881338912
4.95703125,0.9657017801552861,-0.5741081575001251
4.9609375,-0.9246051608221897,-0.06461500688230119
4.96484375,-1.7405519829205605,-0.10728197854263817
4.96875,-1.2610961176337099,-0.2320536171455644
4.97265625,-0.18888634161476356,-0.26259534347109076
4.9765625,0.7592695680328727,1.700554395001163
4.98046875,-1.419105856609413,-0.712871447123017
4.984375,-0.6040671037170663,-0.7009599283828513
4.98828125,0.5226005281717876,-0.5818695536186534
4.9921875,-0.10530613869534794,0.8104249961571789
4.99609375,0.012478649426052861,-0.8455339286107187
5.0,0.347323257012676,-1.3611096159683593
5.00390625,-0.9156684545138021,0.18219558269856165
5.0078125,-0.30755542528861013,-0.3861798736229986
5.01171875,0.24356416982333068,1.098802097986578
5.015625,-1.1148756760760852,1.1473445819074755
5.01953125,-0.015951589429765607,1.2215108935284533
5.0234375,1.0958943669300794,-0.9662025863202958
5.02734375,-0.17855749913294408,-0.23309437662787075
5.03125,-0.5752242611868648,-0.7652506490332434
5.03515625,-0.030466411336339417,-0.2369603599710172
5.0390625,-0.4548692233634093,0.004221975618141957
5.04296875,0.3739609179688756,-1.3396928142471674
5.046875,-0.6526597861380351,2.0963860056299373
5.05078125,0.4288787149025595,-1.4859024162591752
5.0546875,1.0073056948618313,1.1641670066954026
5.05859375,1.0002265471866543,1.7229900909611213
5.0625,-0.09052959050143577,-0.533209700835624
5.06640625,-0.9444554874732602,0.5532604309548151
5.0703125,-0.38631226096936505,-1.7309015928198779
5.07421875,-0.7111884939567477,1.2257935052101308
5.078125,-0.5850734410733115,0.2391671302747549
5.08203125,-1.8246832194054878,-0.6489782169084467
5.0859375,-1.2840987809320124,-0.06989936105752813
5.08984375,-0.3753041133006673,-0.4387187116127827
5.09375,-0.20267391127109585,-0.9611318783604437
5.09765625,-0.6322459529735768,0.2847924827004578
5.1015625,1.4326686000653854,-0.9263562403565979
5.10546875,-0.44487093691804774,-1.0908189307382825
5.109375,0.6777199634077867,-0.1470561543106096
5.11328125,-3.0195345941119642,-0.19256474933014936
5.1171875,0.34259481380022194,-2.4153170875166468
5.12109375,0.37801786610988075,-0.6913375130290903
5.125,-0.3179110956364267,0.30659468176491206
5.12890625,0.4372100531212505,-0.4287645765682084
5.1328125,-1.0299085108110495,-0.767889669267793
5.13671875,0.35734436862874,0.6035403501027508
5.140625,0.05314241430425226,0.3254449587357645
5.14453125,0.15807429021433173,-0.5264575987392686
5.1484375,3.219482162922735,-1.0805590404511178
5.15234375,0.2132823724235623,-1.045255778693035
5.15625,0.3152383848215992,1.4797495624789407
5.16015625,3.4468418278627784,0.254485877350342
5.1640625,-0.26693059116558565,1.6445009828952093
5.16796875,0.19649388070592064,1.110706007362671
5.171875,-0.7797825822263028,-0.9661439207091747
5.17578125,1.4228630734674657,1.053400615096067
5.1796875,0.4276022284444941,-0.595737092394423
5.18359375,0.5309290885723501,-0.39761020224243393
5.1875,0.11965451150540701,0.6344485250139379
5.19140625,-0.20282684404419357,-0.21653661470938712
5.1953125,0.27005170134835393,-0.9123007323425192
5.19921875,0.55770645121882,-0.8669680103681644
5.203125,-0.5322633689958274,-1.586443623597185
5.20703125,-2.9072737823216928,1.965479137761
5.2109375,-0.7790166847109036,-2.010475968810783
5.21484375,-1.9087832670778753,0.6314344525864612
5.21875,-0.9211522895588586,-0.7262992300082968
5.22265625,0.3792351219124178,0.5055211799545429
5.2265625,-0.09045800169671629,1.147584738130375
5.23046875,-0.34574920613250526,-0.804877098917876
5.234375,0.4653428824950092,-0.027533383356289673
5.23828125,-0.16763497204426037,0.6736533891487845
5.2421875,-0.5742116581245106,1.3513888921282535
5.24609375,1.6617746191597786,0.43865208381936327
5.25,-0.3636798114138962,-0.7085519930730684
5.25390625,-0.05142082400832298,1.3550371592325126
5.2578125,-0.04199805768695811,-1.1944466575524384
5.26171875,0.6547966204978349,0.6235294547204226
5.265625,0.39679229862783644,-1.503609500742478
5.26953125,0.18446992371061047,0.3426716428824082
5.2734375,-0.057534822917101956,-1.2761085066252704
5.27734375,0.12071344811384391,-1.0262690698163146
5.28125,0.7754279420305307,0.22728758058850274
5.28515625,-0.9912908684308595,0.9576271320820119
5.2890625,-0.8050319293237769,1.5807795910769533
5.29296875,-1.4111123245399215,-0.07726820338746217
5.296875,0.503707438141684,-1.906430593056088
5.30078125,0.11889143841352055,0.35024066413958227
5.3046875,-0.5845829433544013,-1.2675006977066154
5.30859375,-0.7792479989627645,0.20978340891551653
5.3125,0.4540482840663955,-0.9233102344430615
5.31640625,0.5018530856728988,0.06449636999485495
5.3203125,0.8218709702510932,-0.5088608128939354
5.32421875,-0.6455713194667397,-1.6685355421638706
5.328125,-1.6668871890840313,-0.05813069722059773
5.33203125,-1.0100864966040908,1.3739694020736104
5.3359375,-0.8717896710220101,0.6551954156634077
5.33984375,1.3667991021699497,-0.403961238747572
5.34375,-0.12752657110038954,0.1104768798009606
5.34765625,-0.4522831367074426,-0.18955455118182354
5.3515625,-0.6956030837113116,0.9020056486943615
5.35546875,0.42001184617141507,0.9061897234088658
5.359375,-1.1412532289614887,1.0591410264150747
5.36328125,-0.36275627812384253,-1.7906273739048069
5.3671875,1.909678182696022,0.6762772336048797
5.37109375,-0.042957446519414286,-0.17531782626459955
5.375,1.4815208465726983,1.6236372234881595
5.37890625,1.290309830906296,0.0593262417795392
5.3828125,1.285923196207584,-0.6265375052718584
5.38671875,-0.4413213978690943,1.4629233695043165
5.390625,-1.8471504746841605,-1.2642103261092794
5.39453125,0.3176086652563674,-0.9356714291211131
5.3984375,0.27031337809887357,0.4234908499824356
5.40234375,0.37458621838368006,0.9020476146401741
5.40625,-0.789092001097374,-0.7655191989877442
5.41015625,0.6054444930902215,-0.2972841213701203
5.4140625,0.07729548080692644,-2.377018176043028
5.41796875,-1.097310040783427,-0.614613593150268
5.421875,0.15956854902210607,-1.203269631129134
5.42578125,0.7562193922250248,-0.1656679926998778
5.4296875,0.5518272783971782,-0.6312072385602432
5.43359375,-1.7388093014585433,-0.3963208854381974
5.4375,0.7898087727098191,0.04214174932504755
5.44140625,-1.5123300542583502,-1.1421329407603484
5.4453125,0.29701162860455077,-1.7737220958329032
5.44921875,-0.9815036549900052,0.09756064522273204
5.453125,0.3076409797039429,-0.032731908673589306
5.45703125,0.6466057972514911,-1.988964174725842
5.4609375,1.3335458478122046,1.7266510437858058
5.46484375,0.7510422415370237,-0.9731563015405246
5.46875,-0.42927326051858383,-1.2289777093436198
5.47265625,1.6347375406026934,0.07729701715691409
5.4765625,1.1800248791398318,1.5800109394899138
5.48046875,0.19653393329422147,-0.13031863348436007
5.484375,0.31813236741041817,0.8734888490758571
5.48828125,-0.04850534028414812,-0.9682261408535795
5.4921875,-0.7208978524789037,-0.9564570364930514
5.49609375,-0.6739621538212412,0.8908904965903381
5.5,1.1894925352532846,0.5891138159446433
5.50390625,-0.5065153188001521,1.510290019010886
5.5078125,-1.0861616306263229,-0.02299908281705032
5.51171875,-0.6778748793807251,-0.3707175856119841
5.515625,2.2711986114350453,-0.7458172056816261
5.51953125,-1.1934468967899252,-0.9277779880164044
5.5234375,-1.1161470506089481,-0.8229958297461031
5.52734375,-0.7522837954084114,0.40983117209703884
5.53125,0.46908528246833914,-1.1839576347069156
5.53515625,-0.058074622017228385,-1.037513379536495
5.5390625,-0.8090881347906105,0.9045428114854485
5.54296875,-1.808522798876296,-1.0757171877688634
5.546875,0.5777252798813758,1.0857129876126401
5.55078125,-1.8601695370572207,0.2748715518779982
5.5546875,-1.1996278528355462,-1.4362106280386873
5.55859375,0.24639050026844084,1.2221634416434524
5.5625,2.0742307132606803,-0.00334393846459939
5.56640625,0.5138095584177307,-1.1327893346006375
5.5703125,-0.09845570526775024,-0.7564631133459389
5.57421875,-1.5795972887816268,-1.3201969489296597
5.578125,0.24275255256810185,0.12954599995954302
5.58203125,2.0496371451603097,-1.0282976233123633
5.5859375,0.4052298892959829,0.4832348751640901
5.58984375,0.31686662572849345,1.361544850071534
5.59375,-0.662624757021271,-0.9505738361566617
5.59765625,-0.45247720788739315,-0.4777577761406497
5.6015625,-0.39830617911546834,-0.5965066270067552
5.60546875,-0.6377859371184322,0.7205687029870413
5.609375,2.080163504617807,-1.0017547814901002
5.61328125,-1.0765418908063653,-0.3915998904244342
5.6171875,0.563010271504661,0.954478988371372
5.62109375,-1.1073028923413184,0.7573913606354301
5.625,0.06549654409555408,-0.34487921381405934
5.62890625,-0.8796053298243062,0.7805276854864082
5.6328125,1.2566325070107502,0.30873654425893643
5.63671875,-1.4779887573070962,1.868920138137114
5.640625,1.0725148180225812,-0.6928377092449008
5.64453125,-0.780613497464396,1.4618336690040725
5.6484375,1.767390319715727,0.46994413362496185
5.65234375,-0.8863371249741911,0.1057158537018825
5.65625,-0.15635098993483879,0.6831438297549736
5.66015625,0.38252270468059973,0.5568057709308049
5.6640625,1.4600415170430052,-0.2739589021053431
5.66796875,-0.0011580036761472206,1.8130965610759107
5.671875,-0.8735469977113702,0.12101369192246647
5.67578125,0.5911226479770014,-0.7315462114912766
5.6796875,-0.9038539093603586,0.1212991089246302
5.68359375,0.5647903239544066,-0.33350142381999626
5.6875,-0.7470699916740976,0.6696273163993859
5.69140625,-0.5923454012392699,2.692747651809853
5.6953125,-0.1371558608744447,-0.6077283260876226
5.69921875,-0.0029215122211181006,-1.6954283466660767
5.703125,-0.6496846388422628,0.8566773487859864
5.70703125,1.0146806373960653,1.1689281361735075
5.7109375,-0.28630936237867777,-1.527001193894056
5.71484375,-0.5830719590148215,-0.2968276794455056
5.71875,-0.6295826258803094,-0.16694133182857265
5.72265625,-0.7221706244627881,0.32428535995978847
5.7265625,-1.4278511597872625,-0.2937752088912879
5.73046875,-1.3763048838844982,-1.5875047190389426
5.734375,0.1981461008413176,1.1159529845804106
5.73828125,-0.09384176625366349,0.43050216798550456
5.7421875,1.8855976524995877,3.039523797836896
5.74609375,0.5425025616478152,-1.091691721069804
5.75,-1.2281864006641299,-0.743917346610658
5.75390625,1.001142834521812,-0.591985539558121
5.7578125,0.7828540077858914,1.5664751151777907
5.76171875,0.1821655250111749,1.5276576937779824
5.765625,0.4905091677000566,0.4455181715252849
5.76953125,0.4545976608054505,0.15274964641945468
5.7734375,-0.11697418509656764,0.20712370006667633
5.77734375,0.28690757654598376,1.4442749047595405
5.78125,1.2043521004715843,0.2281398148293248
5.78515625,-0.916982136299908,-0.1170726586300509
5.7890625,0.1650523956616004,0.36814204386161853
5.79296875,0.8423898443102564,0.4986709389613724
5.796875,-1.7288752986206355,-0.22593558542541417
5.80078125,0.6415839089001206,0.8271151686467956
5.8046875,1.2446788516540428,0.229081289848895
5.80859375,-0.38602926949188604,1.3640414898071949
5.8125,-1.394076906073001,0.2948524679320386
5.81640625,-1.0209108810048815,0.8610054285696184
5.8203125,0.25288934530988294,-0.5021100345726744
5.82421875,1.090519520868558,-0.4608130027181148
5.828125,-0.728822422820048,-0.03748141628351061
5.83203125,-0.22859107236983664,-1.6444336249745846
5.8359375,-0.23363635371609465,-0.21159116459033134
5.83984375,-0.861791693943016,-0.3557929250499312
5.84375,0.181197040886626,-0.27893001490302405
5.84765625,-0.13444889923489237,1.6185443812998863
5.8515625,0.6463363057038437,-0.48343373708778986
5.85546875,0.9744764022145744,-0.3892995998489593
5.859375,-1.1249283583352503,0.2733676918004651
5.86328125,1.8182420419963141,0.9097988051625372
5.8671875,0.6748758762553959,1.4574451017198344
5.87109375,-0.1496640505652323,-0.39940000946402443
5.875,-0.4384927134886723,-0.2533586774783842
5.87890625,0.24431498432357057,-0.17156031634930868
5.8828125,0.4838549662056002,0.440511822517596
5.88671875,-0.6746836560545562,-0.1223592442617372
5.890625,0.9889349186939957,-0.7689346002189877
5.89453125,-0.18412413200175956,-0.0888575602090369
5.8984375,0.10017858271537337,0.03410298045529229
5.90234375,-1.4739082554070808,0.004659579818129994
5.90625,-0.4044808813404218,0.7206981959114546
5.91015625,0.3020802879955273,-0.0031464790619822477
5.9140625,0.38126644076986865,2.2409651027653577
5.91796875,-0.1972723187262237,0.7297343330731314
5.921875,1.4325593157093945,-0.9290471534321865
5.92578125,-1.2082496924696922,1.179985578468178
5.9296875,0.8647939353381382,0.07589102154812316
5.93359375,1.1457326283502092,0.8814782493380642
5.9375,-2.4294639431930425,-0.3538100511057081
5.94140625,1.2509954421660234,0.5006345901786973
5.9453125,0.4294447304609793,1.2455484394449392
5.94921875,-1.4332768081682148,0.6494150658715077
5.953125,1.8526110940075713,-0.7005346443356131
5.95703125,-1.0105451039969113,0.1420287350545808
5.9609375,0.8175149561237823,0.9429108281820859
5.96484375,-1.5575970751104442,1.0624751667672392
5.96875,0.011235763165490851,-0.3451323367867267
5.97265625,-0.07407681199411204,0.7723951892338413
5.9765625,-0.8946090987197726,1.1754997578505337
5.98046875,-0.9164119692155324,-1.9802394179104232
5.984375,-1.071491904433603,0.5518381362690615
5.98828125,-0.22854368341452405,-0.11460725707232101
5.9921875,0.3375628915888372,0.5361290296764132
5.99609375,-1.8877194550780119,1.641117770110946
6.0,2.1576027387903776,2.295048291525605
6.00390625,-0.7238350532785233,-1.9801470781819759
6.0078125,0.4502786095981447,-0.3163101530966992
6.01171875,0.2762532261162612,0.7533607566533903
6.015625,-0.32659981868548726,1.5951193824652197
6.01953125,-1.5128765461038673,1.3627321986722059
6.0234375,-1.0397552979130744,-1.7889028002887872
6.02734375,0.7122953943893833,-0.9611806044394038
6.03125,1.2158412442632949,0.8125817852013943
6.03515625,1.659743695532827,1.3426137882292357
6.0390625,-0.09965023990948209,-0.09825354242925755
6.04296875,0.0090952609512203,0.04344940162689235
6.046875,1.9530837046052887,0.18328065912118816
6.05078125,-1.9192445137308884,1.1820768609709054
6.0546875,-1.3870324776786693,-1.0692810385814813
6.05859375,-0.335300700186615,-2.0620075442337726
6.0625,-1.4754922628875913,0.17991649819974198
6.06640625,-0.7680980888884907,0.6625797538551874
6.0703125,-0.17733259462221485,-1.96379607506242
6.07421875,0.8064491343974066,-0.05726970641277565
6.078125,-0.2758984195631868,-0.6104323822265283
6.08203125,-0.05615418538373855,0.8218209929146131
6.0859375,-0.41473531783235135,1.5144581829194637
6.08984375,0.17050192425002178,0.6057313169193603
6.09375,0.47409838360163775,-0.5712120226642111
6.09765625,-0.404115323762475,1.2803596540804654
6.1015625,2.281996325413245,0.8973213483347268
6.10546875,0.5458713142342357,0.7544482993867986
6.109375,-0.8413157729392056,-0.48171078597185973
6.11328125,0.46206673929174047,-1.7963226027395098
6.1171875,0.12171546904429793,-1.8222857943093822
6.12109375,-0.20563577210701955,0.4452160788283795
6.125,-2.0514509212732563,-1.000355564309716
6.12890625,0.30676561630741883,-0.219718223469007
6.1328125,-2.1336274437629306,-0.1861091979586063
6.13671875,1.0872164155138615,-1.694580241450615
6.140625,0.4279037437181247,-1.3465322180597423
6.14453125,-0.4731497539424433,1.0586145026649918
6.1484375,0.43845605782827046,-0.10696584811632714
6.15234375,1.088563976214917,0.9974300165668848
6.15625,-0.004616937620467984,0.8323408459764845
6.16015625,1.6741003419268146,0.5668591133450669
6.1640625,-2.1128420868707805,0.40849336758658517
6.16796875,-0.18521649118314581,-1.00033289317675
6.171875,-0.17033537689322395,1.7944394642379335
6.17578125,0.37096565045745006,-1.536381038288625
6.1796875,1.04071360965893,-2.6632411587482925
6.18359375,-1.5949548309285204,-0.4934761096578254
6.1875,-0.025336510491871318,0.07548392356682015
6.19140625,0.10520800031077451,-1.5719590111129105
6.1953125,-0.9268086129949502,-1.4055083427287929
6.19921875,0.45890839388169963,-0.45210145282988884
6.203125,1.059417529370885,-0.531629613121831
6.20703125,0.6632444041830673,0.006057378722674071
6.2109375,-1.386164483537004,-0.9544613128673732
6.21484375,-0.7043435410654212,-1.3437052408831949
6.21875,-2.229240998311534,-0.032325781387037456
6.22265625,0.42294872096405406,-0.7190356016168075
6.2265625,1.0096920120137625,-0.7009644526194183
6.23046875,0.39147003984947454,1.2495230818409775
6.234375,1.2493000552349662,-1.2922366001456744
6.23828125,-0.5302203916720737,-0.26202571721734025
6.2421875,-0.3588656085627024,0.8927811698226578
6.24609375,0.303170376042067,-0.5713637099791321
6.25,0.605169652176586,-0.3779317850315056
6.25390625,2.9002001383434344,0.1828225697505056
6.2578125,-2.3211841325514255,0.4605253476738099
6.26171875,-0.9398865805094322,1.731568981159425
6.265625,1.2519267339597209,-1.2812679155078548
6.26953125,0.7486309524586936,-0.32105013388170583
6.2734375,-0.5038673374018975,-0.3261128083706165
6.27734375,-0.5826023054847593,-0.7870831180612833
6.28125,0.498288085184184,-0.058132657122760965
6.28515625,0.8352426436147592,-0.2906385123396376
6.2890625,0.5546781295181462,-0.13705522915617332
6.29296875,-0.8131582497809569,0.3884182056527282
6.296875,-1.277668576395197,-1.2968696866785514
6.30078125,0.2648721920144415,0.8927044100808423
6.3046875,-0.6627871841720898,-0.6213516688713276
6.30859375,-2.0923950558195634,0.38533568457580986
6.3125,-0.19524608561866053,0.38311833378110044
6.31640625,0.3290503326791576,0.7869535349133846
6.3203125,0.4082419376197556,0.5298862320627756
6.32421875,1.1756781229183488,-0.5733222216012726
6.328125,1.659514506626797,-0.4541782997788123
6.33203125,1.9082103532970296,1.8960068860918484
6.3359375,0.7939335970384327,1.3530495650876382
6.33984375,-0.33120589990044863,-0.3134612519009546
6.34375,-0.7254834323462723,-0.030787525050524456
6.34765625,-0.5199464752096806,-0.16540240195705874
6.3515625,0.3445334958594989,-1.803795017619868
6.35546875,-0.05734759921970364,-1.0828121564002695
6.359375,0.307774327735077,-0.5554855834466854
6.36328125,0.7374422320568869,0.7595353888522105
6.3671875,0.6165681498882291,-0.4657873024206786
6.37109375,-0.8473605969255558,0.18703156920553585
6.375,1.6986193285378015,2.10326007090912
6.37890625,0.37251446362710683,0.09633918740631778
6.3828125,-0.8362531037338207,-0.38797029915512593
6.38671875,-0.37084090002278003,0.9639102521475515
6.390625,0.07526990955738291,-0.5076877820243708
6.39453125,1.415285145876178,-0.163049282134107
6.3984375,1.0792388297158224,0.24094499140612954
6.40234375,-1.9657084174414872,1.0717750165471327
6.40625,1.6957624056605025,0.461808966168673
6.41015625,-0.04682597255562787,-0.4690493695302332
6.4140625,0.22575631065679602,0.10356763015077693
6.41796875,-0.814700260515278,2.1537080836265248
6.421875,-1.374080947012674,-1.6132848698274462
6.42578125,-1.8578508153951696,-0.4008411544169811
6.4296875,1.40433298722054,-0.9645677538419566
6.43359375,0.4521316697073012,2.042718392728206
6.4375,0.834761534637902,-1.945979716098782
6.44140625,0.31515211090625367,1.4749823376193885
6.4453125,-1.274136449287952,1.1277097521197856
6.44921875,-0.4469189226586408,-0.04555304726599269
6.453125,1.4416153782849817,0.7400052863146679
6.45703125,-0.05659701573020612,1.345248531483241
6.4609375,-0.17029974172790432,-1.3520160009645936
6.46484375,0.5929919288460808,-1.5771103040798
6.46875,-0.4558884368579119,-2.0569613591909115
6.47265625,0.19732259576484146,-0.3833708663380896
6.4765625,0.5716865959700751,-0.1507504196208264
6.48046875,-1.7418378573550137,-1.3294724596583973
6.484375,0.7710568984320271,0.7471733132539315
6.48828125,0.9551786356191576,-0.30034874761687297
6.4921875,-1.6638176145132726,0.8440255402518226
6.49609375,-0.08985947304181839,1.2249978586282353
6.5,1.519891793064319,-0.7629360768952166
6.50390625,1.8239475154719655,1.4411964899980496
6.5078125,1.5688113678422058,0.12586664702277575
6.51171875,0.9980202043642351,-0.184015050383192
6.515625,-0.8870427712374407,-0.1848726282753524
6.51953125,-0.8577235661479646,0.4347267295188832
6.5234375,-1.3693881590329269,-0.4020161343983122
6.52734375,-0.16808333461032082,-1.3110217628031453
6.53125,0.8679273585674911,1.3034847257036168
6.53515625,-0.24625646987311162,0.8201310729268996
6.5390625,0.2042515099566892,-0.8066108621920752
6.54296875,-1.6329267116539963,-0.9109541586816868
6.546875,1.3510168354506225,-0.744542094897281
6.55078125,1.8750384504033621,0.2086608734961531
6.5546875,1.6194563903951498,-1.2371356487864873
6.55859375,-0.5969135857686679,1.0610806934663164
6.5625,-1.9726203326867249,0.7867419279297929
6.56640625,1.3811006402559673,-0.20342115658958354
6.5703125,-0.15890380780552502,-1.412920454694073
6.57421875,0.09686915880777378,0.3564084015069047
6.578125,-0.08243193188213799,-1.0669547525927554
6.58203125,-0.8056079845039491,0.6980185668314439
6.5859375,0.9377019207130403,0.8483248271140339
6.58984375,0.5604126871537405,-1.045584485228177
6.59375,0.3689150754802339,-2.2962566148989407
6.59765625,-1.951742674067682,1.18063479379521
6.6015625,1.2167872007167209,-1.0671725837014534
6.60546875,-0.38692313209294327,0.8550922643335578
6.609375,-1.9928045848610463,-0.8962948983675875
6.61328125,-0.1781212615013169,1.7620798639223716
6.6171875,-0.30600534186683853,-3.0125058383702323
6.62109375,2.648733691382926,0.44436417805772976
6.625,-1.458187298953342,-0.9683245703646677
6.62890625,0.9431472295433166,0.4720039180418253
6.6328125,0.7081484911030723,0.8092868043556628
6.63671875,0.35658951542994227,-1.350937863454897
6.640625,-2.2220323983516996,0.2703655320281302
6.64453125,1.4635126300997208,0.005799599850764001
6.6484375,0.14825057510376138,-0.004437935975190647
6.65234375,-1.48449797728171,-1.0736765919452644
6.65625,-1.6336937298625647,-1.7817300819537891
6.66015625,-0.03843312541731555,-0.1909265450209083
6.6640625,0.8430044299497353,0.5758590357236233
6.66796875,0.24525793033628376,-0.5938545794134424
6.671875,-1.6085206554057887,1.2618685002578076
6.67578125,-1.6168279494580977,-1.123086606469268
6.6796875,0.11631883406110502,0.3262052178809578
6.68359375,0.32865409051968153,0.5087013301083625
6.6875,-0.5475106553841174,-0.618667887238131
6.69140625,-0.0951678451203574,0.8667396371644532
6.6953125,-2.1657812024176244,-0.42525476344853824
6.69921875,1.1164468549378073,-0.6891073766169601
6.703125,1.6224048553548946,1.124382382980428
6.70703125,0.23044295471693546,1.0475488097350902
6.7109375,0.3744701690611951,-0.39368125586717784
6.71484375,0.3252826039018285,-1.810955053337387
6.71875,-0.7496733414807766,1.312321406386193
6.72265625,-1.0690945615391774,-0.4110819171709224
6.7265625,1.1771665816233068,0.9350732340711704
6.73046875,0.8016555506601518,1.370227523121588
6.734375,1.5340297956947861,-1.174177461265478
6.73828125,0.8135632389788677,-1.3821615174058601
6.7421875,2.8997463812312656,0.396669205854283
6.74609375,0.5495015707109762,-0.4950258770545103
6.75,0.18436686657066723,-0.9491539425413283
6.75390625,-1.1981924832027366,0.25513019484015853
6.7578125,-0.16941283600747478,-0.879097482763145
6.76171875,-0.3691940728177802,-0.8037074687528531
6.765625,-0.3464354360899281,0.7770533276002639
6.76953125,0.0189440012479031,-1.3870314916258315
6.7734375,1.0184468858892457,-0.010543811870174365
6.77734375,2.097368480627035,1.3205493228117653
6.78125,1.988523591453882,1.026100881015436
6.78515625,0.4743069770600536,-0.7868944946372473
6.7890625,-0.6914771932359722,1.32552756762831
6.79296875,1.0806163213193791,-0.7581151417151966
6.796875,-0.5237407281358146,0.7387603686714946
6.80078125,0.3788979396230293,-1.2976081866355385
6.8046875,-1.0913654687730105,1.5207202549388166
6.80859375,-0.10947833101429048,-1.099795058879117
6.8125,-0.3884249004803836,-0.8682202494810707
6.81640625,-1.4135042852820747,0.4315225712092958
6.8203125,-1.022335885848896,0.7152775344447666
6.82421875,0.7976445533956472,0.6568092479463538
6.828125,0.2662633346574031,-1.2466265565423822
6.83203125,-2.4018462489206294,-0.008490277165295426
6.8359375,-0.9278736746256653,0.24087647288901654
6.83984375,-1.099103789469575,-0.8322907267602786
6.84375,0.09903512230018248,0.9447562914352698
6.84765625,0.1114574944095161,-0.36105255774922695
6.8515625,-0.7954798182204869,1.8298912866140797
6.85546875,-2.3600810505264382,-0.5698047870921636
6.859375,1.0267120160209329,0.6971620888683321
6.86328125,-1.3537444111329053,-0.2261990575052569
6.8671875,-0.15463067277098475,0.3997024072763979
6.87109375,-2.177150300061315,-0.7260879954682925
6.875,2.824610441792866,-0.3326684173525571
6.87890625,-1.2371003154157105,-1.9541868211463334
6.8828125,2.8901320762209557,-0.7755139278092912
6.88671875,2.0125636869189427,-0.5748454420064356
6.890625,0.22432694897443198,-2.0541139337922703
6.89453125,-1.9279895153888098,-0.5703727217206234
6.8984375,1.0922246349924853,-1.7415817550848653
6.90234375,0.2957337136933214,1.7754259927967029
6.90625,-0.5506127794400426,0.23896544354055546
6.91015625,-1.0074327916099415,1.0834279788318852
6.9140625,0.13198594002944913,-0.35132802901389576
6.91796875,-1.9193140419204529,-0.6572748167317866
6.921875,0.6931541732347318,-2.297503233086251
6.92578125,2.112803214481135,0.7943095032887191
6.9296875,-0.2434128428400144,0.14119419967226643
6.93359375,-0.6890740432898258,-0.9062566725674429
6.9375,0.7594467517599307,1.5621957338828503
6.94140625,-0.4086584510258942,-0.1997197203307958
6.9453125,-0.5938435927335841,0.6479847405962363
6.94921875,1.6019408071867196,1.4347770467468066
6.953125,1.501658857414391,-1.3838601188723312
6.95703125,0.2907569727545423,1.396422029250538
6.9609375,0.9377061990434465,1.3493919720670515
6.96484375,-0.7914805799896875,-0.16494140645799024
6.96875,-0.891159084343924,-1.2761605921875996
6.97265625,-1.1001187271762332,-0.2569431555465783
6.9765625,0.4675047432750736,0.8593042610253615
6.98046875,0.1324257491783187,0.3924593942897508
6.984375,1.0669064759815277,-0.46193500945083676
6.98828125,0.9562332011949092,1.081601457102397
6.9921875,3.2896486586289,-1.131589878625495
6.99609375,0.7492723473481351,-0.05762709988460256
7.0,-1.8697067120234208,-0.05995234334104137
7.00390625,-0.3792525913711332,1.5198295482056983
7.0078125,0.46930680335026637,-0.25609089713565414
7.01171875,0.4141850003491434,0.4153963432889607
7.015625,-0.32767720717226406,-1.7402064749646675
7.01953125,-1.0843182247793142,0.347814825639899
7.0234375,-0.5095517818493521,0.520258070948849
7.02734375,0.9557312904308107,1.0003148063952565
7.03125,-1.347289789157183,-0.05976447804595066
7.03515625,0.9989189351686384,-0.1491672760358698
7.0390625,-0.16289261519572304,0.8744609854071249
7.04296875,1.5687418499624648,1.34718263193608
7.046875,0.28010185884034783,0.6620376929502904
7.05078125,0.7719137767255394,-1.526476034444794
7.0546875,0.35568496014800666,0.5165132440196932
7.05859375,0.19300027850636045,-0.9238233670684428
7.0625,-0.08888029782844613,0.5227787572348673
7.06640625,0.47251369115693054,0.1578116932170288
7.0703125,1.871066022354279,0.2292829918985185
7.07421875,-1.0128236878603856,1.5397426270826475
7.078125,0.07664129317317335,0.430456245504832
7.08203125,1.3680066998782543,0.11405084096467275
7.0859375,0.5101319599831051,-1.5280700260359419
7.08984375,-0.15037947146235692,1.5102382923192514
7.09375,-0.48506639198233953,1.0437255046862521
7.09765625,-2.0534776595452544,-0.07270451253738819
7.1015625,-0.3807788063790894,1.2664082811989104
7.10546875,-0.8223689645559493,0.9387647371222729
7.109375,-1.0039097474684624,-0.6551474715765851
7.11328125,1.2655551721033889,0.2429933851120919
7.1171875,0.33533620129950864,-1.1213754409441108
7.12109375,0.47886743787784297,-0.32038545061318097
7.125,-0.39545836043685595,1.5695533788098257
7.12890625,-0.7612742428724382,0.32471617811881065
7.1328125,0.49537505741695104,2.739467863200383
7.13671875,0.022725134987443545,-0.49450053784672526
7.140625,0.48991020748428155,-2.616965036243758
7.14453125,1.1094491183602528,3.1399500285194737
7.1484375,-0.4456032329227462,-0.3561026162369816
7.15234375,-1.3517236991442554,1.6665135634428012
7.15625,-0.6871344817365596,2.1882827537406437
7.16015625,-0.15667888408478134,0.20922732405759398
7.1640625,0.34694994037592014,0.9624256231760316
7.16796875,0.11793450576404757,-2.0513567776505104
7.171875,2.2134846481441364,0.18349802463706114
7.17578125,1.1674364494781984,-0.7120721701620756
7.1796875,-0.7001156349637317,-1.5042476681042862
7.18359375,-1.9067757705589041,0.816224243042516
7.1875,-0.13751455128829,-2.463822153247497
7.19140625,0.8218206886106189,0.25119962516258937
7.1953125,-0.7476379023852464,-0.4909465137837984
7.19921875,-0.6505312194909912,-0.031719382387377044
7.203125,0.6327585680719225,0.9779325010350195
7.20703125,1.6096408000634668,1.5635894183185572
7.2109375,-1.1378121317894454,-0.5042415275662394
7.21484375,-0.12313894069218158,0.38310573062748104
7.21875,-0.35569386325349184,2.1502317854524375
7.22265625,0.27741020819645956,-0.8463122704586217
7.2265625,-0.6525783530116597,-0.05187887576204464
7.23046875,0.8789910010024763,1.0315336029821656
7.234375,-0.9147522437410446,1.4978857890176658
7.23828125,-0.3186041376108394,-1.6368538003632207
7.2421875,0.6529898187801689,0.43177128619684585
7.24609375,0.04479096225329399,2.0170915632857094
7.25,1.804106233885522,0.02567621977945224
7.25390625,0.6685786687378298,-0.13336719469070854
7.2578125,-0.6804641793173284,0.4083974321076502
7.26171875,-0.9799577115232508,-0.04799817700771015
7.265625,-1.1533291332860773,0.0103094989907967
7.26953125,0.6850336473375469,0.8472867193965551
7.2734375,0.6811192357664323,-1.0583543302722733
7.27734375,-1.0046070998102132,0.00411262240987823
7.28125,-1.1613512985029437,0.7214731571923212
7.28515625,0.3709300631737367,2.068478187424374
7.2890625,-0.32987774880000165,2.3659554075560036
7.29296875,-0.9378902312038753,0.30525788338910387
7.296875,-0.6475348567873822,0.28154546508904543
7.30078125,-0.8546449959142417,-0.04667915629967419
7.3046875,0.4861673588990397,0.07649901609428922
7.30859375,-0.2847288638565843,1.7079092545801886
7.3125,-1.1814507659878397,-0.3104076580490622
7.31640625,-0.5689995677642302,0.93211941253893
7.3203125,0.7854785802890657,-0.7385307832032628
7.32421875,-0.6355189076921083,-0.9012633702295755
7.328125,-0.4121511941412448,-0.8338257677008569
7.33203125,-0.2982344872565439,0.5582074272304278
7.3359375,0.7966808045786531,-2.529607355754091
7.33984375,-0.04411262631948832,0.8350673770234893
7.34375,-0.10096718241802793,0.25431552316962086
7.34765625,-0.33873807381398574,-0.683429349286815
7.3515625,0.6389574237618009,0.29987161247489563
7.35546875,-1.0063605425724822,0.1087185786882614
7.359375,0.021651128374500214,-2.165246252916908
7.36328125,2.4191927450276927,-0.3367551154444736
7.3671875,0.7182121887236982,-0.18919294212906282
7.37109375,-1.7847794907706709,0.5409593503773077
7.375,0.7100164015496645,-0.49996462410880793
7.37890625,0.3776685810275294,0.8692719923242072
7.3828125,0.04789671146384921,0.2551270089575188
7.38671875,-0.8699865344203146,-0.2770513402902176
7.390625,-0.37375486421035675,-1.9964475401119468
7.39453125,-1.3535064603000377,-1.8065911534187136
7.3984375,-1.7347634395937834,-0.07057007986200524
7.40234375,-2.1072063580002145,0.451884608866998
7.40625,-0.7732823061670043,0.09977141069501023
7.41015625,-0.839929814595486,1.715810556817334
7.4140625,0.5734947770873137,-1.5854219341652527
7.41796875,0.40996140586501095,1.2140156959040649
7.421875,-0.08524805931587996,-1.0597410191867633
7.42578125,-0.27189144245604036,-1.0729333550191507
7.4296875,-1.6811482088353582,-0.1247144757688424
7.43359375,-1.3145581047080133,1.7045055064481205
7.4375,1.0936904773111968,-1.2535936372224963
7.44140625,-0.3502464976431412,1.3578404221275793
7.4453125,0.7873272888221062,0.5439022242528092
7.44921875,1.8823875359151918,-0.5186526318320114
7.453125,1.7022158799922928,-1.1454567517559706
7.45703125,1.1354516984599499,-0.34822144870952104
7.4609375,0.5406214208389344,0.29658542108242236
7.46484375,0.7608029519599756,-0.12206976486994711
7.46875,-1.3980833990403898,0.060644235864483934
7.47265625,0.7226262183433941,-0.623732961584093
7.4765625,1.2374394354005898,1.039618683640661
7.48046875,0.41385487529633697,0.7527931860418614
7.484375,-1.8706360815785577,0.6042426816572682
7.48828125,0.3723571287135791,-1.0223128900604186
7.4921875,-0.0936836048364225,-0.004739911815012927
7.49609375,0.6305196763997425,-0.2834799307698832
7.5,-0.5457472621290373,-1.9281802072712146
7.50390625,1.1624989002856252,-0.3519192510213623
7.5078125,-0.5888557386949387,-0.8202671657864804
7.51171875,-1.5689074815736874,-1.566487296760301
7.515625,1.6957064804908335,1.3515356775789378
7.51953125,-1.3636594842942251,0.545752040214087
7.5234375,2.398299296807066,0.12233430049945133
7.52734375,0.6069570862893542,0.034577237441100014
7.53125,-1.3792254551241632,0.4224795648467559
7.53515625,-0.03495261443229188,0.8070559764281414
7.5390625,-0.5993141495071898,-0.40685339190504605
7.54296875,2.1508024686900393,-0.4304180685836178
7.546875,0.5063031941364795,-1.6286668973358116
7.55078125,0.8901284604592983,-0.26082970200535177
7.5546875,-0.16841682087554777,-1.3710004214957217
7.55859375,-0.17680487494234634,-1.3361520728155885
7.5625,0.33284448039768283,-1.4570111678283575
7.56640625,-0.034279010245724585,1.7616140979088715
7.5703125,0.20572966184279673,-0.1526039334857771
7.57421875,1.190997386258495,1.0444033693942363
7.578125,1.970837251334096,-0.3672379123843312
7.58203125,0.047003972342418945,1.2712878250646427
7.5859375,1.9655318695151007,-0.5177554041664755
7.58984375,-2.6372346884259215,0.9761762742639645
7.59375,0.31231593655901974,1.288708993368769
7.59765625,0.2377355620420211,-1.510046036512102
7.6015625,0.4550013952771117,-0.7858763576149509
7.60546875,-0.37025138677530106,0.24325316010527528
7.609375,-1.3976442967052354,0.6602190167492621
7.61328125,-0.9615361504377936,0.7716565585532085
7.6171875,0.293216951328904,-0.1505771984356232
7.62109375,1.6577202653502947,-1.2846526536488199
7.625,0.7818476356921028,0.08666892744200487
7.62890625,0.6876388799042752,0.6719041799460728
7.6328125,-0.9789808462944689,-0.47230959050058563
7.63671875,2.1231719983758652,-0.11987033166001199
7.640625,-0.587663374849296,1.540658461932763
7.64453125,-0.5301173594294051,-0.7592042349135437
7.6484375,1.184415445465667,0.6951870547117909
7.65234375,-0.20178172429563979,-0.13753774166373037
7.65625,1.424490673694738,0.5307031947402195
7.66015625,-0.2931285061994222,0.09402429202838106
7.6640625,2.2295828061757894,-0.18385326975859312
7.66796875,2.0524647868229344,0.698881190945239
7.671875,-0.5724915805146082,1.7482142851644333
7.67578125,0.4827514790685607,-0.3552845810321417
7.6796875,1.470949428253694,-0.9265994746917205
7.68359375,0.06910597332280528,1.8378845708796023
7.6875,0.2791047636939027,-0.5188305604382455
7.69140625,-1.2248838980075298,0.0849335430739523
7.6953125,-1.7319057046954556,-0.11269664753767136
7.69921875,1.6188620094862516,-0.6190289767176619
7.703125,-0.6199248928444426,0.28578902361424346
7.70703125,-0.4570534507529744,-0.347572618544612
7.7109375,0.3185720183986684,0.449245503143348
7.71484375,1.8043724617575185,-0.21522043978633737
7.71875,1.9665888739414552,-1.2604623834731747
7.72265625,-0.21837750019471652,0.9093296069966894
7.7265625,0.13251834797300588,-0.043631541652957545
7.73046875,-0.5089633491004597,0.2814394117890572
7.734375,-0.796066466277783,-0.4295338897835391
7.73828125,-0.30713812138893837,1.6347273068018526
7.7421875,-0.4891536318385316,-1.6627171374812026
7.74609375,0.5766562322791515,-0.39233552119308596
7.75,-0.008430904193380571,-0.8257479767385494
7.75390625,-0.7388346820298525,-0.44863581326015484
7.7578125,-0.9869802361354342,0.9222744587373368
7.76171875,0.28606804921203327,-0.08306551114139869
7.765625,-2.72764571902433,-0.3157145262452243
7.76953125,-0.35315809407913545,-0.7528699137284783
7.7734375,1.5599801435149807,1.2258199505758873
7.77734375,0.4886258066662579,0.25999779877317875
7.78125,-1.114279258475857,-0.9784719397131756
7.78515625,-1.9763602329062562,-0.10829132509251528
7.7890625,0.7345401736987204,-1.4994627348503848
7.79296875,0.582385475626886,0.5812123312321569
7.796875,1.0889229842117745,1.413768206471592
7.80078125,0.5860954042699698,-0.03207842636241567
7.8046875,0.2651787284339706,0.3920735831101535
7.80859375,0.6233926673554249,1.0636834606149506
7.8125,-1.4225820057452279,0.10481361149785919
7.81640625,-1.4785191205621826,0.4969429077185019
7.8203125,1.48031166319714,-1.1438904869330115
7.82421875,-0.40135389118114345,1.582995710905494
7.828125,0.37943362740208547,1.3778288810492432
7.83203125,1.3177855133811043,-0.5385847242695198
7.8359375,-1.268300388177,-1.2770852550462943
7.83984375,1.6725072711175466,0.06846379863416928
7.84375,0.940606260757416,-0.5994970233291976
7.84765625,-0.5839519048715676,1.6328924420708149
7.8515625,0.5368298993949354,-0.7397336639864573
7.85546875,0.8821902001251326,0.8709133569138653
7.859375,0.5115639620823552,0.8879771241985014
7.86328125,-0.49303606506176983,-0.1827602946745148
7.8671875,1.7238430463638403,0.24478739415754514
7.87109375,0.3834410387166847,-0.455243492293732
7.875,0.6709982613530566,-0.006503101627803902
7.87890625,0.30928119115131497,1.3543035157396337
7.8828125,-1.447997973417621,0.009451718926054033
7.88671875,0.4898894876454558,0.8818723097603307
7.890625,1.065826295093321,-0.16849173359883252
7.89453125,0.3416920591214571,-1.302614262721227
7.8984375,1.303800233372992,-0.8156430828352282
7.90234375,0.5426803131773772,-0.1556349688914653
7.90625,0.14076535003556598,1.4199704217163382
7.91015625,1.6088606821301594,0.3369177699195378
7.9140625,-0.1624028567960853,-0.9491816760513928
7.91796875,-1.7510389168749314,0.54182519905225
7.921875,0.34881826541947486,-0.2717668699345068
7.92578125,-0.8807414355217638,0.6439236931212915
7.9296875,-1.2879999509780418,1.1642425659638973
7.93359375,-0.5846402726642015,0.4536934345942209
7.9375,1.9513538026372912,0.6823563226792643
7.94140625,0.8572849248921447,-0.23701332539524517
7.9453125,1.6478434226668017,0.9961445736805147
7.94921875,0.9515665868683594,0.8340214172666807
7.953125,1.2536703648642449,-0.29211966297296565
7.95703125,-0.5923717169507247,-1.098619068102532
7.9609375,-0.748060822123953,0.0285195192009788
7.96484375,-0.8038504601226122,0.6515063632302489
7.96875,-0.7202568696030845,0.08115573806886374
7.97265625,-0.6034208679473234,1.1046913234066864
7.9765625,-0.09002690410711987,0.6267150960756342
7.98046875,-0.7074600252361543,-0.5966666509359371
7.984375,-1.2056269120636753,0.025124544242765574
7.98828125,-0.8967513527760277,0.7504300085644401
7.9921875,-0.01125373789967539,0.23393941762876272
7.99609375,1.9244458868733691,-1.8533515385892592
8.0,-1.8022584424193893,0.7577363750334537
8.00390625,0.2959542318765964,-0.07762458358029624
8.0078125,-0.6301930537345308,1.5241449474103572
8.01171875,-1.154488276830721,1.696297632454823
8.015625,-0.4107403547466276,0.7727032665671916
8.01953125,-0.8675786914476878,-1.2181212220379198
8.0234375,-0.5042017445289733,-1.6696589119935763
8.02734375,-2.0185987727675574,0.7361255127060344
8.03125,-2.126510524394497,-0.5578858124514973
8.03515625,0.08137246351047935,1.2178071955587417
8.0390625,0.33982326690671916,-1.6312642863577913
8.04296875,0.40655922203391764,0.6380401098524542
8.046875,-1.4192718262984276,-0.4024695019250556
8.05078125,-1.2007992894907351,1.0609954340531158
8.0546875,-0.05200684923427597,0.5419080059506817
8.05859375,-0.6059522775663858,-0.08919546986257307
8.0625,-1.236832578167425,-0.7289724683592046
8.06640625,-2.019687720512321,-1.2188416697614541
8.0703125,-0.49699519727343394,0.2896973975215651
8.07421875,1.4060216772164218,-1.7297088327586085
8.078125,0.24423479261252434,-1.2101373748454454
8.08203125,2.4363553058392746,1.1277236408753315
8.0859375,-0.0697371617110191,-0.25555630464550544
8.08984375,-0.7188855842387186,-0.41539082162343083
8.09375,0.833158660500379,0.174347972203848
8.09765625,-0.015133899132804563,-0.852853349956794
8.1015625,-1.5075866780648783,-0.1654807376686752
8.10546875,-0.27370152002640247,1.8041892971526965
8.109375,-0.8755467127925728,0.24580921148373472
8.11328125,0.5759808329793819,-0.958645522385846
8.1171875,1.6738331658299672,-0.8180405111989548
8.12109375,0.40485339560722855,-0.02481179188962927
8.125,-0.2607285063796792,0.7254553716883563
8.12890625,-0.6507769435169999,0.391235077677122
8.1328125,0.526035553579389,-1.1610334300539316
8.13671875,-0.5106021094880011,-0.29745692088612485
8.140625,-1.2168605667330084,-0.09554979974243011
8.14453125,-0.16247531133947002,-0.6907360447451493
8.1484375,-0.3685039280492165,1.867347141694875
8.15234375,-0.5094061357227101,-0.20435590574505758
8.15625,-0.1258867495592004,0.288933620342041
8.16015625,1.0611106709228744,-0.5367526755993797
8.1640625,1.4385712167615274,0.7084213848150702
8.16796875,1.2056470631908993,0.3215774386548013
8.171875,-0.653953543310777,-1.050890398678443
8.17578125,-1.223024899679192,-0.9161371864906703
8.1796875,1.8498510945812554,0.9389591161873839
8.18359375,-0.06768780595756678,0.27701025717391037
8.1875,0.7559174282790218,0.9581817605247133
8.19140625,0.8560921445964379,-0.5134229523732076
8.1953125,-1.0645580467419853,0.45504603535559585
8.19921875,1.3023041969618883,-0.3038531464022432
8.203125,0.05551496328335827,0.05724267736688021
8.20703125,0.5534988012209855,0.16008665875271613
8.2109375,-0.99959923525156,-1.7876101582660306
8.21484375,0.7266130071480131,-0.3089259195730613
8.21875,1.8479121500464726,0.6416317943536981
8.22265625,-1.1417081004853618,-1.0119942564543052
8.2265625,-0.3847717740353278,0.135754395552136
8.23046875,-0.3496129083810166,-0.28524844447134995
8.234375,-1.459246416895129,-0.2215380485667598
8.23828125,-1.0825361778709617,0.5358965162441426
8.2421875,-1.7610023772859076,0.16899653992708008
8.24609375,0.044289228800706966,1.48555353629784
8.25,0.5547868236566235,-0.9327732301398788
8.25390625,0.19724076767585955,1.145464403953893
8.2578125,-0.6956431904942196,1.4812323384827992
8.26171875,-0.49868308475909273,-0.49782184800498275
8.265625,-0.4685376392737362,0.9070043854353689
8.26953125,0.10420609255846537,-1.2475897112674146
8.2734375,-0.8959476342720831,1.9025040114244332
8.27734375,-0.297625692253227,0.5594948770475177
8.28125,-0.26345617154123707,0.8058022885990614
8.28515625,-0.84831979911385,0.29664082528317703
8.2890625,0.8742994502433042,1.025359944236384
8.29296875,-1.2066076938969397,-0.966834487532973
8.296875,-1.8826111459146728,0.1933013981970706
8.30078125,0.41148473576392963,1.0100312144639607
8.3046875,-1.9423511704891396,-0.786806610672369
8.30859375,0.6890750307780368,0.7192615565959452
8.3125,-0.40441291217401243,-1.1867909678572237
8.31640625,-0.10758080438943304,-0.685123619345596
8.3203125,-0.8201833511476502,-0.02092431082470394
8.32421875,-0.6641718932798664,-0.008961191119356855
8.328125,0.533466440320576,0.9625259945144019
8.33203125,-0.6841509955798355,2.1815187404825167
8.3359375,0.7116864011653371,0.22714611408362445
8.33984375,0.252968392693458,-1.2317692999149248
8.34375,-1.781586751510901,-1.6486781508145636
8.34765625,0.38272922915363095,-0.0009733684134074693
8.3515625,0.19735622168766168,-0.13441068190967845
8.35546875,-0.8899280014169557,0.34571693109532253
8.359375,-0.7768730241676461,0.4533315244733753
8.36328125,-0.7089123899494859,0.01823263614408943
8.3671875,-0.9484824079577582,0.8673977168272391
8.37109375,-0.8957064434554439,-1.159280146557542
8.375,0.29208010624961456,-0.5371267131805715
8.37890625,-2.0452714825990506,-0.31592195942588186
8.3828125,2.6529188530767636,-0.5642263799125206
8.38671875,-0.3004838072243167,-0.0723780159951127
8.390625,0.4137033597334916,-1.5189123745049176
8.39453125,0.7787231753873533,0.9771503985417342
8.3984375,1.0762827244897246,-0.9928527633083888
8.40234375,-0.5868899450450955,0.25792025481146
8.40625,0.7918187258134178,0.18737835788625679
8.41015625,1.756690429168375,-0.13467581028126135
8.4140625,-0.051207840086031096,0.24830404126238284
8.41796875,-0.9177981290327883,-0.3385646363481393
8.421875,-1.390887407885392,-1.2685255617522517
8.42578125,-1.5210155804474916,0.24604877287903848
8.4296875,-0.32425317841692225,-0.8379467892000574
8.43359375,-0.846412466225988,-1.86750114743649
8.4375,0.4059640179099006,-0.9453273155961409
8.44140625,2.009529030640403,0.9536261374275702
8.4453125,1.1769735408094684,-1.644363795186797
8.44921875,0.03198255062105189,-0.8418168386161873
8.453125,1.1686920699101893,-0.37039352997089897
8.45703125,-0.843079163984854,-0.47322789901180773
8.4609375,-0.06546921305682207,-0.586720670348787
8.46484375,-1.6370290313059594,-0.6671910950527694
8.46875,-1.4998838210738528,-0.32217451009533915
8.47265625,-0.9183509159018368,0.054147208213348154
8.4765625,-0.2729748987180911,1.622672134075932
8.48046875,-0.22967944397140097,-0.38555236676782395
8.484375,0.24350115034213088,0.29096126962287144
8.48828125,-0.24938409298010517,2.4042245502869704
8.4921875,-0.4064415714295912,1.0778352518065808
8.49609375,-0.08862401155415493,-0.08104853010294794
8.5,0.7072281117537352,-1.2811701213876605
8.50390625,0.44942962885195226,1.7492353774398544
8.5078125,-0.16257464938418503,-0.3814918402307164
8.51171875,-1.3079795305162938,-1.2085486932887397
8.515625,-1.4621128288901772,0.04553796509845443
8.51953125,1.0028431117288414,-2.2800613821070925
8.5234375,0.903631144825456,0.9163920938690878
8.52734375,-0.8782054383931571,-0.0701548762271017
8.53125,-0.5629289922310081,-1.5794120100009195
8.53515625,-0.9223144243766722,1.3481886251910171
8.5390625,-1.037914980763464,0.5056851983378322
8.54296875,-1.2675255625868116,0.8656973402131293
8.546875,-0.1344324285490152,-1.6628024528677623
8.55078125,0.48460245898378207,-1.117446795803957
8.5546875,0.9137606066985499,0.3291180297565439
8.55859375,0.15291510094255098,-0.7338537562939756
8.5625,0.8710198493545872,1.327424799311881
8.56640625,0.2597398621250332,-0.6558661650104536
8.5703125,1.3826642439080032,1.0555665785032016
8.57421875,-0.0984966081753383,0.549470155258737
8.578125,0.15246336757078163,-2.5433671538924285
8.58203125,0.15245078527775352,-0.03168443079882997
8.5859375,-1.9813199986182244,0.7016100189166518
8.58984375,0.09956209619269449,0.6711527187135986
8.59375,-0.6965952851029004,-0.943362295603694
8.59765625,-0.3047640434659877,-1.045701394378101
8.6015625,-0.3038287709556174,-1.4140507193164906
8.60546875,-0.28699318123206347,1.2506660868094983
8.609375,0.9602915780331721,-0.6594322639556128
8.61328125,-1.1048559598033312,-0.3764076774609813
8.6171875,-1.5505839678686564,1.2121255324258662
8.62109375,0.27915123850081097,0.9113584293305189
8.625,-0.39809979444198385,0.36771481031835207
8.62890625,-1.0218660303125406,0.6244746049393217
8.6328125,0.42570151217632807,-0.17331471522556047
8.63671875,0.041657565415272484,1.0215394657646606
8.640625,-0.04174259743073527,0.33418451845481734
8.64453125,-1.5396509456950553,1.1541213946820088
8.6484375,0.7118894503775344,0.8883522797816402
8.65234375,1.6479505769362504,0.28310589169946837
8.65625,0.58239168269917,-0.5523114927395883
8.66015625,-0.5535794069603671,0.21479599997339394
8.6640625,0.9942246983192555,0.9584016564141862
8.66796875,0.6310443450035614,1.0336851931234796
8.671875,-0.09736755894794137,-0.4770853133419973
8.67578125,1.7847969880152452,1.33848675762651
8.6796875,-0.2910615279506782,0.2736761587932008
8.68359375,0.2947090494568906,-0.4683105523530901
8.6875,0.8290021950180211,0.2400986568863289
8.69140625,0.10055061638714724,-1.561403747981764
8.6953125,1.3864390887145337,0.6357963110086915
8.69921875,-0.6496857538805142,-2.7893914110903673
8.703125,-0.6484540642965411,-0.14370000595763757
8.70703125,1.0295803399184984,-0.9947394381113448
8.7109375,-0.05807312581369332,-0.4777283243687298
8.71484375,0.4939487798302566,0.08145209741085167
8.71875,-0.9269591286285409,-1.026574787336442
8.72265625,0.07790773182674675,-2.7408044051553526
8.7265625,-0.28999341971761305,-0.40181118396352933
8.73046875,0.4937205299870411,0.28136419033078347
8.734375,-1.195239217274203,1.4509391788772663
8.73828125,-0.23137244334547413,-0.3305241200016182
8.7421875,0.2382259950180248,0.3960667593707035
8.74609375,0.10147773314198354,0.3172404516477569
8.75,-0.6772477925840621,1.3680945853279887
8.75390625,1.1314636723433724,1.5165903437124477
8.7578125,0.45872543571099295,0.9728618790582015
8.76171875,-0.4071946780288397,-1.142445280620016
8.765625,-1.013841760014261,0.1101037149454301
8.76953125,2.4984588097552702,1.684704272811726
8.7734375,0.4078298804647763,0.3598006322050153
8.77734375,0.3311754241040501,-0.8492215749569847
8.78125,-0.8687951030043365,-0.45027280571876654
8.78515625,-0.08377372748250338,-0.4399408543069506
8.7890625,-0.7030736111666208,0.3678429924823562
8.79296875,-1.4431260084455264,-1.0358672167754748
8.796875,-2.092273244263494,-1.839402442508497
8.80078125,-1.3210490181314551,0.5227255689275324
8.8046875,-1.7708790810815327,-0.022330093775122274
8.80859375,-0.7944704747399799,-0.3095645601860202
8.8125,-0.35212282896488095,0.38884560650937394
8.81640625,0.17079046798967312,0.404311870868897
8.8203125,0.033140220816175986,0.16435605276329152
8.82421875,-1.0633610874270567,-0.7822757793352958
8.828125,-1.6887130844030087,0.8043195742986876
8.83203125,1.2189315430364691,-0.29689918380582875
8.8359375,-0.2511224354760619,1.4805304182290275
8.83984375,0.2429000515390655,-0.2946051796512716
8.84375,0.07045300651748981,-1.0464189761581633
8.84765625,-0.1221554725517294,-0.8321665113566447
8.8515625,0.026768644268127844,-2.019662607702861
8.85546875,1.4368538434371694,-1.8242823978417164
8.859375,0.2269262570300287,-1.171419401259763
8.86328125,0.02341855693089635,-0.013734063621639146
8.8671875,0.460414151352668,-1.291929274806715
8.87109375,0.08612637808383525,-0.07973613352615054
8.875,0.4257466165756318,1.3814981250806369
8.87890625,0.08732939066297585,-1.4963154431499364
8.8828125,-0.18279569312838434,1.5301918443655225
8.88671875,0.983069964709692,1.6877854217886743
8.890625,-0.038920680936805806,-0.5119045102197849
8.89453125,0.37401956487107046,0.6194643975869081
8.8984375,0.6592555993719276,-0.1456085618765587
8.90234375,1.8244798317105404,1.8813858548138978
8.90625,-0.7250181999059524,0.1671344085049751
8.91015625,0.29756562034843387,-2.038709277643966
8.9140625,0.6955913696879176,0.6294274521984253
8.91796875,-0.4854314057034452,-1.5844550298753526
8.921875,1.1969548982638027,1.2819200303993423
8.92578125,0.34763273559374036,1.5896386927834136
8.9296875,-0.05572376365639727,-0.4379889794238797
8.93359375,2.1643813690774207,-1.522336437120619
8.9375,0.572871385147052,-0.3643046771019795
8.94140625,-3.178672403289274,-1.9057258080253672
8.9453125,-0.8610677597080595,-0.575742946643507
8.94921875,-0.6259510190598344,1.214635237106815
8.953125,1.3918700110960465,0.018519803529491435
8.95703125,-0.7017244738612967,-0.49082987938644845
8.9609375,-1.3282946529434165,1.9848147457507332
8.96484375,-1.3707060660305375,-0.47996109117922986
8.96875,1.0953820018254787,1.0692719009065506
8.97265625,-0.7021434231105883,0.5661212100343431
8.9765625,-0.15617290629982128,2.177879687475225
8.98046875,0.43803685866319486,0.3573863278125759
8.984375,0.7270125474180466,-0.46095110311987325
8.98828125,-0.986278484283759,-1.195676845785274
8.9921875,0.1942744444976874,-0.08236730114036937
8.99609375,-0.3661556409251399,0.33835490894544346
9.0,-0.027856138195798238,-0.35660600088266947
9.00390625,0.031464324109630605,-0.17263901085235284
9.0078125,2.1968848795264466,-0.7937486585151733
9.01171875,1.4216744852875713,-1.1050982951664916
9.015625,1.2094006483462378,1.5238733160886373
9.01953125,-0.901544591696646,-1.076223207893203
9.0234375,-1.127093340585407,-3.181783393748596
9.02734375,-1.3719506084255193,0.297627156830833
9.03125,0.20731797061455298,-0.22188124213314112
9.03515625,-0.3932222814390594,1.5363614241276684
9.0390625,-0.7682726300581795,1.1825894547745324
9.04296875,0.1486611892294558,-1.316569963125452
9.046875,2.1551623140101697,0.002000628312874114
9.05078125,1.6984488154319575,-0.19822280587952826
9.0546875,0.8740196615396628,-0.057408359309239286
9.05859375,-0.8033374653562968,0.5174329223954188
9.0625,0.1266405908783403,-1.2322001459485081
9.06640625,-1.0176032082677227,0.9034569168220329
9.0703125,0.002337428952025575,-0.2147903491705869
9.07421875,0.8522821024821415,-0.2946826965903003
9.078125,0.955638006889541,2.326017772280908
9.08203125,-1.4050401709387836,-0.7918460315509327
9.0859375,0.5143238701074992,-0.6761710281757122
9.08984375,0.0704947477794856,0.7998522502858032
9.09375,-0.0016454648625668484,0.6364600377869541
9.09765625,0.897392008110628,0.5085928088165166
9.1015625,-0.5653808722961285,0.9945312760604725
9.10546875,0.3835342835583977,1.2463610410078765
9.109375,-0.016593425890269606,-0.7899510999296032
9.11328125,-0.1445761745183958,1.1982354525577565
9.1171875,0.2790741521459482,0.004166687299632931
9.12109375,0.3668227020817446,-0.3568790814807753
9.125,-0.6260174089715805,1.501048309850799
9.12890625,1.797556539691085,-0.21384886437888415
9.1328125,-0.1814155901018014,-0.16426461403807233
9.13671875,-0.26153641985871284,0.06650724037447829
9.140625,0.5140522525993293,2.6316613903885315
9.14453125,-0.27352820031924635,0.1429050895211669
9.1484375,0.8737993462323197,-1.9436691584855452
9.15234375,0.8659818023631052,-0.3355039990936395
9.15625,-0.20961368970033334,-0.49793039868770345
9.16015625,0.0838445785266007,-1.6129232698950304
9.1640625,2.06187892323598,0.19254223593098513
9.16796875,-1.53571111180918,-1.3660366672900979
9.171875,-0.011540555217811287,0.26479990827563743
9.17578125,0.013558174700985914,-0.5538080745256135
9.1796875,1.3472592638386207,-1.2311198402596566
9.18359375,-0.9381310458932464,-0.17020159245791341
9.1875,0.7601316677062417,0.010402963520122186
9.19140625,0.2575688079923415,1.6408722482565974
9.1953125,-0.9456601604566021,0.7885224400228625
9.19921875,-0.6611100134526828,-0.6712547670851285
9.203125,-1.063786733470714,0.2924091269949402
9.20703125,0.6864366988909422,-0.9392266543064977
9.2109375,0.5645703652339218,0.5337030299197317
9.21484375,0.020625191943965174,2.4386157392510683
9.21875,0.8394312128484208,-0.3951811224128743
9.22265625,0.4499273522831741,0.7189290083454777
9.2265625,0.6037632083773089,1.3344895741406533
9.23046875,-0.052015924634277656,1.3760425889279964
9.234375,0.05943177004794973,0.7576047297416301
9.23828125,0.7857897643336279,-0.12492792701105693
9.2421875,-0.023281692892109743,-0.4197111650068137
9.24609375,0.9632946874197504,0.43266396617846176
9.25,-0.5538006982222261,-1.7674634077529356
9.25390625,-0.138692499597466,-0.16272230451893543
9.2578125,-0.2671260514350624,1.6095891392394466
9.26171875,0.9509554284808804,0.7340390547097676
9.265625,0.26716139612764983,-0.3920574308413731
9.26953125,1.4882933191589813,-0.9849774974899119
9.2734375,2.2330509794322295,1.632897379358591
9.27734375,0.668171123871719,0.12413527656659963
9.28125,1.7274349403892166,0.6195667163427849
9.28515625,0.22625063740113036,0.6069566714122814
9.2890625,-0.3636617829407966,-1.6386042532968927
9.29296875,0.6432825886199449,-1.5119499828168985
9.296875,1.011532631482259,0.7459413094042561
9.30078125,0.12227441624065637,-1.4732375215131048
9.3046875,-0.6525829243222501,0.6694112453209105
9.30859375,0.5391138763463256,0.7749565588442311
9.3125,0.042101577349248256,-0.6835935226828123
9.31640625,0.8426999169055785,0.6248989767068848
9.3203125,0.7519984873080389,0.5244151137257164
9.32421875,-0.9138692054200482,0.7746375033010159
9.328125,0.41936396245712315,1.4810378518798752
9.33203125,0.18189589145671134,-0.1834968535502035
9.3359375,1.602630428034693,0.5493746919879903
9.33984375,0.4151199437657907,-0.28410930745878704
9.34375,0.38454424535049103,-0.3577503794714432
9.34765625,0.3402513512540814,1.0749949832345553
9.3515625,0.14019139599265995,-0.39099971746143003
9.35546875,-1.8266518471024646,0.7903058025169442
9.359375,0.922324312801734,-0.8006833546887485
9.36328125,0.18221358645553012,1.7526792445921218
9.3671875,0.010813064196664538,0.578121060762107
9.37109375,-0.20276316817783444,-4.325186090001805
9.375,-0.9912444275074637,-0.477717955384481
9.37890625,1.1001500193216265,-2.1795690892531394
9.3828125,-1.4755963291599825,1.32911660734548
9.38671875,0.7482739171683097,0.6641157316723182
9.390625,0.6671629751536426,1.7874622407745828
9.39453125,0.7067924737008637,0.5638790375077015
9.3984375,-1.2485119800083484,-0.10600016859540676
9.40234375,-0.2957638412788845,0.9955439265384444
9.40625,-1.2995730987066962,-1.2743293673074416
9.41015625,1.230605980908728,-0.3193235131744134
9.4140625,-0.6201287287653752,0.015132635134054174
9.41796875,0.8837815184054644,0.33518031486070904
9.421875,0.3068530590115824,-0.9701287701699628
9.42578125,1.4564300503980303,-1.4527381808124296
9.4296875,-0.9969796228598946,-1.4637104039958977
9.43359375,1.3471350178820478,1.0115978668565646
9.4375,0.6761997121116639,-1.0217561574918208
9.44140625,1.1557582433854954,0.6028546636735174
9.4453125,0.7834292415818397,0.5525742994712441
9.44921875,-0.058713842428925266,0.5786055808158004
9.453125,-2.193830447653355,-1.9574828752403877
9.45703125,0.47624098317820035,-0.4630446435816801
9.4609375,0.6744093708986091,-2.0018567867435286
9.46484375,0.49686087156695324,1.6022568422950083
9.46875,-0.579211777105039,-2.07674768887773
9.47265625,-1.3975040919845017,-1.539215409352174
9.4765625,0.27389519247417293,-0.487677382450659
9.48046875,0.23917406630606314,-0.036784743287786206
9.484375,1.127197641836675,-0.3996454916597461
9.48828125,0.25499143448176065,-0.3203358065078356
9.4921875,0.4705722490128527,-0.0839629515631178
9.49609375,0.7776888360752626,-0.2382334464218369
9.5,-0.31455578309408655,-0.9010304623256545
9.50390625,-0.5290650954811346,-1.6254081585207634
9.5078125,-1.0173469121530114,0.37196136773519634
