time,ecg,ppg
0.0,0.07445112025854579,-0.6439072821900911
0.00390625,-0.13603377897758467,-2.9219527188716747
0.0078125,0.7152641893180148,0.1641476755443395
0.01171875,-1.9576018209357335,0.010686059203816906
0.015625,-0.3627768020884254,1.807501986834492
0.01953125,1.610077691931137,-0.5572305638108204
0.0234375,-0.013081248011213206,-0.05267931758615659
0.02734375,-1.9994079660929593,0.5445441305762078
0.03125,1.293880220196808,0.8305528999866253
0.03515625,-1.2430933026018995,0.43111850462122414
0.0390625,-0.4506300189811783,0.4862601919216091
0.04296875,-1.415529054026974,-0.080147223242121
0.046875,1.2770971951972192,0.05975981211428565
0.05078125,-0.781627395691566,-0.21850708590881296
0.0546875,0.37200325821464486,-0.7312159302203188
0.05859375,0.41039234589551615,0.04969468347444639
0.0625,-1.3369229518500192,0.750156664153684
0.06640625,0.9729282841218695,-0.8838521537876451
0.0703125,1.2010428810427105,0.21474203195253372
0.07421875,-0.5556102680392332,-0.7911402267493506
0.078125,2.012696225725883,-0.3648130760731342
0.08203125,0.3156555067401702,-0.4244867048666748
0.0859375,-0.8897253038666346,1.0988832319264632
0.08984375,0.47352991366193325,0.5199980602428871
0.09375,-0.6669962485350451,0.8717827888646025
0.09765625,-0.18806242899256484,0.3996656871124639
0.1015625,-1.9258872663355897,-0.2325880910652721
0.10546875,-1.0082302254222446,-2.072378734067648
0.109375,-0.18284465485242568,0.8147831349155726
0.11328125,-0.1652579737335564,0.5016027873835934
0.1171875,-0.40472524320406383,0.4416867019472062
0.12109375,1.1855611770883685,-0.3261514436572026
0.125,0.5419119957480898,-0.6445696641800371
0.12890625,1.4642172990844542,0.7459704513025077
0.1328125,1.0817440487292096,-0.46007382895895244
0.13671875,1.1616240125990382,1.9628168191461466
0.140625,-0.3960822300011197,0.16925182370167202
0.14453125,0.3025450503565801,1.2922539806832405
0.1484375,0.27232364286925637,2.025833650590472
0.15234375,-0.28605553890624563,-0.34908846553686174
0.15625,0.7277169042221008,0.4744020181380379
0.16015625,2.422477393822385,1.0835318091869963
0.1640625,0.5631113609608822,1.096377475138488
0.16796875,-1.477390786601665,1.554554642958301
0.171875,1.0876573995503542,0.2960868599880001
0.17578125,1.2539080431619731,-2.569161906322283
0.1796875,0.06216291943249333,-0.7435832077964881
0.18359375,1.4082871052609394,0.5977401903122247
0.1875,-0.5996939237295981,1.3219394994717426
0.19140625,-1.2200318460195523,0.20324722915324586
0.1953125,-0.03206743895725773,-0.5160781663853236
0.19921875,-0.08371304807789962,-0.8769568298040162
0.203125,0.45526364789006957,1.616320880454838
0.20703125,1.3194383130487133,-0.18450193605487145
0.2109375,-0.023967870871000146,-0.8238132313635337
0.21484375,-0.7802900088868285,-0.32242326087654777
0.21875,-0.7153790942131524,0.9942653485282382
0.22265625,0.6107448640390151,0.04746505176515988
0.2265625,-0.29384469741304015,0.21551353159917389
0.23046875,0.21188440061245067,-1.7624175891484124
0.234375,0.6331275682756972,0.6712948510265995
0.23828125,-1.3746135211030812,0.24573152372958015
0.2421875,0.5513067101005497,0.81229697785231
0.24609375,-2.986136316534771,1.0760477208345431
0.25,-0.8247545880220479,1.05005600030509
0.25390625,-1.2133222408829427,1.0416592826182223
0.2578125,-0.2558051753418134,-0.01486982978982901
0.26171875,0.05836204535889838,-1.3671598905602458
0.265625,-0.7806536690879343,1.9318100595407686
0.26953125,0.48952646794810906,-0.6547279241727049
0.2734375,0.45912507232450667,-0.03697198845210131
0.27734375,-1.078964121020329,-0.28418964801085217
0.28125,0.43301066853359754,1.1393465560382707
0.28515625,1.8099009282602458,0.9209250692905441
0.2890625,0.04915269804115156,-0.9053889184785687
0.29296875,-0.8375925904596594,-1.405796976396707
0.296875,1.8246461432043353,-2.43631182657322
0.30078125,0.5646002927081479,-0.2948933806151633
0.3046875,0.960851341715545,-1.2619938107549202
0.30859375,0.750137960293967,-0.3331159581757745
0.3125,1.2291752355321803,0.6281267422219103
0.31640625,-0.790506732438368,-1.1267728801726926
0.3203125,0.016899378200544983,1.1106971486226718
0.32421875,0.2250690371094601,0.7442383415941474
0.328125,1.3503826283905016,-1.551254223671379
0.33203125,1.607635905119553,-2.5783855400764404
0.3359375,0.3983595791877962,-0.16857610478563262
0.33984375,0.5486146868760942,0.0276181884529758
0.34375,-0.8335001748124166,-1.018368016956366
0.34765625,-0.5206281438797203,-0.061129817234155476
0.3515625,-0.8363187459269376,-0.15625029733421034
0.35546875,0.37696455723102634,-1.6818668686437817
0.359375,-0.7869413707434814,-1.5913715876405525
0.36328125,0.2666449073951067,1.3731799993620355
0.3671875,-0.3078989662552069,0.5777036553400321
0.37109375,-0.4669255471848906,0.5734405548465337
0.375,0.963016839148449,-0.631457094382816
0.37890625,-0.5400430956386801,0.4517585986208869
0.3828125,1.1732058802915668,-0.43449900436161265
0.38671875,-0.9142341821469498,-0.05947195042368402
0.390625,0.060844290599586716,-2.079406299691012
0.39453125,-0.11737437948253432,1.1521254832859948
0.3984375,-0.38365068601007224,1.077752509882994
0.40234375,-1.2614224878097857,-0.17959456796568687
0.40625,-0.5301918748988825,-0.7163313675633232
0.41015625,-0.6928242356718789,0.16670338693710957
0.4140625,0.819026689071217,-0.5700554583497086
0.41796875,-0.601356338845235,0.07439604941023453
0.421875,-1.0083770137453316,-0.9318504161646267
0.42578125,-1.1394460321300317,0.3028119200803019
0.4296875,0.4364001881024576,1.0958945761682017
0.43359375,0.13424128549022143,0.8328217151917574
0.4375,0.6136136006052576,0.26300777600347475
0.44140625,0.05925279848851858,-0.21334724309108247
0.4453125,0.3329392715956622,-1.9309504073107873
0.44921875,0.2172037233368006,-1.2059406996490076
0.453125,-0.5583669071969778,-1.6137750270937226
0.45703125,-1.782208606203992,-1.3107652205674585
0.4609375,-0.27113761938692776,-0.28843046594087535
0.46484375,-0.0017557591728456009,1.3561518867340923
0.46875,-0.32285999349828476,-0.36326101068726613
0.47265625,-2.503486610077869,-0.06294774196866836
0.4765625,-1.1397259240449311,-0.9284625387955869
0.48046875,-0.08235032223702761,-0.23103265390109196
0.484375,-0.9005702356745602,-0.02194100922439071
0.48828125,-0.7312066669066388,1.956050714928196
0.4921875,-0.09798029635320922,-0.1927901811351714
0.49609375,-1.4311834347901293,-0.12117761841380176
0.5,-0.8175195284808549,-1.1874278993246377
0.50390625,-2.004582325255422,-0.6327249823734711
0.5078125,-0.2428318109135688,-0.7476552957591082
0.51171875,0.29357533064028163,-0.2569321140659847
0.515625,2.339331206878758,1.1736571722488047
0.51953125,-1.7816832038710713,0.27809829380381024
0.5234375,-0.2519157304246305,0.7347455508478851
0.52734375,-0.26938437507881,0.9007337427900295
0.53125,-1.2705599671350718,-1.0006979773761049
0.53515625,0.554911149259705,1.371548442382886
0.5390625,-0.24236296572110316,-1.3184760532824595
0.54296875,-0.058554424954163235,0.7274056643421221
0.546875,0.38490613159927906,-1.2920435268313581
0.55078125,-0.0005069870559758145,-0.3530375804025908
0.5546875,0.1820705175736212,1.6891030506504754
0.55859375,-0.6352136604676276,0.39483862513131324
0.5625,-0.7655776505210516,0.44050089063178943
0.56640625,1.3858555198539049,-0.527035988694547
0.5703125,-0.32940021767983974,-0.6887756881489177
0.57421875,0.36730677752760443,0.79588118522308
0.578125,-0.4455896922001157,1.1741321650288872
0.58203125,-0.9828829586151452,1.2537945968992008
0.5859375,-0.2432769006705164,-1.3423630706530025
0.58984375,-1.7138123658163762,1.1113639369266906
0.59375,1.0965004236487748,-0.034051576046682
0.59765625,-0.9180416263371267,-0.4117717807500337
0.6015625,0.8303716983112481,-2.35918648259266
0.60546875,-0.8629684747463862,-0.6435736810245003
0.609375,1.9972486775571836,-0.3503746614507613
0.61328125,-1.5513173493742585,-0.79340369942435
0.6171875,0.6518464287486307,0.4660810141746997
0.62109375,0.3431251949398626,-0.017362362710488813
0.625,-0.4815697166375648,-0.8147318268951892
0.62890625,-0.3606995199115632,-0.20621896465977813
0.6328125,0.3150388710764434,0.09909145363795545
0.63671875,2.112005548294727,-0.02509201669070679
0.640625,1.4999125252679268,1.3698303686325666
0.64453125,0.7252094040556754,1.3193638480868142
0.6484375,1.303665070311198,-1.64634330802477
0.65234375,0.5957074074655847,0.874572471615489
0.65625,-0.08864184989927718,0.23653414142154322
0.66015625,-0.6174282780695184,-0.842409518529694
0.6640625,-0.8316968979773625,1.9142600024676573
0.66796875,-0.679359029022488,1.1442795579017289
0.671875,1.0355041976461863,-0.7456708722282762
0.67578125,-1.1631812808652282,0.3961609007762013
0.6796875,-0.021814288196725075,-0.32530296762291044
0.68359375,-0.5144695531522661,1.0177430221759078
0.6875,-0.4298110741645992,-0.13312895503657451
0.69140625,0.3225868495815395,0.7732806788040723
0.6953125,0.4293472300962157,-1.7168154411699963
0.69921875,0.8148341867560267,-1.0128862636714235
0.703125,-0.25705920972222496,0.006624613831856285
0.70703125,-0.6376566100438256,0.4285947233577538
0.7109375,-0.8988449676499656,1.168637325522664
0.71484375,-0.8291923097054624,0.9565040437052496
0.71875,0.8294617413453156,0.28803767714110934
0.72265625,-1.3917901059841005,-2.041025834376669
0.7265625,1.305774597302136,0.6013087529766112
0.73046875,1.2056884124623988,-1.0902431886603745
0.734375,0.22060513313827596,-0.7756348337018526
0.73828125,3.4293863072748665,-1.3381763603633898
0.7421875,0.12969313400301427,-0.618380316773051
0.74609375,-3.196629902349577,2.310545934704248
0.75,1.0571246538939356,-0.06018947857835163
0.75390625,0.14920526346486074,0.3560934579263232
0.7578125,-0.11266629526239022,0.5909898419141848
0.76171875,0.7381881862167649,0.28076889373710584
0.765625,-0.15861510325292627,1.1679618750865435
0.76953125,-0.007420798871586799,0.011531452570456745
0.7734375,-1.372223723508928,0.06941000155760821
0.77734375,1.1868965287573081,1.4538039877777686
0.78125,-0.7402353054712439,0.13130411572194522
0.78515625,0.24350380852348905,1.2546565903545592
0.7890625,-0.1363397799461467,0.116368924046775
0.79296875,-0.41127255908317806,0.3827368609327837
0.796875,-0.5253447165735108,2.293427115280176
0.80078125,-0.21953057184086883,-0.4064643162794731
0.8046875,0.13107172527974859,1.2916132670702878
0.80859375,-0.9818542433155001,0.6146111308302807
0.8125,-0.6252175989651415,1.4802084034837053
0.81640625,-0.672675313508534,1.7673605561235957
0.8203125,1.6373798555998693,0.5374241904718515
0.82421875,2.3597724802906797,1.3677231018382647
0.828125,-0.8800563193441245,0.5293183961050673
0.83203125,1.1176320258642516,-0.11566739990773471
0.8359375,-0.08795160319444624,1.2506553740408881
0.83984375,1.0115102965209009,0.010019366308070864
0.84375,-0.21990661170812792,0.7382559882815023
0.84765625,-0.7809777318306764,0.19408310666108824
0.8515625,1.3294106228036051,0.8155678716904257
0.85546875,-1.6781754221793364,-1.06316187348818
0.859375,-0.5865939948975145,-0.7325942146354262
0.86328125,-1.0332453423572716,0.49493630377610726
0.8671875,0.318703485140197,-0.5289350345684279
0.87109375,0.06095987081278106,-0.7662207668214315
0.875,0.9944005067531505,-2.293896445275153
0.87890625,0.20828267875266984,-1.2799412200862912
0.8828125,-1.3178857194048188,-2.095579665041032
0.88671875,-0.8436319333091592,0.3978426255113148
0.890625,0.5187580911636243,2.072432872730484
0.89453125,-0.35392494888770376,1.8126180889131183
0.8984375,0.7588799799518754,0.17322260189598798
0.90234375,0.4037220596734383,1.1595601833741815
0.90625,-0.6560308435407243,-0.4317471397028547
0.91015625,-0.634231690258533,0.5089125274067796
0.9140625,0.8946200603954705,0.3702462468893043
0.91796875,-0.2986409915592287,-1.231728129890673
0.921875,0.379103041057481,-1.2515805081969857
0.92578125,-2.161958209925614,0.9555672645634485
0.9296875,-0.6615398509693585,0.8749496694704362
0.93359375,-1.9999252469788227,0.43830604155044195
0.9375,1.441729653326554,2.245517581757496
0.94140625,-0.09709782882912751,0.8477208251805414
0.9453125,2.305113083063904,1.1190729370310555
0.94921875,-2.0465526641175926,-1.4863880719656846
0.953125,0.6925239033071013,0.5219673814290626
0.95703125,0.8660606219626247,-1.005328315725559
0.9609375,-0.22498264372525267,-0.5450989753145649
0.96484375,0.8996817988213209,0.23412934948053998
0.96875,1.2686278674749776,-0.31152719001940166
0.97265625,-0.5796578658850012,-0.2579656032104672
0.9765625,0.3774659057155476,-1.2873247507203933
0.98046875,0.8575524657580891,-0.2539519735471307
0.984375,1.4687589193041835,-1.8781899961626867
0.98828125,-0.40742325864646894,-0.2799804454554326
0.9921875,-0.08362854522635846,1.8147144776831794
0.99609375,0.46222230667399417,-0.5179427393984449
1.0,1.0027336995008531,0.8302939608021607
1.00390625,-0.6458418552898861,1.1659079467902567
1.0078125,2.923851139019794,-0.006057266423735808
1.01171875,-0.9462066824536598,1.374617687810204
1.015625,-2.922950121884712,1.1884461596607963
1.01953125,-0.13322934035658068,-1.302267116915941
1.0234375,-0.687503223654422,-1.1137734600739795
1.02734375,0.00398658350527391,0.11350081279043668
1.03125,0.8028351685523958,0.8967866477710518
1.03515625,0.533386661358808,-0.13745366335228262
1.0390625,0.9372305058293882,0.9575367751472983
1.04296875,0.8390743911709102,0.6738851623660239
1.046875,-0.3429238235827791,-0.5364511932459025
1.05078125,1.1660038589373827,0.4874842001802804
1.0546875,-0.11895854395021874,0.5907283361952533
1.05859375,1.239496581059695,-0.9119514714243794
1.0625,1.632478735935099,-1.5915022323434467
1.06640625,-1.501618051087187,-0.40198754997765435
1.0703125,-0.786782743691356,2.11775190930115
1.07421875,-0.7479208183558612,-2.1734959339828603
1.078125,0.026117083786007942,0.6692478610725843
1.08203125,0.9101625655251944,0.9186955506796316
1.0859375,-2.941969218385638,0.841552332658861
1.08984375,-0.364939417343672,0.9619473580255191
1.09375,1.133950665378755,-0.5885824516640629
1.09765625,0.1894850061606446,-0.39178012227517867
1.1015625,1.5800958199586346,-0.391173958593673
1.10546875,-0.4978577992878208,-1.4467412570470737
1.109375,-0.897459926999061,-0.5673911804424744
1.11328125,-0.7683567218022267,0.2487477758843767
1.1171875,-0.46490829226940633,-1.0596690023735191
1.12109375,-0.24123604830452794,-1.1239397925435233
1.125,-0.4537777230980644,-1.7084954273027217
1.12890625,-0.3130295521067977,-0.3103836487676302
1.1328125,0.3712428393519471,0.5039323438411112
1.13671875,0.3164904503704741,-0.5565134748630758
1.140625,-2.852298651442511,-0.057421492401810485
1.14453125,-1.3646909321308471,0.9087201249072793
1.1484375,-0.14980320487518364,0.9142051289603175
1.15234375,-0.4414781980629116,-0.841357365314707
1.15625,-0.06459603046720062,0.9189869975427541
1.16015625,-1.7956058071328227,-0.7746039042661254
1.1640625,0.21934473974842914,-0.14072742195913096
1.16796875,1.0345263648444865,0.4477378781751002
1.171875,0.6613019077428134,0.8800469871707893
1.17578125,-1.195770299721454,0.778234086526523
1.1796875,-1.1647510472144387,0.48233483825427487
1.18359375,0.8167638670333656,0.6484064072365339
1.1875,0.5443984341939179,1.5285090733478355
1.19140625,2.700051800630891,1.5614128423986555
1.1953125,-1.5545954557211596,0.4392944880702963
1.19921875,0.5518717504496252,1.191304183896507
1.203125,1.3720377725073991,1.565194893606819
1.20703125,-0.31072384064115677,0.02605855580412906
1.2109375,-0.320572612586863,1.196697080901806
1.21484375,1.9646058537782485,0.7582601619474623
1.21875,0.6310089780561013,1.1055652680236234
1.22265625,0.94108930274812,0.3181762440856712
1.2265625,0.6749448892264889,0.7441996149206762
1.23046875,-1.3697357075315448,-2.149486586847604
1.234375,0.13531000877199342,-0.8483791180161837
1.23828125,0.9311697989578783,1.3829572639610028
1.2421875,-0.8688661321225226,-0.751088208148633
1.24609375,-0.5075997243996574,-0.3546296705840138
1.25,-0.6845265693778915,-0.12734059084543248
1.25390625,-0.9119671454515161,0.41506070707788795
1.2578125,-0.7847932771044772,-0.1305542840891583
1.26171875,-0.12198567986015914,-1.6017972377887766
1.265625,0.5268847435775661,0.5387858698738167
1.26953125,-0.3938814649766592,0.3306975449202782
1.2734375,-0.6943478032355306,0.4170006411206432
1.27734375,0.8613130458637076,-0.34515879399170607
1.28125,0.8304137853417287,-1.372481945658054
1.28515625,0.6060182706151265,0.5477944869089035
1.2890625,0.4719265247691387,1.864473914905267
1.29296875,0.7584618346345671,0.8628528852955527
1.296875,-0.14931828061065466,-0.03290654270926343
1.30078125,-0.32464642294906354,-1.0005252946476642
1.3046875,1.5725136400283484,1.042383240266792
1.30859375,0.6590161159980436,0.03820297745159116
1.3125,1.557326949857383,1.2224900972328843
1.31640625,-0.4129519616760874,1.6567406310967945
1.3203125,0.11896335119594241,-0.22798058411006286
1.32421875,-0.8622602946175665,-0.46672309115274857
1.328125,-0.47171960520601036,-0.9124953814669691
1.33203125,-0.06185075701605029,0.11754804900990953
1.3359375,-1.75598942728501,-0.0711236548585903
1.33984375,-0.7697963707606335,-0.5354944914873566
1.34375,0.0392275948011458,-0.4719717346319509
1.34765625,0.8397378137829291,-0.7718431133745249
1.3515625,-1.2257084224484576,-0.1884727186573205
1.35546875,-1.8251075195156639,-0.19361303634876278
1.359375,-0.6126299072063635,0.28164167967997306
1.36328125,0.015220200066430782,-0.6797392076674295
1.3671875,1.1247565253333451,-1.3733380921296834
1.37109375,-0.2733562445687179,2.229621283049493
1.375,-0.587036744559657,-0.7752165718091906
1.37890625,-1.5893844980664995,-0.20050277223387672
1.3828125,-0.6247661532283902,-0.8385905165772913
1.38671875,-1.9567817760355204,1.4875383162381957
1.390625,-0.5780622019009359,0.38975571402578774
1.39453125,-1.9002629267071933,-0.0712706542492462
1.3984375,-0.6664130561159549,-1.0363623622463796
1.40234375,-0.1383923382010736,0.5367445207069418
1.40625,0.9526450339844144,1.1990269389738935
1.41015625,0.7764858278046542,0.3018235324912128
1.4140625,-0.43358265976822125,0.8300843686795931
1.41796875,-0.9010238818042501,-0.8844509929730798
1.421875,0.6184330286133275,-1.0205542872400095
1.42578125,-1.0583687685117489,0.8390757930092653
1.4296875,0.975663812207215,1.497219698669199
1.43359375,-1.5520208491252094,-1.1825817775646597
1.4375,-1.356739035210109,0.33144547583073025
1.44140625,-1.1176205122951846,2.043361929269447
1.4453125,0.27288675770844967,-2.0837029434075953
1.44921875,-0.7503373671950673,-0.2225857342046911
1.453125,1.2724671094862616,0.005087412615880167
1.45703125,0.7681865021849454,-1.3240250169548773
1.4609375,-2.2729489931637437,0.13477356911944408
1.46484375,-0.2561810542609526,-2.3746106942637724
1.46875,-0.33599770240331805,1.3981763095511361
1.47265625,-0.22250952376589864,1.3784100467266551
1.4765625,0.5143399196170311,-0.16959142649403045
1.48046875,-0.4661567170411999,0.6024464748694932
1.484375,-1.0455647241595247,1.230407295290462
1.48828125,-0.6269473141908505,-0.31896244696551834
1.4921875,0.9962082528681248,-0.7351484374627382
1.49609375,0.9553356618016956,-0.5389455813125703
1.5,0.20574172052377976,0.5237310133785726
1.50390625,0.07396459981669778,0.17062333528711715
1.5078125,0.07494571503817993,1.0410102410609947
1.51171875,0.5124320053921283,-0.03214326009719138
1.515625,0.2643331947061475,-0.5651198145601096
1.51953125,-0.7850011508930135,0.8829504664110536
1.5234375,-0.184580928168384,-0.3167490462713594
1.52734375,-1.4473930981602863,-0.2789798140582071
1.53125,-0.8405805522836441,-0.5021910498129695
1.53515625,1.434133751933008,-2.0648412270606835
1.5390625,1.1230946232035004,0.5147215302485301
1.54296875,-0.46516548678282255,-0.155505421102028
1.546875,-0.42357608931424684,1.1419198297645499
1.55078125,-1.437207648442178,-0.9334087302455795
1.5546875,-0.8268137309120432,-0.11419793458535325
1.55859375,1.0588905415614445,-0.28809680874449245
1.5625,0.28925068373568213,0.8802151702129954
1.56640625,1.8392903441067985,0.5797709844867143
1.5703125,-1.4139641865469412,0.6812594980712567
1.57421875,-0.34611441332958703,0.5765767271360875
1.578125,0.24455077760997987,0.6343687674712487
1.58203125,0.05394953447339998,0.3071128227568498
1.5859375,-0.7730235225166611,1.4326058277425051
1.58984375,-1.4137192609902378,-0.4642110144697715
1.59375,-1.114782153181704,1.142564691841795
1.59765625,1.0392545558854092,1.2083032841594938
1.6015625,-0.10913752221548277,-0.1487129147563045
1.60546875,-0.31438654274616634,-0.27272500444663456
1.609375,-1.350133527034234,0.022866002121736544
1.61328125,-0.6734488596263072,-0.14545334738470056
1.6171875,-1.8123331770724453,0.31547807867935074
1.62109375,-0.19528373289788356,-2.60338802666271
1.625,0.23947595483755071,-0.2067753679421442
1.62890625,-1.7309441544867128,1.5650256612547435
1.6328125,0.18966522331800997,-0.38987268158816013
1.63671875,-1.3824778199402554,0.8453369357030192
1.640625,-0.2497549793744241,0.06789421873133256
1.64453125,1.7707903062308,-0.2641610551186057
1.6484375,-0.8336404734709315,2.324529154527358
1.65234375,2.0860266633919298,1.2418285844593981
1.65625,-0.6287980879375985,0.2486649697050193
1.66015625,0.8342482340121382,2.3149087533863275
1.6640625,-0.9721811682765301,0.6981346976697413
1.66796875,-2.375671719045401,-0.1955630401341842
1.671875,0.7963379003779211,0.12237200559493783
1.67578125,0.6717741673118682,0.04247396836604494
1.6796875,1.6607063134035638,0.9633500909835265
1.68359375,-0.3112248362012263,-0.8235161872577166
1.6875,-1.0918516423946125,-0.11150434588272158
1.69140625,-0.3731954728729569,1.4482375046158762
1.6953125,-0.7761930342956255,-1.514740688910568
1.69921875,0.2216375444726215,0.476073384407932
1.703125,0.10395202783733815,-2.8972048539684567
1.70703125,-0.8975456773155993,-0.5511825727414916
1.7109375,0.11467080831818077,0.22016365450375408
1.71484375,-0.705717467678095,1.0854058221176581
1.71875,0.5527149998238089,0.839808243967999
1.72265625,-0.07417530268651215,1.2543441598567406
1.7265625,1.1301461497518102,0.12268755297039352
1.73046875,-0.5578032885905114,0.26454962445175634
1.734375,-0.15821974650339296,0.2017251383885504
1.73828125,-1.2062515934335671,0.4596257762391078
1.7421875,1.4000172118964462,0.4677255810340035
1.74609375,1.2951875224463698,0.6191032198484925
1.75,0.6763642719225169,0.895882543229641
1.75390625,0.238212388668607,-0.8421475481473215
1.7578125,-1.4543019679229,1.3859684491495536
1.76171875,-1.1207059636540746,-0.377910253683418
1.765625,2.1635825741164725,0.966860091875723
1.76953125,-1.3130084378647715,-0.9150856701335601
1.7734375,-0.39974848559595977,1.5241562703156664
1.77734375,0.4185212439306576,-1.7803723999988026
1.78125,-1.4358670343158455,2.0972421244309603
1.78515625,-3.236011018107493,0.8656328834290018
1.7890625,0.9158639704667486,1.0322323758954666
1.79296875,1.2271102759915153,-2.085382767938871
1.796875,1.6958587090531385,-0.3994467680842867
1.80078125,-0.1548263000403539,0.838759227302146
1.8046875,-0.10615870290969151,-1.0133837964443884
1.80859375,-0.3306900390093405,0.06302559117310184
1.8125,-0.0799484823721548,-0.4175214813810501
1.81640625,-0.41143143357066114,-0.6573663888662714
1.8203125,0.03139010697565706,-0.10089922625565217
1.82421875,0.08500971824796312,0.21573326741908425
1.828125,0.06845010906920009,-0.7246308903223592
1.83203125,-0.6483780144076652,-1.7945539080409572
1.8359375,0.07147554982400672,-0.867262511372347
1.83984375,-2.377942580110381,-0.3125873851641049
1.84375,0.45225993962760375,-1.19213611163419
1.84765625,-1.229505095834275,2.2307444391042046
1.8515625,0.3031555926920727,-1.1675820333465068
1.85546875,1.3604802974513908,1.4536928093213444
1.859375,-0.6662782374460368,0.33625934990244755
1.86328125,0.31613259192347104,-1.8526331586203675
1.8671875,1.2974729192166135,1.7250552668306365
1.87109375,1.504846600986943,-0.2747962195934701
1.875,-1.3862305849958605,-0.4617982432982687
1.87890625,0.8485491729440091,0.040943749526646735
1.8828125,-0.10475993450885769,-1.3082772695607388
1.88671875,-1.7353711125270455,-1.1992777824400183
1.890625,-0.15972036699349432,-0.8243811610443661
1.89453125,-1.4309971780771176,0.37561509709040486
1.8984375,-0.7358955948055911,-2.4706759613388
1.90234375,0.06895001287843928,0.3672324924230757
1.90625,1.504923487062662,-0.6108360500030757
1.91015625,-0.0851946012144656,-1.377211379932278
1.9140625,0.7891632798441288,-0.20876473210428073
1.91796875,0.7260402266953422,-0.25086083128327863
1.921875,0.6744579745617107,-0.11607850440839323
1.92578125,0.7772303870095696,-0.3768267562956262
1.9296875,-1.824381617188319,2.3719090240615945
1.93359375,0.40879252136931427,-0.4060035654395508
1.9375,0.005627852510682913,0.1605536538258801
1.94140625,1.1370870694473845,1.6894597461397562
1.9453125,-2.126309671512903,-1.1859310862115713
1.94921875,-0.26976868096960854,1.6301644153320753
1.953125,-2.022801900496338,-0.07618923580573354
1.95703125,1.067987562939035,-0.34862060383260984
1.9609375,0.0078064368652710076,0.6682705124622216
1.96484375,-0.8384447855658613,-0.3221910998526085
1.96875,0.5563489093641728,0.3040282817925137
1.97265625,-0.12396700602185087,-1.067381943395977
1.9765625,-2.01026884171646,0.2015519469486719
1.98046875,0.4528381824942381,0.04742087851953453
1.984375,0.4476493263700397,1.2784778634613858
1.98828125,-1.3855043239220244,-0.540427228979885
1.9921875,1.6992258980408224,1.2349049173200937
1.99609375,0.2867436991908351,-0.19109155099266908
2.0,0.7330662834938656,-0.6021783673164655
2.00390625,0.14396879547765937,-0.14165221783986318
2.0078125,-1.7627083735486866,0.5028357176888661
2.01171875,-0.4842256326033047,-0.5620537385207777
2.015625,1.1715022527107652,0.7009698867752723
2.01953125,1.1069545444496673,-0.36308958757785287
2.0234375,1.3289587259817923,-0.883417395131278
2.02734375,1.011973823682043,-0.8325749109311735
2.03125,-1.5998833401021315,-0.25454550589235403
2.03515625,1.2942014791229175,0.8875765027085192
2.0390625,-0.23615044142761576,-0.004798077296881413
2.04296875,0.13087170677088913,-0.06832512252675861
2.046875,-0.8169087510132672,0.8727953702622626
2.05078125,0.7085435586782691,-0.9562849613320438
2.0546875,-1.2082125628335276,-0.8045658790923716
2.05859375,0.9483959579870703,0.6128294798283743
2.0625,1.3244019411944996,-1.7629290076430377
2.06640625,0.034307981507679476,0.10221170668003464
2.0703125,0.42441832478562486,-1.2946053545761165
2.07421875,-1.4599724101152796,-0.42931265238104793
2.078125,-0.9335840955054777,-0.6679644317393624
2.08203125,1.80014588461708,-0.19908898192924365
2.0859375,1.2996281046875116,-0.916739882943282
2.08984375,2.9025085400994026,-1.6424768653487982
2.09375,-0.4604455063273048,-0.25746505265089437
2.09765625,-1.3629292889811593,0.4797306520946871
2.1015625,-1.1558954940875983,-0.8891112395903337
2.10546875,0.9953254615838424,0.629322771373296
2.109375,-1.5761009675647748,1.3747353976147256
2.11328125,1.697215598314352,0.3953949115547931
2.1171875,0.6982784076917293,-0.35945902102919036
2.12109375,-0.9647025275579867,0.5835134794675596
2.125,-0.021775833267016338,1.3032412918749547
2.12890625,1.0831063362815865,0.2577868359821292
2.1328125,-2.7150342994816,0.8683686127852079
2.13671875,0.5507206213773337,0.42648424022972176
2.140625,0.5742902033400493,-1.7590519515987706
2.14453125,-0.61001552211827,0.3713855981723745
2.1484375,-0.6205088794915607,-0.8953088497484528
2.15234375,0.7141870663149114,-1.0550728779093963
2.15625,0.024480751173513168,-0.6843064493868168
2.16015625,1.4010375270038218,1.1580309427478668
2.1640625,-0.6980813923879866,0.9988687164776072
2.16796875,1.200676353701987,0.558561640524887
2.171875,0.7784032180433859,0.04819069112660112
2.17578125,-0.49723460186515894,0.25686148597455044
2.1796875,-0.7301176041840874,1.0025404729910248
2.18359375,-0.5650463387424172,-1.2473001591428385
2.1875,1.2510108806038673,0.8951128535048646
2.19140625,-0.3904144437270704,-1.268201587200892
2.1953125,0.08798452208895614,1.4774503028022934
2.19921875,0.3051427021006166,-2.1851275370135683
2.203125,0.5242400873413721,-0.8380890285549101
2.20703125,-0.9785548721326863,-1.7849590482369355
2.2109375,-1.4876855290027586,-0.33058669006377156
2.21484375,-0.23281536055422075,-0.3961754313748311
2.21875,0.9517281755162718,1.2476852486253334
2.22265625,1.0020993332220889,-0.21056275760291324
2.2265625,-1.96535824654687,0.44677627924638663
2.23046875,1.0717555293559586,0.08015568036680944
2.234375,1.5775866867552018,-1.5781715316713965
2.23828125,0.07178292360561002,-0.10080570161457804
2.2421875,-0.8450538437093449,-0.3346486817592443
2.24609375,-0.6625586881873509,-1.5033241251163414
2.25,0.27221287723640214,-1.0172048931789155
2.25390625,-0.3721139469923777,2.1351257662630987
2.2578125,1.5756709927716053,-0.5027577886531815
2.26171875,-1.2979665577089559,-0.9890284694091375
2.265625,-0.3979299421125763,0.3036686510546938
2.26953125,-0.3321331186347843,-0.19693991263278934
2.2734375,-0.26319706107518115,0.9850653426984268
2.27734375,2.3106544800414786,-1.3167024707985753
2.28125,-0.6479856063294975,-2.078423322701416
2.28515625,0.914512891463698,1.0828952360451547
2.2890625,1.5286184675961505,-0.797370646464785
2.29296875,1.0268861543129633,-1.083485524050617
2.296875,0.6106421916423929,-0.039104198273232395
2.30078125,0.5305096249603991,0.04892860465198798
2.3046875,0.7573322549631092,-2.060975944774732
2.30859375,-0.5824976099084141,1.0709817671983
2.3125,1.0733628828028392,0.7224271768192233
2.31640625,0.7146595790890535,-0.05972392830554633
2.3203125,0.7010818674822876,1.7355001534547616
2.32421875,-0.511954197213889,0.7592542911396736
2.328125,1.4679505103401205,-1.0881607187292766
2.33203125,0.37890897696199183,-0.5811641972668969
2.3359375,-1.2563685825893256,-0.007862719248961524
2.33984375,0.15057992641457102,-1.7498991450106829
2.34375,-1.0936957728172998,-0.08107524108441531
2.34765625,1.2644509881298756,-0.9488006429964443
2.3515625,-0.9096314397313641,-1.1500840687130847
2.35546875,-0.15852066480674207,0.6471503432055062
2.359375,0.44025266020487225,-0.671446520884162
2.36328125,-0.3964741716473779,1.2431506095672666
2.3671875,-2.456802852185676,-1.2868166285865048
2.37109375,-0.4915012652889196,2.704210200927432
2.375,-1.3793749934617285,-0.429709631788759
2.37890625,-2.014486543369497,1.1495062867501897
2.3828125,-0.37702227560166546,-1.001752548423466
2.38671875,-0.4845568756424694,-2.605231851912259
2.390625,0.7213181663435918,0.4793598093703797
2.39453125,1.236027735764581,-0.3051701431860027
2.3984375,0.11154331402252284,-1.4281316501757928
2.40234375,0.8132522484248922,0.5713995758786938
2.40625,1.070437681722663,-1.8690661674998317
2.41015625,-0.7614605208473829,-0.26824808871564193
2.4140625,0.002725575035563639,-1.5520023642964969
2.41796875,0.7206620629996037,-0.7719602025971404
2.421875,0.5786418623577186,1.6116300262876155
2.42578125,1.4706683107222798,0.3531487074905975
2.4296875,0.3350557627902376,-0.41502143130054164
2.43359375,0.9195884120370595,0.24728834703388183
2.4375,1.033434847293122,-1.1286973806676208
2.44140625,-0.8339892120826843,-0.669659256097301
2.4453125,-0.18160924843173834,1.122312992242876
2.44921875,-2.0831146668708107,0.8968388506392392
2.453125,-1.0910636994891807,-0.11758107715493463
2.45703125,-1.202573488179779,-0.9390971753242843
2.4609375,-0.5993336498423042,1.2492597365906988
2.46484375,-0.0599059743286483,0.49357857118175313
2.46875,-0.56341669622912,-0.46682909477979856
2.47265625,0.9219117946015528,0.4118288897138762
2.4765625,0.10769479657149213,-0.30932792940751
2.48046875,-0.690063600075785,0.8155878801995846
2.484375,-1.235138123882814,1.1173121144782707
2.48828125,0.9454287722463152,-1.1412003223721334
2.4921875,-0.5901658269257846,-1.1847376489015042
2.49609375,0.46012371340234615,0.003748745844907881
2.5,-0.9457014852575303,0.15078937120984828
2.50390625,0.4132136617738624,0.5349878035366515
2.5078125,0.020985004779683587,-0.4004812380895123
2.51171875,-0.48531970846365863,0.2355733458127356
2.515625,-0.9480503533397925,1.5402402242793554
2.51953125,0.4609063174058344,-0.5842154867822501
2.5234375,-1.471180817434455,-1.2912216165709407
2.52734375,2.0249789460848886,0.8482837230296604
2.53125,-1.5563554862487745,0.03878854159138219
2.53515625,0.6111295706224568,-0.9090836996601557
2.5390625,0.8929688744899552,-0.5090069822694661
2.54296875,-1.6651681585697924,0.020825528192557556
2.546875,-0.7063284606796668,1.4803552520367556
2.55078125,0.7529566150622761,-0.19086400951697502
2.5546875,-0.9309628849100908,0.9965181849605591
2.55859375,0.2680689778640366,-0.09215188690595386
2.5625,-0.1923873216778661,-0.00880891034217305
2.56640625,1.7874260605726937,-0.4765274188119306
2.5703125,1.561575572212397,0.701854954587416
2.57421875,1.3889253123314202,-0.40482758489880744
2.578125,0.5254324385012523,-1.097234750125236
2.58203125,0.2670002917432402,-0.4385814640505193
2.5859375,0.42149407616693435,1.1140085150249721
2.58984375,1.3937197684087825,0.6577997842459514
2.59375,0.6053058050811977,0.8372031738815321
2.59765625,-2.551757458654296,-0.6296834129664363
2.6015625,0.30281613333532625,0.8549546571302132
2.60546875,-0.7573553063558395,0.8136358252426413
2.609375,0.40927010642773104,0.6452317973255369
2.61328125,1.0989491618797564,-0.7155130447443687
2.6171875,-1.5968692471701502,-1.1209837370378346
2.62109375,-0.14642821847631213,0.7194544352789936
2.625,0.6076966362464277,1.4079937438548058
2.62890625,-1.0908715717092525,0.7240799552942437
2.6328125,1.6793539455445001,-0.33440700564693465
2.63671875,-1.154986287411749,-0.21902884505247777
2.640625,0.1323927746107508,0.8839179678920842
2.64453125,-2.1660648020615145,1.0887198369566433
2.6484375,-0.6878030018124466,-0.7579679126795696
2.65234375,0.7405697759257457,0.9801174123252933
2.65625,1.1013142978086743,1.0080784541806038
2.66015625,1.216883705734008,0.8095654972054301
2.6640625,0.5865384610392246,0.429412569787741
2.66796875,0.1917196183620554,-0.794338746148432
2.671875,-2.745089826422519,1.7014228961118836
2.67578125,1.0555294014357623,1.4239774742113034
2.6796875,-0.636445593313846,0.17654523492709123
2.68359375,0.9127162532086193,-1.5176861020101653
2.6875,-0.5207868541934554,1.2051346644372793
2.69140625,0.33525435302531537,-1.0472837421479235
2.6953125,0.16462257957465112,-0.5357546637766823
2.69921875,1.5660631311415378,-0.04479168824350642
2.703125,0.33510714632465843,-0.4750630729751833
2.70703125,-0.583975378065917,1.197484409447516
2.7109375,-1.8726434196548614,-0.36997323941355104
2.71484375,0.48893297967810734,-2.3451886019350714
2.71875,-0.0622393522934468,-1.10682695028345
2.72265625,0.006889447945602856,0.11427409113519676
2.7265625,1.2201818457379703,1.1230781118321134
2.73046875,0.8713453335671484,-1.0931726752729265
2.734375,1.481288944314336,-0.07758650333890363
2.73828125,-0.503414725393766,-1.8406799913698293
2.7421875,0.8268019287214117,1.6585659617843156
2.74609375,0.053192515102730625,0.3440188152531461
2.75,2.1244348341272556,-0.7092268747639342
2.75390625,-1.179232596368001,0.9773366707032783
2.7578125,-0.7462369708015985,0.6420529639279922
2.76171875,-1.2970762135099994,0.9207762241681585
2.765625,-2.0753793825443165,0.7617261368083607
2.76953125,1.7050953434370295,0.7353881225804898
2.7734375,-0.5235872820841243,-1.2335043426619225
2.77734375,-0.6472370245635966,-0.3187782298489545
2.78125,-0.6877325745901736,0.5577199549391801
2.78515625,-1.376461859710178,-1.1223192713321266
2.7890625,-0.4829632934524319,-0.2407972649080427
2.79296875,-0.4565744404175561,0.6744557133579614
2.796875,-0.02141865351493483,-0.6399886569880515
2.80078125,-0.47900488393658724,0.3712057478033979
2.8046875,-0.9088308808285995,-0.047748760955226704
2.80859375,-1.151588038601913,0.20883783001321965
2.8125,0.3212611468217546,0.8220337232736233
2.81640625,0.6965162031268444,1.5349799424698554
2.8203125,0.5522687166499158,0.016401171720489008
2.82421875,-0.0379045243247196,-0.4212867356737569
2.828125,-0.8803713395368824,-1.0071299540897343
2.83203125,0.44848993965180084,1.01767973197558
2.8359375,0.8795177254510531,-0.10110656627503718
2.83984375,-2.4832313465495663,-1.1078552464052016
2.84375,1.946679080587754,0.6622005193636898
2.84765625,0.3140473493096436,-1.7639323338755672
2.8515625,-0.3779097900509554,0.09017327750115586
2.85546875,1.7256625084332313,1.0984601131794312
2.859375,0.20262278163161065,0.8094021727283938
2.86328125,1.1248398404861277,0.9325869764796109
2.8671875,-0.765905935671657,-1.046191347364977
2.87109375,0.013581906414856798,-2.00291381251572
2.875,0.6832101668943753,-1.2404592965975876
2.87890625,-2.3492884075862857,-0.742551488358472
2.8828125,-0.17629968508019755,-1.043073664271814
2.88671875,0.7225802182932518,-0.561743199540505
2.890625,-0.36522559174547903,-4.351975931653484
2.89453125,0.6376686304699595,0.30861756959412734
2.8984375,-0.4011338743577804,0.6527459848158457
2.90234375,0.05285788077548595,1.4410284768989328
2.90625,0.5664262982549287,1.3903047824658719
2.91015625,1.8880549478482276,1.1846272807957334
2.9140625,0.4719308300702986,2.087080147861799
2.91796875,0.5806757980830659,-0.02629050714948532
2.921875,0.2669950104495145,0.19482590161487678
2.92578125,1.6078892319509848,-0.06283293858758049
2.9296875,0.541233661463102,-0.7551747407004107
2.93359375,-1.0626439092332551,-2.0896968419452118
2.9375,0.05485294927758347,-0.24432816718927816
2.94140625,-1.1076988290834744,-1.3719193589846161
2.9453125,-1.6924879070032122,0.09040012490674562
2.94921875,1.7207838982736976,0.3212474233705414
2.953125,1.4904325878976636,0.5827143717563035
2.95703125,-1.2703727037554475,-0.16739445648316822
2.9609375,0.6126989431899106,1.4089061354798265
2.96484375,-0.21372333194979723,0.31265303832924435
2.96875,1.2183113151407554,-0.5920746096254547
2.97265625,1.0451819086190395,-1.7823095069256532
2.9765625,-0.8306638036742968,-0.35644534828490326
2.98046875,-0.10166151998713863,-0.1463301800066007
2.984375,-0.9869123871472898,0.8441848171631109
2.98828125,0.20152248418644111,0.1275540302327195
2.9921875,-0.8216060038518446,0.3786795842145149
2.99609375,-1.1890367965298771,-1.61729252211117
3.0,0.540718047070956,0.07493614339233237
3.00390625,0.513452477322923,-2.896892718894705
3.0078125,0.2334998440503039,0.087620471538069
3.01171875,-0.6814743135860504,-0.21177894857463905
3.015625,1.0018556253971391,1.768524476282288
3.01953125,-0.7277542586793584,-0.7746385679776115
3.0234375,-1.2351235716661035,-0.7312946552707317
3.02734375,-0.21557533386927494,0.5323324384111774
3.03125,-0.859279407420283,-0.8193813976084022
3.03515625,4.306679339790204,1.4041475148877094
3.0390625,0.06647302960188373,0.20836186853997157
3.04296875,-0.3006549262204331,0.09993178736108684
3.046875,-1.4310113818822725,-0.39314234181735336
3.05078125,0.5268872300010617,0.6271412048029377
3.0546875,-0.5359054488503792,1.487072679678152
3.05859375,-1.3270291633628049,-0.2523620519391557
3.0625,-1.8278565320114797,-1.2304580628481099
3.06640625,0.12372044116524654,0.9757919234282936
3.0703125,0.005767526859854279,1.4167254888493352
3.07421875,0.3753584028982727,-0.539486745299626
3.078125,-1.4069713380310718,-0.9463043778212301
3.08203125,1.385283683013117,0.5425731941491494
3.0859375,-0.32163437324719524,0.004240502496461292
3.08984375,1.2652091728367567,0.5063061609933471
3.09375,1.5155627164678644,0.9968371266644553
3.09765625,-0.6967182503938161,0.7925144575963823
3.1015625,0.9617624954488715,-0.5042298617622696
3.10546875,-0.821905038694101,0.8454246802869448
3.109375,-1.3184148714860937,1.1405336214251582
3.11328125,-1.5874618920897152,0.5964735339181381
3.1171875,0.30383439525756645,-0.2703305352615418
3.12109375,-1.5903092562248193,-0.2060052115840212
3.125,1.2027219472585409,-0.33308600206538047
3.12890625,0.45487250941155805,-0.005529499864880244
3.1328125,0.7591462145471671,-1.560485318863836
3.13671875,-0.6707148947868428,0.538583139720782
3.140625,0.6321754033242197,-1.0117357823115105
3.14453125,0.31574297747730934,0.13858831073810743
3.1484375,0.5065740891528425,0.9780386298653161
3.15234375,-2.1983430821988215,-0.15749860006668692
3.15625,0.10147890473027611,-0.09560592472038404
3.16015625,-0.8484666487115096,-0.2969574668435803
3.1640625,1.5194725739183326,-0.9833324405571252
3.16796875,-0.3361006534821657,-0.7347104564088656
3.171875,-0.17506300457077223,0.406376326477154
3.17578125,1.3388140178775523,1.3800111706403972
3.1796875,-0.01125308971447979,0.8719392107842657
3.18359375,0.2893846755667486,0.20837769819668445
3.1875,0.27884909769847804,0.047663047890804604
3.19140625,0.5130217648686752,1.0716551317873917
3.1953125,-0.232344950938722,0.7872751549762562
3.19921875,3.802246452536324,0.38544855820028323
3.203125,0.6096321081738829,0.4287810320259622
3.20703125,1.3668874787489709,1.7290435501703454
3.2109375,0.6590550897185148,-1.1558767736865576
3.21484375,0.7142064283654841,0.4172172111182791
3.21875,-0.5064886618193799,1.0253950820538427
3.22265625,-0.8463213007277278,-1.9939492742921114
3.2265625,0.4379701001108559,-0.9365049041028032
3.23046875,-0.6870050099383131,-0.6679244686655619
3.234375,0.13841619711428094,-1.1042410519322694
3.23828125,-1.6445048127555437,0.7017992969840839
3.2421875,0.4801548283331635,1.000618141019988
3.24609375,-1.6113226906555622,-0.046317187282845056
3.25,1.2211762893923734,0.03768308883045905
3.25390625,0.28927181416156567,0.028895227448436908
3.2578125,-0.3646197361250988,-0.0624367424655329
3.26171875,-0.568761093880093,0.08981993651321356
3.265625,-0.789946782822539,2.37369053798346
3.26953125,-0.4187539106481441,-1.449493791647507
3.2734375,1.0888861863937762,-0.8261563550251647
3.27734375,1.4107698076273487,2.0151952159396616
3.28125,-0.4333220127353911,-0.566758350562105
3.28515625,1.5159664325257873,0.34186140820774863
3.2890625,-0.7061136333956015,-0.5623546753273556
3.29296875,-2.1190077537352447,1.1775796296781087
3.296875,-0.259143768582518,-1.5433574887770762
3.30078125,-0.3083742112039512,-0.552174671230487
3.3046875,0.08784318063234975,-1.1016349301036408
3.30859375,0.39304251566810317,1.6366647409742698
3.3125,0.5414079394926543,1.2520119193031711
3.31640625,-0.3188681172246343,-0.7090831816039244
3.3203125,2.723309330983579,0.09828359699933065
3.32421875,0.3752651866929506,1.2471999129408617
3.328125,0.49449403410064396,1.1177941364902915
3.33203125,-1.2317647601355834,1.226242010527892
3.3359375,0.40037723375523937,-0.26836429426899144
3.33984375,-0.6508324837293384,1.128048014215456
3.34375,2.1809192532879265,-0.04418737799148467
3.34765625,1.9420648463969792,0.8807280737710016
3.3515625,-1.9421271694332614,-0.27536733689795884
3.35546875,0.9780510567611076,1.265070463588956
3.359375,1.2175495139947814,0.07175720513413612
3.36328125,-0.23020469773546176,-0.06900850552469001
3.3671875,-0.7056041367972595,0.5242510484639349
3.37109375,0.6877837566081385,-0.8036061985907184
3.375,-1.132776701431941,0.47116123144465216
3.37890625,-0.0513877334829313,0.1481493403821922
3.3828125,-0.29709532104417125,0.21244143801285875
3.38671875,0.7757036958326052,0.3182240675749975
3.390625,0.7276524024856904,-0.3357646745463182
3.39453125,0.6625325028315289,1.4940266389843644
3.3984375,0.49804172143633324,1.515886271928932
3.40234375,-0.472945378099494,-0.4023397271603541
3.40625,-1.0196908046085933,1.5845467894067746
3.41015625,-0.04974958645333052,-2.8444262119011268
3.4140625,0.46014347221795815,0.575742592464474
3.41796875,2.006494980272706,2.1323598208138823
3.421875,0.814194534487023,0.42306481022166964
3.42578125,-0.8846691115737968,0.19932162729734265
3.4296875,0.8367708626252005,0.3909049160042794
3.43359375,-0.14971773038505357,-1.111083688611871
3.4375,0.036457630797819086,0.09765613288893715
3.44140625,0.0535281630626437,0.6683517313059397
3.4453125,1.0922869423036776,0.43905532138374104
3.44921875,-0.12812817092880116,1.5441769060573665
3.453125,-1.7808396965426463,-0.17725316254211304
3.45703125,-2.1689652483439623,0.20105659236834944
3.4609375,-1.940274536982162,-0.49981566267044736
3.46484375,-1.6945573879696507,-0.9262998873635604
3.46875,0.01127425546506185,0.48357163752892457
3.47265625,-0.5106776148920208,-0.8646612460489354
3.4765625,-0.9766748467454894,-0.7746673580380503
3.48046875,-0.30200556569960124,-0.4308987149691909
3.484375,-0.9588467237015895,0.10224253411094533
3.48828125,-1.169293986740407,0.08679174887840328
3.4921875,0.11807622567561607,-0.8397593987406954
3.49609375,-0.09915293837747764,0.647737000893782
3.5,0.0853616367910196,-0.4790709823372652
3.50390625,0.4574897843150838,2.5420164883693643
3.5078125,-0.45588276491059426,-1.6057260074064408
3.51171875,-0.9221296913391985,-0.43569839561753054
3.515625,-0.09620440164993548,1.1450810237100602
3.51953125,1.233676201185766,1.4203634335391035
3.5234375,0.7804875764592959,-0.05376346915747243
3.52734375,-0.07076230321381245,-0.02711978999471878
3.53125,0.8284038626968554,0.11296176549874813
3.53515625,0.6293679136975695,-0.0339298168621112
3.5390625,-0.3641739329161993,-0.9972426774528959
3.54296875,-0.43728546207795893,-1.273976805082061
3.546875,-0.5145079903441734,-1.1771001739614328
3.55078125,0.06951186754291597,0.4441367958191808
3.5546875,-0.1733848133423273,-0.5902823924958382
3.55859375,0.21087708062127533,-0.3807492415458758
3.5625,0.3562184315542891,0.13896710385560124
3.56640625,0.20263450636338337,-0.1324057619484987
3.5703125,1.2182248276337981,0.3173225825951869
3.57421875,0.11319209404302945,1.53192389226409
3.578125,-0.33142438207650465,0.029119097927066174
3.58203125,0.25396554665430665,2.986822480521929
3.5859375,-1.3020400048907506,-0.22753696727384867
3.58984375,0.2038203873189032,-1.4929137322555164
3.59375,0.2889891090826849,-0.47795365859665845
3.59765625,-0.45276153557491317,-0.6045041415180675
3.6015625,-0.21292371055156006,0.16509493499648117
3.60546875,1.007379942630076,-0.7610659078287776
3.609375,0.5240352779735046,-1.0511288329458788
3.61328125,-0.2134012834688889,0.006593957722318617
3.6171875,0.2009163420310687,0.06924350094683687
3.62109375,-0.10948413590008667,-0.4881306800277485
3.625,1.2126806302548603,-0.6289982773350753
3.62890625,-1.0293321824626103,1.0788201791716407
3.6328125,2.4842798318961075,-1.1410337332157636
3.63671875,0.1348497639537828,-0.19470993097674394
3.640625,-0.2133291489907764,-0.3860732126245954
3.64453125,-0.7644955348294253,-2.045266803165793
3.6484375,-1.7017855938775865,0.23803774056230875
3.65234375,1.0290887869870178,-0.5495019000838098
3.65625,0.3004170108190708,-0.5789621289314254
3.66015625,2.1729506055856675,0.08817265193485208
3.6640625,0.2970980423716775,-0.9543078618044586
3.66796875,0.44003972713909895,0.20132088237155552
3.671875,-0.04054001561042824,1.0634503401650024
3.67578125,-0.3834366264696933,1.3194383212773935
3.6796875,0.1386534104301536,0.26675381946033694
3.68359375,-1.8688213407057102,1.0803169452334274
3.6875,0.27556320719321753,0.9863968437753944
3.69140625,1.2755877405899947,1.2856694831291646
3.6953125,0.6392268806102608,0.4265195987454983
3.69921875,-1.1106201028158367,-0.8513152858063092
3.703125,2.5530009005447223,0.9662905711899544
3.70703125,0.4108159123691308,-2.1800121385631863
3.7109375,-1.3375401463835916,-0.3278143198368197
3.71484375,1.0701021098226944,-0.005582725775557445
3.71875,1.7389031922263982,0.1865799895692486
3.72265625,-1.7714039520695868,1.5596868450108958
3.7265625,-0.7196184649522918,-0.16525726133362678
3.73046875,-0.9545815705980927,-1.1295741077344614
3.734375,1.38268288239022,-1.2150410165431518
3.73828125,1.3684667988791097,-1.6527550280477254
3.7421875,1.8479595765344614,-0.9236109150216472
3.74609375,0.35582095183564194,0.33048176247118943
3.75,-0.4573741575889721,0.8448602482216248
3.75390625,-0.22329687911348023,-0.03389435228808074
3.7578125,0.688789554816883,-0.2934408881301236
3.76171875,-0.5760593735031615,0.6315890719250278
3.765625,0.8011394882741372,-0.7368233266450743
3.76953125,0.834231560754168,-0.9428871052945477
3.7734375,0.1350815471243058,0.2674665340375208
3.77734375,-0.4556256075722251,-0.11874700081994281
3.78125,-0.9538173768894135,-0.8852716919420567
3.78515625,-0.7394073533201302,0.6519573250116326
3.7890625,0.8448051957493479,0.438039429349522
3.79296875,1.4038629170876433,0.2973731632282994
3.796875,0.18710135654623797,0.8498650077062175
3.80078125,0.09483884059571115,-1.9629103789588074
3.8046875,-0.0006840156773313249,-0.1836460909319689
3.80859375,0.7348964000576429,0.837740763353611
3.8125,-0.8394872794725288,1.0239891704973951
3.81640625,1.7552301291319636,2.2117396419898188
3.8203125,1.0283246472651453,0.031364851224092244
3.82421875,0.4958068029217478,0.6612552835247723
3.828125,0.9617458807379992,-0.5357967158964533
3.83203125,-0.6474483010971933,0.060107017379748266
3.8359375,-2.106565728309425,0.11104226260849905
3.83984375,-1.3386741578174406,1.7773778043060844
3.84375,-0.5910948634807479,-0.7311255457961265
3.84765625,0.5889934902106082,1.2733597139953339
3.8515625,-0.7895417224266059,-2.0085550746967478
3.85546875,0.06497751620923302,0.09402136119205055
3.859375,-1.2081454752089067,-0.4121943082689631
3.86328125,0.4663036678509142,-0.9316695863473511
3.8671875,1.2295466716144396,2.36452555569947
3.87109375,-0.5385651131498722,-1.0787851269121207
3.875,0.21295991422561,-0.25067487187447074
3.87890625,-0.21769916270795212,-0.18645919499641553
3.8828125,-1.3466903342365693,1.6402291474265882
3.88671875,-0.607590686384721,-0.9755101483301163
3.890625,0.2644285539270309,0.04921476712738752
3.89453125,-0.3848096065940314,0.03734594390850274
3.8984375,-0.8586797696739482,-1.8199337127620023
3.90234375,-0.2528531306447359,-1.4678863017009551
3.90625,0.03446386316513484,-0.28043932067547467
3.91015625,0.6731916180683808,1.3968548604666555
3.9140625,-0.4700370963504367,-0.23247790150372716
3.91796875,-0.5847976556081254,-0.3776416940220648
3.921875,-0.30893202131365316,-0.18390281997041177
3.92578125,0.705114529938455,-0.06439958448565407
3.9296875,-0.3684411130473096,0.16873056308933793
3.93359375,1.2311711541468093,2.8531079397759123
3.9375,0.21976437234343152,0.15831428824684818
3.94140625,-0.42554027634929953,-0.8337953471126592
3.9453125,0.20988974472422414,-0.01345618971298821
3.94921875,-0.2246239468331222,-0.5050783638801856
3.953125,0.2736683697203253,-0.4417600596595555
3.95703125,-1.8498128783670884,0.24310886677909754
3.9609375,0.051858386827688265,0.49293653863446024
3.96484375,-0.04574475617175481,0.5897422947853629
3.96875,-0.8597156021644339,-0.1835519845699379
3.97265625,-0.1219829115886948,-0.4066485190112248
3.9765625,-1.2963476297769208,0.15788658396442912
3.98046875,-0.5827754944367805,-0.16228172874192762
3.984375,-0.9691149553082559,0.09321142255698994
3.98828125,1.451908989665169,-2.228836894138
3.9921875,-0.38222159042271686,0.41799670459023186
3.99609375,-1.4511038201476554,-1.7353446347921466
4.0,-0.15943603530769707,-0.008167983653656338
4.00390625,0.29173823559420115,0.24666764979900008
4.0078125,-1.0511406349194456,-0.4731284851281132
4.01171875,-1.119140349211254,1.0023369940157232
4.015625,0.8793426030695723,0.20293223141581293
4.01953125,-0.03298802343539833,-0.32003213045551426
4.0234375,0.23858769816276176,2.258970609356897
4.02734375,-2.2239588653921243,-1.064529452714826
4.03125,-0.5265366650120198,-1.3021465620595394
4.03515625,0.1855022942925481,0.3914511460571821
4.0390625,-0.7572201065874754,0.36627975173905275
4.04296875,-0.3807717089023931,-0.04701541513955609
4.046875,1.4213323651680856,0.9801139550477803
4.05078125,-0.21175377177514323,-0.7189911243171906
4.0546875,0.14282168228714828,-0.1770874160572968
4.05859375,-0.1427319456534566,-0.5441757651189619
4.0625,0.7116764567092496,-0.27164313879291785
4.06640625,-0.8949004810599687,0.0887397104873986
4.0703125,-1.2283255083333953,0.2618293682011376
4.07421875,0.49702846590898553,-0.4210003065185161
4.078125,-0.712103071656116,0.775070233823667
4.08203125,0.6861756193709422,-0.312197463654117
4.0859375,-0.17505291277213386,-0.23888311769763432
4.08984375,2.1925327693871237,0.13784210978960484
4.09375,-0.13708022200114395,-0.4883687781369418
4.09765625,-0.2145237035119944,-0.5369307927176357
4.1015625,-0.6907348575894734,0.9441062839513025
4.10546875,1.4960297754950451,-0.045550078348681695
4.109375,0.08852490026103062,1.4797284720226227
4.11328125,0.010823802041292161,0.15800050873170352
4.1171875,0.457545458082827,-0.07211676961517835
4.12109375,0.485929149633562,-1.5369879674594724
4.125,-1.0303875906953917,-0.4020978514877929
4.12890625,0.12423849869156742,-0.6198616544745138
4.1328125,-0.9776649673476934,-0.32764612722478553
4.13671875,-1.01682372292317,2.35479202483555
4.140625,0.7012302090659307,1.1925821580185096
4.14453125,-0.9883000820656946,0.7881777679641456
4.1484375,-0.9627656645145045,-1.2004656593763445
4.15234375,-1.3245568163914385,-0.20832642489249995
4.15625,0.01651625686583297,0.18721946870166375
4.16015625,-0.4781843071511782,-0.593197130802607
4.1640625,-0.25237367526901167,-1.1141079919631662
4.16796875,-0.4787109946390979,0.9586204088784116
4.171875,0.0510614702629555,2.366981160189907
4.17578125,0.02315326817641434,-0.6316966099271293
4.1796875,0.04633867178924204,-0.08622398829321222
4.18359375,1.2567310253769692,1.6462867345339907
4.1875,-0.48328532827531623,-1.8860244362801306
4.19140625,0.1837021078032739,-2.6969134391494176
4.1953125,1.6001115312571195,-0.13690841565076436
4.19921875,-0.3954268220081527,1.5538205374060028
4.203125,-1.0977014552606192,0.39657925834286034
4.20703125,-0.9093753595433536,0.2368442749799575
4.2109375,-0.39056228126484566,-1.8975527708872477
4.21484375,-0.6269454258730087,-0.1595080598895434
4.21875,-0.6816476459735644,-1.2090208454575206
4.22265625,0.4743432149619919,-0.8728173546699586
4.2265625,-1.4423655361981547,0.6890817270403718
4.23046875,1.154571741611675,-0.6050450516828427
4.234375,2.236498424323442,0.057308565445900794
4.23828125,0.834360241111765,-0.15791189749910461
4.2421875,-2.3222027847819393,-0.05195002819868402
4.24609375,0.553427152432548,0.237731963573329
4.25,-0.38166085383607373,-2.51573951931725
4.25390625,-0.014751058777158696,-1.3098955000767796
4.2578125,-0.9367904424863853,-0.09750240296883897
4.26171875,0.12971374425750104,0.05067306494400521
4.265625,-1.0178115862090116,-0.6878423173046897
4.26953125,-0.9076227371459638,2.016932752079008
4.2734375,-0.2673964797899003,1.4483815527115202
4.27734375,0.3795090647647316,-0.22787574632657334
4.28125,2.135595427536999,-0.34477693017263694
4.28515625,0.22688431188354716,0.24315592651701684
4.2890625,-0.5825783184368446,-0.527646326671052
4.29296875,0.2171637432196493,0.02625308253226685
4.296875,0.08692915939655275,0.13819899067684385
4.30078125,0.3686316216441163,-0.12714856382910142
4.3046875,-0.8549855038251842,1.1112999872303937
4.30859375,-0.29285414741891747,-0.17257260087536494
4.3125,0.21680780376634107,-1.0275763671396405
4.31640625,-0.3825807957084431,-0.18220006549322418
4.3203125,-1.6609421626596523,1.389117899525279
4.32421875,-2.3890132592952447,1.3995779815497364
4.328125,3.1721211822057844,-0.06166810915741704
4.33203125,0.08824950935233662,1.2386504958177176
4.3359375,0.7784295387842218,-1.3890713117093052
4.33984375,1.2918197467843164,-0.26923676019641574
4.34375,0.32426891354798837,1.1119614696310185
4.34765625,0.3190909085994154,1.1101857770377752
4.3515625,-0.2937056496120352,-0.3544295774088959
4.35546875,-0.40297754785135487,0.17493331787573266
4.359375,0.4509215174159665,-0.7998957926436039
4.36328125,-1.9835135350613204,0.027026443647671768
4.3671875,-0.1770691861884214,0.02283506267345182
4.37109375,-0.14972113633029951,1.6692150358845348
4.375,-0.9873302951598258,-1.5651215508764496
4.37890625,-0.27335054945936604,-0.7770028903179376
4.3828125,-0.3561016447660882,0.934926292256568
4.38671875,-0.26374509075782365,-0.32104149444995034
4.390625,0.9709771073680493,0.07839250599487939
4.39453125,-1.649282566642583,-0.3729367468276221
4.3984375,0.28287699916859393,1.0951576546831014
4.40234375,-1.3897678669884277,-1.6602964136087839
4.40625,-0.9152670088602539,-0.41220417221363753
4.41015625,-1.5109261180835376,0.3101976042177797
4.4140625,0.8801000809280941,1.0450939199214895
4.41796875,-0.31154867127442687,-0.31057197078739757
4.421875,-1.0889878631972802,-0.5059500007149338
4.42578125,1.0436143024696845,-0.06793610247640876
4.4296875,-0.20943084393882933,1.2388081358560543
4.43359375,-0.18487681043542425,-0.29110038489268364
4.4375,-0.00422146480745515,0.7248263569516473
4.44140625,-0.827784868130179,0.4496337127338943
4.4453125,-0.2632961102508982,0.246232668933997
4.44921875,-0.17158963739337008,-2.2165400000401037
4.453125,-0.37212913400341036,0.5362597468217742
4.45703125,-0.3779068418769564,0.8081761627395619
4.4609375,-1.3187811405507501,-1.8279528698874299
4.46484375,-0.7671165250367625,0.11695700958608178
4.46875,0.8773385070067269,1.141933266965059
4.47265625,-0.5873317524968898,0.24714059010946404
4.4765625,-1.698156495493898,2.472434488255242
4.48046875,-0.21388132033772075,-0.8128548454274013
4.484375,-2.528068897277982,0.9425148445272207
4.48828125,-0.8571844483376666,0.03554213498032227
4.4921875,0.32996013118388196,0.3376787124862676
4.49609375,0.48449968883446365,-0.07243233456017677
4.5,0.3891553995970091,-0.42996036596157855
4.50390625,0.06277463331741502,0.9841563991296064
4.5078125,-0.678497338069092,1.1598107344273212
4.51171875,-0.36344116208669236,1.227500810003864
4.515625,-0.8641174239453709,-1.413351786760805
4.51953125,-0.7731486078826749,-1.22860103801359
4.5234375,-1.1435358382973966,0.33096197313897846
4.52734375,-2.228201509263932,-0.3099652171362457
4.53125,-1.2799514762147235,0.5663345684642054
4.53515625,0.7152547705208445,-0.7927458962198061
4.5390625,2.2497835402894406,1.7705654565191937
4.54296875,0.8429649123774151,-0.4042387121497564
4.546875,0.8156986973650019,1.2182284505563903
4.55078125,-0.050246535642219176,0.34889140663552626
4.5546875,0.13469408971788824,-1.0153437718963814
4.55859375,1.627385192587327,-0.5338247226927676
4.5625,-0.0033071376170912205,0.2467467633810702
4.56640625,0.2492344264231563,1.3923358417803389
4.5703125,1.565067436562146,0.42756866495560547
4.57421875,2.0039965159208126,-0.5462147194218703
4.578125,-0.874825672559823,-1.5004583234253799
4.58203125,-0.12934164464092587,0.3705517506711892
4.5859375,0.6348783708379582,-0.5463703985029807
4.58984375,-0.3168455458062449,1.1644504260864263
4.59375,-0.1758285264332288,-0.31600912638146633
4.59765625,-0.855274194872321,-1.0049981113289752
4.6015625,-0.43292395143854895,-0.8715470497362136
4.60546875,-0.051261529884983004,0.07845781566789481
4.609375,-0.4398436543824559,0.37919690844472415
4.61328125,2.907366131374247,-0.20493869357769243
4.6171875,1.5951832072494714,-0.6549419110610311
4.62109375,0.7566472254368604,-0.023107065970399843
4.625,-0.044340262060835106,-1.768555739342475
4.62890625,-0.6987077320557852,0.08825904410768988
4.6328125,0.8076212164274563,-1.6164483329140016
4.63671875,-0.6333455960927837,-0.17265745684529507
4.640625,-1.2504442747652929,-0.7816832505973551
4.64453125,-0.9099269662594076,2.609391263699295
4.6484375,-0.5067149379469834,0.2620354602568763
4.65234375,1.1886054204077676,0.8059378689444194
4.65625,1.0064874582247743,-0.6449925975338134
4.66015625,-0.4841641370978823,-0.9233479262874618
4.6640625,-0.5660055298120742,0.02716408404724097
4.66796875,0.6038314543531005,1.1682247417039395
4.671875,-0.2795626268922888,-0.30762191767698277
4.67578125,1.1609956224759461,-1.1634662543102294
4.6796875,0.7476643742500738,-2.094761702500647
4.68359375,0.006370692263658228,1.4404301008429734
4.6875,0.3955028231516074,-0.43204381877990305
4.69140625,-1.1908948866493538,0.7326246630235573
4.6953125,-0.9964908254132435,-0.3435207175109732
4.69921875,0.18155493324799796,-0.5791021305095404
4.703125,-0.3655415502361857,1.1809595472205108
4.70703125,0.6692389379094686,0.2775300948136445
4.7109375,-0.37211924939719726,-1.503714622808457
4.71484375,1.4247981673587569,-0.7166916872128919
4.71875,-2.1239081403483313,0.20712496085614557
4.72265625,0.4129583104961932,-1.0136490107864673
4.7265625,-1.5421435923740112,-0.6400880274578182
4.73046875,0.1701384641419201,-1.7486409681037354
4.734375,0.5947024427538941,-1.9227551342783542
4.73828125,-1.0803861318325745,-0.9721521734905537
4.7421875,-0.7557731261571855,-2.0097318291637656
4.74609375,2.304247938582232,-1.1621649856662464
4.75,0.3705471089082081,-1.2958462483018538
4.75390625,-0.08054601817692825,-1.3520992083777776
4.7578125,-0.8746317305496587,-0.3211147075463673
4.76171875,0.5539934822680441,1.2830301474673564
4.765625,1.1326926955533354,-0.8597772638709833
4.76953125,0.6828184120352198,-0.7474801816332429
4.7734375,0.9930725113316604,-0.08255905662289348
4.77734375,1.2034870833017595,0.5770052135553257
4.78125,-0.08016298779669141,1.8886732752686413
4.78515625,2.8653459129463736,-0.3538374299622732
4.7890625,1.072901697693171,0.17119150788407042
4.79296875,0.6902147179308857,-0.5546723468517896
4.796875,0.2484031593803193,1.5040912050602548
4.80078125,-0.5645977072394391,-0.09358688320968132
4.8046875,1.1025231548185137,-0.5159738598812521
4.80859375,1.086975711326994,1.1368773719801624
4.8125,-0.9158109944607563,0.9095199093135615
4.81640625,-1.602965333887223,-0.41264843179227184
4.8203125,-1.631783207950877,1.4990008784970916
4.82421875,-0.2494042263480166,0.4910045343038857
4.828125,-0.2201151238357322,0.1043781348827887
4.83203125,1.3250332439119523,-1.6838226843359971
4.8359375,-1.4859009452024905,0.2252631207631381
4.83984375,-1.1667223132883104,-2.3026526115565673
4.84375,-1.4686885414502033,-1.3418904940124572
4.84765625,-0.039853478901446165,0.14206777299077616
4.8515625,0.13567455442861331,-0.2931752355333504
4.85546875,-0.518640759007381,-0.6980893935199215
4.859375,0.485503324888788,0.20249346707027446
4.86328125,0.9741539401634327,0.20124053051150395
4.8671875,-1.9509797294645765,1.8480506729904562
4.87109375,-0.27442125681302365,-0.6216274748408255
4.875,0.020932536484509004,0.5315429213316774
4.87890625,0.4373612200831709,-0.5975437492556551
4.8828125,-0.7231730274447585,0.19648020621940546
4.88671875,0.9331233880608472,-1.1164696074390676
4.890625,-0.5330875406220542,0.004375992038438048
4.89453125,-0.10777828404236034,1.1449097413164109
4.8984375,-0.3185498399728615,-0.26482282443360694
4.90234375,-0.5333583045970769,0.3242288344134136
4.90625,-0.3917022540622286,-0.06917954582593268
4.91015625,-1.1681663102397053,1.2053701830753967
4.9140625,-0.3230841148996858,1.0618089805435709
4.91796875,0.2266614704004632,2.5394877516712135
4.921875,0.2729520813717751,1.1703017035103012
4.92578125,0.7737472423545891,-0.268860120094637
4.9296875,0.732306525505798,1.2756856043180222
4.93359375,-0.7377412111246975,0.8044274327156969
4.9375,-0.16882627322587532,-0.7649599883540977
4.94140625,-2.3302278909379153,0.5075461832333107
4.9453125,-0.11461816209130381,-0.14079306724510432
4.94921875,-0.8173378136304373,0.8408552981225186
4.953125,-0.6378704917225773,-1.622170793325878
4.95703125,-1.3452065555667805,-0.5894864323535549
4.9609375,0.031823142698523064,0.07128774487408052
4.96484375,-0.4622625316885422,0.002115155097106403
4.96875,-0.503653560663835,0.6091709440221998
4.97265625,1.7818303341189459,0.32658563397893897
4.9765625,1.4848881730481356,-1.2486504861457495
4.98046875,-1.6186315870292038,-0.622497202755494
4.984375,0.8591745164547009,-0.9873853385281758
4.98828125,-0.5039804771631476,-0.18599558668180502
4.9921875,-0.25169642048120694,0.5073026349142453
4.99609375,0.228964349697756,-0.3134405558420755
5.0,-1.039202824995646,-1.5011981310095364
5.00390625,-1.5053096236444756,0.4582648589079851
5.0078125,-0.30604835013130693,-0.5578566057156803
5.01171875,0.5491209204201921,-1.3910112349982584
5.015625,0.3009114405347276,-0.038744909430065436
5.01953125,-0.9018274689325126,0.3464699416498474
5.0234375,0.5225027835151563,1.8738430862047124
5.02734375,0.03380257891091478,0.10639958196985211
5.03125,-0.507304838392825,1.8860868230956067
5.03515625,-0.8968787133111105,0.604547994461023
5.0390625,0.6195127279012627,1.262193567869194
5.04296875,0.3766298321866005,1.9583696665361938
5.046875,-0.4083699299479294,1.539305484097358
5.05078125,-2.123721870561239,0.3653125279754784
5.0546875,0.39596385714474674,0.6984251827156772
5.05859375,1.1087914849025247,-0.3035651370637297
5.0625,-0.65265549528553,-0.24197615749014154
5.06640625,-1.127506946987018,0.917538855111933
5.0703125,-0.14798519119784498,0.6124857235169371
5.07421875,0.14955070104422646,1.3580649720111089
5.078125,-0.5866396129795607,0.45098518215317884
5.08203125,-0.8615458925562102,-2.7074967167116943
5.0859375,1.2465906225961947,0.6247114282240097
5.08984375,0.0674562674917423,1.5725907756534105
5.09375,-1.2783787933744768,-1.445758007010002
5.09765625,0.24043346071028393,-0.23025214959075846
5.1015625,-1.5609286318927702,1.7071129056174963
5.10546875,-0.3683841907657417,0.630918967662657
5.109375,-1.0842985680226012,-0.07560935279335726
5.11328125,-0.45138478525774983,-0.6366546918583926
5.1171875,1.6766222317897341,1.5123081604070598
5.12109375,1.2519605997234464,3.2134467123762356
5.125,-0.9055517988340757,-0.348067089826492
5.12890625,0.9220092095416622,0.49800796002564646
5.1328125,0.8734311838387278,-1.016127241211461
5.13671875,-0.1578552690943482,-1.7935705905309707
5.140625,2.193085379773804,0.5627457778700826
5.14453125,-0.2911020728975968,0.3082077662579989
5.1484375,-2.2844911567163124,-1.5824872339028364
5.15234375,-0.8474343471038867,0.5949832461369622
5.15625,-1.0007122652629514,-0.27124366206479844
5.16015625,-0.12406040201927457,0.36277847539176566
5.1640625,-0.4658464657125283,-0.758191889341322
5.16796875,-0.7636774241577239,-1.0238650359538264
5.171875,0.03965887872748071,-1.0230654238609282
5.17578125,-0.19247097363275936,0.5428189212442476
5.1796875,-0.24643368902909843,-0.2892152341834511
5.18359375,-0.33797016439271416,0.24785131409784478
5.1875,0.06753896174322689,0.5626509600249853
5.19140625,-0.09632768937211962,1.7481829377363347
5.1953125,0.9447808571918214,0.537077964022176
5.19921875,-0.5379105612388528,2.7543694310735454
5.203125,2.0741596408531904,-0.5427978691069326
5.20703125,-0.5926966132570629,-0.72524984777783
5.2109375,1.953049369644681,-1.0724217345239715
5.21484375,0.18622921620587057,0.9875836388459223
5.21875,0.08108141107965897,1.4669866470050366
5.22265625,-0.4350747105319103,0.6489624614558525
5.2265625,0.29671053082706145,1.0835246565124328
5.23046875,-0.7722383218327739,-1.2869904012685098
5.234375,0.39810648140198346,0.542836714089397
5.23828125,0.7941622942457969,0.5847738523132998
5.2421875,0.05849989249773693,1.7472528823979825
5.24609375,-1.2674425052535383,-0.4770957796965411
5.25,-0.21252770277161387,-0.019637610713874303
5.25390625,0.7156935490325306,-0.7916496698229697
5.2578125,0.5553585668842141,0.862120157505547
5.26171875,-0.01551663633997473,0.4493723297634261
5.265625,1.1395350588597961,-1.7659317697540424
5.26953125,-0.7509573852684391,-0.44051004753852335
5.2734375,-0.39574554099973724,-0.43833080876142716
5.27734375,-1.746884644393092,1.3821459690727458
5.28125,-0.30391396390966385,-2.5265444970906525
5.28515625,-0.6344870626722106,0.6163286273957584
5.2890625,0.9763819465167555,-1.354428134809355
5.29296875,0.2633747745860357,0.9463216958112849
5.296875,-1.1078018742068791,0.47354471108693086
5.30078125,0.9546595758571861,0.5602020091034478
5.3046875,0.4046137827739601,-1.4683883654545342
5.30859375,-0.1410685925451745,1.4552306792467669
5.3125,0.6830200014856164,0.8712808236208145
5.31640625,-1.2559251838992074,0.2908646496556079
5.3203125,0.42666142026462595,-0.6641686314686747
5.32421875,0.8920526137062483,-0.6237538845248488
5.328125,0.7027947078017367,1.0586418492751495
5.33203125,0.006510327431530276,-0.47180537483246987
5.3359375,-0.4170803567260586,1.599385930530561
5.33984375,0.4141494415801079,-1.520223648758554
5.34375,-0.5113891640524091,0.28530805349623417
5.34765625,-0.23727497848194187,0.950062449094651
5.3515625,0.7509856531674611,0.8027901215305363
5.35546875,-0.35220467596400096,0.1108693697656249
5.359375,0.9782568567523855,1.6207533238434482
5.36328125,-0.13506465362786182,-0.7044247966354157
5.3671875,1.5984027204165678,1.492742283483286
5.37109375,0.18733649624755777,0.722855849536347
5.375,-0.47735156594881717,-0.31758543510977705
5.37890625,-0.9893623909784874,1.4819971684254118
5.3828125,-0.012626591551046562,1.5287710694855026
5.38671875,0.025404569836922474,0.7217385797717533
5.390625,-1.4328227127058368,0.951146235200662
5.39453125,-0.04785140482817755,0.449265080236579
5.3984375,-0.2753645901255985,-0.7015165165351686
5.40234375,-2.595963477175645,0.5593081346550142
5.40625,0.7094124797527163,1.0438645161756392
5.41015625,1.0683397042327403,0.20979356294763513
5.4140625,0.10063959530100258,0.7458555190191893
5.41796875,0.5750581944567416,-1.0349403424196382
5.421875,-0.7426820540966623,-0.1994857453546508
5.42578125,0.8921718467218571,-0.27162467933396
5.4296875,-1.035368631592642,-0.46034477888866226
5.43359375,-0.5174014583815599,-2.0476577049555975
5.4375,-0.15983687310045844,-0.16137048190157963
5.44140625,-1.3132221941328253,-1.0216100455643653
5.4453125,-0.7771923147587256,1.1636368483669532
5.44921875,-0.5452105790399243,-0.5352190340860256
5.453125,0.9192539167263633,-0.16014685665313955
5.45703125,-0.9896171939003355,0.8452874887601146
5.4609375,-0.46717693813932587,-1.7826142440067179
5.46484375,0.5818211436078597,-0.3659867815753034
5.46875,0.9042662182495295,-1.3768091629240007
5.47265625,0.26192580192958714,-0.8141730346657539
5.4765625,-1.036910803423027,-0.15440766955689475
5.48046875,-0.7529027767799873,-0.17456352259631996
5.484375,-0.28559225376067565,1.4371587101884946
5.48828125,-0.18406341411112256,-1.0676684356909312
5.4921875,-0.23080904588473375,-1.2062486332610534
5.49609375,-1.7027177215683522,-0.3375859510321915
5.5,0.2903853619900376,-0.6482772669127894
5.50390625,0.2808733321068289,1.0213514399995638
5.5078125,1.0021053751018707,1.0195895245621491
5.51171875,-1.8736228088973101,1.6030952384081703
5.515625,-1.5539145341694962,1.064103926106683
5.51953125,-1.0564479532013378,-0.18078239913074517
5.5234375,1.2568635402565544,1.0801599399789543
5.52734375,0.382103910916852,-1.0062436478939158
5.53125,-0.21791862173439813,1.219519980255351
5.53515625,-1.1073380393181986,1.5354962152987237
5.5390625,0.531265207057546,-2.074362965225688
5.54296875,-0.09004588855436062,0.7337016134165941
5.546875,0.38336587167517816,0.8581388871568587
5.55078125,1.0035239619848804,0.7533872431660515
5.5546875,-0.020131195881152458,0.27745911582092325
5.55859375,0.9945443937815189,-0.5282382532967159
5.5625,-1.39417851001004,-1.4096160294556144
5.56640625,-1.1437316082405196,-0.7166615611887557
5.5703125,0.7781175629074829,-0.3582413614011822
5.57421875,1.024878322037212,0.4261101582211982
5.578125,-1.440140298227925,1.077388628533294
5.58203125,0.09164854498202005,-1.6886316623407864
5.5859375,-1.1356496230375301,-0.12958276053828624
5.58984375,0.25422851950800246,-0.11982696762728338
5.59375,-0.461640919840299,0.13873407410886646
5.59765625,-2.093089879511047,0.11392350630631692
5.6015625,-1.337011699340462,0.2229141141252478
5.60546875,0.6502486025354172,-0.07690036413082196
5.609375,-0.20550068570275012,-0.3691934570686896
5.61328125,1.2415841284393359,-0.7432175827783086
5.6171875,-0.9622778299912095,1.5659608480519247
5.62109375,0.4926698681553275,2.0117195304853173
5.625,0.5997210000323862,-1.0641348181445915
5.62890625,-0.2212204190560601,0.5668459107517029
5.6328125,-1.1807366093295628,-0.8039556074451741
5.63671875,0.02362491855050506,-0.4809682016998624
5.640625,-1.7091173983818206,2.1854193342189077
5.64453125,0.8197517545872577,2.069995535598785
5.6484375,-1.7398237799184135,1.2967557320613083
5.65234375,1.6845373168609006,2.7149058872073106
5.65625,0.9708665518639253,-0.9194245312549222
5.66015625,-0.006509543575120645,1.188533706023673
5.6640625,-1.1261933003414917,0.02140409800057469
5.66796875,0.9508970984538877,-0.4402514078410936
5.671875,-0.6570609974517909,0.5215494124486486
5.67578125,0.0673648757315572,0.34603829486742876
5.6796875,2.1762362016777894,-2.462815404506553
5.68359375,-0.5160547731911035,1.7516546065502105
5.6875,-1.5451517107433304,1.1324340710184888
5.69140625,1.012046243747252,-0.6250362600224358
5.6953125,-0.20256349340224208,-1.3311155135193462
5.69921875,1.4827924343885384,-0.18990670482515232
5.703125,1.4539307899631675,-0.5651405592805554
5.70703125,0.8659908465078568,-0.4700682256106779
5.7109375,-0.10545420463356395,0.1273747683268003
5.71484375,-0.6693792276226603,0.3462233100224114
5.71875,-1.7285362592092022,0.39895889700420417
5.72265625,1.3937310653380086,0.08198612130127918
5.7265625,1.078849934001125,-1.1839855930592296
5.73046875,-0.08777528401076716,0.7398230358876685
5.734375,-0.043924984687229905,0.2052832411527878
5.73828125,-0.5510118627860875,-0.1073662296003679
5.7421875,-0.8970525738688832,0.36479643112179827
5.74609375,0.532346609757965,-0.8212683201468657
5.75,1.7611681140058906,1.4251966366342845
5.75390625,-0.40106397655210047,-1.2365838529900355
5.7578125,2.3561756476008986,0.8769862780104603
5.76171875,1.5247814555400965,0.1407448756949708
5.765625,1.708413941725459,-0.8406722083075236
5.76953125,1.0086880572044608,1.5133758194590339
5.7734375,-0.08595254870871145,-1.9272364553571775
5.77734375,0.7402159592443858,0.6476661484915139
5.78125,1.0351976197907706,1.1272142707543542
5.78515625,-0.008925707732985453,-0.4086178827569756
5.7890625,0.5132539765754973,0.5100260995941561
5.79296875,-0.43831443845291207,0.4992276105989708
5.796875,-0.8112165794920679,0.7403058738348433
5.80078125,-0.12717427636771408,-1.0231441375936132
5.8046875,0.3777682421130763,1.3129730709849248
5.80859375,0.5228664674754664,-0.5090056079435812
5.8125,1.47494729160246,1.4852979765572007
5.81640625,0.964025974242112,-1.0519294916568656
5.8203125,-0.21563261245788426,0.5666485655137359
5.82421875,-0.4514701811948897,1.5593717489302794
5.828125,-0.906645315078721,1.9278857302212693
5.83203125,-1.6958274717740045,-0.027331364842780204
5.8359375,2.0539134032526176,0.47120941363753044
5.83984375,-0.9098949949209385,0.21967829071747713
5.84375,-0.1616670451812455,-0.5500074247509574
5.84765625,-0.17081615742557482,-0.2964723683846322
5.8515625,1.534654236786645,-0.9826614378711264
5.85546875,0.5297277550876394,-1.3864949242412745
5.859375,-0.4468829107491909,0.8496171848451429
5.86328125,-0.8485127114335365,-1.883954771039786
5.8671875,-1.2283820062135673,0.652937942768331
5.87109375,-0.9880543947912359,-0.9491847343172825
5.875,0.5531382653881181,-0.39704585600921993
5.87890625,-0.7373368437707156,-1.4679551996625908
5.8828125,-0.5328787538632905,0.23618090278667236
5.88671875,0.5433249094940709,-0.2375819010214874
5.890625,0.19199823571267957,0.4877495249434304
5.89453125,-0.28450468806470414,0.7037907977454396
5.8984375,0.4233794549576645,0.5139883499489653
5.90234375,-1.1623557138341525,-0.42029039611019386
5.90625,-2.193421361522015,-0.4746744117549868
5.91015625,-0.6150250884217412,0.05883404215548499
5.9140625,1.180133696193335,0.7130865280792645
5.91796875,-0.37166594846152773,0.47529841123846256
5.921875,-0.04459593535200622,-1.6446194138586883
5.92578125,0.04172077364337959,-0.26728250391983094
5.9296875,-0.1590750109347068,-2.218090102114372
5.93359375,-0.27734609739377447,1.1543635827182641
5.9375,0.679198604274057,1.718489449133451
5.94140625,1.364563389336965,-0.34177100855510056
5.9453125,-0.21178583084104893,0.08512624894699626
5.94921875,0.7552219960556361,-0.5045852983181933
5.953125,-1.4117522498276818,-0.5485425291008292
5.95703125,3.0970803642880824,-0.027856354052454076
5.9609375,-0.8787009665184905,-0.10696724089066802
5.96484375,-0.22683712180015947,0.26107341514883387
5.96875,-0.3355928954931936,-0.03712245031658102
5.97265625,1.5421363695833412,-0.029414521993933053
5.9765625,0.389223012252156,-1.1563300263307268
5.98046875,0.5353066857803186,-3.1236379778274714
5.984375,-1.1091351484858771,-1.2311034212583096
5.98828125,0.438519226312143,-0.19322566642850758
5.9921875,-0.3197715874283194,-0.1863016545961812
5.99609375,0.8314999685213005,-0.31333246947336524
6.0,0.01743144662182671,0.10677486803007319
6.00390625,1.4808525014237974,-1.0943865173326535
6.0078125,-0.7938161238045538,1.1845671319017959
6.01171875,0.8118587993366659,-1.219566598274014
6.015625,0.08228647472632268,0.20098486761400425
6.01953125,-1.578919827532275,-1.2730288992427623
6.0234375,1.7174435811133526,-0.2517549102685127
6.02734375,0.4303189270540954,-0.5398702284881018
6.03125,-1.3423080632674942,0.6658704787607966
6.03515625,-2.124704369299253,-1.0780340337703331
6.0390625,-0.02768598617112914,1.0501829722628404
6.04296875,-0.16960877771159352,1.781698610618398
6.046875,-1.042379397291129,0.16472860612757384
6.05078125,-1.1967552667653458,-1.5858101782730918
6.0546875,0.9858011063673568,0.395888087142614
6.05859375,0.3373011300374445,0.008464454809855288
6.0625,0.30704488877410163,-0.033411282750421885
6.06640625,0.24651988872944985,-0.4680833832888258
6.0703125,-0.1705420846286964,0.8717053478518912
6.07421875,0.5326040591757603,0.03310832258456013
6.078125,0.1739064881566348,-1.7757836066780386
6.08203125,0.18895339437356384,1.254286927414488
6.0859375,-1.2780552048573304,-1.5873968661860876
6.08984375,1.0412297006068552,-0.14314485853236383
6.09375,0.4507387077618465,0.4430556730331211
6.09765625,0.15689337970433126,0.24086261797823882
6.1015625,-0.43168787317866514,0.33402196398580003
6.10546875,0.37710616578703154,0.848640028198981
6.109375,-0.20843869683509636,0.44155272770034815
6.11328125,0.05958613212679616,1.8817378711184247
6.1171875,-0.16489080599163838,1.7830181919599233
6.12109375,-0.27942150382081116,0.6003608221911687
6.125,0.27193871012140175,0.061855435772757414
6.12890625,1.085069009712706,1.087464398783306
6.1328125,0.22040678645526354,-1.2562622310326916
6.13671875,-0.310749330969766,-0.28269649441713446
6.140625,2.8178739984796777,-1.4340179667350987
6.14453125,-1.1195679614797502,-0.22623643546635536
6.1484375,0.4751521248497811,0.8084870465826025
6.15234375,-0.14712137390826036,1.2226424929956436
6.15625,0.6851770478202753,1.154420439051551
6.16015625,-0.8448713619317253,1.0020664802673018
6.1640625,1.4822615623198518,0.06461388925218367
6.16796875,0.22143672443723308,-1.0556971459434004
6.171875,-0.11864805219782454,-2.2027393808181936
6.17578125,-0.7808614099594028,-1.3838082453812561
6.1796875,-0.2291805969520012,-0.08027148300409515
6.18359375,-0.7974851909276326,-0.25691737529190206
6.1875,0.4752841943234277,0.5318826503902003
6.19140625,1.888590371751632,0.6326431108733203
6.1953125,-1.1253987156504317,0.8400791737604227
6.19921875,-0.00647813675131912,0.08288633521503824
6.203125,-0.12268361310675874,0.20442640380423993
6.20703125,-0.2175829231667793,-0.15039820978388607
6.2109375,-0.07524842735410445,1.0677456581961975
6.21484375,1.9722491294572433,-0.05802148371223284
6.21875,-0.17547688455601107,-1.6955433968762004
6.22265625,1.1899662730489178,0.8775557688954497
6.2265625,0.11121006162393395,0.31687003766962796
6.23046875,0.25259806534154344,-1.282676102737537
6.234375,1.5336349199036452,-0.3507206589526017
6.23828125,-1.0043496193856722,-1.4308156426206364
6.2421875,-0.05676605621416908,0.21900221009425327
6.24609375,1.8051012597938445,-0.3116742327872477
6.25,-1.2039437130097885,0.992798926477956
6.25390625,-0.0746603295098627,0.5710898162752328
6.2578125,-0.919564333741766,-0.9794857340822919
6.26171875,-1.4082823517241478,0.9517121239390108
6.265625,-0.26388451228661874,0.07184681331123403
6.26953125,0.6195087334233131,0.7778059691335468
6.2734375,-1.2181366164915097,-0.7108913908340725
6.27734375,1.6869881491568257,0.28893954439250186
6.28125,-1.4261648929580573,-1.6156773153070867
6.28515625,-1.0058111355756287,0.008840238936894547
6.2890625,0.8512929612124309,0.08689875663830195
6.29296875,1.3116703049018408,-0.9876717513077746
6.296875,0.6003674951245371,-0.43291215977511316
6.30078125,0.9764033991298059,0.010774046874693397
6.3046875,0.3421283046094185,0.10564294791845082
6.30859375,-0.40706187033840885,1.2660580154824557
6.3125,1.8913904614671333,0.2586264138249798
6.31640625,-0.3561523441376166,1.1485571564814245
6.3203125,-0.9669125375476662,-0.1990461206259272
6.32421875,0.6248365693243149,-0.3582831219656775
6.328125,0.11444633575797032,0.2388799395539976
6.33203125,1.0288993460190827,-0.8945619853142891
6.3359375,-1.5275342515751849,-1.5169471904698546
6.33984375,0.5243997126008678,0.2019535244965922
6.34375,0.3303169981056065,-1.0742509472149817
6.34765625,0.151672520985937,2.5075228704902535
6.3515625,-1.1467155876566186,0.5278621941106161
6.35546875,0.1464147300846281,-0.14257980780998325
6.359375,-0.4331611512767334,-0.31123654502257464
6.36328125,2.1853736936388515,1.2219746268274725
6.3671875,-1.5714656696160714,-0.8997846207243986
6.37109375,0.19224945095494092,-0.8452723763619944
6.375,-1.1821585216694952,-0.8662132454021436
6.37890625,-0.5922327900041554,1.2781772188538458
6.3828125,0.33846897518386965,-1.1244766151417214
6.38671875,-0.20457461131372184,-0.4032441329393357
6.390625,-0.5685203192748867,-0.3314326426257389
6.39453125,-0.031044879514821308,2.064587905571644
6.3984375,-0.119489725810871,-1.4415462750416732
6.40234375,0.14000501017755532,1.6830163182560072
6.40625,-1.3985456437758348,-2.0773539401404606
6.41015625,1.9558950453576218,-0.5071867853944201
6.4140625,0.29161534889376317,-0.333721119763688
6.41796875,0.215162209241606,0.2565704651650198
6.421875,-1.1540277423746828,-1.0314911079255944
6.42578125,1.7992480142761342,0.10829016375068616
6.4296875,-0.5557184447394282,0.48361992175617025
6.43359375,-0.22446638285062992,-0.9647377421247455
6.4375,-0.6244674787301411,0.9550808813718341
6.44140625,-0.3183464568725799,2.012307251396191
6.4453125,0.9096553660484777,-0.09233747095443341
6.44921875,-0.4946486761545055,1.047103959007932
6.453125,-0.0641272401103164,-1.1498618703341692
6.45703125,-1.4962363107035683,1.3466535630709067
6.4609375,-0.938757347234585,0.08466794723499187
6.46484375,0.5453517751932222,0.029135907345712933
6.46875,-1.1033019346367974,-1.297483269716987
6.47265625,-1.1094226065432335,0.34935542717702256
6.4765625,-1.8953730167771556,0.5264388957327544
6.48046875,0.4520407764372841,-0.9436864145968874
6.484375,0.05590561734838211,-1.1188034459265268
6.48828125,-0.46313588845415576,0.976313299224495
6.4921875,-1.1583865332421197,-0.47121980156714444
6.49609375,-0.3394745523714174,0.9906122556532445
6.5,-0.09781825573820033,-0.628309575541672
6.50390625,-0.4612193902072484,-1.5508962115442104
6.5078125,1.056343997518943,-0.8074633964480009
6.51171875,1.0774702262224125,-0.8985916861920894
6.515625,0.4535288248643596,0.028424840652156454
6.51953125,0.4140938353331956,0.5550463504529932
6.5234375,-0.06251254033393684,-0.10894705645102158
6.52734375,1.6742379760021262,-1.1428227546536278
6.53125,0.4607913920372169,-0.27825112494651205
6.53515625,1.137661288118509,-0.4211425549569678
6.5390625,-0.5690802871513703,-0.43785932572659175
6.54296875,-0.5469211170287089,-0.15086847975246898
6.546875,-0.20036415507234528,0.2668637830686997
6.55078125,1.095339173933457,0.4813601669614297
6.5546875,-0.1004585662452549,0.20818452824410025
6.55859375,-0.37636078154402625,0.1286821382303938
6.5625,-2.125868562266007,0.44344508169691277
6.56640625,-1.273768835147208,0.9306291819042039
6.5703125,0.4347072709728773,0.9388099640969294
6.57421875,0.0817389012594834,0.5041964346277403
6.578125,1.057540950046356,-1.1379427302274896
6.58203125,-0.5994481534722254,-0.27503070171306293
6.5859375,-0.5803975896999901,0.25960881133960123
6.58984375,1.0335517142868869,-0.581133534465367
6.59375,-0.17450403017454608,0.22920212552441024
6.59765625,-1.5461236134830565,0.607825381986915
6.6015625,0.9620087781881013,0.154520696141782
6.60546875,-0.2738931521100895,0.7352991623674838
6.609375,0.9432037541491745,-2.2319196135713564
6.61328125,-0.2015695940812181,1.1019383024759473
6.6171875,0.03499476841775057,-1.8561790138120664
6.62109375,0.8877928010197753,-1.4518386604897975
6.625,-0.005224880095988468,2.1226792156695096
6.62890625,-0.8913686641979301,-1.2693616661851874
6.6328125,1.1988129636331,0.244418577858061
6.63671875,-2.033207707413437,2.252579168786414
6.640625,-1.1225804416540766,-0.08513389920205183
6.64453125,-2.067924717305278,0.030778211629565393
6.6484375,0.5066045428008156,-1.4564041993368202
6.65234375,-0.16360061398690454,-1.096475035768188
6.65625,1.4334454785323643,0.6830248886110982
6.66015625,-0.16750604189636378,-0.8605203986191637
6.6640625,-0.322026800687783,-2.8870038114927468
6.66796875,2.6815535527445755,-0.8854669714588697
6.671875,-0.30401070451881734,1.1323155301549686
6.67578125,-1.0716448456216652,0.15242305126535682
6.6796875,-0.36622322493288095,-1.7448974581495542
6.68359375,0.7917726170815932,0.5500005593556224
6.6875,-0.3674025196316908,-0.09288672719202569
6.69140625,1.6660500540012901,0.9787646895613831
6.6953125,1.056393311272014,-0.6583871305161895
6.69921875,-1.3689020406125136,-0.014708241961295797
6.703125,-1.4635180272451496,1.5879728227848922
6.70703125,-0.4531413440995361,-0.03060450893350492
6.7109375,-0.6106800702639923,2.0486277535267803
6.71484375,0.39612284623673877,0.12052273106078494
6.71875,-0.8253551137070906,-1.644075364321654
6.72265625,2.1329758127576253,1.725410808367367
6.7265625,1.0674905744633303,0.5329035652574158
6.73046875,0.39648400368613423,0.9905012567432578
6.734375,-0.23985366681970147,-0.03976392735736402
6.73828125,-1.388532316664484,0.4070609768835063
6.7421875,0.8565785357635487,-2.0745566555495296
6.74609375,-0.8578503776492569,-0.059278609498335716
6.75,0.01719513574952294,0.461517751067394
6.75390625,0.3323320159663393,-1.9399702417423148
6.7578125,0.815460710642054,-0.4247845090727963
6.76171875,-0.1481964131536322,-0.49195500590427704
6.765625,1.4768429004566328,0.5692316261479057
6.76953125,0.8951180388083978,-0.005043201468540222
6.7734375,-0.11512651225719793,0.8679069427868317
6.77734375,0.7828094213300921,1.672997366776422
6.78125,1.6937988859448663,-1.0450209882363646
6.78515625,0.29845764692509924,-1.061623473446014
6.7890625,-0.15818464739387036,0.20707701879576607
6.79296875,-2.0537261237782163,0.4832530892924472
6.796875,-0.13051867934263564,-0.762924873233848
6.80078125,1.7004948200712853,-1.1525385119360254
6.8046875,1.1377317053160168,-1.986451360128898
6.80859375,2.2210864413071185,-1.2694219110281386
6.8125,2.2038902776134783,1.1028365525810253
6.81640625,0.5951984222852629,-0.4742042725250982
6.8203125,0.13456218218223953,-0.699901748687018
6.82421875,-1.9595689073702158,-0.23752441656494214
6.828125,1.7016273098496635,0.1418321382957258
6.83203125,-0.39743883351400394,0.48588037594412403
6.8359375,-1.6603183794245246,0.00806138789059861
6.83984375,-1.3346045133170972,-0.8881907192965286
6.84375,-0.3141637303958506,0.3066058009752642
6.84765625,1.823463919045719,-0.6000063663984072
6.8515625,-0.2486293516520243,-1.2966199813715065
6.85546875,0.495007519920951,0.1932395317255828
6.859375,-0.12173516063030075,-0.6953321880674023
6.86328125,1.9900949744392498,1.665613071133879
6.8671875,1.3398902156334977,-1.1289226730757826
6.87109375,1.0246913808686307,-0.538695480322014
6.875,0.54104124428579,0.5696552551831953
6.87890625,-0.10957274581219556,0.5708079560599512
6.8828125,-1.3532085837794938,0.19896181993821732
6.88671875,0.9286602985791723,-1.941031527384883
6.890625,2.0289797997764962,0.5380030902424852
6.89453125,0.547162944477301,1.6224825255071966
6.8984375,0.47952152427939987,-1.833144593501695
6.90234375,-0.6660605210021723,-1.1289321271100787
6.90625,1.4437838985902762,0.43166521567570154
6.91015625,-0.9513444603551336,-0.36608338330607004
6.9140625,-0.10223665659201517,1.3880832975930097
6.91796875,0.594855378219881,1.4237406711473433
6.921875,1.3393808736530934,0.7300566491771506
6.92578125,-0.15305434610333277,-0.23478086038614707
6.9296875,1.3645563057391483,-0.3085814460885559
6.93359375,-0.3719254769207103,-0.9926754351534081
6.9375,0.47986812625403524,0.8159692022073607
6.94140625,-0.7360922103825385,1.404619883346078
6.9453125,1.5686600819634422,-0.24847459104478256
6.94921875,-2.1252133823204513,0.958319963056126
6.953125,1.5927659714575086,-0.09380517208684742
6.95703125,-0.7042328808700871,1.3753118993444735
6.9609375,2.255890994881679,1.3123230239218826
6.96484375,-1.1585448988901008,-0.2058179607233217
6.96875,-0.29350839451342275,0.6984594162353709
6.97265625,-0.6113985815293652,-0.6858540304052386
6.9765625,-0.5040099300767653,0.8157866846025619
6.98046875,0.38538879699544254,-0.9328639235757987
6.984375,0.38213481366336344,-0.7367867177776093
6.98828125,1.6859995678238573,1.769123483652915
6.9921875,-1.106671581955053,-0.5004156022909462
6.99609375,-1.5793831630047948,2.292211887387065
7.0,0.3287637124419595,-2.2478792143343433
7.00390625,0.7185547698854162,1.3824612947616928
7.0078125,0.4049598016081096,0.5111698000695919
7.01171875,0.680644403898862,-0.43093990888052086
7.015625,0.3855345289594159,0.8104751215232854
7.01953125,-0.8400789351494957,-1.223900711459179
7.0234375,0.6917518543512404,0.8453319881456923
7.02734375,-0.8962326541892361,-0.11562881185205846
7.03125,0.24352160320766159,1.316890553467862
7.03515625,0.4043312795970394,-0.6150639039373992
7.0390625,-0.9168768760147078,-1.132707781739021
7.04296875,-0.7924226199925615,1.9459857956575257
7.046875,1.5457261450270858,-0.11064356198956213
7.05078125,2.475607448304225,-2.137685819722154
7.0546875,0.5903976363729151,-0.12701091980634183
7.05859375,0.6360661411256702,0.04456439505168526
7.0625,0.13875210966280274,-1.3267119028317267
7.06640625,-0.526161917948061,-1.0990756095433494
7.0703125,0.3147709222909003,0.33651228997156507
7.07421875,-0.12410335697076424,-0.8875605288405669
7.078125,0.20784653142227483,0.05528029641275351
7.08203125,0.4496784392604781,-0.2752158562746386
7.0859375,0.6057232628233873,1.7440137315785094
7.08984375,0.06260767318378203,1.1826872956141656
7.09375,1.4943844024733013,1.0274674865458993
7.09765625,-0.7951814487805454,-0.09574570889721493
7.1015625,-0.5805014895034611,-2.3518431030061806
7.10546875,-0.388083777555605,0.7566714842962279
7.109375,0.2141841786141629,0.26410987369521227
7.11328125,-1.0475680162261027,-0.7572860253567891
7.1171875,0.05731040284580902,-2.069402764705155
7.12109375,0.6877622124570308,-1.2081987119158033
7.125,-0.396449031173681,2.251240276277782
7.12890625,-0.07586862386847179,-0.5455312319955912
7.1328125,0.22296509087380043,1.75982566211669
7.13671875,0.4545500516012892,-1.6624548283700582
7.140625,1.1010530241719065,0.6753841696250116
7.14453125,-0.03375717737944961,1.7170265543856358
7.1484375,0.4367051259923887,1.0366501744004257
7.15234375,1.5413102351746202,-1.2270421130768505
7.15625,-1.2546426271967912,-0.8197797438734936
7.16015625,0.7442389586706665,-0.42612678700395007
7.1640625,-1.6015649482306233,0.01875472891158108
7.16796875,0.9502213311886654,1.636359023755225
7.171875,-2.520041193523873,0.6253359815439287
7.17578125,-0.7915619404783055,0.8013139373927493
7.1796875,0.37805875206658485,0.4466295932089038
7.18359375,-0.5311414668194357,0.5214448758095542
7.1875,0.4474037454679893,0.4256058866078817
7.19140625,0.9259642636448333,0.9382347064402767
7.1953125,0.5413059010099168,-1.9648062682568874
7.19921875,-0.9532758595884926,-0.112764801126008
7.203125,0.031930070568370494,-0.7366672243876388
7.20703125,-0.9086824266499394,0.2155407848266687
7.2109375,-1.0602651601110031,0.9570652916569903
7.21484375,0.0018938994296319013,-1.729219267681512
7.21875,-1.1204033158585105,0.4162541742277815
7.22265625,-0.6574955511172899,1.4204170073159543
7.2265625,1.1528686482522603,0.041073852755581654
7.23046875,-0.9957130324772232,-0.9192445981795577
7.234375,1.2057380227561139,-0.19466879787304217
7.23828125,0.22253398991750545,-2.1928633472011545
7.2421875,-1.309925013033041,-0.07172394209350282
7.24609375,-0.567843205477109,-0.143538005729227
7.25,0.20360292984125108,0.7141023722573389
7.25390625,0.08822055959173783,1.2724530080137462
7.2578125,-1.523561352142838,-1.8371174223224658
7.26171875,-0.8018776930295,-0.07321404276091227
7.265625,-0.4234225312248445,-0.08434799714957852
7.26953125,-0.0812370748174484,1.4640743101377642
7.2734375,-0.2598401158192683,-0.06481483859645366
7.27734375,-1.4486302022917474,0.9788060202427039
7.28125,-0.9086047139680203,0.8151814727237117
7.28515625,1.664676748988582,-1.3878505753813344
7.2890625,-0.774540416578848,-0.2527059850128125
7.29296875,-0.8661301143759053,0.4335532569354673
7.296875,0.6524565129736689,0.6429267581702316
7.30078125,0.7176644550336073,0.3894574894515447
7.3046875,-0.6294527588280315,0.13915980977936515
7.30859375,0.3523935280697277,-0.5335469662485134
7.3125,0.3770662324012716,1.5883835690323813
7.31640625,0.3419258123947868,0.4127795945124272
7.3203125,0.7571848483510263,-0.1398197997069436
7.32421875,0.05288357152779605,-2.135324898057758
7.328125,-0.43190582858465787,1.0799541764922014
7.33203125,-1.201930128375249,0.5495189440008222
7.3359375,1.461260011405908,1.1091883127869915
7.33984375,-0.6648998344287514,0.6588067823859145
7.34375,-1.828124443511951,1.5542025259559569
7.34765625,1.9201109435756527,-1.87433024306662
7.3515625,1.0509393355707781,-0.5274862750709368
7.35546875,-0.8841976236223736,-0.3536111246458584
7.359375,-1.0625133813231498,-1.2143315673076023
7.36328125,0.46063390004982857,0.10800920394784973
7.3671875,2.4855804580268037,1.3233886102366044
7.37109375,1.1608977865198284,-1.6305147234605557
7.375,0.3204301909188465,0.1612189496179351
7.37890625,0.33301133953309475,0.21662772220597995
7.3828125,1.4869361669013892,0.9300007496552217
7.38671875,-0.3201126032633668,1.2642165826680347
7.390625,0.09361167121282414,1.7747727690778836
7.39453125,-0.5146489158740142,1.4835099031369716
7.3984375,-0.7523908891206712,-1.4004642962129417
7.40234375,0.6883690006263197,0.9386910272564896
7.40625,0.8430768966968202,1.6832659737788567
7.41015625,0.4138583367544572,0.47589500865428147
7.4140625,-0.01933055639280416,-1.667867480131156
7.41796875,0.7090136825173023,1.550452114505155
7.421875,-1.2193614270637363,-1.0748051527040965
7.42578125,0.47015711388916614,0.02600311412478762
7.4296875,-0.7727736462351062,2.043493919336947
7.43359375,1.2432893202372555,-0.9255774236307901
7.4375,0.4450847726096664,0.1357937263300996
7.44140625,0.8167158379678161,1.5968503426844896
7.4453125,0.23321103216821068,0.10253172814344412
7.44921875,0.23534741027054426,1.335514012269124
7.453125,0.2787074940386721,0.45422744897531836
7.45703125,-0.2670173552670179,0.8597757468895715
7.4609375,-0.5848199065726895,0.2328310045223194
7.46484375,-2.1565621580618264,0.7201049997279549
7.46875,1.391367833438652,-0.5459618047419025
7.47265625,1.7286238584913185,-1.635920415955284
7.4765625,-0.7636456403878736,1.0527003510107265
7.48046875,-0.926657411326388,-0.013576547228539237
7.484375,-1.807485255912606,1.2750793468091821
7.48828125,0.7470706597311,-1.920621815715006
7.4921875,1.0184908918352533,0.8904513144965703
7.49609375,0.9165158746589694,-2.6047534050602055
7.5,0.33063504392953863,-1.093063050487551
7.50390625,-0.20865212183138493,1.7857246770246384
7.5078125,1.4037339565674676,-1.1800290508923277
7.51171875,-0.7657187019492141,-0.21961732727026234
7.515625,0.3383849233860362,0.3810707535776748
7.51953125,1.398940557439678,-0.3040612597878723
7.5234375,-0.1465006182360684,1.3799356689914348
7.52734375,0.14313858009449482,1.4921762389838813
7.53125,0.5056225162459995,-1.4481206162681604
7.53515625,1.7336614583803465,-1.626995152522134
7.5390625,-0.3427000512974532,-0.658250320758773
7.54296875,-0.40946739286443495,0.6632882616296847
7.546875,-0.5551287699994569,-0.679284689116721
7.55078125,1.483067619412626,-0.5668138034565003
7.5546875,-0.8990792117059829,-0.3167257539324284
7.55859375,-0.3388127033888493,-1.0640551074890223
7.5625,1.7743510875370585,0.752688797701328
7.56640625,-1.3514381634227253,-1.0365888571858402
7.5703125,-0.6624366249957726,0.04268701737954133
7.57421875,-0.9852239830374345,0.007093385402136287
7.578125,0.7366916324892121,-1.5765240548338102
7.58203125,-1.1471427796277212,-0.2828101146656087
7.5859375,-2.6440695378360473,0.30720048049904264
7.58984375,-0.5303076667465744,1.657845059066161
7.59375,0.5275063694889006,-0.839193959842236
7.59765625,0.2885777112613711,-0.5274661028600895
7.6015625,-0.5386761433497779,-0.5313666599408529
7.60546875,1.4850157662919934,-0.3348303936053018
7.609375,2.151797384754058,-0.620954686157123
7.61328125,1.1172789000174022,-0.7549232656633578
7.6171875,-0.47612596973451526,1.5883990522324385
7.62109375,-1.5259124832233333,0.3395357241655961
7.625,0.21111897176111782,1.3175186716419711
7.62890625,0.038371781174053515,0.5196185097985913
7.6328125,-0.9871397188838633,0.23539183941548136
7.63671875,0.511218139191468,-0.21712099761885392
7.640625,-1.8844097368513952,-0.30990248180631486
7.64453125,0.010316825260988136,1.3956671819834214
7.6484375,-0.9026977917940019,1.0560195151425327
7.65234375,-0.39344752719034304,-0.5622684057337664
7.65625,1.6260181752700273,0.16367643825206768
7.66015625,-1.0612276005065453,1.0953145254725394
7.6640625,-0.6429641028191969,1.642868179253169
7.66796875,-0.3242085893922566,-0.05309964403843107
7.671875,-0.4461198592170161,-0.5082198542698952
7.67578125,-1.0579906422082808,1.9257654841069525
7.6796875,1.5390723608768146,2.1928158070194863
7.68359375,-1.5060159347182251,-0.4991319848009354
7.6875,1.3221076232817468,-1.559120700158634
7.69140625,-0.40338993338307955,-0.6115227537388883
7.6953125,0.8182992046638861,-0.6816191078784062
7.69921875,1.1134666518298288,0.018900818543174543
7.703125,-2.321361133713743,-0.36121074305044654
7.70703125,-0.06307029105477399,-0.3700676551095745
7.7109375,-1.0371208988145233,0.8801958279027093
7.71484375,-1.157706070415508,-1.49961578718178
7.71875,0.7059581419513522,0.4250156220047217
7.72265625,0.3341370791446016,-1.1507450082935433
7.7265625,-0.29624507699706887,1.3743367479044224
7.73046875,-1.1012613296011033,1.3112524881565781
7.734375,-0.9062033672795002,0.5490139376905049
7.73828125,2.2397522445927365,-0.8697790867179498
7.7421875,-0.7474244955253422,-0.028371901556217563
7.74609375,0.22959543887651468,-1.1231233492192254
7.75,0.2641783000445774,1.2406008055794955
7.75390625,-0.7645329122716342,0.12192799562157065
7.7578125,-0.3432250854260009,-0.41133153509863357
7.76171875,0.0602528219297445,1.0199006677987834
7.765625,1.7038807354965562,-1.8155787507841556
7.76953125,-1.0060485510021349,1.273510603679852
7.7734375,-0.4258195143241025,-0.8346746639181101
7.77734375,-0.16384789190335172,0.7849239146018456
7.78125,0.7309055772559413,-0.1743422453923651
7.78515625,0.04772232350273505,-0.14443860751631432
7.7890625,1.092664187751711,-1.6150485975855073
7.79296875,0.16284018626946403,-1.1960968249200936
7.796875,0.6276566951498831,1.026290795630718
7.80078125,-0.5500115720845057,0.31174625360445996
7.8046875,-1.1851301782736323,-0.5260216195736502
7.80859375,1.4013967354163992,-0.9145459982240847
7.8125,0.36871656586379203,-0.09306369797252792
7.81640625,0.10398558366293519,1.5693064740523879
7.8203125,0.3430414010007036,-0.7908364523901231
7.82421875,0.9848751160992619,-0.1915337661581158
7.828125,-1.015593952945477,-0.4743385817956304
7.83203125,0.5406135828852523,0.8971431275396391
7.8359375,0.37530110175568987,0.8445130612012762
7.83984375,-0.3718699329661988,0.8225796795453271
7.84375,1.4547092229058933,1.8974421987976244
7.84765625,-0.5374012949539305,0.0841604696871082
7.8515625,0.5693660528808511,-0.2746466444462738
7.85546875,0.1271442998110355,-0.6364206495368181
7.859375,0.25748305055064474,-0.40735776627489395
7.86328125,-0.24467768487955951,-1.7537714306769459
7.8671875,-1.032877952931958,0.5194025303566959
7.87109375,0.2118660971157546,0.5615119957213618
7.875,-0.1989478155454203,1.4529534316899573
7.87890625,-1.2530295862557497,-0.4226901768852435
7.8828125,-1.0420256332724485,-1.6162765968367627
7.88671875,-1.0534505024872851,-2.079307345426357
7.890625,-1.1254620709463026,-0.07264966107038605
7.89453125,-0.309838884570226,-0.20875783022724362
7.8984375,0.057782767237627895,-1.4987137454136492
7.90234375,-1.379714893974774,-0.11934210513125965
7.90625,0.029557261711046456,0.5719743513228308
7.91015625,0.5282480807662181,0.09282374969357832
7.9140625,-1.0864090058435771,-0.5050744944399623
7.91796875,-0.7410368318661914,0.5913395817012685
7.921875,1.015252637705322,-0.6108501428708755
7.92578125,1.2893594074672736,-1.448518349404932
7.9296875,0.43453708107253486,0.5212574262278378
7.93359375,-0.380314981128283,0.5762979407919051
7.9375,-0.6776568574563029,-1.1542070182921704
7.94140625,-0.9609177276089942,0.23491885189688966
7.9453125,0.8125837281126516,-0.2837701044549216
7.94921875,2.640500259242147,0.9180436855901796
7.953125,-0.45768178355378186,1.062208351785219
7.95703125,-0.84237337383136,0.03738379339479405
7.9609375,0.9326531071381033,-1.483517373967921
7.96484375,0.43468352319086095,-0.9322066568376873
7.96875,-0.005861347567286335,1.6261003563466243
7.97265625,-0.4473345503452087,-1.3640124015068835
7.9765625,-0.49551925421130294,-1.0185414661560126
7.98046875,0.507188231636267,-2.0702016501185527
7.984375,-0.3523873379525809,-0.41919624095134306
7.98828125,-0.6821182925724698,0.06821713526850141
7.9921875,0.8057194154317695,-1.1823560484984774
7.99609375,-0.7813727394588957,-0.9475810189113862
8.0,0.17523732611110376,-1.1403535520370678
8.00390625,0.10160954612031167,-0.23128985129559806
8.0078125,0.13991426838481477,1.1759507536608345
8.01171875,-2.2412460244346897,-0.22786455702184633
8.015625,0.09923151727739572,0.7211971888462624
8.01953125,-0.18437642751359384,0.214210375038747
8.0234375,0.16957414896304973,0.620687667308784
8.02734375,2.7850942975945565,1.5043226288249993
8.03125,0.686546979150024,1.336461621563717
8.03515625,-0.3072278534361146,-1.228777474179168
8.0390625,0.05081391075588221,1.394202645930378
8.04296875,0.3313323804217455,0.023686754839734574
8.046875,-0.19211640169439514,-1.3861328074736043
8.05078125,-0.12624748383578893,1.036109744386837
8.0546875,0.6357723575119127,0.4655744219052849
8.05859375,-0.44259648561702464,1.3752850462720203
8.0625,-1.4679360811254507,1.0177545537018309
8.06640625,-1.36187046497139,-0.05492092129796372
8.0703125,1.5526474648522288,0.7162942662628603
8.07421875,-1.264443460681431,-1.0932136147494436
8.078125,-0.20957842744892283,0.9384326857425879
8.08203125,2.440357717814733,-0.009936313314150937
8.0859375,-0.536520603701641,-1.248530250166249
8.08984375,-0.8685064834646744,0.8522388620584345
8.09375,-0.18402020049187184,-0.075235141802912
8.09765625,0.40073190250045554,0.5927272997352057
8.1015625,0.7399256323261233,0.016093227441075702
8.10546875,-0.558630847253855,-0.44426516323055043
8.109375,-0.23467886497263155,0.555012752778272
8.11328125,1.013746158758684,0.8459002984890558
8.1171875,0.06678718128120067,0.5191969921785354
8.12109375,-0.6107751415415531,-0.7072483172188492
8.125,-1.5306996211851054,-0.520335880075317
8.12890625,0.7469249054950641,0.9365006927003996
8.1328125,-0.15626952977376588,-0.516341828015224
8.13671875,-0.3825369447406304,0.653127541357558
8.140625,1.6937274529763293,-0.5201535302128776
8.14453125,-2.891860703173821,-0.5236878319888865
8.1484375,-0.7082758803758442,2.001991270954506
8.15234375,-0.5971758123706538,0.38285696885424436
8.15625,0.7798645220032374,0.9196424035594979
8.16015625,0.7932596160119283,0.8366332363759
8.1640625,0.6675232558690266,0.5228833385029875
8.16796875,-0.0036704306602864303,-0.5639499332392
8.171875,0.8726124493601736,1.0067411676665712
8.17578125,-0.2356052571025228,0.13652085413356266
8.1796875,0.3632863894003972,-0.621899947971257
8.18359375,-0.1792023337996561,-0.8409022590632602
8.1875,-2.2026501844205195,-0.4030963050449031
8.19140625,-0.019030862157533895,-0.7649732284878656
8.1953125,-1.3973576550888256,0.7769094820093609
8.19921875,0.17478533561510365,-0.18668732235378196
8.203125,-1.4469284950396784,-1.6719018797197862
8.20703125,1.4106829053156982,-1.1836210753926444
8.2109375,-0.762019386227795,-0.9222611334027956
8.21484375,1.9946467916106898,-1.248172217838295
8.21875,-0.4375863750540581,1.2272577170174335
8.22265625,-0.22889172560988177,0.25200269896514227
8.2265625,-1.1475528695105481,0.3977435698772951
8.23046875,0.18737429404225597,-0.09117833091000124
8.234375,0.41180983059474346,0.9642312726216001
8.23828125,0.817045651892809,1.8236082673107226
8.2421875,0.5068131340238867,-0.1544482053541283
8.24609375,-0.2994171879078206,-0.15253908556300433
8.25,-1.8024775406178453,-0.6334253645523598
8.25390625,-0.2957624481527389,0.9263194519865132
8.2578125,0.24393373183444117,-1.5391066474392054
8.26171875,1.5809378014028936,0.882902402296792
8.265625,-1.6189510966133192,1.1634874013488574
8.26953125,0.15236287465286455,-0.7269814703924335
8.2734375,-0.2466082677970022,-0.19240782950721164
8.27734375,0.38756757603922765,-1.5513996911891452
8.28125,0.6428160536607519,-0.8196925100860588
8.28515625,0.238573590398169,-0.39128080379190056
8.2890625,0.7346452900078468,0.3168283378818333
8.29296875,0.20804672055397114,-0.4021560192463819
8.296875,0.509781426033119,-0.03821106050369994
8.30078125,-0.4455198755962394,-0.1822136340888009
8.3046875,0.9191629365365027,0.5071430227881694
8.30859375,-0.8488501251519125,1.6986583018562307
8.3125,-2.022265792968352,1.343633419208999
8.31640625,-0.9225921513392501,-0.3532895157634614
8.3203125,0.20947048696442294,-0.5076610089126639
8.32421875,1.1548968413197156,-0.19953772437607106
8.328125,-0.37097682147962874,-0.46305513415429345
8.33203125,-0.27272191055738254,1.3956138262059103
8.3359375,-2.0874835096115363,0.2820511947269307
8.33984375,0.38751807259026355,1.5151036088822805
8.34375,0.47609182624753105,0.5813966310702772
8.34765625,-0.5652544218011915,-0.8054172306740264
8.3515625,2.418778068333076,-2.1755297584110598
8.35546875,0.33225153408400243,-1.3278467107686418
8.359375,0.6010647675132235,-0.7168511257452329
8.36328125,0.3889508012174105,-1.9133672824674368
8.3671875,-0.6402116834269113,0.22570927536088706
8.37109375,-0.012079218000855594,0.41297298744320166
8.375,-0.981125003164712,1.2156442628190962
8.37890625,-2.0933765231987924,-0.3013497924934293
8.3828125,0.022270139555116777,0.5234529506013305
8.38671875,-0.4394394939332387,0.7198848776304716
8.390625,-0.08215174262393518,0.6365959253039504
8.39453125,-0.43476666975130945,-0.8114144939941195
8.3984375,0.44133334151370457,0.587672337058332
8.40234375,-1.2270354285393645,-1.884282205676241
8.40625,0.025847838842811326,0.1748280487860543
8.41015625,0.08741415972208348,1.4744867197930787
8.4140625,-1.1219606696820088,0.22565238964969245
8.41796875,-0.28293880684132167,-0.37827271316389355
8.421875,-1.5834136181761485,-0.23354549720254944
8.42578125,0.587294168482094,-1.275812223663959
8.4296875,-0.30015899473863356,-2.4994663795042666
8.43359375,-0.2935335728813633,-1.956338525795863
8.4375,-1.5806280621456754,0.2726295597154126
8.44140625,-0.33489802494232535,2.2772304813018467
8.4453125,-0.23446276071209174,-0.39538189787772815
8.44921875,1.5587936731476348,-0.6827467664987718
8.453125,0.2663246831043783,1.0700560817563307
8.45703125,0.869524872250865,-0.17265383707300117
8.4609375,-0.34562000858052855,0.29460108197972257
8.46484375,1.0267724123987911,0.8746947570053232
8.46875,0.4368274897970664,-0.38950464805019
8.47265625,-0.708074000417073,-0.04761450482736269
8.4765625,0.8234319371117913,-0.6464113037419014
8.48046875,0.7640783560840638,-1.1053454077723774
8.484375,-0.5074380406536209,1.04942766289544
8.48828125,-1.156304671534966,-1.9496927500484031
8.4921875,-0.6297414181074628,1.3553809992211379
8.49609375,2.2850096231029826,-1.0369382900728268
8.5,1.1384030738680202,0.05415131241361911
8.50390625,-0.22167141637348786,-0.18938521694535174
8.5078125,0.08743014646602877,1.1155542545701003
8.51171875,0.053469337990673674,1.4153216851067416
8.515625,-1.1806123295237758,-0.3882389268012085
8.51953125,0.03324385817105425,0.3814399347374014
8.5234375,0.33374586087520486,-1.3076310558067221
8.52734375,0.625815543782874,2.7621247134456577
8.53125,-0.24944190455014092,-0.3489512235633661
8.53515625,0.4577066703737325,-0.6344018580440721
8.5390625,-0.5541647421067135,0.6140017753382307
8.54296875,1.9763635103191404,0.062000661800799516
8.546875,0.23504939952441378,-0.6590724446748334
8.55078125,1.1583605546898785,1.7036225903539164
8.5546875,1.361648005645276,-0.674879013231806
8.55859375,0.1934700681396019,-2.5127193086524686
8.5625,0.8984878903621546,-0.13662970946310887
8.56640625,0.6190586752694023,-0.09695509404023306
8.5703125,0.7003972910199315,-0.3484461777277279
8.57421875,-0.342948449317282,-0.15590545281133372
8.578125,-1.7186263904161807,-1.43638990809091
8.58203125,-0.8677069515241522,0.21342968411143978
8.5859375,1.0161234671438935,0.557483111053535
8.58984375,0.5693051105315751,1.0235062704282056
8.59375,1.765430353930825,0.5867875868713757
8.59765625,0.8183303722927734,0.13268764005097275
8.6015625,-0.550000804769247,-0.26465371748524513
8.60546875,-0.25705719627037155,-0.010934130041405392
8.609375,0.8322159238287461,0.18670024007101935
8.61328125,-0.3450212215859363,-1.2916997720797552
8.6171875,-0.5885615564979277,0.23267978853674448
8.62109375,0.2277170049065408,-1.66914714457456
8.625,0.796713709276722,-0.7191160653758071
8.62890625,1.438451794855758,-0.5300070593886765
8.6328125,1.0740495047922196,-1.8238967864955138
8.63671875,-0.578227259280978,0.02662739368206125
8.640625,1.7910430636261645,-0.19428323509408535
8.64453125,-0.23536114757837862,-0.1479126009186902
8.6484375,-0.5391924363615542,-0.8134515036630724
8.65234375,0.09221210737885208,-0.7446173101651414
8.65625,-0.7637163703900388,0.18157659344323107
8.66015625,1.036936899215254,-0.6004321767219233
8.6640625,2.760669767104775,-0.23386201152657174
8.66796875,0.2151355983305121,0.09191295022590255
8.671875,0.09944615363214594,-0.4209853762002863
8.67578125,-0.5357249373356429,-0.21739312349687923
8.6796875,-0.6213713390907499,-1.785644455141687
8.68359375,-0.5334778317474563,-0.4542233371785354
8.6875,1.1528383090390275,-0.024687373069383328
8.69140625,-0.8460809327477675,-1.4318127150691933
8.6953125,0.6585913874463655,-1.2045245088974297
8.69921875,-0.8891954275558046,-0.3463568163648242
8.703125,0.08448772092780982,0.4510027351262813
8.70703125,-0.41171191359044684,0.05337103512809885
8.7109375,0.4750997316679025,0.20270559681418712
8.71484375,0.1611082808924382,-1.0451053908713772
8.71875,0.24496040338645114,0.30531684035326234
8.72265625,0.0015458661766072673,1.2412918039173955
8.7265625,0.007338881036696294,-1.42893469340779
8.73046875,1.5181973401393603,0.7494552585611157
8.734375,1.2486060363434166,-0.5293175684826359
8.73828125,-1.3603261338048833,0.2820074009270318
8.7421875,-0.8334906511520835,-0.7215786922874374
8.74609375,-0.23662431568035613,-0.22795231965520485
8.75,-0.86412241677616,-0.1349603385991911
8.75390625,0.22466793922606143,0.24772117576943267
8.7578125,0.4489291896289281,-1.3414303371118719
8.76171875,-2.193612077035077,-0.10340173869327239
8.765625,-0.09446799236905006,0.4927767218583817
8.76953125,-1.3085237338770908,1.239661308421972
8.7734375,0.19909441104778128,-1.1450584545963012
8.77734375,1.5535283159905235,0.37951758040787426
8.78125,-0.7559219799954614,0.1217938005518224
8.78515625,-0.5221408940353897,-0.7019323576961518
8.7890625,0.9627393759075861,0.1848608798249922
8.79296875,-0.38699198647775385,0.017671760006646005
8.796875,-0.7960819264068175,-0.5551990567591364
8.80078125,0.4175062483211229,-0.6831977391413013
8.8046875,0.3816876650519685,-0.49216616349435416
8.80859375,-0.38145517698380016,-0.9902147864951003
8.8125,1.0155676468992891,-0.7696093765549815
8.81640625,-0.1327121941769476,2.4176839428462067
8.8203125,-1.746505137704806,-0.9454001379714182
8.82421875,0.031937372553381485,-1.2744555813843905
8.828125,-1.4989622097978996,2.272731230714933
8.83203125,-1.1411020526414362,-0.47045061312689435
8.8359375,0.5048814625906178,-0.9607566090584696
8.83984375,0.23777718057209601,1.4828948439752452
8.84375,-0.9136366353205131,0.6478870864751501
8.84765625,0.35257790510132436,1.140085025301643
8.8515625,1.1326776160798697,-1.9860710690713226
8.85546875,-0.39908565275651936,-1.1412686280443787
8.859375,-0.12561763202008938,0.5473302335874106
8.86328125,-0.02657731525323741,-0.5344391420860501
8.8671875,0.08272313695694916,0.8449297677419458
8.87109375,0.8760696457426457,-0.4064120291158519
8.875,0.22494785338870724,-0.5976623975261348
8.87890625,-0.47001783805757125,-0.44584559814132557
8.8828125,0.20013168407224435,1.4462691726080412
8.88671875,0.14427668295885823,-0.15177633612171856
8.890625,0.013787295559661714,0.36191499488755924
8.89453125,0.22927081200103572,-0.005961893997602097
8.8984375,-0.4401875675925612,-0.9331397016907637
8.90234375,0.24015763682708022,-1.0345187442884474
8.90625,1.635403412090238,0.04002608026305299
8.91015625,-0.2528025492065499,0.20783495259630125
8.9140625,0.05754536548562393,1.2728010928692457
8.91796875,-0.6596280599523324,-0.0971937875704666
8.921875,-0.4671000542598237,2.0181023734990595
8.92578125,-0.19020525198565755,-0.33323516341974035
8.9296875,-0.600229618211583,0.7905190998877064
8.93359375,-1.9220631758209232,-1.0252216836417307
8.9375,-1.9109178382152843,1.1199549447753336
8.94140625,0.0994985393853459,0.6547274295860154
8.9453125,1.106912541615365,0.7141498679927327
8.94921875,0.35809169914403766,0.2458102106103217
8.953125,1.2484112868291501,1.2408684840679705
8.95703125,1.7687870984549403,1.1048836224791176
8.9609375,-0.16519516209963,1.3046924002411666
8.96484375,-0.06842165238989954,0.43569903275325633
8.96875,1.1737129007386606,-1.723023134704885
8.97265625,-1.5769062086937622,-1.3243275236036416
8.9765625,-2.046811223716247,0.6590452542526245
8.98046875,0.2128540470451715,1.062880457947683
8.984375,0.9858890316344164,0.06147925087125291
8.98828125,-1.0617475052213285,-0.1784499963674773
8.9921875,0.9804557191142318,-0.5446869391735886
8.99609375,1.7476526423802048,-0.06342757503968632
9.0,-0.35205015613742824,-0.7164513750926507
9.00390625,-0.12538107997951464,0.8616282838967594
9.0078125,0.1467447513516084,1.8000234255739764
9.01171875,-0.04390975263286301,-1.8431211430484769
9.015625,-1.2181703626375666,1.2771846883475204
9.01953125,-0.8190400752386614,1.1149828635312085
9.0234375,1.3864128740998747,0.48055228264996563
9.02734375,0.6883298134285523,-2.4602619788829587
9.03125,-1.7022200881279343,-0.2997571671074723
9.03515625,0.427261430384335,-0.10444972903609481
9.0390625,0.22069979736907408,0.07765166722956221
9.04296875,-0.1547361133401192,0.6801121423262698
9.046875,1.4476947464301562,-0.47548865017892467
9.05078125,-0.2202587263968972,2.177437047418052
9.0546875,2.1406523036044924,0.347171824655975
9.05859375,0.060468851774064296,-1.9982194645882463
9.0625,1.465893584409352,0.8962399846719804
9.06640625,0.22205730744020835,0.5466698780832949
9.0703125,1.2349280678081593,0.03660475239978734
9.07421875,0.004784990544204626,-1.1646157062441325
9.078125,1.949278357168543,0.06762360071599384
9.08203125,-1.985536745873092,0.25829349145346436
9.0859375,-0.9490434017003294,1.7596663647568824
9.08984375,0.7100085100252437,0.24665054637975217
9.09375,0.08087588882630137,0.8567268145297627
9.09765625,-1.6070974433184229,0.3311550004382974
9.1015625,-0.4897721567893279,-1.1861763727678312
9.10546875,2.37513903204763,-0.3665900057530307
9.109375,0.1847479898807851,-0.16307682513356592
9.11328125,-1.146308033335447,0.2702974677775444
9.1171875,1.1782549692176538,-0.7841727962337304
9.12109375,-0.8363207266055628,-0.4662223132218575
9.125,0.5743925521953464,0.6748929644218984
9.12890625,0.9048605932855855,0.09021495011293909
9.1328125,-0.22769723702266595,-0.5019152017846135
9.13671875,-0.472816743443586,-1.3335031436508835
9.140625,-1.770751169017732,1.441969122062852
9.14453125,-1.4614556993014078,-0.8345081990627425
9.1484375,-0.14476301336892677,-0.7784407188255296
9.15234375,-0.5848198981609963,-0.44614956096665226
9.15625,-0.1519198703469058,1.0179246482885014
9.16015625,-0.16520222988244035,-0.3362137239009925
9.1640625,-0.653969071942707,0.2357055451790822
9.16796875,-0.8806033221667842,-1.3091380985337897
9.171875,-0.5986116409103559,0.013461260293968139
9.17578125,-0.4635670190570423,0.7333801738536555
9.1796875,0.08769709188187821,-0.15797132139104145
9.18359375,-0.3652513294640464,0.17616552807048577
9.1875,-0.37140811430264925,0.3028726186989609
9.19140625,-0.3796598296479426,0.4100303843855931
9.1953125,-0.2858321306544578,-1.7120925094075923
9.19921875,-1.8959605979105962,-2.4706133934641374
9.203125,0.3578616761967822,0.7445576150138016
9.20703125,-1.1466527862832794,-1.3138856791439677
9.2109375,-0.8854867440165302,0.9886765384274898
9.21484375,0.4696470255322604,-0.6413917014188454
9.21875,1.2869615830365255,-0.11369679085939209
9.22265625,-1.845790078919404,1.0839579229088379
9.2265625,-1.1696999331965832,0.6465578197225761
9.23046875,0.28311088813218394,1.149504843738502
9.234375,-0.12721051815171694,0.8014343119455245
9.23828125,-0.34040785030405707,-1.405487008751294
9.2421875,-0.4706211889119659,0.30795468405170323
9.24609375,0.35097746335516733,-0.3418551739288753
9.25,-1.2675057644955237,-1.6071856053952644
9.25390625,0.5936479131259189,-0.5429432386095585
9.2578125,-1.3526914549121496,-0.45010294388462463
9.26171875,0.7809418402641317,0.06183874358246804
9.265625,1.848378378873138,-0.31982330906124473
9.26953125,0.06230329663386673,0.4969042927256168
9.2734375,0.4898765374913707,-0.9406695966141697
9.27734375,0.14823500874870063,-1.2461458750329575
9.28125,0.5242849477524579,0.8046751552090153
9.28515625,2.419198523929555,0.03494848124700129
9.2890625,0.7090910428523141,-1.069889610278901
9.29296875,2.5734146224275176,-1.0511318714752702
9.296875,1.463666938010262,1.288047726217215
9.30078125,-0.8401759067800314,2.065170416170626
9.3046875,0.3873080498388149,1.5927784975276051
9.30859375,0.8823991194602653,0.40005549653703526
9.3125,0.2707711917873644,0.09276129447197357
9.31640625,-0.27979296340735116,-0.6735551728457185
9.3203125,-1.4352902646080055,-0.8550001807324218
9.32421875,0.22806378380688783,1.8621614718723365
9.328125,0.7530981971807023,-0.04117300296605783
9.33203125,-0.36278573088998617,0.24579809956921747
9.3359375,-0.6626255495543452,0.852013595094513
9.33984375,0.3624309436008273,0.5866565312858428
9.34375,-0.06376963629336838,0.15007247444755717
9.34765625,-0.5652237288887624,-1.1611466850338767
9.3515625,-0.1005948820395605,-0.8634218709903843
9.35546875,2.3580809546737567,-0.03684363815076114
9.359375,1.2450192144388097,0.4103613843047403
9.36328125,-1.413986182269083,-0.5575602225985642
9.3671875,-0.1271459006259495,-1.169705087416907
9.37109375,0.8342902800311806,0.3941589392911624
9.375,0.8911781884975147,-1.629689277381065
9.37890625,-0.21739080365732788,-0.3642177452560731
9.3828125,1.2551085134295445,1.8539520696197138
9.38671875,-0.17262252028724168,0.10945180167567457
9.390625,-1.3742876985303218,-0.19741025823811756
9.39453125,0.03225874476641561,-0.06767118786825993
9.3984375,0.5466769276019817,-1.1089542491475692
9.40234375,-1.128907954488024,0.18202937434731736
9.40625,-0.8084037176246801,1.4232565887811415
9.41015625,1.0693433786933086,-0.7350351787264027
9.4140625,0.5929839436832519,-1.9666880815418601
9.41796875,1.2304215764687525,-0.3155314433560029
9.421875,1.0381254669036082,0.7277999065343965
9.42578125,-2.0575507920727913,0.6245046353555544
9.4296875,-0.10220234813462402,-1.8846843945781515
9.43359375,1.5437098158249125,-0.6821137036723143
9.4375,0.9015551992726702,-0.23690888861153672
9.44140625,-0.7643900494165216,0.8613250297178622
9.4453125,-1.7189359741485957,-0.18709109530853207
9.44921875,-0.6105027850189266,0.5967091651965072
9.453125,-1.236950626809113,0.284923310850544
9.45703125,1.1856657135752815,0.3161089219275472
9.4609375,-0.7655868373187372,-1.1949598702638489
9.46484375,-0.5448341802051008,0.6218638075889006
9.46875,0.024895247499171432,1.1865872453157429
9.47265625,-0.9226044981959972,-0.39690325827384
9.4765625,0.5628541858932601,-1.9244802025339536
9.48046875,-1.5741807458192798,-0.16374760391094387
9.484375,0.8370935899258024,1.0400862054012254
9.48828125,-0.30230532014761774,1.385666685842663
9.4921875,1.9287783724900733,0.7312099582605046
9.49609375,-0.4436821253525899,0.8143100344780771
9.5,1.4474332001112793,-1.3143144482067752
9.50390625,-0.715581222062099,0.6430736310825407
9.5078125,0.8443029715841331,1.2209321714861112
