time,ecg,ppg
0.0,-0.4293847157785301,0.734518021067981
0.00390625,1.0321951089206096,0.9433095744569705
0.0078125,-1.3626199464288187,0.7700381151061273
0.01171875,-0.6856260028579465,1.4487572848666257
0.015625,0.3829426379124831,0.8317641745444901
0.01953125,-0.2973476424850584,1.435749490840015
0.0234375,1.236062028107178,0.6233822699239655
0.02734375,-0.9244945955482794,0.7446216526229723
0.03125,-1.5563757731857242,1.6263987310647343
0.03515625,-0.09930299403730192,0.489103541962975
0.0390625,0.16027489632152456,-1.7540047121204845
0.04296875,0.2281090404372867,0.885140200837116
0.046875,-0.9230669654366885,0.8974791719425748
0.05078125,-0.6357512159663619,1.2175474840561915
0.0546875,-0.8984771205073621,-0.07094951736221952
0.05859375,0.5494369186602955,-0.7023951858584125
0.0625,1.7897553059484435,-0.1564530908350029
0.06640625,-1.4086730210355065,-1.566311519362536
0.0703125,0.11857942292410724,1.5253989613519856
0.07421875,-0.5876380417110705,-0.7508070762085934
0.078125,0.22778100432044024,1.3544718007050789
0.08203125,-0.08197085905977987,1.6744384116637094
0.0859375,0.10905064510645351,1.1020037041238449
0.08984375,0.23993032629048153,-0.6384890953695993
0.09375,-0.7073698726363522,-0.9116440132765047
0.09765625,-0.5056548701446545,-1.7089793140073153
0.1015625,-0.296283355939369,0.7263222939966865
0.10546875,-0.04545364781848985,0.927576101843097
0.109375,0.41086772896657475,-1.0618348187460733
0.11328125,-0.12665467473832426,-0.34703870359043976
0.1171875,-0.32849709662761645,-1.8565392858201881
0.12109375,0.1679583947340204,-0.9028638356212135
0.125,-0.5797051615472789,0.09759976965796173
0.12890625,0.9011399385530039,0.9700125730831285
0.1328125,0.9346445704590275,0.38819300583057875
0.13671875,-1.6151027826825313,0.9425001245713271
0.140625,1.5154127068371421,-0.3597906866197766
0.14453125,-0.9393551263492245,1.2289370049092971
0.1484375,0.7391384105314582,0.52443681254762
0.15234375,0.014259803284220135,-0.8331518942232088
0.15625,1.5956033947408417,-0.09784463408981607
0.16015625,-0.9670704887747275,2.409569650229519
0.1640625,0.7147185780003444,-1.259997292111842
0.16796875,0.049099673690943285,0.18235259244466434
0.171875,-0.1523136712943859,-0.3655313225108348
0.17578125,-1.3796091213446076,0.3125523453122686
0.1796875,-0.49529549044588345,-0.20250442343603017
0.18359375,1.647545977963255,1.1842595130558131
0.1875,-0.4355017365773268,0.35605351534424085
0.19140625,-0.14732990264255563,1.4835073718259464
0.1953125,-0.5073554486061375,-1.699272055041135
0.19921875,-1.4411931392720838,-0.9225140330657515
0.203125,0.5293594015681853,1.02768859820388
0.20703125,-0.47830458738191395,1.5685773935257368
0.2109375,1.0043678501213813,-0.6921483624996659
0.21484375,1.1666125753452392,-0.9492891293757414
0.21875,-1.3167919516958504,-1.248794077194316
0.22265625,-0.31237939886206173,0.07910810834804216
0.2265625,0.21482990360910215,0.162489105403876
0.23046875,0.03139330841400073,-0.07888007275126788
0.234375,-0.9404973109545042,-1.6562584863613827
0.23828125,-0.48951919896801743,-0.055654779544050306
0.2421875,2.2713047014214904,0.08487957201408976
0.24609375,1.1963270768265413,-1.3777292533803538
0.25,1.5824277937710969,-0.6106227943981098
0.25390625,-1.3432795974950191,0.8499976545607038
0.2578125,-0.08642907980806348,0.27388790974585414
0.26171875,0.4737333759016285,-1.4798320493771668
0.265625,-0.3538938878898809,-0.5300949947717649
0.26953125,0.47989865776412644,-1.3891672057675617
0.2734375,1.7242340394034075,0.9079931980736329
0.27734375,0.682258029246424,0.7435785920284885
0.28125,-0.40784444334607917,0.9015058331610761
0.28515625,1.0347811294176539,-0.3152343832147712
0.2890625,0.18419917068692088,1.6323432274185359
0.29296875,1.4119698936163028,0.6978973886509432
0.296875,-0.032290837446721884,-0.24158501130295737
0.30078125,-0.5299332212411675,2.2386612120456917
0.3046875,0.7958728407546868,-0.6103574928618333
0.30859375,0.3528098955234945,0.9743864286440617
0.3125,-1.417383104654275,-1.7682704653197643
0.31640625,1.1402801766359785,-1.11728362693638
0.3203125,-0.055584458054854215,1.982911025549423
0.32421875,1.9675784768914382,0.3306793809596097
0.328125,-0.801753249461872,-0.11856193124910554
0.33203125,-1.673618578968484,0.23514596846078814
0.3359375,-0.22983183920019973,-1.830283366483257
0.33984375,0.5587427436384226,-0.03975848732243343
0.34375,-0.788293464265288,0.29740839657367074
0.34765625,-0.541554893606505,-0.21518615385475415
0.3515625,0.4647150129882757,1.9644747192297751
0.35546875,-2.1016853768633297,0.22483443795133282
0.359375,-0.31999604986248376,-2.0632972173250788
0.36328125,1.1531428525291132,2.313876566380592
0.3671875,0.6689813951450239,0.0015952992641856227
0.37109375,0.4043906465434191,0.9215613247085795
0.375,0.10670783692741692,0.5600319807112989
0.37890625,0.37368961431743886,0.38776738806498573
0.3828125,0.04665166265725814,0.16078443127883807
0.38671875,0.427872922741046,-2.134200148346744
0.390625,-1.9744861311098088,1.8878304977756548
0.39453125,0.48063119070038196,-1.3893957833952184
0.3984375,1.8175878277977613,1.5832563203520387
0.40234375,0.5545827042068825,-0.46623475469543413
0.40625,1.5862352025763113,1.2659522064454247
0.41015625,1.276236320653235,-0.1869723962252149
0.4140625,-0.9855052247947148,-0.7946083694707778
0.41796875,0.38770503287772456,-1.3278812402129239
0.421875,-1.3102332807633545,-0.04188239523668883
0.42578125,2.882448658463477,-0.16207365988227984
0.4296875,1.3518248653707339,-1.2969689749432385
0.43359375,2.9279549059972063,0.8978689911289295
0.4375,-0.2518148806945582,-0.5474407971004874
0.44140625,1.087001890311154,-0.4702398820280466
0.4453125,-1.0685454497825508,0.15093328227574698
0.44921875,0.5166338185559929,-0.44942727413786826
0.453125,-0.12198231356420523,-0.6107936603173122
0.45703125,0.1439030456878296,-0.762791239691911
0.4609375,-0.3569800113016493,-1.472837453815495
0.46484375,-0.20320666358672618,2.144231741315369
0.46875,-0.2154257018313016,-0.02070111696967975
0.47265625,0.408436392924418,1.1694968098112046
0.4765625,2.5992055773083798,-0.4939119690373687
0.48046875,-0.07256269369953808,0.17457682105081412
0.484375,1.6122940267623436,1.2443234382171997
0.48828125,-0.23645566491571288,-0.058710514505898516
0.4921875,-0.8741427904778448,0.060838589981579115
0.49609375,0.2749558548722595,0.9595033920988103
0.5,-0.34987665192610945,0.22215260971613884
0.50390625,-0.013163781291923731,-1.163565787180113
0.5078125,0.37350127970316555,-0.010987787184641551
0.51171875,0.9488807360712409,0.5097113754246423
0.515625,-1.3296466323839384,-3.6846502869313027
0.51953125,-0.3451753831760627,-0.3973356319722219
0.5234375,1.059153158434664,0.6913970004116384
0.52734375,0.21630529673201226,-1.2553781042806962
0.53125,-1.295988933667128,-2.587607200645615
0.53515625,1.4406678954117003,-1.7558159491314174
0.5390625,2.1432203552788436,-0.1757902716338571
0.54296875,-0.6555791135830441,-1.562573217662378
0.546875,0.1873079081698087,0.7369144770110835
0.55078125,1.1984249650921752,-1.8512870932120482
0.5546875,1.9242009662534931,0.3366137843822605
0.55859375,0.8063709862143098,0.7103049400075813
0.5625,0.5371810441055972,0.4493565725037671
0.56640625,1.3227594432745695,-0.5211525218717808
0.5703125,-0.2530012161435755,0.5001189629439486
0.57421875,0.7662977312292916,0.7447649410209398
0.578125,-0.8224420362022172,0.45994479170595454
0.58203125,-1.2474765973911153,0.7770625123615055
0.5859375,-1.3369005932090516,-0.5988487899318694
0.58984375,-0.23814588297977304,-1.1749216088380572
0.59375,-0.3768916723886512,0.12700929358292237
0.59765625,-1.0356478279853587,0.26041693642667685
0.6015625,-1.4492356258628374,1.6567333863681544
0.60546875,-0.32974342306543575,0.8997395852383911
0.609375,0.5210031529599993,-0.047202337194212796
0.61328125,-0.09920750466068386,1.5689613716865365
0.6171875,-0.8644952656064189,2.2474549047433245
0.62109375,0.3255606367510781,1.499851992380711
0.625,-1.603867800119063,1.1400672574207893
0.62890625,1.152696942272206,-0.796220782389696
0.6328125,1.0566220737705403,1.668597459914581
0.63671875,-1.4160157471025479,-1.0800475818817228
0.640625,-0.11388117656437179,0.7456517732669823
0.64453125,0.1228089452792398,-0.16510248308006337
0.6484375,-0.6038319610277216,0.740395487429499
0.65234375,0.781699984581379,1.2321084382680636
0.65625,0.03178530204929935,0.470962475872729
0.66015625,-0.08527040995480108,-0.07478409243132741
0.6640625,-0.7776186987470309,1.5925744161822926
0.66796875,1.3489613302237866,-0.8753455592555748
0.671875,1.7493528611222293,-0.48372315507728886
0.67578125,0.5564363555435631,2.1168239534666045
0.6796875,1.1228814205187831,-1.4014867072024684
0.68359375,1.265992641986848,0.6857586149397142
0.6875,0.7506186160228542,0.5816727247961956
0.69140625,0.7105726514950951,0.7205815325295772
0.6953125,0.07045768176085676,0.2830480747641415
0.69921875,0.5830755732765256,1.3133471045751197
0.703125,0.8245734765508167,0.7525497059660661
0.70703125,1.2527008717856818,-1.5783040138923012
0.7109375,0.5161091531642287,0.37947681550492457
0.71484375,-1.0957496912980116,-0.02789553395972702
0.71875,-0.25736134276135925,1.6574460791283017
0.72265625,0.24729601978441484,0.33577882273464826
0.7265625,0.1997038806458214,-0.006110315675053848
0.73046875,-0.4119802811424759,-0.9084350040228932
0.734375,0.2045430722903925,-0.3642323915300806
0.73828125,0.6988136304433792,0.19779454422248155
0.7421875,-1.427245107507512,-0.8362314783403264
0.74609375,0.5133208249663926,0.6240413243622784
0.75,1.6907527253464492,0.3416689401047076
0.75390625,0.9614976332617705,0.7956236394267963
0.7578125,-2.1312864317493645,0.26771414886942985
0.76171875,-0.7083902864876527,0.9185817970574351
0.765625,-1.0406022386659723,-0.27981486152167834
0.76953125,1.8225502067166357,-1.484428981076675
0.7734375,-1.6128436245262245,-0.21689769010543036
0.77734375,0.8766310556944648,0.08503106430944493
0.78125,-0.3261760046353441,0.9138420962229598
0.78515625,-0.8631475559016278,-0.13648501446940464
0.7890625,-0.2726892305293614,0.7168491907867339
0.79296875,0.9360219643914852,-0.22715177867789724
0.796875,0.6001481978076815,-0.8237083831008061
0.80078125,1.0746856904411752,-0.3194890913674545
0.8046875,1.9335683621342787,0.029277846246491858
0.80859375,0.3116925336778652,-0.8271487930141197
0.8125,-0.20688047134020557,0.6474605136896256
0.81640625,0.701446360786934,-0.23665805830252212
0.8203125,-0.029650347370687793,-0.14624538750174135
0.82421875,-0.769280033497885,1.7750255607829564
0.828125,0.7116118241077631,-0.006067234548972506
0.83203125,-0.8308797630615969,-0.6210910578622332
0.8359375,1.1303608790446233,-0.31085540877199264
0.83984375,-0.11120635268016926,-0.6722681450943074
0.84375,-0.12339387998790798,-1.580324750635485
0.84765625,-1.451510054092066,1.0450270830632047
0.8515625,-1.2141575417439783,0.32858674072993893
0.85546875,1.3022249213048864,-0.9342916352261319
0.859375,1.3256568374614275,-1.5039894780654053
0.86328125,0.4552219866015387,0.3753505268098045
0.8671875,1.308854095458562,-0.023544528111280237
0.87109375,1.8876385459452172,0.9775234246121232
0.875,-1.6051054015320174,-0.9528422019862105
0.87890625,0.09591735330339975,0.5747562274743042
0.8828125,0.4409608518152296,0.05815497845841736
0.88671875,0.31629008377072865,0.4220327125399093
0.890625,0.22895710822320575,-0.0746524491714653
0.89453125,0.2907318708341181,0.45819239682288637
0.8984375,-0.8045670282473181,1.6544497554965139
0.90234375,0.21003098411422824,-0.040296614304779134
0.90625,0.7979126541854308,0.06658997314337713
0.91015625,-0.8519916139801217,-0.6920484761634915
0.9140625,0.08967757775453791,0.19624403332425547
0.91796875,0.05708826354387202,0.3371258270115411
0.921875,2.021932855494936,-0.6931633611056658
0.92578125,-0.4195495159874895,-1.1111531964867478
0.9296875,1.490348009431909,0.9113124751521342
0.93359375,-0.4000918539739439,0.01066284077716
0.9375,0.07807994652869363,-0.012786995763422274
0.94140625,-0.38446847103671833,-0.16330946927084836
0.9453125,-0.16833465912570533,-1.5151752428327905
0.94921875,-1.458636925230308,0.3014040423974215
0.953125,-0.7163346006023058,-0.7752818459120481
0.95703125,-0.38696325331230225,0.6980377226764569
0.9609375,-0.2298111305103384,-1.5053897522740636
0.96484375,0.27745485775190437,0.27125869360911514
0.96875,-0.9185618662082187,-1.678382791426992
0.97265625,-1.5234880179037447,0.007695114263845819
0.9765625,1.7438748429165807,-1.1738138398454792
0.98046875,0.6859015744943152,1.8285469767420888
0.984375,-1.173092523310675,2.642704435586318
0.98828125,-2.120077693939502,0.6398774637939092
0.9921875,-0.9404027994002069,0.2536562646991981
0.99609375,0.4504605399358627,-1.8487514243552774
1.0,0.3150175162572347,-0.06998524648796207
1.00390625,-0.4700663895223035,0.818811815905458
1.0078125,0.34836321567675893,-0.11328084697647657
1.01171875,0.6756480964596807,-0.23398487251046782
1.015625,-0.7120411944209031,-0.48196591968929997
1.01953125,-1.3549932362015762,0.9444181890715867
1.0234375,-0.2593845647486517,-0.7849328705119386
1.02734375,-1.675910764942947,1.1169906454612446
1.03125,1.1845295827328723,0.9850493198733231
1.03515625,-0.9361315601222538,-0.796025928462676
1.0390625,-0.052048567947387256,1.1788010758023546
1.04296875,0.4814938935023617,1.2974048120279604
1.046875,0.31566172139659376,-0.7332198752856253
1.05078125,0.7364135272758241,0.12096877412048884
1.0546875,-0.7236155336858531,1.2205754813021386
1.05859375,0.5093554226923178,2.624847991254045
1.0625,0.09704337869376009,0.7047202744110255
1.06640625,0.5936644479450253,0.3719809463575058
1.0703125,1.0594533189183906,0.45256558191709906
1.07421875,-2.032619417368627,-1.0329067423857345
1.078125,0.29347651369389915,0.46198960595691035
1.08203125,-2.2411542252599816,-0.8943049779688871
1.0859375,-2.1142117209119893,0.5650250997888485
1.08984375,-1.2349343972177336,0.3121305147194519
1.09375,-1.3388139612469538,-1.6550825061177787
1.09765625,-0.4356517624863848,-1.8406890746846545
1.1015625,-1.4595716507028336,-1.6358262905331333
1.10546875,-0.02930871600100968,-0.7691095686457753
1.109375,-0.0600771433252439,-0.12973058624309416
1.11328125,0.35108959328860956,1.3606130926942042
1.1171875,0.7543033066085895,1.0156659892777284
1.12109375,0.9657273333384349,1.9044054886424928
1.125,0.3796180151689431,0.48765868400625245
1.12890625,-0.09570379684966951,0.3994518838801262
1.1328125,1.3060063754037925,-0.20054941141619592
1.13671875,0.6582618918266354,0.17753714002659338
1.140625,0.5584660919318926,0.15750170139131334
1.14453125,2.4538253640884773,-0.853063944584491
1.1484375,-1.4667140409996415,-0.6756638149797627
1.15234375,-0.5926774582281585,1.4126956011596237
1.15625,0.5744452563425313,0.5781649336847788
1.16015625,0.36741096064606715,-1.7903108687692966
1.1640625,0.1245779328263615,-2.264548357233355
1.16796875,-0.48203314668437663,-0.26468763217389607
1.171875,0.002815335629899148,-0.08914499192667753
1.17578125,-1.0419271525628824,-0.9268797718150693
1.1796875,1.358155360296172,-0.29732489512540894
1.18359375,0.07168748751520383,1.1734698578140843
1.1875,1.1195519165637235,-0.1653567216484027
1.19140625,0.17411307279399474,0.13785820853957115
1.1953125,1.2119311079692752,1.294615391151051
1.19921875,-1.476650779901548,-0.5015262494196464
1.203125,0.9408301031154119,1.1410332775918892
1.20703125,0.21099577893140134,-0.7275812542864951
1.2109375,-0.9015051329275892,0.3207823807762198
1.21484375,0.5124864647384704,-0.5523443886036868
1.21875,1.4934629605848775,0.09786924715826537
1.22265625,1.2243650479046952,0.047281665930827145
1.2265625,0.48281910590627186,-0.26293824588949916
1.23046875,-0.33104262289338704,-0.1592006915748985
1.234375,-0.47980715603724833,-0.4677967371060994
1.23828125,-0.6765728877872634,-0.5782065349091807
1.2421875,-0.5337921166444805,-0.4457027339739763
1.24609375,-0.44621177718917787,1.9173039672311774
1.25,0.2613085956870783,-0.24673689596070011
1.25390625,-0.7318598599847039,-0.8662306472413066
1.2578125,-1.4658493641126036,-1.4615496066275158
1.26171875,0.4741481498338083,-0.7959965975615257
1.265625,-0.7340150796101554,1.6175807914788725
1.26953125,-0.28885625133993764,1.5768071594304942
1.2734375,0.15565827336833613,1.7259175484914024
1.27734375,-1.1974200050412585,1.329250332004628
1.28125,0.48714898183854,-0.7338084512239832
1.28515625,0.4043575206830753,-0.11880486175273317
1.2890625,-1.3930799292790452,-1.8026154142652255
1.29296875,0.45038378374826865,-1.5874931752828638
1.296875,-0.010625717636482785,0.3250283026782272
1.30078125,0.21164087689747405,-0.5715274538032922
1.3046875,0.10745754384881898,-0.9990142429866723
1.30859375,0.8018922010893083,1.3465205948215904
1.3125,0.6984069453083016,-1.1739605144747107
1.31640625,-1.9121149693937953,-1.9900685661682802
1.3203125,0.8171992832164247,-1.866572781979923
1.32421875,-0.41968159251988235,1.8234284756610006
1.328125,1.0150275407690166,-0.9989308510662321
1.33203125,1.4766286032838303,0.11836009630400668
1.3359375,0.44037730648192525,0.01620075408791366
1.33984375,-1.4181528601202789,-0.5518547266461354
1.34375,-1.015604517600584,-0.6339392489697491
1.34765625,1.3807275342228569,0.2956004494329254
1.3515625,0.14906521327121636,-0.9081468108675436
1.35546875,2.3191433700153112,-0.8113451065014957
1.359375,-0.22747734169304473,1.4093904293879804
1.36328125,-0.30958164290823303,1.1525406642554725
1.3671875,0.16690234328366188,0.6349051668124349
1.37109375,0.6121329200282202,-0.8379388894020314
1.375,1.6652596909752115,0.9909344111249367
1.37890625,-1.8732162464904185,-1.306845450884393
1.3828125,-0.6170576511704093,0.47460931726424743
1.38671875,-0.686764886787948,0.3079610244933817
1.390625,0.23428936167356265,-2.044558010774337
1.39453125,0.2545107632756521,-1.1397779445630911
1.3984375,-0.2146077531359694,0.23365879113854746
1.40234375,0.9501492850061208,-1.7602283163368284
1.40625,-1.3006322877201464,1.359801704004722
1.41015625,1.3230487329613583,0.9714381339724998
1.4140625,-0.4404188174136709,0.9183026032883005
1.41796875,0.8532332282837477,-1.550199907511673
1.421875,-0.9445508685422516,0.0034707041919862865
1.42578125,0.6815609598058964,-0.3220380119315392
1.4296875,-1.011189219866963,1.609588937687086
1.43359375,0.8812473385431228,-0.7419998808459672
1.4375,-0.3259344936261654,-0.2774099512297471
1.44140625,0.3598129478860977,-0.660526193438421
1.4453125,-1.2308112376401708,-0.5444725733026039
1.44921875,-0.7666950866793879,0.7584605721590727
1.453125,-0.7119473837909298,-1.0796570396463996
1.45703125,0.9687191946789718,0.2112879260878122
1.4609375,1.0465798387427527,0.06721028169375962
1.46484375,-1.7414823787969913,-1.2348395886166812
1.46875,0.30062027286128634,0.5336444787661372
1.47265625,0.6168992705860731,-0.6120191349374998
1.4765625,-0.9222690518352011,-1.6572227721867774
1.48046875,-1.970486348362863,-0.07144136371581965
1.484375,0.8349874142752463,0.7423733959828666
1.48828125,-2.0498095043789175,1.3162908883576463
1.4921875,0.43524355377448903,-0.4660757212564789
1.49609375,2.7455639046796625,1.599490337547555
1.5,-1.2187433773948204,0.46048868142647503
1.50390625,0.47546164918885886,0.8905277902678335
1.5078125,-0.6551498246588362,0.06100928795715122
1.51171875,0.6972365566525137,-1.8625706141726754
1.515625,0.4343694862123255,0.5183010170742887
1.51953125,0.044118209835118855,-0.7486776319787334
1.5234375,-0.6770924737555243,-1.5070057400551284
1.52734375,0.39265833026222946,0.30808796952780715
1.53125,-1.0233065340371257,1.1388955209088738
1.53515625,-1.2479411801782034,0.8125311699604096
1.5390625,0.7483523563453689,0.6829862608786662
1.54296875,0.8831294602822143,0.1695298121743086
1.546875,0.6606207590812289,-0.010113031357007304
1.55078125,-1.1049096733186685,0.797469645939672
1.5546875,-0.7180108688997341,0.16143117144034264
1.55859375,1.0725394000360096,0.35127536704671153
1.5625,0.08902179477005456,-0.15160063109644115
1.56640625,-0.6558761772030123,0.6998073062200332
1.5703125,-0.5866437297090766,0.7480698767253751
1.57421875,-0.8271329824724218,0.31970954912278754
1.578125,-1.3579115425064947,0.31097334369270274
1.58203125,0.07908182248864543,-0.775668499584643
1.5859375,1.0917620490132318,1.4826901466764446
1.58984375,-1.8333714163112418,-1.1663032491016025
1.59375,0.5602968253771007,0.5493150998269285
1.59765625,0.35919512797491526,-0.34305880797871235
1.6015625,-0.7639178183435353,1.0078324987793015
1.60546875,0.11120666295771485,-0.9535321094919964
1.609375,0.15279310922087316,-1.4655635224270736
1.61328125,-0.6569734240034504,2.7105733442763373
1.6171875,-0.24204930720455664,0.2936878726993012
1.62109375,0.26468928641665407,1.2108654400696655
1.625,-0.8361915555434527,-0.3993225881796111
1.62890625,-0.03653528136244687,-0.4390912824144532
1.6328125,-0.2999616036311436,0.02681619936399732
1.63671875,-0.5096458210778954,0.9116564262627221
1.640625,-0.34890386247292476,2.1339306923803294
1.64453125,0.09809418083794667,-0.01794753728982844
1.6484375,2.1218904427116967,-1.39983391391644
1.65234375,-0.862425690279879,-0.538404606490308
1.65625,-1.6685222944887934,0.905044645776357
1.66015625,1.6331496022132022,0.9007672351155827
1.6640625,-1.0041200741283962,0.8463712872279971
1.66796875,-1.4017421014388889,0.7263670533803266
1.671875,-0.26096820472913246,0.5858227851832251
1.67578125,-1.1489876475494438,-1.4325604525802418
1.6796875,-0.009018709508651586,1.0479602769972078
1.68359375,1.5273649800881481,0.717072057330054
1.6875,-0.31713968595797576,1.335976917463953
1.69140625,-1.6975365273987226,1.4600441941076672
1.6953125,-1.25092692093387,0.04105328113379725
1.69921875,1.4000420807259695,-0.11324746916807274
1.703125,0.7127654872835663,-0.40588665140132846
1.70703125,0.9973935149567669,0.20352554643573012
1.7109375,0.08211994034651283,-0.05451419534242749
1.71484375,-0.968476216879218,-1.40515263605743
1.71875,-0.5596260683707478,-0.9675824778014482
1.72265625,-0.7667483851378387,0.7373276540386742
1.7265625,1.1598374416619335,0.8316954712119798
1.73046875,0.5147977667420585,0.8801639226310701
1.734375,-0.46143827837395107,0.3774497543507107
1.73828125,-0.9551040410120833,-2.5531451134440446
1.7421875,-0.5789670248247618,0.9816076705291784
1.74609375,-1.1411969909543525,-1.0717926906533768
1.75,1.6619268413311137,0.6808626837590215
1.75390625,-0.9728636532248597,-1.299017413184052
1.7578125,-0.16278984100314922,-0.9420640461100908
1.76171875,-0.11018522150309164,0.5499107313903618
1.765625,1.0705382394352994,-1.1485051450728625
1.76953125,-0.7681901290906765,-0.32053437184578376
1.7734375,-0.670552272045184,1.070241760233173
1.77734375,-0.6171254006685494,-0.3397894746171555
1.78125,0.9500540045006984,-0.7853511766168052
1.78515625,0.9497170364966602,0.1971980211176141
1.7890625,-0.017290373664953968,-1.4249703532873235
1.79296875,-1.120853320342033,0.49481389216674815
1.796875,0.4438896888271675,0.0740110562164065
1.80078125,2.5032347791426512,1.63123265984209
1.8046875,0.3029106191501132,-1.4457304253974355
1.80859375,-0.11189569998927505,0.3630747246409382
1.8125,0.05704404186099538,-1.10666683017307
1.81640625,2.419877992198884,1.0297660609615669
1.8203125,1.583390535114984,0.9551611939389621
1.82421875,0.6898010928346344,1.3086462980126692
1.828125,-0.2921437284188884,-2.0086298577005097
1.83203125,0.05487750611316242,-0.6083786985288393
1.8359375,-0.320542552542205,-0.18652544002338134
1.83984375,-0.18591938193645127,-1.7608178769690654
1.84375,0.39838165908357726,-0.40215549760753383
1.84765625,0.8051835228597359,-0.5571181283775367
1.8515625,-0.4851060671989863,-2.0448706762832516
1.85546875,0.10853737852353526,0.7767833407895498
1.859375,0.22633973979165078,-0.5597723021369168
1.86328125,-0.8820373385619676,-0.5102578969917356
1.8671875,-0.40160328792966393,1.0885806181875957
1.87109375,-1.174434423919097,-1.2744666931073925
1.875,1.5969953863065132,-0.9209039959363621
1.87890625,-1.7048438280302307,-0.25708242576066637
1.8828125,1.6634493770550545,-0.2273841821588017
1.88671875,0.3385575869922512,-0.3395088000686794
1.890625,-0.8940712840642218,0.4641213097488684
1.89453125,-0.9060241068764804,0.06631414013068711
1.8984375,0.5664443958119875,-0.0547187621271387
1.90234375,-0.8629343259346638,0.08147357714619469
1.90625,2.1030955745188353,1.4590125419273772
1.91015625,-0.9678330293122068,0.16884890130473812
1.9140625,-0.8912766920853519,-0.5644248907432249
1.91796875,0.4125632121446119,-0.9012252446980897
1.921875,1.473593988472092,1.9464818521544742
1.92578125,-0.7780537861898362,-0.3766545775591375
1.9296875,0.2395475090458438,0.5427269909346377
1.93359375,-2.1074464601215075,0.5582756510735186
1.9375,1.0300035135278,0.5212821765967264
1.94140625,0.8043121046246602,-1.001720643154973
1.9453125,0.7203115225416965,-0.8041546514937615
1.94921875,0.4045619982884177,0.769339607449969
1.953125,0.7169701357946565,0.24000282344451399
1.95703125,0.4503906415790965,0.38000612631184433
1.9609375,1.9987203106999338,0.018521272999839633
1.96484375,-0.07190198297683938,-0.9134057034150849
1.96875,-0.6285600097543349,-1.1279341152071667
1.97265625,2.4674720898369236,-1.5180752605734364
1.9765625,0.4053081841546185,0.5413118940725584
1.98046875,-0.4604674586530555,-1.5690470653370852
1.984375,-0.8582130593595455,0.9192752342646504
1.98828125,1.5712468925627225,-1.751763656446879
1.9921875,0.8251932413269766,-0.29526197386702147
1.99609375,-0.11724842425859172,-0.3696137071916434
2.0,-1.7732633088847911,-1.8643560851903844
2.00390625,2.3553336168084162,-0.7368992962354141
2.0078125,-0.7203539691845665,-2.099937615807368
2.01171875,0.27737025484670186,-0.574797066793753
2.015625,0.31266617109617134,0.6453492941641934
2.01953125,-0.002514331305020706,0.4593955134335367
2.0234375,-0.2145246142420333,0.5191828530902595
2.02734375,0.3077646662055744,-1.369677811180504
2.03125,-1.9490708957520595,-1.6204124060880112
2.03515625,-0.0377940413899227,-1.3365812295469477
2.0390625,0.3165853625764912,0.8253882439332524
2.04296875,0.5459956468343788,-1.2346874186558041
2.046875,-0.4331844674187534,0.26870171356159933
2.05078125,-0.28078170335016833,-1.8795346576826208
2.0546875,-0.8906549237871998,0.48441178745574404
2.05859375,1.3383251760103427,0.9989929562907507
2.0625,0.2799125665411157,0.29833490939594803
2.06640625,-0.697318457791686,-0.768462878694137
2.0703125,-1.3774500782632473,1.1076293107622577
2.07421875,-1.7889755398180722,-0.39115870943292863
2.078125,0.9652402996107313,1.5085578250825282
2.08203125,0.6042227436292137,0.5111883144345242
2.0859375,-0.3150923946638857,-0.5771607972555909
2.08984375,-0.1620815637967276,1.5300834719697685
2.09375,-0.3300095037992835,0.08961138196446793
2.09765625,0.270645145661108,-1.9445058904854822
2.1015625,0.6361649973269702,-0.30156310691366883
2.10546875,-2.76460739928214,-0.4479124418993651
2.109375,0.874235692559577,0.339850940782569
2.11328125,-1.0743481317124841,1.1790590668816596
2.1171875,-1.1041403684483408,0.7651646875762422
2.12109375,-0.3935157195903502,2.9499921165945446
2.125,-1.623201689059907,1.4867068852976522
2.12890625,-1.0889406968962232,-4.431742872054078
2.1328125,-0.007275845733814805,0.7462998401295958
2.13671875,0.4748250211084365,0.9305820323131943
2.140625,-0.36491643462855977,-0.8441320015802023
2.14453125,0.1989344826111559,-0.8321756063081277
2.1484375,0.20972062054936952,0.5160538834644522
2.15234375,-0.2905357011396581,0.03122108236945493
2.15625,-1.000788577455518,-1.0324375144374227
2.16015625,0.3599168701249197,-3.2533273881361597
2.1640625,-0.33238070475252113,0.8701627753130754
2.16796875,1.542344278796927,0.6292495480007585
2.171875,0.4316633994628875,-0.09071608520691911
2.17578125,-0.8386058316522017,-0.8118085145482916
2.1796875,-0.8322441967395615,-0.1737846966444259
2.18359375,2.1767295430624,1.5821164714233273
2.1875,1.356301459475067,-0.05129532979298235
2.19140625,-0.17182754917668483,0.7102506954935702
2.1953125,-0.8101334688402199,0.5124939865831163
2.19921875,0.7004914654437745,-1.1871441187162932
2.203125,0.7339355612607454,-0.4624896530537363
2.20703125,1.1645954258001865,0.01518507263065942
2.2109375,0.6745428498030023,-0.5350561019197916
2.21484375,-0.032733974204030715,0.593926516578978
2.21875,0.27960224492254876,-0.297964261737259
2.22265625,-0.09052685641694387,-0.38389610990704637
2.2265625,0.49901888986368104,-1.225024539542595
2.23046875,-0.7340068057716526,-0.5869374154769964
2.234375,1.4071496503945762,-0.41828490541041746
2.23828125,-0.1479716434621898,-0.43993150835258926
2.2421875,0.5361276040190674,-1.7280819006881587
2.24609375,1.0509915757403554,-1.1194983429629202
2.25,0.2116616753074483,0.16881590616527084
2.25390625,-0.9640155648434956,-0.5360361173640426
2.2578125,0.012045761340699348,-0.4899039977223806
2.26171875,1.0590614435477212,0.8360489261692393
2.265625,0.8140967053080537,-0.8540664407074924
2.26953125,-0.8733993276721655,1.632441066614383
2.2734375,1.1143719527992295,0.23169056418990935
2.27734375,2.324461515194493,0.683147552332779
2.28125,0.2532188540748415,1.1980813501169096
2.28515625,0.6939558773460694,-0.07549822984086758
2.2890625,-3.1454410126844867,-0.3302470500541576
2.29296875,0.6936222444471366,-2.019873972609196
2.296875,-0.38382024507306867,-0.48570994924256616
2.30078125,0.22537683083383403,0.27986383447094887
2.3046875,-1.384672106461949,1.252857212351368
2.30859375,0.03147897553208649,-0.7193137055596873
2.3125,-0.4006235151380121,0.7352780945772955
2.31640625,0.24466694031962255,1.7834314371807847
2.3203125,-0.5341537050544064,-0.9454194611564951
2.32421875,0.08786344208119672,0.01989925171216669
2.328125,0.08586156363477948,0.5684429356772741
2.33203125,-0.8601068306293829,-2.837012071208509
2.3359375,1.8911871098665103,-0.6168408782412315
2.33984375,-0.15545169201614098,-0.13854469500878358
2.34375,-0.5890369448967666,-0.1550791280332696
2.34765625,-1.011321906547076,0.35955821965115836
2.3515625,-0.04647265471767251,-1.3263581149010506
2.35546875,-0.022052464700567567,-0.6960780507297661
2.359375,-0.5339932117420693,1.0829255005800615
2.36328125,-0.7532172719092076,0.1519936817659234
2.3671875,0.9061844741861059,-0.4438914610344078
2.37109375,0.2571593048889294,0.6762176831925478
2.375,0.6689682383133818,-1.1782742428711195
2.37890625,0.004276940592963202,2.4225649238561333
2.3828125,-0.10969292172379483,-0.5992983539804455
2.38671875,0.2813072639166319,-1.2322604824349004
2.390625,-0.12926296868637102,0.4542404246659435
2.39453125,0.17656781469907282,2.085096920314317
2.3984375,0.21890340952664397,2.030093475266049
2.40234375,0.7315892089689994,-0.0788979782001533
2.40625,0.45803848197990854,0.2687714897656203
2.41015625,-0.5048219705437238,0.3592132848043815
2.4140625,0.9943958816770372,-0.337472606754995
2.41796875,1.0979775579183175,0.9761841946108095
2.421875,-0.5107947201630535,-0.5139348844568172
2.42578125,-0.3142735848615053,1.7845694867863426
2.4296875,1.7054207940012822,-0.8524003075700853
2.43359375,-1.4278098332632838,1.1686823201793324
2.4375,1.6342198357231157,0.7829034459864219
2.44140625,1.6740187337100445,-0.7436037288060017
2.4453125,0.5774523094033946,1.5812104118050434
2.44921875,0.9424223744705685,-0.14988526310531547
2.453125,-0.6258051880127147,1.081227668229343
2.45703125,-1.359391661191362,-0.02036342912278575
2.4609375,0.8423191960435331,1.386003273608896
2.46484375,0.19537143098632948,0.37025620474842447
2.46875,-0.35808333119935376,-1.7822182675580358
2.47265625,0.08697465621789646,0.4005102974580354
2.4765625,0.7014292595891437,0.13267845964834518
2.48046875,-1.325168092750632,-0.2749145997392384
2.484375,0.2532286836999466,0.6719011607856186
2.48828125,-0.1628501199648251,1.831112627753612
2.4921875,-1.2410182660146092,-0.9558224187227555
2.49609375,-0.3030229479922699,-0.6299155338081918
2.5,1.3314116383007166,-0.30539285899208196
2.50390625,0.037473913532277726,0.39658389798264176
2.5078125,-0.020417365108522087,0.11949676967198422
2.51171875,1.520495802498705,-1.3405854765096679
2.515625,-0.6231922150618122,-0.01923647151309094
2.51953125,-0.22391771831200505,-1.468167770443643
2.5234375,-0.187728277968463,-0.8425592812317094
2.52734375,0.9096515255807932,-1.9536778990712704
2.53125,-0.17095684171464412,2.267851440862091
2.53515625,1.3948334719492015,0.30456010299513886
2.5390625,-0.8414664091602412,0.4170494602540001
2.54296875,0.19483218025400362,-1.3799668221658241
2.546875,1.327376328534343,-1.1214485924360265
2.55078125,-1.1706584985492057,-0.16650915713554576
2.5546875,0.08016139154385939,0.2774258006144459
2.55859375,-0.4053791712069885,0.5716469324138715
2.5625,0.07433361404163909,1.3897505633745517
2.56640625,0.4849443193163467,-0.437959754370687
2.5703125,0.7403885563168854,-0.3018521410340809
2.57421875,-0.5446625268725821,0.22309711520629066
2.578125,1.0099858513346776,-0.236524442950513
2.58203125,-2.5122195042399658,0.14351956089493786
2.5859375,0.9501592342215288,0.8173045331891863
2.58984375,-0.512683892932269,-0.5426800101775222
2.59375,-0.8865354221254231,-0.8280762106369675
2.59765625,-0.9596839350765003,0.5084707176468147
2.6015625,0.17590504236938173,1.2513166196237426
2.60546875,-0.7876788849512565,-0.20182508544539488
2.609375,-0.7807939859526024,-0.2974635876731887
2.61328125,0.6979698221461073,1.256312973152698
2.6171875,-1.4373092702514843,-0.24087121146052773
2.62109375,0.41731955362204776,0.2809021217746268
2.625,-0.7631489039846139,0.5820090701330458
2.62890625,0.2297531680066199,-0.09609447859486193
2.6328125,-0.8421990750563867,1.0992473986370863
2.63671875,1.7278854244062551,-0.42894721815811176
2.640625,-1.202420517751455,0.25419580486870175
2.64453125,-0.7613555644549368,1.470762753608684
2.6484375,-2.4087217747543668,0.8004462125046247
2.65234375,-0.7570475660957113,-0.9951608403919672
2.65625,0.04225630162018166,-0.4109264597698873
2.66015625,-0.8500138540111447,1.1967112252807632
2.6640625,1.0111291346490667,0.2957310906383502
2.66796875,0.420714157322466,2.4736758247470703
2.671875,-0.006169824091508051,0.1748075720397233
2.67578125,-0.7864979988839513,-0.34231028593655716
2.6796875,0.5792762026775009,0.8053812817894457
2.68359375,0.21361458285919188,0.6302509863025494
2.6875,-1.3240430971364756,-0.9608054253172194
2.69140625,-1.2101470578895943,-0.9803296501575095
2.6953125,0.48272621656385867,-1.4081455026243699
2.69921875,1.1436164895227126,0.13694186239385353
2.703125,-0.21891182041795343,0.1186533407377519
2.70703125,-0.6179222574972216,0.1724409613453679
2.7109375,0.6957041398341924,1.1044746745217557
2.71484375,-1.9666936775563961,1.1720309161520495
2.71875,0.08415984017255689,-0.41296467816464866
2.72265625,0.9230925934203928,0.26021849846985984
2.7265625,-0.8219978059900851,-0.05415937002473885
2.73046875,0.23161069859152758,0.24984620821104797
2.734375,0.38489309675053385,1.2705138376438603
2.73828125,0.14496796012806212,0.07415777322095815
2.7421875,0.18913176979537957,-0.15771083434621033
2.74609375,-2.8364989039701505,-0.03979231982808934
2.75,0.6191881781584975,0.16980476499673824
2.75390625,1.1006768686528177,1.3587899103525356
2.7578125,2.538846252249877,-1.0073731229596963
2.76171875,0.5522602860283735,-1.3622056963803622
2.765625,-1.6723623577232947,0.4558883658698229
2.76953125,-0.39143505748138063,0.6845818070653525
2.7734375,0.12484935839654615,0.07640366442721355
2.77734375,1.3725730719341809,0.15852291000050814
2.78125,-0.7354102060351504,-1.7794297479263095
2.78515625,-0.7061160011892332,0.4284870827484997
2.7890625,-0.20165081183488218,-1.890400118889796
2.79296875,0.163693059641651,0.1433906324699446
2.796875,-1.0110979155050435,0.2775772292847577
2.80078125,-0.06594037100370528,-0.885029585514007
2.8046875,-0.31690994285182494,-0.06845603510786828
2.80859375,1.2024570859581603,-0.48736205380870234
2.8125,-0.04900733228244429,0.8616671091751225
2.81640625,0.9288483340200702,-0.11260388909507811
2.8203125,-0.5496238527830888,-0.1518853105553022
2.82421875,-1.9266605101597132,0.9279686479869397
2.828125,0.17804905960912207,-1.9249649390053958
2.83203125,0.9793818202251429,1.7855366484201876
2.8359375,-1.9968817139807304,0.07472040110729358
2.83984375,0.9498993273590373,-0.21962618403386527
2.84375,0.1744207216718272,1.1568667596011244
2.84765625,0.0519217252010261,-1.179614175184593
2.8515625,0.5732260081511031,1.1487545096887481
2.85546875,-0.2846617896631561,-0.5128680446407252
2.859375,0.303588075437953,-1.2755864195751931
2.86328125,-0.3308593374084005,-0.08430315057951307
2.8671875,-0.5939346207091896,1.5888078816634286
2.87109375,-1.5402378016374247,0.36010784900761666
2.875,-0.5010467455787714,-1.052089540030303
2.87890625,-0.7818507199200526,3.009879766189586
2.8828125,-1.1327854030626199,-0.2647464445227996
2.88671875,-0.6160826541733045,0.8441256230084507
2.890625,-1.12548714019525,0.9084526705999285
2.89453125,0.819759392531324,-0.6619553336935657
2.8984375,0.8705796170028616,-2.003121538193447
2.90234375,-0.11377011680310953,0.40154057411137806
2.90625,0.18465497439848724,-0.18868109624317875
2.91015625,-0.5311375910720005,0.0376160110169624
2.9140625,-0.021146542923104587,-0.0951697536010262
2.91796875,1.569145402769566,0.7563604856283319
2.921875,-0.05025351465633608,0.8968243650072724
2.92578125,0.6799974117269105,0.09347803122895178
2.9296875,-1.0127758513613982,0.504479928099036
2.93359375,-0.43943162882893905,-0.7330209778692666
2.9375,-0.03584713521534909,0.8300754213535968
2.94140625,0.16249218667682558,-0.6249859755352339
2.9453125,-0.12247798043410393,0.4009706393218641
2.94921875,1.4417732762832416,-1.2513020710637868
2.953125,-0.030572073141574636,-0.988520345370592
2.95703125,-0.6347553062134458,1.9775937308770637
2.9609375,-2.146519141253452,-1.2357054859835992
2.96484375,0.8681140218453055,0.7624912350132342
2.96875,-1.0981936246198516,-0.8857659846355014
2.97265625,-1.1875654637922912,0.608780787887203
2.9765625,-0.4652378478750771,0.15386235153196076
2.98046875,-0.41704487976685345,0.3844315398654924
2.984375,-0.29116194166242526,-1.4824534431293221
2.98828125,0.04096647392003906,-0.1729879062788934
2.9921875,0.9186220274034049,-1.2164475503040886
2.99609375,0.8617149165091863,-0.1487262432634972
3.0,0.3944670929958179,-0.2752148272361886
3.00390625,1.777185106299433,-0.5870563488681833
3.0078125,0.46140551708804894,0.27484730748422764
3.01171875,-0.530237155579143,-0.04816630874921796
3.015625,2.5651719396214654,0.299233594093694
3.01953125,-0.4020183579386517,-2.1949600758388863
3.0234375,0.19988898752943787,1.640787891351241
3.02734375,-0.8429535627797631,-0.44922460531181513
3.03125,-0.9007123300878661,0.3205490742941411
3.03515625,0.8276624318056075,-0.942831286630861
3.0390625,-0.7949047549003664,0.7982464088690711
3.04296875,0.4105748832416148,-0.5782178314733384
3.046875,-0.7219034650692903,0.7117098185840436
3.05078125,0.5812332598665183,0.16499994118754902
3.0546875,0.9803491434074257,-0.2789450036845998
3.05859375,0.09391348497259693,-0.40598675403900486
3.0625,0.11892369100694818,-1.3629260623457975
3.06640625,-2.0431338460809267,-1.0116176052572006
3.0703125,1.4256765042084867,-0.14463186262454678
3.07421875,-1.863797207487403,0.16914289115742545
3.078125,1.2148307068298907,-0.7839418561665411
3.08203125,0.5057295739078135,-0.6636598997251915
3.0859375,-1.823524958689652,1.0929793267735668
3.08984375,0.879119066079365,0.17659718248369302
3.09375,-0.0035503756015695196,-0.9621949351775434
3.09765625,0.9151424275742136,-1.246153607171455
3.1015625,0.010661894933478359,-0.3750789082029807
3.10546875,-1.2140139052649646,-0.5412480922276195
3.109375,0.47161746943744504,-0.8426667979009961
3.11328125,-0.4426661912071466,-1.0048914819159667
3.1171875,-0.13144063557838964,-0.04218323259631716
3.12109375,-1.1452556775623293,-0.21851097372540074
3.125,-0.38960695008030943,-0.48893618968776825
3.12890625,0.8330481319670435,1.2334572222291849
3.1328125,-0.05237067703489618,-0.5975467129721627
3.13671875,0.5979564640894729,0.4815344185360435
3.140625,0.8136254944850474,-2.1885531368538316
3.14453125,0.2245586218349602,-0.8872834715980277
3.1484375,-0.14453678183364738,-0.9438161862882637
3.15234375,0.07277910995990043,0.06719922136207025
3.15625,0.5146817004145554,0.7162520696983025
3.16015625,-0.19222087006706484,-1.3682631279198691
3.1640625,-1.0703860056038497,0.2720086357523171
3.16796875,-0.6595113680732929,-0.07243415223811979
3.171875,-0.8423172108433656,0.8909257010532289
3.17578125,0.11384452614085587,0.8130167980591639
3.1796875,-0.6673123091302511,-0.009469351553831556
3.18359375,1.1531602929064493,-0.9044496816412666
3.1875,-0.44095520447527187,0.7499749628378658
3.19140625,1.84806509304419,0.001715060905749577
3.1953125,-0.07711991518179452,-0.2687614822745389
3.19921875,0.9178002917160702,-0.3075081777434709
3.203125,-1.122788567183607,-0.05527442436704539
3.20703125,0.02652672831806197,1.3727167376318252
3.2109375,1.0070817858568732,0.22945666905557682
3.21484375,0.6728720513689178,-0.4578504061284985
3.21875,-0.5893285026019273,1.8332876610005786
3.22265625,1.0001973277268292,-0.7714831381249444
3.2265625,0.16381968703165203,2.2210255378588597
3.23046875,0.25009242544401733,-1.1995443116185753
3.234375,1.632544534265069,1.07060666891519
3.23828125,0.04141091131040226,-0.8457764486070686
3.2421875,-1.1526545119691023,0.051777317276354005
3.24609375,1.365206819471787,0.9824483512933162
3.25,0.09965192888492339,0.25020753065251666
3.25390625,-0.3345971468460248,-0.4059571281184483
3.2578125,-0.01814541160538537,-0.9380010138743134
3.26171875,-0.46866827255213167,1.2269176282762293
3.265625,-0.6610144825527189,-0.265967822392412
3.26953125,-0.5481500886784787,-0.44212415001193234
3.2734375,1.7334504069156333,0.39759844623483936
3.27734375,0.6707245241627808,0.17414872590439914
3.28125,2.4157343619196308,-1.3520584002619016
3.28515625,0.282706625889221,-0.5910789839355384
3.2890625,0.2347016394959527,0.09680133982882287
3.29296875,-2.1307754895037623,-2.214384166862203
3.296875,0.36898193575047106,0.6032225861124694
3.30078125,-0.3836165042895591,-0.9138045047871153
3.3046875,0.0578284069380324,0.40004240100602373
3.30859375,-1.116325069627197,-1.389931083154653
3.3125,-1.315747798982356,0.1376497065366892
3.31640625,0.6774023009796403,0.6732034377529044
3.3203125,-1.0446018796903183,1.092927753732674
3.32421875,-0.47075459085420873,-0.8763648451682837
3.328125,1.486524372659965,-1.0498603391607975
3.33203125,0.27325359946431804,1.4405818015876422
3.3359375,-1.5764343105243104,1.2782999431041435
3.33984375,-0.2863213057274642,-0.6600071065658933
3.34375,1.0969497759292446,-0.753576491086461
3.34765625,-0.2523331160427381,0.18226744607423154
3.3515625,-0.8991061430562047,-1.8438540450223548
3.35546875,2.5133973205823312,-2.426609432131417
3.359375,-1.1388304031527463,-0.05537724596950693
3.36328125,-1.2090628403725527,-0.22363816480958135
3.3671875,-1.8687835963640094,0.2642708050668718
3.37109375,-1.0452324183914388,0.7425951604571489
3.375,-1.1148711893503025,0.29391750298983327
3.37890625,-1.0920909702467987,0.39944459801067456
3.3828125,0.05396028276502207,-0.28751491443058097
3.38671875,0.963142347749616,2.0148749000842128
3.390625,-2.1111980068308895,-0.9036589373030526
3.39453125,0.13482663578682327,-0.95861559678942
3.3984375,-0.057342743511978156,1.4275246552953844
3.40234375,0.04266596084043947,-0.3827774735464739
3.40625,-0.010634547057894942,-0.9414129199362268
3.41015625,-0.23461138260537023,-1.112817970461823
3.4140625,-0.695036738565279,-0.021991647116116564
3.41796875,0.20798483394270484,1.2695906045773564
3.421875,0.2186381630943334,-1.7906109218607453
3.42578125,-0.10326256278969799,-0.6188340033048404
3.4296875,0.48486594207740785,-0.6032822482244866
3.43359375,0.5549903606664529,0.4574237209436686
3.4375,0.34185169730014003,-1.0235810386386854
3.44140625,-0.3278914293411493,-0.7511313398715022
3.4453125,-0.9201320212091675,-0.10424341928970544
3.44921875,-0.9087529828789723,0.8480903802357372
3.453125,-0.6572626309005634,0.3819596591126465
3.45703125,-0.4018896354129247,-0.6428520465841269
3.4609375,-0.7010186045229719,0.8070195962939101
3.46484375,0.8161949383482121,-1.0877141768086698
3.46875,-0.6403515566346004,-0.8803526711720975
3.47265625,-0.9053908688786824,1.4075410517825073
3.4765625,-0.3739557622567404,-0.42342148468445917
3.48046875,2.156158030141942,-0.1632185910887473
3.484375,-0.2154615412256501,-1.424929202967841
3.48828125,0.31451725762713295,-1.2882431649349952
3.4921875,-1.2065017579026602,-1.1006245439969164
3.49609375,1.7089787122385656,0.5822455618368614
3.5,-1.6909747045825116,-0.060868065092107196
3.50390625,-0.7540731264621485,-0.8227424584466513
3.5078125,1.1098690314311377,0.009395177647515195
3.51171875,0.19379015509472935,0.013026054958774996
3.515625,-0.3813990414467683,0.2505913704407391
3.51953125,-0.47495541526638,-0.19314224193920204
3.5234375,0.534645602394636,-0.15981779773540075
3.52734375,0.04815362454278023,0.5748062283765233
3.53125,-0.3093992029093419,-1.2892037675364652
3.53515625,0.700455015170868,1.681423515756493
3.5390625,-0.516564202278131,0.42790026806233017
3.54296875,-1.6711196421718115,0.9297348599759063
3.546875,1.4296225618837681,-1.048073148767691
3.55078125,0.04406315918733812,0.7038802301168878
3.5546875,-0.2927479020373918,0.03255501481863953
3.55859375,-0.264270912014569,-1.2787862828814347
3.5625,1.4190829478090685,-1.357293103343602
3.56640625,-0.7101237835017165,-1.249581106708587
3.5703125,-1.0343622652349245,0.33104550726924137
3.57421875,0.0184409319464464,1.6280665963971435
3.578125,-0.09894984706048691,1.9514712196689652
3.58203125,-0.29247338920908594,0.5833668951804619
3.5859375,-0.44606793119643073,-0.359575829061847
3.58984375,-0.6239034654979468,0.3066870294117028
3.59375,1.0044173633699645,-0.6295046419556195
3.59765625,-3.555728229045263,0.2523451381894997
3.6015625,0.8008159945755299,-0.9608248967880132
3.60546875,0.539771116766562,-1.577753766057019
3.609375,-0.6113955297105372,0.3515368711464339
3.61328125,0.7507557520288656,0.9000473210467326
3.6171875,0.2529357332293371,-0.2390472685645527
3.62109375,0.5239674747249882,0.34674318430830037
3.625,0.45355073738581436,-0.07874862605530758
3.62890625,0.046424571768082804,-0.22175452697874667
3.6328125,0.43803831559948336,-0.2981175599485745
3.63671875,-1.246562426126956,-0.5758042892527067
3.640625,0.5548044501427295,-0.22667939633516543
3.64453125,0.9606368401741374,1.327992136421256
3.6484375,0.016833658657758346,0.7390359891655963
3.65234375,-0.4466241163072273,-0.9891623336802816
3.65625,-1.3454741919996502,-0.11445602770996885
3.66015625,0.07605104632870051,0.5333924788296255
3.6640625,0.08066538257149028,0.22615690580087713
3.66796875,-0.4002304007269121,-1.2102980142135364
3.671875,-0.3411251964389847,1.1109092846624735
3.67578125,1.9428298374085125,1.1647922018178964
3.6796875,-1.6169831280907363,-2.214483192573673
3.68359375,1.5879555794599012,0.04922355021489902
3.6875,0.40259221730628203,-0.08149993530094496
3.69140625,0.7694195185207945,0.6849622205026624
3.6953125,-0.3759149284765797,0.6984794649636077
3.69921875,0.3643844725767616,-1.239200165165581
3.703125,-1.045617516056131,-0.9454280973932472
3.70703125,-0.031602739925060075,-0.8357878339070738
3.7109375,-2.4112589073598754,-1.4712778113471838
3.71484375,-0.2992892548383889,0.5095640459491442
3.71875,-1.575772863955542,-0.387770122893331
3.72265625,-0.3323903753394846,0.9004581690887229
3.7265625,-0.2150004340063983,0.47333643271622644
3.73046875,0.10164378065842308,1.346873260575749
3.734375,-0.6633415720148313,0.9797291199463815
3.73828125,0.11759485888470202,-0.3882061278491715
3.7421875,0.5078880493413379,-0.6709543631562236
3.74609375,-0.42506046567405154,0.3367947560906993
3.75,-2.2493461756798876,2.0616297030558144
3.75390625,0.2969563633957389,0.9992326093272316
3.7578125,0.2059435553253623,-0.8381253710252224
3.76171875,-0.050671145839953184,-0.18730647566075756
3.765625,-1.2490562711595163,-0.309111814705243
3.76953125,-1.0503661597032434,-0.8403248160873612
3.7734375,-0.2753675514058922,0.10190734364805926
3.77734375,0.28863479569860845,0.641619859202279
3.78125,-1.4504272846213533,0.4518836929253725
3.78515625,0.9014291009568003,0.5807048370985036
3.7890625,-0.28773528627334344,0.6632319322742701
3.79296875,1.1665653847820734,-1.5242591142200803
3.796875,1.0700361909355083,0.5870948826198195
3.80078125,-0.44602991916810286,-0.5820731469853153
3.8046875,1.0166857922544241,0.6020035635679917
3.80859375,0.5426782288961688,0.6494494310239379
3.8125,0.7804691968737698,-0.28049274424162024
3.81640625,1.8200492253774425,-1.4222948852372024
3.8203125,0.996680688445661,-0.06339895127735871
3.82421875,-0.38857499151822056,1.0759983990460151
3.828125,-0.8478586212361472,-0.6004045425091564
3.83203125,-1.063295742540662,-0.8822720327781897
3.8359375,1.2043045261192864,0.5032908961112372
3.83984375,0.7223467027844159,1.2678564348474723
3.84375,1.5885866114952163,0.8424366434311296
3.84765625,0.5626231015563663,-1.851046554623108
3.8515625,-0.7131151676588328,-0.38729405368432746
3.85546875,-0.24984930095424385,0.878908058520857
3.859375,-1.3197196593996203,-0.5320207750245638
3.86328125,0.2455266447798342,1.3243198125874156
3.8671875,-0.36369631901214217,-0.16830414228260404
3.87109375,0.7822020058402895,-0.25257393579602305
3.875,0.5399750456761302,-2.35500218284235
3.87890625,1.5890075604599494,-0.6406962719648336
3.8828125,-1.2100600158615273,-0.37730069418413914
3.88671875,-0.1765352561445956,-1.3588292070490862
3.890625,-1.1158619060162935,0.7228799759231103
3.89453125,0.21081760570747113,-1.5408795785967322
3.8984375,-0.7230925485836752,-1.4064564127791852
3.90234375,2.5924450694693646,-0.3290672442896849
3.90625,-0.11392930973838436,-0.6362944884615942
3.91015625,-0.5857534068342852,-0.7256306201721819
3.9140625,-0.7588258193325137,0.9606317763925678
3.91796875,-0.4214486284372874,0.32945347595391894
3.921875,-1.0610581685847118,-0.22321962187828012
3.92578125,0.17165201489629942,-0.7257936332182985
3.9296875,0.3763888475376643,-0.6526928633061296
3.93359375,0.37766578405021095,0.84828314735752
3.9375,-1.6680210913525264,-0.1467601610077924
3.94140625,-1.5550741060968525,-0.9769602791917061
3.9453125,-1.897941359406291,-0.17560294763709658
3.94921875,0.2088601091843966,1.6526280860798905
3.953125,0.3385181298671902,0.6224373670709828
3.95703125,-0.46153256323358727,1.2401897870107268
3.9609375,-0.4131874763351665,-0.07117242984764971
3.96484375,1.0351315281138633,0.07648386420961414
3.96875,-1.087111321753747,-1.2950314548638922
3.97265625,-1.1105256527326237,-1.598469841766689
3.9765625,0.6821034455986333,-0.17248266700000414
3.98046875,-0.6196679014492833,-0.1928536942851961
3.984375,-0.5788023876977304,-2.4771619309460924
3.98828125,-0.24505049555585043,-0.24047320181434131
3.9921875,1.0382844477006061,0.11976320297573431
3.99609375,-0.008707596473359797,-0.7566532609835827
4.0,-0.8536753262521641,-1.623177383825695
4.00390625,1.0399573838427267,-0.7165530195602369
4.0078125,0.172625687783283,-0.18016181128919612
4.01171875,-0.7202531584435973,-0.04027242871587769
4.015625,-0.6493424229284933,0.67937593994582
4.01953125,1.4650204290639741,-0.16798388459251087
4.0234375,-2.1369027472941347,-1.0280624365509419
4.02734375,-0.2685308140686331,-0.24872335150581387
4.03125,0.8707265844747121,0.37890998537060766
4.03515625,0.7798298211256006,-2.3590163192379006
4.0390625,0.8441099262216877,-1.6588876864564546
4.04296875,-1.2047534354951346,-0.7685543264641077
4.046875,0.062438174442002066,1.8255977734699982
4.05078125,2.186580145927422,-0.49816763747349346
4.0546875,1.865685692444406,-1.725600347390006
4.05859375,-0.22950393822017592,-1.6843920740812277
4.0625,-0.5946237607736969,-1.1132731404523293
4.06640625,0.5516098192057434,-1.0579382684024052
4.0703125,-1.2566171564721713,0.16543836089667915
4.07421875,-0.01873258874590157,1.1090661767291943
4.078125,1.163522411538474,-0.46895240617617817
4.08203125,-1.0278281191872267,0.11603985453091838
4.0859375,-0.25017089650960855,-1.1579578542863083
4.08984375,-1.1979791594231448,-0.7675250110729194
4.09375,0.13945346398838532,0.8823331745898866
4.09765625,-1.1813994960319947,0.42079988522912726
4.1015625,-1.4034317058974148,0.6359835978648358
4.10546875,0.5396477465364428,0.3426448429317636
4.109375,0.35874955071145104,-0.013268657177153637
4.11328125,2.529564902860714,0.3488230308560185
4.1171875,0.14409653517434728,-0.01620121407325476
4.12109375,0.09456023812523956,1.742406930354048
4.125,-0.5084555364497014,-0.10319523177272602
4.12890625,-2.363248467068093,-2.376868746186619
4.1328125,-0.15724681822924405,0.06937008954768627
4.13671875,0.8542958937549743,0.8727821207211326
4.140625,-0.007135895709591838,-0.8765550430202841
4.14453125,0.1233903897342672,-2.397862356525026
4.1484375,-0.4441667621839526,0.8582617789354248
4.15234375,-0.050616475983754204,0.7445181407076711
4.15625,-0.7360932984035241,0.5143181328249824
4.16015625,0.14439760237338833,-0.6109693198322171
4.1640625,0.3541108052143338,-0.7333819989284044
4.16796875,2.5673627373771235,1.232598634649028
4.171875,1.2372955266653618,-2.145815483509894
4.17578125,-0.15294413682223082,0.062142022466238386
4.1796875,1.1706121178668845,-0.3190808486606082
4.18359375,0.041168704647280306,-0.6465636973679503
4.1875,-0.7829807502529597,0.39786102723051353
4.19140625,-0.6804195966910613,-2.182434040540968
4.1953125,0.9809595877901962,-0.7671210577944392
4.19921875,0.10593727732596765,-0.9722870114535073
4.203125,-1.1002310149564272,-0.5021809519277853
4.20703125,0.30446579388358563,0.3573089278866248
4.2109375,0.01632864198163879,0.3775606910822642
4.21484375,0.6001972542152298,0.29192346125410046
4.21875,0.83882301788543,0.43258993612036706
4.22265625,0.5901226515531428,1.5660783425710605
4.2265625,1.3988388257347728,0.27223572988674777
4.23046875,-2.1564113912903955,-0.3534989057806737
4.234375,-0.708672396553443,-0.45826705430530534
4.23828125,0.37473687229099106,-1.341019576751547
4.2421875,0.6329849962934718,0.41566732960248776
4.24609375,-1.0393745188619898,0.22277948173619788
4.25,-1.1851340491429019,0.27330034706225825
4.25390625,-1.080694088648583,0.6048189649992388
4.2578125,0.5784573300116443,0.8128002828745946
4.26171875,1.493631228353082,0.7655032304974049
4.265625,-0.5021994906511416,-0.7817459111808901
4.26953125,-1.4626030265440912,-1.1488163167793177
4.2734375,-1.4635499000934258,1.0099236020105622
4.27734375,0.20769334126076372,-0.3297793691105711
4.28125,1.3849604944033018,0.754858431623994
4.28515625,-0.33674205247832917,-0.6101718036064212
4.2890625,1.9794622004187672,0.23561873589110766
4.29296875,-1.6607622841156997,-0.6529431582428912
4.296875,0.19015624281637986,-0.47467135702166086
4.30078125,1.151846651418884,1.3054956283536678
4.3046875,-1.8298824157176228,0.9249374875214328
4.30859375,0.2826125494705994,0.4298689550598661
4.3125,-0.10973419026524442,-0.5300401206886487
4.31640625,0.43003463802638064,-1.2168863620979076
4.3203125,-0.39221094909275095,0.28863952136727894
4.32421875,1.9461961597542632,1.0410966127620243
4.328125,1.0679159619670169,2.6300032817609122
4.33203125,-0.2892005885540583,-0.1341232975311304
4.3359375,-1.6031685826797804,0.598000153519567
4.33984375,1.2863701090814312,-0.6625475152348329
4.34375,0.12655563238457057,0.8770907558226775
4.34765625,-0.030609267783349704,0.0025485002640910437
4.3515625,-0.1953355943741045,2.11171827997158
4.35546875,1.550925134036683,0.7306397671826039
4.359375,0.08732550253606498,-2.1410508448290204
4.36328125,-0.7284430979061615,0.44354289298990646
4.3671875,-0.2379408152956187,-0.2851921122640816
4.37109375,-1.3742413015071566,-0.2855349646353701
4.375,-0.6770602304927292,0.769867842514268
4.37890625,0.6967814679468258,0.42564664589201967
4.3828125,0.24372417252397163,-1.1050931147037113
4.38671875,-0.8324547128887595,0.44926892332659896
4.390625,0.6721988487652437,1.5262380282085866
4.39453125,-0.8105301228246612,0.7855757762263448
4.3984375,0.1754050409765715,0.8027950263592226
4.40234375,-2.4119064761573203,-1.955260146543141
4.40625,-0.2615227293037627,-1.0968250916454685
4.41015625,0.5143717570620863,-0.17318824502736796
4.4140625,-0.05642653891232523,-0.5377638895586232
4.41796875,0.5841680950033177,-0.47152130618518134
4.421875,1.8415298148763768,-1.392203427617818
4.42578125,-0.16308156013432998,2.809425190762353
4.4296875,0.41121507357936804,2.0399447102365684
4.43359375,-1.1525265342132813,-0.5009358960502835
4.4375,1.093709769571706,-1.1445648922361547
4.44140625,-1.1929518901317628,0.8312302401389173
4.4453125,0.944522506849957,1.6238960195070324
4.44921875,-1.2848103536940438,3.3724072140153525
4.453125,0.5313257613391412,0.43460392892262645
4.45703125,-0.7076389759419697,0.5709850530951954
4.4609375,0.03060376679432576,-1.7235616124621622
4.46484375,0.39949715504515304,-0.9203161968520506
4.46875,-0.15168937568410312,-0.027865052355246965
4.47265625,0.26762000328685703,-0.12705034719110317
4.4765625,-0.8643687207300167,-0.9766774496313605
4.48046875,0.8520004790985093,-1.1076684266203594
4.484375,1.7761967735141975,1.2498445263281184
4.48828125,1.0390277426773369,1.2140137567406122
4.4921875,2.134438437325198,0.739582271451915
4.49609375,1.201517611715779,0.7748985440174568
4.5,-0.058847080085275644,-0.08204948261821203
4.50390625,0.07164808915687848,1.0383102593240052
4.5078125,1.0102184139279147,-0.6679814491698903
4.51171875,1.9837118878105353,1.6335458424158456
4.515625,-0.09622748211956632,1.0534805083690577
4.51953125,-0.2663622103970558,-0.018197151197023084
4.5234375,-0.2796492880073965,0.8930157282404605
4.52734375,0.06269318357889817,-1.2014660164037192
4.53125,0.1689925595079617,0.6388245671354178
4.53515625,1.3353024976868035,-1.6073595483420404
4.5390625,1.5787307744558403,0.30559913511485715
4.54296875,0.23591310003228338,-1.0690774773075058
4.546875,0.4909506410550926,0.35488900489403497
4.55078125,1.194275748261273,2.392231603699365
4.5546875,-0.8014521384479673,-1.209636383687094
4.55859375,-0.08283500324036958,0.9352452949909033
4.5625,0.9556680097814815,0.8497812606829118
4.56640625,-0.8362901765840209,-1.7771095078910593
4.5703125,-0.3094740165253726,1.0019040168436442
4.57421875,0.9053073899583554,0.7208175425244614
4.578125,0.030787336452056203,0.13718592587472261
4.58203125,-1.0677647179559957,1.2371370144982963
4.5859375,-2.3310478646154555,-1.2513017004206233
4.58984375,-0.4852128755620735,-1.8902121469726976
4.59375,1.8950199801859755,0.7068922038365888
4.59765625,-0.2562585118537667,0.2134539947769789
4.6015625,0.35420524829470373,-0.24496366019073945
4.60546875,0.5600151363358916,-0.9449246959988069
4.609375,-1.1870427012256168,1.1339098905543252
4.61328125,0.5128032595232399,0.2611546919293782
4.6171875,0.5889150165161188,2.857611513585816
4.62109375,0.3093117990587245,0.9104947443871089
4.625,-0.5289026908677785,-0.7705194226134572
4.62890625,-2.062149002007821,1.0602883083204933
4.6328125,0.2314900390367006,0.29327409844896635
4.63671875,0.3913488066604517,-1.5201680980603665
4.640625,-0.5830237102354945,1.2420701840189863
4.64453125,0.6092092126291111,-0.7906798293709413
4.6484375,1.2957735080150388,0.7099068960238464
4.65234375,-0.4029483709099435,-1.201382342823155
4.65625,0.3868418228997182,0.742602977883201
4.66015625,0.8846055963481366,0.0227168997370571
4.6640625,1.5387265522003142,0.35401868360914074
4.66796875,0.31376857330953406,0.014506675659612668
4.671875,0.5484940922289453,-0.510496682776236
4.67578125,1.3012897415782876,0.5036759271965684
4.6796875,-0.6220551948606252,-1.4798061505635125
4.68359375,-0.8724242456495457,1.4182957363098467
4.6875,-0.7147136116543877,0.10300711045365415
4.69140625,-1.2025752687937923,1.6458599101709441
4.6953125,-0.33163704117975523,2.3361727341276537
4.69921875,0.6578622783207674,1.4074374564628875
4.703125,1.1176794539319488,-0.26969165067725903
4.70703125,-1.4031164663272027,0.33388169977766263
4.7109375,-0.5022905726170566,0.2528340302450863
4.71484375,0.9846890649870198,-1.7987687223044286
4.71875,-0.13458794472173863,0.19761934461387673
4.72265625,-0.5590133191071871,-2.0154956884788575
4.7265625,-0.04643844315672376,-0.038358382660462965
4.73046875,-1.1017746553421888,-1.4143455743824211
4.734375,0.6663321820033439,-0.5074570146679059
4.73828125,-0.6170673610275688,0.38827276582011483
4.7421875,1.8083587870675617,1.0111682632479486
4.74609375,-0.2708424873747011,-0.26615486546271705
4.75,1.089098064943903,-1.6132570041075152
4.75390625,-0.18979150216999413,0.3904115833553265
4.7578125,-0.8822651474929638,-0.03584956637130253
4.76171875,0.34558349461144616,-0.2703686105061582
4.765625,0.6170931282784677,0.19360061179290278
4.76953125,-0.46924509333430053,0.8291379716274051
4.7734375,0.2513083669115189,-0.05031501027349005
4.77734375,1.4077446457752592,0.21399470486794167
4.78125,-0.40699277869838846,-0.19393625561578995
4.78515625,1.551978208548816,-1.095890387015663
4.7890625,1.2306565256721391,0.26746740564007526
4.79296875,-0.1150339179405614,0.5577834135686398
4.796875,-2.998944561084152,0.5637493171322764
4.80078125,0.09638963552447713,-1.400766863839292
4.8046875,-2.4359186492596496,-0.7602506048834815
4.80859375,-0.3949145056899225,0.8258461268574763
4.8125,1.4917349985274688,-0.11469636322903994
4.81640625,0.3532308504405032,-0.5869723279867546
4.8203125,0.9698175010771356,0.18803073489514177
4.82421875,2.074079740365436,1.0436123877374297
4.828125,-0.7156017006298777,0.2831815218619062
4.83203125,-0.5963223959972423,0.6676255331499497
4.8359375,-0.4916523140205483,-1.185021848163179
4.83984375,-2.44800941321621,1.4503695143504534
4.84375,0.24865478703470287,-1.063503826230323
4.84765625,0.3634875896924842,0.6434706038812001
4.8515625,-0.12329135754402439,1.3749333459218778
4.85546875,0.9227358352091829,1.3984527002416698
4.859375,-1.993274285732648,-0.08243543856439878
4.86328125,-0.18823124316467188,-0.7147460144550898
4.8671875,0.996332208504721,0.20809017119233178
4.87109375,0.2183963334776877,1.037290355401776
4.875,-0.21081727310789086,-0.6381631979829774
4.87890625,-0.9590263081003965,0.8826578784745842
4.8828125,-0.48004107416266323,-0.458118942342885
4.88671875,0.7355379073266256,-0.40392825952722883
4.890625,0.18520398843612648,0.3181951058912946
4.89453125,-0.9248260300988086,0.24576427575214763
4.8984375,0.005090895071074014,-0.3870462164626532
4.90234375,-0.598429392691533,-0.25263125366085015
4.90625,1.1515994082143348,-0.748039854579614
4.91015625,0.6436570272729805,0.829798046766204
4.9140625,-0.46931696702667725,2.074362373721527
4.91796875,-0.15966116117962903,-1.9474000459738312
4.921875,1.2460497995230013,-0.382150406976339
4.92578125,-0.8942238560047027,-0.27187091693492477
4.9296875,1.2970854905525717,-0.10696342754004774
4.93359375,0.974384877603543,-0.4311667782817375
4.9375,1.4959463889943285,2.6666551064699693
4.94140625,-0.5603161451984604,0.7887382944192934
4.9453125,-0.6731623887964804,1.0678242364536552
4.94921875,-0.7759710199696351,0.4745248582396604
4.953125,0.47290443427607526,-1.6007953035202382
4.95703125,-0.28798537243188965,1.1875495288139077
4.9609375,-0.019444048716215658,-1.5495785001565932
4.96484375,-2.142247995634694,-1.0177118576812323
4.96875,0.1347154587634593,-0.008284884498922456
4.97265625,-0.26009408105312065,-1.0840031298658297
4.9765625,0.33651801936239883,0.17826257674368934
4.98046875,-1.8993935644304962,0.09527452377566233
4.984375,0.6228470242023001,-0.3926767062524445
4.98828125,-0.8391939726189167,0.32936694962274077
4.9921875,-0.9588373928927795,1.6883743725711227
4.99609375,-0.8367978682615422,-0.3961815145647399
5.0,1.8241128922830074,-0.2305972409807414
5.00390625,-1.3530896742900473,0.055627523342717415
5.0078125,-1.112662779464823,1.0810842508566234
5.01171875,1.01098366592445,0.6497574152267418
5.015625,1.4788930208059066,1.1698901064712834
5.01953125,0.6996054685117247,0.8281151287218366
5.0234375,1.2400083290495878,0.7818361118139775
5.02734375,-0.6940905274331106,0.4420209277700074
5.03125,-0.19959706188033868,0.12768243568845267
5.03515625,-0.9157414676250967,0.7570454370566222
5.0390625,0.9443336908021317,0.7662693048881473
5.04296875,-0.0628273752449559,-0.7106284740128088
5.046875,-0.8496109409346188,-0.006198947936662246
5.05078125,-1.1244488070810497,2.34021034823874
5.0546875,0.511802967747744,-0.04867018487593049
5.05859375,-1.0695592783645593,0.7134528929723447
5.0625,1.6853575761814512,0.18543677584074192
5.06640625,-1.3771051042083187,0.7909814321622629
5.0703125,-0.0356284459464433,-1.181434521864374
5.07421875,-0.8294107836570952,1.347396102153038
5.078125,-1.1643884885751299,1.0062847422403567
5.08203125,-0.40977899730394524,0.2891512849649867
5.0859375,-0.9457176589482574,0.2925287774283907
5.08984375,0.2900415126471994,0.37582247940401675
5.09375,-0.551245411912952,-1.103206476268915
5.09765625,-1.062871198799172,-0.29604288072480706
5.1015625,-0.6156080854674377,0.3776533631222067
5.10546875,-0.2708537840468289,0.7391315448758917
5.109375,0.31486902506023057,0.5587771165220976
5.11328125,-0.879666677286344,0.991247356816788
5.1171875,-0.23210234944953642,-0.2504581428542028
5.12109375,-0.08632972550699301,0.5760562270096647
5.125,-0.16357068765619906,-1.7134014642657103
5.12890625,0.45980923148111563,-0.08224501334404419
5.1328125,0.7805195781950998,-0.6400126631124002
5.13671875,0.035096291638447207,0.01821770159907414
5.140625,0.2620499747041063,-1.7890019409714948
5.14453125,0.984475455109787,-0.47071888205912454
5.1484375,1.8094940212562647,1.3835013149738693
5.15234375,-0.6041651103769018,0.3063756093115592
5.15625,-0.8640794819403299,0.7747761798604634
5.16015625,1.7863624516313268,0.6283386427698342
5.1640625,-0.07270537123993139,-1.0154922541253943
5.16796875,-1.7257639342208388,-0.4809948034207574
5.171875,-0.9475790002941044,-0.9289225724323067
5.17578125,-0.6371194432811642,-1.0408660674322705
5.1796875,1.702632179251554,-1.5762927920060479
5.18359375,-0.795772500875365,-0.11554794031917734
5.1875,-0.5271084749268107,0.61933617099544
5.19140625,1.0341255592028105,1.015510744889324
5.1953125,1.1286697773460732,-0.06335799901162947
5.19921875,-0.5979891776056541,-0.10789536688436664
5.203125,-1.3904362958147665,-2.0358236922861397
5.20703125,-0.05360130956271449,1.6431158241492707
5.2109375,0.4293536686480011,0.1624068891094147
5.21484375,-1.1048251153162598,0.9701588516606384
5.21875,-1.2867876945266636,0.7620439843558799
5.22265625,0.9067365713868112,0.493416655275792
5.2265625,-0.3762334703237039,-0.5282078044549788
5.23046875,-0.38971816988262925,-1.5590124064213864
5.234375,-0.22865416636217337,1.1246838178658178
5.23828125,-0.011733272388611719,-0.9000696944205815
5.2421875,-0.15795639112360477,-0.13785043270619937
5.24609375,0.9176710845925149,-2.6819164816076557
5.25,-1.7210946337996398,1.0687767813328475
5.25390625,0.46008578694394137,-0.589025924365086
5.2578125,-0.49520756132828353,0.8152372841449249
5.26171875,0.6308478143144002,1.153126581009805
5.265625,0.7498520492551402,-1.0640358568274975
5.26953125,0.059906897847971534,-0.2273806456510267
5.2734375,1.7446454393159623,0.20389209630849073
5.27734375,0.2707930797953591,0.07072581887364797
5.28125,1.0105270620681466,-0.3048747723255392
5.28515625,-0.44708647155556414,-0.12004716343786304
5.2890625,0.48422394476326,-1.7864357454713575
5.29296875,0.4753750046514288,0.7884674767193152
5.296875,-1.2247765898246719,-0.42149276384777806
5.30078125,0.3684463117103665,0.8149905046379535
5.3046875,0.24069511076008962,0.20888117193949324
5.30859375,0.24277042840743193,-0.2670231137573803
5.3125,1.373566564306587,-2.207190521909331
5.31640625,-1.5525006157506924,1.6772357477135236
5.3203125,-0.5409205339415157,1.017201181964833
5.32421875,-0.04921619463474815,0.7407751823075472
5.328125,0.9734315067943662,0.19287815469955058
5.33203125,0.9932668992601823,-1.2453396232545366
5.3359375,-1.4942028236385965,-0.2760506085116629
5.33984375,0.9024665747172554,-0.11681675450605372
5.34375,0.9982818914565211,-0.6737719033262084
5.34765625,0.20217281086624272,-1.4925210507438853
5.3515625,1.2629911184027076,0.43587846728286167
5.35546875,-0.22534347514913727,2.225268416940203
5.359375,0.10737169283014235,1.0244407319361033
5.36328125,0.8347442764154082,-0.3857317054195124
5.3671875,0.2088331515183778,-0.14659548448484994
5.37109375,-0.07449633167704839,-0.3717609250235971
5.375,-0.8942514420894392,-1.4229087515886758
5.37890625,0.4883790088084962,-1.1404924879697091
5.3828125,1.453119528273834,1.1021188009143237
5.38671875,0.6421020714572251,-0.9338471381800214
5.390625,-0.49774006946065397,0.5532993540054199
5.39453125,-0.7438909742811236,-0.15235867173266487
5.3984375,-0.1341619386535959,-1.2994439647268385
5.40234375,-1.837165716969663,0.03647547943466334
5.40625,-0.4173609572898508,0.4826808764275551
5.41015625,-0.6586486293557192,1.0979875848506604
5.4140625,0.7517394309540629,0.9374506515689519
5.41796875,-0.4372701220340459,0.65031801652966
5.421875,-0.43086599488426813,-1.9214101870756655
5.42578125,-1.2345714210021483,-0.43225815243152954
5.4296875,1.0870853273023877,-0.06781378819602459
5.43359375,0.4510317821341444,2.112200679144921
5.4375,-1.3169479588947781,0.4441779576317141
5.44140625,-0.09854216290872676,-2.11319554178875
5.4453125,-0.6374387858321144,0.7698750458070447
5.44921875,-0.22299198101447437,0.6535662883778798
5.453125,0.4603883807944011,0.9707602581847888
5.45703125,0.632888134611172,-0.1512635409104978
5.4609375,-0.49015682380940867,0.8566579550163388
5.46484375,1.4404359105298594,-1.6087004338221353
5.46875,1.0564641102496877,0.9703904230026258
5.47265625,0.18394066112971771,-0.2565622488949274
5.4765625,0.5631114274847143,-1.053526266486077
5.48046875,0.11737424921917507,0.5390774866198148
5.484375,1.3363865568575233,-0.5225803545160547
5.48828125,0.1611480379961382,-0.8479770720918449
5.4921875,0.12875638770330367,-0.40338138496299963
5.49609375,-0.670215781791919,-0.9851738925050361
5.5,-0.28547483323909817,1.2475288506701616
5.50390625,-0.3256056537213951,0.18311394533035702
5.5078125,-0.1978994147865674,0.627827804121726
5.51171875,-0.5006170630033642,-0.9194663893354728
5.515625,1.137763860027621,0.15870240791841117
5.51953125,-1.1681390956656144,-0.792391251087594
5.5234375,-1.2000914417613207,-0.5872969757132972
5.52734375,-0.8769815914006706,0.356590832770364
5.53125,0.2876590541814327,-0.5184970158925045
5.53515625,0.3903657946088309,-0.1239662412190789
5.5390625,-0.21502952085037227,-0.07461853609367046
5.54296875,-0.7962223117528497,-1.1548396250027058
5.546875,-0.767519344857787,-0.6593462555548485
5.55078125,-0.2925659523965895,-0.7168025749706979
5.5546875,1.3842920641135739,0.5346904733459357
5.55859375,1.1431698417767093,1.1673748347338957
5.5625,1.154803852628584,2.4200261970732977
5.56640625,1.1316543141086661,0.5141153800939224
5.5703125,-0.3080863616484542,1.0632933477109079
5.57421875,0.583980777283362,-1.8644204876296435
5.578125,0.32328504897031207,1.0109142492841439
5.58203125,-0.3625237083436191,-0.49179069153208016
5.5859375,0.8886843740634109,-0.015325115882066294
5.58984375,-0.04216410951280817,1.9577342639923156
5.59375,0.7676276173255516,1.4946179644225033
5.59765625,0.16415437411234973,1.0187863576094638
5.6015625,0.34706355418509577,0.5094716557784902
5.60546875,-0.3635921011967267,0.39634026342996403
5.609375,-0.9703825945122724,-0.2138986848192636
5.61328125,-2.0911778275694695,-1.7004909925729388
5.6171875,-0.008050135495170604,-0.4374261004457598
5.62109375,0.01103344509152525,1.1465519203249581
5.625,1.3728026232991741,0.3810231716102647
5.62890625,-0.3401544844728488,0.06434745634652082
5.6328125,1.164348375185795,-1.0123035067717554
5.63671875,0.6027556473615046,0.15325498424109238
5.640625,-0.11609634408718374,0.207841038209401
5.64453125,0.09971181264552736,2.810098297050371
5.6484375,-0.07133972092930498,-0.5105778258914783
5.65234375,-0.2799009852758761,-0.4488962354851693
5.65625,0.8388251279223343,1.5632189011402824
5.66015625,0.06880004142514079,-0.013204227127090596
5.6640625,-0.5645197574226332,-0.7043032705225608
5.66796875,-1.881529774980215,1.1921371163876704
5.671875,0.6544225134732068,-0.6865995162382996
5.67578125,0.4033221283270383,1.9658210413694825
5.6796875,-0.5237084457569087,0.09767589734170153
5.68359375,1.4867985156378387,-0.9294859633905869
5.6875,0.38492877742921816,-2.753914164652768
5.69140625,-0.8721206323211514,0.14763785510758984
5.6953125,-0.6041579252910679,-2.797222967173012
5.69921875,-1.5341145298423824,1.142324867329419
5.703125,0.5613059494885421,0.012957980086327444
5.70703125,-0.25257806583703524,0.7520416536218899
5.7109375,0.192315674566119,1.7994832807873022
5.71484375,-0.28760143136892,0.38843509091899886
5.71875,0.3913470701463297,0.5006758747852091
5.72265625,0.8859763589851571,-0.2335905024243543
5.7265625,1.3442930956061365,1.0418880753542272
5.73046875,-0.4221937175185059,-0.09055367786848145
5.734375,-0.8471838932986051,-1.544147183060163
5.73828125,-0.5013243990352887,-1.0313457967152426
5.7421875,1.9115805517589222,-0.5736602151074082
5.74609375,-0.11667888996117783,-0.44680027851335263
5.75,-0.17857697103693707,0.815885224396277
5.75390625,-0.8815346523323223,0.30986189743534404
5.7578125,-0.4776905574948252,-1.361047228686268
5.76171875,-0.14717433848210515,0.8903978557060322
5.765625,0.6552187992504879,-0.7620873391892311
5.76953125,-0.6221781480560287,0.16801020314380438
5.7734375,-0.5302385722063395,2.644980479546096
5.77734375,-0.2812583801790603,-0.49106279710138717
5.78125,-0.6749852517493273,0.21178366521769493
5.78515625,-0.446383777991052,-0.8397642212153017
5.7890625,-0.15060870341615634,0.77684012672473
5.79296875,2.533746997890656,1.9133526815313562
5.796875,1.6134175666870363,0.10510406542929743
5.80078125,-0.023645935606416316,0.34352896389153503
5.8046875,-1.077923563937601,-1.1727586876320446
5.80859375,-0.5329600393275419,-0.6752912513712499
5.8125,-0.18180197473893261,-3.349020850369902
5.81640625,0.1965573076135075,0.2069736565738221
5.8203125,0.7876368793079622,-0.859443904631544
5.82421875,-0.24798375837649742,-0.6461325226531014
5.828125,0.4426140670458936,-0.5002898562536435
5.83203125,0.5573173909983947,-0.07197211315391532
5.8359375,-0.258086493787503,0.5754838354290427
5.83984375,-0.120291494156309,-0.7448022472458189
5.84375,-1.7754543948994952,-0.6063179645951446
5.84765625,1.277576876512112,-1.3623716855294175
5.8515625,0.5338099926157288,0.4842525152423868
5.85546875,-0.42626951420193104,0.5284238933854944
5.859375,0.3310213757433372,-0.5083208193056624
5.86328125,0.5633623052974867,1.6145824257332244
5.8671875,-1.1860070404283396,-0.8333560212136574
5.87109375,-0.5420679195017227,-0.7980275898040932
5.875,-1.5984429206787223,0.4248186708895952
5.87890625,0.6322595502523722,0.9258659657942099
5.8828125,0.4753259648543656,2.0443345491200375
5.88671875,-0.52971827736243,0.7830740312897931
5.890625,-0.49093786190822847,0.5371632322264636
5.89453125,-0.9143608204988658,-1.688625103450364
5.8984375,-2.113732513803244,0.18047560107032062
5.90234375,-1.268011798750642,0.3554381518670473
5.90625,0.2768646722923742,2.96864051957025
5.91015625,-1.1568177720303587,-0.9085217807886413
5.9140625,-1.0417566491142556,0.21211756831729806
5.91796875,-1.4278552494181096,-0.2735461362626373
5.921875,1.173357499755879,-0.2553247755861302
5.92578125,2.4858670179983604,0.4572098111751407
5.9296875,-1.2514827133693092,0.1364613509000499
5.93359375,-1.4220641599683674,0.3669346527320049
5.9375,0.3064644669920409,-0.41338272232947976
5.94140625,0.5400933846283948,0.05937675754423948
5.9453125,1.405578048103926,-1.6414871098392776
5.94921875,-0.6280143044792426,1.4445257255480874
5.953125,0.8136295451973928,1.0784544088025447
5.95703125,1.5828357291803483,-1.1751837343083025
5.9609375,0.2138125943232143,1.1180362175815486
5.96484375,1.4968581677276902,0.2809517108366652
5.96875,-0.5722673571028026,-0.4161893954965262
5.97265625,-1.4863895670546505,0.4279017044360856
5.9765625,-0.3508214078220614,0.8878119361993695
5.98046875,-0.8542128855984765,0.808231476154506
5.984375,0.11404077119396534,-1.2159638948076237
5.98828125,0.3738683693496099,-2.3291504505976137
5.9921875,-1.5372445205542025,-1.4345314758772136
5.99609375,-0.291552190693256,-0.06730327724083884
6.0,-0.05791953386284314,-1.1663585454876217
6.00390625,-0.9254420474075893,0.5414636166433882
6.0078125,1.006909103734549,-0.3922498103287113
6.01171875,0.21233579839251557,-0.5535005099001401
6.015625,-1.0084739360542951,0.4400718352473766
6.01953125,0.23940613813711645,-0.4159472317052582
6.0234375,-0.4049369730403602,-0.8539976407770308
6.02734375,-0.24723863263550822,-1.915238653243153
6.03125,-1.2045004774993637,1.796299813276489
6.03515625,-0.35618936847275723,1.2166400290167025
6.0390625,0.12046790650148743,-0.3213219666819435
6.04296875,0.8479618586250116,-0.7775549806994393
6.046875,0.3155845381448693,2.8353025799886398
6.05078125,-0.38345187843346695,-0.42549193057069684
6.0546875,-0.1834549444382925,0.026877311116248772
6.05859375,-1.101921348554955,-0.8536336363472848
6.0625,0.657138694163435,1.0201634790700551
6.06640625,0.6040455180030501,-0.6191972564634723
6.0703125,-0.1768163467449335,0.4304232231932203
6.07421875,0.7960276904451421,-0.0529646052749316
6.078125,0.1325264629909632,-0.6871654713316451
6.08203125,-0.8767324305912805,-1.2514922103225867
6.0859375,0.565724087774662,0.5901102622577714
6.08984375,0.7901661412787494,-1.4946009524541697
6.09375,0.1127991805578093,0.9889033444474612
6.09765625,-1.4541654606660575,1.4010873899233443
6.1015625,0.13068535918019916,-0.934223304197287
6.10546875,0.33714593944294907,1.26040081696269
6.109375,-0.12477261835269235,0.9504199687057745
6.11328125,0.9183135362013293,0.3884635077304388
6.1171875,-0.8208143043410948,-0.4672086191817397
6.12109375,1.1702219317830325,1.3397501553475013
6.125,-0.4246405615874558,0.5855606140920162
6.12890625,-0.7160070586538675,0.5296453323780156
6.1328125,-0.2989037758470004,0.2796297192307174
6.13671875,-1.0521174895932706,0.42495121500695615
6.140625,-0.13604582168289037,0.3636013551623356
6.14453125,0.553746753933444,1.5148277262971828
6.1484375,0.40807279944740205,-1.595104074064053
6.15234375,-0.05366520788467536,0.029677905787154315
6.15625,-0.013902014277459475,1.7766333593162966
6.16015625,0.7803852618802507,-1.525328159826387
6.1640625,0.4716913819529297,1.269294870289673
6.16796875,0.677069193510176,-0.09851303956770213
6.171875,-2.5052493978286603,0.3350106728428937
6.17578125,0.3833395157468924,-1.9186211678748752
6.1796875,0.016504618504724358,-1.2066586589533828
6.18359375,1.159711080886152,1.5193843306508454
6.1875,1.0298615785583238,2.132321811648039
6.19140625,0.05420315716513606,-0.4530999421900376
6.1953125,-1.1200880581894244,-0.5404094948764863
6.19921875,-1.7737991271514244,-0.36354031466699827
6.203125,-0.05873019235059801,-0.5016087930570288
6.20703125,1.32678177455846,0.039854590353841944
6.2109375,0.9375056076119842,-2.4853747979368492
6.21484375,-0.8539769711068919,0.4041022821742961
6.21875,-1.0153646565277339,1.045629282593729
6.22265625,1.4866627334292726,0.8478468529831297
6.2265625,0.9598214478137986,1.1126031238409608
6.23046875,1.2889325868720902,0.388725906927297
6.234375,0.1214974607935787,0.1820170299213226
6.23828125,-0.08581891027885762,-0.1716008310090846
6.2421875,1.155887537925272,-0.23147451603476255
6.24609375,0.697169271459557,-0.38477545774992755
6.25,-0.29120165738742654,-1.301799345682677
6.25390625,0.9373258430204792,-1.409377156960175
6.2578125,-1.1791214198289293,-0.5885690136198276
6.26171875,-0.6907969405971701,-0.9095931645905707
6.265625,-0.9188174366043478,1.157113984245812
6.26953125,-1.4088523642049642,0.005080980388719806
6.2734375,-0.5073802090138275,0.030028467120198923
6.27734375,-0.5763628577347221,-0.29149518827312554
6.28125,1.1963344779437357,0.7372481030879121
6.28515625,1.6853738660445434,0.8273180632412879
6.2890625,0.13120314475657902,-1.9947519177481445
6.29296875,-1.88421277873656,-1.1409040732407165
6.296875,-0.5804493632249784,0.657231440141171
6.30078125,-0.2333563982954758,0.04326170002489828
6.3046875,-0.6996234688332313,-0.7445959128853462
6.30859375,0.1317954941512522,0.26805639325746133
6.3125,0.2275930640731365,-1.6884995130442895
6.31640625,-0.1516519144692787,1.1799683937849348
6.3203125,0.001421072583577454,-0.15311492324867218
6.32421875,0.8342277648401618,-0.35515997453907916
6.328125,-1.737677696572788,-0.01893180835290376
6.33203125,-0.11514086081860313,-0.6910172108268281
6.3359375,-0.07090185522269464,-0.8557478098355643
6.33984375,-1.0092398737619392,1.5325135319840935
6.34375,1.1264152004671735,-1.4757711850447457
6.34765625,1.3947788724643941,1.6822819956528086
6.3515625,-0.8993111310959987,-0.21988400563585073
6.35546875,-0.7769287855014737,-0.8018663167522673
6.359375,0.7433710110252474,0.1959761211070259
6.36328125,1.4495627345250013,-0.4170764065419893
6.3671875,0.0032193066039359975,-0.25245609192012325
6.37109375,-0.2668104239486906,0.6346506838304119
6.375,-0.2299303284284483,0.9823494176016971
6.37890625,0.29991828183782465,0.9157606419301022
6.3828125,0.04986605162834351,0.009022528869036126
6.38671875,1.1451648267234458,1.9725671249090477
6.390625,0.6045016061669598,1.8507575739951436
6.39453125,-0.36809623851795764,-0.8322057250537508
6.3984375,-0.6322187956583081,-0.7145546781645753
6.40234375,-0.7866876066501569,0.49398839207603135
6.40625,-1.814952990493684,0.9969356146223907
6.41015625,0.4602557794264524,-0.9797949075360493
6.4140625,1.4169095561789007,2.248616188748284
6.41796875,-1.5784933869543794,0.10551436605379197
6.421875,0.5508643448572732,-0.3807136255753632
6.42578125,-2.211083198559975,0.7194906349409051
6.4296875,0.2891761143904689,-1.4680498855442006
6.43359375,0.028819460210455186,1.5533926764752561
6.4375,0.7736149497216287,-0.2991283643242332
6.44140625,1.3043237286105507,-1.5577941039768297
6.4453125,0.8530230839123462,0.9266035065976691
6.44921875,1.6235003847706753,-0.45138436249388947
6.453125,-0.11305186482095225,-0.4883114006469789
6.45703125,0.5526661080161926,-0.45960266903498387
6.4609375,-0.7928115177869348,-0.4420112122450306
6.46484375,2.3258899146049217,2.443930664270488
6.46875,-0.11234968785198782,0.08980483323217348
6.47265625,-0.979874780809597,0.5624909876081479
6.4765625,-1.134623150515632,2.1757577283419782
6.48046875,-0.7472945051609833,1.2840601653985904
6.484375,0.9103825949674991,0.7441748137378633
6.48828125,-1.190145743086646,1.624507760057559
6.4921875,-1.2247429983932376,1.259928078504994
6.49609375,0.9024156132242513,1.5402105499868217
6.5,0.8474984061741689,-0.1559758516276965
6.50390625,-0.04358105332170773,-0.6580483265135408
6.5078125,0.5506556620103922,0.9288338775235951
6.51171875,0.22958640356560944,0.6792807627617403
6.515625,-0.8035768282199472,0.3391858114632947
6.51953125,-0.6190175732953414,1.0335213001704644
6.5234375,-0.045121069935607355,-0.8429846977555094
6.52734375,-1.6026714260323913,0.8800664272589165
6.53125,0.2016013468975406,-1.6474413799869396
6.53515625,-0.3047021292699575,-1.5834214873188692
6.5390625,0.5027871475469577,-1.1572431780716104
6.54296875,2.3131543710436966,1.2949120525013667
6.546875,0.7233547751195034,-1.6009510668209468
6.55078125,1.8471484981548494,-0.20102998657191584
6.5546875,1.2582177726580708,0.6812698988330357
6.55859375,0.6704282711761146,1.5752675124435196
6.5625,-0.8690938469645427,0.8885670317613497
6.56640625,-1.592124668815816,0.4092137998947283
6.5703125,0.290835963301577,1.5719206633106455
6.57421875,-1.3393919849976623,-0.3735394366091648
6.578125,-0.2104699435283882,0.9695442611106989
6.58203125,-0.6917730600371468,0.5173367840362375
6.5859375,0.3401811360795158,-1.2340984419533405
6.58984375,-2.0218435886856643,1.0798879122862242
6.59375,-0.05481863293714393,0.7119197710000572
6.59765625,-0.998439299345508,1.3738957698864507
6.6015625,-1.3476404029383775,-0.6052221072715634
6.60546875,0.042490764767900015,0.12284121502570979
6.609375,-0.6889097606377841,0.2660250353343107
6.61328125,-0.2578590290370631,-1.1226294954968445
6.6171875,0.26749276476779743,-1.638098303605164
6.62109375,1.7810595003585148,-1.1474624935306552
6.625,1.3433982025828892,-0.6419572882463811
6.62890625,-0.7680435365937647,-1.630540402749185
6.6328125,-0.044673754955745604,-2.2506299514500423
6.63671875,0.7762825093731524,-0.17933414383241744
6.640625,0.7472457729332023,1.1556166497594889
6.64453125,1.0384588789023854,0.1359680184433486
6.6484375,0.8645518884583642,0.1096436306936023
6.65234375,1.6271707718179942,-1.1633099296097558
6.65625,0.9561119712000394,0.4498968802797412
6.66015625,-1.9428393940585187,-0.4340913063711367
6.6640625,-1.4948248046701988,0.2714412275230458
6.66796875,-0.5353006850642194,0.7923338936666042
6.671875,-0.7759226629679195,-0.3040081450392217
6.67578125,-0.053751506398781644,-1.409541280656754
6.6796875,-1.3930907986602503,-0.24994563418351404
6.68359375,0.005425351762493377,1.0680245081022368
6.6875,-0.12853649149979346,0.37885416775499964
6.69140625,-0.41261143284729884,0.03570057947769346
6.6953125,0.16161138455239824,-0.3688771884578017
6.69921875,0.9488342322873436,0.1524671232646315
6.703125,-0.8286449620134139,-0.07579075154925533
6.70703125,2.2514789654316547,1.2396947996565566
6.7109375,0.07321377441376377,-0.8901278980521258
6.71484375,-1.3447662515995977,0.940301450815645
6.71875,-0.9424825033096335,-2.5535605391019636
6.72265625,0.4970471506050619,1.0144305133538463
6.7265625,-0.3650400102847355,-0.9101503469045162
6.73046875,1.269575461450204,0.1144491287593234
6.734375,-1.051473181247262,0.3796840012157729
6.73828125,-0.04853882472198485,0.11185516202356664
6.7421875,0.15798384799958273,1.2504366356160557
6.74609375,1.7310194494077817,-0.18440946325718705
6.75,1.2905445610294346,0.2199814065305909
6.75390625,-0.9665960421394998,1.2857209182586298
6.7578125,-1.352983732150019,-0.1536020876370293
6.76171875,0.8409141224684619,1.2284994927624504
6.765625,0.1097965273469807,-1.512231110998682
6.76953125,0.14515250851263495,0.38288002342149774
6.7734375,-2.021738345770908,-0.8633646941561118
6.77734375,0.6553296824996706,-0.01274059097452358
6.78125,-0.2938758980415215,0.64144727376669
6.78515625,1.2627665093186264,-0.720519454606621
6.7890625,0.33893958447258227,-1.2280233401238108
6.79296875,0.884723970545226,-1.4408892862940381
6.796875,0.7106535340846815,1.4183785399008066
6.80078125,1.9966418930701355,1.4784777690845563
6.8046875,-0.803619108106959,-1.0071392788082114
6.80859375,-1.4490176104760968,-0.06549990213635033
6.8125,1.1505301335980223,-0.7051663293961894
6.81640625,0.5283528352661543,0.08057880544729958
6.8203125,-1.4574119049735286,0.35520773947974804
6.82421875,1.388973738157436,1.4996243732376602
6.828125,-0.16567359968574943,-0.9426028698947349
6.83203125,0.5291729247445591,0.1995808492519972
6.8359375,0.8076947428884035,0.49153879655177457
6.83984375,1.6254286184113342,-0.29965230931981723
6.84375,1.7996265442303456,0.016131082875825615
6.84765625,-0.2806652945614699,-1.1731333030120428
6.8515625,-1.0255755528749728,-0.23518098304820487
6.85546875,-0.5467379272189209,-2.9401237298247316
6.859375,-0.30069271574884265,-0.39377469938893644
6.86328125,1.0376140985869262,0.5084385442717203
6.8671875,-0.3123628037955242,0.4848051805640491
6.87109375,-0.7236330323074851,0.6744920518337082
6.875,-0.1563279850676482,1.043792487407084
6.87890625,0.03904955237046228,-0.7789397772994036
6.8828125,0.9218811016804214,-0.09985841448732695
6.88671875,-0.1676295703683018,0.006276734344982421
6.890625,-0.31169373745446705,-1.4079860572747869
6.89453125,-0.560021640809513,-1.3118247618803216
6.8984375,1.6318178870896964,0.13296174988545204
6.90234375,2.4105551548401913,1.046038179225533
6.90625,-0.7077844568709512,0.10566585392897827
6.91015625,2.001573508908304,0.3064935968348301
6.9140625,0.30532369778541946,-1.2583428749438794
6.91796875,0.2561963147165875,-0.646436934350801
6.921875,1.270049171102222,0.9045760901649875
6.92578125,-0.35627864983794116,-0.05501814558773443
6.9296875,-0.4427188647840927,0.16764730643189585
6.93359375,0.4574714409771254,0.27178229615822186
6.9375,-2.0887067614696946,-0.07454002956011423
6.94140625,-1.0773805991705003,-1.1761654302795284
6.9453125,-2.214793253212711,1.5506616275950504
6.94921875,-0.9172538083607947,-1.7573673844170437
6.953125,0.1004564899470937,0.7910456187753344
6.95703125,-1.1615072965943094,-1.1612315676185685
6.9609375,-1.1366285327742836,-0.33023942367740466
6.96484375,0.4498147392449434,-0.9852204843083884
6.96875,-0.10723496429753691,-0.378916392830669
6.97265625,0.5432492832717772,-0.05567777028322338
6.9765625,1.3106312290192506,1.2540337819888459
6.98046875,-0.6190036163306682,1.7312625740357048
6.984375,1.0935093447945103,0.7653605671458877
6.98828125,-0.46747412876401273,-0.010404111885285078
6.9921875,-1.9869216933178633,-1.377803187952312
6.99609375,-1.0689651803283136,1.5928346125933435
7.0,0.3020977886712191,-0.6170436401008939
7.00390625,1.8595538876408582,-1.7281680392416514
7.0078125,-0.24711777324712217,0.22651241740125336
7.01171875,1.009637515560679,-0.32361250115380835
7.015625,0.7678772539884225,0.48108200969779397
7.01953125,-0.9328366965974426,-0.9599010736284234
7.0234375,0.010008531150275448,0.9727393705311994
7.02734375,-0.4628253647678959,1.4343654261945156
7.03125,-1.2835564735559737,-1.6487131247664328
7.03515625,0.12824267719182889,0.6900868526909296
7.0390625,-1.9872624292049583,-0.29836529303053166
7.04296875,-1.1455410132889305,0.07838149880670636
7.046875,0.31799126543088957,-1.0765540996936445
7.05078125,0.39900472184335145,-0.1799852402484019
7.0546875,-0.8310612580973815,0.2770057012089857
7.05859375,-0.40912222557226924,-1.6476902256733252
7.0625,-1.1519576600307162,0.43882510832917637
7.06640625,1.5859508744653363,-0.4718184805601051
7.0703125,-0.6802697429709983,0.8466371740996285
7.07421875,-1.0853626250241493,0.2981077043026089
7.078125,-0.6107274380684811,-0.40440794647559486
7.08203125,-0.3328943583323182,-2.567833185993883
7.0859375,0.7126580439688985,0.29374123095928845
7.08984375,-2.7605189168744353,-0.07449717212843807
7.09375,-1.2411342299894779,-1.0257520986097057
7.09765625,0.4871092673036964,-0.17499043596409114
7.1015625,-0.6533750134221887,1.1628718951980845
7.10546875,-2.3627906130673115,1.5660022923567247
7.109375,0.7406025457968427,0.4218717138529484
7.11328125,-1.0524258537941609,0.8300394672106988
7.1171875,1.4096197263174197,-0.05887627115402232
7.12109375,-0.7942964759309433,0.20092802525862102
7.125,-1.7677022414072514,1.854007279060959
7.12890625,-0.5408314111061385,0.12700666826052162
7.1328125,2.2549205859001002,1.5641038501582132
7.13671875,0.5539280689119652,-1.0238748620784142
7.140625,-1.0953042446483636,-0.506367755656039
7.14453125,-0.3648805309810629,1.0605306957186016
7.1484375,-1.3254610957341384,0.9112934658569997
7.15234375,-0.36605038519475974,1.8646732337132663
7.15625,-0.6468161379292443,-0.6672712673509227
7.16015625,-0.2946502574227772,-1.6797586215513693
7.1640625,-0.18581035007453517,-0.15749204167858458
7.16796875,0.6784160656384886,-0.9492718074962081
7.171875,-0.0730282164167699,0.026348570298562073
7.17578125,0.05085776907534672,-0.04719594450386715
7.1796875,-1.0058046989574125,0.11995314663427702
7.18359375,0.1059162792053935,0.4582053610209241
7.1875,-0.28101645679737713,0.9880399013902588
7.19140625,1.8442943728809045,0.036390975283242824
7.1953125,0.34165897518587085,0.35266844598762404
7.19921875,-0.7154286187465944,-1.0058702611611923
7.203125,0.8805105057725364,0.8171075545419798
7.20703125,0.41579906201486533,-0.4736039944304836
7.2109375,0.8451121975663157,-0.8454469335796926
7.21484375,-1.5224350176588235,1.7988970356917493
7.21875,-0.1236954720477756,1.421228805595205
7.22265625,2.6741644835854115,1.110097674819914
7.2265625,1.8733159838736595,1.352780484129484
7.23046875,0.5019842853207085,1.4682702846216744
7.234375,1.3332291878230091,-1.6252525268320788
7.23828125,0.5496670100078712,1.2517816979879037
7.2421875,-2.150489085331309,-0.19471718272377556
7.24609375,-0.10591404661488388,0.6268653262290291
7.25,0.03229025584088839,0.6268406772962426
7.25390625,0.6720717546895003,-0.112998030736673
7.2578125,-0.5409573998072813,-1.3996889062717028
7.26171875,-0.01746925033292582,0.24904709874758035
7.265625,-2.2188833881230865,1.1637788192519847
7.26953125,-0.7152543275580199,0.03683101651970495
7.2734375,0.21257691600306564,-0.06920748756020818
7.27734375,-0.23099353263992,0.793265000436632
7.28125,0.05738047286775013,0.2656310579916525
7.28515625,1.0709124796734668,-0.374748166606191
7.2890625,2.6935815948197828,1.7623742995385254
7.29296875,-0.996589388538836,-1.5111646419371658
7.296875,0.14699100674298707,-1.83291735257142
7.30078125,-1.1869439434518387,1.1272336221427022
7.3046875,1.5969232872713062,1.5396336514279734
7.30859375,0.9995976267034743,0.4433655252784422
7.3125,-0.08516498815757513,-0.9023931542023329
7.31640625,-0.6223740547268536,1.226526639504134
7.3203125,1.9171759295463209,-0.3007089561467333
7.32421875,2.0664735120633164,-0.16064851494155838
7.328125,0.5083905738748092,1.6861223465530417
7.33203125,-1.1354854640612604,-1.4505735288960775
7.3359375,0.31476342874299373,-1.0792015186435007
7.33984375,-0.2222109008914382,-2.014545091962011
7.34375,0.3327528296201214,-0.24577674170887692
7.34765625,0.8177106708511548,-0.12402682316559709
7.3515625,0.9474924211552074,1.4634918097082743
7.35546875,0.6298289661977629,-0.4600500050464336
7.359375,-0.7268888017406469,0.49011137700647406
7.36328125,-0.5602397201207097,-0.09726049331116855
7.3671875,-0.609923265524743,-0.21323400961238803
7.37109375,0.14433103028803257,0.9836804301578681
7.375,0.14537683853494102,1.4190595519474478
7.37890625,1.0241019675498497,1.1627840622032006
7.3828125,0.6152178626846287,-0.6332205732222874
7.38671875,-0.4044658510078017,-0.3717536919719465
7.390625,-0.4451209331147908,-1.42092910222566
7.39453125,-0.5449359330011662,0.21193941372647035
7.3984375,-0.9678958358086959,0.33023772049556477
7.40234375,-0.007748728061430372,-1.0696778846146102
7.40625,-1.6210873205958578,-0.6702077036000182
7.41015625,-0.8006776376652704,-0.6961196959025019
7.4140625,-0.7728541211401206,-0.10023978477837861
7.41796875,0.7088810231307116,0.2530801676150035
7.421875,-1.2639251872201014,0.03061246518576592
7.42578125,-1.117809281744403,0.5870883157611031
7.4296875,0.8984388649754886,0.8104269086529462
7.43359375,0.08416077775514309,0.9140846450679303
7.4375,0.21932791496124784,-1.0388836991468018
7.44140625,0.7250401178445164,-1.09441705273642
7.4453125,0.9903782362241262,1.235818867845017
7.44921875,-0.8561677823600017,0.8781218151584482
7.453125,0.8389869357783635,-0.76748466548015
7.45703125,0.006805698279897436,-1.6415864184226088
7.4609375,0.008595318968076596,0.5522118451853678
7.46484375,-0.15133334121289438,1.5394224412118136
7.46875,0.7764327775361884,0.12939355867181507
7.47265625,0.3515603311507925,-0.8429661679860788
7.4765625,-0.712050003097649,-0.9607653654106145
7.48046875,0.27664683637892534,1.728496365470262
7.484375,0.6257805626641582,1.137705046608557
7.48828125,0.32933646197060645,-0.0755330690193756
7.4921875,0.1205933307114676,1.2722563207734117
7.49609375,-1.9725410218049837,-0.5454139223165706
7.5,1.0090624662644074,-1.2763263239293856
7.50390625,-0.2849510249810279,1.022474707425987
7.5078125,0.9620764474990708,-0.773313432330477
7.51171875,1.542120846101657,0.6431317700563163
7.515625,0.4501506400943705,-0.5452490965687024
7.51953125,0.6533280150399458,-0.8309105652353482
7.5234375,-0.8736440769768127,-0.12524371821665586
7.52734375,3.37220731798736,-0.5940277024044752
7.53125,1.3743177548718852,0.6444728545763665
7.53515625,-0.24276898163420346,1.2456872364455593
7.5390625,-1.8120183707705353,-0.6009976160759756
7.54296875,0.5818724740688667,-0.5885543382069715
7.546875,0.20729809779511818,-0.2785661172724825
7.55078125,0.6269510117813291,-1.7357637647882536
7.5546875,0.8037674420417139,1.004641371548917
7.55859375,-1.1800817430155872,-0.8218183444604995
7.5625,0.6127057624706252,1.854973997304012
7.56640625,-0.685836665751583,-0.5289106612739607
7.5703125,0.009558141212735063,-1.9834359854565198
7.57421875,1.586296712929523,-0.3999583856447921
7.578125,0.5779375652200169,1.305399828913842
7.58203125,0.6074882725047542,0.3018353377481899
7.5859375,2.1513844886749127,0.7173701656320188
7.58984375,1.140425462716563,-0.6252945823315476
7.59375,-0.6207369494977399,-1.0572681749355999
7.59765625,-1.109608380946578,1.458646724024534
7.6015625,2.374149985967256,0.9722231905627601
7.60546875,0.5725304955210395,0.5656334709131149
7.609375,-0.27403263853958215,-0.5869270989490152
7.61328125,-0.7774131509708455,-0.07291697555716736
7.6171875,0.21296812899416614,-0.19874012846351463
7.62109375,0.3723975359524095,2.786926024206579
7.625,2.8672561400183465,0.7876267365113462
7.62890625,-0.5597895648668495,0.04988321056584223
7.6328125,-0.9185151430942781,-1.2966058864409762
7.63671875,-0.595851546228971,1.199859919309968
7.640625,-0.16949415690926495,0.0549074764087763
7.64453125,-1.1353927428143527,0.6185580477378493
7.6484375,0.6623792017182789,-1.8382247154964653
7.65234375,0.9296946728060507,0.009988958809208727
7.65625,0.1835391896298043,-0.12667143174390644
7.66015625,1.0262420433776553,1.854028035192345
7.6640625,-1.7233775874090398,-1.4352141451451932
7.66796875,0.7056541834554861,1.2681784872335318
7.671875,-1.6401860203468157,-0.3613065547653125
7.67578125,-0.0065547347804691975,2.4694627849473876
7.6796875,1.0533939373664258,0.35211844157750727
7.68359375,-0.06909265412004828,0.31427393952606586
7.6875,0.194440813238245,0.35389449235185516
7.69140625,-0.6149976736868551,-1.625665461841318
7.6953125,1.1092222367873925,1.507946493167718
7.69921875,1.5517966623023545,-1.1283228972976418
7.703125,-1.0100500387572593,-0.22204685715581435
7.70703125,-0.5748247120328238,-1.2627721918461443
7.7109375,1.1274151725981816,-0.18536509946358315
7.71484375,-0.1272850354834964,0.6155810816038658
7.71875,2.754991867584485,0.39082409175522376
7.72265625,-1.2546377887186115,0.3067482189382808
7.7265625,-0.2898132712436847,0.20670531234176365
7.73046875,0.545169226391286,-1.3679420287774786
7.734375,-0.23279336175114143,0.718045433783861
7.73828125,0.3808381276221097,1.3157284748086568
7.7421875,-0.9162424548951132,-0.707345144546879
7.74609375,-0.14734901572141385,0.9067315194770404
7.75,0.7139240969973553,0.901896579172242
7.75390625,0.837197577982279,-1.1577377707888252
7.7578125,0.10774573300560385,-0.25444584527281977
7.76171875,-1.0478747296988236,-0.06093517541933039
7.765625,-1.2348392308666645,-0.33262964715743054
7.76953125,-0.5187764071325539,-2.1228761198353756
7.7734375,0.2992097282807853,0.10973327503127164
7.77734375,0.25977346641385196,-1.8017160938761618
7.78125,-0.8273432178744629,-0.45436260729071837
7.78515625,-0.05463930246945489,0.9933898896935794
7.7890625,-1.5740930071715877,1.3171983501599258
7.79296875,1.4362547943750723,0.020982289135960605
7.796875,-0.5084517483229298,0.555313823892572
7.80078125,0.3159232923634888,-0.8133201375004157
7.8046875,2.2411590062541884,0.6629299530819274
7.80859375,-0.23927483718950135,0.22638517134348224
7.8125,-1.9279805659275897,0.5981637086911501
7.81640625,-0.26823641539672055,-0.5414479825370938
7.8203125,-0.5468463625681892,-0.11682983838095215
7.82421875,0.9005379997680754,0.8979521428247383
7.828125,0.02622368548337997,1.3099093897283294
7.83203125,-0.2509165763172953,0.10830306810550262
7.8359375,0.4159485280655852,1.3468795295507767
7.83984375,-0.6225997115122928,-0.1632813116004173
7.84375,-1.3872966362994208,0.4439202143769057
7.84765625,-0.1812754511222909,-0.9495751590447116
7.8515625,0.19306579719098868,-1.4869425917001753
7.85546875,-0.06975512119509705,-1.1688154135493114
7.859375,0.12648576042399765,-0.10359190261565367
7.86328125,0.7249474594472188,-0.570381257759354
7.8671875,-1.6927138599154232,-0.5575449189292264
7.87109375,-1.5246647353206086,-0.0753155291469681
7.875,-0.2414576351908979,0.6726521511654211
7.87890625,-0.4758839259824252,-1.1354143500381677
7.8828125,-1.06406550476922,-0.39281354594419715
7.88671875,-0.6918388221279986,1.0481873232250631
7.890625,0.4898924972052605,1.5682223090606708
7.89453125,0.23226057957582874,-1.355712211965209
7.8984375,0.8906448449829829,0.9648833848651028
7.90234375,-1.8248711774980917,-0.1496297252642938
7.90625,1.5150778057244996,1.8557429744339344
7.91015625,-1.8723569194019318,0.771600668175731
7.9140625,0.05451411463427545,-0.6477134701631168
7.91796875,-0.5129464748514603,-0.9105082102121026
7.921875,0.757915830361075,-0.09684552018132263
7.92578125,0.5618789546965262,0.06889872776815824
7.9296875,-0.0762693984412863,0.017397290656730582
7.93359375,1.7372134148367064,0.3212323188311938
7.9375,-0.2369464354537473,-0.043423492619905725
7.94140625,-0.7332040212667231,0.13403426864714374
7.9453125,0.17905532286964015,-0.5363024192553364
7.94921875,-0.7602211798054134,-2.7533558587371227
7.953125,-0.9370218374103559,1.4361990107664693
7.95703125,1.2931654359005633,0.2202618164640826
7.9609375,1.7171873176549806,-1.5889530773602982
7.96484375,-0.588519246161045,-1.22190434897695
7.96875,-0.38729821026766403,-0.9722690897648457
7.97265625,0.47575697189847416,-0.013643971682483559
7.9765625,-0.5588637284616776,0.3152513739691916
7.98046875,-0.42470859595522537,-1.569682866586171
7.984375,0.7766035510491007,-0.06829623583118835
7.98828125,-0.3775788719045362,-1.3741386856147906
7.9921875,-0.286270194087362,-0.4030038541104315
7.99609375,0.3160031182872894,-0.6430659349389738
8.0,1.0370387255665932,3.5503223231263457
8.00390625,-1.7679942428058522,-1.3034343643317914
8.0078125,1.7749641516623713,-0.1750722573204108
8.01171875,0.6102810003530036,0.9059221239250607
8.015625,0.22770700107551398,-0.9711416882588301
8.01953125,1.4033270986184567,1.947015014286058
8.0234375,0.8762902314039124,-0.3938231537179924
8.02734375,1.1947896085353291,-0.040731858096207677
8.03125,0.6159812809539145,-1.4575173282446605
8.03515625,1.4839655353145744,0.0522154706171286
8.0390625,1.1090080484519473,-0.26084701762197277
8.04296875,-0.6472470627395662,0.13961295191503004
8.046875,-0.8391545972437383,-0.06392638440882045
8.05078125,0.027859725028025525,-0.47353021650325855
8.0546875,0.1584572252831635,1.3326408122638318
8.05859375,-2.219919619039926,-0.41732289907481035
8.0625,0.3339120636775705,0.03367816892512356
8.06640625,0.7653058011519537,-1.220024140469769
8.0703125,-0.6482189844612805,0.12860432691751694
8.07421875,0.053376109474890736,-0.7107193389345681
8.078125,-1.282758869918947,0.21122257394803218
8.08203125,-0.4768233652076013,0.7572281433663972
8.0859375,0.8984004046017303,-0.615007827576492
8.08984375,0.1745302817512056,-0.38413523265231897
8.09375,0.10953038582821192,0.5754181083045455
8.09765625,0.6143939638404092,-0.6568722083881573
8.1015625,-0.4729286293698059,-0.8132636203258478
8.10546875,-0.5829450673364668,1.2881989930900157
8.109375,0.6676263071595558,-0.15389195719945803
8.11328125,-0.08815970840021974,-1.3636250293922607
8.1171875,-0.4946344867525143,-0.07262536866446387
8.12109375,0.9545105288858046,0.5432426268393236
8.125,-0.3753982968672209,-0.6782926622036852
8.12890625,-0.4327952993353974,-0.17824999558166235
8.1328125,-1.2240835481616816,-1.5776806032767419
8.13671875,-0.3603602596194668,-0.15905495762623462
8.140625,0.10778033741864827,0.6640651548501757
8.14453125,0.5065039858075497,-1.3651415526381465
8.1484375,-1.0211343889292157,0.13712103604652787
8.15234375,-0.4746139541290939,0.5262125274510367
8.15625,0.16519657432889853,0.807977937320954
8.16015625,-0.2330624527363,-0.37203530326225437
8.1640625,-1.4496409179906742,-0.9656853132128205
8.16796875,-0.4324144806119072,-0.28708224617452516
8.171875,-0.03180662502473153,0.04600487207172962
8.17578125,-2.092693256112296,-0.19568392432737275
8.1796875,-0.39043814194427046,-0.7352581729492604
8.18359375,-1.379296894136544,-0.49200337849960457
8.1875,1.1065398233761548,-0.2522992775398814
8.19140625,1.3131330071249054,1.083025840016566
8.1953125,0.5350249735547149,0.8235709032157604
8.19921875,-1.3846479480042193,-0.23348633398550864
8.203125,-0.5292187786564353,2.0274178838655135
8.20703125,0.15218680048952676,-0.38835545152366047
8.2109375,0.03908965995927243,0.20527889039359232
8.21484375,0.7744615894745196,-0.566485526865156
8.21875,1.621053538374424,1.0200566527968011
8.22265625,-0.5997404032632728,-0.8132043854206367
8.2265625,0.36119230722971085,-0.3716432602516236
8.23046875,-1.8253960529727982,0.45926465530537985
8.234375,-1.3333534925660613,-0.5430178723593806
8.23828125,-1.030933380759137,-0.7475394014038786
8.2421875,0.2053561163149144,1.2754153467570755
8.24609375,1.080458446492445,-0.9810204422547447
8.25,1.0745053424609359,-1.298564380261263
8.25390625,1.1968564624827986,1.68310757496615
8.2578125,-0.7868086913058558,0.5772122835296918
8.26171875,0.6181685901683244,1.1124661483276672
8.265625,-0.9093174247171303,0.128832854522497
8.26953125,0.8400601043240223,0.24904600972264057
8.2734375,-0.6750907212587197,0.9013528441569775
8.27734375,-0.42321722926778926,0.31081289248535404
8.28125,0.31268899869424266,-1.1968748560561198
8.28515625,0.1063290067214765,-0.21918986797001785
8.2890625,-0.9378795490005082,-0.6206618536431732
8.29296875,-1.3828025039572553,0.8091841513768455
8.296875,0.022620261164667366,-0.6195893168027252
8.30078125,-0.19483134214833156,0.19936877542356435
8.3046875,0.18497514319486924,-0.9749442517810197
8.30859375,0.03961198418420445,0.28764664204035983
8.3125,0.16728477659513644,-1.2316812393339995
8.31640625,-0.36090305707536025,-1.898972916560408
8.3203125,0.36050925831441005,-0.6373629661185553
8.32421875,-1.1600460795881464,0.5382813625360078
8.328125,0.22572304372912316,-2.1619184406906764
8.33203125,-2.151954794731475,3.0546820343165684
8.3359375,1.1433905704073595,0.3422594485369717
8.33984375,0.3399171672825557,1.0583780556171616
8.34375,0.7855002369492482,-2.0173672657488235
8.34765625,1.0614952703254805,-0.6444640736818826
8.3515625,-0.47087715696253535,0.23020136825941803
8.35546875,-0.5639534292815994,0.4336812122985802
8.359375,-1.519814542657857,-1.1673329223303153
8.36328125,-0.9518407436175401,0.43913303184803326
8.3671875,-0.5552814522549391,1.3880867192753774
8.37109375,-0.3632345953876321,1.5436859958973352
8.375,-0.35056016908302184,1.8890807293753498
8.37890625,-0.258071948179133,-0.49012500320071384
8.3828125,-0.7359533628433211,-1.5902790361817996
8.38671875,0.7041026326339295,0.2779361191907083
8.390625,-1.6993965694188586,-1.6218020492314078
8.39453125,1.0676394673243588,2.265434361669986
8.3984375,0.008274809501535687,-0.6648753384440678
8.40234375,-0.8818008190535354,-0.08690725917835312
8.40625,1.4395600963693098,-1.183754175066777
8.41015625,0.3185465129374173,-0.8854689379968826
8.4140625,0.6351372284173445,0.800539753803295
8.41796875,0.41501580516487285,0.1513576995465741
8.421875,-0.2600457824392928,-1.6379606810152862
8.42578125,-0.23880511957476375,-2.951829860107778
8.4296875,3.0718284480073073,-0.3319059192805714
8.43359375,-0.5950995558245221,1.6208654174066741
8.4375,0.9658769666673559,0.06389580692324746
8.44140625,-0.42651246836221374,1.2251873264610305
8.4453125,-1.3319166544411263,1.1050865420252447
8.44921875,1.3090483298884776,-0.8577822005514882
8.453125,0.4616319281662254,-0.5925618534633913
8.45703125,-0.12247605782084264,0.07436090342977246
8.4609375,-1.0022110813630016,-0.6930440168588531
8.46484375,-0.31226576332792627,1.942142945849299
8.46875,-1.2480683356303615,-0.1902433446750591
8.47265625,-1.1710334943504264,0.7088793452430184
8.4765625,0.9671927028696908,0.67412541187403
8.48046875,-1.1788894527841691,-1.5507192493054265
8.484375,2.3780316676408284,0.2678834455089713
8.48828125,-0.9055601820652954,1.3652169076110399
8.4921875,-1.3565656684294347,0.2224011297327373
8.49609375,0.27387946909336147,1.5795636166273948
8.5,-0.6152206750240728,-0.9381914327619648
8.50390625,0.053791694045639056,0.07883969768338814
8.5078125,-2.422066327673577,-1.2724272364109852
8.51171875,-0.4906979628606099,-0.07485895672922158
8.515625,1.3115715110834671,-1.1958610287478408
8.51953125,-0.13822636305521374,-0.4555120060337904
8.5234375,0.2402078506173937,1.3332759084588348
8.52734375,0.7173842513096469,-0.23705000797570955
8.53125,-0.5432214992622696,1.194678355349394
8.53515625,0.5618102086576295,0.2760733897093428
8.5390625,-0.08428359313801596,-0.5859688374562309
8.54296875,0.10709293524196005,0.5580072223502761
8.546875,1.3059142105169517,-0.5740438166800654
8.55078125,-0.65188792162258,1.079863758275679
8.5546875,0.1967574670027793,0.9111087187378447
8.55859375,-0.8023148083855508,1.169929678809692
8.5625,1.7855680570674117,-2.012796511637727
8.56640625,1.0116273356319563,-0.34832493435191175
8.5703125,0.03911602251233455,0.2895109573694578
8.57421875,-0.3614933869689239,-0.4989590463353351
8.578125,1.647076889860507,1.3834916445218923
8.58203125,0.3735399563298,1.3991041227540892
8.5859375,-1.77586625259081,-0.16619844253968274
8.58984375,0.06573958813441123,-0.8123010002765669
8.59375,0.39391848259988077,-1.5776333853708464
8.59765625,-0.5683109214416074,-1.5373232769771747
8.6015625,-0.8228286562145642,0.18070026609682893
8.60546875,-0.6882734333250972,-0.237540538778376
8.609375,0.37410583173823264,1.623060280380605
8.61328125,-1.1392536994596625,-0.2999804128751094
8.6171875,0.37539667409254507,-0.74385709946475
8.62109375,-0.10557487134870264,1.2915503926450256
8.625,0.29535646550160566,-0.757198877523719
8.62890625,0.8147577711908791,-1.799796938169555
8.6328125,-1.668529759225799,-0.45546036354790886
8.63671875,-1.3347211593812376,-1.6994569501521575
8.640625,-0.34625011847248427,-1.8903950279188995
8.64453125,1.5123603648162554,-0.011791112189282622
8.6484375,2.4829600382586485,0.6194034778665531
8.65234375,1.8211132603890776,0.2643422938611989
8.65625,0.2730410164621834,-0.522528953383785
8.66015625,1.4022979115184644,-0.862285487956623
8.6640625,0.38046480832511265,0.39664867940840015
8.66796875,0.7139731334640204,0.8325038928467068
8.671875,1.2940737770028705,0.6649425011676813
8.67578125,0.48514614141324647,-0.9391981477333643
8.6796875,-0.07636926735385523,-1.431288500582652
8.68359375,-0.1381552084856641,-1.2517202372747493
8.6875,-0.7855880165734338,0.2703044209033178
8.69140625,0.738552860297007,-0.5684343143960512
8.6953125,-2.461491149034414,-0.7607523589736161
8.69921875,0.4326698051303174,-1.058495875092294
8.703125,1.5202919978085225,0.39638203876105305
8.70703125,-0.22671798618227038,-1.48148329715439
8.7109375,-0.49978876807930517,-0.9304714097981311
8.71484375,-1.1305791478399134,0.7344396854601966
8.71875,-0.768625520203645,0.298562234138764
8.72265625,-1.2304593680816185,1.2776890741580471
8.7265625,-0.2425817620495135,-0.5243320221718853
8.73046875,0.06307861450586358,-1.4349167228618347
8.734375,-0.7156369390053618,-0.46122042358265625
8.73828125,-1.0901389158475472,-0.5666318209280697
8.7421875,-0.12535534729006048,-1.6392538347773475
8.74609375,1.0016611389685668,-0.4916389523461368
8.75,-1.0746040066234077,0.2355424833285512
8.75390625,-0.11805922853942338,-0.880867224649854
8.7578125,0.4292911353868476,0.10417618126597335
8.76171875,1.178330977378327,-0.2349067980457243
8.765625,1.036192692459463,0.5386087322796215
8.76953125,0.7886472141453342,-0.09765084152745142
8.7734375,-0.3363252537071811,-0.37199595091748494
8.77734375,0.7200398521481055,0.7038829224588355
8.78125,-1.4683180005323428,-0.3334876229404306
8.78515625,1.25551073311791,-0.9659621305496338
8.7890625,-0.43861790321363237,1.009675537602164
8.79296875,-1.3269046641345996,-1.8567654643854992
8.796875,0.5336703701094214,-0.4689713977186119
8.80078125,2.7524183628162153,0.03493012487099049
8.8046875,-1.966519584752035,-0.7493503424748393
8.80859375,1.2586253365867839,-1.1959148297151947
8.8125,-0.008213898140190015,0.2323408654959722
8.81640625,1.4083814982146439,0.625811017401411
8.8203125,1.0245038373415964,1.407293022484506
8.82421875,1.8785093464907896,-0.9637698556101223
8.828125,0.36987043701685857,0.009716274072309315
8.83203125,-0.8397750881743881,-0.2045704929756581
8.8359375,-0.2894456629303024,-0.10614592836047891
8.83984375,-0.28467596751367724,-0.26681269982973266
8.84375,-0.3694774685029985,1.0821915361848053
8.84765625,0.5001913111956646,0.9856034563571463
8.8515625,0.3300328779379712,0.003650841519407786
8.85546875,-1.3629396535175522,1.1800386260474698
8.859375,-0.13771885435912973,-1.8547796584579501
8.86328125,-1.8069695994295825,-1.2554490343253926
8.8671875,0.1212655172828944,-0.6926956215558471
8.87109375,2.5145880139151386,1.3789308028182483
8.875,0.06347192639307135,0.3729964623509466
8.87890625,-0.7842980394377921,-0.9442517718534994
8.8828125,-0.570862505808201,-0.2495725263181754
8.88671875,-0.13446210635531608,0.7062018103403389
8.890625,0.5791220169188166,0.6255093758190359
8.89453125,-0.1564237975268109,-0.6067293459554193
8.8984375,0.17079391065131938,0.2570805922680219
8.90234375,-1.4732538943476108,-0.40563551456376246
8.90625,-0.49209692587013215,-0.08164138685595203
8.91015625,1.55641523584115,-1.0265500866074013
8.9140625,1.17156959212261,-0.27791772547443305
8.91796875,-1.0998540666515522,0.3443422805899777
8.921875,1.6007251217464162,-0.37626360780644585
8.92578125,-0.9782986003513744,0.06348068452039642
8.9296875,-0.5062164285834584,0.6256545829920815
8.93359375,0.23218742638069248,-1.4001175377457278
8.9375,1.9865493235399168,1.2572091701638888
8.94140625,-0.9113261258500668,0.05359832028819623
8.9453125,-1.1520510299182418,1.1400347618737476
8.94921875,-0.3002715425112292,0.8003648550638132
8.953125,-2.1146126094330024,-1.5147581347323864
8.95703125,0.6763927918811871,0.05483951920761429
8.9609375,-0.9645986595930702,-0.26347543240786375
8.96484375,1.732992135938033,-0.24301210632931225
8.96875,0.27942248812654974,-0.32720960146867295
8.97265625,0.7891676489489938,-1.5913291772819338
8.9765625,-0.8710969868822137,-0.2779952313507501
8.98046875,1.351611728572223,0.865685490626715
8.984375,-0.5703210681832344,1.0051156508216779
8.98828125,1.1759521022102122,-0.8091793513163017
8.9921875,-0.4054366704364138,1.0549199414189752
8.99609375,-0.30342194806555745,0.05647247620818615
9.0,-2.035746080260583,0.050444558185666365
9.00390625,-0.7865115650888005,-0.4109237563151309
9.0078125,1.3182197966014635,-0.12528225993768255
9.01171875,1.228495553942213,1.52545506448892
9.015625,1.9504597790688114,-0.8619557567935006
9.01953125,-0.03613940691585937,0.8888394738640427
9.0234375,1.2202172198721464,-0.7883774661868346
9.02734375,-1.8066194904957433,-0.09192254316744877
9.03125,0.4688564615599187,-0.027538534703637554
9.03515625,-0.21686229127476692,-0.528549537469851
9.0390625,-0.16256068328842352,-0.43252718918019817
9.04296875,-0.9466284882352212,1.3396477844019876
9.046875,0.745112595031235,-0.8658040199483134
9.05078125,0.22375281076751774,0.644314485151102
9.0546875,1.844582562841577,-0.14467276065811402
9.05859375,-0.9324068231172824,1.3215107019170107
9.0625,-0.1943088561580728,0.4229930250678965
9.06640625,-1.5344238711315799,0.022863367303744723
9.0703125,-0.19630483286953632,-0.5784337301784007
9.07421875,0.8716497075241283,-0.7245586634785476
9.078125,0.46758445641369195,-0.6790586703515673
9.08203125,-1.05864732511417,-0.0490927702677365
9.0859375,0.6023797310010169,-0.04727884536285057
9.08984375,2.03679662312413,0.7650278075991417
9.09375,-0.09699762515725203,-0.07509583060213651
9.09765625,-0.7024965849901202,-0.6381797773449364
9.1015625,-0.903035576472761,-1.3829421315833286
9.10546875,-1.1134846757918133,1.146665402464075
9.109375,-1.685079107813346,-0.9545227461504513
9.11328125,0.3407714233431604,-1.5008527281265664
9.1171875,0.4786366526148292,0.6309505830397212
9.12109375,-1.222687366255443,1.7664164930388568
9.125,1.133800284359359,-0.004915145181148986
9.12890625,1.588081090118752,-0.7628718377998733
9.1328125,0.42084668106901185,0.03939888301850197
9.13671875,-0.4211406999375096,0.3176169772274108
9.140625,-0.5644385078090782,-0.33052749047561575
9.14453125,0.2833997957359426,-0.4126102318905878
9.1484375,0.31769974864384026,-1.5763495578982658
9.15234375,-0.7071204243033617,0.14824504442205125
9.15625,0.7172994885366167,-1.5564219140206548
9.16015625,2.1108197877863475,1.7942041635032346
9.1640625,-1.2028633940849842,-0.5774984493089921
9.16796875,0.1828941826780044,-0.9784641030588415
9.171875,0.4944455225646167,-0.3294799655089882
9.17578125,0.42879563197831266,-0.6443364783390906
9.1796875,0.32967699874507406,0.8810677712805195
9.18359375,1.1177534487234835,0.2662924958000897
9.1875,0.38196515250667223,-0.7918194125601433
9.19140625,0.06508764436457988,-0.14513149272006093
9.1953125,-1.3211950082654977,0.7048030313352419
9.19921875,0.032613921270118584,-0.5616912239453018
9.203125,0.5097940038004624,-1.707016790045513
9.20703125,-0.22728599139230873,0.07569624512931004
9.2109375,-0.16787225141183143,1.409393245516974
9.21484375,0.310179554355429,-1.4888448525374496
9.21875,-0.16097351181646097,0.3048810220524327
9.22265625,-0.413758372062184,0.4543997550746566
9.2265625,-0.9323154219443998,-0.8708652528851311
9.23046875,0.5720837551866453,0.586594899107219
9.234375,-0.01914355344822609,-0.25177165492069
9.23828125,-0.3715094000971161,1.040663022046626
9.2421875,-0.2581033280709667,-0.08719587741472218
9.24609375,0.47252480222363813,-1.4997251584150892
9.25,0.8855150698428578,1.2583415094954034
9.25390625,1.4002687481905518,1.0073333112249958
9.2578125,-0.14069299437464486,1.8747669761804076
9.26171875,0.6932318310633618,0.905437126786711
9.265625,0.0934669895081443,-0.41575881156599404
9.26953125,0.8456024284236081,-0.5003559203580749
9.2734375,1.3500218237844626,-0.5099826293381943
9.27734375,-0.3473165230542457,0.30208353515614705
9.28125,-0.6626517559150661,0.664241920592922
9.28515625,-0.10956455414714805,-1.7417958431391307
9.2890625,-0.808776353959276,1.2505815915900667
9.29296875,1.4924982747927955,-1.452016536410716
9.296875,-1.688695625156549,0.1489406488859096
9.30078125,-0.26541089366624165,0.2715428121914874
9.3046875,-0.5493648712344535,2.3901310668400675
9.30859375,0.5200248772175864,-0.46046932321502976
9.3125,-1.4453518532601883,-0.042957296550553685
9.31640625,0.6299510951309351,0.8328867731164403
9.3203125,0.14867089098268102,0.7770992054324781
9.32421875,-2.0267176141736267,-1.0626786184610135
9.328125,-1.3113058072627886,-0.05309996698701606
9.33203125,0.06682877114275444,0.31651875796797513
9.3359375,-0.12810835921999428,0.6741380532703354
9.33984375,-0.7969279329472347,-0.5604552789690156
9.34375,-0.9171928437577428,0.19006393329513552
9.34765625,-0.143244164941586,0.5600996789195772
9.3515625,-0.551808594242871,3.0251511279136536
9.35546875,-1.1119196656838608,-0.5825663348305853
9.359375,-0.13088652863589584,1.128790912986422
9.36328125,0.5057939857096975,0.5324825819784921
9.3671875,0.9708115608760295,-0.859728721136235
9.37109375,-0.845223283602017,0.3537213210437257
9.375,-0.8318342897390305,-0.30406121933067765
9.37890625,-0.39757781955129495,-0.6585462093490435
9.3828125,-1.5556826230475735,0.6817121935974082
9.38671875,-1.3384067076589792,0.6582887223461185
9.390625,0.17438063526006214,1.1769535210252422
9.39453125,-0.8520730538867298,0.7794210672985072
9.3984375,0.3964810087787298,-0.24756970420075183
9.40234375,-1.1660005927194659,-1.0661766588214283
9.40625,-1.6918140250547784,0.8702593499896338
9.41015625,0.33783470177565883,-0.2763716525563324
9.4140625,-0.7853641806895578,1.1321241715236912
9.41796875,0.577165413747061,1.1221585642497836
9.421875,0.5416280366283394,0.21140556703010943
9.42578125,-0.44267202656509286,-0.6613908648154962
9.4296875,1.3599358811303652,-0.5385539369215216
9.43359375,-1.5732530191265406,2.218194212601605
9.4375,1.2816529012487525,-2.7998397008927216
9.44140625,-0.13894048836711445,0.3139010542470784
9.4453125,-0.40055412375693944,1.418490537780817
9.44921875,-0.5013545413066636,-1.0928406311508254
9.453125,-1.722403727072386,-0.07253812057304818
9.45703125,1.0596797917023564,1.1552773277905832
9.4609375,-0.3620758207927998,1.7572048030713037
9.46484375,-0.08853891879915231,0.15429418932475975
9.46875,1.9550240320910872,-0.26785371992086743
9.47265625,-0.1669817839935077,-1.0314780955723064
9.4765625,-0.44528650628548555,1.123545377936612
9.48046875,-0.9611453108363822,0.8969888799615875
9.484375,-0.0897816068664035,-1.1837658552882915
9.48828125,0.4724695561651787,-0.26930346804121824
9.4921875,1.550131006897502,1.4364238409347605
9.49609375,-2.4497650079338853,0.3514347464726283
9.5,1.132912483352884,1.6376745751837276
9.50390625,-1.1707010713445727,-0.4038196156694754
