time,ecg,ppg
0.0,1.1358456425995413,-1.4513369375083256
0.00390625,1.9243203652732561,-0.4174027741125336
0.0078125,-1.0870890607223018,0.6819341905053528
0.01171875,1.70129340635675,-0.12550239116860978
0.015625,-0.3874727895155908,-0.2837268733855027
0.01953125,-0.27349582639614145,-1.2261976936886596
0.0234375,-0.7802241998697695,-1.0053136658454147
0.02734375,0.4097669415990799,-0.7618640102111517
0.03125,-0.042871496862168304,0.13223465181166894
0.03515625,-0.417963461992981,-0.07993349375841867
0.0390625,-0.25282477945874904,-0.5446823842159394
0.04296875,0.22579212167865162,-0.42949094120058773
0.046875,0.4753142604631728,0.9118791329582874
0.05078125,0.6144097179253685,-1.2297061487379026
0.0546875,1.2976625536667465,1.9691482590269254
0.05859375,0.6333725778548244,-0.11719187309003624
0.0625,1.7137883247760268,0.5565598639245488
0.06640625,-0.6591338106839536,1.752841498584184
0.0703125,-2.4316277686922234,-1.0816064967341201
0.07421875,-0.7950861852904388,-1.382249786443367
0.078125,0.4775756979014532,-1.1456226471414486
0.08203125,-0.6518590579355982,0.3313487870531591
0.0859375,-0.5616335890564468,1.3957738789984502
0.08984375,-0.08128085175132051,1.3086680289004784
0.09375,0.2188037764864362,-0.09012551280061203
0.09765625,0.2112397564910896,-0.7155553124865155
0.1015625,0.5340080665622039,1.381979416915793
0.10546875,-0.2542420103880911,1.2765935235398576
0.109375,0.5624678987386573,-1.007893545728449
0.11328125,-1.231091370577979,-0.3973684058868842
0.1171875,-0.8998845648930938,0.37769145673276305
0.12109375,-1.138747621354478,-0.36579605391896314
0.125,0.1312182818992209,0.5548940997501993
0.12890625,0.08088500049208966,-0.2608314889111722
0.1328125,-1.424968135211476,-0.5057046367800587
0.13671875,-0.3913917225340139,-0.8841750725520373
0.140625,2.2445538714613122,0.15417115952967791
0.14453125,1.5566469395315425,-1.8245456539563814
0.1484375,-2.036806160629153,1.2087209005716062
0.15234375,0.47315790680295666,-0.5998069018618915
0.15625,-1.0830511070669044,-0.16404306101389377
0.16015625,-0.9062487738874215,-0.6203940477071455
0.1640625,0.21012195123636995,-1.5220255515653802
0.16796875,1.1234416038685717,0.510995931969121
0.171875,1.2544606717818458,1.4876212661619619
0.17578125,0.15255293665744754,-1.1233947109186124
0.1796875,-0.25508760735781655,-0.09236696656885483
0.18359375,-0.7130662555607433,-1.557193362190856
0.1875,-0.8011936873638076,-2.2312965259282667
0.19140625,-0.8641291774742453,-0.26259924441655963
0.1953125,-1.6042723404579322,0.4712563142593348
0.19921875,-1.408249875524712,1.0590107374464184
0.203125,0.8922602740393224,-0.29468730988972375
0.20703125,0.5759102879446601,0.34085685980594377
0.2109375,0.5961036378527226,-0.22763353921982504
0.21484375,-1.2011001460692134,0.8534345644473941
0.21875,2.569193940755338,1.3936875841099647
0.22265625,0.2168555903734873,-0.5858517221299172
0.2265625,0.41419638006572485,0.4338786089361957
0.23046875,-0.5531691102717599,-1.2637796896086617
0.234375,0.4596072162207663,-1.9510294246952933
0.23828125,0.7537223438222449,-0.24072053910615246
0.2421875,-1.3487890443283388,1.8368470144065914
0.24609375,-0.839925894481599,0.6190690200889446
0.25,-0.766975777354715,-1.1395320747426017
0.25390625,-0.36958124379734514,1.1038635329121502
0.2578125,0.5733253859218317,-0.6612229323008066
0.26171875,0.9345841911072721,-1.2958441795325502
0.265625,0.6645146623434984,1.166222631087274
0.26953125,0.007571525754903276,0.48531059632467993
0.2734375,-0.5404787196921677,-1.5528585383122158
0.27734375,-1.1134731090483825,2.2634048627916155
0.28125,-2.0322518694897584,-0.021736931409049667
0.28515625,-0.11590984749157267,0.24427543976185603
0.2890625,-0.3755277246865588,-0.5408600853814806
0.29296875,-0.3881570212396349,0.554170396777465
0.296875,-0.004907263951442387,0.4419694276234064
0.30078125,1.7756570560134215,-0.13573611606783195
0.3046875,-0.6231277939028446,-0.4974562023322811
0.30859375,-1.6363756001974505,-0.4939473853760571
0.3125,-0.7904849790794474,-1.6897498720810642
0.31640625,1.2903453941768226,1.322833644743187
0.3203125,1.5487099989340418,0.5207619488852017
0.32421875,0.2550646630979394,-1.0282331843183032
0.328125,-0.025443705817967094,-0.8066599541672598
0.33203125,0.13550955780932036,0.0648072817214149
0.3359375,0.0534966984185825,0.5039573503511883
0.33984375,0.17546497261726926,1.5464627085468174
0.34375,1.0882883414302629,0.2964468960173375
0.34765625,-0.8671026200179146,-0.7152204129275285
0.3515625,-0.6152566969538371,-0.024863532548462776
0.35546875,-0.2882647816087882,-0.7070681319257122
0.359375,0.40718930002399156,-0.7907698177706876
0.36328125,0.026624585798585065,0.6240333636787571
0.3671875,-0.4706043032411248,-0.6191425871871747
0.37109375,0.7532492672442003,-1.7856155064895496
0.375,1.4541968588497476,1.0595646928441218
0.37890625,1.5555161559199124,-0.029500269400483992
0.3828125,-1.120723671131142,-1.457246222661375
0.38671875,-0.5135968851561853,-1.1608811914379888
0.390625,-0.5042674735576382,-0.9161985409883526
0.39453125,0.38233101949635473,0.762990664628036
0.3984375,0.00646010518129753,-0.5558632488970291
0.40234375,-0.4809982459450791,0.41897845092819813
0.40625,-1.7289658139127708,-0.7403694913343851
0.41015625,0.22105401109802306,0.06660150842407317
0.4140625,-0.20995266561930914,0.6554768902419716
0.41796875,-1.7135065729034509,-0.3672109059132187
0.421875,0.7258852694808859,0.8666267624174214
0.42578125,0.15059501718100515,0.25512054369369336
0.4296875,1.0961913165972839,-0.14478372497644496
0.43359375,2.0072987219819445,0.8027815954033883
0.4375,0.15792485346248852,-0.01979637940841857
0.44140625,0.9419611595705045,0.46047777809300233
0.4453125,-1.422383493700681,2.2281813213934076
0.44921875,0.9844703875228457,-1.1806766720969641
0.453125,1.258608698540562,-0.5527608817963119
0.45703125,-0.4296592170572138,-0.341781531598214
0.4609375,0.41496125289813074,0.715929881374608
0.46484375,-0.27796744159972775,0.17558571296396602
0.46875,-0.6015046386366677,0.559285133706146
0.47265625,-0.944431967609631,-1.1923386689750692
0.4765625,0.6829130078252282,0.8347133103040519
0.48046875,1.283158777254994,0.9073943102595567
0.484375,-0.225623311623736,-0.45537760042181036
0.48828125,0.8852514138203831,-1.093616581644947
0.4921875,0.41733071466371585,-0.8703467691252161
0.49609375,0.4290082021875253,0.11761529580515162
0.5,-1.0700083210352673,0.6832184816569117
0.50390625,-1.0597378457239421,0.3687941183097899
0.5078125,-0.9536961612748297,0.9396301686605862
0.51171875,0.4474769202643165,1.123831879069297
0.515625,-0.053902161491964966,-0.500262044759878
0.51953125,0.09214116255008063,0.6453346055044509
0.5234375,2.0375162866178553,-0.9689546310433844
0.52734375,0.5496266365193005,-0.6210094514122372
0.53125,0.8616905415350389,-1.0132378092790375
0.53515625,-0.22270137527676234,-0.013521479967451708
0.5390625,-0.36284009658272304,-0.06377316456055758
0.54296875,0.3810411111362219,0.23746592215816859
0.546875,2.5643113038710386,1.3795412728375491
0.55078125,0.4030712836732976,-0.8338364802325346
0.5546875,-0.1116273974482616,0.23750636333701797
0.55859375,-0.20764713289639944,0.4212413643076506
0.5625,2.186059971408831,0.6079628046901022
0.56640625,0.26094063248453525,-1.0062435360405213
0.5703125,-0.5726627531591371,1.3267588443723632
0.57421875,0.17686717903567858,-0.5752576285057945
0.578125,-0.16396353982392667,-1.5303553476117533
0.58203125,0.9200629258312966,0.6112839108124833
0.5859375,0.965567229511231,0.3445429158765564
0.58984375,0.4414998159609838,1.1075792142307097
0.59375,0.7434959313985149,0.8127613630591186
0.59765625,1.295703207233147,0.8199826199308903
0.6015625,-1.5287018036395859,2.2387498520550806
0.60546875,1.1795753660095902,-1.0960168226472153
0.609375,0.6196771869521984,-0.09613092251067207
0.61328125,-1.0844868303337287,0.0045378027511647715
0.6171875,0.14502922677117713,1.3746374023121788
0.62109375,2.288808008628493,-0.3017382468219196
0.625,-0.5247243218209804,-0.5597536976397558
0.62890625,0.5836174681607921,-1.786876622850689
0.6328125,2.085216326046933,0.8738965699987173
0.63671875,0.538727805089139,1.1509820589519393
0.640625,0.679580641328817,0.04614153456638039
0.64453125,1.1445924284165834,-0.6667897695705798
0.6484375,-0.2973747388048157,-0.1196319489744347
0.65234375,-0.6691527417031095,-1.0995901125741772
0.65625,-0.09742189225677346,0.46587390547531077
0.66015625,0.9647599862738118,-0.22292625349394904
0.6640625,-0.45669440559155283,1.133132795983962
0.66796875,-0.20726112447810244,-1.4340643752283584
0.671875,0.5519391698891407,0.23946223594265684
0.67578125,-0.3154242524965793,-0.29279059612635006
0.6796875,-2.2857272451151607,0.6380326690864769
0.68359375,0.6872611991847135,1.3818673404687343
0.6875,-1.3034744339775273,0.7803322106748798
0.69140625,-1.690105551969288,1.3301847592324092
0.6953125,0.8145254787568619,0.8978038695953358
0.69921875,-1.7423641095877542,0.21364055372062069
0.703125,0.7523976989970143,-1.1626928285570288
0.70703125,-0.03675854206068057,-1.25992659177886
0.7109375,0.03788638098337333,-0.12765504132522468
0.71484375,1.368782713530574,0.09724519398140033
0.71875,1.9268623867492103,-0.441069818384265
0.72265625,-0.2589990378914136,0.8228555702743767
0.7265625,0.774944296356147,0.05947080576266472
0.73046875,-0.4732349893568954,0.5342672595221332
0.734375,-0.5418128196645405,-0.6679464771244198
0.73828125,0.10705626178258391,0.13712717401978153
0.7421875,0.6933810687402673,-0.183594064288023
0.74609375,-0.42325502254945224,-0.37149440766815595
0.75,-0.6832759255419342,-0.7350309975830146
0.75390625,-0.9266363105421508,-0.8546628541187556
0.7578125,-0.017224255826719412,0.18334037575624038
0.76171875,-0.2977187786673668,0.16039087686109593
0.765625,-0.3179878256195788,0.7503545723208638
0.76953125,-1.2542669598084901,-0.6785809049054256
0.7734375,-0.2083081030691289,0.2634130032182194
0.77734375,0.48877616684912434,-1.7955878836392887
0.78125,1.796990611742084,1.5982169620512925
0.78515625,-1.2285134246274596,0.7736957193471338
0.7890625,0.31136229842865437,-0.9244556834299437
0.79296875,-1.0772690127747617,0.20055556787874745
0.796875,0.8768830000773526,0.38647652887551415
0.80078125,0.30035144040440453,1.5957073507766006
0.8046875,0.013391484456847593,1.0089393431001887
0.80859375,1.281402426877917,1.4784107659491879
0.8125,-0.49931855434188355,-1.5169688550849036
0.81640625,1.0393756599497759,-0.31882619399568507
0.8203125,-1.3544422748071836,0.9737536463144635
0.82421875,0.6536514018291794,-0.7367067580461383
0.828125,-0.9273150086301922,0.6700696728332286
0.83203125,0.03700069397992005,-1.5158136787857661
0.8359375,0.5286533386542211,0.8974629917926726
0.83984375,0.22969521976098606,1.750045001858303
0.84375,-0.41707657713603896,-0.7821274898645236
0.84765625,-2.5333963688219745,1.2471042341496283
0.8515625,0.9009076044416398,-1.1657657360994065
0.85546875,-0.836426000466464,-1.1640636376283775
0.859375,-1.0683203621977073,-1.9057036737325381
0.86328125,-0.031900970017488615,0.3092817390090978
0.8671875,-0.3535621115747138,0.07029181748312334
0.87109375,0.04306611584118409,-0.2733107460568238
0.875,0.35524211072425643,0.24058146481987647
0.87890625,0.36422993998136116,1.5119077253648106
0.8828125,-0.036499402987536116,0.4757853006843646
0.88671875,1.2599249781616395,-0.5051741593018249
0.890625,-0.5107933305436301,-0.1626409548003553
0.89453125,1.6808935843834891,1.0499668371217243
0.8984375,-1.7143053578984806,0.12195614299625837
0.90234375,2.2201052539533053,0.976892589022345
0.90625,-0.28080702927770945,-0.674185809073796
0.91015625,-0.5760151564103493,1.071553907243972
0.9140625,0.34086574690243115,0.3434471783236583
0.91796875,0.26293621289976715,0.1415356038524296
0.921875,-0.2700288425189146,0.18799775458144183
0.92578125,-1.5497767480134206,0.04960257269995268
0.9296875,0.5883384569401915,0.28341908541725663
0.93359375,1.5818360090244923,1.4614970117466943
0.9375,-0.22986495436057508,-0.743638671734082
0.94140625,-0.6883939150357551,0.09621551190641797
0.9453125,0.7559840183208683,0.7600454692016655
0.94921875,0.32513242152592403,-1.625281688636672
0.953125,0.8345119884596278,0.6470344802891027
0.95703125,1.572539060722265,-1.5669411479064772
0.9609375,-0.16236189844875717,-0.16147030340066323
0.96484375,-1.5959239426802039,0.48048659485986234
0.96875,-0.6918207014789404,-0.04074521287251497
0.97265625,-0.10601564194674548,0.5387372375203766
0.9765625,-0.16252010556152843,-0.5755490025491176
0.98046875,1.3749148610328805,-1.8232761429444133
0.984375,0.5910494335218781,-0.4822157995545596
0.98828125,1.180601851168348,-0.5917527730650781
0.9921875,1.7420859970509983,-0.11327389598186999
0.99609375,0.8429340498293438,-1.7830595020190771
1.0,0.12863038186328565,-0.4729571402316052
1.00390625,-2.7844701594052945,0.6800120366766105
1.0078125,0.3804416991642289,1.1417505857343924
1.01171875,-0.022753250054044938,-1.157582183596946
1.015625,0.33457707168944667,-2.026665976857897
1.01953125,-0.9419001565902315,0.3611419320538636
1.0234375,0.0415186600905562,-0.6978122139437849
1.02734375,1.3742976796638668,-1.6163814941115173
1.03125,2.0390139100293756,-0.4141367877860459
1.03515625,0.43056010047830834,-1.769159094567422
1.0390625,-0.49498966956550516,0.3710110107197703
1.04296875,0.870560241441399,0.3825015605218576
1.046875,0.1018863501139776,0.4138194931260036
1.05078125,0.4677044228410954,-1.89947960788242
1.0546875,-0.591043145683013,0.21833538178327155
1.05859375,1.3728113020258639,0.6902124204058708
1.0625,-0.18587531355791537,-0.16337574364176183
1.06640625,2.1383035856029804,-1.294079779390417
1.0703125,1.0335357524966553,-1.5856672205756532
1.07421875,0.6705090372166865,1.1287306889131299
1.078125,-0.23646789748117344,-0.975732962855903
1.08203125,0.624436045234427,0.5776014454591464
1.0859375,0.7961868149074244,-1.3952683121650717
1.08984375,1.6777648231519435,1.1406813478118791
1.09375,0.48954850348123735,0.7510960871489425
1.09765625,0.8004205258221735,0.6354025556906744
1.1015625,0.9613868091223192,-0.8118983814805505
1.10546875,0.15998468302383748,0.24040467018596814
1.109375,0.19136721977407528,1.6761468874904992
1.11328125,0.35662126765978147,-0.18311696166125363
1.1171875,-0.6762817585950224,-0.8401190562889821
1.12109375,0.1218802611154911,-0.3007479209515209
1.125,1.2560236993128466,0.612543843614118
1.12890625,0.1846585713963659,-0.66808288600219
1.1328125,0.4155222849709612,1.7825624772422843
1.13671875,-0.6480807006890152,-0.7723107650647105
1.140625,0.2699710485049421,-0.7785705582511582
1.14453125,0.8805062321044045,0.9077800289668053
1.1484375,0.576132248574174,-1.895215750862717
1.15234375,-1.4011714312190733,1.8299572451813921
1.15625,1.1567592361060297,-0.4852815224983589
1.16015625,0.1794312404771762,0.47291760954107176
1.1640625,-0.9758029550629851,0.47076471216267785
1.16796875,-0.22325317937309624,-0.27272844810148256
1.171875,1.4416832515545666,-0.47633348205432713
1.17578125,-0.09731594302309542,0.491067822330494
1.1796875,0.35119440680980873,-0.0451872177940748
1.18359375,0.9515091651734349,-0.14382520003240548
1.1875,-0.8761937706069965,-1.3022714876348043
1.19140625,1.0438246466594614,1.1116599145047636
1.1953125,-1.112331871533955,1.4886010565531451
1.19921875,-0.4856802959977206,0.4184886383107705
1.203125,0.7333085125392553,0.5519493064016778
1.20703125,0.7528561059328193,-0.3007719573882145
1.2109375,-0.3039454736188792,1.4440460231101089
1.21484375,0.61495042208612,-0.01532124398288124
1.21875,-0.27506914652856057,-1.593313489419216
1.22265625,-0.2972697738870495,0.3389044760970697
1.2265625,0.09556780908017463,-0.9173025492128182
1.23046875,-0.757563053214049,-0.5002948490358933
1.234375,0.25990693979395063,-0.18936378853538466
1.23828125,0.31423975991980896,0.7495355971541208
1.2421875,-0.0281121188732817,0.1363987853602026
1.24609375,0.3557792077249845,-1.1698281003272764
1.25,0.283487636303671,-0.4117352965896021
1.25390625,-0.42739516890626755,-0.22597461869048358
1.2578125,-0.42795112176618527,1.387075009490304
1.26171875,0.5530956000755333,0.6402232176213751
1.265625,0.3447907546826339,1.4400706103965757
1.26953125,1.4088457016006406,0.08052678751697667
1.2734375,0.08997005748318823,0.3671391011139982
1.27734375,-1.4370895517073048,-0.3093506312109049
1.28125,0.7673638393211969,-0.34867960303271545
1.28515625,1.2653921824866603,0.14749620906143465
1.2890625,1.1639980791280975,0.845950735754712
1.29296875,-0.3324192973340427,-0.28175646908889923
1.296875,-1.2940763448844608,-0.14906983945100777
1.30078125,0.31326881559693426,0.776339046740345
1.3046875,0.889652270465902,-1.598558103128826
1.30859375,-1.7226116069763482,1.3745478103603261
1.3125,-0.23690109076922267,-0.1026966639329108
1.31640625,-0.23816341783783415,1.1772080592991112
1.3203125,-0.8126384659486368,1.4742085337358917
1.32421875,-1.1012589135033497,-0.8384093060534037
1.328125,0.4038990047400815,-0.639868390216306
1.33203125,0.916582436918696,-0.5162695972935446
1.3359375,-0.2901314727937397,-1.4965969412895348
1.33984375,-2.1436335553594223,-0.2976224119872606
1.34375,-1.6577343788422176,0.740467855056496
1.34765625,-0.40450905046659963,-0.3276244541939592
1.3515625,-1.6421448972716348,0.2972340617907174
1.35546875,0.14882296305272882,1.330232982076242
1.359375,0.3978049378583488,0.4958602138104413
1.36328125,1.3831909519842813,-0.2598280317050929
1.3671875,-0.39587226577517626,0.3337966037372886
1.37109375,-0.4602987647948086,2.3906403255572277
1.375,-1.6080634345240539,-0.24678511883994933
1.37890625,3.3112622926340025,0.1275123718529756
1.3828125,-1.938064183255195,-0.41047991191695155
1.38671875,1.7171524175781352,0.7906742267564799
1.390625,0.6585249454926988,0.7107732786233868
1.39453125,1.230706339073858,0.9376480902828552
1.3984375,-2.0183317165287327,0.20805332592642145
1.40234375,-0.060570877636800816,0.5644008412269184
1.40625,0.5488354011698102,-0.639197461667434
1.41015625,0.9842700426259398,1.464640794612155
1.4140625,-0.43208344006927557,0.6247359509524976
1.41796875,1.290261652554349,-1.419436143307195
1.421875,-1.4474607783893487,0.3585568930233562
1.42578125,1.2893864989213375,0.5986803738259928
1.4296875,1.0417317154630574,0.18444208753378147
1.43359375,-1.714080874644604,0.18673885738554216
1.4375,-1.401196899333718,-0.22777844175784626
1.44140625,-0.7335721326344337,0.9106208855562504
1.4453125,0.14713128241451762,0.9730728957399385
1.44921875,1.038106395194052,-0.5200355012511104
1.453125,0.739034858782809,-0.32051784163781816
1.45703125,0.23563332741334342,0.4293188970187902
1.4609375,-0.2644111217711686,-0.15377455706589685
1.46484375,0.4458161054723255,0.23932895154099318
1.46875,0.6799047452627291,1.1244593258144153
1.47265625,-1.314919083396753,-0.5328218680356548
1.4765625,0.5150332911433082,-0.4560458060342449
1.48046875,-0.22353126937280263,2.7569623077419245
1.484375,0.43383806426229776,-0.4064424390969174
1.48828125,0.717070860720388,0.17852237912597435
1.4921875,-1.9196673774789004,-0.6938826100991307
1.49609375,0.1348771364206115,-0.11431722027496612
1.5,-0.5306971855078774,-1.2006616472065395
1.50390625,1.1479528550910774,0.6879536125981685
1.5078125,-1.817312290403524,-0.7326156572904272
1.51171875,-0.23339613057440953,0.9078724879996096
1.515625,-0.8860581534470057,-1.005812349148184
1.51953125,-0.27078894555873617,1.1265952976090918
1.5234375,-1.2993774934581688,0.47357055514545243
1.52734375,0.7404924929479438,-0.9225709470105944
1.53125,-0.3829556534948329,0.0813790545024147
1.53515625,0.6876633953361935,-0.9203842317069568
1.5390625,1.023870887354197,-0.11238597870944166
1.54296875,0.5011523624608539,-0.05301312311586446
1.546875,-2.3080428433704525,0.14118768929736686
1.55078125,2.1340782506363345,-0.7105996747612523
1.5546875,-0.02254215875152269,-0.751802103267885
1.55859375,-0.13537298072520604,1.1785058561245176
1.5625,0.37934556616844484,-0.10532760580214853
1.56640625,-1.5739288960218862,1.5223864672754144
1.5703125,-1.514188725147227,-0.7992935455828442
1.57421875,0.30944769848871806,-2.3117592670695797
1.578125,0.5619891071438098,-0.024374723588357933
1.58203125,-0.25364711683226915,-0.6844376832266739
1.5859375,0.5390308444215575,-0.4183920872337207
1.58984375,1.7040400134415246,0.02693753234168863
1.59375,0.30139717205663863,0.22871099052276808
1.59765625,0.7869294286828069,-1.0487995383267708
1.6015625,-2.7056839767488277,-0.19969096585532944
1.60546875,0.17274636616592756,-1.2965811221866945
1.609375,-0.4687722825672907,-0.034475910679023544
1.61328125,-0.18876271409854836,-1.3873208503512326
1.6171875,0.6798878263352127,0.5637767913336255
1.62109375,2.2860464619243235,0.16983776915861792
1.625,0.6094422678622899,0.20685571325961213
1.62890625,-0.017110669698134594,-0.025207298834558807
1.6328125,-1.591770863682824,-0.09484950471624555
1.63671875,-0.586034832318939,-0.57261918939699
1.640625,0.9423091238193916,-0.6564819389203828
1.64453125,0.7493455328979782,-0.8755364026647376
1.6484375,0.9713089308284794,-0.2058628849324365
1.65234375,-0.3816586733830927,-0.2467065998625083
1.65625,-0.6751394969250017,0.27356985387278926
1.66015625,-1.4657927316721218,-0.8703854370910725
1.6640625,-0.06960601625870003,0.9976229297548853
1.66796875,-1.747277335040989,0.8827121009543394
1.671875,0.20531440514443264,-0.16085479378475057
1.67578125,-0.3723278030227251,0.618147496210761
1.6796875,0.19320750963714511,1.3690841028792142
1.68359375,0.703354769840592,-1.1477574595455668
1.6875,-0.4883853173739302,-1.6439044441719048
1.69140625,-0.5592284629747283,-0.8905727822731345
1.6953125,-1.118324860938019,0.45035082927671494
1.69921875,-1.5209091461503386,0.7948419973312181
1.703125,-0.10222249153213502,0.40437390975353843
1.70703125,-1.8137554383274748,-0.9269308254399337
1.7109375,0.19535116307691747,0.18381168890504587
1.71484375,2.2832673065918567,-1.1514355757579562
1.71875,0.42122604346753434,1.4178972471092701
1.72265625,-0.22042119598746723,0.23779439361781202
1.7265625,-0.42602690147162053,1.2953871962178465
1.73046875,-1.51888867792755,-1.199841718690153
1.734375,1.4111344663401293,-0.08402579497384369
1.73828125,-0.15830502893864554,2.388840833261454
1.7421875,1.0068496368232291,1.37275900995975
1.74609375,1.071656947465042,-0.4924939097592705
1.75,0.5065709585620667,0.6024825301551278
1.75390625,0.6974512506254433,-0.7025073047666142
1.7578125,-0.7827835825908682,0.25530972022263143
1.76171875,0.32538294091336406,0.47303645643554315
1.765625,0.11236515200255148,1.6287283269973603
1.76953125,-0.6431009686025729,-1.8407690958129939
1.7734375,-1.0351770684176242,2.1938345173151994
1.77734375,-0.7689803242998301,-0.05912217363917104
1.78125,-0.1073300153811561,0.7177786915079276
1.78515625,0.47106117401174336,-1.244546690833599
1.7890625,1.1532820614308992,1.005541309447471
1.79296875,0.10382089737819858,0.058718884291051494
1.796875,1.4742334269485053,-0.6721964952675419
1.80078125,-1.0508808448229539,-0.2525507080668748
1.8046875,1.578776036362431,-2.5833283798919733
1.80859375,1.3337341860269005,2.3640152596294293
1.8125,1.332443692574206,-0.3680154106039296
1.81640625,-1.2741999840190454,0.1458545466124318
1.8203125,-0.5184545924131322,-0.8228991763223449
1.82421875,0.5601029342688756,-0.4561725305288898
1.828125,1.8081020950164022,0.21766738573019281
1.83203125,-0.8752971466384993,2.267403236713813
1.8359375,0.3316502066094912,-0.1887785512943925
1.83984375,-0.5487718735725114,0.444438056416602
1.84375,0.28351676861316877,0.03083634434224013
1.84765625,-1.0656969388794506,-0.46160059630584177
1.8515625,0.35986657588930093,2.395101800013734
1.85546875,-1.1505930583719977,0.6913981959861857
1.859375,0.748539671910608,-0.8550367067808107
1.86328125,0.6572499708018334,1.0408627917374376
1.8671875,-2.2365426766956173,-0.1928189473404601
1.87109375,1.678953543348492,0.5375701123132569
1.875,-0.3024978005102435,-0.25360086312199986
1.87890625,0.3335792373870741,0.20492911005327247
1.8828125,-2.620209153526254,0.15020377321902253
1.88671875,0.39143606173892204,-2.780791118053772
1.890625,-1.1518491940340478,-0.09530406118246361
1.89453125,0.6899115082141491,-0.05920146398212943
1.8984375,0.02936791198226432,-1.1978549905898495
1.90234375,-0.6950032444291168,-0.02679684744783326
1.90625,0.19679934921908965,-0.3362373462887329
1.91015625,0.5382572878478429,0.6921897881289514
1.9140625,0.8891410080856543,-0.29086028933557934
1.91796875,0.11955337648980802,0.2738055942494084
1.921875,1.019994083357613,-1.7067181044950483
1.92578125,0.9286459855910907,-0.36234686690473283
1.9296875,1.8835395253819773,-0.7654464776657963
1.93359375,-0.43526345412297957,1.7816428770500703
1.9375,0.058209823344391,0.5549802072033951
1.94140625,-0.6441620809875109,-1.0571206340732577
1.9453125,-0.7112471338019001,-0.5713970820884839
1.94921875,-0.4336787927284325,-0.91780663250856
1.953125,-0.032770195986832666,0.5843679691041129
1.95703125,-0.6538281252732788,-1.0263232975564407
1.9609375,0.7892670831974758,0.7346661169459479
1.96484375,1.0216577147186146,-0.1791933469283472
1.96875,0.6165851472754873,-0.02292031492362112
1.97265625,0.36290331812956955,-0.5824479804492573
1.9765625,-0.12350541919635723,0.6536394201258686
1.98046875,1.7933006076508882,-0.19746868404568915
1.984375,0.5550840815211857,0.6201079534400075
1.98828125,1.137216936619162,1.6459453483961792
1.9921875,0.35857910752212213,-3.0341478177297128
1.99609375,-2.6547093325210542,0.010186871068951631
2.0,1.403748030330123,-1.1507178856461544
2.00390625,-1.3928292734975158,0.4486291052808169
2.0078125,1.5714987810497134,0.6574905818198312
2.01171875,1.0898005369043124,-0.10977114063148101
2.015625,-0.6751696582925618,0.043930927293361996
2.01953125,1.8390639055413143,-0.4070354055046961
2.0234375,-0.17608611351141076,-0.8637716348606576
2.02734375,-0.9789419561026947,-1.5096592504432862
2.03125,0.30628078929988645,0.7780700010611491
2.03515625,0.8423945251370585,1.557858761877937
2.0390625,0.1758262591201682,-0.650612068808219
2.04296875,-0.8516426151594029,0.3261594831407003
2.046875,1.3839429697674452,0.8787893977049941
2.05078125,-1.0369110046462215,-0.2954738898544229
2.0546875,-1.2142728260478732,0.8330852133561785
2.05859375,-1.129472451122922,1.1873046215676821
2.0625,-0.41836352306340957,0.0956805779734572
2.06640625,0.8000523279334293,2.2970884725367
2.0703125,-0.2332019921182689,0.15509686604392878
2.07421875,-0.17669503325152608,-0.4168886095198664
2.078125,0.20205970045284077,-1.3631796966261067
2.08203125,0.017598709469153484,-1.0490901302447084
2.0859375,-2.7404738856697746,-0.9775705753746524
2.08984375,0.12511626334636142,-0.604213954660371
2.09375,-2.530361877531886,-1.1221639078476464
2.09765625,0.39761497454664957,-0.14249801104003476
2.1015625,0.4558550521367043,-0.717637776283768
2.10546875,0.39448483145809055,0.6998405729518523
2.109375,0.18894308348674269,1.8718077087960228
2.11328125,-2.4961987401989187,-0.1329310576698752
2.1171875,-0.502075218682123,-1.7057779488079368
2.12109375,1.299051637339881,-0.07028873280091509
2.125,0.7131104542646587,1.9036945727021497
2.12890625,1.0556733264801441,1.8557956555935824
2.1328125,-0.2662845939458618,-1.835280884532647
2.13671875,-1.0142364609281254,2.1761183370502755
2.140625,0.018796412308321207,0.24464927311019985
2.14453125,-1.3957506535954742,-1.592224126786182
2.1484375,-1.1267056998177476,0.46993973174583303
2.15234375,0.38709719541379206,-0.7668395193609185
2.15625,0.09101230575296214,0.04648248377851847
2.16015625,-0.3911049179801504,-1.0805589452757485
2.1640625,0.6442586189665899,0.16755464412696638
2.16796875,0.5220186521977054,0.21360738730489562
2.171875,-0.736121786248825,0.3753745583330429
2.17578125,-0.34834750280457333,1.5906481988166647
2.1796875,0.5310580343314377,0.6131462880696662
2.18359375,0.4872896141634801,-0.03640747118780947
2.1875,-0.9391640993194729,1.1586813036769255
2.19140625,1.877725197152371,-1.115229506526921
2.1953125,0.9805974344802891,1.680144902231595
2.19921875,-0.3977950364316842,0.8740342389703304
2.203125,4.312885713149926,-0.05432483590210031
2.20703125,1.397346593412899,0.28056822941585363
2.2109375,0.753288274675576,-0.8082011437598355
2.21484375,1.4202762134044788,1.3413397251209132
2.21875,0.1980832261840936,-1.2893501699305947
2.22265625,-0.48643238298622965,1.4436045128596249
2.2265625,-1.8320832363103354,-0.8364810770447662
2.23046875,1.3118012149626315,-1.0097493014426528
2.234375,-0.3876890994678157,0.5722146462689732
2.23828125,-0.015300861948137295,-0.15596732907003152
2.2421875,1.4787003400927514,0.7255293173845978
2.24609375,0.5278671592739584,-1.0385474597012354
2.25,0.33318216375371307,0.44780303231229146
2.25390625,1.3789989426777063,1.755903006283576
2.2578125,0.5521245863969204,-0.4845893030422381
2.26171875,-1.3815482923871956,2.289139001356975
2.265625,0.4273871927557448,0.059912719035397105
2.26953125,0.7690841909923836,-2.2881459809666986
2.2734375,0.09533089550650028,0.44687999941469836
2.27734375,1.5329702740756894,-1.0392547656492246
2.28125,-0.5181636059910655,0.693993965019003
2.28515625,0.6677586296782418,-1.6302969941899377
2.2890625,0.7809805075708955,-0.2793605899832402
2.29296875,1.2038276596798179,0.8511532691380042
2.296875,-0.40896387636510734,-0.3690730787941679
2.30078125,0.4555804911147726,0.1933414164627147
2.3046875,-1.2614981603022462,-0.38379877132095286
2.30859375,0.3698259956731456,-0.11343220161659591
2.3125,0.6736537398974469,-1.5269341045266822
2.31640625,-0.6835163779755342,-0.3140123166568902
2.3203125,1.0533408842024343,0.5151578244374837
2.32421875,-0.7096756740185701,0.19842725331187958
2.328125,0.6627414161258108,0.35995893701365034
2.33203125,0.02066764345186231,-0.12158528491503726
2.3359375,-0.9377045379475363,-0.7634983946350461
2.33984375,0.05143293139302049,-0.7640076847344953
2.34375,0.3825666789813719,0.9372956122823778
2.34765625,-0.7186614042577651,1.565801866026573
2.3515625,1.8165485585438848,1.5909872100131919
2.35546875,-0.41760429049408726,-0.8889382266721478
2.359375,0.7180979663903351,0.6987394785296835
2.36328125,1.0141290087665147,1.4000484407395088
2.3671875,0.8777472528495939,-0.4304522622336785
2.37109375,-1.4200968966940457,-0.08062528567419056
2.375,-1.0615379937559062,-0.8551296920867218
2.37890625,-0.5052902176654361,-1.4706872637532336
2.3828125,1.1690272881480708,0.4923516084965281
2.38671875,-1.4139030799549013,1.4164871383618562
2.390625,-0.8877099080077946,-0.44999158324942656
2.39453125,1.0386641363802682,-0.7808247274949928
2.3984375,-0.15945531677440908,-0.467526523946977
2.40234375,0.09987997037934501,0.21110053158030972
2.40625,-1.1790926944178302,0.2554975287235669
2.41015625,0.4973534637597009,1.47186959250433
2.4140625,0.4938085439170343,-0.19445203088711527
2.41796875,0.26889791285033454,-0.9371270083903661
2.421875,1.389366905532142,0.6363067740355015
2.42578125,-0.9556235587974349,-0.9589457588089456
2.4296875,-0.6943547326289273,0.4652810074416444
2.43359375,-1.6489228067357642,1.482672268150094
2.4375,0.5236697753276273,0.38084086909553977
2.44140625,0.31971869418998344,-0.6476915768841747
2.4453125,0.08246799793882448,0.03238312660025421
2.44921875,1.0427537395565216,-0.9195391096812174
2.453125,-0.7950638678870481,0.4627808644273621
2.45703125,-0.7579839105188676,0.11801453741269145
2.4609375,0.10214517611975973,-1.4025681200513087
2.46484375,0.20936401348015404,1.6169082787609166
2.46875,-0.6889009591559463,-0.14212526793140706
2.47265625,-0.45440469072683376,-0.21927003482098498
2.4765625,1.4375762043872604,0.4776248725539529
2.48046875,-0.15817884267534404,0.9114793636303152
2.484375,1.2418407797185718,-0.9507308802698567
2.48828125,-0.40152643895248735,0.6561862453585637
2.4921875,-0.3144843771651726,-0.3563396865479523
2.49609375,0.35515471741257826,-0.9418237731665717
2.5,0.6307308607898299,0.9408495399404169
2.50390625,0.8147720571878123,0.5165319638433524
2.5078125,-1.0271544972728661,1.9026591363207932
2.51171875,0.4211233326226206,1.9849851766086972
2.515625,-1.4904556694334015,0.7919948132186313
2.51953125,1.4124523408768512,-1.1211346667237594
2.5234375,1.3524192740621541,-0.9582373915113553
2.52734375,0.9600109330731585,1.5760680547628523
2.53125,-1.3743296224222414,-1.6074128910073457
2.53515625,-0.6091950506983626,0.2910613439515062
2.5390625,1.3918267661730823,0.5648804174509682
2.54296875,-0.7933485148012209,-0.5437001122158064
2.546875,-0.30989791862126864,-0.028327496708824573
2.55078125,0.14979981947070467,-0.0960373460157601
2.5546875,2.228082873795254,0.9847513677194174
2.55859375,-0.19089402868569388,0.5915947659878735
2.5625,0.8559163130519053,-0.3998308795384755
2.56640625,2.525667292775938,-0.6154732283990739
2.5703125,0.9825994695313578,-0.07052967147832938
2.57421875,-0.32705487743005357,-0.693426673200553
2.578125,-0.8176918302522985,-0.4061785832697524
2.58203125,-1.319403585178596,1.0536735095847314
2.5859375,-0.8746460452764302,0.30359862959077677
2.58984375,-0.4453843811475094,-1.0698732350105065
2.59375,-1.7240639438022072,0.5148108667199305
2.59765625,0.5773452259869463,0.6304532787880617
2.6015625,-0.47988690753049834,-0.21148296832943045
2.60546875,0.0033364402441351452,-0.5493753691846763
2.609375,0.9570532615926536,-1.5554664561832374
2.61328125,0.4156578404810203,-0.9129372850941225
2.6171875,-0.2344230496913512,-0.34415536462430607
2.62109375,0.4016020549211222,-1.9188222297465691
2.625,1.509909122788161,-0.9757216144327815
2.62890625,0.5192258068661265,1.697204949566085
2.6328125,1.2984087768062242,0.38622421447770594
2.63671875,-0.36459428317080217,-0.20726358056676575
2.640625,-1.2426531794066897,0.049058929318848726
2.64453125,0.5237925674620549,-0.08865489546511354
2.6484375,-0.9682916769159456,1.2237855941737128
2.65234375,-0.38281938816631345,2.5217145399671295
2.65625,-1.1718002083413885,-0.8675354728669926
2.66015625,0.9198669156815873,-0.5707438589442599
2.6640625,-0.2511949616849595,0.7777777628822276
2.66796875,0.011277479537524011,1.8454314919945793
2.671875,-0.36453087956972857,-1.2289128309084367
2.67578125,0.790508337464679,1.0997801916369705
2.6796875,-2.7976253010970176,-1.966302169620852
2.68359375,0.2924913358970399,1.0013604188989405
2.6875,1.1568661703580152,1.7269156495036981
2.69140625,-1.058027058248754,0.9683836803259162
2.6953125,0.3845764080105851,-1.6263718168319563
2.69921875,-0.1713762985486449,1.1523051657064916
2.703125,-0.1554330310303848,-0.2656372591900826
2.70703125,0.21853922739775442,-1.5925374589933208
2.7109375,0.7167181592474355,0.12981888518119014
2.71484375,0.8216643196014035,-0.013250546949753524
2.71875,1.0529131936786422,-0.2365427766440303
2.72265625,0.791914948964316,-1.18352542534488
2.7265625,-0.8953860658512248,-0.21895916857913417
2.73046875,1.2377767651774843,-0.7926638201406866
2.734375,0.6567898452645617,-0.5889350826490466
2.73828125,-0.3499418022497618,-1.4338175932434891
2.7421875,-0.5722848398287839,0.4110219693388906
2.74609375,-1.1146052154257637,-0.9468547942097535
2.75,-0.8793906393600042,-1.7181345195067552
2.75390625,0.14913702304372092,-0.017249260787163528
2.7578125,1.0177262236692104,0.22096699103274356
2.76171875,-0.32871959158311626,1.3686993977141382
2.765625,-0.6502331915260328,-0.44961300193766585
2.76953125,0.7686412392245924,0.17579667870553337
2.7734375,-1.2071247215587362,-1.0364324988915183
2.77734375,-0.3853030659594247,0.5473504049590032
2.78125,0.08367603070456459,0.27022805223887414
2.78515625,-2.116382274897152,-0.3743499655039053
2.7890625,0.8629146397290908,0.6921667131307312
2.79296875,0.13406615665942218,-0.6089644636761206
2.796875,0.07960373840627388,1.4646247489595856
2.80078125,-0.05717969149322798,1.2791374165736529
2.8046875,0.16668992330974988,0.3767053027301511
2.80859375,-1.3781214323297268,-3.064178218392823
2.8125,0.6819673210193068,0.40191946111405497
2.81640625,-0.9465745142755332,-1.1138838481535005
2.8203125,-0.5975858174850243,-1.1984619148926907
2.82421875,-1.0134796947680973,0.7187152690755421
2.828125,-1.3372588128574374,-0.46634072185658
2.83203125,0.06323079330703159,0.738345918447203
2.8359375,-1.6888456359344326,-0.5073452278109754
2.83984375,-0.4780659854243124,-1.2689457114871032
2.84375,-1.1791839651855198,1.185857544108172
2.84765625,0.708496140997565,-0.01651503370146714
2.8515625,-1.1925002307988926,-1.538921865713043
2.85546875,-0.5114684688669283,-0.5942084394440085
2.859375,-1.0765436053552817,0.34769806810325465
2.86328125,0.11083687392240126,-0.5729361961264344
2.8671875,-0.047134595269867297,-0.39308580569283313
2.87109375,0.5898437570241408,-0.2719657380245139
2.875,-0.0789881906117962,0.8944811712819462
2.87890625,0.7054633303955056,-0.2938033280176743
2.8828125,0.9530711276994692,-0.5382362805624814
2.88671875,-0.2297828188543822,0.5021002904415952
2.890625,0.5259062132441156,0.8061409074784248
2.89453125,-0.9779733677402102,0.13973119055317582
2.8984375,0.21861219276059754,0.6562231086448345
2.90234375,1.1454273763874436,-1.6859649472218494
2.90625,-1.0289016765428123,-0.7873704357489357
2.91015625,1.9089019365466227,-1.1174621673874654
2.9140625,0.41304344217563144,-0.2788252674260724
2.91796875,0.36666608662458705,-0.2965186332443723
2.921875,0.5757213272275679,0.4189341531703063
2.92578125,-0.37209733768361264,0.7029386578659724
2.9296875,1.160162118804006,0.19436849674727016
2.93359375,-1.460558956285568,1.1657677822550976
2.9375,0.4600945330411471,-1.0123493312127425
2.94140625,0.6532976051667281,-1.408838074454313
2.9453125,-2.8493060219457247,1.7862622889381825
2.94921875,-0.3522046663216486,0.02022301344723767
2.953125,0.1062941123708404,-0.9487000931795314
2.95703125,-0.14038200975240966,-0.5378354511024876
2.9609375,0.2402992244382738,-1.0989572491992028
2.96484375,1.0401372678951297,0.5511681141159919
2.96875,0.35385803788121034,-0.6993168443009379
2.97265625,0.055778728354512565,-0.6139077061116274
2.9765625,-1.2335136471973087,-0.6492140608116161
2.98046875,0.21490623742123563,-1.1910508461181186
2.984375,0.6685865064073058,-0.5699353538552893
2.98828125,0.8142526377303656,-1.69677617228742
2.9921875,1.5770824159822072,-1.2374563940426981
2.99609375,-0.7842303606504472,-0.29021678410296986
3.0,0.7975504190421773,-0.428942772778444
3.00390625,0.23029917637971833,-0.35241021507603415
3.0078125,0.4283589228240924,2.2392435551192693
3.01171875,0.06077834656823954,-0.1919458917655998
3.015625,0.4644241100392152,-1.5145313838931989
3.01953125,0.1823677014909391,2.7544424133462884
3.0234375,-2.0087266811108435,0.19762216532654842
3.02734375,1.714803413339855,1.171973299534956
3.03125,-0.07410482593121595,1.1871094762412313
3.03515625,-1.4691051084357136,-0.43929655117371513
3.0390625,-0.010068211967491865,-0.978943954538034
3.04296875,0.48950179324382587,-0.15164902500846425
3.046875,0.21247553700630684,-1.8064291503085799
3.05078125,-1.7510367605247703,1.7926827209379852
3.0546875,0.16831921163273372,-0.015806848399576277
3.05859375,-0.8210834255276176,-0.23455152306119148
3.0625,-0.436429618325202,0.3802217770422617
3.06640625,0.5389043767006223,-0.018044074937751287
3.0703125,2.02270943110294,-0.6921522054234016
3.07421875,1.520138487137379,-1.2129378375216735
3.078125,-0.5464876316673342,-1.8838417619117338
3.08203125,0.05166957409846438,0.3076630801482018
3.0859375,0.6925112097267986,1.5275070893695761
3.08984375,-1.1399856031330085,-0.5685156766640121
3.09375,-1.5172087887471444,-1.9254754937617486
3.09765625,-0.7612394970837006,1.4164407270909811
3.1015625,0.17329881463085806,-0.07110908341801889
3.10546875,0.9225794765236803,-1.1505315922678228
3.109375,1.7311504299388474,-1.1676053600334766
3.11328125,2.5066829168339737,-0.09270272308102177
3.1171875,-0.9541608103867453,-0.36028852723112004
3.12109375,-0.9019819233395395,-0.25423875165711546
3.125,-0.7242335442990747,-0.505991684926633
3.12890625,-2.3076905511050025,-0.7111098137380936
3.1328125,-1.0107425962617098,1.2960583944083695
3.13671875,0.07825316457835564,-1.0006748959909129
3.140625,1.1767170441924,0.971871852332831
3.14453125,0.03287801041121226,0.6429889996701552
3.1484375,-0.6820206156181179,0.5742621324804829
3.15234375,-0.13946353694217845,1.2366245057522258
3.15625,0.3203931776415466,0.6988873172773171
3.16015625,-0.29241929469477623,-0.4365204528776987
3.1640625,-2.0287571954734913,-0.7503511708178002
3.16796875,0.8717712265715502,-0.4223563260191196
3.171875,0.6785243608926409,-1.0737678389672733
3.17578125,0.8735279023566876,1.3151223799461498
3.1796875,-0.38869549406561144,-0.00769538858363408
3.18359375,1.7862423179549989,0.3774882707569319
3.1875,-1.8881222245090383,-0.06586327548440365
3.19140625,-0.30753816541662776,0.8978391799349584
3.1953125,-0.4416731264637474,2.032796443757473
3.19921875,-0.21966499662458602,-0.7854309373446224
3.203125,0.1211633797782601,0.4915655197094851
3.20703125,1.3718276755482346,0.9590629322162495
3.2109375,1.375231716129709,-0.14573930638983612
3.21484375,-0.04698997080471061,0.17191945920847615
3.21875,0.7055610635085232,2.303867659262463
3.22265625,0.39693288408466315,-0.8156835289130828
3.2265625,1.0239931834560139,-1.0115268432632563
3.23046875,-0.4122198948141125,-1.5644761459159493
3.234375,-0.27074124565780955,0.6897225646475224
3.23828125,-0.18207365294888886,1.0870711663975225
3.2421875,0.8618010696478365,-0.46259942180907015
3.24609375,-0.5868030153952261,1.6798230155966498
3.25,0.3463568240091747,1.3769344650791848
3.25390625,1.1822715465037514,-1.0321814199846513
3.2578125,-1.075141471753031,0.2667269111248996
3.26171875,0.7300509437049859,-1.11707583426122
3.265625,1.1329943189465552,0.16607053400735278
3.26953125,0.8094182728174348,0.29697924220958033
3.2734375,0.3206454771888612,-1.4094588655243483
3.27734375,0.41168979367296943,-0.19555399551859567
3.28125,0.47469432510982146,0.19938954921075538
3.28515625,0.3808242219963463,0.3613430185572445
3.2890625,-0.23550274600277943,0.047162211643195014
3.29296875,-0.22760588938818055,-0.3170120176025627
3.296875,-1.5362121638104584,-0.17889797697902537
3.30078125,0.8249715800018482,-0.8108175089581028
3.3046875,-0.36970564238912823,-0.05074293049784887
3.30859375,-0.8475619275772776,0.8638230425226981
3.3125,1.1301729742800253,0.03483660188579462
3.31640625,-0.15508702455209317,-1.0739911267941002
3.3203125,0.5081769772008717,0.2904452646078273
3.32421875,1.2781770232635674,-1.1057698283044781
3.328125,-0.4866615951314928,0.886784674401307
3.33203125,0.9337824439005088,0.44355150794002607
3.3359375,0.7278503356639195,0.08162237835139663
3.33984375,0.9323940042870112,-0.9218153894861119
3.34375,-0.7389670615970868,0.8688994197730147
3.34765625,-0.7521930506260902,0.14603207114037836
3.3515625,-1.0357013962548558,-0.12634006602537656
3.35546875,-0.19537147531726323,-0.9440013230062959
3.359375,1.3933040507460839,-0.37979395773596225
3.36328125,1.7257322245452487,0.9582218057423955
3.3671875,-0.9615591845246917,-1.043054883731144
3.37109375,0.9140508401305995,0.7184973940526167
3.375,-0.5355937431575295,-1.2362990093273096
3.37890625,-0.8819386334264256,-0.5988267106222132
3.3828125,1.264228967191014,-0.5916943997626797
3.38671875,0.015626055379959338,0.17108047786814404
3.390625,-0.7970736975650364,-0.777625593983316
3.39453125,-0.016894016979985542,-0.1386254001510345
3.3984375,-0.19033694336763965,0.665220046946146
3.40234375,0.718675743212831,-1.4523080480125332
3.40625,-0.14514285914262318,-1.8925644168337719
3.41015625,0.34947066408518296,-0.7167243104118811
3.4140625,-0.23390252434657352,-1.3276174357754558
3.41796875,-0.5553152603941947,0.8402444428056457
3.421875,0.45537167690923697,-0.12771564789042528
3.42578125,-0.47278227711823806,1.4577070391632132
3.4296875,-0.8005471480648302,0.3489250650223817
3.43359375,0.3449477467866913,0.5400433628726113
3.4375,-0.5456243629301757,-0.11285296329523598
3.44140625,1.747591610699325,0.0004933128604655659
3.4453125,1.286624144072389,-0.45519910064444685
3.44921875,2.7765052839556477,0.9458983364066111
3.453125,-0.10309593801491551,0.022248252253199718
3.45703125,0.9966013194736919,0.3035294369785115
3.4609375,0.3523448380672481,-0.6897441948714484
3.46484375,-0.77565845046092,0.26378291391934516
3.46875,-0.5956537941780765,-0.7564164655006779
3.47265625,-1.5319481546409164,-1.689349218180868
3.4765625,2.8227334900016934,1.5755217005739401
3.48046875,-0.7538924025423674,-0.8179557824689622
3.484375,-0.705979068323557,0.02982505599534045
3.48828125,1.7776060163457426,-0.872051422510481
3.4921875,-1.2368172347074033,-0.6642446714846184
3.49609375,0.4145136915189092,-1.5789110772776775
3.5,-0.3472208047562352,1.3920249834124485
3.50390625,2.0050937166955816,0.47696165731208845
3.5078125,-0.3610003005786243,-1.2516021444671488
3.51171875,0.747340436182963,-0.07430063482599317
3.515625,0.3248384467238205,-0.03387210689824553
3.51953125,2.0373406083140644,-0.10615160013663734
3.5234375,2.232352941934739,1.4920660193717168
3.52734375,-1.2781166047802177,0.055655800176498404
3.53125,0.6262574347199018,1.6547525163017223
3.53515625,0.4325252402089573,0.35826196571605484
3.5390625,-3.3601873085803486,0.4739928927791026
3.54296875,-0.4335540696040176,-0.3435295893938644
3.546875,-0.7417867513093795,0.7099726541046258
3.55078125,-0.29521556934015203,-0.06781600171310698
3.5546875,-0.34623396664952083,-0.9777689243759847
3.55859375,0.8396662651532678,-2.2599384524757373
3.5625,0.8085728516743139,0.579615184081377
3.56640625,1.3810846354295012,1.1309443099907244
3.5703125,-0.7022933252645414,-0.04442133317691524
3.57421875,-0.9244775258740315,0.9173138535770811
3.578125,-0.09090223780848125,-0.2903345754163762
3.58203125,-2.131782205521647,-0.18450445629672202
3.5859375,0.5355730394609816,-0.001331032154392864
3.58984375,0.7423166419782566,0.4409816838021013
3.59375,-0.033160801537348364,-0.05959155261832748
3.59765625,-0.11077457922312296,1.4092170279930574
3.6015625,0.13567112390464767,-0.11246757675137647
3.60546875,-0.3191578547249142,-0.03359927195350751
3.609375,-1.0493458507882005,-0.5260521556696681
3.61328125,-0.4743853466211961,0.34716030552724847
3.6171875,0.8242949405348357,-1.077685662058587
3.62109375,0.49620188797185827,-0.5263803849784006
3.625,0.4311691646201378,0.27653678491282985
3.62890625,0.47540719961501177,-1.4206447875882733
3.6328125,-0.6515917029179726,-0.28499613881187774
3.63671875,-2.142085539965758,0.3631331052615403
3.640625,1.2684167818289116,-1.5339746294019243
3.64453125,0.3124271869433575,-1.5145491718387378
3.6484375,-1.2167924465801414,-0.46446005274450425
3.65234375,-0.5463413358549325,1.7541307159808825
3.65625,-0.8663044246995957,0.9450509882142759
3.66015625,-0.5499788118722369,-0.36597227484023104
3.6640625,1.4922525646638856,-0.7383278489004921
3.66796875,0.22687815049015553,1.076793245958272
3.671875,-0.7976994022415029,-0.9851056178101198
3.67578125,0.5854672224750822,-0.753944967756562
3.6796875,0.7089502807402613,0.32305256955093964
3.68359375,-2.1429661464488983,1.7020236653640308
3.6875,0.3587321870684807,-2.0481581846919092
3.69140625,-0.4020107240756604,-0.6956698517294597
3.6953125,0.13411351028793664,-0.019563738269057593
3.69921875,1.701564306411088,1.632531695888561
3.703125,-0.5011816225335586,1.5518855245111436
3.70703125,-0.1824817041860977,0.6635272072894448
3.7109375,-0.34501371475535014,0.6873299159870746
3.71484375,1.6707406477247797,-0.22664056849692546
3.71875,0.9578814294266832,1.2407198682277527
3.72265625,-0.6936834825122564,-1.943033435476537
3.7265625,1.189357583864287,0.3246823469010962
3.73046875,1.2056779036435357,1.701792803675894
3.734375,0.5760011937716834,1.6990865255541305
3.73828125,-0.395633943178172,0.8777198018691059
3.7421875,-0.6446914505073161,-1.2590286512887783
3.74609375,0.3226378474680731,0.17712296445401157
3.75,-1.2095416004626947,0.7419647397963731
3.75390625,-1.7546796990347253,1.4401202927760697
3.7578125,1.785285899166719,-0.291948130923848
3.76171875,0.7072927902273691,-0.15216251219895927
3.765625,-0.4247972792142589,0.15046296034669737
3.76953125,0.03916556518001706,0.6757275627799028
3.7734375,-1.3595664402418246,0.32460585083240234
3.77734375,-0.12708156354388406,0.14312356964841658
3.78125,-1.2572535582537399,1.043417251032652
3.78515625,-1.798634143838021,0.2691813607576654
3.7890625,0.40847324766646037,-0.49331701575950443
3.79296875,-0.9151076911044189,-0.7821806932374928
3.796875,-0.8939314895373902,-0.7574255727077756
3.80078125,1.611974923754806,0.45613581777914664
3.8046875,0.5139654617186002,1.9222249761585104
3.80859375,0.5624741629658566,-0.9881427733239749
3.8125,-0.8799081325431377,0.9481868661155924
3.81640625,-0.58162282134184,-0.23065400546173018
3.8203125,-0.9442914674552492,-0.129085697782021
3.82421875,0.19302611178072354,1.734141106997369
3.828125,0.40368897820326144,0.46071751860787186
3.83203125,-0.4434496224943547,0.4644604009894186
3.8359375,0.5166442424140594,1.6497938171290236
3.83984375,0.7874331390710825,1.5963103407069377
3.84375,-0.027995224936180823,0.998377180383187
3.84765625,1.060364531010089,-1.9536015718110018
3.8515625,-1.2748655781138327,-0.3914621184453605
3.85546875,-0.671655734527655,1.1249526583878189
3.859375,-0.46901899525084684,-2.2677782959130544
3.86328125,-0.7344384055592875,0.8067679481636117
3.8671875,1.205510442034625,0.21844807981150438
3.87109375,1.4820347858033522,-0.227358110064686
3.875,0.589117717869308,-0.9846997659227067
3.87890625,-2.0441092665686638,0.39544285703465865
3.8828125,-0.5006130090621976,0.7722727310731403
3.88671875,-0.18742145825275033,-0.001917953866523092
3.890625,0.14720245561143586,0.3820693004085188
3.89453125,0.2128201218650674,-0.19114221772592896
3.8984375,1.5795377576862752,0.06345964268933715
3.90234375,1.5646286407201795,0.7280081502843168
3.90625,0.9554015725414272,-0.9879910143781568
3.91015625,0.10809051891515802,-0.12632113862587296
3.9140625,1.5463920101418487,0.04551350860679234
3.91796875,0.5496728617844053,0.9527435049195909
3.921875,0.8315836397974923,0.5732104561451902
3.92578125,-0.3330741551457691,1.168409752042519
3.9296875,-0.6333331909943374,-1.7289443908155975
3.93359375,-0.10402652712025585,0.23725254861977416
3.9375,1.1946662016313283,-0.4200509016618177
3.94140625,1.6528766683699556,0.8319483967303932
3.9453125,-1.645653056810238,0.211215689258819
3.94921875,-0.3587233993808311,-1.3364954183573734
3.953125,0.5689252663242448,-0.5150980563660856
3.95703125,-1.3667202643920615,1.2528772123962886
3.9609375,-0.22880978694497667,1.4933392600425905
3.96484375,0.5905964456853381,-0.15809560079725385
3.96875,-0.027757475714736888,0.17098204071616602
3.97265625,-0.3414435982975005,1.803778076886039
3.9765625,0.35162606398009,-0.0970616811326851
3.98046875,-0.2510627516648214,-0.6773716918581625
3.984375,0.4715010299448971,1.3298579210636992
3.98828125,1.3901358727702435,-0.2550610732207511
3.9921875,-1.6091730846596801,1.2152225542377273
3.99609375,-0.3566356215753294,0.12189946507773235
4.0,-0.08452800971338571,-1.5294104703898943
4.00390625,1.6333996683074803,-0.523631431326159
4.0078125,-0.02303597285964052,2.776265697187967
4.01171875,2.1568947132997316,-0.352605141694327
4.015625,1.1541431618203675,-0.7765742976205787
4.01953125,-0.3111722396484214,0.07484555272009118
4.0234375,-2.3327553105031256,0.6077226433707118
4.02734375,1.0007390691813296,0.38602752063132756
4.03125,-0.33241298835502275,0.2342347881929289
4.03515625,-0.3149229995201601,-0.6369911466897715
4.0390625,0.561857442346895,-0.2612435091632854
4.04296875,0.33375363230308747,0.13064619891858453
4.046875,-1.2029045107414493,0.8933973203427827
4.05078125,-0.5440038526170902,-2.419836521818199
4.0546875,-0.31350332546265836,-0.21075636834150013
4.05859375,1.2287089523058854,-0.013970777404168539
4.0625,1.131216048726304,-0.5641173395623192
4.06640625,-0.6547418242604899,-1.5000068294612214
4.0703125,-0.10386087974989816,-0.39174146536838195
4.07421875,-1.852573061668654,0.16957308847609495
4.078125,-0.7870106253555474,0.0978005088893612
4.08203125,-0.39999725091368293,2.172994248804457
4.0859375,0.891323290078288,0.2181811168123582
4.08984375,0.07415209922105796,1.953321211328958
4.09375,0.3504354497757112,-1.5715477562397482
4.09765625,0.998774221971994,0.2738271985792333
4.1015625,0.08474665525414336,0.6377343331389542
4.10546875,1.342574171214846,1.2000787201352856
4.109375,-1.527961392052564,0.2809856834593036
4.11328125,-0.4264934610765403,1.3433416897273196
4.1171875,2.7674818553856824,0.00784890812417758
4.12109375,-0.23456561816706803,1.384589467663215
4.125,-1.627808919502167,-1.309467755806495
4.12890625,1.3950767986760173,-0.5486295530858667
4.1328125,-0.26861550398965445,-1.4784058330474295
4.13671875,-0.0021179925194586644,0.4363550837077148
4.140625,-0.02148818499660218,-0.033209842294662124
4.14453125,1.00084466922226,0.001044333341118807
4.1484375,-1.2043285966294133,0.9551085453096333
4.15234375,0.3315379470723149,0.3934095265738761
4.15625,-0.522300689783004,-0.9402602732876153
4.16015625,0.010465928339747922,-0.29351697620276784
4.1640625,0.7299372993244904,0.9360494315006782
4.16796875,-1.7600667356685855,-2.84239943011493
4.171875,-0.5094397668113944,-0.649872784115087
4.17578125,-0.2664870671410013,0.7458235958495609
4.1796875,-0.07115384978437743,0.8438523808485909
4.18359375,-0.5085432238532489,0.8382127133882733
4.1875,-0.3213811984762902,-0.6895668535301578
4.19140625,-0.23040291045658595,-0.2485789349837786
4.1953125,-1.6462477162469513,0.7438727127884954
4.19921875,-0.40009269596138686,-0.8486602840240232
4.203125,-0.010288193978407354,-1.1904631204594898
4.20703125,-0.7591599686927408,2.0580683924159398
4.2109375,-0.25366451827785147,-0.12443571916762242
4.21484375,0.5010176641985292,-0.02007107160654644
4.21875,-0.8211562509220047,0.49718053527579315
4.22265625,0.6509168466582752,1.4597162621220088
4.2265625,1.6017912056877026,0.17905902205863164
4.23046875,-0.812422666284063,0.007069804631871078
4.234375,-1.8573988330040114,0.7782655532959918
4.23828125,0.9185783355431932,-1.681746071797056
4.2421875,-1.3450126629458672,1.901724688091037
4.24609375,-0.4039559842938963,0.4427238314092469
4.25,1.8766256271851558,0.7745403908313254
4.25390625,-0.6467441282903792,-1.3282501706811463
4.2578125,-0.35392151968203966,0.1707189045198314
4.26171875,0.26015182909889273,-0.1337428294296646
4.265625,0.2277482651461094,0.40013217584061145
4.26953125,0.31905751699819784,0.4170638910374865
4.2734375,0.7780405267077364,0.39270739852037945
4.27734375,0.9047789768974699,0.777424142287055
4.28125,-0.7894276363264332,-0.7574009103397954
4.28515625,0.07272883654155705,0.027232399458474655
4.2890625,-0.5085337928876211,0.7333223265037164
4.29296875,1.240469178721288,-0.07568928391015209
4.296875,0.07248087199869205,-0.3454357456219965
4.30078125,0.1780141912271472,-0.15215615913899153
4.3046875,0.6762121525579069,0.8762573248538059
4.30859375,-0.53321631593051,-1.0300165573138214
4.3125,-0.9832744223746606,-0.8705238534342004
4.31640625,0.5138674710511583,-0.4768193764924325
4.3203125,0.8584077250590221,-0.8525697419159723
4.32421875,0.5044438783735695,0.04614855642652162
4.328125,-1.4176783470991514,-0.8586688586345126
4.33203125,-0.15473134212736342,0.3599767089859491
4.3359375,-0.4412678334364572,-0.3880273261850801
4.33984375,-1.2646864259553106,-0.0663431291388645
4.34375,-1.4532225055433339,-0.21879567572313222
4.34765625,1.4837832082566644,1.1671076041940478
4.3515625,1.1296266542378308,-1.860143171375995
4.35546875,-0.05151239120077706,-0.02744639355414084
4.359375,-0.3137715596677145,0.017923594726742806
4.36328125,-0.14959671087904916,0.2783228275553897
4.3671875,-0.5593102068061112,0.022965712067831927
4.37109375,-0.5636337176376084,-0.4609389164391139
4.375,-0.12384532895846405,0.03029063983261163
4.37890625,-1.2767147320924956,2.281068143408617
4.3828125,1.0014059692806938,-2.6666952607705134
4.38671875,1.203319319605972,-0.20100192456915414
4.390625,2.101880059184279,1.7405766631627035
4.39453125,0.19804299426487906,1.4889115657564085
4.3984375,-0.006825266024633899,1.2746365453978485
4.40234375,0.6309314207896698,0.3172646703645375
4.40625,0.23867936876739967,-1.8992061452091553
4.41015625,0.7285871051873452,-0.11917672843693411
4.4140625,-0.2696420999611915,-1.5583178625919953
4.41796875,-1.5620431440848666,0.8980273508329989
4.421875,-0.17966155504697348,-0.3191704546510827
4.42578125,0.44179079014784867,0.4920441244843319
4.4296875,0.010834052543082706,0.2461395915923153
4.43359375,0.2304971641160665,-0.5404232087548004
4.4375,-0.39561505587673207,1.5511709377340215
4.44140625,0.9090621020116814,-0.43025245599350753
4.4453125,1.1850091376973375,-0.6569797653040492
4.44921875,0.4294743023831226,1.2032508539464175
4.453125,1.1785994419373569,0.42158688391621457
4.45703125,0.04398167699208678,-1.3801905961552772
4.4609375,1.9605734791000966,0.10456018388140904
4.46484375,0.8703615587804261,0.08208672405251598
4.46875,0.24070909212934238,0.08416718087064617
4.47265625,0.7241106037870385,-0.24022765542263683
4.4765625,-0.4020066181365523,0.3858706377822313
4.48046875,1.8706673803223877,-0.549612620175152
4.484375,0.1971577030683113,0.2589104798000019
4.48828125,-0.027212007091628146,0.6174110516559291
4.4921875,-0.7821802287690867,0.36919404103626535
4.49609375,-2.083631884901445,3.335120429435304
4.5,0.7033694429874507,-1.1006229228938094
4.50390625,-0.6297306033866873,-0.10570380279151154
4.5078125,-1.185528072155211,-1.2067590118418445
4.51171875,0.15496889695745056,-1.7977048361187897
4.515625,0.6120337445456143,0.6076560868908778
4.51953125,0.024977650124384947,-1.086875016047254
4.5234375,-0.08374278188755836,0.04206196905134197
4.52734375,-0.41160205143017004,1.0236635610685876
4.53125,1.0314211950697503,0.03575046428769382
4.53515625,0.942041400744339,-0.45413378346427796
4.5390625,-0.3744861524967293,-2.27673232159397
4.54296875,-0.36017767864697087,0.44131610182137687
4.546875,0.14908790974806402,0.765341372076136
4.55078125,0.28606295151666483,-0.19287320346910922
4.5546875,-0.8662764580202533,0.5713838596486547
4.55859375,-0.08230136511560526,0.17612084329111904
4.5625,-0.9370317058229137,-1.027192194451656
4.56640625,-2.830587269046002,1.3560765951268652
4.5703125,-2.14290211197483,-1.8394846576963941
4.57421875,-0.9366366304927429,0.3940265680226661
4.578125,-1.4440836412846154,0.036341575963298144
4.58203125,-0.3863567086091124,0.21732715084612478
4.5859375,0.5362296455835112,-0.6211045656685734
4.58984375,-0.4768111534088798,0.6309728366278372
4.59375,0.4446390810498915,-0.5512347442234953
4.59765625,1.7519463956608485,-0.726702905965216
4.6015625,-0.0407723451177077,0.6453497281837348
4.60546875,-1.581759833523343,2.263709877666884
4.609375,-0.6653881616713091,1.038818683165337
4.61328125,0.4954960567425648,1.1112480216520964
4.6171875,-0.13621680458706745,0.6995113467832155
4.62109375,-2.0494196551653836,-0.13822084950516692
4.625,0.683391457114156,0.6381184930860906
4.62890625,0.37000804692489186,-0.963678464140571
4.6328125,1.0666240549916046,-0.7988441839660577
4.63671875,1.7826479840489449,-0.8589218196922118
4.640625,0.6082725333909967,0.1789172778745376
4.64453125,0.41498407187267733,0.1575931109720987
4.6484375,-0.7195331177658634,1.8927269426668465
4.65234375,1.0754468091175826,0.13032913001177737
4.65625,0.5662130149002897,0.7970715501065383
4.66015625,-1.0697766670270559,-1.5609582801390915
4.6640625,0.2989471197356546,0.7937458944253087
4.66796875,-0.13308028763598553,-0.5480641248355685
4.671875,0.6016909471292837,0.1732720807790885
4.67578125,-1.2628076586265622,-1.7540965651397278
4.6796875,1.2565857739088198,1.6699372173138902
4.68359375,1.8113099285607868,-0.43066186046732424
4.6875,-0.7268342537662503,-0.865851998833012
4.69140625,-0.8133753781560185,0.9509286745599264
4.6953125,-0.04435873223995477,-1.488834658261966
4.69921875,-0.5371017343709623,-1.2910969196851967
4.703125,-0.1763695843704392,0.8349618703543255
4.70703125,-0.6616950527940975,-0.7220397406614488
4.7109375,-1.4134672762880498,0.7094445847056021
4.71484375,-2.0636740450854574,0.6017053029458231
4.71875,1.9763466332793027,0.1672888870844668
4.72265625,2.3093920616503,-1.7790963578815329
4.7265625,1.3831513266206361,0.9298690356660174
4.73046875,-0.5708841094512742,0.3735687063479623
4.734375,-0.38000791293018343,1.6656637429410468
4.73828125,-1.1314923470273235,-0.273811219419696
4.7421875,1.095797119626175,1.641257177376116
4.74609375,0.6359615405258587,-0.4619369230070619
4.75,2.6531864003730616,0.8750799308433903
4.75390625,-0.002783054923484057,-0.299713276577489
4.7578125,0.033097727844942214,-0.25841967311366987
4.76171875,0.7401318339933142,-0.42712708435329416
4.765625,0.1649851104962542,1.0645371982491638
4.76953125,-1.4216499743798736,-0.2929436063357754
4.7734375,-0.053852145059756794,-0.6285108672053343
4.77734375,-1.3454616948998137,-0.6238180312231887
4.78125,0.15931289456830422,-1.0183539390295555
4.78515625,-0.5278279053793177,0.10748548125128445
4.7890625,0.5892954419299674,-1.5309908607611202
4.79296875,-1.5704156452228513,0.2873939622797522
4.796875,-1.544534688912101,0.24347692886038758
4.80078125,-0.9754826266939012,1.538451797468042
4.8046875,0.7326149037157818,-1.4616830679412511
4.80859375,-0.4750598590508235,-1.0544656330218216
4.8125,-1.7271647102660226,0.3851038187826454
4.81640625,0.8050711930331147,0.32220956045803556
4.8203125,-0.7376984838172038,1.3637783850076592
4.82421875,-0.9239031609692083,0.13621829239916897
4.828125,-0.42652210974393356,-2.803798199482004
4.83203125,1.9226626792699189,-0.8775352073191264
4.8359375,-0.7467759715755019,1.4918542576251677
4.83984375,-0.07403711181235578,0.177264804534278
4.84375,-0.0744606381767967,0.1310436501349819
4.84765625,0.6143357014312519,-0.2095804406185279
4.8515625,-0.7793839298223934,-2.1114622223450987
4.85546875,-0.7194899756600106,-0.4296963222715676
4.859375,-0.5619296413119561,-0.2786956794215852
4.86328125,-0.3521162757103254,-1.0302528805221598
4.8671875,0.8395735789758132,-0.050512461857218034
4.87109375,2.041206411707125,-1.2107058994075506
4.875,-2.0752466643467558,-0.5942826159373027
4.87890625,0.0439866207682401,-0.8969158778842812
4.8828125,0.38720651447517096,1.2155588550267613
4.88671875,-0.38162629215253774,-1.4623525270975906
4.890625,1.2557242198189065,0.9986440788190504
4.89453125,0.7363729774413601,-1.519326186516527
4.8984375,0.3553412998098026,0.36722557168172437
4.90234375,0.6492918007808561,1.9576861674962245
4.90625,-0.15673268574592528,-0.6930611923163873
4.91015625,0.8732537686346366,-0.7801957647771974
4.9140625,-0.38637570232719415,0.9155563134678141
4.91796875,0.747481160795218,0.43125514452406377
4.921875,0.39448935021801207,0.42127920965580545
4.92578125,1.3184328670220415,1.6561960099623658
4.9296875,1.0187731700471245,-1.4378330366839278
4.93359375,0.885111978772115,-0.7822047403399502
4.9375,0.8581238264877109,-0.7928269557353766
4.94140625,0.37983384260298136,0.8647875669689793
4.9453125,-0.24949501157557988,-0.949305814553076
4.94921875,-0.9793652481119529,-1.0322389087112351
4.953125,1.8777491325265856,0.41978336113821957
4.95703125,-0.48144923961529723,0.640588518140864
4.9609375,0.6764243706328484,-0.3159906520005512
4.96484375,-0.4364810784699638,2.4147532658460635
4.96875,-0.23953654394942753,-0.5438015702510899
4.97265625,-1.2498262730430567,0.3102326908391581
4.9765625,-0.754992642419173,-1.44691330048843
4.98046875,-0.9514698467936669,-2.1299740686590036
4.984375,1.773910889612584,2.7081375088749238
4.98828125,0.536439472534283,0.3865197454838484
4.9921875,-2.3300322322783833,0.5315009990306844
4.99609375,-0.2498487674536109,-0.06657575751713925
5.0,0.11414211463965286,-0.6395449005886904
5.00390625,0.8499252302454099,-0.525399314488112
5.0078125,-1.4655769308503266,-1.3694522169472059
5.01171875,-0.1905949612807102,0.415675680872338
5.015625,-0.7673801835114652,-1.605641642905277
5.01953125,0.24866047301154476,-0.002263969835000169
5.0234375,1.2343832571114723,-0.8456385748961066
5.02734375,0.46832068432258367,-0.5845369068137765
5.03125,-2.986174790751652,0.867074303099773
5.03515625,-1.8651291637468013,-0.12846505044950873
5.0390625,-0.32125635805351754,-0.9670722367467555
5.04296875,1.2337270641017641,1.4453195458561425
5.046875,0.7071727862159047,-0.13594406681577118
5.05078125,-0.38623652773814837,0.8621577135071645
5.0546875,-0.30126205688551766,0.2062748437572769
5.05859375,1.4112599306265792,0.2631799719278975
5.0625,0.09670038406700003,-0.5071293278719696
5.06640625,-0.5982932249334111,0.3155327218161581
5.0703125,2.541845669588844,0.49737249379062604
5.07421875,-0.5102381698204487,1.3032643434718902
5.078125,0.24425203583955743,2.4934742544222797
5.08203125,0.8697235761530409,0.0988002475310704
5.0859375,-0.9509696944094785,-2.4185197835352694
5.08984375,-0.17064236058413706,1.4504954549712845
5.09375,0.7318035565749108,0.17318784729130418
5.09765625,0.2777558019911818,-1.128142277302111
5.1015625,-0.47109831504140487,-2.5497489087066847
5.10546875,-0.10824246694472979,1.6313622703132833
5.109375,-0.5513090125763762,-0.9665408615719285
5.11328125,-1.900037731042841,-0.6572234179283388
5.1171875,-1.1205272182261172,1.3316353135116155
5.12109375,1.5906027951861865,1.1307337278950864
5.125,-0.6562920807086561,0.12963283045231605
5.12890625,-0.24442023826766326,0.10030510987232512
5.1328125,0.5521769401925346,-0.3418091564029337
5.13671875,0.5196956001302613,-0.0093873181923479
5.140625,1.3706962596709817,1.346224324212454
5.14453125,-0.9821852420965367,-0.3406834698316991
5.1484375,0.019717563300313636,1.721884582962084
5.15234375,-1.082016369434407,-0.5289991669859122
5.15625,0.6427803525482539,0.20232561546148337
5.16015625,0.8705359401766443,2.1212977071455095
5.1640625,-0.5682826432759089,-1.5473827015295905
5.16796875,-0.6818086361549381,-1.4966889728481738
5.171875,-0.6148434929015721,1.157563382091544
5.17578125,0.4039428156211376,1.2588184971756609
5.1796875,-1.653914007594195,-1.4727697869730043
5.18359375,-0.15488786655073533,-0.0610657429154569
5.1875,0.10563574244962746,0.5509900278681671
5.19140625,1.5445034781692542,-0.043193225912804147
5.1953125,0.04649019810488571,-0.7362748312159569
5.19921875,-1.3725807420843383,1.027580634959203
5.203125,-1.1895894183668694,1.0119850997556774
5.20703125,0.7140995017211426,-1.5258119070025362
5.2109375,0.1998428709608384,0.2827385461146012
5.21484375,-1.471825347635053,-0.9491611034849154
5.21875,-0.3775734188155653,-0.2298226004925547
5.22265625,0.34655037801221783,-1.8478356491550396
5.2265625,-0.06574651094568809,0.14134239856199887
5.23046875,-0.8057100986090469,-0.9342465807334447
5.234375,-0.1670710425830744,0.5733313312356095
5.23828125,-0.7063418647670121,1.8253539305011077
5.2421875,0.49149357598791654,0.13896492354711062
5.24609375,1.2224882308415042,0.33078917801450197
5.25,0.43902352270584966,-0.3072751568058054
5.25390625,0.10589611747935923,0.3934882857536756
5.2578125,-1.132609709433197,-0.7889068662539209
5.26171875,-0.10877449028267953,-0.13295678673551717
5.265625,-0.3702184880897627,0.39555170405232526
5.26953125,0.37435707890082964,-0.16750881931526956
5.2734375,-1.2331410327124313,-0.48235273296973635
5.27734375,1.49314391618233,0.669434592477335
5.28125,0.4698405735571025,0.05925079226993941
5.28515625,0.048399029879156334,-0.08117050597385937
5.2890625,-0.20634255721878472,-0.025992769139509264
5.29296875,0.06041620586079874,-0.7916524630186722
5.296875,-1.3008461713112538,0.7841827608492533
5.30078125,0.8444657577815182,0.6217829264533942
5.3046875,1.7321747310300828,1.3984468753597843
5.30859375,-0.11988574163862398,2.0536290223950138
5.3125,-1.0651547622285908,0.19990492000698468
5.31640625,-0.5275673918243291,-0.7165216284547856
5.3203125,-0.23378351028816047,0.1091492985653438
5.32421875,-1.1752474267110458,0.9045680157508039
5.328125,-0.11578150932722449,-0.2399005477470443
5.33203125,0.14794446210760395,-1.7930510487539568
5.3359375,0.3612076693147586,1.0798291080489535
5.33984375,-0.8151170723620162,0.40517903539410904
5.34375,-2.464871803210127,1.1318007733362143
5.34765625,-1.2868984604307507,0.16847208502268096
5.3515625,-0.3661554234573711,1.011830533153564
5.35546875,-0.08129479171684699,0.17802541611849274
5.359375,0.4111165164549548,0.46514720942872717
5.36328125,-2.044152165218061,1.317853886032341
5.3671875,0.7070685117446113,-1.1248169033636735
5.37109375,-0.33714491430111937,0.8811590265887053
5.375,2.3259462654749883,-0.8162563426214681
5.37890625,0.25393067513050444,0.6431503887091972
5.3828125,-1.1109306758749753,-0.5508847281801924
5.38671875,1.0582709669223926,0.22763999902652565
5.390625,1.5888265736035652,-1.198279147808424
5.39453125,0.14528660414390923,0.5740214775744169
5.3984375,-0.6164192370808088,-0.37305807571867744
5.40234375,-0.7915754269722586,1.0738500432172093
5.40625,-0.041214678887205786,-0.593236830872906
5.41015625,-0.3172446514582875,-0.2223992127924238
5.4140625,0.09781872549101123,-1.7794213942289003
5.41796875,-0.8352249019698825,-1.8319626498815316
5.421875,1.2974139841318595,-1.6643395743837828
5.42578125,0.08209586910347987,-0.6324405115822271
5.4296875,-0.7262944071619399,-0.07289747492350863
5.43359375,-0.7665554581254715,-0.623390629635439
5.4375,1.143828251221994,-0.8357983580651578
5.44140625,-0.792151585036649,1.0718498289909988
5.4453125,0.8027414078951672,0.9109048982648587
5.44921875,0.6780324053085579,-1.3002236853428764
5.453125,-0.8048228316945719,1.3951472576489397
5.45703125,-0.1094961116014365,0.4522875369607615
5.4609375,-0.7891251208886239,-0.32000171032857866
5.46484375,2.005128611266966,-0.5239683571484303
5.46875,-0.8259123046300813,0.39793998836299627
5.47265625,-0.333148183868724,0.3244905557615946
5.4765625,-0.3600662516170667,0.2665771730013424
5.48046875,1.8621191371515988,0.031145770535552102
5.484375,-0.23638784815193442,-0.11777717874704685
5.48828125,-0.08245038623377644,0.13403297617769155
5.4921875,0.2250239802074774,1.1874953907809407
5.49609375,0.4594015433096365,0.04584909564476805
5.5,-0.8325022857192451,0.03237952827156663
5.50390625,-0.1749042780678407,1.054578145936575
5.5078125,-0.42267560818402483,1.361002023481592
5.51171875,1.480440635020322,-2.4081248963889514
5.515625,0.03355739300596946,1.4564828592016374
5.51953125,-1.8590516439552682,-1.2311558028988925
5.5234375,1.2831262875227205,0.17432301482619417
5.52734375,-0.14686114966310426,0.8085775581413696
5.53125,0.9875243850369877,0.43913101377313735
5.53515625,0.18719483405819864,-0.5211413117288392
5.5390625,-0.9950855146506575,0.5285058895264406
5.54296875,0.11676393827913246,-0.8675802827454157
5.546875,2.0789312950750882,0.17905839044693672
5.55078125,-1.043843708481529,0.04622875026242174
5.5546875,1.4232838223630824,-0.5700750938672404
5.55859375,-0.06788276218750523,-0.9889974867283725
5.5625,-0.7158334327404003,1.0788262117657916
5.56640625,1.1879213766594463,-0.30506891749220516
5.5703125,-0.7484610740369394,1.884182636805084
5.57421875,-0.06996089033840439,-1.153466756588029
5.578125,-0.09647122612771296,0.38324104848261376
5.58203125,-0.6583883558713555,-1.0856884657635255
5.5859375,-0.6524817902630491,0.16849377505666166
5.58984375,0.49085284853293365,0.9278845943701323
5.59375,-1.1265331682103275,0.9973912817625386
5.59765625,0.03178682958955964,0.7376484324491747
5.6015625,1.6908823342190615,-1.2689575405229618
5.60546875,1.6208764242895026,0.734280196440898
5.609375,-1.0295663656657463,-0.8779767538725919
5.61328125,-0.2631336555235503,0.3578004058460368
5.6171875,0.9774168174065089,0.6257164099977175
5.62109375,1.0364677921638543,-0.9780372603828725
5.625,0.6995829806131169,2.0532630196631416
5.62890625,-0.1625038459540832,-0.3616875433638599
5.6328125,-0.29483239248864723,-0.30788527889385076
5.63671875,0.7817061377205213,-1.2107245593766762
5.640625,0.24560995071163155,0.5866739258251679
5.64453125,-1.3885120350441598,-0.8624765058822139
5.6484375,-1.8046956132456127,-0.515229758891135
5.65234375,-0.14732310662111542,0.1326740827234701
5.65625,0.014182173935157671,-1.3776922338051938
5.66015625,-0.298799080352004,-0.9921337962738631
5.6640625,0.9822351665852607,1.3761916055665586
5.66796875,1.370422439026412,-0.9161504461666498
5.671875,0.017724010466359474,0.4056411103926355
5.67578125,0.9810565607974362,-1.7513866946003047
5.6796875,-1.231883626377311,-0.771069413835759
5.68359375,-0.14616388875652075,0.24523823761691624
5.6875,-1.332643069928062,-1.0921318116238776
5.69140625,0.39613851401402495,0.6011139706218857
5.6953125,1.6431287603931273,-1.7589881923421686
5.69921875,-0.7502977921971885,-2.887080606272973
5.703125,0.5162438700204585,1.1023208278632686
5.70703125,-1.0984600011693955,0.22020230119391404
5.7109375,-1.2200675730083506,0.4919872216729072
5.71484375,-0.4108175290171912,-0.895816795680159
5.71875,-0.8460171747261909,0.20679069544809084
5.72265625,-0.3779087457426592,1.152861742675864
5.7265625,0.6170408703955285,-0.942010979036477
5.73046875,-0.30638541541509434,-0.4096199072868917
5.734375,1.2869332712219788,1.2368853560557103
5.73828125,0.25908514567938157,0.3902720501303573
5.7421875,-0.7622696381557599,1.2700346220871737
5.74609375,0.30248995257611283,-1.9310663392865421
5.75,0.43929743239674857,-0.6067237505422086
5.75390625,-0.5361790659015041,-1.8222710153354889
5.7578125,-0.33903427179047246,1.6313199527665967
5.76171875,0.5085089080596121,0.6143067731824146
5.765625,-1.175419210392865,2.251195979023299
5.76953125,0.5897295406328975,-0.6997672998873041
5.7734375,-0.5832116866128111,-1.6416457481473248
5.77734375,1.6719780447910866,-0.27510288168945735
5.78125,-2.7749863772012535,-1.0920250115460879
5.78515625,-1.4303761417968974,-0.3954011529566032
5.7890625,0.05506971261440083,-1.6046802700612277
5.79296875,0.1448911029014036,0.2831633224834436
5.796875,0.1196767900878684,-0.20196027200566957
5.80078125,-0.5677714251859383,-0.06541517803038689
5.8046875,0.6153324367350889,0.8004450375256096
5.80859375,-0.1688232381773447,1.7335445460802585
5.8125,-2.1910474323792264,-0.19987402810677066
5.81640625,0.011981039895770252,0.5964606824886675
5.8203125,-0.28387916878478026,-0.7796463243110494
5.82421875,1.123126755636227,2.1295189031320083
5.828125,-0.9089318202241967,-0.3700192799102094
5.83203125,0.3783883004832661,0.6686886917873504
5.8359375,0.6215012500545884,0.8577594287027667
5.83984375,0.7037825470007883,-1.8904337163461222
5.84375,-0.8345202635618593,-0.2838507891483991
5.84765625,1.4236704024635118,0.3145941938854639
5.8515625,0.4143722053966986,1.1571608351565084
5.85546875,0.45616846611525563,-0.1850358572570417
5.859375,2.633012448935364,0.8846220705321467
5.86328125,-0.2607061173975081,0.22857586230916205
5.8671875,-0.9248782628318204,-0.5919362097141769
5.87109375,1.4756771344747603,0.4668264405324564
5.875,0.059797843217200934,-0.6976061541163003
5.87890625,-0.5097841746033758,0.3188444120852035
5.8828125,0.03680505266964147,-1.4543582723060424
5.88671875,1.4174199459205377,-1.3286748390090446
5.890625,-0.06835341368486186,-1.6592446691752865
5.89453125,-1.708979005875527,0.22019613365618693
5.8984375,-1.4731583775856751,-1.04371946528403
5.90234375,-2.249937627170112,-1.1092206227704018
5.90625,0.23250164450186087,1.762320914131856
5.91015625,-0.18257395665998064,0.15316020174350223
5.9140625,-0.042582369333389235,-0.038550198560457515
5.91796875,0.11876810926393769,-1.2729868178158892
5.921875,0.7262860864309831,0.5696528915204643
5.92578125,-0.12220129365873628,1.7445091038491598
5.9296875,0.1690834046539828,2.417451887857156
5.93359375,0.31883037072445275,-2.0862087266197222
5.9375,-1.1309473185709227,-2.098969215082399
5.94140625,-0.617457290417892,-0.013337421599765042
5.9453125,-0.888131446111242,0.18194742197293245
5.94921875,0.7076268361474539,-0.5183728920674775
5.953125,0.21208330233480582,1.0144797401535524
5.95703125,-0.6387486652139118,0.892466896705007
5.9609375,-1.1440372449506522,-0.2727344277497359
5.96484375,0.06873912238044792,-1.6691967075824758
5.96875,1.4082895043034422,-0.6017550335176961
5.97265625,-0.5972964803682667,0.15964636497053822
5.9765625,0.11587521790005183,-0.6820054860419743
5.98046875,0.7664295055086325,0.17907620558046847
5.984375,-0.4720362899928323,1.2769488170495902
5.98828125,1.3749132474908714,0.5130008409556019
5.9921875,0.13417968233562708,-0.3427482501364886
5.99609375,0.3393942255762647,-0.14073465151114206
6.0,-1.4166767361385322,-1.0796571524419374
6.00390625,0.25793006964121135,0.07000685215522208
6.0078125,-1.3969210818440732,-0.5363344526513169
6.01171875,-1.3368590425904532,-0.8556747200857717
6.015625,1.4808635856032748,-0.5697696319201936
6.01953125,-1.3717286237117767,-0.33998365183332174
6.0234375,-1.2838708857332148,0.11811123051532751
6.02734375,0.24344704351684762,1.4936895722282206
6.03125,-0.2148976271227539,-2.0322741874326153
6.03515625,1.1273221079198206,0.937762746750314
6.0390625,-0.30195619243928984,0.24738065626689854
6.04296875,0.5575425612417881,1.8772778513477917
6.046875,-0.5833807457131708,-0.6472305300393733
6.05078125,0.9249104516872124,0.5210322684516409
6.0546875,-0.44265979566506275,-0.2771336379744443
6.05859375,-0.08234798757938051,0.6903759509844998
6.0625,0.5333369457190273,0.5657520126275878
6.06640625,-0.6930009866604343,-0.15198886929095595
6.0703125,-0.6398487378646192,0.2892488121655228
6.07421875,1.2812024700657554,-0.004075125423294263
6.078125,-0.3491198155697278,0.17930624398304368
6.08203125,0.023675762937672828,0.5334700802452288
6.0859375,-0.4833541681410011,2.025167369144357
6.08984375,-1.046775636073327,-2.172458432749105
6.09375,-0.9990896282212294,1.6796241220469201
6.09765625,-0.8256881850591177,1.3218466687300752
6.1015625,-0.9885300198648161,-0.14908318185546102
6.10546875,-0.25748015855262196,-0.5386936012615574
6.109375,0.4771584932203052,0.6627667782194732
6.11328125,0.3643990130849259,-1.6330780561100349
6.1171875,-0.28136102872842583,-0.2991555839734649
6.12109375,-0.8263527868050469,-1.3469917205338304
6.125,0.7180051563948417,-1.1716813230444996
6.12890625,0.038141400559503734,-0.747488104351231
6.1328125,-1.4950051225092487,-0.18824140237963355
6.13671875,-0.7198307799239982,1.7067258902728812
6.140625,-0.1113349487848353,0.22822843225511288
6.14453125,-0.21907899217643945,-0.47267845077696213
6.1484375,-1.4740573802079602,-0.5307039381431962
6.15234375,0.5898777159817105,0.5427043734386039
6.15625,0.9189896820334731,-0.028647019204522298
6.16015625,-1.497733592804574,-0.8357501919720896
6.1640625,0.28720109208641104,-0.3262181197749569
6.16796875,1.0951946578458527,-0.4186928445845538
6.171875,0.4855529306116938,1.231615513693874
6.17578125,0.19057194361154625,-1.4901242072929977
6.1796875,0.039683702346925115,0.03896268678052484
6.18359375,-0.22849075771675145,0.34932421666631713
6.1875,-0.20772370557357486,-1.7653572115987646
6.19140625,-0.22146662838873357,0.8879220855910233
6.1953125,-0.017151630818182773,1.3194660142733106
6.19921875,0.07745186685877431,-1.11530051236911
6.203125,1.307526763767857,-0.7588442492789415
6.20703125,1.3639562748380547,-0.10618739477869621
6.2109375,1.0610838621921364,-0.35672571771936795
6.21484375,-1.3919412727440603,-0.6718669542413165
6.21875,-0.5590429167237411,-0.09928875802654052
6.22265625,-1.4627648405980516,0.5184944221416132
6.2265625,-0.9205249951530331,-0.1167132382541284
6.23046875,-1.4517284605574006,-1.3496841002142168
6.234375,-0.15813922281454018,-2.392615125510336
6.23828125,0.4726369935417426,-0.9175909138133088
6.2421875,1.3642612912503342,0.11770542197802343
6.24609375,-0.4912011551955176,-0.9627135181006821
6.25,-0.2710199079550665,1.2672929361930028
6.25390625,-1.2391148757492032,0.20190763928319602
6.2578125,0.3948406699626736,-0.22233732607368753
6.26171875,-1.6896825995877065,-0.18271123898640257
6.265625,1.2189630952305983,-0.42898959517679536
6.26953125,-1.526912698141205,0.6457058455086664
6.2734375,-0.7932042788063682,-0.13199425590811686
6.27734375,0.3944055156884513,2.7217495511464467
6.28125,-0.1754925727061451,-0.030381840609697366
6.28515625,-0.5265203853408522,-1.4629005703616214
6.2890625,0.4044730995292842,0.9522168910280092
6.29296875,1.291623447967558,0.8122635620736247
6.296875,-0.6598717035934749,-2.3948421945169898
6.30078125,-0.2746181506197317,-0.07343258624669353
6.3046875,0.768173234704649,0.5151621773742963
6.30859375,-0.03653925675688504,0.3047700021489065
6.3125,-0.4153944093673588,-2.6128182063117285
6.31640625,0.09101569701311613,-0.5301672969490316
6.3203125,-0.025255027135757915,-1.6243954156873173
6.32421875,0.0844595486138736,0.1016082935681185
6.328125,0.808602183186306,-2.076771263798535
6.33203125,0.8555394640100622,-1.4599142812730155
6.3359375,2.3276200611354945,-0.7228916349324944
6.33984375,2.4690702254751855,-1.3422590533150731
6.34375,0.14168863887896546,-0.9880610390975575
6.34765625,0.0580354198166562,1.0423663228579891
6.3515625,-0.7341783223972381,-1.2551546381781697
6.35546875,1.0443939246266531,0.5446010101394446
6.359375,0.1825813743266742,0.5015760082460412
6.36328125,0.3665496122135596,1.8380829281716526
6.3671875,2.0933673386968064,-0.4219218883402059
6.37109375,0.03434972454981992,-1.0490632600718874
6.375,0.637613388584747,-0.28116878000417267
6.37890625,-0.5868435592558487,1.1531461611517742
6.3828125,0.24453723397618404,0.6148723957537617
6.38671875,-0.3574662222032161,-0.25791432476940285
6.390625,-0.6915795430557793,-1.045021130121662
6.39453125,0.4774693079198757,0.5147320641170566
6.3984375,-0.9154738459675008,-0.11026869196955068
6.40234375,1.3497337667281257,0.7616815805618075
6.40625,0.4418315950294216,0.08368552575200729
6.41015625,0.039266781764090285,1.0059538090058922
6.4140625,0.652357410649803,-1.3823574397440606
6.41796875,0.6932293891116275,1.2611619744108844
6.421875,-0.2957097418725918,1.055289957919051
6.42578125,0.6972572895963405,-0.13777099754060762
6.4296875,-0.6613121283822535,0.6870176198823272
6.43359375,-0.13223686777223867,-0.889416676813936
6.4375,1.6520421185380392,0.3226964351602626
6.44140625,0.6409433314683287,1.579025419807566
6.4453125,0.13579286694912604,1.4099213023718218
6.44921875,0.8205493011213618,-1.1521161545296896
6.453125,-0.5079171544724456,0.388487707444987
6.45703125,0.021427539101429017,0.5951539671192337
6.4609375,-1.0866244291826006,-0.7174764706405072
6.46484375,-0.7355381291483802,-0.2527501042283356
6.46875,-0.08822891633726179,-0.7482547887074019
6.47265625,-2.07347127394415,0.20833253474227464
6.4765625,-1.2888352832613386,-0.9349784021894892
6.48046875,0.39095406143056577,-1.324399664857605
6.484375,0.0295459420827574,-0.6081647723476629
6.48828125,0.24234634576174208,-0.7573062730673659
6.4921875,-0.18064415791824062,0.30104659060667166
6.49609375,-1.0684683439515508,-0.17093676477004482
6.5,-0.09388852345713547,1.3207874628308036
6.50390625,-1.403023198089372,-2.1294411173063454
6.5078125,-0.24902535855147484,2.262979684431537
6.51171875,-0.44247765133773587,-2.225903891550235
6.515625,0.21374337446159677,0.8483994217357753
6.51953125,-0.2191293864689959,-0.9071847617749887
6.5234375,-1.2854226575027807,-0.35799472741851807
6.52734375,-1.157437050937127,-0.6000831719938436
6.53125,1.141890930564662,0.4005285423594104
6.53515625,0.23449637907576187,-2.056747344849871
6.5390625,0.9586060093588266,-0.8223727738888654
6.54296875,-2.347135494585117,0.7970968703700283
6.546875,-0.6462617490295534,0.5078115080738411
6.55078125,-0.3872643974216179,0.264968324217486
6.5546875,-0.31144206532149654,0.06035972092244816
6.55859375,-0.37127920059259434,-1.2467082528036522
6.5625,0.8554252396072007,0.2479268287908512
6.56640625,-0.5150767005599854,-0.3434550091554274
6.5703125,-1.119613400904814,0.17131488595217464
6.57421875,-1.5257204255648813,0.2860166777345972
6.578125,-0.3975742169787693,1.3273462777418736
6.58203125,0.7252551893805803,0.31004783107909784
6.5859375,0.09042685075364745,0.4688524168021874
6.58984375,0.7820040474722801,1.218788486533664
6.59375,-0.40239626015895064,-0.8076958614800176
6.59765625,-1.0517959464713285,-0.5251049477712094
6.6015625,-0.9367719735326975,0.40865158706645227
6.60546875,-1.275050059506896,-0.40291356028974357
6.609375,-0.9438872975972498,3.186124501499177
6.61328125,-0.24873450890333276,-0.4875471288173798
6.6171875,1.6152730165118223,-1.255683567909609
6.62109375,-0.082468238392231,0.751649889235254
6.625,-0.8303902711945648,1.3469580861010035
6.62890625,0.8520783993301779,2.4161684772032856
6.6328125,1.6069871933600337,-0.7607873783380006
6.63671875,-0.912753315825688,0.22883744641219814
6.640625,-0.9268563999497651,1.067630788080972
6.64453125,-1.0020046475049524,-1.0068275644010154
6.6484375,-0.1712431641249361,0.6694684814677688
6.65234375,1.180792811520269,-0.5531799114797706
6.65625,0.2848527525602673,-1.3872066911723318
6.66015625,-0.6863014789445725,-1.0048589005125206
6.6640625,-0.780412704540057,-1.538432734937277
6.66796875,2.5264754417981057,-0.2119714014685446
6.671875,-0.1667770297819175,0.2683624677768675
6.67578125,-1.3709397906081497,-0.14178522012007175
6.6796875,0.7388916239669489,1.323543414355722
6.68359375,-0.13399241209704627,0.690312262163946
6.6875,-2.2176119681211603,-0.2142910480527742
6.69140625,0.31000468238397944,0.07190744372318243
6.6953125,-0.4062781723469121,-0.3988399976662042
6.69921875,0.9411492836787598,-0.09135327749911737
6.703125,1.1567379345144015,-0.7643841346012585
6.70703125,-1.5230242650435668,0.19934437276017009
6.7109375,0.058538837424506295,-0.3592414353385689
6.71484375,1.2888418936997308,0.6649960328124525
6.71875,0.7762379053814338,0.6988224803551772
6.72265625,0.5720926557643731,0.7325160627861089
6.7265625,2.1687106508587957,1.4520256971965402
6.73046875,-1.3743479512133399,0.9198253419540139
6.734375,0.12837146122692586,-1.530412545086393
6.73828125,0.2588616591541267,-0.6114896709697631
6.7421875,-0.8937474581558469,-0.2278886671741277
6.74609375,-0.10633964694955508,-2.1425395862201326
6.75,-1.6335282306685162,-2.263129100928485
6.75390625,0.352100472118405,0.32186941953718085
6.7578125,-1.5885906363813012,-0.40871180664531576
6.76171875,-0.9823607275191897,0.6610624265274607
6.765625,0.29747341516149617,2.1023483690722222
6.76953125,0.7175971907091928,-0.6067184238044502
6.7734375,-0.9004937585287801,-0.17982398660081222
6.77734375,-0.17805760135931215,0.6918161192684751
6.78125,0.5548277751435206,-0.5561736412130457
6.78515625,-0.9576832085713207,-0.4915795158650244
6.7890625,-0.0679582004592316,-0.39653500508354517
6.79296875,1.2370350037543267,-0.7537426670753437
6.796875,0.39162828100172176,1.3064521155165387
6.80078125,1.378898167231406,0.8630918915802092
6.8046875,-0.7820620902976974,-0.6820041271160865
6.80859375,0.49465240848287306,0.30369095188300776
6.8125,1.912458521218199,0.6278913279456786
6.81640625,-0.07291560977906518,0.5282729897347473
6.8203125,0.36122868621004417,-1.605282800114892
6.82421875,1.6638534485072543,0.05679095376848607
6.828125,-1.2235272613755084,0.7183598318643004
6.83203125,-0.33998267808561944,-0.5404841784830032
6.8359375,1.4100836293850667,0.4505460642454215
6.83984375,-1.856612337724094,-0.5285466629979487
6.84375,-1.014665763743409,1.278976580459886
6.84765625,-0.02237890541157392,-1.3648740347664094
6.8515625,-1.916580582025601,0.34689662191289333
6.85546875,0.453110516093179,0.41842490357004003
6.859375,1.1384582944116546,1.5972563419268395
6.86328125,0.794404689802872,-0.5392667308869951
6.8671875,-1.1006153712220288,-0.42621978954945244
6.87109375,-0.9387794658232793,0.6619882996668439
6.875,0.031586283988523214,-0.04507650780977264
6.87890625,-1.1311365015883468,0.8426037730949693
6.8828125,1.3344028836262665,-1.332389501630795
6.88671875,-0.7494727484362418,1.3250873254332534
6.890625,-0.7121599766851975,0.11109307310647054
6.89453125,-0.2336274332591719,1.7868265829215004
6.8984375,0.6675988860946145,-1.3140422706874668
6.90234375,-1.924845633468713,0.6070598343321665
6.90625,-1.5217454635516183,0.8316347925359493
6.91015625,-0.010759429162375315,-1.0636842447104307
6.9140625,1.9414648820293483,1.1641399977616522
6.91796875,-0.18770130028651702,0.36913121276994837
6.921875,0.44994373726155046,2.306392019163375
6.92578125,1.3993843465295364,0.38532111136689423
6.9296875,-2.4644218383224086,-0.4828282575552954
6.93359375,-0.63555779630326,0.5037605036144642
6.9375,-2.0357657125302717,-1.3711950180585866
6.94140625,1.0790548102783692,0.2710169958858881
6.9453125,0.4613644168061808,-1.0300370669294956
6.94921875,0.8830986095081936,0.31483186050898243
6.953125,0.5867989665226645,0.5057812702667972
6.95703125,1.7964708150011195,0.19703032802773746
6.9609375,0.46362350339101943,-1.2021617517446537
6.96484375,2.7454986838528446,-1.4736135749989583
6.96875,-1.8971776851853597,1.0872908398301584
6.97265625,-0.6929030915409382,-0.3779707328403229
6.9765625,1.2963038611249975,0.6402075140271669
6.98046875,-0.085145319200283,1.2224784910550017
6.984375,0.9565315838964285,1.9203918539693585
6.98828125,0.3700188253746988,-0.12996138191660717
6.9921875,-0.15031161002346016,0.35334800604664
6.99609375,1.8665576658141887,0.5261314088040294
7.0,-0.6367959893344041,-0.3440654034163613
7.00390625,-0.8071306236550178,1.9544279041717472
7.0078125,0.1324286375596558,0.41053089195013626
7.01171875,-1.7219745428143842,1.036653733926389
7.015625,-0.7756783798992383,-1.2976069111696362
7.01953125,1.009177553783668,0.41473151234470346
7.0234375,0.429121642657434,-1.2844814163233804
7.02734375,0.31578765085056304,-1.363400059775522
7.03125,-0.011381714583611993,-0.049621562837829494
7.03515625,1.8310434838505532,0.6307166452327059
7.0390625,0.1353622630305851,1.3403103793512487
7.04296875,-0.766530856716288,-0.1903574102504761
7.046875,0.6395731813333223,0.4146119636076676
7.05078125,1.0253640312560106,-0.41492902392158204
7.0546875,0.16747574645764,0.3581520367210075
7.05859375,-0.6675831517560068,-0.2785372525612399
7.0625,-0.39761621804790903,-0.5570816661228355
7.06640625,-1.046579526690424,0.43750931326658754
7.0703125,1.2378679550098126,1.8358010241564435
7.07421875,0.8962209170092595,-0.7376776648234636
7.078125,-1.3485798051345024,-0.5461765901304486
7.08203125,2.275249110282705,0.019931257790914935
7.0859375,0.6850857659403377,-1.1635255078472555
7.08984375,0.2817030958353858,0.9599507801401309
7.09375,0.8017517262839696,1.847633541868186
7.09765625,0.3567927360911773,1.0827933311081366
7.1015625,1.0141248868296295,-0.6018014255095431
7.10546875,-1.7772945062286039,0.14203316319510384
7.109375,0.018780381501468053,0.02712475095435678
7.11328125,-0.6789912245016145,2.061599356401776
7.1171875,-0.09514811019932538,-0.3820903767775803
7.12109375,1.3431784738912764,-0.41113607861331025
7.125,0.6882249589543157,-1.2665014201010292
7.12890625,-1.3149166345548138,-1.9156397589946532
7.1328125,-0.8536395321367287,0.9252364160220297
7.13671875,-1.6470862623620142,-0.9352053488977452
7.140625,-0.7769908137600574,2.507406212954038
7.14453125,-0.3604046391278118,-0.41295702052911587
7.1484375,1.52673332011756,0.3932751054761099
7.15234375,-2.47242293738899,0.17901115296366107
7.15625,-1.227866151558246,-1.1356987311777127
7.16015625,-0.21887286991604693,-1.1700822808982623
7.1640625,-0.23066010637320705,-0.28137816092987367
7.16796875,0.6259443854188306,-1.966934286508761
7.171875,0.05915636426019458,-0.036456224650715484
7.17578125,0.8756208849033458,-0.6156623710323151
7.1796875,0.8655763312976956,-0.7687442197397562
7.18359375,1.106535556011183,-1.1454173819127493
7.1875,-0.36685718398972694,-0.8014935963000486
7.19140625,0.20453809670327958,0.855244075257028
7.1953125,-0.17407165140176376,0.8017219595735245
7.19921875,0.08711971364931911,-2.402117543104759
7.203125,0.937418537462183,-0.6676513436093374
7.20703125,0.5523066216022506,0.21269753331979985
7.2109375,0.5265101437648361,-0.5155567378462839
7.21484375,-0.8226771611201097,-0.5663428196696402
7.21875,-0.959260755216098,0.42858408665410447
7.22265625,0.12642438751446822,-0.9408742082940703
7.2265625,-1.4612435445386251,0.2692756640573816
7.23046875,1.3763410601075858,1.0250268959608062
7.234375,-1.1291459980461893,-0.24600958182840638
7.23828125,-1.2527879408020468,-0.3245584805674314
7.2421875,-0.7383099561635338,2.1402195621711653
7.24609375,1.7737588770052723,0.5053422984934067
7.25,0.5544495088207722,-0.6859681670448718
7.25390625,-1.2419853447677949,0.7880451559809665
7.2578125,-0.6096706805045802,-1.52006454185301
7.26171875,0.949630780898576,-0.7495074645357288
7.265625,-1.3315687757646755,0.24256576519452228
7.26953125,-0.9952591809419068,1.3673842803267238
7.2734375,0.913122587927246,0.6169816725052636
7.27734375,-0.8309033101122777,0.2636755535710504
7.28125,0.20319225818781383,-0.4153567098512062
7.28515625,-0.5287844855415749,-0.5995462060646284
7.2890625,-0.23085675920667667,-1.6333956563075231
7.29296875,0.48725551048757776,0.10779926725568727
7.296875,-0.72228183253003,-0.7978509948152314
7.30078125,-0.3935815350036569,-1.7985207558530316
7.3046875,0.468038995108257,0.7035616951657443
7.30859375,-0.44083178822727154,1.3490268904751308
7.3125,-1.0285898126843867,-1.151600555692837
7.31640625,0.6485893176064402,-0.29943154494043667
7.3203125,1.9497277059438916,1.3035655435066436
7.32421875,-0.9321655440478148,-0.006352001971023355
7.328125,-1.5690629756250685,-1.5678005664670456
7.33203125,-1.0293171259552023,-0.2554670976608893
7.3359375,-1.2242959774075746,-0.6305692734320575
7.33984375,-0.358633656905281,-0.3955263591399954
7.34375,1.2851713751371123,-0.5178586091490713
7.34765625,0.7821476011024646,-2.606428035027273
7.3515625,0.25130288736366246,-1.3575659297555935
7.35546875,1.4823654577828034,0.16374264622271076
7.359375,-0.9646300920057724,-1.10920090655894
7.36328125,-0.4325766616071873,-1.8710027669393905
7.3671875,0.32922560544913515,-1.4911738341751923
7.37109375,1.2036011243087876,-0.4033910698591619
7.375,0.26866977964962024,0.39149980418030544
7.37890625,1.874032362030271,-0.24014394020190125
7.3828125,-0.027781490630256735,-0.9569037718056543
7.38671875,2.3172121865376054,-0.8860852652955233
7.390625,-1.4366059013756602,-0.31271284366727
7.39453125,-0.9057051968767607,-1.393952305489113
7.3984375,0.5287058327629648,-0.38542568148617584
7.40234375,1.3649076221570158,-0.7733648480082925
7.40625,1.521826191555245,-0.42697707203639096
7.41015625,0.33501378245287955,0.3938895417016843
7.4140625,0.6628059935988411,0.8420909360873622
7.41796875,-0.45121093030442544,0.561342828768859
7.421875,0.18324353853987063,-0.005064253431759262
7.42578125,-0.9729770115021544,0.7914014640593567
7.4296875,0.2372666431918266,1.4562632861007658
7.43359375,1.1091413732658906,0.9398065500719636
7.4375,-0.2876296678314072,1.7615021625951601
7.44140625,-1.1491315403039266,-2.1204714315358677
7.4453125,-1.176182999241394,-0.3517135891944139
7.44921875,-0.34313186165996085,0.09579565545409265
7.453125,0.5963826974532146,0.49300512289145815
7.45703125,-0.25814400591609654,0.0483095901633053
7.4609375,0.31170861986994475,-1.2051337990681554
7.46484375,-0.026307562345596225,-1.3295352545962777
7.46875,1.1884071517215176,-1.2494604573811277
7.47265625,1.0782069458480215,0.13581600347447995
7.4765625,0.6343045105326219,0.892472176660885
7.48046875,0.0716800651774486,0.4292091523311201
7.484375,0.6479315283831948,-0.02351320596892562
7.48828125,0.5660236010349972,-0.33227857061205873
7.4921875,-1.3232922257478144,2.2542163220807847
7.49609375,-0.6760517336911674,-0.4481638731254189
7.5,1.786870458710404,0.33235380896711186
7.50390625,-1.1100045793745132,-1.072859597490005
7.5078125,0.6431514388741582,-0.17651650992244702
7.51171875,-0.4738370202055361,0.9791767806831732
7.515625,-0.7465704693765348,1.1980583826001006
7.51953125,-0.7418690270826092,-1.156111842551076
7.5234375,-1.4496210626870667,-0.34312434183442037
7.52734375,-1.5760467790819799,-1.0137730719136535
7.53125,0.7119446079473326,-0.24742352270288598
7.53515625,1.334801315197058,1.5259270401159608
7.5390625,0.7249425830640623,0.13300789786039824
7.54296875,-0.4028815200663453,0.4238569133323007
7.546875,0.5144086029907751,0.036176645751248196
7.55078125,-0.6678959265912618,-0.04475428992253649
7.5546875,1.9250313149199414,-0.1163470238429214
7.55859375,-2.1236379698109635,-0.5810016501637748
7.5625,0.9448198247786077,0.10001489176214275
7.56640625,-1.7136208033208,-0.8555810202153723
7.5703125,-0.9857432185945664,-0.4390629101369639
7.57421875,-1.8534242031922954,0.054154551740640766
7.578125,-0.09748959820367936,0.04460071742190638
7.58203125,-0.25122472215505287,-1.1941680816167277
7.5859375,-0.3837269228906977,-0.04649905214739983
7.58984375,-0.3296433119261881,-1.420177632122733
7.59375,-0.8215087453454327,1.9878240937878895
7.59765625,-0.04810793590337076,1.4590568871748024
7.6015625,-0.32641376125733756,1.7621253862914281
7.60546875,0.8627336668914471,0.28575164996783226
7.609375,-0.5763392185133759,0.8559465518018216
7.61328125,1.2983061537210747,1.760685740063951
7.6171875,-1.8452015578643826,-0.21063600424532966
7.62109375,0.37173097425306756,-0.2693464455630086
7.625,0.2397769829117924,2.4174243752268105
7.62890625,-0.9404496468589406,0.4123701254100525
7.6328125,0.7413306933030183,0.7475588247276969
7.63671875,-0.3912955986146593,0.4147357104798851
7.640625,-0.4027518882154852,-1.6593523079542223
7.64453125,0.5877849480846942,0.4940273406617059
7.6484375,0.6737653009075443,1.0131972254477382
7.65234375,-0.07813475077041282,-1.4115262918398324
7.65625,0.3546229072453911,-1.3741262597379276
7.66015625,1.5019731644561465,-1.2221640428889449
7.6640625,1.9765194195586049,-0.15825695269894088
7.66796875,0.3498372946829834,0.13325848724324169
7.671875,0.20168974991575903,-0.5773179953717154
7.67578125,-1.5471498227635954,0.1236713525030753
7.6796875,0.375559550238526,1.1917446673134702
7.68359375,0.08494812178683701,-0.4302853570460198
7.6875,-1.360793100221526,0.8662457752494075
7.69140625,-0.7874973812992968,0.500304104034683
7.6953125,-0.6141333330367613,-0.23040403306710763
7.69921875,-0.3983371339984881,2.084607665010185
7.703125,0.1592376074862357,-1.204363186851125
7.70703125,0.9771400316685187,0.12374263062515674
7.7109375,-0.47094300993412735,-0.3281925464519049
7.71484375,0.24156296567463748,-1.111215323653501
7.71875,-0.9420347878819989,0.17520788231075413
7.72265625,-0.5106042769744741,-0.9347734366681274
7.7265625,0.8451323908065478,0.1998523087918691
7.73046875,-0.256407462449858,-1.604459218795388
7.734375,-1.610819082934584,-2.2064821756039836
7.73828125,-0.8755624028795561,-0.16268490186980103
7.7421875,0.7217142607164644,-1.6905485060035106
7.74609375,-0.13035738262381408,-0.02033654061917973
7.75,0.3076631256515124,1.6876744238740244
7.75390625,1.2106904708190163,-1.5845170271027973
7.7578125,0.06633625776076574,2.0418096532729098
7.76171875,-1.602938784580065,-0.1434895704037214
7.765625,1.6681339806210533,-0.6716306408110628
7.76953125,0.3288689426287675,-0.5002249864499431
7.7734375,-2.3299617464747766,-1.169176868638083
7.77734375,0.41978099053191303,-0.8558526192210187
7.78125,1.083272050004889,-1.2909995854959575
7.78515625,0.242242158040667,2.6538878864072752
7.7890625,-0.8876419451061992,0.36683536755312324
7.79296875,-0.5405149123833366,-0.8131542925619081
7.796875,-1.4527128665881535,-0.020980201407273802
7.80078125,-0.26360028085546244,-0.4988529188483471
7.8046875,-0.24339374104661524,-0.6645669212685735
7.80859375,2.1004091475830777,2.025333471830066
7.8125,0.8426768239041829,0.33730597658496486
7.81640625,-0.8960429342315656,0.6720816928177222
7.8203125,0.2828925116490491,0.3647561678390769
7.82421875,0.30204109834393617,1.0328402518752309
7.828125,0.587090378625832,0.7391803614958332
7.83203125,-1.2783455129212904,0.9278540552940033
7.8359375,0.20483441656519083,-0.42826919390907175
7.83984375,2.0652633384098293,1.5864421772622095
7.84375,-0.3972239606740239,-0.976629229946507
7.84765625,-0.5577824066533686,0.4650844644257777
7.8515625,1.4773760767813622,0.2973127137428318
7.85546875,-0.5661396960098813,0.5758989951710775
7.859375,0.6410775979890783,-0.22183433346904796
7.86328125,-0.8716411092941022,0.9635962077979721
7.8671875,-1.1699965502526488,-0.02892516037751728
7.87109375,-0.9424133076127904,1.618068601497694
7.875,0.9945662936885602,0.5658877244865209
7.87890625,-0.5560751330829199,-1.1138245075814668
7.8828125,-1.1089421454223318,-0.020778852404414242
7.88671875,-0.604175774434015,-2.07648312368572
7.890625,1.2420700616539697,1.2937575646471235
7.89453125,1.0032623980612945,-0.5860887239464468
7.8984375,-0.5877200197675397,0.1899842279200951
7.90234375,2.486227863308822,0.8478937006991312
7.90625,-0.16467834014078767,-0.21300977281810268
7.91015625,0.10745687653980876,1.0591660409180288
7.9140625,-0.9671610867284016,-0.5314654904032278
7.91796875,2.2850469560928945,0.2540268335674278
7.921875,-0.8013996780069405,1.2489767143917179
7.92578125,-0.7628203546955388,-0.0355274561710623
7.9296875,0.865970454742854,0.37175692269900656
7.93359375,-1.1523465831132127,1.5885547082213989
7.9375,1.052460400230585,0.007123825818475952
7.94140625,0.40749182577574594,-0.950002385310042
7.9453125,0.8736186674201514,-0.5991455641221137
7.94921875,-0.7514446402248229,1.2099997361977224
7.953125,0.939380898090269,0.4931303663648285
7.95703125,-0.8815040118181046,-0.23406529607204066
7.9609375,0.5709040094269761,-0.08438411539866925
7.96484375,-0.7625519124048612,-0.23425180087630204
7.96875,-1.6744888969642144,0.810065929202624
7.97265625,-0.1685867100779169,0.21724794696108307
7.9765625,0.568573662894517,1.335496012878923
7.98046875,0.013944170529753091,-0.41912537343135403
7.984375,-0.2534774262927367,0.09752615957637839
7.98828125,0.9726385476602183,-1.1881424766633002
7.9921875,0.05359457266716526,0.7342569007755073
7.99609375,1.1213344579052626,-0.06143005348919316
8.0,-2.201201026489942,0.48532466905547345
8.00390625,1.6330933090517212,0.22433074588071575
8.0078125,-1.1527475839911054,1.14441739929957
8.01171875,-0.8223235444719986,-0.3029603121684804
8.015625,-0.4967920809547418,-1.5896015140470798
8.01953125,0.1537448056707324,-1.8056420470197914
8.0234375,0.7635073617494994,-0.24606345180176906
8.02734375,0.6504309158043317,-0.7603698217260472
8.03125,-1.0989663869015804,-0.21163379482494338
8.03515625,0.3886776249677199,1.1615037089046458
8.0390625,-0.29233188348273653,-0.8653610065812483
8.04296875,1.5026364935965781,-0.21717762723597056
8.046875,0.03839281343043936,-0.8932682184959081
8.05078125,1.0331557344574862,0.7353377925197598
8.0546875,0.34877003939684403,0.15121991555786846
8.05859375,-0.14282174192972172,-0.5551655504413532
8.0625,0.024703071682072832,1.0719381108613066
8.06640625,-0.09794462043931669,-0.215702131543999
8.0703125,-1.0377625500050867,-0.23658637662936421
8.07421875,1.48597959581568,-0.39020098540703185
8.078125,-0.5032691412481199,1.157862996377255
8.08203125,0.48556594080083676,1.3463360256805006
8.0859375,-0.019172632394534945,0.4261074321283468
8.08984375,-0.35428893761537883,0.49939542032854073
8.09375,0.29603596246181113,1.7209297259544336
8.09765625,1.4891991595776086,0.3849421876887377
8.1015625,0.19801486500810433,-0.24521961320894572
8.10546875,0.8635832537488257,-0.6792189553474437
8.109375,1.2842929749649503,1.9280256190141407
8.11328125,0.22416952373725682,0.5707066908373047
8.1171875,-0.3101479063737239,1.0189167096500051
8.12109375,-0.8354817481597798,-0.46413378371761066
8.125,-0.7421458350189678,0.6914314962559335
8.12890625,0.855721642271153,0.10938431579520352
8.1328125,-0.2623295026450997,0.42992024169701076
8.13671875,-2.085536126624852,-0.5437267582434464
8.140625,0.600375572462546,-0.043365019199109914
8.14453125,-0.41393502792052594,0.7380848304350958
8.1484375,-0.3444875503643244,0.1714703463439952
8.15234375,-0.5224053927063846,-0.4695025938611664
8.15625,0.7627614656070277,1.6605882323082641
8.16015625,0.3655848495436641,0.2515285310066258
8.1640625,-0.9626940736152686,0.4035848200197087
8.16796875,0.60342984875765,0.543426394066384
8.171875,-1.9371950615179505,1.531556820366256
8.17578125,-1.6927764747936302,-0.529558763265356
8.1796875,-0.9337481419977128,-0.0421770015336147
8.18359375,-0.76195226143742,0.06086585298086658
8.1875,0.5929096276342951,-0.07254587410370639
8.19140625,-0.5563307813724944,-1.9246841108962403
8.1953125,-0.2093260851968107,1.2353708212204408
8.19921875,0.8457167041202541,0.9611586167678159
8.203125,2.5118590454355045,-0.7443850809237056
8.20703125,-0.8891097663464289,-0.7339136176757098
8.2109375,0.8611993392815568,-0.04437255115644767
8.21484375,-0.8614888867676582,-1.637036773675068
8.21875,-0.9440030024287827,-0.3431990563297807
8.22265625,-0.6187232025516813,-1.1081026394367397
8.2265625,0.9586242836211056,0.32094450296924737
8.23046875,-0.965444709078931,1.742584255362
8.234375,-0.9427233992194073,-0.8979702009240235
8.23828125,-1.13471368357496,-0.14155873457542792
8.2421875,0.9405337686583026,1.3023979809570299
8.24609375,-0.10912152721579932,0.36094887736907594
8.25,0.5104166649121984,-0.943002133966833
8.25390625,-0.4665998335000911,-0.5430134628692368
8.2578125,-1.0976727804721966,1.411611135498741
8.26171875,-1.8625684549918369,-0.3013439389108744
8.265625,0.8957378342776532,-0.12442168551730652
8.26953125,0.21930039039386176,0.5336297524926054
8.2734375,1.6639108857909892,-0.37046422951797475
8.27734375,-0.8959777703897454,-1.0774776127080525
8.28125,0.19482639299696514,1.591484016935468
8.28515625,-1.8200191805087655,0.32816419173939504
8.2890625,-0.02768541691617282,-0.3326760707530282
8.29296875,-0.894448522611336,0.6927209022360293
8.296875,0.9091401450662214,1.3335526699475755
8.30078125,0.6305215598132878,-0.3126371602222348
8.3046875,2.2615535254992785,-0.3190999573082453
8.30859375,-0.6113228218233464,-0.19269098243229785
8.3125,-1.4220647875375005,-2.445426274058955
8.31640625,-1.397700205208739,-1.3180279558304189
8.3203125,0.7387576387479869,-0.7295882333460233
8.32421875,0.2960583630356313,0.5229063616541981
8.328125,-0.3145492594025279,-1.8026900517227362
8.33203125,0.8142700817107722,-0.7732010437823468
8.3359375,-1.0370644159269666,0.8572069934219929
8.33984375,-1.4484542358145434,-0.7810612825057728
8.34375,-0.23300105598698884,-1.4987284249729573
8.34765625,0.676617706005226,0.12340579763748499
8.3515625,0.33355139764680847,-1.041760603930957
8.35546875,-0.05370886467084979,-0.5092968792357264
8.359375,1.2975151498031317,-2.2677833403393652
8.36328125,1.3664723875318183,0.5569374470799239
8.3671875,-0.04430711311163668,0.402303340701232
8.37109375,-0.7845160295617719,-0.0641611087484067
8.375,0.458915790990926,0.09298620248245619
8.37890625,0.9143215439581699,1.0738068964486924
8.3828125,0.6584538152919176,-0.356190122827701
8.38671875,0.5463569815364584,-1.2412381488507693
8.390625,1.485707653441675,1.159990824094548
8.39453125,-1.032492263796825,1.1947819727196136
8.3984375,-0.29586471811117837,-0.2613816388687575
8.40234375,-0.6393032267185863,0.5618214882731167
8.40625,-1.4681740222207935,-0.13286482095570717
8.41015625,-0.36111679119000323,0.7631346931199018
8.4140625,-0.16480796011143833,0.502838744410004
8.41796875,0.06509060297471402,0.621789875963889
8.421875,1.2699950191106804,-0.7705454278848342
8.42578125,-0.8606605927154939,-1.6101486387420205
8.4296875,-0.588266945565761,-1.4355403610177688
8.43359375,1.3981879023644372,0.6020126968127029
8.4375,-0.8363116917904447,1.2805778238711472
8.44140625,-1.548979128041216,-0.3226801516463808
8.4453125,-0.5499220382993315,-0.2847393498940748
8.44921875,0.40212867937490454,0.9246872971011182
8.453125,0.8883692325838813,1.1344631343231077
8.45703125,1.7809212039679292,-0.39860110135791393
8.4609375,-0.3892226597352878,0.42478343859126233
8.46484375,0.33811846434969606,0.5001966959360286
8.46875,-0.4184234526334456,0.7475729810702685
8.47265625,-1.0359281897442427,0.10477555220418426
8.4765625,0.8036513464286356,-0.6987051922787805
8.48046875,-0.027482563840839875,1.669480815421378
8.484375,-0.023686841680373123,0.3961492209519343
8.48828125,0.5738448843845472,-1.0800596691377977
8.4921875,-1.6901694364211355,1.2316273260648545
8.49609375,-1.6329822215603282,0.6038885007145985
8.5,1.67086120408545,1.8848887471165308
8.50390625,0.44685646820403974,0.2620346666817901
8.5078125,-0.40686937579501153,0.4046537984449136
8.51171875,1.58655869705986,-1.8353593575695417
8.515625,3.031446774390163,-0.4103401294950905
8.51953125,-0.1139738797993973,0.5467464277323714
8.5234375,-0.5977353826531231,0.3725664935909006
8.52734375,-0.7421279271404383,1.503266409160062
8.53125,-2.143690920533926,-0.4450735371320319
8.53515625,1.521673688000515,0.1980363144466465
8.5390625,-0.3019585105945747,0.8358486391484362
8.54296875,0.4054422941646848,-0.4125855348474211
8.546875,0.5091194652891042,1.7715862476817046
8.55078125,0.023382835159920692,-0.6744465108215574
8.5546875,1.0333533422920265,1.140303864588687
8.55859375,0.2094607804509579,0.15092559513523476
8.5625,-0.9214868622929633,-1.0110384438140272
8.56640625,0.26394210259085865,-2.806994794857389
8.5703125,-0.8121494482932171,1.9002187407317717
8.57421875,0.12808229523349254,0.5357978970857006
8.578125,-0.49216720617409454,-0.1638923067478195
8.58203125,0.4025534677903514,0.28454943864832594
8.5859375,2.449077494241363,-0.05588480012820591
8.58984375,0.057642656375471134,0.6537948507195064
8.59375,0.31495862205749464,0.49417675366291425
8.59765625,1.6784436367876456,0.6089507210277602
8.6015625,0.4390423588044604,-0.29668058437348555
8.60546875,0.714919984264316,-1.2318071029235
8.609375,-1.6250938906159687,-0.9233678046009401
8.61328125,-0.6228044272790715,-0.2929944973000879
8.6171875,0.19006122367292697,0.6527032125344412
8.62109375,-1.9683715902406775,-0.03988682588526077
8.625,-0.7256586249656507,-1.3364631036798411
8.62890625,0.8891434618950318,-1.2001757537775886
8.6328125,0.361339992690041,-1.333510248782389
8.63671875,2.24040923092814,-0.5090812920397139
8.640625,0.0005853573220799024,-1.0401938624908924
8.64453125,-0.6082859610263478,-0.3945263164018231
8.6484375,1.1810098721814954,-0.7628766202242849
8.65234375,0.7310577805089749,1.0953664304564357
8.65625,-2.1113868910360214,0.4372023843099781
8.66015625,-0.7177244289995791,-0.5354737388788683
8.6640625,0.3508735361597149,-1.0485322209786265
8.66796875,-0.6962695703338038,0.491079934009199
8.671875,0.9754697462620934,0.6409087895504842
8.67578125,-0.7115579164090265,1.2352955319098875
8.6796875,-0.49563612952948866,-0.6089205381766546
8.68359375,-1.4378372999882607,-0.060660807544940125
8.6875,1.5869001720506237,0.7595124922980763
8.69140625,-1.1138073107794464,-0.2008076617295824
8.6953125,0.5737330077811109,-1.8207982939974316
8.69921875,-1.3977831819320623,-1.5058440873367394
8.703125,1.8362459582650423,-1.106780637118316
8.70703125,-1.5361082011444935,-0.48355686654630253
8.7109375,0.39315444587791293,0.7503080702527709
8.71484375,0.6955232849105494,-2.3827849190431984
8.71875,-0.38567806879862065,-0.8311833736505455
8.72265625,-0.8339351987513683,-0.08188463032924613
8.7265625,-0.029748342732163622,1.7631861992958284
8.73046875,0.12475203415750599,-0.6688191503590054
8.734375,0.7820772445431644,0.8228146262044143
8.73828125,-0.6366020807831089,-1.1059894773458836
8.7421875,0.21614623208729442,0.6769493695348874
8.74609375,0.4801159452664307,1.3375685952752339
8.75,0.6769335970129559,0.5656375772476159
8.75390625,0.24625746481999156,0.6609754235235702
8.7578125,0.16322004791428527,-0.7061063547463603
8.76171875,0.5510405218011875,-0.3004388879781076
8.765625,1.0181091022989037,0.0866930113997959
8.76953125,0.8646331071506631,0.12272586327915329
8.7734375,0.258507324517091,0.6180557750974839
8.77734375,0.9632331922318621,-1.0599475411314971
8.78125,-1.2914824062261756,-0.08545450351080329
8.78515625,0.1861718352886323,-0.20779144057711116
8.7890625,-1.0879170651511365,-0.32786112041639276
8.79296875,0.06143434754118858,-0.6950211941132117
8.796875,0.6213498673862693,1.2239493618367738
8.80078125,0.29540190986699344,1.423168640861424
8.8046875,1.5356532861147583,1.2120050946243002
8.80859375,-1.401496114094788,0.27498235936041293
8.8125,0.32621624669990046,-0.8554905112392028
8.81640625,-0.005055685293876927,-1.7419923758676734
8.8203125,1.5255973486268024,-0.2548143682417947
8.82421875,-1.2478315571421124,1.1279535765079174
8.828125,-1.6811289703251229,0.25121059603957485
8.83203125,-0.4029490539265646,-0.9556992226137223
8.8359375,0.8563962774924224,0.2121866291627657
8.83984375,1.6482447221025318,-0.019584443516286364
8.84375,-0.9843507450291077,0.2027520927344142
8.84765625,-0.3158211946180232,-0.6963057516287106
8.8515625,0.17537059873783803,0.21875912687419155
8.85546875,1.3322796148384548,0.7151065833848148
8.859375,2.1447696316281726,-0.16601465984781305
8.86328125,2.004379003133668,-3.175141567207259
8.8671875,0.8498996895875348,0.5892678485872694
8.87109375,-0.20494837439762834,-0.10581788111648267
8.875,-0.0229617344081287,0.8566957276458053
8.87890625,-1.764731655269509,-0.374649798330626
8.8828125,0.5441127611591445,0.8519940359136835
8.88671875,-0.02604246110504725,-0.9447029038594457
8.890625,0.5799436502682864,0.23400753349222983
8.89453125,-0.26821827633158396,2.0215190690898535
8.8984375,-0.6708643391623104,-0.16786993595490457
8.90234375,-1.0991643542553922,1.4622586842733645
8.90625,-1.0153167734004453,-0.05865134824344505
8.91015625,-0.8647181535654656,-0.5415772076649448
8.9140625,0.2517326475260482,-1.6260867311893943
8.91796875,-1.117520168746731,1.7744028083378331
8.921875,-1.181252164913949,0.6487378016528174
8.92578125,1.5795317206532449,-1.9915482182569788
8.9296875,0.20467592756299202,0.5090749598453601
8.93359375,-0.47319540341672006,1.1192477354757717
8.9375,0.9054452917302046,0.03672347717345778
8.94140625,0.21307677472643877,-0.3038259823266702
8.9453125,0.6465824293721338,0.023571399865221936
8.94921875,-0.06489615864982869,1.5712920993772574
8.953125,1.3014174120765911,1.5099743568441333
8.95703125,-0.6646532223525831,0.41825422004597507
8.9609375,0.5444347954633973,0.0501269116531596
8.96484375,0.7432049764125946,1.286264617684576
8.96875,0.5643257877278895,0.19672649785620966
8.97265625,1.7135202260643885,-0.012246275406170357
8.9765625,-1.5854292287177874,-0.4866048957703928
8.98046875,0.19793775943994024,0.022022370523263304
8.984375,-1.1002411399050078,1.9997883161404093
8.98828125,0.5000572326885185,1.0824598556393061
8.9921875,-1.0484020800354057,0.40744754539077394
8.99609375,-0.5953417782619245,-0.14732381851456056
9.0,-0.12953264216092095,0.14594679303767336
9.00390625,0.9927076114591025,-0.659551857673421
9.0078125,-0.3281893149813391,0.9188312108483441
9.01171875,1.492113274918147,0.5800191119070748
9.015625,0.5891099866906329,0.9246383480437969
9.01953125,0.5817169376983945,-2.2881688774687676
9.0234375,-0.311273974037656,0.12630265298581936
9.02734375,-1.8358370861325406,-0.8720378215974002
9.03125,0.9807233960063404,-0.20762589301380438
9.03515625,0.34519647621509525,1.3726591172330216
9.0390625,-1.2983420098766851,0.7084106343208779
9.04296875,0.6229999590415093,-1.8647335287335725
9.046875,-0.35278527405699417,0.5558084944546859
9.05078125,-0.9904867848270474,0.09456960476904587
9.0546875,1.1547503718041972,-1.505026170122735
9.05859375,1.623086341324262,0.0949627221165305
9.0625,1.152719318675425,1.1406172154852998
9.06640625,-1.2052692036373613,0.33768637043200106
9.0703125,-0.8449131870847058,-1.4350984261223618
9.07421875,0.7091583862936488,0.6374415991513209
9.078125,0.29715099453909916,-0.4178801503832548
9.08203125,0.0207924901090062,0.1833361327387242
9.0859375,0.8381575878411366,1.4821488180670601
9.08984375,1.0871471543535296,0.5221530117893939
9.09375,1.2628684771160155,-0.6710613865967524
9.09765625,0.06707409072275011,-1.3492602078132747
9.1015625,-1.318097776382733,0.39481759317814313
9.10546875,-0.972500194550603,-0.7143458640247706
9.109375,0.465620527233041,1.4491294850555025
9.11328125,1.6873041147827585,0.09498748657115821
9.1171875,1.1960212270565946,-3.030803216241482
9.12109375,0.6884116773962647,0.7114601293242496
9.125,0.3104690451198603,-0.3556427041863135
9.12890625,-0.4078292251930453,0.2339201661317474
9.1328125,1.1322289754497703,0.4844652076327907
9.13671875,0.8408377174865631,-0.3886740664079641
9.140625,-0.4838592116735595,-0.49679757604431796
9.14453125,1.1925702180850226,-1.2725149205720752
9.1484375,-0.7934963806683072,-0.5889666485675952
9.15234375,1.103012411686161,-0.03481275150571365
9.15625,0.2637916352609358,-0.14573996601821157
9.16015625,-0.3453196530939249,-0.4753039852384513
9.1640625,1.225492320162069,1.292649093698391
9.16796875,1.9937564053955674,-0.5328360917763366
9.171875,0.49437030988879394,0.7495077903221791
9.17578125,1.094601094974451,-0.8070387499220848
9.1796875,1.4150761907736804,-2.1994587358072715
9.18359375,1.7137157594351122,-0.6113496711000473
9.1875,-1.483231689630538,1.9715447293313173
9.19140625,0.765942190440138,-1.5156786277539716
9.1953125,-0.1675020993155762,1.9826682674163183
9.19921875,0.1491795546285653,-0.018028076356016297
9.203125,-0.00987243098714427,0.02453138503787051
9.20703125,-2.6016127075062863,-1.4083058673992628
9.2109375,-0.03937953348820186,0.2974643271728785
9.21484375,-0.04012885664687747,1.576843126888275
9.21875,2.5228005573054237,0.21426114252962233
9.22265625,0.7288603783805155,0.3670151823875902
9.2265625,0.8070829281654254,-1.5056578877749813
9.23046875,0.7232283317191859,0.9885132924175666
9.234375,0.8271460645952585,0.625563288105977
9.23828125,0.15108881784248612,-0.007367595436592131
9.2421875,-1.0115736323974132,-1.276124140279256
9.24609375,1.7253194751499186,-1.0817493667384779
9.25,0.017220692726107767,1.2370624689129621
9.25390625,-0.06836401977076939,-0.6382962625582087
9.2578125,0.4794976234286869,-0.5395011434255339
9.26171875,0.7627173357205241,-1.0900927177539645
9.265625,-0.1259620050316641,-1.2608847315485874
9.26953125,-0.8339166159233715,-2.0972869591616354
9.2734375,1.5694036641791183,-0.7188953310284808
9.27734375,-0.7954938072446537,0.28118995595785234
9.28125,0.48535114878773317,0.4271233169996198
9.28515625,-0.5770510047693906,-1.152396370166008
9.2890625,-0.5703531467435144,-1.4520778193755208
9.29296875,0.4500203989882805,-2.4057397333210115
9.296875,-0.570886010633319,-0.06723265283542859
9.30078125,-0.2933404775133655,0.15881460209036133
9.3046875,-0.8526316027557792,1.0125214799473938
9.30859375,-1.3195857318144202,0.9407250337940802
9.3125,-0.7613254410151524,-0.6372831524136929
9.31640625,-0.8263871263249554,0.5034817943922187
9.3203125,0.47604798728093367,1.2003728518303485
9.32421875,0.1051378064452889,2.308539511556442
9.328125,-0.06932777385119197,0.37778032084472474
9.33203125,1.4825717740200757,1.1850639788063106
9.3359375,0.8995170520226277,1.7711924653046267
9.33984375,0.7893726401410137,1.4270104916511084
9.34375,0.2990710558512343,1.7706043866690353
9.34765625,1.1789949068019259,-0.12716133664634224
9.3515625,-1.5766140761668312,-0.2536223058666078
9.35546875,0.1339097275169023,-0.21417861095709004
9.359375,-1.0123314555645224,0.3198556269455073
9.36328125,0.7097840440955407,-2.3725201309052335
9.3671875,-0.39651217105903525,1.863546468782317
9.37109375,0.5115136943798703,-1.0335359052052537
9.375,1.1444139786220682,0.5009685154564143
9.37890625,-0.7534090659804644,-0.022599114686999974
9.3828125,0.04587706294803185,-0.1793434348365025
9.38671875,0.007285736681333011,1.2521373417865556
9.390625,0.01973835542729721,0.3037337664766641
9.39453125,0.18285488321174873,-0.2664110360123133
9.3984375,-1.016775906769357,1.5444041377395599
9.40234375,0.049299747570273,0.029583540771187338
9.40625,0.8721618217120131,-0.7581741119023842
9.41015625,0.36725515898715805,0.41849197832607765
9.4140625,0.025791258815761355,0.0477582556323302
9.41796875,-1.7948683718067076,-0.040630177194144385
9.421875,0.4043526313968652,0.1606151206308979
9.42578125,-0.7338031016362462,0.8233358117265247
9.4296875,0.5212763130850158,-1.1631787243674956
9.43359375,0.0704261370110486,-0.04287933845643161
9.4375,0.5023801215456994,0.09516165505776251
9.44140625,0.5052624952513055,0.8657727987611313
9.4453125,-0.8125826697990017,-1.3705330778473876
9.44921875,-1.309481483795561,-0.1829683188390813
9.453125,0.05983019074004359,-0.4282457623268931
9.45703125,-0.07552040041336376,0.18121609680966932
9.4609375,-0.32807367178674074,-0.08116903159755247
9.46484375,0.3613909906660102,-0.12820728007443
9.46875,-0.6485926843592307,1.2305505654910796
9.47265625,-1.0844882708034553,0.04666363666464346
9.4765625,-0.36005521353599507,-0.1387195644934785
9.48046875,1.6777109523129596,0.2610790517112809
9.484375,0.013825372887029298,-0.5200771947644882
9.48828125,-0.6750912129114188,-0.48331637811854655
9.4921875,-0.81876436372232,0.42500902236262267
9.49609375,0.2688270900296801,1.04977908930114
9.5,0.9590849293009672,0.4289822665534397
9.50390625,0.09962220725228071,1.665916968201009
