time,ecg,ppg
0.0,1.4723100539059228,0.1157277885598406
0.00390625,-0.8358138889386209,-0.0498750957840304
0.0078125,-1.4538759475360634,0.9066941712032406
0.01171875,0.39882848437243945,0.30117779836035696
0.015625,1.2424143356248951,0.3528567683558321
0.01953125,0.6334711269932749,0.17897485540493532
0.0234375,-0.6189720399335384,-0.7636291259862807
0.02734375,1.6151136899393908,-0.32216788398983787
0.03125,-1.436379099569716,0.12736653942331225
0.03515625,-0.2635623272378792,1.7553830675951156
0.0390625,0.039112479294894004,-1.2994815101133859
0.04296875,0.33456668982866455,-1.9672004941700991
0.046875,0.5856405861623148,-0.28321182535604456
0.05078125,-1.2228338434450592,0.9957485274437384
0.0546875,1.6072900064849212,0.32885150084152204
0.05859375,-0.4931007788558288,0.7669147938972083
0.0625,0.32061071217628867,-1.246646010018419
0.06640625,1.1323055902448167,-1.2448792073512702
0.0703125,0.7395445148282329,-0.9403366425474484
0.07421875,0.5787564301869155,-0.7508401805114432
0.078125,0.2424578344274865,0.24163833824173642
0.08203125,1.466759691992818,-0.6764821433225394
0.0859375,-0.11385928381374083,-1.876833682201072
0.08984375,-0.9232095855034205,-1.517088254939741
0.09375,2.3212210166051497,-0.47055545367050244
0.09765625,0.7726554481075202,0.5694033152286554
0.1015625,0.2484362788088228,-0.045519193974775815
0.10546875,0.3431932160666516,0.3550342644625411
0.109375,1.4155389479478284,0.0649558712784232
0.11328125,1.6534754063088477,0.154179127885612
0.1171875,-1.4331662175313027,-0.9781216744432122
0.12109375,1.9195609405132097,0.44853302213462737
0.125,-1.0558778436126008,0.7996370367552573
0.12890625,0.03827374096386285,0.6832879774654949
0.1328125,-0.27561439284135314,0.05312680167411312
0.13671875,-1.1030480460718002,0.007523490873267799
0.140625,-0.3129420786396804,-0.7076922625802333
0.14453125,-0.7932412577221748,-0.07819473170411519
0.1484375,-0.12441982903844352,0.2854282066871465
0.15234375,-1.1046807858855499,0.10494725996501772
0.15625,-1.4327452959088052,1.5634122468173546
0.16015625,0.18518335574751574,-0.1903823145160624
0.1640625,-0.16655258681982793,-1.893273170640442
0.16796875,-0.079756303464544,1.3378402098637492
0.171875,-1.2698485080788484,-0.8807275840408567
0.17578125,-0.9322988503497297,2.1519597742463934
0.1796875,1.003526080502872,1.8663478525194441
0.18359375,0.30084161555163175,0.9170862004957047
0.1875,-0.11519906492580026,-0.6337281823072936
0.19140625,-2.269331013896715,0.5080886506700371
0.1953125,0.38218920760824404,0.5681073801126016
0.19921875,0.7739244896062872,0.6582293000637214
0.203125,-1.2255571221938075,-1.62599918083348
0.20703125,-0.08544312372856518,-1.323024651407291
0.2109375,0.4690207494088682,0.438162657981819
0.21484375,0.15694020802852332,-0.6906877524643465
0.21875,-1.5906013060613327,1.2876262355057155
0.22265625,-0.22981047137175803,0.3187959654689498
0.2265625,0.749988842893945,0.8067036061147115
0.23046875,0.5850711485676926,0.629018308730946
0.234375,-0.10834191247190617,0.9502228925832397
0.23828125,1.0973764667881323,-1.2626144360787488
0.2421875,0.41898909076967206,-1.3969343220996244
0.24609375,-0.5858621038553921,-0.5083319718978437
0.25,-0.18356170234309477,-1.3573413409393231
0.25390625,-0.1392081291658446,0.4851773561304773
0.2578125,0.278300328675249,-0.2297899019741692
0.26171875,2.052743724950578,-0.0721019446103697
0.265625,-0.8551969846310181,-0.017502543489805476
0.26953125,-0.9002522127908464,-1.3663243206666447
0.2734375,0.36968077224352924,-1.1103366084854869
0.27734375,-0.9435772177434546,0.12888709971893877
0.28125,-1.1415251458936035,-0.9365538663769218
0.28515625,-0.015813776391419305,-0.8039474711895074
0.2890625,-1.2817016473351568,-0.03273976339500224
0.29296875,0.3183719899431738,0.0840817577436008
0.296875,-0.04958357592822863,-0.04626924410958734
0.30078125,0.6676741728145629,2.162020981043364
0.3046875,1.136318908286311,1.3229425243614075
0.30859375,-0.4644654559775898,-1.1118177061155667
0.3125,1.5746516180253185,1.2591233226464276
0.31640625,-0.8360986540127828,-0.28073805960314185
0.3203125,0.49161907403045974,-0.934490675688048
0.32421875,-1.8377424676924272,-1.969586179206098
0.328125,-1.4375259537638845,-0.5236897568635887
0.33203125,0.3799928208383152,0.4672533649348856
0.3359375,0.5884054200626527,0.8547226954373734
0.33984375,-0.0027584629934767615,0.2082078817223419
0.34375,-0.08856503365295468,0.5306250883400847
0.34765625,-0.1930515433735022,1.41428313223894
0.3515625,0.7221497252435147,-2.4480461650387797
0.35546875,-1.1369351489551884,-0.20644649757291267
0.359375,-0.7004128180522206,-0.7392975797682624
0.36328125,0.6335390472638144,0.06078356211116705
0.3671875,-0.17560985543755456,1.1449173271899213
0.37109375,-0.40943222568480103,0.4081717805442086
0.375,-0.19581555462323955,-1.5196728869556406
0.37890625,1.8192645120299318,0.6775211450081414
0.3828125,-0.8692147510500616,0.2262325321891084
0.38671875,-0.05152296276049188,0.6664626985656602
0.390625,0.33403033899915413,-0.7907780506228995
0.39453125,-1.5275266542142778,-0.16370386789146713
0.3984375,-0.11538085768454298,1.0102308233203716
0.40234375,2.56301727461729,0.3950681186201343
0.40625,-1.0744034427167477,-1.7218177869120304
0.41015625,0.9038932995110729,0.45682100774201956
0.4140625,-0.0969524528434115,0.2410004587559997
0.41796875,1.4034552287889666,-0.39441254803744935
0.421875,-0.22625786501255093,-1.7026891469349605
0.42578125,-0.17271257958436986,1.817564344327113
0.4296875,-0.035156172096677714,0.615380531441937
0.43359375,-2.3317657657232305,-0.8402614928614331
0.4375,0.5986026019748928,0.22052994909923354
0.44140625,0.36855451740674827,-1.22083922163307
0.4453125,-1.1388836489212542,-0.25239270559952803
0.44921875,0.23226709496304726,-0.6898647171264637
0.453125,-0.022733968103124187,-0.06543683765324212
0.45703125,-0.5288984478264243,-0.624814799328298
0.4609375,-1.1516425251316835,0.0271859471620658
0.46484375,-0.7492548047184803,-0.7890469706359704
0.46875,0.4053600322605751,-0.5186822145698229
0.47265625,1.4876731683564455,0.6831439812027543
0.4765625,-0.5399352592318519,-0.5977008243109972
0.48046875,0.17758571920895908,0.9197262835866329
0.484375,1.3376489513043173,0.07197281428302331
0.48828125,-2.012631547322158,-0.3355012677309881
0.4921875,0.3202725114301354,0.591776426078857
0.49609375,0.09123604190834296,-2.285282927000885
0.5,-0.7286906326522423,-1.1164806704021242
0.50390625,-0.35408748651190636,-0.04401759038524841
0.5078125,0.883720070630237,0.24981837513432922
0.51171875,-0.06741385775532828,-0.9987177818386704
0.515625,0.33352901268021284,-0.23699082766279347
0.51953125,-0.14358289545418165,2.1335610530963005
0.5234375,0.40422245136194296,1.2266345891108572
0.52734375,-0.1613701300684641,0.7924064888355524
0.53125,-1.0959808670450697,0.26931327223065793
0.53515625,0.10281442104686354,0.3140922358445848
0.5390625,-0.5744407667874765,1.0766153383258779
0.54296875,0.5946309497719873,2.055493902932714
0.546875,0.019108247333798303,0.843051598308383
0.55078125,0.6477232181564468,0.40131857517658487
0.5546875,1.13459029098821,-0.07624731845376635
0.55859375,-0.08209996076115,-1.4837950957827912
0.5625,0.9268547807168256,0.7298652696856938
0.56640625,-0.12305391840801912,-0.10083427510084396
0.5703125,0.852568498174671,0.7648579558392417
0.57421875,0.5190957794965266,-0.8927514326089919
0.578125,0.11217384287492665,-2.311913076683121
0.58203125,0.31478726314826944,0.3443885830469317
0.5859375,0.6485431232243101,1.038841042871146
0.58984375,0.35064851752545884,1.4136988533927983
0.59375,-1.485146673486783,0.3121417208971367
0.59765625,-1.2626915031425623,-0.05839842723866754
0.6015625,0.17230140986803957,-2.364232807098028
0.60546875,1.0422167690376638,0.8146581698651977
0.609375,0.10980072774131838,-1.4855411940301595
0.61328125,0.433641580344901,0.7396562008392933
0.6171875,-0.008387718227817628,-0.23388236423530387
0.62109375,0.8478537217877804,-1.175697868351459
0.625,0.2068247509473125,-1.1670536142233996
0.62890625,0.8654494672018676,-1.8084281808668163
0.6328125,1.105133877766922,-0.20795135240663296
0.63671875,0.06164287495839657,-0.6928268471412268
0.640625,0.9703963804535316,0.5875291747982785
0.64453125,0.4443123241813112,1.4348183546235838
0.6484375,0.11651516744742428,-0.38256290249034214
0.65234375,1.4788608951140096,0.055384406100217644
0.65625,-1.0585748251044906,1.739892929912077
0.66015625,0.3933754174592171,-0.8281942405716357
0.6640625,-0.30201856565719765,0.22639819635289155
0.66796875,0.6432349278206332,2.5982691906525686
0.671875,-2.103813727072465,-0.013973296461212778
0.67578125,1.3317770789469554,-1.1350619130328234
0.6796875,-0.6341689675426692,1.0983678762594382
0.68359375,0.7066819364716462,0.38898533078893494
0.6875,0.27666376367291223,1.237376826182162
0.69140625,1.4519453788166512,0.23320468903128524
0.6953125,-0.08290798309046182,-1.0109321518048586
0.69921875,1.0226983111413843,0.34808767238024063
0.703125,0.3483666478188259,-0.017425251254549634
0.70703125,-1.5511461644103932,-0.3859996667091482
0.7109375,-0.34000725173261076,0.41376319783607945
0.71484375,-0.6278586749160314,-2.4617742507997065
0.71875,-0.8258299848635836,0.028535068004328756
0.72265625,0.8187225457549745,-1.4814353381199583
0.7265625,-0.7595418943480382,1.5647761135277993
0.73046875,0.25767104596378754,1.788425722522106
0.734375,0.917660761438867,1.2349913791197624
0.73828125,-1.1087291872815193,0.16002296856480103
0.7421875,-1.7780118369036988,0.37751745650817825
0.74609375,0.16057209290729166,-0.1841702912693134
0.75,0.16886184825331693,-0.3222888887224735
0.75390625,-0.3268971671619546,-1.5401889299676719
0.7578125,-0.749474828855102,-0.6510431680012101
0.76171875,0.6830932037267525,1.2357903960652519
0.765625,-0.6732557800809602,0.5495160450536014
0.76953125,1.6975527088182063,-0.45125227925260325
0.7734375,-1.846525726528136,-1.2254721873401502
0.77734375,-0.04395695558542022,-0.6637369796357718
0.78125,0.215936314821961,-0.04014640127740793
0.78515625,-1.1756858045914762,0.5140984231631223
0.7890625,-0.5817781204518041,1.111314703807094
0.79296875,-0.4929327401559918,1.6807737030976222
0.796875,1.9358088298299507,1.444111917187694
0.80078125,0.7523658458113335,-0.04106119093281291
0.8046875,1.0740784584673593,1.1315379432025847
0.80859375,2.731074890058322,-0.04569789067212503
0.8125,1.7131797283919266,-1.3987273175044892
0.81640625,0.6690387041559699,-0.716948085972289
0.8203125,0.5041048410618157,1.0466657239213286
0.82421875,-1.1210861310802704,0.24776156774274052
0.828125,-1.5728784585657911,0.46544717327924234
0.83203125,-0.16734735225162334,-1.305942575208975
0.8359375,0.04001538887836316,-0.8575166189603013
0.83984375,1.9086467989580969,0.3768948333103218
0.84375,0.26197436767231225,-0.8362414297544113
0.84765625,1.8985371110896974,-0.1158174276146141
0.8515625,-1.0709026835777866,0.02279374334428829
0.85546875,1.2560420751031203,-0.25402391173677225
0.859375,-0.13661435582077064,0.17288271597256893
0.86328125,1.545123657931272,-0.7342428481897214
0.8671875,1.4230764042408512,0.8356175517243672
0.87109375,-1.1244893316545017,0.941565666034402
0.875,-1.6654995301659998,-0.5039984715351967
0.87890625,1.9031446789665942,-0.5119504559706948
0.8828125,-1.260804068557039,-0.5208460104597414
0.88671875,0.49021029869913124,0.8509655233138684
0.890625,-1.307544991708168,1.873537271167756
0.89453125,1.1257796264093118,-1.5327347728558718
0.8984375,0.7447018102394564,0.14378515068521394
0.90234375,2.4858955118381054,-0.7229650097374614
0.90625,-1.6341416697936866,0.5104251592377549
0.91015625,-1.1701080029969901,-1.6682595005675696
0.9140625,-2.381603608135474,2.117052451393168
0.91796875,-0.7877317973788623,-0.48260511960790625
0.921875,1.9302581710123088,-0.6650951871241632
0.92578125,0.8184371294048275,-0.3526556535802118
0.9296875,-0.2855553127645737,0.051991475774157817
0.93359375,0.4324100219343253,-1.1267215252366454
0.9375,0.6605997232199559,0.9789697454946498
0.94140625,-0.723337233000397,-0.015258433276368963
0.9453125,0.23569917584072445,-1.5370728080671499
0.94921875,0.1508259101415803,0.4780606863637557
0.953125,-0.9473059046844076,-1.6699512270725674
0.95703125,-0.6129669491701402,-1.2250010484181484
0.9609375,0.17830207506209234,1.1210800566585575
0.96484375,-2.482242296893714,-1.0483802727552134
0.96875,-0.0015347578062276926,-0.4646059639283165
0.97265625,-0.9267153757737912,-0.048962073988176584
0.9765625,1.161689770205256,1.045298880532431
0.98046875,-0.33166237846237073,-0.6572355724283984
0.984375,1.2651101209644622,0.5361215103361626
0.98828125,-1.050570031118834,-0.9712367623651476
0.9921875,-0.6785506928571495,-0.01643811745662154
0.99609375,0.6572045385732621,0.1694739513542038
1.0,2.1632358672207395,1.7660346382105379
1.00390625,0.2874495978362398,1.4696646266597295
1.0078125,1.5153262623923691,-0.14662439714879674
1.01171875,2.3532704021204838,0.522162572801228
1.015625,-0.4666736269244511,1.0992107211108175
1.01953125,-2.24140281745796,-0.4410327960405792
1.0234375,0.2879293320810475,-1.4880165873792248
1.02734375,-1.269157949904418,-2.250876236047299
1.03125,0.9470489132471192,-0.2358856926648216
1.03515625,-0.6852285163716827,0.6175758654697083
1.0390625,-1.301274739330487,1.474373887740692
1.04296875,0.7266361015641475,0.6870759059965365
1.046875,0.39711355036474083,-0.3266705489773292
1.05078125,-0.5249230280858289,1.7585340168890136
1.0546875,-0.9371325085370267,-0.5923497979075413
1.05859375,1.007436080354726,0.18037254188866117
1.0625,1.5413448476272522,-1.260810126662698
1.06640625,-0.12570778109239905,-0.44431162707417493
1.0703125,-0.5175889628218555,0.309644948603558
1.07421875,-0.5231866905820804,0.36257243574448833
1.078125,0.03480758465724306,-2.4205124408216294
1.08203125,-0.2372518444965572,-0.7870744630057035
1.0859375,-0.3237737785097393,1.5545028161022951
1.08984375,-0.31131197483115236,0.7214705823026525
1.09375,0.4584393066177647,1.6399546920514823
1.09765625,-0.748782367457187,1.0810994427594576
1.1015625,0.454282725730618,-0.33524762541913017
1.10546875,1.5023985322710494,-0.8530023486234345
1.109375,0.02353049059072456,1.1030431849835531
1.11328125,-1.0250482088919306,1.0437257664183237
1.1171875,2.323356044886141,0.07723629215217985
1.12109375,1.368283410827334,0.17576204232347176
1.125,-0.6011052796363167,-0.02905883988797817
1.12890625,-0.4383044318584568,2.0073220196608816
1.1328125,-0.06591409126450264,0.5189753178660448
1.13671875,-0.23125766638147063,-0.03131119421297007
1.140625,0.20171754201830205,0.3031640940383611
1.14453125,-0.6398601556025334,-1.2366349609152822
1.1484375,1.5975544286381294,0.7107237933201062
1.15234375,0.23563323929582192,-1.163289124181894
1.15625,-1.1328555975964705,-0.8406183923562854
1.16015625,1.1091530673461756,-1.3477802652856319
1.1640625,-0.29362070157879283,-0.21109669353972949
1.16796875,0.16295073920085448,-2.032041060276649
1.171875,-0.3693813159559393,1.0721387775924485
1.17578125,-0.6255784643769814,-0.9971336659965437
1.1796875,0.4798443612624821,0.9886033488979412
1.18359375,0.18552363957892098,-0.595170402398038
1.1875,0.006263600898460254,3.349628260574726
1.19140625,-1.1010549539147336,-1.964584732612993
1.1953125,-2.0753884558033624,1.4707594038128975
1.19921875,0.9991257709864155,-0.2584362502494286
1.203125,1.929631322363853,0.37422980137798645
1.20703125,2.1271352941341855,1.7261215824960325
1.2109375,-0.5754199146777854,0.21523603042111378
1.21484375,-0.7382114243569423,-2.1253024106134975
1.21875,-1.3277784667992418,0.47820653699219984
1.22265625,1.521747169182015,-0.25433232440342346
1.2265625,-0.1898355233438279,0.10072431665753385
1.23046875,0.8788207499655508,-0.506183363324155
1.234375,0.8399841634830756,-0.6531420139514051
1.23828125,1.9257750263428817,-0.31485869145035705
1.2421875,-0.739737007037198,-0.9821900848100105
1.24609375,0.3637757550508763,-0.1643993533442023
1.25,1.3228510748764195,-0.06826896736990601
1.25390625,1.0742440138589813,1.6395191910128857
1.2578125,0.35046316547760203,-1.4713488930570144
1.26171875,-0.38279667443414567,-0.8016925619296188
1.265625,-0.8752339955060141,-1.2835635249185013
1.26953125,-0.20529434915530545,-0.06855599134054453
1.2734375,-0.40490312196034667,2.07145366557802
1.27734375,-1.0137213441481887,0.8382811226415438
1.28125,1.4861647288907158,-1.073830915988835
1.28515625,1.6515258046530685,0.016922351929302974
1.2890625,0.18236187954604569,0.7038086634216895
1.29296875,-0.3924893870059497,0.45984133284579576
1.296875,0.41474199358346864,-0.6426260714562493
1.30078125,0.4779935708571756,0.8108300785426222
1.3046875,-0.022907152121521328,-1.3325328259785982
1.30859375,0.09388880605914712,-1.6192585866468168
1.3125,0.6030305320503113,0.8009635051497046
1.31640625,-0.5083698614795794,0.05437403423384216
1.3203125,-0.6369685369771926,-1.0284173567274315
1.32421875,0.4295658592020986,-1.0427320181272548
1.328125,1.1299621581327781,-0.414920100249973
1.33203125,1.7487034611769532,-1.1797891031370003
1.3359375,1.0159621206795169,-2.52362892482536
1.33984375,1.1281072314025689,-0.21615484522793116
1.34375,-0.2157237879245642,1.5020002780025434
1.34765625,-0.8516544480228387,0.32937997383964307
1.3515625,0.030221154643786798,-0.5061991990363554
1.35546875,0.6230226669495663,-0.22612342002348218
1.359375,0.03539382375194251,0.6515075796289743
1.36328125,-0.16006125536577775,1.5017992296816103
1.3671875,0.10792345065634654,1.0333023788204445
1.37109375,0.5368379345053418,-0.2617254363407599
1.375,-1.8821408784230598,1.3530205307491685
1.37890625,1.0678169551103591,-1.108070800492406
1.3828125,0.5798816969802398,0.11717086004720234
1.38671875,-1.4074852789669718,0.22352538531547483
1.390625,0.16880967372201186,-0.36774548104866583
1.39453125,0.8828519469820519,0.17210578173317576
1.3984375,0.0061155305975862705,0.03505856188753876
1.40234375,-0.24491099272976147,0.5393765396002732
1.40625,-1.681584226762037,-0.33983597919553404
1.41015625,-0.1883995682658632,1.6634442931739923
1.4140625,-0.6391815196815195,-1.2380553531462557
1.41796875,1.7997193602542463,0.07366337744045243
1.421875,0.33154544622873033,0.7465681767450167
1.42578125,0.10152187040982469,0.05191299692964921
1.4296875,-0.6478625640218619,0.3884309929512614
1.43359375,-0.1332856391050367,-0.03820859236494584
1.4375,0.057166663333768186,0.27406130502521514
1.44140625,-0.1606574511018736,-0.9575484281532345
1.4453125,0.24082069535250378,1.1637979713063271
1.44921875,-0.27453627782626355,0.5244925660143366
1.453125,-1.6347710200700825,-0.2717579595849789
1.45703125,0.46551389518247593,0.005087164385067045
1.4609375,-1.3433351234574487,0.22225835129522198
1.46484375,0.2802265557453115,-0.19769985383955405
1.46875,0.8717864072046795,0.061389285012057745
1.47265625,-1.3087126326535263,0.1315881380622349
1.4765625,2.2939218691165713,0.13342981132303974
1.48046875,-0.26833883065772407,0.5422723872496482
1.484375,0.8381690146363068,0.941962262068938
1.48828125,-0.31633178081224705,1.2667003949960032
1.4921875,-0.25044946079194713,0.17861521394647903
1.49609375,-2.2267768055813497,1.8031929310438677
1.5,0.28510363563104163,-0.31659819848503085
1.50390625,1.4517875277304741,-1.091125248033087
1.5078125,-0.7383700582126566,0.697572754129002
1.51171875,0.7064561791645441,0.18784058127391048
1.515625,-2.027354856444572,-0.6566032383962063
1.51953125,-1.1335000712240952,0.32560421427714703
1.5234375,-1.267833797662267,0.16819495776799048
1.52734375,0.7970339164032524,-0.7806613242554157
1.53125,-0.14555393997511767,-0.3954909415703423
1.53515625,-1.7470655586423602,-0.27071569000292545
1.5390625,-1.563788067859742,0.42901084499787284
1.54296875,-0.9392593957543963,0.07180802107667045
1.546875,-0.2159921322075668,-0.30122655837410284
1.55078125,-1.0213119120692276,-2.678186630331221
1.5546875,-1.3089867553120118,1.0047993186519262
1.55859375,-0.7761623430095065,0.1415256842319161
1.5625,-0.5555478816203312,-0.04165774292605616
1.56640625,0.47258221320121546,0.4138461351587743
1.5703125,0.09080881673744591,-2.9582488740168413
1.57421875,-0.2736646027552542,0.012025633815117006
1.578125,-0.3785236191185753,-0.2565204947573038
1.58203125,1.0441089582771614,0.04976948787083599
1.5859375,-0.7555317086001246,1.2331602725678423
1.58984375,-0.7134107540665916,0.45848296235981995
1.59375,0.2089870266206742,1.7102774658241329
1.59765625,-0.15785470043404415,-1.043991799511406
1.6015625,-1.5093142208585428,0.16818701910694978
1.60546875,-1.01212655632928,0.23904318363098565
1.609375,0.003481034861051783,0.19789675840327897
1.61328125,-0.9754688200096094,-0.6759718215696263
1.6171875,0.8053660038611119,-1.6440873501858997
1.62109375,0.4337055416882875,0.3853702819160678
1.625,-0.29334858076607945,-1.0123665805020818
1.62890625,0.054628915541453965,0.8144006070267115
1.6328125,0.6908107147887251,-0.2508465021108806
1.63671875,-0.19813703303990393,1.0668342731527076
1.640625,-0.582834351690607,0.03617630805844497
1.64453125,-0.4137408519927908,1.6154837778181426
1.6484375,-1.1054850646723078,-0.9823993180272299
1.65234375,-2.050576450574085,0.4064358751067925
1.65625,-1.4841107679198715,-1.8103794200864953
1.66015625,0.12607842326187718,0.3596072244031704
1.6640625,0.3934199301342223,1.256428043563718
1.66796875,-1.0713673183189492,0.5410978495188634
1.671875,-1.3775697035609447,1.2745573238889576
1.67578125,0.9249033167269989,0.40422930949993957
1.6796875,-1.5918131478215267,-1.4146433090242907
1.68359375,-0.7988365480719768,-0.23607089070771287
1.6875,-0.3865016481837053,-1.1103270591908858
1.69140625,-0.7644865884652331,-0.11213038642153489
1.6953125,0.4721055118332088,0.09505870032313908
1.69921875,0.436301422206952,0.20962326558077646
1.703125,0.4503876755305516,1.9273260361683728
1.70703125,1.005645735615816,0.10774190868863083
1.7109375,-1.1419262346943826,-0.6054252516086219
1.71484375,-0.7248354498696409,0.9774644206947124
1.71875,-0.35339757216050466,-0.901268350502408
1.72265625,0.3056823029397127,1.02431973084382
1.7265625,0.4819896887598758,0.008057088446189778
1.73046875,-0.25532660312629096,-0.14888303580309198
1.734375,0.9993051696617619,0.44616641871678286
1.73828125,-0.191247266046717,0.09819021442946357
1.7421875,-0.9775517895654218,1.543436830990463
1.74609375,-0.265573476029589,-0.04607336849224708
1.75,0.42973775680200216,0.642403943175438
1.75390625,-0.8365561289465195,0.9828384691802633
1.7578125,-0.6904515681500076,-0.5071480237324401
1.76171875,-1.6325899667264627,-1.2353729018496218
1.765625,1.2786326253450901,-1.762576704101136
1.76953125,-1.007506187513962,0.7147857615349196
1.7734375,-1.8864081081842248,-0.5348411766295544
1.77734375,0.5210592089886272,-0.7795770422169913
1.78125,-0.05772229339792525,0.030356316979417628
1.78515625,0.4488820616517302,0.1956463426427622
1.7890625,-0.7143223948329961,-0.3919536290383411
1.79296875,-0.6450947766158269,1.079154869308058
1.796875,-0.7486531556938,-0.12857368594700022
1.80078125,-1.9003152889526853,-0.1758760958822238
1.8046875,-1.5752856023121755,0.6672844720025451
1.80859375,-0.23944063538526855,-0.4575413793692361
1.8125,-0.4503248508094714,0.03179784283065634
1.81640625,1.2729116070032884,0.2975628092471237
1.8203125,-0.7024605220106768,1.5959521894643793
1.82421875,1.2453562555571254,-2.1625997246489725
1.828125,0.5084031871680726,-0.43449812253939185
1.83203125,-0.7026432085855436,-0.03193495241876819
1.8359375,0.43101838319417635,-1.5345212966390265
1.83984375,0.9754218645697961,-1.0737721533469045
1.84375,1.1365150229703112,0.9469089627860944
1.84765625,-1.828346086479231,0.7202033913121304
1.8515625,0.7071561669035371,1.7645777721956357
1.85546875,-1.1109851687246144,0.4933271651567671
1.859375,1.5203609357362666,0.16933536453822587
1.86328125,-0.13050846623879256,0.7043925754090089
1.8671875,2.377777637426451,-0.805948268477364
1.87109375,0.9927037108926255,-1.6863664550424908
1.875,0.5570471794781796,1.1887643927034461
1.87890625,0.12758492651735912,-0.1277154227849419
1.8828125,1.8442648090690357,1.88463946743382
1.88671875,0.6065413046484115,0.5212958261260887
1.890625,-0.9086725260583302,2.267099405126715
1.89453125,-0.12368752569863829,0.3904432196658538
1.8984375,0.45848261931966955,-0.05424329254558565
1.90234375,0.27504094618300706,0.8647547249552927
1.90625,-0.8148779619841494,-0.754403387057859
1.91015625,1.2904181841044764,0.9673799144185634
1.9140625,-1.589032196832623,0.9447067267317346
1.91796875,0.14019457066712884,1.2977399839633634
1.921875,0.28525120098066076,-0.11405757007090749
1.92578125,0.6772550735904617,-0.11708767273015826
1.9296875,1.084112001925078,-0.3128122341557328
1.93359375,1.6863446528092656,1.556636925955162
1.9375,0.4368998563050924,-0.11977004398755757
1.94140625,-2.2785837315650888,1.1361938941997205
1.9453125,0.8923936703466836,-0.8133338298122116
1.94921875,2.9258185995625734,-0.35074338975335856
1.953125,0.9464846897095498,-0.9378531233245111
1.95703125,0.45017257804556565,0.02476632511426686
1.9609375,-1.708775617171468,0.36781711546166823
1.96484375,1.1556330704741478,1.789799454976686
1.96875,1.584642208932354,1.2946617542570857
1.97265625,2.0975296164436616,0.6796061788581348
1.9765625,0.37761560880325873,0.06393571318918927
1.98046875,1.022489416970895,0.8550429359361342
1.984375,-0.5630308653248547,-1.2478553521722318
1.98828125,-0.4418658339073627,1.350448393580018
1.9921875,-1.001737966047874,-0.2760056174075764
1.99609375,1.0831171982433794,-0.004852365713851038
2.0,-0.3626820184305575,-0.9239223826738077
2.00390625,0.8654029348411711,1.8748840599691599
2.0078125,0.19772888552340948,-1.5147179249532636
2.01171875,-0.2907404431124102,0.6503682449888819
2.015625,0.7457058573208364,-0.4342267803257564
2.01953125,-0.46839064089798554,-0.5399227244848014
2.0234375,0.16125967909702638,-0.637612248853911
2.02734375,-0.7297587817488926,1.344597763549892
2.03125,0.3499738355585565,0.9410300314829536
2.03515625,0.9046855819357903,0.735507849892944
2.0390625,1.2868203336762747,0.02996609282514736
2.04296875,-1.206098279223183,-0.26094215801670834
2.046875,1.7576780958384781,-0.07102496182718299
2.05078125,-0.1882865713403401,-1.435572526009124
2.0546875,1.4165393580955634,-0.9558647943436182
2.05859375,1.441393285184688,0.8710280511898643
2.0625,0.2524217991073363,-0.20354951151246428
2.06640625,2.4187446866544153,0.2890552777721905
2.0703125,-0.16046382754981783,0.41531665195668854
2.07421875,-1.455287487190965,1.1679951041970373
2.078125,-0.7912175939897245,0.13326794047420942
2.08203125,0.6402624372550692,1.6665574785374158
2.0859375,-0.48060880409962137,1.4571334335785053
2.08984375,-1.1820084375281903,0.49874830582789853
2.09375,-1.2626795569829061,-1.2235581004926501
2.09765625,-0.18113596090817627,0.2820735579934852
2.1015625,-1.577935832532927,-0.3767679868663801
2.10546875,0.49544495449403775,-1.5416282161672015
2.109375,0.47560850803987487,-0.9908806895923978
2.11328125,-0.3933592552242948,-0.2397392788918251
2.1171875,-0.9450755811099981,1.134536984584788
2.12109375,-0.042203327415181714,0.15872439667597693
2.125,-0.3185659203661418,-0.1776032363494012
2.12890625,0.03387340608489836,-0.6706579569954347
2.1328125,1.677358497490475,1.0747211159344103
2.13671875,-0.5924704589992424,-0.26133327780911886
2.140625,2.187435995121957,-1.587650065273962
2.14453125,0.26131116787938014,-1.9572055563672803
2.1484375,-0.15119124044220084,-0.8348110759500917
2.15234375,-0.9514997368953293,-0.03350130789681661
2.15625,-0.3043816020316246,1.035129613471647
2.16015625,0.8725215348547158,0.6822076740204944
2.1640625,0.6692689417199535,-0.26227300885572447
2.16796875,1.2943986755371364,-0.035745019079281244
2.171875,-0.3760408944749071,-0.0829973860546566
2.17578125,0.12856003648950984,0.4444192368146444
2.1796875,-1.4122226012848405,1.0902542870305851
2.18359375,-0.12272898887911829,-0.07686967236965132
2.1875,0.32840012199840113,0.5604166042048027
2.19140625,-0.8894247326426,-1.6971278242310412
2.1953125,1.3668754889134205,1.05243596344136
2.19921875,1.229421607710847,2.6688269997996086
2.203125,0.7893380029972333,0.7738334895547503
2.20703125,-0.48852113746978354,-0.27163553011440683
2.2109375,0.746288700673139,-0.3179590546967097
2.21484375,-0.21453024583762142,1.1751671096799647
2.21875,0.866517209011875,-0.8397613929564794
2.22265625,0.11563225059099135,-0.594635057871929
2.2265625,-0.3317716767774372,0.3459150306557393
2.23046875,-0.33754501020464267,-0.5328257930884416
2.234375,2.9684054765077237,0.6426643588573218
2.23828125,-0.6797898997126817,-0.049466430901962025
2.2421875,0.5378096897843051,0.705558846634346
2.24609375,-2.673019974178547,0.44424139080172753
2.25,0.5793440059671403,-0.5612003211322377
2.25390625,0.21183984680932175,0.3346255356631474
2.2578125,1.7949220062875888,1.8313171720151222
2.26171875,-0.4613197440503333,0.2067538539947105
2.265625,0.3781651661998065,-1.0460189816566001
2.26953125,1.5039156974777506,-0.25384314427731847
2.2734375,0.8898488709810892,-0.7303492835944203
2.27734375,0.5746970811279908,1.5891995118431146
2.28125,-0.7992152469572745,-1.0334799802580268
2.28515625,0.24040229401125346,0.5759044309338726
2.2890625,0.7965839641863249,0.05688263106324104
2.29296875,-0.12851342105866198,-1.8682869482520115
2.296875,-2.0091849163856295,-0.41433182288227577
2.30078125,-0.18766399162290287,-0.45969890001687175
2.3046875,-1.5487625939406564,0.3151800547325898
2.30859375,1.2897541787789686,0.35884666698394224
2.3125,0.741377617795488,-1.4058442413317178
2.31640625,-0.7531372816172135,-0.6850402791909614
2.3203125,2.9407001528836596,-0.21018512778012516
2.32421875,0.25950387993945234,0.7333685597381301
2.328125,0.8735145418159933,-1.708533224371167
2.33203125,-1.0670800623908767,-0.3360264566773663
2.3359375,0.07597168463225987,0.7245561669129817
2.33984375,0.7807610122201686,1.1342418745131542
2.34375,-0.303185175345716,-1.193766616738726
2.34765625,-0.3945478334543698,0.7914776734342694
2.3515625,1.8626495917356911,0.7326830768211438
2.35546875,0.4281252448110132,1.094665106156491
2.359375,-0.16643678278691967,-0.9477042628502936
2.36328125,1.163946662396429,-0.4000372623453398
2.3671875,-0.8279952020005876,1.1280967137444426
2.37109375,-1.7494289101349898,-1.2639058921740498
2.375,1.5072068806391565,-2.2918905304960195
2.37890625,0.179521408973485,1.1665181271974656
2.3828125,-0.9437850061957842,0.8523387853482369
2.38671875,1.3795074323165477,1.5966606336057896
2.390625,-1.15150456195954,-0.38400773613099587
2.39453125,0.3415801968650538,-0.060753348215033164
2.3984375,0.0014641453148105871,0.22889845698777064
2.40234375,-0.24548691458322613,-0.14791392518562008
2.40625,-1.115795994545369,0.019721201772928486
2.41015625,1.0535047427955844,0.5395460220409668
2.4140625,1.1430299587145556,-0.2714602043116168
2.41796875,-1.008873532267248,-0.2529276396762064
2.421875,-0.033650840778524975,-0.3647819640504405
2.42578125,0.8332737293185511,1.457326266044837
2.4296875,-0.1598822259335193,-1.0233770886235742
2.43359375,0.02024076920955516,-1.722332910310261
2.4375,0.8892467822513757,1.0542393129786733
2.44140625,0.36087902120918425,0.7236959653982835
2.4453125,-1.7591125421337155,-0.38699646848988445
2.44921875,0.4920577889525152,0.08539393422855882
2.453125,0.3067240862759624,0.17291436444573832
2.45703125,0.45375735648569243,-0.43657246819567797
2.4609375,1.590427572675922,-1.7483704123599606
2.46484375,-0.9712611921435199,-1.2611523396007966
2.46875,0.09672889306934199,0.15599076968795988
2.47265625,0.9893031453173584,-1.205856322459691
2.4765625,-2.034539054770657,0.6740986518682057
2.48046875,0.7580841702918912,-0.16937231620993615
2.484375,0.09981884767072,0.6257363914332433
2.48828125,0.04926335056082175,-0.049105550712348615
2.4921875,0.4829955124917717,-1.2448211600817225
2.49609375,1.3737135612472617,-0.4521145429698386
2.5,1.5369471525199563,0.9571441471167519
2.50390625,-0.2370106454785661,2.6262557528185204
2.5078125,1.7424749747684427,0.2053563867610252
2.51171875,-0.9917967659640047,0.18551666151639076
2.515625,-0.3280624392487033,1.0471269818709634
2.51953125,-0.28474198785967647,0.44270264533960996
2.5234375,0.31902670468036337,1.1223505916585215
2.52734375,-0.6066029689827573,-0.7195317086331079
2.53125,-1.1495246824853118,-0.8956059217390853
2.53515625,0.2184073376812292,1.284976390960271
2.5390625,-0.7999116352628196,-0.875242289057463
2.54296875,0.3627131273190504,-0.5167839143549499
2.546875,0.7998971349990974,-0.050929368073211134
2.55078125,-1.151035318777188,0.21327148011502356
2.5546875,0.06462279582144378,-1.0546840242698086
2.55859375,-0.7711261400483519,0.931437501304755
2.5625,0.7627357936686038,-0.9090714045374814
2.56640625,-0.0778159343111921,0.284800070005792
2.5703125,0.12916655178584768,-0.7727034489769943
2.57421875,0.6250460837996127,0.0038011690229029656
2.578125,-0.5472170701783782,1.0258306536208386
2.58203125,-1.62799376695888,-0.867468201265283
2.5859375,-0.05176329924510273,1.858354177979915
2.58984375,0.9673451462504208,0.17647748076565326
2.59375,-0.20964598056982894,0.5586137516256936
2.59765625,-2.204109699649653,1.8820064567342
2.6015625,1.53784253802395,0.7108009426408807
2.60546875,1.2758704656685054,-0.769647075736356
2.609375,0.772995989517639,2.0755846272443246
2.61328125,-0.6319060380947645,2.1824290291046116
2.6171875,-0.9227541791094871,-0.3842350127141682
2.62109375,0.34940540227069666,-1.0007763252958768
2.625,-0.6036442089269073,0.31784260994295377
2.62890625,-0.33072009587610773,-0.532142766463024
2.6328125,-0.4889979199378468,1.6564385065086191
2.63671875,0.4898436543265627,-2.1881890426173696
2.640625,-0.8982464456064875,-0.09779567390938124
2.64453125,-0.26602367212167344,-1.9592122654150783
2.6484375,-1.559543861076736,0.04125541855769067
2.65234375,-0.6340626478946637,0.481702451414209
2.65625,0.8650935585664803,0.6081662702192082
2.66015625,0.8593986847745276,-1.6264263448855707
2.6640625,0.5327124725873397,-0.27558116115063325
2.66796875,0.17917399885937452,-0.5744516729647227
2.671875,1.0408863706774572,0.20690262908350057
2.67578125,0.7905909424274703,0.251321676457668
2.6796875,0.5733110064618225,1.1688509895098633
2.68359375,-0.8360279522602688,-0.5354956694808546
2.6875,0.0010150556738862996,1.9055055317064737
2.69140625,-0.044214687291327305,1.1182489238089628
2.6953125,-0.465575734675427,1.1668357023640468
2.69921875,0.6846194476563147,0.6377440521789307
2.703125,-1.674001225602626,-0.18666443613000896
2.70703125,-2.0166571995028106,1.9433412654276547
2.7109375,-1.489917204463196,1.3627582350873515
2.71484375,-0.11340588182531647,0.273820904785808
2.71875,0.24611035714473073,-0.6846966595951643
2.72265625,-0.1888607439785,-0.25789754541511817
2.7265625,-0.15610253100272642,0.24847916649338764
2.73046875,-1.3797838887728857,-0.44315253249816566
2.734375,-0.43128049528808965,-1.5420809753296147
2.73828125,-0.2542148091223474,-0.7184213308781966
2.7421875,0.2776535027043114,0.6150641558176337
2.74609375,0.6401330580470699,0.5899142421674276
2.75,-0.6134952609243904,0.10645544433898141
2.75390625,0.5920794271398451,-0.9537785768391849
2.7578125,-0.12880288180163635,0.4772678525354235
2.76171875,0.28991715176707455,-0.62730923362833
2.765625,-1.5369126629455248,0.10002261968095494
2.76953125,0.2218228997957568,-0.12166704888544352
2.7734375,0.7510673276990174,0.7887429644684588
2.77734375,1.0980680904548987,-1.4376094750449648
2.78125,-0.15889397540969685,0.7068489085155623
2.78515625,-1.3058780359854651,1.7187572708572414
2.7890625,-1.303112136052635,-0.04193051654883635
2.79296875,0.28428884644856295,-0.9893700509128378
2.796875,-0.022324737978580773,0.8397256266863655
2.80078125,-0.08482279870907396,0.39100683386076024
2.8046875,0.04148935772126481,-0.05923773105849777
2.80859375,-1.499381407167079,-1.1233003932500811
2.8125,-1.1888931917680365,0.23618662524831613
2.81640625,-0.5939869618164575,0.331630218769161
2.8203125,0.5776100775055946,0.28026351346610345
2.82421875,0.1872027910158035,-0.44070210986797465
2.828125,0.5986886328947705,0.24989783886863756
2.83203125,-0.1701342991154632,1.6117919050887641
2.8359375,0.5740117598333433,1.0467826162213623
2.83984375,0.7488150911608048,-0.6655308823502791
2.84375,-0.5245463524011935,-0.30210729715621387
2.84765625,-0.0949170020145109,-1.0936724611671407
2.8515625,-0.17308310203708765,-0.44227325055256794
2.85546875,-1.9516725741190661,1.2951083856363708
2.859375,0.8833668917924823,0.926358758743674
2.86328125,2.1090745092895253,0.7671360125669746
2.8671875,1.6931970140520607,0.6172433759865181
2.87109375,-1.0607551293639739,-0.5059534153960911
2.875,0.8892899296666491,-0.278932169820802
2.87890625,-0.38622838368496754,1.5687932566093377
2.8828125,1.2100614226400972,0.28050369582556456
2.88671875,1.0177646725783385,0.9309486501498963
2.890625,0.7786395822898053,1.0956182624442619
2.89453125,-0.20525138735343226,-0.5044643684549004
2.8984375,0.8211531314995477,-0.6037846211945425
2.90234375,0.3289780312443186,-0.3554040617105657
2.90625,0.5016741725869167,-1.124889554305346
2.91015625,-1.069272719930459,-0.28623634506661455
2.9140625,0.8391834169409649,-0.7354168815824557
2.91796875,1.841670924769212,-0.28045436509762917
2.921875,0.7009424275357838,0.23951853757284336
2.92578125,-2.1173974070027106,-0.48714875452665796
2.9296875,0.4774945314430711,-1.406066886569979
2.93359375,-0.27499423950232965,-1.4172213402076197
2.9375,-0.2364648275097975,0.33638452185149703
2.94140625,-1.7463333665553136,-0.5462368125782255
2.9453125,0.9729176348901484,2.0912697626278676
2.94921875,-1.0331152000619293,-0.3229096012790072
2.953125,2.702084202185041,0.5498485841295326
2.95703125,0.48952329462526134,0.33652781410393484
2.9609375,-1.4115374021650915,-0.5698698048133534
2.96484375,-0.7405483216480169,-0.6916194039193402
2.96875,0.43287701317321114,-1.9421337435810837
2.97265625,-0.4927006760853976,0.5521379843409359
2.9765625,-0.05054273091600792,0.22478204754311892
2.98046875,-0.20756002604491028,-0.5913728172744457
2.984375,-0.8668097053997991,-0.3546836541217075
2.98828125,-1.0333596070640099,0.48596398721806805
2.9921875,-0.9894693553230929,-0.7970564955574211
2.99609375,-0.6590823647633532,0.3523696348026867
3.0,-0.3499559787906534,0.5147949281215471
3.00390625,-0.8071537896589775,-0.5253670878338779
3.0078125,0.2688148734235996,0.2403262749825705
3.01171875,-0.20581139127264944,-0.8507427287559646
3.015625,0.8263107809555472,0.41649779029583983
3.01953125,1.0072312814256263,-0.2728169740105687
3.0234375,-0.10451555938993655,-0.10078369007870783
3.02734375,1.1852366736788702,0.9635039909213402
3.03125,-0.3515387475345186,0.008324910171059454
3.03515625,-1.669936259191373,-0.8987474903852801
3.0390625,-0.5353727549668577,0.12229239365849437
3.04296875,-0.5180236053219153,-0.5152548537079911
3.046875,0.255607289607765,-2.3642670609815393
3.05078125,0.385485065004167,0.9779269885945733
3.0546875,-0.19351310437189992,-2.0761543500414428
3.05859375,0.2149707557663894,1.9076475959075512
3.0625,-0.7465879637596979,-1.3995235102200407
3.06640625,0.8912562389274246,1.408032292902852
3.0703125,-0.4461126827046651,0.03645134768541456
3.07421875,-1.1419567018463437,-0.10973897453413686
3.078125,0.2043769577114419,0.40115740802661265
3.08203125,-2.219026413333334,0.20040241082054108
3.0859375,0.6814954322480128,0.027654070542446212
3.08984375,-0.3457693189388184,0.4748133986596
3.09375,0.8792956942239868,-0.6940409572577533
3.09765625,0.15117662212706995,-0.09731479532006916
3.1015625,0.8599927383446458,0.4142974913592608
3.10546875,1.5419871361447346,-1.0294065067576286
3.109375,0.538542665177858,0.01442587383772009
3.11328125,0.6853740848659342,-0.5483029001410086
3.1171875,-0.5834275671589619,1.5846638984623467
3.12109375,-0.15025094937519365,-1.0316448852760056
3.125,-0.7894402759049569,0.7722401469203289
3.12890625,1.3704284362389656,-1.3131970484364055
3.1328125,0.5913385863419068,0.39241920395675917
3.13671875,-0.34300218501303825,0.46322103317384433
3.140625,0.7526450514251012,-2.0481175966909793
3.14453125,0.1418501672271737,-1.004808507806422
3.1484375,0.028336254280338005,0.47846459730814167
3.15234375,-0.024849892500800694,-0.09309915896849646
3.15625,0.021809449537397337,-0.10396933030048827
3.16015625,-0.18340812130669235,-0.5747138264112764
3.1640625,-0.9396782650250357,-0.6321698049147624
3.16796875,0.2808637436482096,-1.8586471569106862
3.171875,-0.13191675454542348,0.8554852008692237
3.17578125,-0.690659941395994,0.587524056847269
3.1796875,-1.3988063007951077,-0.6281826825011041
3.18359375,-1.3926675762462264,1.7936661061472594
3.1875,-1.5323265373827768,-2.4216851830237114
3.19140625,0.6901217889343488,1.122256143645036
3.1953125,-0.8139574671098797,-0.1563147735796843
3.19921875,0.08302805661336345,0.11700042708858963
3.203125,0.6253457240316121,-0.09406956894261491
3.20703125,0.8185767370057238,-0.3765903397948642
3.2109375,1.303065276274913,0.4640812088046852
3.21484375,0.1676804028833266,-1.611866607130278
3.21875,-0.20817690477721626,-1.9880110173201564
3.22265625,-0.8247468041906341,0.16984135253531807
3.2265625,0.5204282373569064,0.8303698001286222
3.23046875,1.007537771306847,-0.6505641062691889
3.234375,1.2210857197278795,-0.691617532193746
3.23828125,-0.002994129984666027,-1.424935399958917
3.2421875,-0.16511370581915988,0.36295126819629914
3.24609375,-0.38669866445126905,-1.800948411947958
3.25,-2.4412679159552986,0.8942331903867661
3.25390625,0.47961516597667664,-0.20061891783889704
3.2578125,1.4242701506602438,-1.2375173743517596
3.26171875,-0.5074359641856847,-0.7421629062289229
3.265625,1.4001800757909746,1.1307860089117878
3.26953125,2.2046838841509566,-0.5039614933583045
3.2734375,0.5977332526452932,0.13323497891061875
3.27734375,-0.34477315626660154,-0.8518206282484275
3.28125,0.05201309555136409,-0.043778123491324865
3.28515625,-0.8526223599207553,-0.4664922707132665
3.2890625,-0.815358070071379,0.7817993962950318
3.29296875,-1.1991450180330088,0.8749743114373983
3.296875,0.8696466870149061,0.36317438305197747
3.30078125,-0.7025178604830854,0.1852868428544797
3.3046875,-0.8229943689535796,0.5354585064483096
3.30859375,2.261455591515559,1.404309555070217
3.3125,-0.12876331326321977,-0.3853880492089015
3.31640625,0.708296360084008,-0.26704618792955465
3.3203125,-1.0371432623072279,1.3045299912729413
3.32421875,0.3228081393361059,-0.7120736902456137
3.328125,0.7931467319293085,-0.10360517829746015
3.33203125,0.48879453306134174,-0.31301604682569784
3.3359375,0.6058836395615363,2.5635568365806343
3.33984375,-1.090862185616129,0.7866451342460666
3.34375,0.9130116408297603,-1.2427920162576223
3.34765625,0.18798426350488612,0.5389244590189859
3.3515625,0.8040907284725306,-0.316711796762561
3.35546875,0.6899470335545882,-0.5907409281100847
3.359375,-1.3947140842830783,-0.9606275827443674
3.36328125,1.66381864047522,-1.0573396782138815
3.3671875,-0.2039258198307248,0.35638110112958976
3.37109375,0.6457470029326849,-0.5471216386254781
3.375,0.18542806356598063,-1.0033217733373587
3.37890625,-0.6390627282106879,0.4509222366041687
3.3828125,0.6858683562118321,-0.7374950730787145
3.38671875,0.15505314586728336,-2.0022294528752687
3.390625,0.5792701462513482,-0.24984374765584116
3.39453125,-0.32380569859226044,0.018988900740074578
3.3984375,0.6908046019411686,0.8982662100675599
3.40234375,-0.8423077251326001,0.8686477356495538
3.40625,-0.07361275773545513,0.36850618208676655
3.41015625,0.7242486507732382,1.7592588984339397
3.4140625,-0.039277576196997295,-0.9121317358505672
3.41796875,-0.7676062469942272,1.3723588956819803
3.421875,-1.9972785286314731,-1.1393030995864804
3.42578125,1.1872536860348846,0.9499305311560802
3.4296875,1.1921231222172253,0.6117995984521509
3.43359375,-0.8874608002786835,-1.227586276263608
3.4375,-0.09243939729081443,0.6084878022016407
3.44140625,0.4245827239807849,0.4983202501454807
3.4453125,-0.6863011123501659,-0.30103538088666026
3.44921875,-0.07859270233757815,0.9010813633865424
3.453125,-1.1586438533659018,-1.7815160569913702
3.45703125,1.7687360628910702,1.7011988168088328
3.4609375,1.3481782464717573,0.1470280022907514
3.46484375,1.8142980114003486,-0.09129115795850387
3.46875,-1.5710142471657536,1.167428694713179
3.47265625,0.5620259539143028,-1.0087073411061511
3.4765625,-0.6368202093114254,1.676999949204733
3.48046875,1.1990177028913585,1.023651643436728
3.484375,0.792969426204232,0.1301114825526263
3.48828125,0.03118330107798804,-0.8365148597639579
3.4921875,0.29888077888792014,-0.2502067200581078
3.49609375,1.4337088072975621,-1.6291120107228998
3.5,-0.15796665520947414,-0.25940762578868665
3.50390625,-0.11427400443727116,1.2251605331965771
3.5078125,-0.5469610037148077,-0.11173881383548913
3.51171875,1.0350567677868623,0.22839603318343757
3.515625,2.11784441733189,-0.8001284353511909
3.51953125,1.2434127327790854,1.009283765925881
3.5234375,0.09197263629917153,-0.716055427495607
3.52734375,-1.5500160895104185,0.8458444470890112
3.53125,0.43394345235412257,1.7471309520419542
3.53515625,0.19235394931363425,0.06468950632833043
3.5390625,-0.993442254552799,-0.04176524393750509
3.54296875,-0.11500685879729579,-0.12578204567877113
3.546875,0.6518608292156194,-0.19903122449995708
3.55078125,-1.1417109087228483,-0.3773183791487683
3.5546875,-0.559121961843915,-0.8014544520497128
3.55859375,2.1476895708885353,-0.9735845589373329
3.5625,1.221530279026294,0.34734525683389383
3.56640625,-0.6157455748873505,-0.8939407019549737
3.5703125,-1.0630939999865803,-0.3536946559637276
3.57421875,-0.12388670704153414,-0.4680787645151564
3.578125,0.1436019610577611,0.3610561169737982
3.58203125,0.38134321347034056,1.7299784294497935
3.5859375,0.1024834381185673,-0.44893464128429594
3.58984375,0.22730936394998486,1.2552338677187806
3.59375,-0.18442724090416926,0.4151738445422798
3.59765625,0.34886665662337285,-1.5848864264876967
3.6015625,-0.0026056034602668712,1.0417420469118441
3.60546875,0.26597615926976115,1.1958448200382585
3.609375,1.9770237681688745,-0.4843190500256557
3.61328125,-1.9364724334819985,-0.13930394363170134
3.6171875,0.04656266384044489,-1.7805294826886324
3.62109375,-0.21060635779386194,0.9919186237192416
3.625,-1.8762633677614253,-0.3455524238168652
3.62890625,1.293883063273221,0.44748279208517816
3.6328125,-0.11252713535733677,-1.0200083378804201
3.63671875,-0.4954250159655504,-0.16626643936815655
3.640625,2.280450191235851,0.5986999430114224
3.64453125,-0.8172803994831864,0.9693062099183123
3.6484375,0.8731378077827875,0.26769059585108246
3.65234375,-1.3269741766541554,-0.2966633883857337
3.65625,-0.40297338856538295,1.4052468029761622
3.66015625,0.14511133003403448,1.4750914656195553
3.6640625,0.5164763704259416,-0.33559333109441325
3.66796875,1.0755524107928476,1.1571140385702905
3.671875,-0.802688454308497,-0.4420308475905286
3.67578125,1.6013776439996394,-1.821830843302918
3.6796875,0.10399986373374531,1.1563851710852433
3.68359375,-0.9469265280555522,-0.041265563546485494
3.6875,1.0114777247475724,0.4684883702560992
3.69140625,-1.3526385421360565,-0.09512808446614561
3.6953125,0.774187311612193,0.05091004457442235
3.69921875,1.142774231306272,-0.7786468030388538
3.703125,-0.7631580452894923,1.0190270270330801
3.70703125,-0.49979164719656377,1.3609973515255185
3.7109375,0.6278295643753955,1.3830658855367741
3.71484375,0.5038231408711676,-1.0070619141692874
3.71875,0.7542048063658149,-0.9873253407792635
3.72265625,-0.44476088141835285,-1.9261372660870586
3.7265625,0.8756829483097514,1.3736969037600069
3.73046875,0.1978241456367066,0.5446438759222585
3.734375,0.6529112004326546,0.9591281530363551
3.73828125,-2.5177176798944405,1.0070300363377824
3.7421875,-0.9765931641869653,-0.20539018658788608
3.74609375,0.04382074776853822,0.17599730967266075
3.75,-0.23647873962598834,-0.49079439417444576
3.75390625,0.9575862586387194,0.4197361803276972
3.7578125,-1.1069318937206327,0.1965551243870931
3.76171875,0.09338210057124272,-0.17771535795859972
3.765625,1.8260046036671522,0.2880748824247786
3.76953125,0.6561469647355292,-0.4276433193496547
3.7734375,-1.182996166200127,0.4313333220164555
3.77734375,2.0652284028651406,-0.6860856647440653
3.78125,-0.4482519517827105,-0.2699612877748325
3.78515625,0.9557223211978289,0.2169298988358199
3.7890625,-0.08256649555205779,-0.1696238625412781
3.79296875,-0.7032192062781504,-0.6153428501697729
3.796875,-0.3546256867045795,-0.3883274801130578
3.80078125,1.2304237170463315,0.8397598597164095
3.8046875,1.2894406547536914,0.5145357198390589
3.80859375,1.3987889997033238,-1.2421876859238172
3.8125,0.9163964503126835,1.4489100587715407
3.81640625,-0.1255170282872801,-1.3885330854038236
3.8203125,0.08955857257855829,0.2830519421970769
3.82421875,1.1856509882240198,0.5785864382059722
3.828125,0.5069537962953539,0.47474739186272513
3.83203125,-0.8327707580037688,-0.4140258380162019
3.8359375,-0.41242080261611846,-0.44858479975097837
3.83984375,-2.4353443585902412,-0.6164607001788682
3.84375,0.9953665462301899,-0.2884788339631199
3.84765625,0.6060752130106806,0.5344132563040289
3.8515625,0.857201925973468,-1.7239906312838087
3.85546875,-0.28476624035574155,-1.0608681534184774
3.859375,-0.6188759593210537,-0.18055142519523482
3.86328125,0.5026951619514602,-0.36150548368323576
3.8671875,0.15554647297053575,-0.3832971165192814
3.87109375,0.07452281293612427,-0.9867528893096916
3.875,-0.28190280004019297,-1.3437383225034738
3.87890625,-0.2940709479391043,1.375324011234821
3.8828125,-0.092174423670471,-1.175713792070469
3.88671875,-2.5811646046685524,-1.9391508451983144
3.890625,-0.480570257795475,-0.5007167064348438
3.89453125,-1.2467959189684892,2.005374146716074
3.8984375,0.1821192072272044,0.3493207325887025
3.90234375,0.05264187592583259,0.825756234264594
3.90625,0.4346614410256673,-1.326166412321182
3.91015625,-3.2349686054813303,0.9501101541816698
3.9140625,0.09378719064965273,-0.46499742132400806
3.91796875,-1.2414940458419796,-1.4724500126557987
3.921875,-0.22557771691720585,-1.1878024710986717
3.92578125,-0.03115949829485827,0.7860676279556673
3.9296875,-0.19638854741022124,-0.12018558769602683
3.93359375,1.2821517065378307,0.7531248849202113
3.9375,-0.6022441339519766,1.2722180363425726
3.94140625,-0.42438813428509536,0.29989552181300766
3.9453125,0.2370395422392756,0.8979637253588753
3.94921875,-0.7055072366231536,1.3258066309654593
3.953125,1.8296041308929059,0.2732574601567199
3.95703125,-1.7455015133643756,2.0679232307844853
3.9609375,0.9664345322383829,-1.447967129021259
3.96484375,-0.32624420244824587,0.6885820000205254
3.96875,-0.40063525878242795,-0.7438142651892166
3.97265625,0.797772759792902,-0.24595281539063862
3.9765625,0.028804406481450936,-0.782648858764852
3.98046875,-1.7945539963397965,-0.051816156809829476
3.984375,1.472057033104365,-0.015126398623814687
3.98828125,0.3732481134899864,0.47261867122385054
3.9921875,0.5915058675759357,0.9309503689340052
3.99609375,-1.4971482942070329,-1.5216611713422996
4.0,1.2468079439646167,0.6730256087950748
4.00390625,1.5708867558899196,-1.269778832859308
4.0078125,0.8268927926323068,-0.09363357711079301
4.01171875,1.242958374351968,-0.30849891402669893
4.015625,-1.082495099246841,1.0205782677434052
4.01953125,0.24998575656031016,-1.4741280678738202
4.0234375,-0.3183585222671183,-1.0114103538024435
4.02734375,-0.12605489628195463,0.9518004681146012
4.03125,0.7656126096589849,-0.8509125218775846
4.03515625,-0.39652956006482853,-0.48816178524863435
4.0390625,-0.6170945819421394,-0.3392030364871446
4.04296875,-0.22502664549659596,-0.6026112328794553
4.046875,0.5113040957693559,0.21046495330410767
4.05078125,-0.34799654023295784,-0.9005514381804284
4.0546875,0.5251312333491571,1.6605546230095873
4.05859375,0.44016416352592946,-0.5693408037809886
4.0625,-1.4272737793366042,-0.07750391981134057
4.06640625,0.7911074784337147,0.15193597077174076
4.0703125,-0.9810964332137979,-1.1281745649442447
4.07421875,-0.45752475257870656,-0.06320001039745225
4.078125,-0.9849750575251223,0.48923976836326905
4.08203125,-0.5481445561694137,1.247374273084582
4.0859375,-0.5143041016821371,0.6135448901428292
4.08984375,-0.8448540457785673,1.675321236345079
4.09375,1.8485643386475201,1.3900592534859668
4.09765625,-1.2420724153123177,-0.944949220420631
4.1015625,-0.5283574460420477,-0.5482092840134204
4.10546875,1.0528894074315884,0.8427555755917875
4.109375,-0.826560107656937,-0.477224455220007
4.11328125,-0.18070583270345753,0.6455609071371319
4.1171875,1.205938198587163,0.06642610040496566
4.12109375,-0.65957117932874,-0.053440506402788815
4.125,-0.4624785980471954,-0.8389849966077152
4.12890625,-0.3642590992524601,-0.006182220005836851
4.1328125,-0.10084597405305742,1.8646542467849205
4.13671875,-0.3671711488768761,0.6302422902584627
4.140625,-0.019208504996627365,-0.787077738184366
4.14453125,0.6047612258039883,0.27956478884154035
4.1484375,-0.6039083925061317,1.289152723778466
4.15234375,1.2310525977944857,-0.6779377264713736
4.15625,1.0030620456892203,0.7727598895180983
4.16015625,1.6797035162481309,-0.20793160594249627
4.1640625,0.6278745325207076,1.0708459818507463
4.16796875,-0.627291819472279,1.119022491115208
4.171875,-1.4241841899704166,-1.1228856990609413
4.17578125,0.2559568358525082,1.9209189296411397
4.1796875,-0.006268695872016806,-1.3447293961300733
4.18359375,1.0616756582670694,0.07828023767651077
4.1875,0.0314417608623509,-1.0946118703455752
4.19140625,-0.023077170636702726,0.6225448424218347
4.1953125,1.7936906770800514,1.263497907912803
4.19921875,0.8293444811709569,-1.5536482229236883
4.203125,-0.9764685871100299,1.7925987906333993
4.20703125,0.046395729284458564,0.647600500129864
4.2109375,-0.8592385967475048,1.029533914145023
4.21484375,1.1654145591489322,-0.7320184352693294
4.21875,-1.1207533819957358,-0.14391745499857542
4.22265625,1.6934367752885717,0.12203926865627236
4.2265625,-0.27698471125165103,-0.6464914682602778
4.23046875,-1.1682338719114207,-0.2743942100490493
4.234375,-0.5466405129142377,0.7808795395352535
4.23828125,0.8884423018685979,-0.16656967791469623
4.2421875,1.7377644534697014,0.1305324636802861
4.24609375,-1.2701720565418726,0.5994456218742933
4.25,-1.499952405565043,0.4554082109810857
4.25390625,2.709479826092187,-0.5181084392083416
4.2578125,-0.358969972513204,0.4076646532881389
4.26171875,0.7459602663115604,-0.11159162121249729
4.265625,-1.0548072851024328,1.0283818523418495
4.26953125,-0.4837366240577597,-1.9498159447994519
4.2734375,-1.7182349747373138,0.4469681901907897
4.27734375,-1.550362974708035,2.12900764537153
4.28125,-0.41817910674822356,-1.4959308205428983
4.28515625,0.17920117539679328,-1.1305119184448869
4.2890625,-0.3828408858523193,0.9803664651793972
4.29296875,0.7965936099723258,0.9302526386677085
4.296875,-0.4286198606145157,0.40033464446248457
4.30078125,-1.2831169519469272,0.5311135211572667
4.3046875,0.1797904313047123,0.3743710445505434
4.30859375,1.3827130107320071,-0.2043674442897862
4.3125,0.7922331098719068,1.5459575698585206
4.31640625,0.4461485636641762,0.6273890807390666
4.3203125,-0.04361589105987881,-0.32855226816445393
4.32421875,0.43993141397590835,-0.30503603395126905
4.328125,-0.722959149545893,1.9421798194488993
4.33203125,-0.4273695572258102,-1.5058236211503213
4.3359375,-0.2757265523022591,0.21259464873141348
4.33984375,-0.5432163273484648,-0.6701459174050904
4.34375,-0.5811973897987182,0.012920459209519113
4.34765625,1.344662138585189,-0.12313815018528743
4.3515625,-0.5788520212179504,0.040214987168566536
4.35546875,0.5142332337737187,1.238075352080738
4.359375,0.013332640218049968,0.5201455475504722
4.36328125,-1.8039727141577024,-0.072612705020842
4.3671875,0.02958136768700949,-1.3124655673092667
4.37109375,-0.9459870769382781,0.9540648136606366
4.375,-0.743269471169028,1.116869965174622
4.37890625,1.2489397818683554,0.8562356703842108
4.3828125,0.6056636316383387,-0.048747131323164654
4.38671875,-0.9777888804815823,2.1711373243095555
4.390625,-0.01745927422614784,0.34932456040527277
4.39453125,-0.8949348748564387,-0.7277051756143544
4.3984375,1.5875298415884755,-0.008745592846603091
4.40234375,-0.6355636822991223,-0.4999933000737898
4.40625,-0.12957526575309541,1.9617774910579115
4.41015625,-1.1788866188745342,1.4262829789237652
4.4140625,1.1340011329574666,-3.7119051166825665
4.41796875,-0.1909992425216948,0.6141575307721899
4.421875,0.8198074939576785,1.0708996816168557
4.42578125,0.24804640219274338,0.5312786049085313
4.4296875,-1.7847825703413784,2.2067062951740715
4.43359375,-1.0728190451846056,-0.02120672194883227
4.4375,0.2419499124727177,0.05666605258768952
4.44140625,-0.8600279025536233,-1.5828527386588016
4.4453125,1.4817267754258332,-0.2630982478535106
4.44921875,0.14050450649089952,2.290951976925076
4.453125,1.1503728733312824,0.9789618256629605
4.45703125,0.44191402655793466,-1.4741958615873592
4.4609375,-1.7145618198870929,-0.12374140303100958
4.46484375,-0.06264580978672582,-0.7522365408667923
4.46875,-0.22606952189677315,-1.3388568648048218
4.47265625,0.8196307462973336,-1.217746850106752
4.4765625,-0.16653830889185517,0.7027256668653108
4.48046875,-1.9384084099109231,-0.8195043255143194
4.484375,0.8673276015794243,0.7782180997976701
4.48828125,0.1478008200964619,-2.168430535456981
4.4921875,-0.34652836558990774,-2.0675859810085027
4.49609375,0.3140361798967357,0.6071383077413971
4.5,0.7718087472875808,-0.32223892682372857
4.50390625,1.0961702700709648,-0.4431146788548515
4.5078125,0.14549777093554522,0.9761727290978304
4.51171875,0.11717606555935682,-0.20553557844327108
4.515625,0.9484137159567884,0.5221311373240939
4.51953125,0.7112605323622128,2.8367099192251817
4.5234375,-1.1500811025168105,0.4110359006588526
4.52734375,-0.12152879780641081,0.6076504712410095
4.53125,-1.0486058347449616,0.20357759195625744
4.53515625,-0.5118630040037129,1.617778927753115
4.5390625,-0.5791105442700972,-0.7371642636930454
4.54296875,-0.7915506487726586,-1.74196406563876
4.546875,1.6061786880009377,-0.25760349326814697
4.55078125,0.8126565001211563,-0.40321019034438893
4.5546875,0.06777336603144084,0.020932633140712753
4.55859375,-0.807957501125613,-0.5015005209911085
4.5625,1.7359997054257585,-0.04776850612947794
4.56640625,0.24644533663436022,0.7478973369012827
4.5703125,1.2818965506185696,-0.7498890744363952
4.57421875,0.6359063645552916,-1.940796564508738
4.578125,-1.2075769825128273,0.9960348421926137
4.58203125,1.0413280490236345,-1.1652089787836766
4.5859375,-1.2321715551677401,1.37926895242146
4.58984375,-0.882842683196098,-0.708162694135151
4.59375,-0.8903994401641451,-0.23092458998800777
4.59765625,0.09958390804862262,-0.60974176615597
4.6015625,-0.4186014546443777,-0.6997739754033865
4.60546875,-1.741115672756605,-0.3619347501140463
4.609375,-1.4708890948387807,0.6309520116299369
4.61328125,1.4799460723792732,-0.8781476561539403
4.6171875,-2.003642580696994,0.4933094512661487
4.62109375,-0.5509586554677717,-0.33866275761662823
4.625,0.06658327565623591,0.30448107319625817
4.62890625,-1.3669364350486506,-0.2597370960650608
4.6328125,-0.613885070698783,0.0642814586137732
4.63671875,0.49387097312339684,-0.14990567199701835
4.640625,-0.14484438979897327,1.2530864707213583
4.64453125,-0.10933475977877156,0.5295695295589032
4.6484375,-0.7903327690842362,-0.8234486269384979
4.65234375,0.05608984403511568,1.488994901449932
4.65625,2.2591561156771904,-0.41919782124123917
4.66015625,1.0310964782649636,-0.39990620705191243
4.6640625,-0.7386068075690326,-1.3684621200189604
4.66796875,0.6035506827031742,2.312093421306837
4.671875,0.5052094747750216,-1.1447827339686825
4.67578125,-0.7322127573089545,-0.6046374592993907
4.6796875,0.5375285904103777,-0.4691081564262576
4.68359375,0.8876465987785621,1.6682801240619363
4.6875,1.9381192281363244,-0.36273798329256296
4.69140625,-0.806761837645701,-1.413813761514213
4.6953125,0.31607533750438865,0.19349266070241458
4.69921875,0.657333384242975,-0.8372129059097857
4.703125,-0.31988441091023984,-0.8003330423577545
4.70703125,1.4324254258430973,-0.9144358509061532
4.7109375,-0.5913055401457693,-0.09409100811005086
4.71484375,-0.9638409104493088,-0.8615738161148699
4.71875,2.1107437504219595,-0.09939072663700511
4.72265625,0.8242349553113401,-0.8408905798980362
4.7265625,-0.10334850973015285,-1.3504040030440476
4.73046875,0.30381804921306726,0.3121110699680245
4.734375,0.4221619706278499,0.8210708523416211
4.73828125,1.3882947234651115,0.3707463501386485
4.7421875,-0.7135096482066786,-1.4808163150471798
4.74609375,1.5217214175853255,-0.41157154878951313
4.75,0.15327500197890717,-0.6464170649837065
4.75390625,0.4200942459401645,-0.36906234963299567
4.7578125,0.9083829319287187,-1.0594663142541811
4.76171875,-0.7525284092385675,0.7796713659834436
4.765625,0.27980979250617743,-1.068857677402332
4.76953125,2.785815223505573,-0.5718179615995729
4.7734375,0.4044471798823929,-0.7504586828397151
4.77734375,0.3411214532026655,0.9752055521506229
4.78125,-0.30457768552609493,2.0089019527048038
4.78515625,0.4875269039710971,-1.5010090265249905
4.7890625,0.2520205665389757,1.25624649264904
4.79296875,-0.06678753133092724,0.529926844676264
4.796875,-0.18420365109102452,-1.7924640861819132
4.80078125,2.2643905757496663,0.7733299275103805
4.8046875,0.9489097456496075,-0.7727489378697286
4.80859375,-0.6167364316578458,0.3490076113533762
4.8125,0.3445424786191574,0.8807280865703597
4.81640625,1.1672622709662217,-3.135731904624254
4.8203125,-0.20365590416366203,-0.2602489668754511
4.82421875,-0.3982529865458591,0.40605352822309937
4.828125,1.1636860711613555,-0.9808061871897816
4.83203125,-0.5723409565162018,0.9508555443370026
4.8359375,0.19524533972615182,-0.6628035783630601
4.83984375,-1.57140896551146,-1.3914703788716936
4.84375,-0.22204744957383915,-1.2160364738961449
4.84765625,0.25753600067024135,0.9246024426285503
4.8515625,0.2124679882836917,0.5795163316955765
4.85546875,0.6096758260080767,0.38999045997025233
4.859375,-0.5572490539373909,1.3453039899455168
4.86328125,-0.5821002103092264,0.749562735758049
4.8671875,-0.8175041594168597,1.0842577090092798
4.87109375,-0.11101419791748024,1.3024042366397433
4.875,1.0898160901751068,-2.4713359158869275
4.87890625,-1.030044799729588,0.006783189829777667
4.8828125,-0.33327621059218676,-1.8602642912216605
4.88671875,-0.17623473019701297,-0.740708406303033
4.890625,-0.13401880119046938,1.5069216154573046
4.89453125,1.0180424577379719,-0.21709801052739075
4.8984375,1.3485258488254217,-0.2775162731458534
4.90234375,0.1718909198471234,0.7388631033189474
4.90625,-0.6148564748170814,1.458314589152088
4.91015625,-1.0384564315968325,0.6170385169442214
4.9140625,-1.6615218666182987,0.02529146280378486
4.91796875,0.2406650861475523,-1.3512681259022983
4.921875,0.7538097526247418,0.9150092915343995
4.92578125,0.5622557768388176,1.3112801317828582
4.9296875,0.6059297937525376,1.238587772268439
4.93359375,1.1244770837511806,-0.42181638434147606
4.9375,-0.09230374211115451,0.47567477895491367
4.94140625,-1.0167378232169946,-1.0545957921358928
4.9453125,-0.8419810573275839,1.0741846107521358
4.94921875,0.7401507786355869,0.3556897948902328
4.953125,-2.1336676922326414,-1.6285083650787906
4.95703125,0.03244190613690013,-0.1283823379706438
4.9609375,-0.7334496854651046,-0.22791860907106462
4.96484375,-1.05229747246128,-0.18248045696297638
4.96875,-0.9067874995461981,0.36614665992767453
4.97265625,-1.8942176115049447,-0.9128636410399675
4.9765625,0.6437290660336318,0.3250039090901578
4.98046875,-0.6089539978688042,-1.4238113792006921
4.984375,1.762110756944995,-0.7253737674967529
4.98828125,1.042546742478601,2.2779813127468604
4.9921875,0.1618408693547034,-0.36900025735063324
4.99609375,-1.2670013286694137,1.4687094747091343
5.0,0.41712275307739094,-1.9279267500815336
5.00390625,-0.10658006314287907,-0.41564404414009803
5.0078125,0.14938332871384988,0.6926167205555613
5.01171875,-0.3130967202675891,-1.9895723588315692
5.015625,-0.4027789890281149,-0.2972917993427788
5.01953125,-0.4477266200937031,-0.3243391170713627
5.0234375,-0.8797300758686548,1.8990351392015878
5.02734375,0.09292598483758319,0.08841813561153068
5.03125,-0.6493013604903302,-0.5138268959493618
5.03515625,0.6866996005554115,-0.03402556762286033
5.0390625,-0.2843128488458588,-1.6419145379507585
5.04296875,-0.13749161300245963,-0.8246011440662057
5.046875,-0.8761579353216133,0.2051345390167746
5.05078125,0.5732127654222411,-0.08064508843414983
5.0546875,0.19085062959091117,-0.15956150831888352
5.05859375,0.9815079210940968,-0.879546634232274
5.0625,-1.4254250643672848,1.657090358470309
5.06640625,0.41493574021775487,-1.237277082023332
5.0703125,-0.4290359685583593,0.5455200713951929
5.07421875,0.7912234028600339,-0.3813810336107269
5.078125,0.48035595916028123,-0.5338497665547247
5.08203125,0.1988047516952981,-1.0628553746262959
5.0859375,-0.2188840159762669,1.910281501478347
5.08984375,-0.6685474963309486,-0.4380678588294565
5.09375,-0.005645354873586378,-0.09904874809566212
5.09765625,-1.3450359460305972,-0.47501125635286023
5.1015625,1.471964941652429,-0.16012116615912483
5.10546875,-0.29223119370930595,0.1404375705788843
5.109375,1.029404321678046,0.1644653954481548
5.11328125,0.12057654316020851,-0.23109857533841058
5.1171875,0.664696452590825,0.14574355349377321
5.12109375,-0.8898855859105917,-1.1017726179258542
5.125,-0.0420830895608244,-0.6367564181281937
5.12890625,0.9704265522298506,-0.24313578881719047
5.1328125,-1.0641749274870118,1.1541777595073601
5.13671875,0.16235160574900534,-0.36312271856089595
5.140625,0.06972972590417689,-1.3329203282847897
5.14453125,0.4309133175797316,1.4135978567100762
5.1484375,-0.5438804329052062,-1.2384694913803973
5.15234375,2.2415935985891933,0.09342647163925216
5.15625,-2.496356858556792,-1.3556691253287996
5.16015625,0.06265341844189015,0.8729772309873275
5.1640625,2.176823459628847,-0.36951180712321574
5.16796875,-0.8947391423724094,0.0049872142599073155
5.171875,0.44905269959258126,0.8280717593751291
5.17578125,-0.6094475872811329,1.4067335553228213
5.1796875,1.894902557499365,1.1982307891535002
5.18359375,-2.628139373592642,0.9246178074956792
5.1875,0.6856824779459212,0.5538988487212977
5.19140625,-0.6530024500760139,0.5182026539617576
5.1953125,0.045786123153923365,0.9696858191232376
5.19921875,0.799372844286117,-2.4499756299474766
5.203125,-0.8002405852903725,-1.1918788191575445
5.20703125,0.13083960717417883,-1.5601513327561136
5.2109375,-0.2949926893803919,0.853455295111032
5.21484375,-0.8600042894947263,-0.48448865079704295
5.21875,1.0962946252117456,0.5770317966569498
5.22265625,-1.408248316451267,1.2223887206099044
5.2265625,0.7592822279973955,0.9424828747435916
5.23046875,-0.3738638285967918,1.0034963111755442
5.234375,-0.01643170699321073,0.6376279439378449
5.23828125,-0.5359426260935223,-0.27575647020804195
5.2421875,0.0362606646804837,0.015073583632895555
5.24609375,-0.43874801072259656,-0.998321796084426
5.25,1.5032618156509454,-1.0348826276001284
5.25390625,-1.4168560748165129,-1.9305505978718904
5.2578125,-1.1866732846950976,1.4553707060769865
5.26171875,-0.16578124900963725,0.7049480076425653
5.265625,0.11220890360909361,-0.4133318601676091
5.26953125,-1.0036090381890068,0.4736545654867261
5.2734375,1.5607058264828144,1.1428196365975845
5.27734375,-2.5164114135404634,0.626978586559571
5.28125,-1.231764290042788,0.43251319505333535
5.28515625,1.6805521828139787,-0.44395696673857793
5.2890625,-0.9453695730484154,0.03997142628818584
5.29296875,1.6180942528766447,-2.013241980799873
5.296875,0.3812553270622531,0.2655069530929798
5.30078125,2.1996243535104476,1.1730277320699554
5.3046875,-0.9444296015748203,0.5922491767050059
5.30859375,2.4010831802861676,-0.3173134505862974
5.3125,0.45435711173695176,-0.07367392600087792
5.31640625,0.3077751180018166,-0.1714037877149243
5.3203125,-0.760378093468758,0.6133338973337474
5.32421875,0.47272859160264513,-2.2450687777453044
5.328125,1.911288229187885,-1.4825686961406124
5.33203125,0.5446704116867711,1.3261163174881583
5.3359375,0.5740796323594132,0.41038425462664424
5.33984375,-1.436743356420451,-1.5472577478134428
5.34375,0.4874393375176193,0.1827052590374435
5.34765625,0.5445209372992627,-0.19798071718379082
5.3515625,-0.9622488935809648,0.9651996550888519
5.35546875,0.33830246410921355,1.676270554700036
5.359375,-0.5484155105647688,0.7567721970103929
5.36328125,0.9079286347843866,1.5176431141304143
5.3671875,0.4099463700228203,0.11656333378826582
5.37109375,-0.6214204288803349,0.6725599242060047
5.375,-0.04255962485606569,1.4416658837183618
5.37890625,-1.1629601562158334,0.34019093200966777
5.3828125,1.3568814531604638,-0.6128009925775673
5.38671875,-1.2718205065889492,0.004095778166771475
5.390625,-1.3797742870185128,-0.4274907694238018
5.39453125,-0.06368912473147281,0.2285661457118119
5.3984375,-0.09742074710503636,-2.0988859696387387
5.40234375,-0.4778048231789826,-0.7719464335271405
5.40625,0.6917092020796589,0.20594172544240652
5.41015625,-0.9912026662029255,0.07989627869291295
5.4140625,-0.3456440858042746,1.129705564702704
5.41796875,1.2190612579134055,-0.1392040969069773
5.421875,-1.2800999486648736,-1.573311749548781
5.42578125,-1.6173175991284925,0.4941945340490463
5.4296875,1.0825711065981558,0.05224000421017603
5.43359375,0.498509480832514,-1.904072336699609
5.4375,0.1737834202975358,-0.866519083495484
5.44140625,1.2037660576546956,-0.2829638651035198
5.4453125,-0.4630215159496208,0.7550579293433254
5.44921875,0.14260907763137795,0.5914786553778073
5.453125,0.18275981618792014,-1.0104104718362672
5.45703125,0.09237661588497839,0.5500741487594696
5.4609375,1.2308721198408874,1.1945236526952885
5.46484375,-0.7710968486727563,-0.052624225371318785
5.46875,-0.10638504470819761,-2.2807418275194435
5.47265625,2.6045324681191087,-1.522004748844783
5.4765625,-0.18996865688185163,-1.3881361288834582
5.48046875,-0.5368011877247607,1.0128753504048298
5.484375,-0.2235008846378755,-0.4321151884914088
5.48828125,2.1206261903778523,-0.4702409286436938
5.4921875,1.0482111769114193,0.7656934168516689
5.49609375,-0.09401198181723937,0.9070288003215127
5.5,-0.7454014477883785,0.9191451943297861
5.50390625,1.259701062526905,1.1873583335485518
5.5078125,0.6680462479333031,-0.015631529158553262
5.51171875,0.4934279646999627,-0.23734102103329802
5.515625,2.044522423685838,1.6039920703671124
5.51953125,-0.5823246046303536,0.2137932183258874
5.5234375,-0.6074668496568841,-0.15043230749937073
5.52734375,1.8850668335439946,0.6481905368655904
5.53125,0.656890707526468,-1.412826323538891
5.53515625,-0.9621748418658406,0.004141161214524323
5.5390625,0.9502001051490169,0.27557534948503554
5.54296875,0.3895080209637754,1.0236534569019908
5.546875,-1.4025309814548794,0.8738890391474703
5.55078125,0.09190937263298646,0.367382491625992
5.5546875,-0.2613957513232848,-0.8175204631748817
5.55859375,-0.7687608237644877,2.3971445938078006
5.5625,0.07797053374864438,-1.877344596206333
5.56640625,0.9865558983024121,-0.0977285696594432
5.5703125,0.06169221933902528,-0.026178443791064616
5.57421875,-0.8256736373769396,-0.7470579586391816
5.578125,-1.5229914511328746,-0.2667174348302085
5.58203125,-2.2901542803481574,-0.033895983166932944
5.5859375,-1.5983353666238846,-0.2743599170901159
5.58984375,1.2499319224341485,0.5774897778573752
5.59375,0.4962190694581997,0.5238371303024049
5.59765625,0.45381837634017386,-1.040165167934569
5.6015625,0.11552175799012676,-0.22791649083297227
5.60546875,-1.1689654329768124,1.936604614970428
5.609375,0.5850127304027534,-0.9509049886800139
5.61328125,0.32581462998489813,-0.2338238946534811
5.6171875,-0.568564889848248,1.5321596169543588
5.62109375,0.2195513479220312,0.37361283060495204
5.625,-0.7145761014313462,1.455704626823519
5.62890625,-0.09935383175859865,0.12086810206392101
5.6328125,-1.0733689237541404,-0.2827633506523472
5.63671875,2.4943062071568427,0.7754903755311504
5.640625,0.4604011654198325,1.1610597641534284
5.64453125,1.2377642970621703,0.08041192846221627
5.6484375,0.4406658364350822,1.6117997795757089
5.65234375,1.3888999860810056,-1.3965147430133662
5.65625,0.05717218617622417,0.41256602054761454
5.66015625,-0.37792943434291215,1.3128565861960586
5.6640625,-0.09901322760360187,-0.9197161465540463
5.66796875,0.18194894543975662,0.9750389612326201
5.671875,-0.27229733269501405,1.2029858658759736
5.67578125,0.5797487824296379,0.19697250684921977
5.6796875,0.19799430615166172,-0.7961196486227134
5.68359375,0.5457439742502658,0.09176325535015754
5.6875,-1.1678336850215825,1.3403118078717071
5.69140625,0.15587961516699242,0.7584307411705755
5.6953125,-0.4090410326368965,2.162524466473827
5.69921875,-1.2700263412795267,-2.1674476155164037
5.703125,1.2372134649365998,1.1821131440389774
5.70703125,-0.7666878391285282,-1.101882255815803
5.7109375,-0.03380088085536106,0.3078359609732728
5.71484375,-1.3591439772088485,1.2248837890278819
5.71875,0.828903146280091,-0.7560923229145406
5.72265625,-1.913526620255512,-0.2763694805893198
5.7265625,2.234118620454993,-1.4023249540051825
5.73046875,-0.15488138112418431,-1.0659799153917766
5.734375,-1.1387832578281198,0.5234149067288641
5.73828125,0.6279479087728443,0.18426429180112064
5.7421875,-1.8939471106838515,-0.04565343675875274
5.74609375,0.31160688337571785,1.0257928882628027
5.75,-0.22606830021855437,1.0690238219534145
5.75390625,-0.01403773754837392,-1.2317039507877072
5.7578125,-1.0359958916013738,0.790378391078941
5.76171875,0.2184186784912912,0.29027614333699087
5.765625,0.3386554727788817,0.8119715216878274
5.76953125,-1.094776875460771,0.22702711410246904
5.7734375,0.3628735578224116,-0.033011141329337
5.77734375,-0.7584905809460473,0.3137460170454464
5.78125,1.332146817935451,0.6910078240437781
5.78515625,-0.6999020877906029,-0.659758527730423
5.7890625,0.20267925831223751,0.30017287053386166
5.79296875,0.15823500669662222,-0.6503480070334944
5.796875,1.0504891684110915,-1.1519041726327333
5.80078125,-0.07823733543034188,-1.1099091357768422
5.8046875,-1.3607090393085646,-0.2313206434589052
5.80859375,-1.2757230478365,1.5476113401646334
5.8125,-1.8494045903892007,-1.7160855288675692
5.81640625,-0.18527300906233063,0.102638945133108
5.8203125,-0.46628992154762383,-1.1631916907588655
5.82421875,-0.6294267584012346,0.20657645427613722
5.828125,0.013844273615768746,1.9337442141575423
5.83203125,-1.2637279738695966,1.5779709059244034
5.8359375,0.6471919612389835,-1.1161989290075107
5.83984375,0.9941470394352392,0.865911646345738
5.84375,-0.9007695874572931,-1.0446343633109283
5.84765625,-0.5436665071384592,-0.06852499246812899
5.8515625,0.6435257319882894,-1.3967533168082553
5.85546875,1.8243409715370194,-1.9183012943526736
5.859375,1.3038790460739214,0.8460747260413436
5.86328125,-0.9348169454550522,-0.7280245223170428
5.8671875,-0.7327220523909869,0.7141044275969899
5.87109375,1.0901852567920542,-1.7288733961660006
5.875,2.1736501228171323,0.8503320813582513
5.87890625,0.6402228044021115,-1.4150936852303617
5.8828125,-1.0230949741227284,1.8008700162519788
5.88671875,-0.2862948079086208,-0.015928642916711158
5.890625,-0.12859459316111382,-0.7512715637883474
5.89453125,1.8487629361226785,-0.4556204805349397
5.8984375,-3.0147876029247693,0.09961254270280498
5.90234375,0.7360069087018096,-0.4389434497874338
5.90625,0.30655867990655,0.7642014706149657
5.91015625,0.8795612146753101,0.4484571915598965
5.9140625,1.141504286110633,0.9806614109841473
5.91796875,0.14894133973104026,-0.5381013986551582
5.921875,-1.3482553050672592,-0.07800217705856329
5.92578125,1.7097230152457967,1.1095690683819996
5.9296875,-1.1421924776766303,0.4923415949215784
5.93359375,-1.2789208780073704,0.6230076830318084
5.9375,0.7706455871074317,0.9966598220174038
5.94140625,-0.07591034482138338,0.1373709227816301
5.9453125,0.0039016210889319526,-0.6588776601852027
5.94921875,0.31403450332139654,-0.7071561548484507
5.953125,-0.8765771071113035,0.664383408846006
5.95703125,0.549373049809788,-0.7108294337039508
5.9609375,-1.1588332901398681,-1.0365845482023177
5.96484375,-1.2146507620124736,-1.1950103531301308
5.96875,-1.2942670734931567,0.03955662948002933
5.97265625,-2.2223198235017647,0.00684815056952175
5.9765625,-0.6191626072925156,1.3652238935842522
5.98046875,-0.5553316501668283,1.1069458480727066
5.984375,-1.3564016709942552,-0.191025311287402
5.98828125,0.3376932532375031,0.5538398840335963
5.9921875,-0.8761433588494357,-0.052359021162875205
5.99609375,-0.88825535533167,-1.3662961069406745
6.0,-0.7451664724672576,0.8337438646843035
6.00390625,0.6699088909733635,0.1937885914422132
6.0078125,0.46608684741780004,1.2384662683182093
6.01171875,0.37373255437164615,-0.2443455108331327
6.015625,-1.0245145308112455,0.34460052140312236
6.01953125,-0.1682982828915768,1.6948697981260143
6.0234375,-0.3917785380910027,1.2586923285473508
6.02734375,0.25922844972893405,0.3514338364362319
6.03125,-1.0680130790096276,1.5597987305432999
6.03515625,0.5001379092897851,2.2543755449670786
6.0390625,-0.4497845233139206,-1.361450524407613
6.04296875,0.08610509796049919,0.5233925859914437
6.046875,1.1751456327111394,-1.045911695793096
6.05078125,0.2734259948023769,-1.024252782362866
6.0546875,-0.7431408986399489,0.055650972933749716
6.05859375,-0.11698080437261908,-2.4447476664308816
6.0625,-1.2621275728969648,-0.47880895068156154
6.06640625,-0.6667220562395038,-0.655186188404007
6.0703125,1.6411502570938579,-0.6209881709728845
6.07421875,0.04677279561468108,-0.29360782082669507
6.078125,-0.815214585857316,-0.1605694398315889
6.08203125,0.10288955556472305,-1.7818087289204325
6.0859375,0.6879767013589365,1.580386436894224
6.08984375,-0.39658949573794405,-0.14358890232407992
6.09375,-0.186979976593366,2.00509315615308
6.09765625,0.37100540767221646,-0.8668876435863384
6.1015625,0.736599396611979,-1.0396849628296634
6.10546875,-0.2471377961569761,-0.8393402431065742
6.109375,0.5210107763914406,0.7838443032057707
6.11328125,0.40684097225746857,-0.4381729461363961
6.1171875,0.5616489507679083,1.947100503888603
6.12109375,-0.3710200485624668,-0.6277643953256874
6.125,0.6447597591269568,0.7432205719200787
6.12890625,0.9396079238521923,1.4139685027384372
6.1328125,-1.2409920639163081,1.8221400204307767
6.13671875,0.7627961660628703,0.157863509218297
6.140625,-1.7923067247981932,-0.9486653895072134
6.14453125,-1.6346877130218087,-1.616260980582823
6.1484375,-1.0670115252985743,-0.5685334829595861
6.15234375,0.2272563090360253,-0.5050547850055128
6.15625,0.7283207590123036,-0.47817921738349445
6.16015625,-0.24003169510609382,-0.5715591845866896
6.1640625,0.8894820505579778,-0.3263644812527423
6.16796875,-1.5491544673699473,1.0996675375980764
6.171875,0.681483268178982,1.1735062179229783
6.17578125,0.422583138976721,0.9724274892073486
6.1796875,-1.5289677365392211,0.08823064659913112
6.18359375,-1.185669720103954,-0.26560744012048665
6.1875,1.3396957756972403,-0.3407590034042892
6.19140625,-1.0090324863760531,0.2609078667232244
6.1953125,-0.6077871874492605,-1.1827556177387195
6.19921875,-0.415518960508369,-0.4066608252667967
6.203125,-0.5659746408497087,-0.8485357991533478
6.20703125,2.285985410039936,-0.38093582764359335
6.2109375,1.0933578954142589,0.3168952522009736
6.21484375,-1.8575832921578554,-0.6443319813770569
6.21875,-1.4900606025808032,-1.2875198231768974
6.22265625,0.31558635753604464,0.6413296346879716
6.2265625,2.2613677307261812,-1.0050191066914593
6.23046875,-1.761971382972023,0.5042821920452406
6.234375,0.11558621479737992,0.09311329572877594
6.23828125,0.9158410341125349,0.07561568434206486
6.2421875,1.2206816017070483,0.3954347605273138
6.24609375,-1.2905741640325474,0.38276046208223047
6.25,-0.10711784656030615,0.7344804457861986
6.25390625,-0.41962610793124344,-1.3025156414032262
6.2578125,0.1670191091779164,0.7939657642860731
6.26171875,0.3874573227693104,1.1538330467023445
6.265625,-0.4774194349134467,1.0601911834683984
6.26953125,-1.480353716483145,-2.909315398392557
6.2734375,-0.35102157943756485,-0.37525140215946345
6.27734375,0.20142466544012286,-1.2983587373155747
6.28125,1.8704943794715303,-0.8670845016364092
6.28515625,0.221627651572547,-0.6062884253635291
6.2890625,-0.666427209794703,-1.327971861554659
6.29296875,1.3887313132837142,-0.06965762117697642
6.296875,0.47988119376594246,2.22971207896031
6.30078125,-0.4231409241126902,-0.5244297253980671
6.3046875,-1.5004248898694919,-0.10367298342794698
6.30859375,-0.37490492077966564,0.5545627345468406
6.3125,0.8389510262451468,-1.1346654340698825
6.31640625,-0.41239391258129743,1.946815003480671
6.3203125,0.07154845319852823,-0.5232342863450733
6.32421875,-0.17471027707106576,-0.2718916021130867
6.328125,0.3314710297474824,0.4820342359612593
6.33203125,-0.5067373365863468,0.6161618265577845
6.3359375,2.243243232325622,-0.6457878435040229
6.33984375,-0.16029588684336699,-0.6996593344714602
6.34375,1.649985101644983,-0.7322470313271953
6.34765625,1.3396014557633484,-2.0777169453149775
6.3515625,-0.26604289917629415,-0.35519344990885654
6.35546875,0.872187615065509,-0.45318095455368734
6.359375,0.8072004795104701,-1.889341984087665
6.36328125,0.6478370626947679,2.5393301567660362
6.3671875,0.5991751127533901,1.8570800145559752
6.37109375,-0.008779985872369073,-0.8215990290917744
6.375,-1.3526792635789198,-0.5421773575192912
6.37890625,2.0950821610587265,0.6260555742576722
6.3828125,-0.7061827414524068,-0.7998184613263151
6.38671875,-1.9233100735135833,-1.6237746977629648
6.390625,0.10616979751867467,-0.9426844411903729
6.39453125,0.027954403084846334,0.19524076199067292
6.3984375,0.009719473698593903,0.2868038869310113
6.40234375,0.0885002619217956,-0.1831181606820952
6.40625,0.8719500413383376,0.5106414531748348
6.41015625,-0.6876767379955442,0.18135613589216248
6.4140625,-0.7672571371859706,0.9324964232686331
6.41796875,-1.457831065103971,-0.5774645364869435
6.421875,0.5586966526546407,-0.4837268425379759
6.42578125,-1.1987602432176614,-1.1640010358715362
6.4296875,0.930735140596585,0.8671810000119249
6.43359375,0.8358015706420093,1.4660985341170811
6.4375,0.5046757492559084,-0.1354215951201718
6.44140625,-0.9256975695406274,0.45016507587951876
6.4453125,0.34519540372405966,-0.10009581288856176
6.44921875,0.21632981720606134,-1.2846479218388713
6.453125,0.0017007940042448053,-0.9670783069711205
6.45703125,-0.1672262328923601,-0.5901793949604125
6.4609375,-0.6396747293347398,-1.2229995011401888
6.46484375,-1.1160184065295653,-0.5281219085833306
6.46875,-0.17415177312367539,-1.218684229956253
6.47265625,2.0633000382392868,0.017660528196362605
6.4765625,0.16595398193002436,-0.21581069545042103
6.48046875,-1.238912622199305,0.24320219633639018
6.484375,-0.24216289799535393,-0.4671251674314182
6.48828125,0.35509151543789524,-0.4850316387721048
6.4921875,0.25355471713346983,-0.7808847314848182
6.49609375,-0.04769250328851117,-0.26725010948156663
6.5,-0.5917756986839225,1.762838963003746
6.50390625,-1.1480657565073689,0.030793677472495853
6.5078125,-1.3434492454780957,0.444985271759192
6.51171875,0.38470176514581267,0.16683539971238784
6.515625,-0.21022388899587327,-0.8283453474582776
6.51953125,1.9896224074327065,-0.4968293952734794
6.5234375,-1.3154340450495319,0.8265102697491122
6.52734375,0.3928077888577299,-0.5686860551180108
6.53125,2.768431717497814,-0.45311357754868653
6.53515625,1.0332028309672154,0.039561368828412526
6.5390625,-0.2888108789452457,-0.7890129267001912
6.54296875,-0.7598175959533856,1.369467260280203
6.546875,-0.744318857719643,0.8656609838480245
6.55078125,0.1843579530471714,1.205635989112164
6.5546875,-2.0452241600328165,-0.1378731412159517
6.55859375,1.0065000932737114,0.5503662261203811
6.5625,1.0034269863068506,0.35358211186440414
6.56640625,0.2565603961767132,-1.2831548570370628
6.5703125,-0.7176752148241121,-0.7610158130150774
6.57421875,0.6809712247667664,0.24086897891050144
6.578125,0.5894210324292906,-0.4498537034355599
6.58203125,-0.4563513405712859,-1.6574689093696084
6.5859375,0.7212263947067592,-0.5556036935209515
6.58984375,1.031164314739255,-0.8329876567396818
6.59375,-0.3011311764168888,1.8742752686755841
6.59765625,-0.6419335269078198,-1.384055745076637
6.6015625,0.6964152725291731,2.1748940997619597
6.60546875,-1.7544957303847222,0.5021068449565897
6.609375,0.8193310520375091,-0.19364391783778528
6.61328125,0.16688402354050266,0.5032371331747465
6.6171875,1.4316542270761572,0.30376767227427914
6.62109375,1.8240306264145987,0.07424298570007874
6.625,0.7962525410341129,0.12010996681281803
6.62890625,0.43925748993169433,-0.3291403553046558
6.6328125,1.8495984798516107,-1.6206572869538105
6.63671875,-0.36719192553366803,-0.7977664083941739
6.640625,-1.2922176994290775,-0.7044521992676761
6.64453125,-1.7341396328550789,-0.5768259241942455
6.6484375,1.0924256207270695,-0.31356090391225433
6.65234375,-0.41478186799419037,-0.1694666351347942
6.65625,-1.5135353647821905,-1.9336967090178023
6.66015625,0.17546722365354184,0.45800813869896523
6.6640625,0.5778811922291601,-0.8947207788879447
6.66796875,-1.845988902315129,2.3107008060444834
6.671875,0.009474376494004488,-0.17375314957654264
6.67578125,0.8347044575769089,-0.24386174763797155
6.6796875,0.8399129929415207,0.11061639655946223
6.68359375,0.571566799406875,1.3236047579042052
6.6875,0.7737519278586911,-1.297133509455192
6.69140625,1.5219072636302546,-1.3245944588391982
6.6953125,-0.44696270363657087,0.29041228035612954
6.69921875,-0.7111891041413985,-0.1702606336801494
6.703125,-0.9115662382856822,-0.823316676005967
6.70703125,-0.49602559828609677,-0.5183161853271165
6.7109375,0.16942428918089275,-0.5010482625567364
6.71484375,0.510469686760011,0.7835227133407973
6.71875,-0.7430446959562715,0.8145372951801984
6.72265625,-0.1489401942688074,0.8163568667111495
6.7265625,-1.1384051993397812,2.370065644265948
6.73046875,1.8411848699885793,-1.1750541484424868
6.734375,0.3379236344664584,-0.3476777118809431
6.73828125,-0.337025866555222,-0.7620343282340574
6.7421875,-1.9317820482501746,-0.11390351990833852
6.74609375,1.1415733377600128,1.7031945694419188
6.75,-0.7446130029373387,0.986452421788284
6.75390625,1.069228295161243,-0.9310935843705912
6.7578125,-2.127742297223939,0.7570275085403136
6.76171875,-1.5285264181564622,-1.0646708426942433
6.765625,0.7942326542464835,0.1946083278846942
6.76953125,-1.0542550974640787,0.6356515413333504
6.7734375,0.958337949051892,-0.525205242606755
6.77734375,-0.8446646366853585,-0.5793436738369452
6.78125,0.32083015317487434,-1.5628262740746048
6.78515625,0.11971897758308106,-0.022149995583654367
6.7890625,-0.16024629338442065,-0.8577027525201121
6.79296875,1.1464797106781466,0.3296787580726304
6.796875,-0.6398453231062275,-0.265410580556631
6.80078125,-1.1468110181598137,-0.7267510158386927
6.8046875,-0.058094881904053264,0.7581521793277702
6.80859375,-2.028433157938535,-0.1729055807381648
6.8125,-0.06237624903368023,1.4818302524496412
6.81640625,0.47409532991611,-1.770970255164553
6.8203125,1.9823475003710285,-2.073308243281707
6.82421875,-0.433700953322281,-1.3074574722442476
6.828125,-1.264900961512816,-0.030801660082358323
6.83203125,0.647918641852498,0.7899339573455592
6.8359375,-0.14245668989716687,0.033691796953375354
6.83984375,-0.6162580591167315,2.3370994927305637
6.84375,-0.11113450910194028,1.7312646134563854
6.84765625,0.316257526195961,-0.08287403587192162
6.8515625,-0.6810377951711873,-0.9453532462298372
6.85546875,-0.17068351330380283,-0.6172764243766902
6.859375,-0.45551946290063294,-0.009625002593359966
6.86328125,-0.2297328629574647,0.7760357146232608
6.8671875,2.09518982047119,-1.1801337568855577
6.87109375,-0.11855389862393685,0.9017183991577233
6.875,0.11963906916370684,-1.2967547045455696
6.87890625,-0.11648527598765121,0.24848140552858972
6.8828125,-0.6345018649036877,1.039011192233
6.88671875,-0.9223992142065154,0.4466348706661916
6.890625,-0.6886018086732473,-1.0095985072828668
6.89453125,0.7213621187245788,-0.5174112318684152
6.8984375,0.15643514438560432,-0.9638865589421053
6.90234375,1.183371890083518,-0.4999787557643588
6.90625,0.3102029926775776,-0.4402104543880778
6.91015625,-0.3554333018768163,-1.095553621257573
6.9140625,1.0562116396887036,-1.7334728503995276
6.91796875,0.3078763746210046,-2.5744696647007115
6.921875,-2.015486472894731,-0.6432659811770935
6.92578125,0.7597942497268425,0.5416415705915775
6.9296875,-0.4618227876333379,-0.27910242809668323
6.93359375,-0.19211324648467035,0.8349795407041514
6.9375,-0.3859015017804979,-0.4503058366795224
6.94140625,-1.9605841665968817,0.46415063573970455
6.9453125,1.354649450641365,0.08411134283909726
6.94921875,1.2768438663602064,-2.0712714692268217
6.953125,-2.405007772312701,-0.2991817506680841
6.95703125,-1.058118439508352,0.9132924956284623
6.9609375,-0.7775184491277382,0.3156599963771705
6.96484375,0.3801999818493289,-0.8659298167083415
6.96875,-0.048632467372511666,-0.5021300065255709
6.97265625,0.33370280245920664,0.14501827644038667
6.9765625,-0.37511394073858195,-1.2368193469797168
6.98046875,1.3926527371186403,1.9329191490595359
6.984375,0.010738570939380408,0.42906411309350995
6.98828125,1.1358527748460274,-2.216211560904195
6.9921875,-0.766977725993316,-0.6690519823853123
6.99609375,-0.0656709733716997,-0.6568436557582479
7.0,0.8185529181795121,-0.3231923299996836
7.00390625,0.7744273290217599,1.6806699948285067
7.0078125,-1.2727935787972817,0.4551770259202531
7.01171875,-0.5987471896850222,-0.9514731905271174
7.015625,-2.3125442337997684,-0.6671723986034058
7.01953125,0.5192638145374939,-0.711598159325357
7.0234375,-0.4604348979591538,0.5746004752919692
7.02734375,0.010606419120946021,-0.34070060574150296
7.03125,1.1068692072657627,-0.992742939930458
7.03515625,-1.2710724189599647,-0.7931896208979491
7.0390625,0.6161851111293181,-0.4108731688289521
7.04296875,-0.10090760529853801,-0.9506952253625206
7.046875,0.2947036825922504,0.3194666817133396
7.05078125,1.059990392762236,-0.23559055845109184
7.0546875,-0.6108539409119135,-2.4311956667679584
7.05859375,-2.0768691791380287,-0.28195562594608675
7.0625,-1.1546993552883278,-0.16037127987205835
7.06640625,0.743235574059824,-0.5604351122895888
7.0703125,1.0350101956783033,-0.40828239423208146
7.07421875,0.8613983722657357,-0.350971949453026
7.078125,-1.832379262058765,0.015450868323410938
7.08203125,-0.7908100950250586,-0.009114912795459932
7.0859375,-0.9655955517845358,-0.2602867982945553
7.08984375,-0.4561514751726838,1.0415023636433547
7.09375,1.781797654873843,-0.11610189761808275
7.09765625,0.750487393860537,1.066648902383805
7.1015625,1.819705628340821,0.1740991963976465
7.10546875,-0.8154343238221319,0.5941380116269607
7.109375,1.950112398925015,1.152514207157764
7.11328125,1.0011723147788278,0.16412931805954414
7.1171875,-0.49286839111722325,-1.2446646273783373
7.12109375,-0.5639997370684361,-1.2398713948352167
7.125,-2.8148827821299287,-0.07742451777063544
7.12890625,-1.7060000442486913,-2.052002422176888
7.1328125,0.512664908168495,0.8256149243490122
7.13671875,0.6962647559809217,-0.054538885267852374
7.140625,0.9424992302931968,0.8125106374745696
7.14453125,0.9152075345910778,1.137948757925117
7.1484375,-1.308705133397845,0.9895026686821301
7.15234375,0.48196068341026943,-0.5338708168172495
7.15625,1.2648925820739805,0.34263542710624234
7.16015625,0.6715359093062481,-0.17316282213304196
7.1640625,-0.9791858375905091,1.4247194200817115
7.16796875,0.1050368009525435,-1.5293917884651567
7.171875,0.7048273929203913,-0.5686715392409719
7.17578125,1.2270869882191375,-0.27120358535925343
7.1796875,0.005027451478723698,-1.42414530623523
7.18359375,-0.5139793023222927,-1.94422563709741
7.1875,1.030138417482458,-0.3623999705947736
7.19140625,-0.6322246740789992,1.223404755227637
7.1953125,-0.9063163842080788,-0.8225080761297997
7.19921875,-0.12593594790870605,0.023814770981092952
7.203125,0.40160960127718953,-0.6595890524534617
7.20703125,1.1485042622440846,-1.2230828426899212
7.2109375,1.4436959074584401,0.47363705713298687
7.21484375,-1.4411563456244474,0.3415029358656129
7.21875,0.9068250296834502,-0.7358586752680014
7.22265625,-0.575639794677244,0.7957910372445646
7.2265625,-0.8019698123319876,-0.5438885979359569
7.23046875,-0.43293495138691546,-0.8549862437455318
7.234375,-0.736403791943071,0.3512445678419491
7.23828125,-0.4332097222458677,0.4532773091376861
7.2421875,-0.4950099213310992,-0.12954838040102037
7.24609375,-0.48316063132184445,1.2481236612394262
7.25,0.5038190623697608,0.11686248359980077
7.25390625,0.10991195147052064,0.488530796751038
7.2578125,-0.7484218368825395,-0.8416087590879391
7.26171875,0.3449911323663186,-0.07208253386040572
7.265625,-0.9496801344351221,0.5765275705152808
7.26953125,0.24900199706755988,-0.5989895706108238
7.2734375,0.2809283181233925,0.7056671907202589
7.27734375,0.7118995664584645,0.6208783014998168
7.28125,1.1070997969628176,-0.2626158436348352
7.28515625,1.0364302773526184,2.2463598846640007
7.2890625,-1.075045593154661,-1.97046841385193
7.29296875,-0.7173732369612633,1.653026236293631
7.296875,-1.9089501844484391,-0.5277581562030806
7.30078125,1.0404522476583062,0.5347143638785594
7.3046875,-1.1835397855357066,-0.9713267010744466
7.30859375,1.4125176091015446,-0.04077712985892625
7.3125,-1.4080982829273792,-0.00482438618970924
7.31640625,1.4861583328811527,0.3397911135641611
7.3203125,2.0858800623083167,2.3019407398935723
7.32421875,-0.5482505689414943,0.8741882452910698
7.328125,-0.9593524831593169,-0.5398485311394454
7.33203125,0.927131162411502,0.5648049235027721
7.3359375,2.41247798810893,1.6820483942856645
7.33984375,1.0284064769563104,0.5247733216262159
7.34375,0.03523953730552648,-0.9556627166591151
7.34765625,-0.5059981960096531,0.09976314748637935
7.3515625,-0.4683852732466034,-1.1013937310040578
7.35546875,1.7532227440383852,0.8012919020817865
7.359375,0.47584889011558734,0.2615192451384615
7.36328125,-0.8028205565735793,-0.32350832943596036
7.3671875,-0.2107503679152065,0.19483271434628194
7.37109375,-0.36719706526576684,1.3852971708887314
7.375,-0.2724140674566119,-0.22216647608470483
7.37890625,0.16528570698516756,-2.428307983842878
7.3828125,0.36493358429383566,-0.4596830831238228
7.38671875,-0.6576351035863676,0.44525665205714676
7.390625,0.6292387606412112,2.519612626443012
7.39453125,1.806772430673471,0.7808734926337147
7.3984375,-0.7439837231017336,-0.13939521387615686
7.40234375,1.7985551475938355,-0.6012657793107952
7.40625,-0.1390443313490058,0.16831335848840523
7.41015625,1.0064076415851362,-0.8932709413931909
7.4140625,-1.3768577920759513,-1.4631945205467751
7.41796875,-0.3571054331757951,0.14383175660379324
7.421875,0.9901226701031743,-0.8544565244984866
7.42578125,-0.4477959178075765,0.7255550460344531
7.4296875,1.110404933046242,0.22975988805288153
7.43359375,-0.4680848919600939,-0.49896040660444374
7.4375,-1.275327612732992,0.6316930630206259
7.44140625,2.9533574566901453,-0.6770418900601889
7.4453125,0.19829821002344297,0.7606238451297475
7.44921875,0.23415355776213595,1.8892396073753017
7.453125,-0.9702798431225482,0.8239144135428751
7.45703125,-0.27401420074149513,-0.9616342549202537
7.4609375,0.3024131882978704,0.3834366018821922
7.46484375,-1.5558419309275218,-0.9742720513569244
7.46875,1.2406498616012254,0.9439204563786138
7.47265625,0.015198740767765168,0.22252168493995922
7.4765625,-0.4429277214685506,0.29196118861213716
7.48046875,0.2261866237609008,1.4734227615243303
7.484375,0.08909425887564902,-0.0038557703578787237
7.48828125,-0.05227811529372953,0.13824629334527674
7.4921875,-0.6574673115449607,-2.3360601385789312
7.49609375,-1.0674069634546943,0.07231318325952657
7.5,0.7364133055366335,-0.6654125231940627
7.50390625,-0.43788755090358183,-0.17851204777695245
7.5078125,2.657697019134848,1.1581644021834256
7.51171875,-0.33213180613342835,1.0077621435121586
7.515625,0.2890137532449308,0.14991639557952516
7.51953125,0.386325625327794,0.40193422468440176
7.5234375,-0.45119442744135013,-1.2996141559221766
7.52734375,-0.1640813974608231,-0.5670859224787909
7.53125,1.6406286201956517,0.658210119149549
7.53515625,-0.7214460065192433,0.13005023240266234
7.5390625,-0.8759298796270609,1.250126597541176
7.54296875,-0.1912075647344312,-0.8712840702443003
7.546875,0.41391058562455935,-1.0440984242735478
7.55078125,-1.0115972273006337,1.7648476300382157
7.5546875,-1.7620399330533838,1.4055185228474354
7.55859375,-0.5942466027540024,-1.6844268435180485
7.5625,1.976977877386605,-0.48648815404259294
7.56640625,2.0054202775823713,-0.23135186425767645
7.5703125,-0.05670405927506405,-2.1535642884285378
7.57421875,-0.601588895782258,0.4758651231323319
7.578125,0.867882556973976,0.42144215798934587
7.58203125,-0.8098005552800379,1.4389836079041152
7.5859375,0.27863062241357095,0.8630141848040047
7.58984375,-1.9267538920357208,-0.049515547624956545
7.59375,1.2232248962025254,-0.01799767690267669
7.59765625,2.032101456780095,-0.08543075999870353
7.6015625,1.3215898047092827,0.2160504545364291
7.60546875,-0.30933893453190897,1.009070204362475
7.609375,-2.6435164476291217,0.7697239350199333
7.61328125,1.1350936405090934,-1.1038438496017766
7.6171875,0.4545773720221656,0.4558515432567512
7.62109375,-0.2637754077792513,-2.502310124465969
7.625,2.1325991362320775,-1.4688782417676198
7.62890625,0.6411717880217322,-0.50367432770828
7.6328125,-0.11644854552050733,-0.6014811384813303
7.63671875,-0.13326546926006325,0.9545790730194147
7.640625,-0.25780768241679913,-0.39195583607766504
7.64453125,-2.587612926687139,-1.0731058349880287
7.6484375,0.2770963087259425,-1.0727550490496387
7.65234375,-0.6713024565709222,-0.7333091639433628
7.65625,-0.3111423253413266,0.7818556549886214
7.66015625,-0.22758152570073817,-0.783208170869567
7.6640625,0.010048352877972845,-1.5432724599491356
7.66796875,-0.056239069249801134,0.5915544215028093
7.671875,-0.12796899124642427,-0.5446570271174525
7.67578125,0.4153420506449831,-1.3627617697361025
7.6796875,-0.9647695112923673,-1.1711318026483601
7.68359375,1.341317949546528,-0.45179715881517507
7.6875,0.9581534416258699,2.1670322273105995
7.69140625,-0.5754728297400103,-0.8151677818251992
7.6953125,-2.005750319942101,0.6215422290245644
7.69921875,0.30370086812283026,-0.3710128361552627
7.703125,2.150681471984673,-2.206875067338203
7.70703125,-0.12503779790714636,-0.6837244499217197
7.7109375,-1.368084267862777,-1.2479155219161344
7.71484375,-0.09533782766304028,-0.6803723998818043
7.71875,-1.378295855052196,-0.041034302058754406
7.72265625,1.2622920756354343,0.9874745311361934
7.7265625,-0.6963808208891067,-1.373560905722455
7.73046875,0.33348551081395605,-0.5707363609229119
7.734375,-0.5961426818636091,1.5140277957029715
7.73828125,-0.5873079908820348,1.9190917298350065
7.7421875,-0.3816680028643189,-0.0552681480331802
7.74609375,1.7790739628673582,0.14259785894466467
7.75,-0.7996400689293651,-0.2941436970034441
7.75390625,1.1789268450748613,0.5000889701450717
7.7578125,-0.6408116248379315,-0.1738902872657613
7.76171875,0.8537640552172046,0.5804277425866926
7.765625,0.30742210089639,0.27236656390960773
7.76953125,1.3039796249530065,1.3887512491875313
7.7734375,-0.16392157118419484,-0.6547598284258134
7.77734375,0.6911237875337991,-0.27544885432221344
7.78125,-0.3546428220897986,1.2565554299763881
7.78515625,-0.27908554650890854,-0.06733209188708404
7.7890625,0.4296138430486272,-0.19314158736497472
7.79296875,-0.6369475171034561,-0.24414540883790267
7.796875,0.3548921787566696,1.211018129327911
7.80078125,-0.8877820260099825,0.16476550493283906
7.8046875,0.8604080527129229,-0.31901747451474255
7.80859375,-0.8405928883374414,-0.26155794453979997
7.8125,-1.8992537020430378,1.6968370984865468
7.81640625,0.3555232511485468,1.0449566627511184
7.8203125,-0.2674903425398115,0.37298051408856797
7.82421875,-0.48762046187863256,1.5547197194188056
7.828125,-0.24753952040965166,0.7686421304327772
7.83203125,-0.8659461211989191,-0.8682376787952645
7.8359375,-1.3190763237320446,0.32360675834099784
7.83984375,-0.4918718013802123,1.6513021286741922
7.84375,-0.43875774172820253,0.3991343937423024
7.84765625,0.4232203017928364,1.697423455603397
7.8515625,-1.777648891413014,-0.8543162579685438
7.85546875,-0.4240137708687061,0.48968543662198577
7.859375,-1.1501945830167344,0.39278351129456235
7.86328125,1.026214529581603,0.7678802978236428
7.8671875,-0.35836851425703603,0.8242208701644044
7.87109375,-0.9770831785888208,0.5551949077196607
7.875,-0.7199056962669695,0.3923926945584827
7.87890625,0.28075884497211,0.038667522075750124
7.8828125,1.056248268139942,0.24262010390471525
7.88671875,0.6997930237143615,-1.5715235511244485
7.890625,-0.6506172999421864,-1.0777454926555563
7.89453125,-0.26360538586112875,-1.01909729854877
7.8984375,1.0976192630618768,0.8833031228169553
7.90234375,0.11419406000396135,0.8036590155122711
7.90625,-1.0935719347466983,0.2204741993557263
7.91015625,-0.5202916578379355,2.3163337974786784
7.9140625,-0.8674463972848301,-2.5182866800271673
7.91796875,-0.40429653109744207,0.7885054984369825
7.921875,-1.0205988705067646,1.5447977365741337
7.92578125,0.6889877521757334,-0.5598571477544984
7.9296875,0.07297152140418879,-1.766877564781964
7.93359375,-0.38729221568689653,-0.3662414844982384
7.9375,0.38092633049702124,-0.9928260566250363
7.94140625,0.20591445078862594,-0.6671797342984511
7.9453125,0.4840903929100888,0.5969070203503274
7.94921875,-0.3559887661576004,2.0098358080256205
7.953125,-0.7416840944796732,-1.1350569068223928
7.95703125,-0.6427158328110465,-0.07742579023812686
7.9609375,1.2402878482831818,1.2073268210903203
7.96484375,1.0396984077014118,0.47181395262739323
7.96875,1.8210306715075502,-1.864602481810026
7.97265625,0.6531139178908737,0.964914025439007
7.9765625,0.2962059714658907,0.5012362931821157
7.98046875,0.7471201967618833,0.9620843328426439
7.984375,-0.10324815278419093,0.09229210963087021
7.98828125,-0.3016732285096407,-0.7739214810027064
7.9921875,1.9650082217598601,-1.1961514367744286
7.99609375,1.2043256816409273,-0.013409921215887945
8.0,-0.3995969517914504,-2.5239995045353836
8.00390625,0.12610457972639563,1.7155046223569672
8.0078125,-0.49732802538430326,-0.6543599209397131
8.01171875,0.5239135465025044,2.510499902275166
8.015625,-2.2736752223981997,0.555059663716644
8.01953125,-0.6268266165239977,0.532671627723664
8.0234375,0.38579168663425306,-0.9979884077390581
8.02734375,1.72110948649264,0.9974135862368544
8.03125,0.6963022981708726,0.29978705017118296
8.03515625,-0.8666458808399972,1.1180262224220947
8.0390625,0.6561639619555112,-0.6891798535502207
8.04296875,-0.018840243164508257,1.7345405129310423
8.046875,-0.7294402746428753,-0.873396896673534
8.05078125,0.3631031644291945,0.10555321240185667
8.0546875,-1.29737219914203,0.2793795505128183
8.05859375,-0.03673326593137791,-0.4142845984778973
8.0625,0.5404313623847946,0.14440084367197312
8.06640625,-1.1708835741226467,-1.0309814092557381
8.0703125,1.2436681307019164,0.24753920084634917
8.07421875,1.2012136004102356,-1.550181123376707
8.078125,0.40880789130185596,-1.0398304394746876
8.08203125,0.37751199773016064,-0.16905355761045157
8.0859375,-0.7549861366933244,-1.430950793947309
8.08984375,0.21368008277561723,0.07723769818459653
8.09375,3.237472080000394,-0.6933290350991269
8.09765625,-1.1110622133890447,-0.33786798673017054
8.1015625,1.773030784316442,0.7325961511126146
8.10546875,-0.22347311081696797,0.6343792707018527
8.109375,-0.22855864322693245,1.1195852964858262
8.11328125,-1.4408341584693842,-1.8552608143764129
8.1171875,-0.5945659818727712,-1.1248417717969632
8.12109375,1.1367936986314455,0.3158574641173138
8.125,0.675774876701045,0.28663527768208047
8.12890625,1.0483333179921508,0.12813603708183374
8.1328125,-1.6634229962167413,-0.37650129715453096
8.13671875,1.2652901609378053,0.02957022032327487
8.140625,1.1927962257768396,-0.24477058558630987
8.14453125,1.523673548144937,-0.8341128556378934
8.1484375,1.6902734948766407,-0.2384833343857775
8.15234375,-0.03891871056544131,-0.6531543905389913
8.15625,0.40195997611209666,-0.5487469620764186
8.16015625,0.8977370130538456,-1.5481700127430762
8.1640625,-0.40708740642869584,-0.36335686207144385
8.16796875,-0.9400239030759994,3.183352038303634
8.171875,-0.2726138451598892,-0.7377061391877991
8.17578125,-0.05093265862036161,-1.2302347453853175
8.1796875,0.3943567374974702,-0.8846217322920029
8.18359375,0.6868773584167552,0.7267797701121
8.1875,0.4353594329987396,-1.151276950453727
8.19140625,0.4699704130383494,-0.409371094457985
8.1953125,1.0611513028531967,0.4834508757504687
8.19921875,0.8981139925595495,-0.26880963510123673
8.203125,0.3145807509911589,1.44232686005392
8.20703125,1.3276558211235585,0.9799013495720111
8.2109375,0.6372478916810801,1.5651943535660124
8.21484375,-0.20584213224251582,-0.13197041877634783
8.21875,-0.11307608561839767,0.22316975549120033
8.22265625,-0.7188608724563981,0.3057251049430729
8.2265625,-2.2232630447911075,-0.23068238195599639
8.23046875,-0.6926098910932043,-0.6685536848350484
8.234375,0.634172481137309,-1.9632675001806583
8.23828125,-1.293919852332119,-1.6319271643859985
8.2421875,1.3804492147888328,-0.04535888213389418
8.24609375,0.2951705298004577,-0.9855800403548045
8.25,0.37329265233521897,-2.071207607651685
8.25390625,0.033175015750857385,-0.6428048394371828
8.2578125,0.9264716181442961,-0.03377713859396751
8.26171875,0.3144611474067833,-0.13001231851265874
8.265625,0.5259851305122433,0.16580996745567983
8.26953125,0.34425054739786426,0.21214059482217823
8.2734375,0.2525191900208279,0.19178271808400216
8.27734375,-0.8601827417971831,-1.683786853098382
8.28125,-1.124837385586461,-0.08609039073595648
8.28515625,0.07770824586655942,-0.422693308374969
8.2890625,0.7427849856931527,-0.8939839964003667
8.29296875,-0.44099205878221265,-0.5503141569153948
8.296875,0.3545603238181158,-0.6145314260438042
8.30078125,0.07224066223054433,-1.3772507537187575
8.3046875,-2.2208780465036924,0.5157107975761862
8.30859375,-0.4071095693828838,0.503788146558492
8.3125,-1.3721128722528526,1.2531674363196816
8.31640625,-1.0820886368685991,-1.9623790643905303
8.3203125,-1.9088884747750305,-0.38269627020405067
8.32421875,1.0051723807163795,0.8102630592327499
8.328125,0.9221793672657396,-0.748490491435697
8.33203125,0.9019107685309604,-0.26432141926739505
8.3359375,2.153226406028781,0.4978391223328225
8.33984375,2.388697838995861,-0.06255705782554644
8.34375,0.3750064996669088,-2.0181365857565674
8.34765625,0.1345905051396394,-1.4661167221247595
8.3515625,1.8118149332475058,-1.5920205730064652
8.35546875,0.6424510231041028,0.07223379174128636
8.359375,-2.0869867286259165,-1.3297314198691357
8.36328125,1.3949283578116325,-0.4660066335375213
8.3671875,-1.4981304410896514,0.14685119969984198
8.37109375,1.4162845476243617,-0.8640484580715242
8.375,0.20352093259549403,-0.150621570487266
8.37890625,0.6049380402859924,1.2930570590138921
8.3828125,-0.5623052840264573,-0.7409079009025952
8.38671875,-0.11266289842773078,-0.058327558987735124
8.390625,1.291762434470888,-1.1014993225028937
8.39453125,-0.14074031088242484,0.07666375380146993
8.3984375,0.9803089037984043,0.26624429647496817
8.40234375,-0.8109430964351482,-1.2868874968891695
8.40625,-0.45499558921134825,0.3164833890278692
8.41015625,-0.1284910505985108,0.36654638351120394
8.4140625,0.05943816868425865,-0.3259516433910949
8.41796875,-0.3545894445682272,-1.7186351399162312
8.421875,-0.07454609783667883,1.563830163351288
8.42578125,2.288602830796177,-0.793692678800351
8.4296875,-1.1964125891183495,-0.798157482642308
8.43359375,-0.48413665240919146,-0.1323974096700244
8.4375,0.2608390720214882,-0.8782220682828284
8.44140625,-0.7902703213336139,-1.2042814615755497
8.4453125,1.8949850525438934,0.5013820394406642
8.44921875,-0.23665497043956765,-0.5719720284445349
8.453125,0.3748037543866985,0.5224132585946124
8.45703125,-1.1532643635322006,-0.11343786683316978
8.4609375,0.9999385539835199,1.3494228437644418
8.46484375,0.4446268355860137,0.21536203037986243
8.46875,-1.3949416383146676,-0.8672131560140118
8.47265625,-0.3695438283600632,0.20772904476230333
8.4765625,0.2946615223043212,-0.7233480128164771
8.48046875,-1.1493645485877186,0.9376886447030971
8.484375,-0.3775060891169451,0.10514220172092888
8.48828125,0.5483890883191941,0.6340021517026588
8.4921875,-0.5458478890052912,-1.0206008975071803
8.49609375,1.6889210455464896,-0.072042341463305
8.5,0.8380707711594998,0.1852562755000579
8.50390625,1.8983880253434071,0.7206772582200297
8.5078125,1.1634532773943056,-0.8752727741182232
8.51171875,1.5060023555442468,0.21722910561108008
8.515625,0.8547148381958998,0.3900528276775386
8.51953125,-0.24112093517478472,-1.2157386857379435
8.5234375,-0.04791950349298896,-1.621712741857046
8.52734375,1.7443721971140753,-0.09838597518463346
8.53125,0.34652668997923664,-0.466558789795093
8.53515625,-1.1050096607355737,1.1948255446585287
8.5390625,-1.459234170870533,1.2730431287862858
8.54296875,-0.17213849251322305,-0.2914337791823849
8.546875,0.1621571640720507,-0.5540901519227068
8.55078125,0.15473872312105968,0.6533644498138054
8.5546875,-1.6308156031512115,0.6539561778595643
8.55859375,0.20704895315701002,-0.8796127708699788
8.5625,-0.9420959556879943,-2.688696597141907
8.56640625,0.65194873399641,0.3660117860525648
8.5703125,0.9184056732270959,-1.229558237868883
8.57421875,-0.9390310667978767,-0.43809815294742577
8.578125,-1.2871937457739704,0.5714837139275413
8.58203125,-1.4349010793475454,-1.4703761498727714
8.5859375,0.6519312535116445,0.01367236248445591
8.58984375,0.44003582507191735,0.5910790321103468
8.59375,0.7439436405527279,0.679413497744919
8.59765625,-0.9301088952371244,-0.5954336691106991
8.6015625,-1.3281612585301665,-0.8846874095237175
8.60546875,-1.4669831057217746,-0.9349767623375497
8.609375,-0.09988631196921714,-1.4402107612648503
8.61328125,2.097809726328435,-2.1543319912650767
8.6171875,0.7616528168281748,0.2028487083856238
8.62109375,1.276072874444669,1.5993433861271302
8.625,0.604986584474946,0.7650880803024602
8.62890625,-0.15700323058182938,0.47725670897869826
8.6328125,0.07896204061306565,-2.2323469462933363
8.63671875,-0.9006578407750819,1.2833605402175603
8.640625,-0.15448069723830632,-1.5146996172725538
8.64453125,-1.532049689513866,1.0969904946743883
8.6484375,0.3483588632197287,2.005548375397373
8.65234375,-0.9750720417903815,0.5106189165245587
8.65625,-1.043826611327055,2.217522952578261
8.66015625,0.85385193085042,-0.9491460980619524
8.6640625,-1.4232423845560769,-0.6828885368717029
8.66796875,-0.56137721288107,-0.34865625706225845
8.671875,1.2037063320911536,0.4288065806677526
8.67578125,-1.5474698338666366,1.4545953729453585
8.6796875,-0.42162368728481325,-1.643047101586888
8.68359375,2.038938131310554,1.3235868894421583
8.6875,-0.7833647618414231,-0.0754408544994779
8.69140625,-0.637714708843616,0.6260738741078973
8.6953125,-0.46356471031617114,1.8308197245596092
8.69921875,1.710329666857136,0.3164270794150802
8.703125,-1.5110526576761516,0.2012474291862099
8.70703125,-1.4534054872731113,-0.7609403386679501
8.7109375,1.4139801422721536,0.17839248526486373
8.71484375,-0.7244881490786397,0.0933329259474222
8.71875,-1.44990837181421,-0.8565540738627233
8.72265625,-1.862797590686421,0.7598507598697771
8.7265625,0.7220570514094481,-0.5239008088892336
8.73046875,0.5142442490089426,1.1863840447480172
8.734375,0.34543114639279254,1.522872760155819
8.73828125,0.7712058471227465,-1.6663487035630944
8.7421875,0.4067628832685454,0.3611200072069267
8.74609375,1.7305887452963624,-1.66468842905558
8.75,-0.569479373714477,-0.5452966989981789
8.75390625,0.26469165488440044,1.0144780883124689
8.7578125,-0.47821602897609183,2.0487023928193513
8.76171875,-1.671851460414941,-0.9348282908362214
8.765625,-0.16121170557835782,0.8939089865938779
8.76953125,0.48711961906478407,0.677938015206631
8.7734375,0.595617629924902,1.6773422726912686
8.77734375,-1.106818151021365,-0.6773553054931521
8.78125,1.2464200471398528,-0.21327491031890816
8.78515625,0.3654984306698163,-1.4007407087919093
8.7890625,0.3707985079444493,-0.08605576207407493
8.79296875,-0.7651204689344397,-1.7494205908713267
8.796875,0.6499251634801205,0.19670248481501657
8.80078125,1.626557644138757,-1.439674354900441
8.8046875,-0.5887786521868632,0.4650677154811303
8.80859375,0.6539293401667475,0.2501024853212848
8.8125,-0.9655229563329614,-1.2574568186287627
8.81640625,0.2823136926717294,-1.8015668370553855
8.8203125,0.5887029947881126,-0.785222925356392
8.82421875,0.680029384637851,0.10460579425147576
8.828125,-0.8872598527238434,0.6745915435432488
8.83203125,-0.17690450238090313,-0.3723792519311348
8.8359375,2.589815368294189,-1.6559196876174058
8.83984375,0.7147305767029979,-0.7073058417877895
8.84375,1.2963879786527173,-0.5225912810951098
8.84765625,-1.5038193746005157,-2.0491660189337653
8.8515625,-0.8112277682439912,1.269861584947663
8.85546875,-1.0584667756352875,-0.7199726072194921
8.859375,-0.2591097451789242,-0.1785677598633889
8.86328125,-0.6197797796357497,-0.6803103754303175
8.8671875,1.533586397867416,-0.8886093815534488
8.87109375,0.6408589840314878,0.811304802965397
8.875,0.8309228991881946,0.1293157440428022
8.87890625,0.08912255460700731,-1.370100671184695
8.8828125,0.9589172609967845,-1.2745825539235391
8.88671875,0.8948906657575513,-0.42532916974681073
8.890625,1.8662572100899122,0.29506355415556706
8.89453125,-2.990451685524774,-0.12457084956150166
8.8984375,0.60277828707624,1.1555136044444099
8.90234375,0.8037667930849651,0.43712529071484685
8.90625,0.8602425164188887,-0.8891064861700574
8.91015625,0.26311036692471407,-0.484175505699091
8.9140625,0.12567467291534304,0.09360568861859046
8.91796875,-0.4760267380513553,-0.5543082257652489
8.921875,-1.1852907227627507,-2.1990061852046874
8.92578125,-0.6207440108231878,0.3181642282020668
8.9296875,0.1352761588279343,1.7884453459884881
8.93359375,-0.32649277748943784,0.5584685538063505
8.9375,-0.5582510139822026,0.11831816794672778
8.94140625,0.26057673388789354,-0.2218696828130712
8.9453125,-0.23539588812607462,-0.3194826267883672
8.94921875,-1.616908582124977,-0.8479694653485014
8.953125,0.9788436973181233,0.4561486253295085
8.95703125,-0.6940011943459086,0.8188779099223177
8.9609375,1.0378083422823028,-0.4473117427970826
8.96484375,1.231853479727218,1.9031922085839368
8.96875,-0.7272153411357786,1.2355057845358894
8.97265625,-1.463253250502731,0.11730563690637713
8.9765625,-0.18733159966894153,0.15513548644845515
8.98046875,-0.9193846244541278,-1.760966661116032
8.984375,1.5691590388012717,0.29452263054819067
8.98828125,-1.2974160168775128,-0.022963553256796936
8.9921875,-1.8377810345923054,-2.812752938426664
8.99609375,0.37113357717925205,-1.6641098052996988
9.0,0.3733119900339531,-0.059204897403448316
9.00390625,-0.6426529473762926,2.08811044602065
9.0078125,-1.1508818624538293,0.6488882832241726
9.01171875,0.029932355960800166,-0.06548964650642426
9.015625,-1.3288634443119631,0.4580140347134117
9.01953125,1.7470838334921066,0.8889824348319108
9.0234375,0.7485289496989541,-1.5466139894594946
9.02734375,-1.1629011630190842,0.2849842726270063
9.03125,-1.287282060697039,-0.39379458074778856
9.03515625,0.7667304749766721,-0.3116901750120499
9.0390625,0.04261679532173469,0.8555121928818522
9.04296875,0.24501915143159889,-1.3864970656211977
9.046875,0.5024179506801113,1.6109113879640342
9.05078125,0.9923396594540554,0.2648833636589033
9.0546875,0.6053393604165207,0.25383518260555693
9.05859375,-1.4505959836490385,0.16575266528191696
9.0625,0.6886065630880747,-0.018264923408326545
9.06640625,-0.9886807316539326,-0.0737190694521286
9.0703125,-0.11266957240089732,0.24917531565382098
9.07421875,1.96994735506638,0.24480657885549137
9.078125,-0.26731777427601555,1.1942531480761125
9.08203125,0.5209844188437807,0.08728001757303783
9.0859375,-1.496110303604876,0.39101425589262645
9.08984375,-0.08334943211992565,-0.4623625723521482
9.09375,0.0670481810382073,0.8231631908979856
9.09765625,-0.448088234990603,-0.07298336044651614
9.1015625,-0.8683018451387472,0.8926298760722349
9.10546875,0.6668694283233908,1.7303071316881096
9.109375,-0.7179413313855356,0.5696756263390643
9.11328125,-0.6679906758198882,-0.545440826523898
9.1171875,-0.4475902775742987,0.5722701075042096
9.12109375,0.9948094059369694,-0.8302160822503191
9.125,0.8267668420540635,-0.8233367643189682
9.12890625,-0.11683726312981352,0.16913958325979658
9.1328125,-0.7204627988257953,-0.5722160884607891
9.13671875,-0.39920063223170477,-0.7682771892735532
9.140625,-0.7323836562799196,0.9015901966243356
9.14453125,-0.8983426571891062,0.9537174987981514
9.1484375,0.36381848029307173,-1.8521243678183952
9.15234375,-0.049037306231194164,0.8079615739067484
9.15625,0.39270110818224263,-0.07906000589528878
9.16015625,0.723387959637287,1.2631887377732283
9.1640625,1.2622053085344795,-0.6332307506882194
9.16796875,1.7929712583438473,1.302011153393944
9.171875,-0.05073654862934503,0.2237534736649426
9.17578125,-0.03591066846819188,0.6903902663518453
9.1796875,1.0674650808464174,-0.2586442279807219
9.18359375,-0.4927566175041788,1.4134636768326188
9.1875,2.2599018921419582,-0.8212931843584459
9.19140625,1.9279936009296805,-1.6900457451625028
9.1953125,-0.8091011067210718,-0.4931805333141054
9.19921875,-0.7845200596493517,0.5558235037170473
9.203125,-1.4626766110005534,0.443002829666154
9.20703125,0.2571106036800921,-0.5817515498668232
9.2109375,0.4525908627816807,0.06094317923782236
9.21484375,-0.0010904456779086036,0.5137602976485423
9.21875,-0.11489117277677283,1.4011334947703142
9.22265625,-0.13700412360853256,0.41277833331715275
9.2265625,-0.9301478952660489,-0.8499697639402792
9.23046875,-0.8050156059190139,-0.828166559411596
9.234375,-0.5386433419100606,-1.0944544580265945
9.23828125,1.6937822060277619,0.08183306392375372
9.2421875,1.0320307561689264,0.665386107986803
9.24609375,-0.32745046500135977,0.14455560264855563
9.25,1.2887684791223628,0.7806649284421918
9.25390625,-0.5213095791806784,0.046329477855437194
9.2578125,-0.5691703750586768,-2.0762458566390087
9.26171875,0.02497151766055227,1.0912547940653747
9.265625,-1.242182935612521,0.46266022260904033
9.26953125,-0.8654091845323095,0.594856264033075
9.2734375,1.0492827513264784,-0.22467693789595564
9.27734375,-0.40079842693656026,0.4865167439737822
9.28125,-0.5773404789619351,-1.1440653301043149
9.28515625,-0.11338988717726449,-0.3832784589987736
9.2890625,0.5163094530532285,-1.022223129080622
9.29296875,0.3638571424711501,-0.5671119359153983
9.296875,-0.19034489766991405,0.34907160285278555
9.30078125,0.1018864333480127,1.0884883218199637
9.3046875,3.4355311117206364,-0.09161219634627714
9.30859375,-0.5301218444938728,-0.9801510625010627
9.3125,-0.33754209466529717,-1.0500102235405915
9.31640625,-0.6714792305457952,-0.57836439654839
9.3203125,0.5314595724461296,-0.7103522061290423
9.32421875,-0.17098365688511374,-0.3741654307811984
9.328125,1.2474224843229744,-1.1183808219813263
9.33203125,0.796845070250024,-1.7233575078912384
9.3359375,0.47428517729678443,-0.6286637271390089
9.33984375,1.1405221842833342,0.0032530145724658215
9.34375,1.126802600613529,-0.757902174148677
9.34765625,-0.7989818213743263,-0.26425878149971005
9.3515625,-0.8598525219662856,2.6616782708431703
9.35546875,-0.9912157494623738,-0.6084941539855648
9.359375,-0.4839484863789344,-0.4488667201511998
9.36328125,-2.013094368767426,0.8324589667677074
9.3671875,-0.2502649599111135,-0.9715024077625869
9.37109375,0.26317061298169686,0.9172842622767269
9.375,-0.06513087353220498,-0.6708450530177467
9.37890625,-2.475685762867892,-1.0632432208726037
9.3828125,0.7916147905448295,0.9414152250079044
9.38671875,0.43334239176697253,0.033913216548638624
9.390625,1.9255432285213916,1.4503488433671599
9.39453125,-0.017650949330917504,0.09429373174459152
9.3984375,1.2844405666287457,-0.8423412618426015
9.40234375,-2.0828065344341944,-0.1435869637219041
9.40625,-2.00439950831028,1.419876570707162
9.41015625,-2.728916989559665,0.1869942030847707
9.4140625,-0.7606367120560631,0.05459538138221802
9.41796875,-0.5239846187987816,1.6747816455591367
9.421875,0.640887006769154,0.3294284759335332
9.42578125,1.0146219211214922,0.4622752713140381
9.4296875,-1.278086722506483,-0.5318327412274281
9.43359375,0.7280481714401327,-0.48099439250913373
9.4375,-1.2302753347409165,-1.0254361518255843
9.44140625,-0.3053124803385012,-0.11867021032095725
9.4453125,-0.34114687259177306,0.13619456176010222
9.44921875,-0.08869580395621464,-1.2041178317454047
9.453125,-1.1489044224364233,0.14065510899193803
9.45703125,0.5988195462920196,-0.35267877915182605
9.4609375,-0.5290089052980346,-0.738682662399876
9.46484375,-0.47175221323479904,-1.2130074305302394
9.46875,0.6167189797991837,0.741509104273048
9.47265625,-2.168805045794439,0.054518196378383905
9.4765625,0.5368626876668834,2.5319224854046216
9.48046875,0.38472033670808237,-1.0655072966077237
9.484375,0.697003421056916,0.010405089575636137
9.48828125,-0.033875485494050825,-0.8950500171707817
9.4921875,1.0520712430452046,0.32162793202975154
9.49609375,0.7824523226049216,-0.16963195297837994
9.5,-0.6491708649104037,-1.0420231239138895
9.50390625,1.453576148379835,-0.357584512189843
