time,ecg,ppg
0.0,0.11711366873819078,0.12671221084826229
0.00390625,0.8230550280180234,-0.42034212753849043
0.0078125,-0.7899198890061776,-1.6240298695009119
0.01171875,-0.8447057945531209,-0.194741347696597
0.015625,0.6405481785640608,0.3172497710496338
0.01953125,1.4270024078519576,-1.6355480201653667
0.0234375,1.3130865793704338,-0.8738507747805515
0.02734375,2.203754563915093,-0.3621998613278831
0.03125,-0.28759487842709835,0.2191653252214058
0.03515625,0.007452419657663941,0.3823052027211558
0.0390625,0.9163099268202579,-1.2001361590255326
0.04296875,-2.065568359074274,-0.31698796018694564
0.046875,1.2172223087524143,0.6929778024088524
0.05078125,0.5026747509975824,-0.20034102271834456
0.0546875,0.6975349781061316,-0.20471138066343086
0.05859375,-0.4506952970859996,0.818104174801209
0.0625,-0.2599511864093349,0.5139988444965605
0.06640625,-0.5104361504139411,0.9448049125348659
0.0703125,0.19411685490665478,1.1467893706931993
0.07421875,2.230780776656099,1.2004022752450645
0.078125,0.9288190886023693,-0.4515258030294384
0.08203125,-0.5960816768567105,-0.001592973610414755
0.0859375,0.505779369925805,0.4892376985459523
0.08984375,-1.9520063906479077,1.066740303176945
0.09375,1.0460095280738395,-0.8560118785509081
0.09765625,0.4162244031994116,1.3689304513238185
0.1015625,-0.5212365004109775,1.4106936507870638
0.10546875,0.5099608399715829,-0.1131716280866836
0.109375,2.2702513077366824,0.7791423117779972
0.11328125,0.635304571315954,0.31286848143422025
0.1171875,-0.14106622664888588,0.5216420779137342
0.12109375,-0.4108380957276789,0.09134028086566812
0.125,-0.2728121895425958,-0.1987274537484346
0.12890625,0.26381552283635573,1.5289088040461607
0.1328125,-0.06671912201440627,-0.9077990798174816
0.13671875,0.24991807349561435,1.8451832794965588
0.140625,0.3888295762294483,0.7444703067869132
0.14453125,-1.769938945865716,-0.46717695103974216
0.1484375,-1.714708428366821,-1.3240195289985253
0.15234375,-0.8302504954961868,-0.5953911577537643
0.15625,0.6471772630321393,-2.0099170151152568
0.16015625,-0.0016758509114750439,-0.2824678750779726
0.1640625,-0.5903166340893266,-0.7160682591202157
0.16796875,1.5178613333292863,-0.9971818113351384
0.171875,0.06282773276902573,2.7402658403462343
0.17578125,0.10685867964540048,0.9005378963875583
0.1796875,-1.3120220528198483,1.2212368309194253
0.18359375,0.30971721415827325,-0.27171389734226375
0.1875,0.03035166648478273,-0.4015693715353728
0.19140625,0.6673875888832835,-1.6595506737306405
0.1953125,-0.9775502685123183,-0.34214211123175975
0.19921875,-1.4160939984023309,0.20913850577191434
0.203125,0.2635305102248468,0.3034554770258635
0.20703125,-0.05642753076870575,1.0977161732808587
0.2109375,1.62624708981733,-0.6382394287363073
0.21484375,-0.55951119279581,0.621080531591085
0.21875,-0.059021909235817384,-1.0035772818601123
0.22265625,1.5179627064609376,-1.2749593079779253
0.2265625,-0.7174168269779584,-0.05940589032041738
0.23046875,-1.3150554790611824,-0.3143320455456426
0.234375,2.882940664755468,0.4084575460992146
0.23828125,0.15820656067512698,-0.42070555965977496
0.2421875,0.18733366731759207,-1.1940456578644187
0.24609375,-0.9024497077247768,0.3211019777428876
0.25,0.824319159134342,-1.2605350839721734
0.25390625,-0.9333143349701654,-0.11585819806840054
0.2578125,0.28888092127617776,-1.4284124601106944
0.26171875,-0.43524537796947776,1.5786737189298456
0.265625,-1.6358193534490597,0.10799502421358667
0.26953125,-0.16880586510737813,0.5658016555755357
0.2734375,0.93506317336174,-0.9195975596967364
0.27734375,0.5442824036518297,-1.1518849504244024
0.28125,-0.4737808324732838,-0.8105800747960222
0.28515625,3.5890614786943154,-0.6030553138741132
0.2890625,1.1650746316883116,-0.7108099890357017
0.29296875,-0.8483236967996448,-0.3775626124459036
0.296875,0.9176176885587928,1.010373713900326
0.30078125,-0.5476156540128921,-0.8504442718478628
0.3046875,-0.8544934228150568,0.013148813150102951
0.30859375,-0.9951634989638999,-0.1887960689117946
0.3125,0.33916066531983813,-0.10718491594097652
0.31640625,0.723169560285112,-1.0318611880334434
0.3203125,-0.6974129908890655,-0.9943640852879215
0.32421875,0.3621193588961869,0.22335833975425246
0.328125,0.39345746301203305,0.8495766155732708
0.33203125,0.4935337670639239,0.6618933582103521
0.3359375,0.5881382093231918,-1.2271814752979764
0.33984375,-1.232866376936747,-1.4465715510942814
0.34375,-0.9615158919782224,-0.31136399991405983
0.34765625,1.038565745595902,1.0926922381031414
0.3515625,0.23434673615181628,-0.15412922116285027
0.35546875,0.32593298203742666,-1.9079226450797455
0.359375,-0.37318907205536933,0.5544767968859983
0.36328125,0.8458727842951153,-0.5088857311407308
0.3671875,0.5318560356980437,-0.8514845469388257
0.37109375,1.1330000813309686,-0.7661241700569048
0.375,0.7952345812524306,-1.341613309555877
0.37890625,0.432129301487106,0.24959515439077815
0.3828125,-1.282604802712308,1.1733828038890042
0.38671875,-1.1307315346254319,1.4588740899563541
0.390625,-0.7865149275202145,-0.9877251485685069
0.39453125,-0.8240556369975723,0.7423640729884714
0.3984375,0.005672252036825945,-0.49964767979914937
0.40234375,1.3883886518164181,1.0798238032830298
0.40625,-0.07153505299526519,0.9795591569452603
0.41015625,-0.31433478896460043,0.40408784410382115
0.4140625,-0.7542437267008426,-1.182859697392712
0.41796875,0.5920803039117489,-0.00726940441983724
0.421875,-0.48599254566488204,-0.7791604549702948
0.42578125,0.5781030818942344,-0.22379911184172
0.4296875,-1.5704588756984472,-0.15294578764197655
0.43359375,0.7275085231394872,-1.3201664547828778
0.4375,-1.1787915812536385,0.6442870753582777
0.44140625,-0.37889431173669563,-0.48171276606417984
0.4453125,-0.7129799383561635,-0.4108940029283637
0.44921875,0.3657293793310533,0.15580517029991797
0.453125,1.5880403045100848,-0.2083223276207793
0.45703125,1.8931236890751664,0.45711276821061797
0.4609375,0.2956378354715414,0.3029940799854655
0.46484375,-1.5670344794627225,-1.7099499802168165
0.46875,0.044005776922307976,-0.2876046554198985
0.47265625,1.6408780863827306,0.0880885585625164
0.4765625,1.264400617478243,0.4833205446050411
0.48046875,-1.7537720184945058,0.8190265750813711
0.484375,-0.6171748022220399,-1.2303302546023012
0.48828125,-0.21902871044563316,-0.7669173196271604
0.4921875,1.9695008148998228,0.4394657687772567
0.49609375,0.24877492042869342,0.2956253720283411
0.5,0.9043658611013796,0.9103725368161916
0.50390625,-0.714110723512336,-1.0985568825859195
0.5078125,1.1137222082968208,0.8371049168811547
0.51171875,-1.20681012170137,-0.952085128453836
0.515625,0.5417537146359547,1.2295720473044405
0.51953125,0.6443507350551768,-0.09857858581718851
0.5234375,0.6810736186854107,0.006823953022984101
0.52734375,0.3681806476782589,0.6495157807347122
0.53125,0.7688725976309234,1.3096029724672724
0.53515625,0.46105164240104923,0.980794458321573
0.5390625,0.20079723097815966,-1.330761882548131
0.54296875,-1.818975848871648,1.96547653692661
0.546875,-0.6903816152647567,0.5367998786651751
0.55078125,-1.1093611743722218,-1.7330738813308444
0.5546875,1.8003206152099203,0.06821197216973894
0.55859375,1.098632781905578,0.8637831881795572
0.5625,0.7563892472946794,1.0511693089449785
0.56640625,0.19147599949075947,0.8929177565920315
0.5703125,-0.4434826199128098,0.5220140870909505
0.57421875,0.5746474791729567,0.2028317436842028
0.578125,1.2426430448638583,0.02475116634378496
0.58203125,-0.04344355052616767,-0.14497600642950204
0.5859375,-0.1564927292512983,-0.3483249122847098
0.58984375,1.3152105359773174,0.7101490417419382
0.59375,0.8895784656471685,-0.8402114277098613
0.59765625,1.562583847037726,0.4986760898819515
0.6015625,-1.6883299953621862,-0.08194515044351973
0.60546875,-2.215182774861228,0.7866467973067135
0.609375,-0.7122246222067913,-0.34699017131288984
0.61328125,2.156396353487659,-0.7613819331164748
0.6171875,1.0768889625490878,-1.4903656976734527
0.62109375,-1.0561173917280073,0.6009611872510893
0.625,-0.06733575712183872,0.5902370100965858
0.62890625,0.0667031100149517,-0.7620425308982641
0.6328125,-0.2502314373648823,0.23602672878832825
0.63671875,0.3222455430373834,1.2358457103072054
0.640625,0.31104384820055725,-0.3223664437439553
0.64453125,2.093525556036947,0.01337618891660648
0.6484375,-1.2997874757197532,-0.5602804170585776
0.65234375,-0.21974205494498503,0.04812786707949836
0.65625,-0.12151699047423804,-0.6227251230302389
0.66015625,-0.6058518498294782,0.745764093063139
0.6640625,0.426356889613411,-0.9673842617298759
0.66796875,1.2863070322791534,0.5330517392018943
0.671875,-1.3411720011125607,-0.6409119602618045
0.67578125,-0.6217172556780709,-0.22637415911966088
0.6796875,-0.21957985380194747,0.4025348545814402
0.68359375,0.6774531074733126,-0.518972293198387
0.6875,1.9130312981246314,0.07628712448288304
0.69140625,2.3568560528362568,-0.3710645421806632
0.6953125,-0.481253017319417,-1.6944204854849139
0.69921875,0.5749020697200166,-0.5392800595656322
0.703125,0.1018994024691234,-0.6030692786561042
0.70703125,-2.0341476218381644,-0.7849742910409857
0.7109375,-0.8065695224243833,-1.3414778135943004
0.71484375,-0.45370166610272555,-0.24786331562250807
0.71875,-0.7013463034596776,2.0218888143151865
0.72265625,1.6795983146358038,0.9002061780223138
0.7265625,-0.662371532254924,1.423342852035571
0.73046875,0.6483657738326479,-1.744724206857954
0.734375,0.2585568565147197,0.016811167524344098
0.73828125,0.9384507140557485,0.6963161544860965
0.7421875,-2.276466133541677,1.8597976731811428
0.74609375,-1.6309250146224743,-1.8135640504678667
0.75,2.2063483532162222,1.2096778101681704
0.75390625,0.5982471101891134,-1.4704784794724697
0.7578125,0.3852815522743646,-1.1512853110380914
0.76171875,-0.6274059011444811,0.5807840036423174
0.765625,-0.1789984007979566,-1.7299604411347815
0.76953125,0.6489571977231667,0.319703986829444
0.7734375,0.3598999399786539,0.7570630029458298
0.77734375,0.12871540359876987,-0.7066324179863719
0.78125,0.7961694754376132,0.5941242827176244
0.78515625,1.7456354249984962,0.3377321176973473
0.7890625,-1.0698304390052549,-0.2065306244609812
0.79296875,-1.175485741201376,-0.7931307320383907
0.796875,-0.012934039714225628,-0.041124665372097795
0.80078125,0.2933316189846619,-2.4362232806138047
0.8046875,0.004575805911506008,1.4488297946230548
0.80859375,1.1368373940947336,0.3847020596740512
0.8125,1.1968247644082175,-0.4701421723803694
0.81640625,-1.4538401363992168,-0.17664967365275316
0.8203125,-0.7477314552631746,1.2440106237961182
0.82421875,0.1758739365890853,0.9233520181494735
0.828125,0.25973226994232046,0.1686263120450062
0.83203125,1.3735820869463893,-0.09898461881363692
0.8359375,1.2345013807741405,1.1626481100564023
0.83984375,-0.956843379274147,-0.384355763325767
0.84375,1.7842451825881354,0.001099336606270227
0.84765625,1.686261951019184,1.9623522430047378
0.8515625,0.5553424594919408,-0.39414493757657987
0.85546875,-0.2999032747653517,0.384284662783962
0.859375,0.6785904953473104,0.4985694804108782
0.86328125,1.7129861335942098,-0.399479582419108
0.8671875,0.987247103680868,-0.5142967086251357
0.87109375,-0.6475055614711138,-0.14701374991908203
0.875,-0.22254315862216786,0.06923284475071746
0.87890625,0.3202096955288754,0.6309996788866158
0.8828125,-1.9610505741447268,0.49096759002315205
0.88671875,-0.06939915947698193,-1.3861100707566034
0.890625,-0.48621042935428055,-0.6992203269912568
0.89453125,2.215459983019251,-0.036215021344327726
0.8984375,0.6272913610806238,-0.2622778675316895
0.90234375,-0.3490912008156791,-0.1306151685259724
0.90625,-0.704869004589333,-0.5110068520262958
0.91015625,1.2905803662147586,-0.6188996985230013
0.9140625,-1.589964779150428,-2.4491955059728596
0.91796875,0.03559064039006934,-1.3873403381315772
0.921875,0.048351702813187784,0.4617793347721651
0.92578125,-0.27398184962495953,1.2607119838685852
0.9296875,0.20511971464702014,0.37187334518181947
0.93359375,0.5499304142297452,-1.359379024463454
0.9375,-0.24276794247771957,0.45716157535836954
0.94140625,1.3337862416802453,-0.363483599436022
0.9453125,-0.5612292270943925,-0.7598773920135434
0.94921875,0.3453115951129417,0.33698568089745
0.953125,-1.2712591964143196,2.1997526588095413
0.95703125,-0.692541670510311,-0.43691862688879557
0.9609375,-0.2627303116371426,0.8788085515816871
0.96484375,-1.6404711094743043,1.2415401306730647
0.96875,-0.17540848032695106,0.8542474163254675
0.97265625,0.45764507435603113,-0.5449985860278131
0.9765625,-0.031442105071539495,0.056117693494626766
0.98046875,0.0608678163432485,0.3667136598411365
0.984375,-0.9559713669732924,-0.09462036568908935
0.98828125,0.4201392858198003,-1.2566350711209229
0.9921875,0.8722638181119929,-0.41963994838863194
0.99609375,-0.6658656154291086,0.9825882279200497
1.0,0.6341136807609447,-0.08318375306182113
1.00390625,0.46978004177902166,0.1163468647394177
1.0078125,-1.372611503660096,-0.39858890242248624
1.01171875,-0.36423447679790993,0.562156729265198
1.015625,-0.19142643610903243,-0.16450387515521775
1.01953125,1.0831604698183914,-0.2544710285198554
1.0234375,0.9554811721355986,0.06004815374532824
1.02734375,-0.33931847660465575,-0.450655809011156
1.03125,-0.010920711369780498,-1.1066381594948274
1.03515625,-0.8109119297029808,-1.0504952263254028
1.0390625,0.8242686513973172,0.14090077272773058
1.04296875,0.5275505239281528,-0.3003560669619859
1.046875,-0.2655613522844508,1.7856598674510562
1.05078125,0.4972891289160372,-0.6652065298490791
1.0546875,-0.07248899250184519,0.9920797453886192
1.05859375,0.1510793197408238,0.3254128472367782
1.0625,-0.1608527380900734,1.0156025865721152
1.06640625,-0.8217953505681462,-0.405727332831282
1.0703125,-1.149130080091634,0.6715175821311314
1.07421875,-0.14288648939600096,-0.9272707637984501
1.078125,-0.633502121422132,-0.35003326126764933
1.08203125,0.3696461398093195,1.2468079971923312
1.0859375,0.9324205165312268,0.2212804624054
1.08984375,-1.2527341697202654,-0.029301835925580826
1.09375,0.35722658666818585,1.7073806537431937
1.09765625,-1.3898410614092946,-2.3474591985145574
1.1015625,-2.0482741566253946,-0.8886881243864868
1.10546875,-1.3673015130796964,1.1952301533573815
1.109375,2.073002123741443,1.0028355539788938
1.11328125,-0.6465883072852521,0.5134449226295723
1.1171875,1.3333995006553085,0.3476792132788685
1.12109375,-1.0561764006821637,0.08929557358779532
1.125,-0.677105025174333,0.3393345048225999
1.12890625,0.22341929461978732,-0.05879851210114765
1.1328125,-0.557991821634738,1.3643302232201984
1.13671875,0.3893112023890543,-2.18292470914064
1.140625,0.4370267848330328,0.15165934837083508
1.14453125,0.017802013568322585,0.02192683168499083
1.1484375,-0.40162784711304594,-0.1603763992211003
1.15234375,-1.3643409610437192,-1.7328842459623095
1.15625,-1.1829506558169267,0.47059681907395834
1.16015625,-0.4602796752174554,-0.2139057339536051
1.1640625,-0.23474094583434763,0.9478562335349924
1.16796875,0.729923701696767,1.6248206049698513
1.171875,-1.1837907582259375,-0.20164702771310805
1.17578125,-0.7084554618907808,1.1802765504887132
1.1796875,1.3220333456988596,0.4205261698280416
1.18359375,-0.007579918678433647,0.3121520750533769
1.1875,-0.5926580430201663,-0.643531060360316
1.19140625,-1.5350443949422365,0.2213210459594429
1.1953125,-2.9071805180319266,-1.4337812078396523
1.19921875,1.3357998927686061,-0.1099826546594504
1.203125,0.5517781306580867,-0.8898704307356392
1.20703125,1.1040806919913249,-0.14617457529011302
1.2109375,2.656359119015661,0.08363280844826389
1.21484375,0.11948219897965333,0.5161469820632435
1.21875,0.7784201181959162,1.4823183226984498
1.22265625,-0.9305493356404126,0.38026970744092164
1.2265625,1.6176025530384535,-0.549382477307817
1.23046875,-1.1273858597912723,-0.028982413041784873
1.234375,-1.480817428623308,-0.36689084303406727
1.23828125,-0.22415750431467799,1.0834011396955265
1.2421875,0.02246408017863234,1.4150920451474522
1.24609375,1.274956658263711,0.8459226323333007
1.25,-0.7620425856707821,0.00902082501199909
1.25390625,-0.1486506866071688,0.5847577457270068
1.2578125,0.36828311958623305,0.28805383108409394
1.26171875,-2.7830954814520026,0.9320875629100984
1.265625,-1.1958683355142126,-0.19113643012594758
1.26953125,-0.5274266564856334,0.4503676609965672
1.2734375,-0.07959183185266994,0.7427306239840955
1.27734375,0.15880645061903334,1.496598519385998
1.28125,-0.8367646638104289,-0.42447291479660265
1.28515625,0.3002955024805845,0.39388101654536317
1.2890625,0.09741248985768287,2.9115212824197867
1.29296875,-0.9126040537314921,0.7628827713538311
1.296875,0.605045117058086,1.168976315867578
1.30078125,0.22080746860947556,0.5732700683810116
1.3046875,0.8004455328386851,-0.7651825201400317
1.30859375,0.7137209752033068,0.40042258196509917
1.3125,-1.5640541212645545,0.21134656524519457
1.31640625,-0.07660999503253736,1.7853725600840664
1.3203125,1.5928479548259629,0.10360481434182467
1.32421875,-0.15609426130185128,-0.12965767594482286
1.328125,-0.4264875187410222,-0.3619395834937293
1.33203125,0.5614710136257539,-0.4047177916626697
1.3359375,0.17935879077632083,0.8862310071219642
1.33984375,0.2132053696236698,0.25678786274210375
1.34375,-0.3796602957600774,-0.16941571330673072
1.34765625,-1.2036404901407725,-1.5806278144515313
1.3515625,-0.4979196216145218,0.31294626873176035
1.35546875,1.01916857963386,0.3584013913576102
1.359375,-0.22017336157878972,0.4314305720580523
1.36328125,-0.34711163423096353,-0.3390132548560435
1.3671875,-0.08528528282778354,0.4305996348116656
1.37109375,-0.4639663247181203,-1.5327044031412063
1.375,-0.5641098533464362,-0.793640247431642
1.37890625,0.5387842370163887,1.0029936918276365
1.3828125,-1.5605230349255534,0.6901013351031339
1.38671875,-0.5878192709914636,1.9790503411052323
1.390625,-0.8373080782784788,-1.256413048797155
1.39453125,-3.0001338370546864,0.9162713376738024
1.3984375,0.45871757577627237,-1.5734700027640298
1.40234375,0.15840730937114383,-0.0075084827560365575
1.40625,-0.8451313091465403,0.5669746445397854
1.41015625,0.7234436708309294,-0.1805476026635012
1.4140625,0.15038415614055328,0.10817322333781888
1.41796875,0.1511817915209857,-0.6628516396774782
1.421875,-0.119062788889538,0.08471246201264042
1.42578125,-0.3400174696740649,-0.5672109374094655
1.4296875,-1.045605636450603,-0.3545240971069063
1.43359375,1.040389432764599,-0.14742612264776353
1.4375,-0.5568564894339199,-0.29165601050483086
1.44140625,-1.78686924620074,0.9705254197479778
1.4453125,-1.5297156338979663,0.99471154782495
1.44921875,-0.5722636336365672,0.49458155179377944
1.453125,-0.5246452262628288,-0.33237404174548024
1.45703125,-1.1342722305002397,0.8608187558842357
1.4609375,1.3357668701426997,-0.7665152949850641
1.46484375,-0.5159929924502362,-1.613135296954879
1.46875,1.6109358451306866,0.5300306135948754
1.47265625,0.9530431692734714,-0.44209084006882665
1.4765625,0.3810349902645396,-0.21822749923118973
1.48046875,-1.1846457954150313,-1.2331375896950867
1.484375,0.0026025023561910498,1.0495463562013647
1.48828125,0.6029108068578775,-0.3630136348259151
1.4921875,-1.2727093299448364,1.2678632767989686
1.49609375,-1.3561380657538635,0.3144849674020184
1.5,-0.18532626725359672,-0.7426761911441121
1.50390625,0.6943065412242457,-0.4698296854289536
1.5078125,-1.1391589280653558,-1.4706523054974328
1.51171875,-1.0937240388393021,0.07449163075607375
1.515625,0.398504799188136,0.9747736773700054
1.51953125,-0.48376183801616396,1.0419606681739833
1.5234375,0.9793045050065088,0.8686939404953218
1.52734375,1.0450388103460906,-1.9738280054427442
1.53125,-2.103260003478698,0.6841480085567142
1.53515625,0.0446588503597388,-0.5784549814003956
1.5390625,0.7090019849439996,0.3014006138467445
1.54296875,0.5767799444628253,-1.0428508976559343
1.546875,-0.14649617251364627,-2.258468952283386
1.55078125,-0.0780934783816176,-0.4277553242523657
1.5546875,-1.2601949123575424,-0.36835119565362623
1.55859375,-0.5602027021366223,1.4874017703180322
1.5625,-0.357484032324896,1.2817222336626355
1.56640625,0.013232296152513534,1.2765198733228478
1.5703125,0.49341529915581683,1.867796785704668
1.57421875,-0.4202062843157012,-1.0044269680087399
1.578125,0.5184542345797396,0.6139784577383096
1.58203125,-0.7646092556425483,0.08576584652683872
1.5859375,-2.0216017780287996,-0.5277735270060141
1.58984375,-0.22426216529617343,-0.1282630222495061
1.59375,-1.1735173681737505,-0.02580403022975623
1.59765625,-0.5019984598653567,-0.2498640634011498
1.6015625,-1.3566116978662404,0.6627180907637285
1.60546875,1.2029047128409762,1.1011435276306176
1.609375,-1.0136608186470937,1.35171645138995
1.61328125,1.7847397603564545,-0.17473244690832174
1.6171875,1.3105118080855387,-0.9719358582929865
1.62109375,-1.2278341073259833,-0.5129907649140805
1.625,-0.5534044664709754,1.301588043382215
1.62890625,-1.9846602342229955,0.46339033515737493
1.6328125,-0.6844126870831913,0.5158375436292731
1.63671875,0.37792341123646866,-1.089973492222458
1.640625,0.8625606740028423,0.30127127031361994
1.64453125,-0.5669987399743706,-0.781158433593563
1.6484375,0.9697547421101579,0.22116806475179462
1.65234375,-0.023210666728330342,-0.33011369016852143
1.65625,1.8009965814369195,-0.5974003132517963
1.66015625,-0.5968751150110752,1.5378918883736685
1.6640625,0.40502371321412367,-1.2267310428169886
1.66796875,-0.2549676557046156,-0.9910636742805996
1.671875,0.5544162328917696,0.02246003713242879
1.67578125,0.5487171161825101,0.30622024732990466
1.6796875,-0.8550951298549915,-0.21711578212307917
1.68359375,-0.8794415652894801,1.3455093453090399
1.6875,-0.8787927318166313,1.007712544551197
1.69140625,0.6739197916622446,-0.7561162232068768
1.6953125,0.8514877714520871,-0.24326902201791661
1.69921875,-0.8897234043913164,-0.11370893092363164
1.703125,0.3561961097578307,-2.0462677944518273
1.70703125,-0.2018129370066511,3.027086568588398
1.7109375,1.1733490013759151,2.5282531197269593
1.71484375,0.402507357528562,1.1150538527728264
1.71875,-0.29468768515188587,0.6623940765083243
1.72265625,-0.45466628768458717,0.8102452387438934
1.7265625,0.11822840955141345,0.6113595811761856
1.73046875,1.0899744044536195,0.8807871051438847
1.734375,-1.100795267527336,-0.7086189140101427
1.73828125,-1.4019907401379461,-0.8652327412698666
1.7421875,-0.6292901706916726,-1.3863761343748424
1.74609375,0.23427820638935043,1.3394249678200647
1.75,-0.19448648331925053,-0.8766988322884058
1.75390625,-1.420918195875724,-0.20265924011454317
1.7578125,-0.17646224218548745,0.7389029811925197
1.76171875,0.013111180190620273,2.769939973385236
1.765625,-0.07538096944720826,-0.44920168915403214
1.76953125,-2.0257901580105724,-0.5753878691364344
1.7734375,-0.5525688184580704,-0.021500310222561225
1.77734375,-1.0445471741538528,-0.4447220833458918
1.78125,-1.9693305930297524,0.14170405619359108
1.78515625,-0.5012072660182968,0.44580941116046113
1.7890625,-0.25555082656017536,0.3989014725336195
1.79296875,-0.24453653213577015,0.7608944361047504
1.796875,1.6591068375599618,-0.15504827884774308
1.80078125,-0.8883569822219011,0.23917290300027988
1.8046875,-0.12059124944356964,1.5716388158742503
1.80859375,-0.6873391225443811,0.48058440588431395
1.8125,-1.597490328562161,-0.9207466299192337
1.81640625,-0.7876163004284386,0.21303889707712698
1.8203125,-0.969762177428702,0.12135881168559032
1.82421875,-0.054551480833737086,-0.7415899755403891
1.828125,-1.8777308114086595,-0.47481872842196693
1.83203125,-1.512338235947808,1.1984557410326804
1.8359375,0.10678605412955716,0.5670525123231644
1.83984375,-0.619384022817328,2.2021770094541675
1.84375,-0.4876562455388593,-1.4488605719874643
1.84765625,-1.3518712586260844,-0.40670115590342815
1.8515625,-1.0774864786958795,0.34554344833570516
1.85546875,0.2454844008300907,-0.8760474226652909
1.859375,-0.7525400529564268,0.8372370645937024
1.86328125,1.0228615680980102,1.372504489000718
1.8671875,0.3856565485770922,0.3657728290535347
1.87109375,2.002242748491288,0.15377363347433443
1.875,0.32502690905227144,-1.1134321488894792
1.87890625,-0.8535027540645299,0.8439970383821094
1.8828125,0.1326318618986852,0.7702791692501542
1.88671875,-3.049875493092331,-1.71505714827691
1.890625,0.9978012447546151,1.338339132155656
1.89453125,1.6040413659596113,0.4794091490290754
1.8984375,-0.2190984597093375,1.1288993125659283
1.90234375,0.2039075923398629,-1.7239137159696694
1.90625,-0.8869174798136289,1.4372556316436325
1.91015625,-1.6801272518816674,0.9043453627987571
1.9140625,0.40123108658798395,1.053829294070264
1.91796875,-0.09145862053146808,-0.010201068073671367
1.921875,-2.4982415170220578,0.654103694957519
1.92578125,-0.7318022169270655,0.9846060490790063
1.9296875,-1.4936779620988325,-0.1300351138741698
1.93359375,1.4738471111797449,-1.0150624077239734
1.9375,-1.3787277798088167,-0.9512277062605449
1.94140625,-1.0805579108213355,0.28652912447891377
1.9453125,-0.1526024057799955,0.3148606933564216
1.94921875,-0.8637348816516538,-0.00034579535789681535
1.953125,-1.9295945688560896,0.36171156213924655
1.95703125,0.5077069921073754,-0.30886747676040893
1.9609375,1.3597068966801682,-1.7246103198327292
1.96484375,-1.1073332688013955,-0.4281057234317317
1.96875,-0.19045168769633447,-0.6009109807684668
1.97265625,-1.1250218405606167,-0.4263019070099674
1.9765625,-1.6763782137978651,0.7420212259290575
1.98046875,-0.3504204614965801,0.7684630726219267
1.984375,-1.4695830965030514,-0.26235395125759337
1.98828125,-0.8500773034566609,1.981393117778591
1.9921875,-0.7497350887953593,-0.411041014197429
1.99609375,-0.1228437539409395,-1.3011747644299545
2.0,0.5093407475840659,-0.7114559622279479
2.00390625,0.4017974537852041,-0.5409666709009269
2.0078125,-0.9411739536288878,0.2755777701786769
2.01171875,1.0640425753951241,-0.2541139403307549
2.015625,-0.4484579365210184,0.09165973573704997
2.01953125,0.5315307114060659,-1.1420935124355829
2.0234375,1.8095221208464976,0.6510225921330227
2.02734375,-0.8365321481764638,0.5681886415716113
2.03125,0.7595071712401165,-0.9442121709888249
2.03515625,1.0331096227656082,-0.9250642732426708
2.0390625,1.4343019763162217,-1.1718621966134195
2.04296875,0.5506716892263743,-1.3516942648978718
2.046875,1.6167057320288583,-1.1601339914013837
2.05078125,-0.6839248360543143,-0.03488319981226252
2.0546875,0.24370299599173173,-0.7917652873161505
2.05859375,1.3952925966973873,1.0029188910563973
2.0625,0.8456589217912458,-1.6164574172825796
2.06640625,-0.5403403371045215,0.1250302332116357
2.0703125,-0.40455983457996475,0.1460601786283921
2.07421875,1.8435925941551892,2.2303670007214964
2.078125,1.6846965668271467,1.1369615845470054
2.08203125,0.0045503425432523205,0.42442942016331625
2.0859375,-0.48593163403085077,0.31420865747488597
2.08984375,0.04869009485851328,1.2166177115596373
2.09375,0.8889181364039838,-0.5633032321817765
2.09765625,0.8180746271048305,1.869445923260717
2.1015625,0.28862550190487957,-1.2579054305701822
2.10546875,-2.1495666024410776,-0.06250686656235392
2.109375,0.16001445628789288,-0.17475532736397825
2.11328125,-0.32641807124095695,0.018072609821124686
2.1171875,-1.1143511876907533,-1.1155784435360812
2.12109375,-0.9512809490467942,-0.3610883101148054
2.125,-2.394334296774554,-0.23748928196102892
2.12890625,0.9278067903352349,-0.5166903737710062
2.1328125,-1.5502162770823882,-1.0331287160898763
2.13671875,0.8169855297823433,1.6798490870910823
2.140625,-0.21688850317174796,-0.38682650375883587
2.14453125,0.34935202722723163,0.23068158264826463
2.1484375,1.0448669696669797,1.605538026758924
2.15234375,-0.2625750086946183,-1.1572388791993353
2.15625,0.11199731612904307,0.6719427928793178
2.16015625,1.6917451716498564,-0.890321790423889
2.1640625,0.6332158004036312,0.3757357495749345
2.16796875,-1.0271467479679899,0.8705932827270969
2.171875,-0.9285875108863162,0.9319945384226286
2.17578125,-0.9519487557685195,1.4903426042649592
2.1796875,-0.5055808748900418,0.7735621267966725
2.18359375,-0.411819694053391,-0.25409315242292385
2.1875,1.5092721002592835,0.724553781162987
2.19140625,0.7594717837490282,0.4284335465325428
2.1953125,-0.14452801527489198,1.8770853006100952
2.19921875,0.22992567300583824,0.6710226208005048
2.203125,-0.20078044014969437,0.963355099757433
2.20703125,-1.1011564222106383,-1.3331850092480555
2.2109375,0.7352926090532982,1.0010550219041914
2.21484375,-0.3032117313946199,0.31086844702255906
2.21875,0.8042643802189553,-0.701401930038561
2.22265625,-0.1299023704815445,0.3609626037017772
2.2265625,-0.7814086525950543,1.8197327407400639
2.23046875,0.7672802616625011,-0.9785747053322144
2.234375,1.5163414756136382,-1.5963859403707095
2.23828125,-0.3259950386312295,-0.3998308416056641
2.2421875,-2.4145586845659697,1.3776878230614549
2.24609375,-0.18573803799818714,-0.7398719419713076
2.25,1.6178188205482176,0.026900409133448946
2.25390625,-1.0101661363572199,0.22545451933047514
2.2578125,0.7424125770971711,0.7444634199294405
2.26171875,0.49897120024638514,1.409360531735358
2.265625,1.5118990575758273,0.48916274878217786
2.26953125,-0.018271626204987432,-1.986572204909863
2.2734375,-0.8949431213405142,1.8954053716433137
2.27734375,0.22627267959813194,0.025198983156072562
2.28125,-0.29332917786943385,-2.1811401354538984
2.28515625,-0.9019910863194686,0.4199425041143339
2.2890625,-0.3496468178094569,-1.2613193278377555
2.29296875,-0.0885122587200296,-1.158537256758296
2.296875,0.28947693324002294,-0.2796850027561866
2.30078125,-1.3660924816218374,-0.46766922522431115
2.3046875,-0.36707410372536753,-0.4771442611485246
2.30859375,0.16011037138331516,-1.3217873428474696
2.3125,0.5098323959627358,0.023746905302134216
2.31640625,-1.8243966641513105,0.26329585586204685
2.3203125,1.1353875173832886,-0.5362679839876217
2.32421875,1.4534669445051622,-0.3444440762420596
2.328125,0.19861993762480815,0.34079112423897395
2.33203125,-1.9274139316191659,-0.7218260329530517
2.3359375,3.2764597041957995,0.30715246059632517
2.33984375,1.926554128564506,-0.2590368663731802
2.34375,0.5407300404827691,-0.3537108330512585
2.34765625,-0.5557920001712159,1.0860035995916408
2.3515625,-1.356811182013233,-2.2698607948158127
2.35546875,1.0650118010746012,1.1366369483907317
2.359375,-1.6301453042443952,-0.548536920178022
2.36328125,1.3359520081975087,1.3484069829239347
2.3671875,0.9452411773449674,-1.5012826021843748
2.37109375,0.1259908676628641,0.799537201990911
2.375,0.8838434308231923,0.25440941730425787
2.37890625,0.10676050374293258,0.741528595710749
2.3828125,0.6525515000794139,-0.5223612564337423
2.38671875,1.0794945561956841,0.11593848350749682
2.390625,0.2391174382933868,-0.5988083075121192
2.39453125,0.571788921299209,-0.7659121080703359
2.3984375,-0.9377060038324868,1.2772029984515272
2.40234375,-1.3960043389198233,-1.691903646829296
2.40625,2.5238123003732613,-1.3195393728281264
2.41015625,-0.04623371493894188,-0.21618130081353054
2.4140625,-0.08433476573161398,1.530688655876641
2.41796875,0.41075599189174544,-0.8468855644219974
2.421875,-0.889480894431351,-0.47017896440439105
2.42578125,0.7189246080512403,-2.439249308636245
2.4296875,0.3467964799132464,-1.5431613146135148
2.43359375,-1.1123608404627117,-1.6456937593701177
2.4375,0.4155798750133861,1.8466958909659277
2.44140625,-0.7701360084695527,0.0034142392793677077
2.4453125,-0.8731278696040187,-0.5650720986195766
2.44921875,-0.545891557000523,-0.44926856186503633
2.453125,-0.3508490293308502,0.12811648336971668
2.45703125,-0.5688583321666555,-0.3739803067414959
2.4609375,-0.9700580400453765,-0.05545046349755325
2.46484375,-0.8841234867978144,0.5714893481902805
2.46875,0.10913000942194105,1.6805906976969955
2.47265625,0.38604172578934376,0.2627290682851213
2.4765625,0.2518226044649923,-0.7400412108297868
2.48046875,-1.2358740317625012,-2.4826749810456774
2.484375,0.839227794419456,-0.06209848274504181
2.48828125,0.37908034590906947,-0.32126043697542433
2.4921875,-0.6125396402231261,1.0338353099334434
2.49609375,1.658586698867678,-1.2210834114953995
2.5,-0.7636454884436588,0.34526924552366317
2.50390625,0.41874098096507933,1.4582333883914247
2.5078125,-0.666590261168397,0.19330012841935532
2.51171875,-0.3913137344583387,-1.3066186562508155
2.515625,-1.339219191324536,0.7568666107687965
2.51953125,0.3698683603070568,1.1987678753906705
2.5234375,-2.4854063608409405,-0.3893758397534256
2.52734375,-1.0863500576325154,-0.09735048658987344
2.53125,1.4943274752775786,-0.6709375381674781
2.53515625,-0.28290789778980935,0.6837793896234865
2.5390625,1.045502243858398,1.2064186642213903
2.54296875,0.1014470759366487,-0.02308809010705459
2.546875,-0.567547974762877,0.11864958329368812
2.55078125,1.6070754435239836,-0.43236759763161936
2.5546875,0.04715419916860397,-0.8219617730343282
2.55859375,-0.07773526064786457,-0.8479005047159338
2.5625,0.9447979801739586,-0.7671360423195048
2.56640625,-1.3713420231725912,-1.3943812401526534
2.5703125,0.14951557893393047,-0.4259546752847236
2.57421875,-0.13026609602997272,-0.570743737219331
2.578125,-0.502134397079014,-0.3096326260749903
2.58203125,-1.9043890898970937,0.7233904409025249
2.5859375,0.7620380228918455,-0.7483459294789382
2.58984375,-0.3410902694456557,-1.288342251879335
2.59375,0.32575234007892984,0.8464156915124289
2.59765625,0.5975806449851042,-0.6453931857511676
2.6015625,-1.5247317168811525,-0.22909778922595092
2.60546875,0.5093034418726125,0.6317273693533335
2.609375,0.3256731764655935,0.7356953807616053
2.61328125,0.5344147079865303,-0.20668494519619576
2.6171875,-0.3276755369022631,0.9287989795517262
2.62109375,-0.07357902328626795,0.023639242123312667
2.625,-1.3179610569096876,-1.358673634108407
2.62890625,3.4015194530052484,-1.218574534954595
2.6328125,-1.276193087501339,-1.0524310306725098
2.63671875,-0.3872309274849673,-0.679326410873568
2.640625,-0.28248881151450816,1.0843960988603032
2.64453125,0.29406723224786213,-0.3718692140899034
2.6484375,0.06038075787281428,0.7526588894563548
2.65234375,-0.8661464165007071,0.12180412126144324
2.65625,0.2887575503721623,0.8943438616601858
2.66015625,-1.306304557758236,-0.388863696585135
2.6640625,-0.23186146831196883,-1.6201037914307976
2.66796875,-0.5603669555530795,1.429978701335244
2.671875,0.3886588367870312,-0.34990574768297905
2.67578125,0.7187548851789939,1.169740795468294
2.6796875,-0.8262880785936306,-0.21191054994603084
2.68359375,1.5702652031574018,0.40417375710221176
2.6875,1.5301381163876606,-0.7118285454502867
2.69140625,-0.005687339009630837,-0.23319205835461593
2.6953125,0.2635789003446633,0.1962526073454953
2.69921875,-0.021907809043903735,-0.6647881833730453
2.703125,-0.01329602673658591,-0.23883321691234377
2.70703125,-1.4670908183227522,0.6598348469607233
2.7109375,-0.7657462033659693,0.8939443572717186
2.71484375,-2.052419089955351,-0.3707221638636836
2.71875,0.5970232000125555,0.13878236188727708
2.72265625,0.9124131767529997,-0.4311198000042158
2.7265625,-1.115716707180021,-0.2054189388173991
2.73046875,-0.048578987777070884,2.0827921711948694
2.734375,0.1733366973473411,0.05502309886462129
2.73828125,-0.3638606998732877,-0.36282835850912915
2.7421875,0.5231844717596925,-0.2193566235344196
2.74609375,1.6878103828167847,-0.5990800853875956
2.75,0.8240881828356906,-2.9143223046385374
2.75390625,-2.1529712115357347,1.2117701010403965
2.7578125,0.16379685071532904,-1.2530853449620298
2.76171875,1.8025638264021377,0.04215626774393921
2.765625,-0.460984720342433,1.150645817275325
2.76953125,0.7638358909890188,0.5482376617257482
2.7734375,-0.18103523483383496,0.6818302204190996
2.77734375,-0.5589723651253811,0.6020473730955812
2.78125,0.6743413506237919,-0.5512643192511364
2.78515625,0.3205710373648104,0.6490384854258887
2.7890625,-1.258308646531333,1.018673769683985
2.79296875,-0.6017165089150682,-1.0869996333795406
2.796875,-0.6146240147719958,-2.1074599648982777
2.80078125,0.5250371790226513,0.46564540515555786
2.8046875,1.076651806287484,0.15604668261282842
2.80859375,-0.07101544200278083,-1.1075805295230692
2.8125,0.09537804664218455,-0.3018912516435979
2.81640625,0.5562694641819839,-0.15094464664091298
2.8203125,0.6837075031423253,1.902148443574566
2.82421875,1.9204876851761317,-0.7220228756564958
2.828125,1.4686161965307551,0.4713979648391506
2.83203125,0.3192318883353488,-0.03478503449440565
2.8359375,0.7537084112405396,0.46409219293171605
2.83984375,1.1034657961925114,-1.4367686485048994
2.84375,-0.3389382583010479,-0.2698707891618834
2.84765625,0.8535895901738839,-0.5115961799001372
2.8515625,-0.3978568184843121,-0.2625227084831913
2.85546875,0.5227787709385747,-0.89230954666847
2.859375,0.2986354243757727,0.48721055577964095
2.86328125,-0.8894405772927154,0.08156455654457331
2.8671875,-0.6474103143530595,-0.3067199974049772
2.87109375,0.0582699407400817,0.4218243381700773
2.875,-1.4344002964466243,0.7374837884589984
2.87890625,-0.048948916592519036,-2.394426097883268
2.8828125,0.13755999413356976,-0.13420919094901454
2.88671875,0.9988774763839195,0.33051302118975256
2.890625,0.5805699087545743,0.05531153652180717
2.89453125,-0.25026211370006246,-0.14980342227502358
2.8984375,-0.5634484344266046,-0.4236864179662721
2.90234375,-0.24500042640029862,-0.2945500720439988
2.90625,1.5513594427902722,-0.2549446056338438
2.91015625,-2.051315626056019,-0.36247123371971185
2.9140625,0.2143382998751815,0.3313478625855406
2.91796875,-2.18541568365518,1.5184735783760481
2.921875,0.9510663023243929,1.720016676524998
2.92578125,-0.049679583823673865,-0.39784720852360006
2.9296875,2.067640972495705,-0.48604873248761526
2.93359375,-0.005612353772601521,0.523563836941865
2.9375,0.33092581685429096,2.136365007665519
2.94140625,-0.8111363506611734,0.12087299734644934
2.9453125,0.027158983106189392,0.3058117835790759
2.94921875,0.8395168156467829,-0.15032199990312295
2.953125,1.1096368676545896,0.6562482602885561
2.95703125,-1.4215531427227228,-0.029849695758925203
2.9609375,1.9532215029350188,0.4147579192492983
2.96484375,-0.6110691633627678,-0.09964702859596064
2.96875,-0.5293688012742891,-0.2783529588040882
2.97265625,-0.14856796091504015,0.32741047586774014
2.9765625,-0.8153282734541518,-0.4413376960816865
2.98046875,0.06645104017036957,-1.0769628630853147
2.984375,-0.33724432705792157,0.1191404470719389
2.98828125,0.5777777771390799,-1.103716810130751
2.9921875,1.762591729353634,-0.7102552215163516
2.99609375,-1.4845427328329035,-0.21068146432473991
3.0,1.0032041292531846,-0.9071227253028464
3.00390625,-0.8451305129921655,1.4538170909445227
3.0078125,0.741909986135421,0.45589976048968106
3.01171875,-0.4486418560680467,-1.1000596151086026
3.015625,-0.43981566595331184,-0.4882444564396377
3.01953125,-1.2461999966814972,-0.25317859982796637
3.0234375,-0.7780726408002915,0.160613283265374
3.02734375,-1.2796642718576972,-0.16383761059067609
3.03125,0.20793579705597273,0.747442049849198
3.03515625,-0.6148730030200046,-0.2936168480333613
3.0390625,0.0807311692811334,-0.10944786402357816
3.04296875,0.02748734547579007,0.15217646587609804
3.046875,-0.13431527147916744,0.47244325073256627
3.05078125,-0.5366144403895317,-2.1616508199902196
3.0546875,-1.0546555462184142,0.7894525768700276
3.05859375,-2.6604997180274585,1.5805825264297382
3.0625,-1.1137396105017412,-1.0038671222249727
3.06640625,-0.024636639150136894,0.45688170252378474
3.0703125,-0.3470913530476461,-0.07788322124986297
3.07421875,0.9112886222711384,0.4225032344287179
3.078125,-1.5491980035828732,0.762103687928041
3.08203125,-0.42925581830662535,-0.6415779410839882
3.0859375,0.9865952204534096,-0.8812918797302878
3.08984375,-0.10474484834897943,2.223822702949535
3.09375,1.0328206416853252,0.3879140186004493
3.09765625,0.9817728491533562,-0.7245669451511815
3.1015625,1.5854141830121913,0.0785195972073222
3.10546875,1.0758370372300514,1.0086278250639145
3.109375,0.6808322366548775,-0.8663007999908038
3.11328125,-0.4388540287115459,0.08284471159568677
3.1171875,-0.22979344592938689,-1.4680256721219622
3.12109375,-0.3235542796322944,-0.4463868158731026
3.125,1.5813285039774272,-1.677657510557603
3.12890625,2.2700767537706743,-1.846343552729871
3.1328125,1.7224209802118695,-0.3962814916337145
3.13671875,-0.7956875504969146,0.16279475831316076
3.140625,0.5443971037675548,-0.3311845280911855
3.14453125,1.1062520850399997,1.3163556666560847
3.1484375,-1.0498879743835046,-0.6914113220793578
3.15234375,-1.1134279350968048,-0.7286472949216487
3.15625,0.05407163279461708,-1.5528658394148862
3.16015625,-0.8496922322824748,-0.1482975673326169
3.1640625,0.014471505934627418,-1.2186357148467002
3.16796875,-1.6105708416195645,-1.2258839391113319
3.171875,0.4935026582053953,-0.6897079940991807
3.17578125,-0.6600476322333455,-1.0921688301306525
3.1796875,0.8321284176266218,0.1556556300115861
3.18359375,-1.6291832302362446,-2.1788855538419565
3.1875,-0.04028136284729616,0.12453831055662995
3.19140625,1.7826064925489549,0.3912778356507012
3.1953125,0.1168293648224548,-1.3024050641566327
3.19921875,-0.899489519027887,-0.5367786370437999
3.203125,0.5426709697940366,0.6710522317366233
3.20703125,1.5141891174566235,0.13986570560444572
3.2109375,-0.2959051646942503,0.4238288655566234
3.21484375,0.6477863052289358,-0.736706413533694
3.21875,1.4115910597696177,0.46595824258037355
3.22265625,0.46446583446138096,-0.2861417746466436
3.2265625,-1.2850416463001015,0.16894975102589868
3.23046875,-0.3310100124455965,-0.3152334151861864
3.234375,2.149656076977731,-0.06043699869007271
3.23828125,-2.5096878435778307,0.8408814707613318
3.2421875,-0.1400128508615383,0.5304057416067413
3.24609375,-2.816646406150646,0.27538386708691986
3.25,-1.3155517622322812,0.4241214808100359
3.25390625,-1.4687551166089239,-0.397047117126634
3.2578125,-0.5116919433208208,-1.4596923733668918
3.26171875,-0.6420080845069744,-0.5911719056034868
3.265625,-0.8421920905169668,1.489065118917962
3.26953125,1.7772714460160048,-0.4074543754081591
3.2734375,0.22844267219314301,-1.2604697460389596
3.27734375,2.5989545248755794,0.703728522995528
3.28125,-0.501069989761494,1.8111451708464286
3.28515625,-0.7411489235340784,-1.3047654666101918
3.2890625,0.9508868742973121,-1.754009398139817
3.29296875,1.1981553836866272,0.13390759055807708
3.296875,1.5507959533594404,0.07240150117881976
3.30078125,0.5642179453320297,-0.43922418906955946
3.3046875,-0.2410859768352987,1.0189026004226822
3.30859375,0.0016803581265963043,-0.6543269109289702
3.3125,-1.1391915590038177,0.18882558847584482
3.31640625,0.2678327493190293,0.5281521452250143
3.3203125,1.281588127308894,0.17919054168615492
3.32421875,-0.6326512391374278,1.2461627389886445
3.328125,-2.5395007903288995,1.5399216901294188
3.33203125,-0.9512901033575573,-0.6536927289859601
3.3359375,0.48260243859232255,-1.0596235963774552
3.33984375,-0.9427381564319949,-0.20978532375326903
3.34375,-0.42507466872888994,0.8860463596619739
3.34765625,-0.892504158414643,0.5955441519991598
3.3515625,0.8185596608259097,1.1237614712011712
3.35546875,0.34667334302314307,1.1038871082399675
3.359375,-0.2466139911637137,0.8091271643075475
3.36328125,0.6693618925654514,0.7047156382161994
3.3671875,-1.3512782312934881,0.16681503324335886
3.37109375,0.32130272738085713,0.21998145585619933
3.375,1.3678874937949608,-1.1446013064152383
3.37890625,0.8387595746488751,1.1336114611388128
3.3828125,-1.573057033605228,-1.0138652424208314
3.38671875,-0.34777166973597573,-0.7275453453059398
3.390625,-1.063255732734761,-0.5747769597966512
3.39453125,1.565274906622576,-0.6438916193035683
3.3984375,-1.151889572563612,-0.9705425729901024
3.40234375,0.9185268473454276,-2.1068249368570786
3.40625,0.5499163284966055,-0.2793683548533919
3.41015625,0.4072712386969944,-2.430858637795367
3.4140625,-0.34942705085507636,-0.9215979361321939
3.41796875,1.4062251293084194,0.5409679311156946
3.421875,-0.86383650460022,-1.4000867181865198
3.42578125,-0.32751866280321973,0.33957705383813636
3.4296875,0.7779781601052933,-0.480741919597064
3.43359375,0.16112474745841207,-0.5809672099585435
3.4375,0.3074600193653983,-0.3510048364426399
3.44140625,0.23288226066616302,-0.43337211832257055
3.4453125,-1.2589141814701343,0.9628736738271608
3.44921875,0.9233284231004305,0.8980459251510915
3.453125,-0.2930567213875286,-0.9146646941519457
3.45703125,-2.680242625763486,-0.003865195541117369
3.4609375,-0.6791905635787796,-0.5241593925455232
3.46484375,1.1034978996786602,0.699437132231799
3.46875,1.233526042621559,-0.09592453487861319
3.47265625,1.2444187647831226,0.13253445589577204
3.4765625,-0.35792745853488056,-0.28604262457104507
3.48046875,0.6759669037356529,-0.9496902120663651
3.484375,-0.517369783985351,1.5064741254270906
3.48828125,-1.9220155446906393,0.9230654998572281
3.4921875,-0.12387320820880557,-0.2257846251976625
3.49609375,-0.9986141412282985,0.001878156208989776
3.5,0.7554920950312847,-0.7344509344791913
3.50390625,-1.3938892832619472,1.119595085359181
3.5078125,-1.6654322418789071,-0.6741250801001235
3.51171875,-0.5177376948035245,1.306204747675588
3.515625,0.08074379769287135,-0.9846313749124559
3.51953125,1.7216696739775108,0.528325531764944
3.5234375,-0.8502614277504978,-0.24196906389889217
3.52734375,-1.2040981052822382,0.5404038007171461
3.53125,-1.8671784922448416,1.4948324830934254
3.53515625,-0.057990116244718615,-1.242343386025319
3.5390625,0.35509031592339074,0.007629736899172515
3.54296875,-0.9052325956723384,1.7210242543846264
3.546875,0.31529239464814185,-0.13755494625632234
3.55078125,2.7622834351538956,0.2614048808988911
3.5546875,-0.4892209302769014,-0.6539964565272519
3.55859375,-0.3968195924962229,-0.6792382194155179
3.5625,-0.7392396078967578,1.224127907142297
3.56640625,-0.9624828219301895,0.45960040130839175
3.5703125,-0.7138281344451518,0.43254282586293175
3.57421875,2.365256616585178,-0.6737217375275166
3.578125,1.4232099953877155,-0.10724389758391155
3.58203125,-0.5728076741621644,0.6582135024322459
3.5859375,-0.02515451805249093,0.18213174024373055
3.58984375,0.9457456552635819,-1.593630857436874
3.59375,-1.2179080321361784,1.3169076160696622
3.59765625,-0.7223039328608,-0.44856682950373883
3.6015625,1.0319328200123543,0.21594061408889811
3.60546875,0.34775665399667866,-1.0331737152326315
3.609375,1.5867426662864414,0.1764009199095424
3.61328125,-0.11829670745440499,1.2216074803063972
3.6171875,0.9258664672028734,0.2692963690280482
3.62109375,1.8851060806940203,-0.12026315986635239
3.625,0.9211054611778386,-0.5840610986423663
3.62890625,1.626363923544419,0.013786508745407867
3.6328125,0.3300779183309547,0.023099559888851626
3.63671875,0.046438406514002786,0.19332180296719956
3.640625,1.7468448196663615,-2.185343894813109
3.64453125,0.323381521182367,0.7649010799424614
3.6484375,-0.31003111968078184,0.29203694086931625
3.65234375,-0.09822078500987172,0.347709311909936
3.65625,0.09919949110173322,1.201882575572841
3.66015625,-0.3571543116217275,0.9000341325907816
3.6640625,-2.056073778797881,-0.7015704918704884
3.66796875,1.3861736929640587,1.7161246859228398
3.671875,1.3852376458336424,-1.5421361553389779
3.67578125,-0.962991396947461,-0.859087793516313
3.6796875,-1.1568713304556715,2.3163489676629143
3.68359375,-1.0449535656887523,-0.7857369416246837
3.6875,-0.331715446964567,-1.1764625588428794
3.69140625,-0.7894868083103939,-0.3778241565129929
3.6953125,1.436204091797056,1.586516639057466
3.69921875,-1.7429876508253679,2.1968710399169264
3.703125,-1.4216921147246764,-1.7673705784115408
3.70703125,0.6017591835773017,-0.5057129456299801
3.7109375,1.8688613021103335,0.017476760971593466
3.71484375,-0.4113656224442087,-1.5638038187624428
3.71875,1.2416226144601186,-1.109366226665051
3.72265625,-2.0844745672224727,1.1418861946996688
3.7265625,-0.05345730483913904,0.42610181191398333
3.73046875,0.7679100952174389,0.2036792358424692
3.734375,-0.9460080874805873,2.0164253983985656
3.73828125,-0.27765973371184516,0.7168966672054721
3.7421875,-0.3211423326530946,-0.07778253193750613
3.74609375,-2.284313365614172,0.11678547616530743
3.75,-0.8047502130576665,-0.27641467209518483
3.75390625,0.5528641889044579,1.4302115187262965
3.7578125,-0.47341225747752974,0.4082388622896691
3.76171875,-0.5231220434159727,-1.008669085723667
3.765625,0.990998970962631,-0.42044018462201777
3.76953125,-0.6471055885042342,0.6321755211970728
3.7734375,0.8401256415466936,-0.23353939561183357
3.77734375,0.6859604933239635,-0.9190333272086956
3.78125,0.6656672268118972,-0.4975985384155345
3.78515625,0.9022036168062906,0.30923507552602253
3.7890625,-2.322654805721123,1.258658429626635
3.79296875,1.2783271304818182,1.0789926184047898
3.796875,0.438126270169842,-0.35418441312722243
3.80078125,-0.3133861608936769,-0.19010159111169037
3.8046875,-0.38528498568244873,-1.0159541442949156
3.80859375,-0.6084957763663217,-0.3249007278255526
3.8125,1.1315446722451725,1.8612818158115518
3.81640625,-0.8824917165940994,-0.09966158959949957
3.8203125,-0.843263802537658,-0.0020288399059212
3.82421875,-1.0185796888895253,-0.33276897015527646
3.828125,-0.49909256636504956,-0.6676887224900344
3.83203125,-0.3542593681303692,0.32871345949196273
3.8359375,1.1661889240933305,-1.1012410026823374
3.83984375,0.7435469676776376,0.19076108250027127
3.84375,-0.5909623334357346,-0.38239986560578304
3.84765625,-0.09163552991327212,0.5481340225700261
3.8515625,-0.2355949036017835,-0.5573736990880251
3.85546875,-2.211358726029717,1.387882191458302
3.859375,0.04508657153860105,0.6072623472694886
3.86328125,0.544946629636987,-1.0072223728909087
3.8671875,1.7388770562389066,-0.7270962137095389
3.87109375,1.0290267614861388,-0.8081288819397245
3.875,1.1081207846541037,0.08864311891909478
3.87890625,-0.05366423476686371,1.2221674433846454
3.8828125,0.35179014823783267,0.11983935185508285
3.88671875,-0.09186261384966814,-0.14254333794100424
3.890625,-0.6307566422908476,1.2000322429391526
3.89453125,0.15235611491244344,1.9359495051278162
3.8984375,-0.0961502386296405,-0.6074620528401599
3.90234375,0.3995052003502871,-0.2630368882207375
3.90625,2.280082718363415,-1.2838149175124802
3.91015625,1.0019928663201596,1.6253084276489378
3.9140625,-0.2410331044364399,1.3729855623052354
3.91796875,0.7376045912190903,-1.0591674403588829
3.921875,-0.4314466423457144,2.2500656993356114
3.92578125,0.20350414743515088,0.6982987267330637
3.9296875,0.648324469032551,-1.4224576083052565
3.93359375,-2.8596962652290676,-0.8939047284094956
3.9375,-0.3495875332528179,1.0784665848562316
3.94140625,0.6580066291356229,0.46721992885369873
3.9453125,-1.4258451201895288,0.8500499342583543
3.94921875,-0.09205923953588903,0.5464570643360088
3.953125,-0.4705210915535631,1.482369312379759
3.95703125,0.9512548681392601,0.37607847508217823
3.9609375,0.6446920701313406,-1.443449286358357
3.96484375,-1.0529051341829339,1.4094224534255468
3.96875,-0.6538017276521424,0.2776864550640578
3.97265625,0.6568006266115848,-1.919831169653341
3.9765625,0.05112029152828464,1.0818285183720973
3.98046875,-0.77166466296111,1.1895684597413667
3.984375,-0.8491192930152226,0.03743439283163568
3.98828125,0.8642250893574951,-1.4844701491852244
3.9921875,0.779392782800521,-0.19379802435680754
3.99609375,0.43369673344052045,1.00596800026591
4.0,-2.0967939301062333,-1.335717172851917
4.00390625,-0.0980286132681309,-0.6297554886002353
4.0078125,-2.2561210326855927,0.30521277777803446
4.01171875,-0.2756970133277307,-1.6081050808959536
4.015625,-1.4266297315629195,0.4267868354908144
4.01953125,-0.09390503694055662,0.37215871604409456
4.0234375,-0.3835321168892636,1.0013642502530442
4.02734375,-0.7200817276317926,0.8113590138162713
4.03125,-1.0250694745014741,0.06407253388166043
4.03515625,2.203039001978884,2.3079665051125646
4.0390625,-0.27185191593669705,-0.5582410238282653
4.04296875,-0.790523261671983,0.4612573635521122
4.046875,0.121350272887078,1.2485057272791091
4.05078125,0.6685751456129428,-1.1404165519285014
4.0546875,-0.10713780308451423,-0.647801132622743
4.05859375,-0.928267485924261,-0.7118760016114368
4.0625,1.6952383231146524,1.8798119814940006
4.06640625,-0.6575578038559554,0.29826526109054197
4.0703125,-0.7071456232919511,0.15463550206336923
4.07421875,-1.341239955430613,1.4642141222335339
4.078125,1.460770349884817,0.19338403751068964
4.08203125,-0.9990477287063886,0.46939960642932743
4.0859375,1.4117173212998184,1.3129553692014748
4.08984375,-0.7648526192219937,0.6863536700635386
4.09375,1.1506885659777564,-0.6917371446757355
4.09765625,-0.4783427097664237,-0.08867596407665158
4.1015625,-1.1202207806653313,-0.04193542223213937
4.10546875,1.3247770945087365,0.11329432515802218
4.109375,-1.3493130872475498,0.6912581909634401
4.11328125,0.21187876699849348,0.42543370986853873
4.1171875,0.8420501613880683,1.7703393647613752
4.12109375,0.24042118252526784,-0.3569521285818218
4.125,0.6778783442799255,-1.327004965054054
4.12890625,0.3059932740429546,0.44067937567721177
4.1328125,1.5239144737854875,0.7830236798718955
4.13671875,-1.6482426137949846,-0.6361484928373304
4.140625,-0.6370492524077007,0.6383619260966281
4.14453125,-0.14545289112602405,1.9139631366364684
4.1484375,-0.3113899655423792,0.31341528195255003
4.15234375,1.9686065768235126,0.058273571283706645
4.15625,1.981581767034377,0.3988311514049357
4.16015625,-0.14465219410182464,-1.927709702962769
4.1640625,-0.8159686599947618,-1.210924448156757
4.16796875,-1.1795363944649249,-0.689694370107881
4.171875,0.8936943577000324,1.674694136874061
4.17578125,0.42817170572483493,1.4975928887472179
4.1796875,-0.2928325024643459,-0.8331160291856992
4.18359375,-0.5585923375737002,-0.9819769545837106
4.1875,1.7041242902450688,0.5312534631155289
4.19140625,0.7947419562847303,-0.08654062839602357
4.1953125,1.3177327730650328,0.813205648479653
4.19921875,0.7178928127967311,0.37222315616036505
4.203125,0.4184134463041221,-0.2702062308164993
4.20703125,-0.14996333768260453,1.9495468438455752
4.2109375,0.3836743021466118,0.7073359482191984
4.21484375,-0.020127276254650366,0.36204871926361665
4.21875,0.5414444207670991,-0.1397473448054408
4.22265625,-0.0022549210915308424,-0.09764812787787716
4.2265625,-0.9091174681198461,0.27561804798496126
4.23046875,0.03445816553173151,0.5728308178827105
4.234375,1.6537105242023822,0.05724485012901662
4.23828125,-1.169477307531575,1.2823551530763555
4.2421875,2.627550057855372,1.1308927192697145
4.24609375,1.7914473071212114,1.2237819857463936
4.25,-0.23779731099635446,-1.6649404855160244
4.25390625,0.6071136590018626,0.34848748526757345
4.2578125,-0.20571201213044438,-0.30190286752697093
4.26171875,0.6839353449239333,-0.1675059967746255
4.265625,0.2677483987161771,1.8431050450440394
4.26953125,-1.8164577711116987,-0.28314469514434043
4.2734375,0.6518759849579484,-0.6048156554808473
4.27734375,0.7861123486828739,0.9275799475432013
4.28125,1.0471968037479016,-1.094372630464646
4.28515625,0.8601386223271957,0.4058578375279462
4.2890625,-0.5689075022051272,-0.6240698145597127
4.29296875,-2.3152361838658337,1.3669934304398694
4.296875,-0.8378182276034815,-0.18833699189526568
4.30078125,0.17726814835042254,-0.035321580870565826
4.3046875,-0.7298720665020525,-2.3291490970086963
4.30859375,0.10927732592854976,0.4261034516883593
4.3125,-0.3917367729886125,-0.04211003857261048
4.31640625,0.7419091863080107,-0.026466980990243347
4.3203125,1.3688435045565164,-1.786383642621496
4.32421875,-0.24371814106356982,0.8975026838425172
4.328125,0.8515850317024887,1.705736489025208
4.33203125,-0.16725048404444162,-0.6526861337308888
4.3359375,1.031074487211435,0.13384448065734875
4.33984375,0.6114033121569334,-0.5463264548762695
4.34375,-0.9085296330831695,0.9580084356017151
4.34765625,-0.3856567280856284,0.9920323371802119
4.3515625,0.6338781083264114,0.9924943597161492
4.35546875,-1.1413718136908766,0.9417544816077564
4.359375,1.0290063968130638,-0.06547859180639692
4.36328125,1.3397423329226748,0.126935637515125
4.3671875,-0.9671740133835567,0.024020679985907185
4.37109375,-0.08748485250135167,-1.7471798592567755
4.375,-0.7270849017102581,-1.037981902988544
4.37890625,-0.03372721608428373,0.7339540117147216
4.3828125,0.6252387592618299,-3.0472364013481723
4.38671875,0.5514194337842847,-0.8095636809997724
4.390625,-2.78904421524584,-0.11029089784884409
4.39453125,0.6192400733171,0.578700859761076
4.3984375,1.3803060419935453,-0.4747882178241932
4.40234375,0.2474129341935411,0.7038211210037598
4.40625,0.44196329476996155,2.205280794284929
4.41015625,0.5077787333893028,0.018802659809108103
4.4140625,2.3520037623393906,-0.5105869495361753
4.41796875,-0.8224589966500098,-0.20122591390483083
4.421875,-1.4875847120583139,0.18119216791989412
4.42578125,-1.1692491801186133,-1.0699664906909576
4.4296875,0.6344833276853132,-0.11888548910813118
4.43359375,-1.4938113263392025,0.7646883638401766
4.4375,0.6981791251404198,0.011170758091115125
4.44140625,0.9173969753424931,0.6951441532422866
4.4453125,0.9721864784067105,0.6105878789186657
4.44921875,0.728603511923569,0.2726413219331315
4.453125,0.3629692083260772,-0.34772136727538
4.45703125,0.13289315892627798,-0.846417027654776
4.4609375,0.5771538771939082,-0.39349379184432237
4.46484375,-1.2757269708160102,0.35438014701225046
4.46875,-0.753392000086183,0.6042674638797589
4.47265625,0.9969099222033152,2.55557350508534
4.4765625,0.41556327246816505,-1.087980563684528
4.48046875,0.8431201877449969,0.8579560830009357
4.484375,-0.4721355027693681,0.38616413517254805
4.48828125,-0.6392843221869511,-1.3135371671971914
4.4921875,-0.24862266453406753,-0.46902313695959863
4.49609375,-0.6355319676116259,-1.2564794180605772
4.5,-1.139308906324123,0.9276373231858184
4.50390625,1.9061091287028542,-2.1564736471495776
4.5078125,1.3140034238006197,0.4505610302044512
4.51171875,-2.233333167818193,1.1762287318788047
4.515625,-1.4522221652741139,-0.8246474506308915
4.51953125,0.4539877813289754,-0.12444271707165046
4.5234375,-0.36658913064927195,-0.5442435990369973
4.52734375,-0.533185573625917,-0.20426252724145672
4.53125,0.5234599332264812,0.2517746148349617
4.53515625,0.3999125508726303,0.6377789815269203
4.5390625,-1.6307376149099155,0.6230879459516047
4.54296875,0.4602487100912791,0.9761099326526842
4.546875,-0.2590968643487278,0.581248343004859
4.55078125,1.4908547892207094,-0.31170815199975116
4.5546875,-0.003935898648145207,-0.6343138721705368
4.55859375,-0.05635904545374343,-1.0786621699004246
4.5625,-0.9440365786794345,0.11257218770521045
4.56640625,0.7723229674066623,-0.2501526274408963
4.5703125,0.07714561150862922,0.33133746778828727
4.57421875,0.038546437560860417,-0.453491961318927
4.578125,1.470466844025805,-1.4108005976110598
4.58203125,-0.02419009796996322,0.7987373157060289
4.5859375,0.590411941275094,-0.6289027983527011
4.58984375,0.7610070701554861,0.8575249488699715
4.59375,-1.5375543984444833,0.058405155908603006
4.59765625,0.15921936063575298,-0.6907661825677975
4.6015625,-0.08268204283324268,-0.6575312047786359
4.60546875,1.390390910982911,-1.5413366065288974
4.609375,-2.0063799681920043,0.6401893580620748
4.61328125,1.1584397131675321,-1.8732437079231674
4.6171875,-0.32245557030053296,0.740277326716303
4.62109375,2.1896996841838856,-0.31594410973216036
4.625,-1.384237258907607,-1.2077655354527728
4.62890625,-0.3688816658510673,-1.2897939802142044
4.6328125,-0.9135852517474863,0.29049998498890683
4.63671875,-1.4438492325817378,1.2141469908722278
4.640625,-1.2608405165441385,0.0610976580006294
4.64453125,-0.38404768690118485,-1.6334615988960994
4.6484375,1.1511944082662788,0.8622863228184794
4.65234375,0.042198031694552926,1.8360001315258467
4.65625,-0.5932820208509639,1.574496345544762
4.66015625,1.14111001218889,0.8445255952162943
4.6640625,-1.1879753312516395,0.6005822596037443
4.66796875,1.2410804175387833,-2.6130909587362527
4.671875,0.6083141128792825,0.6835469153474203
4.67578125,-0.88448085956505,1.8392543695541819
4.6796875,2.4584103896704725,0.3368699313087725
4.68359375,-2.114508178667314,-0.9134226539402099
4.6875,-1.1220042258529614,1.1401834570834777
4.69140625,-1.1805070741090502,0.38860237922232366
4.6953125,-1.1528217367994265,0.029673737574457102
4.69921875,-0.14014379337863084,0.2690039951399208
4.703125,-1.1005548522745292,0.16232174545757005
4.70703125,0.0547323671206908,-0.0007956336460273516
4.7109375,-1.2174610062903417,0.47674528654940684
4.71484375,0.14763923916684898,-0.2756235848149517
4.71875,-1.4166210690616932,0.44227526880606666
4.72265625,0.11693092930802529,0.533875533155789
4.7265625,-0.3595710635713698,0.8985316834828839
4.73046875,1.3901051263545692,-2.9486079064120143
4.734375,-0.32103754209260715,-1.480165719383444
4.73828125,-0.8143937091869333,0.16682612042506328
4.7421875,0.9018237090592263,1.9788538362930015
4.74609375,-1.4582706505423513,-0.45125807207795715
4.75,0.8931207219449033,1.1532810471051775
4.75390625,0.6919529884790079,-1.04267745054297
4.7578125,0.7741028655624501,0.27524193554617726
4.76171875,-0.768969873817552,-0.6784656619597637
4.765625,0.47379763749770304,1.9425308730288424
4.76953125,0.534600832234863,-0.9357038659604594
4.7734375,0.7042622365927459,-0.9496896748840549
4.77734375,0.7110607055381692,1.5956179912445605
4.78125,-0.9947518306924114,0.4230488532669776
4.78515625,1.566930443638816,-0.01001900584184172
4.7890625,-0.57148567528339,0.23196716784630744
4.79296875,-0.7101621071513706,1.2549683500998698
4.796875,-1.221212551261573,-0.15719706962145558
4.80078125,-1.4867640978409944,0.785105191901427
4.8046875,-0.12505852415723837,1.7875449865056419
4.80859375,0.5686988196175728,-0.6832362687901692
4.8125,1.7284030319839843,-1.2867094036122195
4.81640625,0.2130049262915152,1.9196506776013968
4.8203125,-1.1358236979802008,0.628926912530325
4.82421875,0.5627387067372907,-0.5860405292684755
4.828125,1.5784927613082989,0.5612337653713577
4.83203125,0.7230992634740999,1.0503374636741347
4.8359375,-1.5786406160770334,-1.4310690332327454
4.83984375,0.5738963184955296,0.3100415740367201
4.84375,-0.12898695566418644,1.0362436639149608
4.84765625,-0.14340926659666522,0.3492095059279676
4.8515625,-0.8218512640227866,-0.0792763797915363
4.85546875,-1.2264107442705043,-1.9803754438262178
4.859375,0.9268192626508243,0.9546397105156832
4.86328125,0.18629994781709153,0.9923922625933926
4.8671875,0.22632394188027724,-1.0335704633280338
4.87109375,-0.7357501495608721,0.35699661791282494
4.875,-0.6821182679691931,-0.1251969323018211
4.87890625,0.6468531160152386,-0.9076129853989879
4.8828125,-0.08418832911892589,0.43337554178481297
4.88671875,2.12526610678491,-0.7655552033627271
4.890625,1.4812798482778244,0.36150638777987165
4.89453125,0.28274202337137644,-0.8319432727853651
4.8984375,0.3484773398064044,-0.3331172892217402
4.90234375,1.9792528518528585,-2.1699697291430433
4.90625,-0.6358642585520888,0.14456861640078683
4.91015625,0.9996576678454191,-2.7021949180138396
4.9140625,-0.5263783041430466,-0.138885356979985
4.91796875,-0.4595249973778295,1.1490731057130337
4.921875,0.180070536197936,-0.03282215644242923
4.92578125,1.293043421146734,-0.5834118624281518
4.9296875,1.0311135107775153,0.9487748019410521
4.93359375,-0.37623285306645265,0.7410396088050033
4.9375,-0.04327358266708185,0.8231414371035223
4.94140625,-1.0847919374154336,-0.48474984629210016
4.9453125,-0.5997956858256254,-1.1517441613098387
4.94921875,-0.7862912488230963,0.025119543245845127
4.953125,0.5797900752088081,3.870078815408395
4.95703125,-0.9554855055789405,0.6649200148699131
4.9609375,0.8059325107120622,0.7775439209572722
4.96484375,-0.39149980940913515,-1.4143924762590792
4.96875,0.715850850661924,-0.5372134823919418
4.97265625,0.22732898339707652,0.0054265583144787275
4.9765625,1.4097857018109807,0.1729618101667375
4.98046875,-0.6300568582654323,0.34930606728691516
4.984375,0.562129592660223,2.5840140337746926
4.98828125,-0.1472310845128783,-0.27962353902763754
4.9921875,1.2110141915955415,-2.26513944082732
4.99609375,-1.123875119517681,-0.7194189846169194
5.0,-0.8530432688814725,0.31522163086211086
5.00390625,1.4371670696539793,0.8755014636506291
5.0078125,-0.7065945308073273,0.42343628402401023
5.01171875,1.851517173470817,1.405447953120068
5.015625,2.524525239680013,0.6917533991698211
5.01953125,0.11649900433685659,1.2525555601906975
5.0234375,-1.164921896539687,-0.43867782441167746
5.02734375,-0.20539095539225405,-0.26140137241078465
5.03125,0.9491396212887064,-1.2201755548418134
5.03515625,0.2959440434943634,-0.18138080768005907
5.0390625,0.24794352234065586,0.10544185359268393
5.04296875,1.5252500696966527,-0.08401701074378182
5.046875,-1.3938902097900503,1.1727211027772588
5.05078125,-0.8095570890132157,-1.832165274969507
5.0546875,-2.180036744682888,-1.641193198016162
5.05859375,0.2423178429927815,0.13135867202022822
5.0625,0.7049833456461914,-0.49334690936360226
5.06640625,1.1510308523422264,-0.1659923770039456
5.0703125,-0.9512647846250586,0.6399728613890704
5.07421875,0.4135214477669706,2.2866674465493393
5.078125,0.7660509810436492,-0.02056623322609034
5.08203125,1.6198063728644236,0.40346438497657916
5.0859375,0.28892613647820364,0.48313602438836417
5.08984375,-1.4657987307057145,0.45443770234280095
5.09375,0.5457875034705405,-1.8962887754833107
5.09765625,0.451046530534161,2.0831626402887764
5.1015625,0.8547090438221266,-0.9953418348629153
5.10546875,0.8108925192155272,0.6715898448493928
5.109375,0.19274282216772137,1.3984507782534037
5.11328125,-0.9143346654010548,-1.392239371691634
5.1171875,-0.47070661489952564,0.3575725188484952
5.12109375,1.3841236659458187,0.940682718479746
5.125,0.07872323610307005,-1.256042927038841
5.12890625,0.2867569175511117,0.4731620798261591
5.1328125,0.2687797303766269,0.6217399231502719
5.13671875,-0.39063900015970604,0.7402436799393181
5.140625,0.08395022773761927,0.20892187887431948
5.14453125,1.5430549792433668,-1.964856244914863
5.1484375,-0.5085563053981833,0.3483222678187474
5.15234375,0.08418371167060414,-2.7425829256658973
5.15625,1.6156312323322117,0.02176097238832536
5.16015625,-0.6197946958054046,0.4015050644409721
5.1640625,1.1564055632277326,-0.5892707854889957
5.16796875,-0.3977571883676653,-0.4160517806215602
5.171875,0.05891998365309556,2.43563623091044
5.17578125,1.834308632187713,0.040406029836764105
5.1796875,-0.5726439650445085,-0.18973371640120876
5.18359375,-0.12676678677138645,-0.5985025053517599
5.1875,-0.6272281709794887,0.25736343965998426
5.19140625,0.4335614078080615,-0.9161129969931359
5.1953125,0.036745534279497255,0.11825711782540742
5.19921875,0.5223011547892525,0.3965658545739793
5.203125,0.2685623344890873,-0.6459386461553464
5.20703125,-0.5466915903366636,-0.14087259828978005
5.2109375,0.09125065047265389,-1.9218921582833501
5.21484375,-0.6468450494585744,-0.75874433869104
5.21875,-0.6577534882462855,-1.5474555776684982
5.22265625,0.28690969486591383,0.7187994824804191
5.2265625,0.1679890319029863,1.0629567274680665
5.23046875,0.6677528675706341,1.2593259244318882
5.234375,0.8872778410798172,0.47004294891094806
5.23828125,0.1337202295399176,-0.4347796147510233
5.2421875,1.6344571963184824,-1.1152518325006646
5.24609375,-1.5481023865093801,0.1575615740084592
5.25,-0.029951775000276456,0.8887119323524292
5.25390625,1.838717999604493,-1.767678631459937
5.2578125,-0.2239790183175167,0.8336333304814155
5.26171875,0.30867039921523043,0.5348277535212616
5.265625,-1.5751103342975967,-0.2455668632655905
5.26953125,2.1403033153455517,0.33516258914868935
5.2734375,-0.47313562360430356,0.71048979847816
5.27734375,0.7448436025143392,-0.36876858117835476
5.28125,-1.5539550847997188,-0.7580806860962368
5.28515625,0.36589353767637944,-1.1139952076408823
5.2890625,0.6621315217056853,-1.1846660917402216
5.29296875,-0.28045294271668697,0.9814081190504891
5.296875,-0.18308903635858603,0.7960894833707617
5.30078125,-1.6194436524096816,-1.1719344367806857
5.3046875,-0.30926628115847343,-0.04222234909650187
5.30859375,-0.1250583925967515,1.5428766209418405
5.3125,-0.1631120895705479,0.5184920924724007
5.31640625,-0.10104216392930807,-0.6733840027426901
5.3203125,-1.0142658829880318,-0.17962202957492912
5.32421875,-0.9553785060253578,-0.7600349148275805
5.328125,-1.5862711253335675,-0.43337951202290936
5.33203125,-0.033642097792604506,-1.4058443250637713
5.3359375,-0.05596084456416816,1.0856706642242349
5.33984375,0.10993221651427236,1.7889134351597062
5.34375,-1.494095636944956,-1.1447691631140589
5.34765625,1.5215544217710397,-0.5480265021391483
5.3515625,0.15014093909416082,-0.01964222147940097
5.35546875,-0.8029203627611485,-1.1588581186648577
5.359375,-0.07586443091250783,-1.0829857340856355
5.36328125,-0.19488328537102587,0.19049850606807056
5.3671875,1.4436459736915228,1.6159811911157935
5.37109375,-0.2748135760318713,0.7937818693975718
5.375,0.6727119641687943,2.106358885577743
5.37890625,-1.6604324244926276,-0.05921802753435141
5.3828125,0.6288062427896822,-0.9057720949720852
5.38671875,-0.6656733772201997,1.2753817351037082
5.390625,-0.32443176947713187,-1.090985366314126
5.39453125,0.9891168302770865,-0.16041542806831863
5.3984375,0.056687920241582174,0.308370139819622
5.40234375,1.0319057094377855,1.7390081051779154
5.40625,0.41423020578962494,-0.22308922614751955
5.41015625,2.036893922200812,-0.14158481177298182
5.4140625,0.3381298156284031,2.1291945930867904
5.41796875,0.8476874256201514,0.6549133124643649
5.421875,-1.0613480697914486,-0.9103830345900586
5.42578125,-0.24314627545824605,-1.3522994102863621
5.4296875,1.6524976833189988,1.2393413725014855
5.43359375,-0.39145394004198425,2.1647188904370025
5.4375,0.9150611493113907,-1.0182128833079485
5.44140625,-0.8244745811107247,-0.9113965573930369
5.4453125,-1.6712352697424235,-0.6982675821425377
5.44921875,-0.8769541786643253,-0.11452315072991132
5.453125,-0.6356454831228984,-0.07976697059323333
5.45703125,0.11422397706681027,0.42453820072277365
5.4609375,0.6952810220936049,0.5060571244170301
5.46484375,1.8286124317841954,-1.0092058604276621
5.46875,1.9895811787935131,-2.7502490613391886
5.47265625,-0.4411523202338906,-0.6303158352924224
5.4765625,-1.8168181031940944,1.8921534208800814
5.48046875,0.6289751096418611,-0.4400955525831073
5.484375,1.7465828649451656,-2.340103894703261
5.48828125,-1.16610302937152,-2.158403753565789
5.4921875,0.2672502202792744,-1.9789751650852356
5.49609375,-0.2615036216871326,-0.5500861531055722
5.5,0.8931908015287457,0.3422538296000407
5.50390625,1.3265506903187119,-0.39143234467360355
5.5078125,0.44784070275878946,0.28916514582463326
5.51171875,-2.5691102944345383,-1.6451850901573946
5.515625,-1.6273563116643406,0.6360622392429024
5.51953125,1.1389004593436896,-0.34209598274939895
5.5234375,-1.9063618144686012,-0.26335167850786406
5.52734375,-1.9332957885801743,-0.5378142339062177
5.53125,1.5744669049902558,-0.056191777437960284
5.53515625,-2.6626990337702496,-0.2792679044868829
5.5390625,-0.4870472906587033,1.5301088157664755
5.54296875,0.02361201718244454,0.07959439179470983
5.546875,1.037778645689951,0.9365310966194978
5.55078125,0.9125517210997232,0.8727975443232344
5.5546875,-0.7902731499546938,-1.3046892930540008
5.55859375,-0.28860889827722863,-1.9589040038160455
5.5625,-0.308330097653885,-2.42923846061666
5.56640625,0.2176285159534348,-0.10951421798904497
5.5703125,-0.3344087026548096,-0.009454553090381037
5.57421875,1.5104322981106044,-0.04584555788450132
5.578125,-0.8745116910133738,1.3426209528554296
5.58203125,-1.9312993477529676,-0.5672800758772691
5.5859375,0.14387210574759746,-0.26608714174889214
5.58984375,-1.090161993043329,0.5070105910224479
5.59375,1.0089516185133194,0.45210524123205964
5.59765625,0.22982388010296198,-0.9383263901031283
5.6015625,-1.2740756274009253,0.5174013449906169
5.60546875,-1.792609289793795,0.942304249724456
5.609375,-0.606192971573861,1.5146124392171483
5.61328125,-0.9723913066025279,0.3653145620331741
5.6171875,-1.0588443311143139,-0.7702036290504812
5.62109375,-0.24175797321869083,0.25130863535249043
5.625,0.4117502375355051,-0.6981421946048804
5.62890625,1.1323071679087837,-0.18487489331936285
5.6328125,-0.45019046496903414,-0.9044687471101721
5.63671875,-0.19970128413718227,0.3041847551680056
5.640625,-1.5572024439691134,-1.4793245124224388
5.64453125,0.8549793239133877,0.30270397478581135
5.6484375,0.05365052273184577,0.4804790479713287
5.65234375,0.13342165483153132,-0.359209157937828
5.65625,-0.16097958496869097,1.3170391830585293
5.66015625,-1.114773697470981,0.5749704318147039
5.6640625,0.3959918116165432,-0.3926535252191538
5.66796875,-0.509599588190182,-0.062240779357645944
5.671875,-0.19687275781253363,0.1383679310330889
5.67578125,-0.8433090078585068,1.1442720741061532
5.6796875,-0.33351577960050366,-0.4994281249768201
5.68359375,-1.770154801444424,-0.7253250864761862
5.6875,-0.20333077990235665,-0.5179645765345666
5.69140625,-0.45189265691985087,-1.331796299056545
5.6953125,0.8490990327233673,0.9248559153260756
5.69921875,-2.119681476828901,-1.6504862211261189
5.703125,0.3116374391920173,-0.037712812565550834
5.70703125,-0.8631253922379731,0.08908723010903974
5.7109375,0.5095324185955648,1.3063658645249754
5.71484375,0.14260910839975993,-0.7754039448183256
5.71875,0.744359513895518,0.24080681063073467
5.72265625,0.8425841370580099,1.1959050828627407
5.7265625,-0.05946005659618391,-1.043675098634562
5.73046875,-0.2177912978137567,0.22052551828030362
5.734375,1.5241740685709941,0.9535459685713464
5.73828125,-0.4972866902896038,1.4920489889343955
5.7421875,-1.1188956625781452,-0.6003647027511063
5.74609375,-2.1159833874232112,0.7606463412750644
5.75,-0.7552677553154507,1.2197904751372879
5.75390625,-0.45768200659742575,1.3404073226977449
5.7578125,-0.37511745105469696,-1.5013396151676206
5.76171875,1.1361866069452955,-0.4386592347695676
5.765625,-1.6990554451642195,-0.8137173848772494
5.76953125,-0.1427052473664825,-0.8537181962616343
5.7734375,-0.17597030688709572,-1.0212632947202085
5.77734375,0.23574996837373915,0.11077988595441116
5.78125,0.3568313088101456,1.1288171943272554
5.78515625,1.6513128288801504,1.1371945956000373
5.7890625,-0.21043238683847962,0.6485686155874099
5.79296875,-1.4115559609520807,0.23249000758708727
5.796875,1.0064854742046383,-0.4205914628883029
5.80078125,-0.8978164415862615,-0.6695325285192029
5.8046875,1.847891988167888,0.25829115124420793
5.80859375,-0.1890554447051233,-0.6728749786301057
5.8125,-0.03654272812111767,-0.37416947564444114
5.81640625,-0.07475081025480818,1.4015550433170367
5.8203125,1.3880385206457377,0.3725218571476218
5.82421875,-0.7149046784876754,0.19803483503436836
5.828125,-1.1332287098505642,0.5166729154770072
5.83203125,-0.6868131845130969,0.3614154375634358
5.8359375,-0.44229049701666445,2.2845921365884108
5.83984375,0.34576905627529037,0.7771217800729601
5.84375,0.16195475203092152,-1.024692045671713
5.84765625,-0.2881201779139921,1.7664250656541507
5.8515625,0.299114184808213,-0.43296749188005795
5.85546875,0.689030298052912,0.03756746792480701
5.859375,2.012581657928207,0.5863708376584972
5.86328125,-1.7634692087969162,0.7262681384858435
5.8671875,-1.837684022477993,1.2872750364863197
5.87109375,0.3235695540046322,-0.10205603884637018
5.875,1.1776152963035802,1.7851552886372095
5.87890625,1.1576708827817552,0.8460534674568919
5.8828125,0.7118663985693295,3.1333285285276307
5.88671875,-1.0719182203073583,0.28287243925433053
5.890625,-0.03517258833035204,-0.05563083775139257
5.89453125,1.8257603787966719,0.4461909338876456
5.8984375,-1.146891909252766,1.9429907899200325
5.90234375,-0.5459250476425079,1.4314961549832115
5.90625,0.45227439101322175,2.245741988951836
5.91015625,0.06393641573145484,0.9043063170793216
5.9140625,0.1537784016338174,-0.8650200836031559
5.91796875,1.0118599619507818,-0.37411754685327897
5.921875,1.4879954063786818,1.8512707115253937
5.92578125,-0.17676119519872727,0.8290925396813051
5.9296875,0.1424964673068485,0.23920748141947723
5.93359375,0.012245570084217589,-1.2120891846903226
5.9375,-0.9097097958161211,0.30743333368369663
5.94140625,-0.5962951063966945,-0.5236929521273314
5.9453125,0.009942903784193047,1.0489497739857558
5.94921875,0.5719005661066254,-0.13901569257442736
5.953125,0.9006878277984915,0.6867209592946122
5.95703125,-0.8010597168422807,0.478873593156259
5.9609375,-1.740689006566114,0.4367020226462404
5.96484375,2.4961265600559375,-0.15825038430831775
5.96875,-0.6484629199961716,0.7056714627397888
5.97265625,-1.0253589483126206,-0.17798547869731846
5.9765625,0.4513882314799077,-0.5564219791363741
5.98046875,0.6141281576800135,-0.5240258293109669
5.984375,-1.1879118455910225,0.4262287698263601
5.98828125,-1.110135611892856,0.259608555090099
5.9921875,1.5418316254917657,-1.1757443956140274
5.99609375,0.1317912795467151,0.2953856834589486
6.0,1.2021009833704424,-0.19918315929544253
6.00390625,-0.10310856611331348,-1.8058889826528217
6.0078125,1.033147257130793,0.6340400310178412
6.01171875,-1.0317899467594762,-1.7380381755476977
6.015625,1.0184624697021432,-1.269818121759918
6.01953125,0.9998527276767032,0.8129108736957907
6.0234375,-0.32975830802272277,1.9355971171636916
6.02734375,0.7313154378460998,0.385984563701362
6.03125,-0.3595917160192472,-0.19481019721289472
6.03515625,-0.5712459120094202,0.10169533429427867
6.0390625,0.153899199146897,-0.6961812316931592
6.04296875,1.0053378052553663,0.9878301055894582
6.046875,-1.6646332939902146,-0.11760041292480931
6.05078125,-0.527786800111762,-1.699263217956962
6.0546875,-1.3917026061545255,0.5326956576039398
6.05859375,1.514646645533106,-1.538773378406259
6.0625,0.8867694409544589,1.6560682489334346
6.06640625,0.04523941569722511,0.5506910838729211
6.0703125,0.3307430982768002,1.1556802105253234
6.07421875,-0.9265142345037154,0.289902083474828
6.078125,-0.07465393073056012,-0.07078729090723374
6.08203125,0.12509136835978601,0.7495730194991636
6.0859375,0.7594216241891254,0.7215070225003328
6.08984375,0.9490845756170727,0.31802137373909334
6.09375,1.2070464883069452,-0.37334286657928556
6.09765625,-0.08356313318251411,-0.7584432632180144
6.1015625,1.3807052231278931,-0.21525183056035965
6.10546875,0.2839806850295618,0.19690550704507415
6.109375,1.7680264264324972,1.1808762544917746
6.11328125,-0.3712393462963305,-0.9028534105888405
6.1171875,-1.5808961672008486,0.3464515121269692
6.12109375,0.1385906877244907,-0.8471279846950646
6.125,-2.534763887574187,-0.38527379547398655
6.12890625,0.3172059334068935,-0.47621128551128017
6.1328125,0.41441080452550244,1.0304697117019042
6.13671875,2.3190593771190238,0.6545637831876733
6.140625,0.6418425270276393,-0.3543561729031045
6.14453125,-1.5272256973976321,0.9644670052698497
6.1484375,-0.762607596309458,0.5599687935538846
6.15234375,1.3121247507272358,-0.8623251265301227
6.15625,1.9969813664723708,-0.46769053289894275
6.16015625,-0.04247782874582836,0.07149626251993293
6.1640625,1.4612602771458638,1.5604155934575563
6.16796875,0.053237118965517576,1.0118339051007939
6.171875,1.2498724134730839,-0.2049475774253762
6.17578125,2.264256169107631,-0.6102278357720641
6.1796875,0.4031299519900443,-0.8863208721957302
6.18359375,-0.5310556324693824,0.9984183103681757
6.1875,0.5457498831476413,1.9456361571447671
6.19140625,0.300759433665613,1.2422663006455525
6.1953125,-0.6838046979247009,0.8858964117619815
6.19921875,-0.6968261064500618,-1.2305676001194437
6.203125,-1.2252874239805558,-0.46375713624587506
6.20703125,0.8079789570431244,-1.7016066342710738
6.2109375,-1.24860738186499,0.19635751773491766
6.21484375,-0.823414058747225,-0.17494515263640784
6.21875,2.751825984578534,-2.5348348249067763
6.22265625,1.2824687191992326,-1.497408872432012
6.2265625,1.5859678938024677,1.484439167617539
6.23046875,-2.030034450257027,1.5744433380367728
6.234375,0.17560900245464806,-0.9459870358693218
6.23828125,-2.298651166217762,-0.2261565527908839
6.2421875,-0.6158948173060438,-1.3533152189424345
6.24609375,0.09487008178717946,0.9081308840924165
6.25,0.6160314159014303,0.46642816188527525
6.25390625,-1.8776715725137976,-1.4105334774966238
6.2578125,-0.5479928659827188,-1.2934903098739647
6.26171875,-0.3912714568502213,-0.5252160497241775
6.265625,-0.4931035701597326,0.7209122934753175
6.26953125,-0.2881018548287043,-0.5154729783008077
6.2734375,-0.6336861443632623,0.8787789301582556
6.27734375,0.8179895162984097,1.5044269784920161
6.28125,-0.13394214365942228,0.6886855366395584
6.28515625,0.5257524908452376,0.5453340849289307
6.2890625,0.38280530648570565,0.4082847603588995
6.29296875,0.9539184872014406,-0.2633689552338703
6.296875,0.8517449895938426,0.5334555180673984
6.30078125,1.06800650039323,0.3465995912918538
6.3046875,-1.2309744115847248,0.18768909042180776
6.30859375,-0.2549549145095583,-0.6837333172540976
6.3125,0.03707269201104566,0.10694913596521739
6.31640625,0.8947098937112765,0.04767597478481825
6.3203125,0.4177267130674193,0.016186544284773983
6.32421875,-0.7178035896686256,-0.8462279224228497
6.328125,-1.5725165447519311,-1.1245151212420332
6.33203125,-0.07775161506636828,-0.5853634270714786
6.3359375,-1.3341152231683044,0.2938804941014765
6.33984375,0.17419051275502664,-0.5276432514187345
6.34375,-0.07136075735832617,2.264402332112316
6.34765625,0.023962919765245366,-1.1986297047118841
6.3515625,-0.8089197680378543,-0.8872230497696314
6.35546875,0.6342531889005396,-0.41570925246101453
6.359375,-0.9596769175991408,-1.1769292782580354
6.36328125,1.8458609411214655,1.226390890735086
6.3671875,-0.3480389148094584,-1.2230747173957301
6.37109375,-0.026486796661510395,-0.652682825419796
6.375,1.4551718540467629,-0.20067330470031586
6.37890625,-0.7204930171689586,-0.7572286671564575
6.3828125,-0.736046455516697,0.07493183034804299
6.38671875,-1.210093836739637,0.366401005093452
6.390625,-0.2220529036131798,-0.4411474937724248
6.39453125,1.178611796741258,0.20178711081947404
6.3984375,-1.1649245503117465,-1.1198242582386995
6.40234375,-1.7918982294421268,0.2677679541812507
6.40625,1.43307104031489,-0.45753452005203676
6.41015625,1.123149843654244,2.4526924091422244
6.4140625,-1.0077242762179195,1.3096792300411662
6.41796875,-0.17840271754657078,-1.201942882898244
6.421875,-0.8828553864359164,0.8755664998261542
6.42578125,-0.32571963923305647,-0.7845540202791248
6.4296875,-1.452479830931374,-1.2972881131107101
6.43359375,0.000265742504152559,-0.972735484558831
6.4375,1.1431042891350929,-0.11821307469485731
6.44140625,0.7890951299895177,-0.7197253006284996
6.4453125,0.2658671968858308,-0.16044727198789377
6.44921875,-0.4895358959015348,0.9677089937770654
6.453125,-0.18548136401283266,-1.1863795183919017
6.45703125,-0.7494118206989246,0.9137229568243689
6.4609375,0.5096063222585798,-0.5725493875611962
6.46484375,0.8690868989578531,1.2257105564568864
6.46875,0.7629020242368538,1.5306020921230263
6.47265625,0.5125531598501065,1.0359959832695598
6.4765625,0.8014720923405874,0.8823868299978911
6.48046875,-0.7982283903638521,1.3921327007745963
6.484375,0.6253809252733592,0.8968995924553055
6.48828125,1.47291866837418,1.3406750740189626
6.4921875,2.39138392538059,0.7443969445449655
6.49609375,1.359624196349824,-0.8554272139102258
6.5,-0.6892463618317054,1.1548313188319121
6.50390625,-1.309543834632943,0.03517098994558624
6.5078125,0.9945439661265316,-0.013906396063425404
6.51171875,-0.9257257048143644,-1.1477141104036193
6.515625,0.3777386471094723,-0.27309129657932674
6.51953125,0.15920478954346826,0.8992689133285949
6.5234375,-1.309707454383767,-1.2211945562219135
6.52734375,1.873766910325221,-0.21694527610601128
6.53125,0.09196980827232722,0.9179940252180295
6.53515625,1.6229863752280187,1.9117858939195413
6.5390625,0.10853977125289173,-0.5123138488692822
6.54296875,-1.1078525642204027,-1.5613002994937566
6.546875,-1.6825102328174113,-0.23521754880315784
6.55078125,0.19637307716092925,1.3682750215475177
6.5546875,-0.042018548700440785,0.8746865910953431
6.55859375,0.25335510142247225,0.22534809656326535
6.5625,0.8477482441805897,-1.1312410653815899
6.56640625,-1.158272886606121,0.08165032299751776
6.5703125,0.05642035812276135,-0.7396304846667261
6.57421875,1.0461827676388515,-1.4809969547539812
6.578125,-0.3788348787844048,-1.3688856521228379
6.58203125,0.9564710476856003,2.9619798401963475
6.5859375,-0.728103706732981,0.5140452138492568
6.58984375,0.092278125872613,-0.792748447762073
6.59375,-1.4907875952345266,-0.48487873261919806
6.59765625,-0.08958806656722465,0.28883872129391264
6.6015625,0.3767900649407892,-0.8209521992442074
6.60546875,-0.6154761414643687,-0.3933794923052326
6.609375,0.7119975792921341,0.9920425897804455
6.61328125,-0.9189636822021724,0.051386188445843514
6.6171875,0.08461161732311255,-0.37299246937287617
6.62109375,0.17589225223719368,-0.8346995740008963
6.625,-1.9932574510773127,-0.20078103338122258
6.62890625,-0.21330167315661816,0.24269578702663247
6.6328125,0.7483261108305425,-1.2591985774798669
6.63671875,0.4360605903445123,-0.2003357194519699
6.640625,0.11438392341647688,1.9758865228535267
6.64453125,0.05450447482234433,-1.4641645025453802
6.6484375,-0.06268931847253259,-0.9330202789052244
6.65234375,-0.26786880373583494,1.0896749473863367
6.65625,2.347501429340709,0.18736468494668335
6.66015625,-0.1517426638473667,1.31119126659427
6.6640625,2.240625016194994,-2.2398559552373323
6.66796875,0.5630353829917207,-0.7993549396364776
6.671875,0.3651328862213425,-0.3538293687071455
6.67578125,2.4588227848815905,0.3268369202703665
6.6796875,0.6757156968002798,1.0780785918460323
6.68359375,-0.10063842267634872,0.3038051105437947
6.6875,1.048157878018355,-0.89561486718277
6.69140625,-1.5399540281022424,-2.2589105721891887
6.6953125,-0.22189390412541365,-0.49052400505115645
6.69921875,-0.01251790921161915,0.8153132144870237
6.703125,-0.32374965185296994,1.3736668014069722
6.70703125,-0.008745252170153204,-1.1322911894655503
6.7109375,-0.30053063794961926,0.8026883146185588
6.71484375,0.8700425225158979,0.2559438374414947
6.71875,0.003821828283546052,-2.425775830900404
6.72265625,0.41970707978932936,-0.03144454039998951
6.7265625,0.1512907409508201,0.12212852114976686
6.73046875,2.4161500632886717,0.21387313114735373
6.734375,-1.7232239955085393,-0.49176591389943347
6.73828125,0.7458650968877537,2.001772155329219
6.7421875,-0.46107290086715413,-1.3898787529797931
6.74609375,1.4520636849985762,-0.7950031053801769
6.75,0.8538020149799097,0.6217641143704761
6.75390625,0.7150693039552104,-0.3541243846687708
6.7578125,-0.744414936714338,1.4775664471733976
6.76171875,-0.5465620648563787,-0.038518380989417865
6.765625,-1.2809321477397901,1.028369155567747
6.76953125,-0.9578254332958572,-1.1819526275352876
6.7734375,0.7291930631601005,-1.3521038602291413
6.77734375,-0.0039033034271880717,-0.43497571216525255
6.78125,0.9331608561263453,-0.2873466396247775
6.78515625,0.8820630972052477,-1.5891681361763792
6.7890625,0.862396378504177,-0.6898139837587807
6.79296875,-0.07766741464026387,1.4009787974075152
6.796875,-0.3871144758050098,-0.9136544630473847
6.80078125,-1.8045941601145539,1.5292880464259626
6.8046875,-1.7215508738570346,1.580147095720309
6.80859375,-1.0811531918165582,0.5107071387918611
6.8125,0.32863889265727037,0.9192459128202645
6.81640625,-0.9021701795534285,-1.6661032853430353
6.8203125,0.2295008676118809,0.5300932851185278
6.82421875,-2.524457331200703,-1.2976047560477741
6.828125,3.0435737202778155,0.3897124461323014
6.83203125,0.5458940066063114,-0.5455949612624519
6.8359375,1.0259949479970865,0.9685815481464056
6.83984375,0.6203733595875053,-1.2050313059445859
6.84375,2.2492877125075394,1.6888007961732
6.84765625,1.6131801422917063,0.8986654611183968
6.8515625,-0.8810162902307855,1.1440707655139146
6.85546875,-0.8017555950359299,0.9938508724519176
6.859375,-2.7386082541626493,1.1753091704327212
6.86328125,-0.3429820235336064,-0.48050785708217775
6.8671875,0.0191721322776818,-0.6795749531946202
6.87109375,0.6277419747923737,0.8546714449189055
6.875,0.9555639088485544,-2.9304373944063986
6.87890625,0.024559597363652107,0.6000701629866803
6.8828125,1.3599528905791676,-1.1692282076370326
6.88671875,-0.2681939868081737,0.12878202860349283
6.890625,1.9161619351038006,-2.15696991850327
6.89453125,0.30103082319802027,0.1192184694626011
6.8984375,0.45220411372749475,-0.9499364316445382
6.90234375,-1.4515924739111299,-1.6866011131656822
6.90625,-0.35902896424898045,0.09475692509980255
6.91015625,-1.0055785814807914,-0.3625184915665756
6.9140625,1.4039995701005712,-0.16874598397132043
6.91796875,-0.23054109433597145,-0.09617799696183182
6.921875,-1.0947714990568511,-0.6535023173187139
6.92578125,0.38016380753391205,-0.0765243561968926
6.9296875,-0.9035108712056203,0.2675488014233509
6.93359375,0.5824490850420824,-0.572068198335266
6.9375,-0.4996552049733763,1.44628923452107
6.94140625,-1.2531206298213353,1.0652984772360359
6.9453125,-0.2714564474041502,0.6080150062652819
6.94921875,-1.9055130952375794,-0.15748796304971288
6.953125,0.2648891112098854,1.1935935368330923
6.95703125,0.433027948748063,0.44883192237565056
6.9609375,-0.20821546576720917,0.5100744868771059
6.96484375,0.8969182269060385,0.40654912515819763
6.96875,0.45448430078286656,-0.4430939074848107
6.97265625,-0.7885977485774498,0.42996017503358386
6.9765625,-0.06786281512496874,0.4329902180581701
6.98046875,0.1523535193476133,0.9693418139916286
6.984375,0.8691064672840633,0.5445366662305556
6.98828125,-1.8147354296737406,1.6871023450903835
6.9921875,0.8007472282529254,1.6288304171421355
6.99609375,0.8283747698065231,-0.7922408564925217
7.0,-0.5335873491633687,1.3169257330389057
7.00390625,0.02863622680813987,-0.2046192013395682
7.0078125,0.7094099337220777,0.3862093673892526
7.01171875,-0.23393221059807517,0.5944066685897164
7.015625,-0.08677041912183274,-1.2250643405163597
7.01953125,-0.4805940771336768,0.9673536569139786
7.0234375,-1.325385300697817,-0.19985946209734048
7.02734375,0.5631893304273415,-1.2907426132913882
7.03125,0.15660746055301655,-0.2613633279093335
7.03515625,1.0181133271734932,-0.25741272179407104
7.0390625,-0.7193829531287793,-0.23195017858022313
7.04296875,-0.7067935578477671,0.6350776857174188
7.046875,-0.5504650526069896,0.44670899771281114
7.05078125,0.7884136486450826,0.4703645112498706
7.0546875,-1.202478300873785,0.6085806537834352
7.05859375,0.48163196163862837,0.7689437278025296
7.0625,-0.35535329359046836,1.5521506342968308
7.06640625,-1.217194466022868,1.216907325604765
7.0703125,-1.4311632930487295,-0.34086802171567
7.07421875,-0.29927241708926927,-0.4837682078324661
7.078125,0.23609521126909377,-0.7336466245971538
7.08203125,-1.1487880769202936,0.43968904629110256
7.0859375,0.4923259964422189,-0.6027549090957142
7.08984375,-1.2086058195916345,-2.5298235826106312
7.09375,-0.1978094150855069,-1.3684418819786646
7.09765625,-0.5157563915248777,-1.0223153768733197
7.1015625,0.6615138864801261,0.3600780840505225
7.10546875,-0.18533033510837948,0.778326872997079
7.109375,0.3141052194411074,-2.208986790667162
7.11328125,-1.1889012906341037,-1.6341300024552
7.1171875,0.4050014848433736,-1.3406019505096585
7.12109375,1.2130715520616846,0.27910698489449637
7.125,1.8619437539638248,-2.185509138497042
7.12890625,-1.279704022609679,-0.8339942440561084
7.1328125,-0.0196902427390043,0.3934749846567659
7.13671875,1.8130830689452835,0.9027798814862384
7.140625,0.547080682998836,-0.23848178716528784
7.14453125,1.0010662617957278,0.2590613047014126
7.1484375,0.5620210141829071,0.5522664070935134
7.15234375,0.5033066652640666,0.5290933654728867
7.15625,-1.3112135074897413,-1.6531656078530885
7.16015625,0.22536369645322762,1.1656915301801056
7.1640625,0.4066299827490608,0.28071747308630196
7.16796875,1.6356704360911256,-2.1949378708408775
7.171875,-0.12061351267417807,0.09751080039226469
7.17578125,0.028488823666232142,-0.39868279735068146
7.1796875,-1.5442300679150254,-0.0736884929759471
7.18359375,0.05700716586885886,0.22389364018558122
7.1875,-0.6601484205835654,-0.3526621405139605
7.19140625,-0.37575741537319923,-0.7774213368082599
7.1953125,-1.205575691878106,-1.2813378593166511
7.19921875,1.8280052977743002,-0.2422729049821939
7.203125,0.5984003714376511,1.3560432282369759
7.20703125,0.7423185689152548,-1.2633210486999469
7.2109375,0.6721562475937772,-0.5064888781930514
7.21484375,1.037814150711413,-2.5818905168566135
7.21875,-0.1321023174805318,1.120510221896804
7.22265625,1.7550860476999732,1.8898775017655014
7.2265625,0.9534311020326801,-1.1719238583399942
7.23046875,1.8503427561583983,-0.48112932823345234
7.234375,0.7393490085196394,1.3953475784428675
7.23828125,1.342060028716127,0.05732798822128257
7.2421875,1.4351848522054929,-0.014303940663714172
7.24609375,-0.33091559124243514,0.6788388343830302
7.25,-0.5545615421401676,-0.6009847903792462
7.25390625,-2.2711042989715944,2.4885636900970116
7.2578125,0.7751915129831145,-0.6309169729583805
7.26171875,-1.016836611255471,-0.7771555419896743
7.265625,-1.189225733571155,1.248488788271915
7.26953125,0.17380813493729844,-0.2626652906544838
7.2734375,-0.8830391182515517,0.39579424392776924
7.27734375,-0.23164153302129167,-0.8651438851870571
7.28125,0.8380493106899248,1.3901423096850962
7.28515625,-1.0016863681993153,-0.6573201716190347
7.2890625,-0.687242905925384,0.2691165617957183
7.29296875,0.6831284611631543,0.09399689724207581
7.296875,-0.5879601955132872,0.1755001683411141
7.30078125,-1.783312783299369,0.5967122567668868
7.3046875,0.9942289466641853,0.7025456069192028
7.30859375,0.5321642316537966,0.8465162216536738
7.3125,-0.831819325346394,0.21085488339157907
7.31640625,-1.0661715263951574,0.2802243910096326
7.3203125,0.1753517836354412,-0.514027456600121
7.32421875,-1.3384097011845821,0.9330241819639719
7.328125,0.6950659096228485,-0.16101274540467653
7.33203125,-0.6713639874997371,-0.026617438110987813
7.3359375,-1.216026743765769,0.7145848041837937
7.33984375,-0.41762635903702017,-0.6332526018369827
7.34375,-0.9546665329233335,-0.15210720106457515
7.34765625,1.8878028081618516,0.7351906115972797
7.3515625,-0.7370581014433479,-0.04379989915688895
7.35546875,-0.4110711079323653,-0.31668219077571164
7.359375,-0.16121777958007635,-0.04522706351200633
7.36328125,-0.19210795953193913,-0.6747633460327191
7.3671875,0.03358426697298552,-0.19619577654550588
7.37109375,0.8945240033072391,0.524559838652893
7.375,-0.4768058965120072,-0.20648222797697932
7.37890625,-0.48990910785982633,0.5582489025212388
7.3828125,0.5485338329641796,-0.25796836190954237
7.38671875,-1.84166819136316,-0.8223854132029212
7.390625,1.5211028557217883,-0.04562532087437285
7.39453125,0.7648808415536107,1.6030669566437277
7.3984375,0.46777876476932406,-0.32569145943682215
7.40234375,1.714014403616254,1.0211634826827405
7.40625,-0.7521873939082531,0.35020663014970765
7.41015625,0.5778630263930141,0.5128429475625325
7.4140625,0.690883971884147,-0.07267479757185301
7.41796875,1.8116925979636143,0.9030429369615159
7.421875,-0.4855950398051177,0.28694666115520234
7.42578125,1.0637287136723343,0.5306662205660719
7.4296875,0.18376714574778671,-0.7739317509630484
7.43359375,-1.0348912417705314,-0.35053389780952376
7.4375,-2.738528332157533,0.6009481131103758
7.44140625,-1.2517028097429723,0.2426337099882116
7.4453125,-0.41002501165242405,-0.9848176396370633
7.44921875,0.43582107481156457,-0.584695300974002
7.453125,-1.2016579295743137,-2.330007986452984
7.45703125,-0.46422183247556165,-1.5806252143118886
7.4609375,0.18342518390291446,0.004974282477865814
7.46484375,1.4228937133724915,-0.4525518900219732
7.46875,0.5824755247864819,1.231249283620234
7.47265625,0.13295620073513012,-0.18351463853566188
7.4765625,-0.4201351977450793,0.23335518505249883
7.48046875,-0.795422592809352,-0.0023472996671882536
7.484375,-0.2974107738136146,-0.9843960164688739
7.48828125,-1.2512987836554816,-2.2690451166578844
7.4921875,-0.22925442418648898,-1.1188427904122966
7.49609375,-1.4348378591400193,-2.062686138570823
7.5,-2.1124596232353268,0.14312792315562892
7.50390625,0.27212946520619724,-0.4692633174651966
7.5078125,0.10860733787110355,-0.20217240496294642
7.51171875,-0.7270925837201871,-1.902332206172672
7.515625,1.6372767390981608,-1.3321579297767545
7.51953125,-2.1977393600996393,-0.846087129301943
7.5234375,-1.0677530830585138,-0.17029986303140887
7.52734375,-1.1681469974826026,1.2643175479319653
7.53125,-1.7478489429057666,-1.6480830139931224
7.53515625,-0.36736261474812754,-1.6621938857973457
7.5390625,0.4776496832586538,-2.1769482849895088
7.54296875,0.44967301329454706,1.4318734582810473
7.546875,2.61016621225206,1.0513822879008181
7.55078125,-0.4035325421209951,0.2764629329173604
7.5546875,0.4547020275387589,-0.24155813608407176
7.55859375,-0.22326418867284703,-0.7238854888225116
7.5625,-1.7425241981032267,0.8188380785229072
7.56640625,0.05280073147710849,0.8777406902534459
7.5703125,0.5147131011639391,-2.8547876979491127
7.57421875,-0.7441396868044131,0.558780734040956
7.578125,0.35189049563071656,1.7139480314671411
7.58203125,1.032925943539891,0.8269845725252973
7.5859375,0.5962325763037899,0.46921469514277697
7.58984375,0.4964068793516669,0.819420188500779
7.59375,-0.8480654459975977,-0.06923704465775975
7.59765625,0.4153130169252855,1.7604540766440624
7.6015625,-0.0129468790478074,0.4989426192106617
7.60546875,-1.0899570392319877,1.2109813638813
7.609375,0.28614215190051606,0.17189512368278778
7.61328125,0.8771022779094196,-0.40754803210894397
7.6171875,-0.10417501158206549,-0.7320679519320697
7.62109375,-1.7848874253439544,-0.7791103551183828
7.625,0.06500019165324364,-0.6283893785500203
7.62890625,1.654741030459048,0.2105054143005179
7.6328125,-0.4075107278186078,0.17916358311515163
7.63671875,0.17605996010303915,0.4011066224724635
7.640625,0.13339732452833195,-1.726989837618309
7.64453125,-1.1564632804680555,0.7485350364585357
7.6484375,-1.635339205687105,0.9403411027395289
7.65234375,-0.2566558063767172,-0.09637182017669627
7.65625,0.06454205484217605,1.8797763939530796
7.66015625,0.18384575772506045,2.049605552513841
7.6640625,-0.7570310938376217,-1.3095666481410295
7.66796875,-0.2802391268124688,-1.378824767213338
7.671875,1.2003494609483647,0.5463157070589197
7.67578125,-1.6955086801498083,-1.3708542204426752
7.6796875,-0.8507056662915017,1.366354796452462
7.68359375,1.8449244431769585,1.6219702520734007
7.6875,0.9196003823135379,-0.6320414204020419
7.69140625,1.3655306331633723,0.551288705548845
7.6953125,0.12747963424102338,0.8890707776502007
7.69921875,0.45530284662603754,-1.0035462860717745
7.703125,0.39124554951048074,1.1104495302231718
7.70703125,1.1051167492214056,1.7086264898140304
7.7109375,1.05413161890795,-0.6930742255924095
7.71484375,0.08712154846351397,1.464398665438204
7.71875,0.3562732513899631,-0.04594839320214742
7.72265625,0.6227922869417133,-0.9574895354632668
7.7265625,-0.4759241981748033,0.2994450973815383
7.73046875,-2.9838051212286434,-0.492452741025461
7.734375,0.4410243659860389,-0.061194231074327
7.73828125,-0.3123394949971187,0.43537240833992896
7.7421875,0.4029414549981285,-0.39765977726997154
7.74609375,0.7336873603819499,-0.03230666217087073
7.75,-0.6967604305181196,-1.145980429528111
7.75390625,1.8605206895900226,0.5608842948233601
7.7578125,-0.6923326533761543,-1.4040470212276481
7.76171875,-0.9388114702651067,-0.6621461222341657
7.765625,-1.5867416148929454,-0.851182360577113
7.76953125,-0.12227536947025405,-0.8172687973528368
7.7734375,0.62964210665936,-0.3305184917991325
7.77734375,-0.5267077763587538,-0.5927398049342784
7.78125,-0.47866619160335905,-1.29495672439285
7.78515625,-0.013238044943715237,0.4871507394410427
7.7890625,-0.37023495150003066,0.2050009566658854
7.79296875,-0.03838166221402137,0.47571468262900546
7.796875,-0.6493265793982963,0.34627128005182295
7.80078125,1.8945965324005973,-1.354960884814111
7.8046875,-0.3738352340413719,0.34980332883874876
7.80859375,-0.06120871217827349,0.8789681252545324
7.8125,-1.9661213201629664,-0.49576970052264896
7.81640625,-0.8031933145257337,-0.4413547500213737
7.8203125,1.1470991936389263,-1.2965161077452334
7.82421875,-0.05511120297212273,1.1771142105767791
7.828125,0.7947529485185454,-1.6183418857845944
7.83203125,-0.044577490188413775,-0.7663896913539834
7.8359375,1.1615834486507317,-1.5126114008421079
7.83984375,0.7527424127649179,-0.5348954597700063
7.84375,-1.8781411389533462,-0.37411463616317003
7.84765625,-0.5589002942957743,0.9841953726749527
7.8515625,-0.3618181673068933,-0.9109771879601095
7.85546875,-0.789017454019311,-1.065398939410232
7.859375,-0.4767692239839562,-0.3187564824352456
7.86328125,0.5115737816784361,-0.18319191569010715
7.8671875,0.7819674131306048,-0.5256697037154984
7.87109375,0.6795910046147067,-0.6451355534851596
7.875,-0.2821954868328089,0.38253723839334053
7.87890625,-0.9622440348871978,-0.6358309241927229
7.8828125,-0.35835471083380116,2.377405951074843
7.88671875,-0.022883440461679498,0.18734880715769744
7.890625,0.9500068982261247,0.3743558463131119
7.89453125,0.7182926238523439,0.2385000161658193
7.8984375,-1.870980807858425,0.6166642214507417
7.90234375,0.562883415873776,-0.15088816505114333
7.90625,-0.5936658873013663,-0.3517397532394873
7.91015625,0.5851305269612641,-0.18151125092729695
7.9140625,1.20570453107949,-0.3634928397342284
7.91796875,-0.31416336630478037,-1.0904262595191807
7.921875,1.1809231732367047,-0.2392670333733274
7.92578125,0.7061023779701004,-0.32078392390977506
7.9296875,-0.13542542551904715,-0.2967347054474275
7.93359375,0.44020989340674044,0.9596876518015865
7.9375,0.40859166846269684,0.6387286081852463
7.94140625,0.11326906999556542,-0.7692871977129431
7.9453125,0.25615228841409443,-0.5145899467684724
7.94921875,-0.5839944365746196,-0.22322014000770005
7.953125,0.033372857597825226,-0.18083544268073543
7.95703125,-1.3478266027952244,0.04911114205356906
7.9609375,0.06967105410646642,1.841154304020155
7.96484375,0.06997273437681924,-0.19687460592112094
7.96875,1.4306649408097685,-0.5243740905623472
7.97265625,-0.4104131804079942,0.5810076085932336
7.9765625,0.483888769424367,-0.43272585318938134
7.98046875,-0.21451496007261056,0.43692916057722925
7.984375,0.3829339207480537,0.7132467995138848
7.98828125,1.1389958835905931,0.4523351037692179
7.9921875,0.3116041226503724,-1.2435008324939452
7.99609375,0.36890289837091794,-0.41080024768506074
8.0,-0.35057837538802705,-0.11164524435746866
8.00390625,-1.3126959478515232,-0.8356949049112193
8.0078125,-0.8732454405409055,0.9822868550463945
8.01171875,-1.5147855083544146,1.1501220189643977
8.015625,0.1497785657137512,1.7442078780623043
8.01953125,0.1879066285664771,0.011683538451959815
8.0234375,0.5480964330301882,1.2529194620832877
8.02734375,1.721916569215832,-0.510204796897324
8.03125,0.33003737910384634,-0.8545861970420378
8.03515625,0.008705983082735656,1.2971647420500212
8.0390625,0.025824306176072148,0.46241950337910376
8.04296875,0.9419373247271552,-0.15727242654798002
8.046875,-1.4404154985455566,-0.3778114902779097
8.05078125,-0.9094460864093183,0.29116628534132316
8.0546875,0.14479859858860156,1.0394022997590646
8.05859375,0.19614812538723583,0.34325326776400034
8.0625,0.7372476981145052,-1.4997946663013737
8.06640625,-0.48579883361519477,3.14012574984369
8.0703125,2.4600986330564925,-1.6873311440310927
8.07421875,-0.9946973772802126,-0.12253547502799114
8.078125,0.006319130168871686,1.6533953462873707
8.08203125,-0.2976615922536272,1.5613903248244059
8.0859375,2.0667453969074137,-0.7837932363435908
8.08984375,0.5428280699786653,0.33034783285462194
8.09375,-0.04552857693047572,0.40624598070152895
8.09765625,-1.7582554590411412,-0.9529806021318286
8.1015625,-0.34626894058033086,-0.5050542959969484
8.10546875,-0.885210123363056,-0.19245848225782045
8.109375,-0.24119893333673148,-2.984757254966992
8.11328125,2.0242365502951465,-0.4207797993655807
8.1171875,0.47182306552976977,-1.418007155625214
8.12109375,0.9156666888619845,2.100363598263574
8.125,-1.888460892182569,1.2781687181315338
8.12890625,0.7916278357701292,-0.793302621106578
8.1328125,0.5734492984819277,2.3078188141957403
8.13671875,-0.022541264443095742,-0.050531189489647244
8.140625,-0.03919628860336842,-0.30702228467609477
8.14453125,-0.3606791027623597,0.056290518184390306
8.1484375,-0.9791742103175397,-0.43706416427444555
8.15234375,-0.8557353275162206,-0.3712991016254177
8.15625,-2.507369116438737,1.3579491977831146
8.16015625,0.2595864130370315,0.27846499796327495
8.1640625,0.06460755848623916,-0.47668562353852517
8.16796875,-0.9865644252884036,1.014066026742507
8.171875,0.10838543226516702,0.825983895758677
8.17578125,-0.47280917577705844,-0.6138330134842803
8.1796875,0.6875635577287886,2.401286837742415
8.18359375,-0.40456706190006025,-0.772744186340866
8.1875,-0.8744784174601039,-0.8533041300464052
8.19140625,0.20166160587612342,0.014312687896287129
8.1953125,1.2596304298919205,-1.0239710464484224
8.19921875,-0.3142703862540492,0.804109433868193
8.203125,-0.28504320126916716,-1.8669680518541418
8.20703125,-0.5433810807722135,0.487486138497983
8.2109375,-0.2516785610674013,0.5315969048466452
8.21484375,0.9038484293090447,-0.3059797302017745
8.21875,0.8139851238512568,-0.397830068970293
8.22265625,0.3013453686593739,1.3057121507685532
8.2265625,0.10180159112687025,0.423633739463722
8.23046875,0.03422767578729358,-0.4985144858595442
8.234375,1.5001416174235764,-0.3330617014783592
8.23828125,0.6671562436782551,0.04632518242762557
8.2421875,-1.0179206150169093,-0.3102370377020108
8.24609375,0.43101101980282847,-0.3976812534492227
8.25,-0.13302693899529272,1.059478878254522
8.25390625,-0.14267773161467187,0.6334854960530514
8.2578125,-0.1238875678325285,-0.6852805949695961
8.26171875,0.9035356381177047,0.015499202352405166
8.265625,-0.8046409237747283,-1.3551032659546316
8.26953125,-1.306305975532133,-0.5872869638032101
8.2734375,-0.40040871598716593,0.3747511050880604
8.27734375,0.4747947777453852,0.3758097700315322
8.28125,-0.10762182807258129,-1.791789442062792
8.28515625,0.36340783257713505,0.03141230863682848
8.2890625,0.13801143152327347,-0.3419089105460868
8.29296875,-2.1512003945601856,0.36614672671499
8.296875,-1.4352984635936952,-1.2931484503783381
8.30078125,0.005452536652819827,0.48542545555624383
8.3046875,-1.5362200740328416,0.7525372037456728
8.30859375,-0.4361219070344479,1.4468905645085868
8.3125,0.8694506987888558,-0.5172212851818653
8.31640625,-0.3809758969522751,-0.23627899694028773
8.3203125,-1.8583514925341424,-0.12434971405036217
8.32421875,0.9564695254571974,1.118725689605898
8.328125,0.488977682619594,-0.04767893015915553
8.33203125,-1.6070344221761135,-1.711891850900178
8.3359375,0.22234979121823306,-1.3440078057688445
8.33984375,-1.293821303870523,1.1816127996554777
8.34375,-1.2358288013855188,0.14977709136103567
8.34765625,-0.48372140672153247,2.176632958021999
8.3515625,0.42144952697466137,0.8051901023137878
8.35546875,-0.15829039989622598,0.1446957333491447
8.359375,-0.2947583191753185,0.10888592108057597
8.36328125,-2.1555761735407115,-0.5122870852940753
8.3671875,-1.4351299176194,-2.205480031756753
8.37109375,2.504305977390457,0.7517568403963435
8.375,-0.9297736948942757,-0.16878910648043968
8.37890625,0.27307274204920773,1.677816156334405
8.3828125,-1.2422206554849466,0.8111336052355451
8.38671875,-1.2994278694127277,-1.2285262187246482
8.390625,0.36648433878022585,-0.34911781375972406
8.39453125,-0.12646619944047433,-1.7016978330533552
8.3984375,0.12521958579910758,0.05074053251099334
8.40234375,-0.09655912893528508,-0.659958706804098
8.40625,-2.190840919647627,-0.007871465002767922
8.41015625,-0.8774092594016633,0.5611006857190384
8.4140625,0.15345151561435266,-0.6452313018233949
8.41796875,-1.115231874602513,-0.8968126922166523
8.421875,-0.2256919460238776,0.9481420521572677
8.42578125,0.7065668243992289,-1.2406984673338586
8.4296875,0.23340264311600387,-0.20916385209189298
8.43359375,-0.5114348406289836,0.675737251872021
8.4375,-0.6848353972100697,1.0322179448249962
8.44140625,2.0267435304634294,1.07349301008053
8.4453125,0.4558556221473727,1.0717420575998897
8.44921875,-0.1571492050908717,-0.23379749037418426
8.453125,-0.6109627345913455,-0.3104415643665858
8.45703125,0.6635447485366044,-1.8155314633573767
8.4609375,-0.5860407383552209,1.3352167098630952
8.46484375,1.5332331726596342,1.0461682613024696
8.46875,0.7378764112398576,0.3011354784546082
8.47265625,2.1233203038399293,-0.08757343265384746
8.4765625,-1.4177064004716797,0.42957611356996134
8.48046875,1.2817269272749061,-0.2493833255397227
8.484375,-1.7768847911069436,0.49406539414246625
8.48828125,-1.1887785973906086,0.8481778812030822
8.4921875,1.6589288564892863,-0.7216340211136114
8.49609375,-0.2861821476860486,-0.5071155714476419
8.5,-0.1860002767948912,0.5511822210680285
8.50390625,0.17310001086924406,-0.5683195290471432
8.5078125,0.1295439583862866,0.5151796082886689
8.51171875,-0.8433855268643823,1.2734529852994114
8.515625,0.9672458104729995,-0.5075620766628539
8.51953125,0.18676694738763658,0.07364457574776528
8.5234375,1.9320362450667015,-0.9546962177162432
8.52734375,-0.2318692338140467,0.3042785498692647
8.53125,-0.7081801898050589,-0.7641199424011349
8.53515625,-0.4796297048464255,-0.6872257989618056
8.5390625,-1.711611713871877,0.43507104312714534
8.54296875,0.6474319123203968,0.9346319146217054
8.546875,-0.5477075250732557,0.6467509300666938
8.55078125,-1.1545243518968527,1.4070393014390215
8.5546875,-1.0890903950077009,-0.018139110026409947
8.55859375,-0.483486389642349,-0.025504808154410006
8.5625,0.641707661906431,0.9305669330582467
8.56640625,-1.2300484140821846,1.982086623318653
8.5703125,0.586019786273711,-1.9054261076975583
8.57421875,0.5892553898491762,-0.1670817829362426
8.578125,0.7992882364644722,-1.0058257372478996
8.58203125,-2.4205236554476195,0.4464493694645937
8.5859375,-2.7140768651700076,-2.147682521123198
8.58984375,1.843826814357213,-0.5392258008842654
8.59375,-0.3766475533216856,-0.6496748309127894
8.59765625,0.005851126280805479,-0.8431183985399443
8.6015625,-1.52998635188178,-0.4520754002011753
8.60546875,0.22026260887450103,0.2864159456409514
8.609375,-1.1390143384276186,2.702657115003883
8.61328125,0.571272448067329,-0.6171981398887983
8.6171875,0.6052675330349739,0.07626887546909883
8.62109375,0.33352960800729514,-1.6154885178517588
8.625,-0.10200313794521837,-0.3278536996047207
8.62890625,-0.6650408507268378,0.3590278605628892
8.6328125,-1.0955118463981361,0.862408221302746
8.63671875,-0.5552899173937605,-1.2131425947590468
8.640625,-0.580103341619128,1.4864479951415814
8.64453125,-0.3864294966671429,0.17194673019488763
8.6484375,-0.1207944941624437,1.1166687038407173
8.65234375,1.3239898061482551,-0.8148232259728014
8.65625,0.9913081457857907,0.4899822598056599
8.66015625,-0.5438771900750794,-0.5181422420191031
8.6640625,1.9257525432160847,-0.16623844831144965
8.66796875,-0.8389988395869252,0.1593789294654909
8.671875,1.1259461405421287,0.013765797998893787
8.67578125,0.1467757157418155,-2.154363424334765
8.6796875,-0.07472762310334306,-0.23078938122215728
8.68359375,-0.7982667721553713,1.2613705414021101
8.6875,0.7634129934439963,-0.3164122660933361
8.69140625,0.8355351088223008,0.9963872983759542
8.6953125,1.0583033701292301,0.09076293159001471
8.69921875,-1.06058972586175,-0.39505277628837343
8.703125,1.39593668634956,-0.34204033331248673
8.70703125,-0.35691574478620547,-0.023693996012931536
8.7109375,0.09919530675353892,1.0047184144884682
8.71484375,-0.8628109047278438,-0.4241017162652798
8.71875,-1.010287421675277,-0.9193466971283054
8.72265625,-1.570993910286564,-1.7240831540201205
8.7265625,-0.4239116416077551,-0.42126934935738686
8.73046875,-0.11074296695891242,0.10378981018127087
8.734375,-0.3851845241259851,-0.6488870181974521
8.73828125,0.16331788608564843,-0.9229795312379643
8.7421875,-0.6313291976723683,0.2980673570765755
8.74609375,0.39279863683183297,-0.9254875279584015
8.75,0.40155300033136543,-1.2768501348855865
8.75390625,-0.16164406920224186,2.3146388807090523
8.7578125,0.5279604295377018,0.5813803831541207
8.76171875,0.23822239265244638,0.852952690112872
8.765625,-0.2202589754508594,-0.3647205802269108
8.76953125,1.7330983607258033,-1.3999453103489978
8.7734375,1.388122476387008,-0.6659243303390485
8.77734375,-0.7594515287097118,-0.46246285730312703
8.78125,-1.2851899830430547,-1.4561723946727256
8.78515625,0.42550535902814424,-0.18992187911517694
8.7890625,-0.44127855648386216,0.21871100022306622
8.79296875,-0.04188695199867759,-2.03627521327386
8.796875,1.2793361904352838,0.7137871197169341
8.80078125,-0.47614065372859093,0.47607472839968135
8.8046875,0.4688040657148302,-0.5733163264914684
8.80859375,-1.69355956584223,-0.2904917858537689
8.8125,1.6091451239052679,0.2898672265993117
8.81640625,-0.5972919112801559,-0.6534951281673662
8.8203125,-0.8524293301331041,0.5567350221786221
8.82421875,0.8797964032112722,0.05504596736125887
8.828125,-0.9692918315453646,0.22948175019807066
8.83203125,0.30086704464434816,1.2529975679654304
8.8359375,0.11821446236323759,1.7558395395817008
8.83984375,1.7089620245183275,-1.1248511615532935
8.84375,0.4276997132510793,0.5544419637096257
8.84765625,-1.4640907453396597,0.6169917426869286
8.8515625,-0.023204495735691253,0.8058775425250397
8.85546875,1.369109186442839,0.6665171517830728
8.859375,-1.5256844112893957,2.1920467897722995
8.86328125,-0.3081705015112278,1.4948668990761367
8.8671875,0.3257119847217914,0.29192053273233476
8.87109375,-0.5482300974340226,-0.41838206590669486
8.875,-1.5080755539715625,0.07999197885732626
8.87890625,-0.9171123555892985,0.6011298986898247
8.8828125,-0.2862294587681107,-1.4044884095864685
8.88671875,-0.40283341002571565,-0.6586759306916665
8.890625,-0.8074212172008338,0.29375792913509363
8.89453125,-1.01097104720318,-0.5019234215152222
8.8984375,-0.005557468111857811,0.33484772149873876
8.90234375,-0.20294469920066688,2.179557224105768
8.90625,-1.1200259173478788,-0.4874450268204582
8.91015625,0.5425938542589636,-0.7368731353118212
8.9140625,1.4866796283647674,0.5270440651667537
8.91796875,0.8546308136295303,-0.5979426617521159
8.921875,-1.960657535398898,-0.6382817731883917
8.92578125,0.038360757088081905,1.2693707106518037
8.9296875,-1.6438592915096242,-0.18114136466277725
8.93359375,-0.8662136695511103,-0.0894233237453264
8.9375,0.5923563481374212,-0.37268353952109656
8.94140625,1.5815910812378084,0.6881551190956205
8.9453125,-0.3846349383641252,-0.064826969797953
8.94921875,-1.166065437258745,0.23468156056106293
8.953125,0.5506153787483495,1.2063449180925083
8.95703125,0.16346332994019536,0.26966259484238414
8.9609375,1.4111715596073289,-1.1779783364235579
8.96484375,0.23187706323269458,1.5845538309440008
8.96875,2.380198452791669,-0.3379731829821004
8.97265625,-0.13838293762226347,-0.4051380641369258
8.9765625,0.05657004543811555,0.41482128172932137
8.98046875,0.9662651071628826,-0.9868516460492373
8.984375,0.6846472418220235,0.6053195234326049
8.98828125,0.627828190772838,0.6123648065281346
8.9921875,0.8856738256345068,-0.33200897217833203
8.99609375,1.4610137677373056,-0.27370429510232275
9.0,0.67301573293516,0.44164124828793333
9.00390625,0.7086464420867865,0.7916833135898456
9.0078125,-0.8848909615266901,0.3529922775718222
9.01171875,0.0887705397646743,1.6999461763384853
9.015625,-0.12640217357662828,0.29126476514910904
9.01953125,0.8070468982021801,-0.11679184457743375
9.0234375,1.0681325200484644,-0.8802501358891321
9.02734375,0.002614858158466946,-0.29036960634266284
9.03125,1.8020231530230908,-0.812630673776062
9.03515625,-0.7090550876023702,-1.4829317751967874
9.0390625,-0.8201331737577203,1.0116322260644042
9.04296875,0.10039293554541864,-0.13382534429337983
9.046875,-0.30587348597254715,-1.1104755469433576
9.05078125,0.38481125480529543,-0.5406337384648756
9.0546875,0.6668796717225496,-0.030342368667815072
9.05859375,0.3535876001472121,-0.5862148115786534
9.0625,1.2593337973694845,-0.43784880259510434
9.06640625,0.8100688175959715,-0.2042297669214082
9.0703125,-0.975100104270436,-0.8332077765292178
9.07421875,-1.9522629706307653,0.36292427699818175
9.078125,-2.1497912601349425,-0.9429624679510493
9.08203125,0.3207715062650387,0.05088651574665563
9.0859375,-0.33982701048990305,1.811080340961282
9.08984375,0.5075691320611341,0.4914323798655214
9.09375,-0.655811911676488,-0.11453136031645757
9.09765625,-0.3359690331468182,-0.378956606955234
9.1015625,-0.4482903999665186,-0.030769493317887375
9.10546875,0.7501884145536097,-1.2588154636130773
9.109375,-0.6668812595100181,-2.353659900192797
9.11328125,0.21134564476666728,-0.6758011152072477
9.1171875,1.268558882874286,0.8459344964089393
9.12109375,-0.01368690024669902,0.4924862550564445
9.125,0.5298760455554719,0.8564211386763102
9.12890625,0.4413809245885269,-0.6746864995822031
9.1328125,2.5469784351515146,0.39942053989891757
9.13671875,0.9996277634088736,-0.14765549965858113
9.140625,-1.4079645633317122,0.08278945020369226
9.14453125,0.6314853761904664,-0.23703066406166398
9.1484375,1.0162896131540469,-0.7674356848511135
9.15234375,0.23128666777493975,1.496087922252605
9.15625,-0.18266084939381738,-2.3396072136844426
9.16015625,1.1062121181515496,2.367298390742791
9.1640625,0.6981036182035757,-0.7845417540683356
9.16796875,1.84759071633269,-0.03845572414488009
9.171875,-1.2155491255267692,0.37724575732022947
9.17578125,-0.18758704878564897,0.36062009338390205
9.1796875,-0.8907078894565637,0.46236316447600906
9.18359375,2.246385957013909,-2.548667630791712
9.1875,1.0647286540513052,0.5102691188609201
9.19140625,-0.3612336107350581,-1.2285569910967917
9.1953125,1.0118656860483006,0.07931665654429036
9.19921875,0.11485377072288487,-0.29094046813287433
9.203125,-0.8429872107595868,0.7313789607030192
9.20703125,-0.2316349939664729,-0.4734195809931122
9.2109375,-1.0748250159158954,0.8938938084721466
9.21484375,-0.25918302188942954,-1.438368030331575
9.21875,1.0334098858827014,-1.831953579866476
9.22265625,0.8190310833757339,-0.26747293229303537
9.2265625,-1.5043463690296024,1.3651898599168557
9.23046875,-3.265210987615817,0.3393552976790346
9.234375,-1.1638450504621103,0.11301026982324255
9.23828125,-0.2213610017023789,-0.3966545890708828
9.2421875,-1.7405427857826938,-1.2049561135623699
9.24609375,-0.10229885029664683,2.4637935724192412
9.25,0.1316217341223172,-0.24436613599580198
9.25390625,-0.8231998974027098,-0.23763626335605206
9.2578125,-0.4298741631217667,0.2892679477828944
9.26171875,1.8092445144505385,-0.35447748391807965
9.265625,-1.1723453690230097,0.9979717176265295
9.26953125,1.1220511891283427,-0.5627273426503809
9.2734375,0.7799182866027502,1.9940203335492745
9.27734375,1.1161799778328723,-0.6539470252114358
9.28125,0.6966136603058042,0.6126297796214678
9.28515625,0.4565657771696966,0.15640239947325868
9.2890625,-1.2473046886857637,0.21367150197662163
9.29296875,1.9030654510926874,-1.607306393000063
9.296875,0.7936631669677524,1.1242553682234098
9.30078125,-0.47878413314615537,-0.08649531440487825
9.3046875,-0.3022388228871189,-0.10396606474477843
9.30859375,-2.0769025624421986,-1.4614624661811866
9.3125,1.6266971830022463,-1.0499903963739483
9.31640625,-0.8251890551602253,-1.189808751377727
9.3203125,0.40276621346739955,1.61813742947321
9.32421875,-0.32645472522909463,0.019936509433708727
9.328125,0.08332864309977406,0.8338695469042463
9.33203125,0.3770739739582605,-0.3729799967344572
9.3359375,-0.5427616175372333,-0.11453924632986705
9.33984375,-1.1882515182273274,0.28381744433789946
9.34375,0.020935391935173096,-0.08909890808981202
9.34765625,0.869740734664257,0.7895458878271907
9.3515625,-0.47150953367735793,1.2670991032361034
9.35546875,0.5558470076163559,-1.5371842878423299
9.359375,0.2656912221769523,-0.05237902622091941
9.36328125,-1.0190497079980518,0.3398264764914682
9.3671875,-1.1964459802209986,0.5810430578161545
9.37109375,0.7864593427950515,1.9426034996993922
9.375,0.46587440078013886,0.917279379666385
9.37890625,-1.6303093991205995,0.9464815299979473
9.3828125,0.3377149315986377,0.8937191694950425
9.38671875,1.5325071697810104,0.8512519648146619
9.390625,-0.7012736809226641,0.8332670034628008
9.39453125,0.1011203457460621,1.66897446430252
9.3984375,-1.2709027728017526,1.5558210000353618
9.40234375,0.5531855676472628,0.5782215055556172
9.40625,-0.08435877731254716,-0.4348025201575348
9.41015625,-0.900886730115202,-0.32303613796448805
9.4140625,-0.5234270272602887,-0.054104460597216186
9.41796875,0.4868172178669971,1.0226340060405839
9.421875,0.3507470068017757,0.518563453507829
9.42578125,-0.8432534967854135,0.8892634836115617
9.4296875,0.5817896320441941,-0.4996480088408987
9.43359375,0.9913845571914403,-1.4962401283680598
9.4375,0.8132527125605584,-0.45425409586960735
9.44140625,-2.1126459808744045,0.7274290418971987
9.4453125,0.5937573184527747,-1.9950299639619438
9.44921875,-1.4250351059439863,0.311566940690242
9.453125,0.7869127469631733,0.39278225771241415
9.45703125,0.9012759176642937,1.7299663829745715
9.4609375,-0.7067292201426716,0.9477865941948149
9.46484375,-0.9753943378281186,0.9871065388204924
9.46875,0.7354900324413762,-0.36064961805170515
9.47265625,0.5883129877239285,0.1426590893121608
9.4765625,-0.15034341510574134,-1.448766959697141
9.48046875,1.151192618629311,-0.24062215779622012
9.484375,0.5795083137065089,-0.007028481961031399
9.48828125,-0.983852319470343,-0.7987673254969254
9.4921875,1.1927959696829953,-0.5180055575388949
9.49609375,-0.07124191550692452,-0.7151923540007633
9.5,-0.10646418631439522,1.4521710819341898
