time,ecg,ppg
0.0,-0.42626666468177016,0.3056553863761126
0.00390625,-0.45578542760034696,2.1379356789506216
0.0078125,-0.9394491331159154,1.9211704323792616
0.01171875,0.015064618084850441,-0.9220235050487463
0.015625,1.711242480014782,0.579042391846234
0.01953125,-1.093685458229748,-0.2497621312379061
0.0234375,0.6264077563100453,-1.5386242163286703
0.02734375,0.5771178446535054,-0.05127377973789451
0.03125,-1.3870818899277737,1.469128930181156
0.03515625,0.44594800066047935,-0.6570706101030656
0.0390625,-0.7331091970996366,0.35149645712240685
0.04296875,-1.039114571139568,-1.5771043658715689
0.046875,-1.6033302887863412,-1.5082576700788035
0.05078125,-1.2418094999016267,0.5709689891197157
0.0546875,-0.4266140910737462,0.9557244444062486
0.05859375,-0.9454867124525875,-0.32207664417831944
0.0625,0.34453377928258866,1.614703910003524
0.06640625,-1.5764851759583487,1.1721457720685207
0.0703125,1.3374657136364394,-0.2880896812566886
0.07421875,1.7015193844333514,-0.5023574181751833
0.078125,0.35698176627817096,-0.008417951048131323
0.08203125,-0.06445337587644592,-0.8684386694597999
0.0859375,0.8751801557781171,1.052795637998812
0.08984375,-1.4939588348038386,-1.0083533755568437
0.09375,-0.022260917865569035,-2.4795890731419092
0.09765625,-0.9885290331236036,-1.7408143627823007
0.1015625,1.9811359126685986,-1.7187642695949155
0.10546875,0.5032839580081175,1.057530831272349
0.109375,-1.0179995146812797,-3.632693861392107
0.11328125,-1.345940186884043,1.661997139359953
0.1171875,1.388802417755949,0.6291951233319975
0.12109375,-0.29685815832192897,-0.5893943658340225
0.125,-0.6402937305053937,-0.878948595566729
0.12890625,0.7633842159476038,0.6663456295750586
0.1328125,0.08710371217412802,-0.04216943665925849
0.13671875,1.472643306977324,-1.6943619607881366
0.140625,0.3808829551172753,-1.003674509471147
0.14453125,0.9301680794080308,-1.0551111199264112
0.1484375,-0.7943387815069334,0.3109819966005138
0.15234375,0.8830607756735089,1.8424556235722607
0.15625,-0.05203316373259165,0.6858463091208712
0.16015625,0.5538784903593348,-2.2497363948600575
0.1640625,0.18472739895578286,-0.8507354702411135
0.16796875,-0.26081197236602915,1.497418499933836
0.171875,0.10175703414316783,-0.9411268567751417
0.17578125,-0.4300956927054283,-0.5082694463906431
0.1796875,-1.009166759315461,-0.5568062438829596
0.18359375,-0.8265150122989907,1.0379536893235664
0.1875,1.5141266341981654,0.1748161322608448
0.19140625,-0.3720789110487876,0.5488677339614333
0.1953125,-0.18080552448141932,-1.0951600449424232
0.19921875,0.534212794962801,-0.9061297255239682
0.203125,-1.4251133948245256,3.2418189915680693
0.20703125,0.041136799644903424,2.111369846760328
0.2109375,-1.7962663734500373,-1.6935022915029285
0.21484375,0.5046134062931786,-0.6403003382654344
0.21875,-1.3278115562025126,-0.04463960624060884
0.22265625,-1.2610005055431919,-0.9581067206655213
0.2265625,-0.3696808235472232,-0.29379404208314297
0.23046875,0.02848937770264682,-0.5634572292846995
0.234375,-0.2916595306523894,0.25133842488943675
0.23828125,0.9818225249223455,3.0888014982118928
0.2421875,-0.046659313017332414,0.1731726998508839
0.24609375,0.726023985563897,0.6693584242485403
0.25,0.4587148603791838,-1.3771062823297584
0.25390625,-0.2280917767480088,-0.13152633005608297
0.2578125,-1.5109874059625423,-1.2151305507840706
0.26171875,-0.4915965471668338,-1.6629563871932322
0.265625,2.3667924564513307,-0.557226708214159
0.26953125,0.3833640864562698,1.165932711983502
0.2734375,-0.8194455799073109,-0.8212546509238521
0.27734375,0.26898898304675783,-0.4692938241219803
0.28125,-1.376029596039541,-1.8567843255384753
0.28515625,0.20562914275462044,-0.4485353784410627
0.2890625,0.9566028170247738,0.683398258214916
0.29296875,0.5236074250861306,-0.7747529225080808
0.296875,-0.8781550022869764,-1.135548007683032
0.30078125,0.6318161476514705,2.177056098829034
0.3046875,0.5571595458231308,-1.002364295101188
0.30859375,-0.4262149315889823,-3.549619290586904
0.3125,1.5022315527152972,-0.6550748342413972
0.31640625,0.0700623069747626,-0.3826941425739957
0.3203125,0.08357639095695032,1.1900341039642144
0.32421875,0.9463115058215779,-0.7384308374821776
0.328125,0.850454055639705,1.770841996374385
0.33203125,1.024162638731896,-1.1378087077764738
0.3359375,-0.4845107728237998,0.20677889725586548
0.33984375,-0.4754716815659909,-0.020680382307752754
0.34375,-0.46517968256756803,1.0473741333477602
0.34765625,1.4850266611901957,-0.14351214836755802
0.3515625,-0.6618234478643499,0.20090471043942454
0.35546875,0.6173620271311094,-0.7591433194843582
0.359375,-0.8320833328388395,-0.49659805752807556
0.36328125,-0.33370623397834687,0.2369509096777212
0.3671875,1.552192872932535,-0.28409774619137457
0.37109375,-1.189912261037015,-2.0239243928467356
0.375,-1.0020730023184967,-1.33726080992169
0.37890625,0.847283541225933,-0.6949627221343758
0.3828125,1.7860044069873215,0.2930817251705591
0.38671875,-0.17617703379044142,0.4918803024467936
0.390625,0.8326591074245547,-0.7484647684759471
0.39453125,0.0044244059123165706,-1.2314418659416144
0.3984375,-1.3992093942002168,-1.4153872475471376
0.40234375,-0.5301117583825266,0.37608708048267714
0.40625,0.2529616528889445,-1.582346113305398
0.41015625,2.5655540865337416,-1.247436436250123
0.4140625,-1.0190054277250482,0.23823737178527465
0.41796875,-0.005964355294695762,0.14840698230154079
0.421875,-0.034444711021194244,-0.5214323969374958
0.42578125,0.42367123304243814,0.2661837162665773
0.4296875,0.7447883284934501,0.7142268381632725
0.43359375,-0.10673154932048877,-0.6043683409661806
0.4375,0.6235989539249952,0.44885167839001794
0.44140625,0.5080856452778278,-0.6608602231332285
0.4453125,-0.8136104431196427,-1.7405763298431598
0.44921875,-0.9362850186392845,-0.18837893122982519
0.453125,0.03504656195819986,-0.26902946688596524
0.45703125,1.1342487358041047,-0.4789080867439465
0.4609375,1.423725385300614,-1.2738856292506142
0.46484375,-0.8733612845532374,-1.6301436547527006
0.46875,0.8738049614749293,-0.2904994726831549
0.47265625,-0.31273039077234727,-0.8742142475535468
0.4765625,-0.08196612150173006,-0.7999792234257828
0.48046875,0.6284399335577068,-0.43558561184252137
0.484375,-1.1425299549677816,-0.5705722646646545
0.48828125,-0.9277148982645229,1.0198121524394386
0.4921875,1.1460272209955316,0.23170934417377093
0.49609375,1.1984623660914457,-1.0036105306496335
0.5,2.5716705374686044,-0.5485616407015779
0.50390625,1.0763034334028834,-0.4869108209201764
0.5078125,0.40937493844417105,1.319270030126559
0.51171875,-0.8402650990283961,-0.34839251942753174
0.515625,0.011500793086661893,-0.38108309039216437
0.51953125,-0.8072331432577505,0.4207609327134899
0.5234375,0.7023696032584127,-0.10928283705546987
0.52734375,0.624535939047245,-0.19450115160379522
0.53125,0.7186160279070707,0.31316103539366025
0.53515625,-0.5759180912067688,-0.9179138041261443
0.5390625,0.9841922241040754,-0.46573751578389067
0.54296875,-0.5639600310343221,-0.11550869641171488
0.546875,0.19635668739438733,-0.26867894317523594
0.55078125,-0.14374654885246896,1.5428792280568393
0.5546875,0.18458504937105547,-1.3709545841643316
0.55859375,0.7921895210048451,0.056872662758398494
0.5625,0.9505287604559973,-0.16419659644792908
0.56640625,-0.19841926983998578,0.10457885776731705
0.5703125,0.23371749930790214,0.8996827671539603
0.57421875,-0.7435335701110416,-0.16473639091295686
0.578125,0.0010671210036822829,-0.38612387229854905
0.58203125,-1.81622383632394,0.6469617416739754
0.5859375,-0.6029925078773173,-0.021515045955673526
0.58984375,0.1981553058783241,-1.5115118552911095
0.59375,0.6004364669086836,-0.2524213848860936
0.59765625,-0.7442175823103997,0.21088135444596331
0.6015625,0.5488998598556755,1.3099717705060208
0.60546875,-0.9741891065357401,-0.15433447973445988
0.609375,0.3507857340444163,-0.4043496102839596
0.61328125,2.8304759530712555,-0.2712408552174306
0.6171875,1.173825808217424,1.586936049576018
0.62109375,-0.20101680822718937,1.8250678063016421
0.625,0.097105915894018,-0.5400250727309682
0.62890625,-0.8139864591942091,0.06958199607973196
0.6328125,0.6459071822429634,-0.16837088829527402
0.63671875,-0.24812483705946356,2.3021862667744037
0.640625,0.9627899220707928,-0.21290182475009228
0.64453125,-1.202436303414894,0.8382558202605949
0.6484375,1.1364856579852702,-0.505747582609845
0.65234375,-0.140479837456627,0.7171240288124149
0.65625,0.46048867363700546,0.30779578709130007
0.66015625,0.32306604408001777,0.4658372764186909
0.6640625,-2.5644023788047425,0.17203372982731419
0.66796875,-1.015473301271092,-0.3318673874464228
0.671875,-0.25665510416197784,0.8578250704415724
0.67578125,1.5323173389578815,0.17035789415069155
0.6796875,1.9091547613427247,-0.3629630258983823
0.68359375,-0.6918498587706366,-0.4027871012478424
0.6875,0.6530493564864313,-0.4255016398939625
0.69140625,-0.16717394915870967,-0.6180701450661982
0.6953125,0.5867510677546441,1.9576104520177184
0.69921875,0.6962104236043153,-0.7091749924018871
0.703125,-0.531620018498282,0.44347291384337567
0.70703125,-0.28184829411962886,1.3879529806526147
0.7109375,-0.5854891584083084,0.06894888763302578
0.71484375,0.5039009581952303,0.42857859697773043
0.71875,0.9014066541972111,1.8722633715518986
0.72265625,0.9460163674255976,1.4151335894700545
0.7265625,-0.21035009630216006,1.2587713771812141
0.73046875,-1.2679358186605922,-0.866933637699701
0.734375,-2.261167338606689,0.04669103326943616
0.73828125,0.1603049106690565,0.2562126971735885
0.7421875,-1.18055054578417,1.3496060454325918
0.74609375,0.4370168256686543,1.9442884745653564
0.75,1.3392669540623745,0.021459019898974644
0.75390625,0.14966937724195886,-0.84640580120051
0.7578125,-2.031220793742019,-0.278895733153909
0.76171875,1.4586453970132032,0.6568408528749027
0.765625,0.3565542421643903,0.09087012545498731
0.76953125,0.21341962558217326,0.05061247775958094
0.7734375,0.27077157439851446,-0.9091082775957015
0.77734375,0.6328185750813883,-1.3852065436883527
0.78125,0.7890658465821648,-1.1859437197501235
0.78515625,2.2302251392514805,-2.425450902526956
0.7890625,3.004952211474674,1.6976748643212947
0.79296875,0.19451073303539376,-1.0910505597805782
0.796875,1.2843167665758135,2.1722725871291835
0.80078125,-0.6489724939163906,0.3948761885666174
0.8046875,1.5019657781266154,-0.21781058532926006
0.80859375,0.060799425701242846,-0.5330771787217906
0.8125,1.1199168268628765,-0.4860015757098817
0.81640625,1.1666170551077082,1.2853606015991434
0.8203125,-0.21391838623679907,-0.9233128806532962
0.82421875,-0.4352322971047553,-1.2721411779752958
0.828125,-0.5614193377167453,-0.15515256639958688
0.83203125,0.4971793621058748,-0.6324553984215041
0.8359375,-0.535440064940904,0.08929886055530324
0.83984375,0.07659823256583402,0.5098402209193001
0.84375,0.2767385686660731,0.5253420429062245
0.84765625,0.2180220712164475,0.8118741197861853
0.8515625,0.6214715665697436,-1.0909056288222534
0.85546875,0.8740093728329617,-0.4224689526680064
0.859375,0.7540390399600566,-1.0190071056289656
0.86328125,0.3241043584400192,0.4801413642359404
0.8671875,-0.5854096665441549,-1.1579948970535698
0.87109375,0.34568486530706005,-1.2381517383208198
0.875,0.47549730359253184,1.2752919578421877
0.87890625,-1.4267843874453363,1.2013422109201215
0.8828125,0.1349314272696945,-0.17117699988448523
0.88671875,-1.3540139429677327,2.5139403323749923
0.890625,1.6836015461751008,-0.5626640589908488
0.89453125,-1.8004584857614243,-0.8505661781750915
0.8984375,0.1252603060172511,-1.0305132460763442
0.90234375,0.2592563282553364,1.6550465312291984
0.90625,0.500061054450703,2.2760083521835086
0.91015625,-0.2321943693456285,1.2046406380598038
0.9140625,0.5803552527518212,0.05470876466876481
0.91796875,-0.8847088517410863,-1.0336744640740598
0.921875,-0.23238414021850975,0.5614085227897427
0.92578125,0.9081198783034643,-0.2964971209803214
0.9296875,-0.8588616214603413,-0.537633653734342
0.93359375,1.1168392275745371,-0.38944997755770105
0.9375,2.3282939442767,0.26690803913083344
0.94140625,0.4339287694593887,-0.2632717250774459
0.9453125,0.8474821214691239,0.32587529670559506
0.94921875,-0.5166683557412731,1.608566710539824
0.953125,0.38090865957248526,0.9804944711315896
0.95703125,-0.7041836616923013,0.1976912042788623
0.9609375,1.3054966909294943,-0.3073031035797503
0.96484375,0.0216627962347321,-0.379655490854599
0.96875,0.4891136804697738,0.9675886628421213
0.97265625,-1.23676089391143,1.0891260993655592
0.9765625,-0.981177700880425,-0.472352875149165
0.98046875,0.5449917552129929,0.886412531135254
0.984375,0.6065640533133911,-0.5003107684295222
0.98828125,0.07290489324288997,0.5514692371937526
0.9921875,1.0876546668266658,-0.5583345786012174
0.99609375,1.4989414709939721,0.5860925958228639
1.0,-1.1617062881646862,0.935431422424243
1.00390625,0.5734176479357935,0.6456699367853677
1.0078125,-2.442757073572222,0.8469210341450556
1.01171875,-0.4599557503769993,1.464826638582882
1.015625,-1.8332321626654413,0.5077416695174373
1.01953125,1.5900612306150155,-1.3356349264980718
1.0234375,0.11793067123230057,0.0005566010762750798
1.02734375,1.3252649743783482,-1.6080318960879052
1.03125,-0.8561971775596285,-1.5911476425463595
1.03515625,-0.3082410575815236,-0.5906066989030953
1.0390625,-0.15206260535391802,-0.847638653848635
1.04296875,-1.6847521506983303,-1.6124681664331457
1.046875,-0.6946610915089526,2.109460279626704
1.05078125,1.3724846215764908,1.0443183907252243
1.0546875,1.2193189051998308,-1.8224791447683741
1.05859375,-0.20496216553484628,0.13331685606645835
1.0625,0.21206004950903273,0.19702537679054627
1.06640625,-1.725683109625473,2.167704818508975
1.0703125,-0.8728350177122249,0.714969931061678
1.07421875,-0.0982202509206547,-1.282201063454342
1.078125,0.5627750802270076,0.14442611055680257
1.08203125,0.5551814582889726,0.21554866980763002
1.0859375,0.37283527988040055,-1.2997141642656738
1.08984375,-0.332168120409781,-0.18372907761507312
1.09375,-1.1072543766792504,-0.8450785449898548
1.09765625,-0.6342030795741866,1.0913781649600505
1.1015625,-0.08059672057571536,-1.5932106493788687
1.10546875,0.7563896814470199,1.6808782332327077
1.109375,-2.558865186081606,-1.0114746750077486
1.11328125,1.5501080276619208,1.1272119514841523
1.1171875,2.1962098137951416,1.1658803841390617
1.12109375,0.7212753723317024,-0.12073833381592469
1.125,0.3194439697811425,-0.9910081782317418
1.12890625,-0.6951393456021085,-2.9201521300421196
1.1328125,0.5160634652680017,-0.17170467702888348
1.13671875,0.18192875689168742,0.4084807342479548
1.140625,0.4247795856825109,-0.37923481834780676
1.14453125,-0.6240656036602702,-0.47680180954163653
1.1484375,0.9934201628961978,0.8722698871593539
1.15234375,0.01870084043202742,-2.2683817450702524
1.15625,-1.1698342630133216,2.0908744018064587
1.16015625,-0.548103803441502,-1.010264601087478
1.1640625,-0.8236947882342966,0.5994481442628417
1.16796875,-1.4672308534013605,-0.059475536038045354
1.171875,1.7224039769317363,-1.0321488097627773
1.17578125,1.3521908591449914,-1.884229018326927
1.1796875,-0.8641690736852838,2.113890415698927
1.18359375,1.6342077335125103,-0.5381832921706934
1.1875,-0.6190460686024783,1.1195971996259504
1.19140625,-0.4131204421661995,0.7437122241416902
1.1953125,-1.4019582450826888,-0.7488840898331628
1.19921875,-0.019561505947574175,0.2872403208661417
1.203125,0.25165418508620796,-0.24692495947956608
1.20703125,0.7697719621233554,-1.1193787148378715
1.2109375,2.1650913908928224,1.3181463395220565
1.21484375,0.1309398969101872,-1.1274501035114257
1.21875,0.6775305540251302,-0.3254536726438204
1.22265625,0.2946449981233246,-0.1578750605164887
1.2265625,0.028659133457426562,-2.099987765953629
1.23046875,0.25595777984238777,-0.12652802956766382
1.234375,1.1273630709020586,-0.09511431705778053
1.23828125,-1.814320542968281,0.4365084609167936
1.2421875,-0.46997523176355177,-0.1334023427174422
1.24609375,-0.3556422360523812,0.3187755054668914
1.25,1.7068733172679262,1.678810822876048
1.25390625,0.3523010274198834,-1.0665514770328406
1.2578125,0.8076567109329327,-0.9900010212626206
1.26171875,-1.4015985550773387,-0.14747647032097036
1.265625,-0.5508729586106729,-0.3056564016077363
1.26953125,0.19589478176629604,-1.3192175152703969
1.2734375,0.31122178928943617,-0.7418284328101447
1.27734375,-0.06603592296427434,0.5588267629967733
1.28125,2.126521070331538,-0.30644182891514016
1.28515625,-0.15226145820102954,1.4520801524530156
1.2890625,0.5669867982385371,0.14503499501247724
1.29296875,0.9697252083995664,-0.7107812330440222
1.296875,1.5697666138223374,-1.238947927228583
1.30078125,-0.9763621001408755,-0.06300686559345452
1.3046875,0.32350323317324864,-0.3863297717681287
1.30859375,-1.1060666044731204,-1.7798018247794223
1.3125,1.2193185282992023,-0.8772569250632384
1.31640625,0.2162969617683927,-0.8697258947115206
1.3203125,1.105551248360484,-0.1040606006491308
1.32421875,-0.3966938038965934,-0.5828597977489539
1.328125,0.5323827759182633,-1.7857523753319509
1.33203125,0.5675847067096097,-0.14744051622933854
1.3359375,-0.7217831288258875,1.8001650054156064
1.33984375,0.0009090561990613805,0.6832501710811867
1.34375,1.3536387768722289,-0.45918838230119274
1.34765625,-0.46696785897012016,1.3796251822250787
1.3515625,1.1168352747259198,1.6315856643731823
1.35546875,0.19919577005429434,-0.6822367103233739
1.359375,-0.20687608719149647,0.5289137017250026
1.36328125,-1.618407738128242,0.28056812961759386
1.3671875,1.281517342499427,-0.9639574518320193
1.37109375,0.5829745552207237,-0.8887145119283053
1.375,0.2553887543191467,-0.8394500212213091
1.37890625,0.7196989394111016,0.22389294327893497
1.3828125,0.18613639795603162,1.0224146891303392
1.38671875,-0.8125323680129786,-2.174570805646098
1.390625,-0.30006126444527104,0.7028601760320087
1.39453125,0.3137788237989996,1.138760385419148
1.3984375,0.31686632453446567,0.95902515157772
1.40234375,-2.134370903626962,1.4572757837216883
1.40625,0.1113354408282854,2.5852842333366217
1.41015625,1.6160698868138035,0.6455715167481847
1.4140625,0.7058694404317315,1.0203694525412355
1.41796875,1.6248398844383372,-1.5558382840053853
1.421875,1.0232698892426546,-0.5698835495389669
1.42578125,-0.22064170434398284,-0.7298548040485489
1.4296875,0.4637610300693258,-0.2608396263807351
1.43359375,2.5853396698348448,-0.7199552958348587
1.4375,0.659480845114645,0.155262357434926
1.44140625,0.023658651823024294,0.5008589778781637
1.4453125,-1.317728368413416,-0.834235239227602
1.44921875,0.10320541220521173,-0.32880174007829166
1.453125,-0.7404656345908196,-1.2870567596500453
1.45703125,1.523133247802469,1.9788138544741376
1.4609375,-0.7027232330246188,-1.645949873374655
1.46484375,0.33216519300096753,0.021694836643447648
1.46875,-0.4664320611432763,2.3230019858064677
1.47265625,-0.9373619099962376,1.7484436673775117
1.4765625,0.009246659086821407,-1.253355235060881
1.48046875,0.6141318145168103,0.25878577834610095
1.484375,0.9413566088491176,1.133398886108066
1.48828125,1.1806063470163373,0.8174068908493107
1.4921875,0.9852721070758625,-1.3591720966536964
1.49609375,1.1840242591000385,-1.8019715440549302
1.5,0.0909628393301311,1.386196623647447
1.50390625,-0.37692067089597847,-1.1130842169815516
1.5078125,0.10414741556117989,-0.25390617107025815
1.51171875,-0.12016292779066823,-0.8649932096181734
1.515625,-0.22871859832079083,0.20070567064720626
1.51953125,0.3279500373117769,-0.5994033442876194
1.5234375,-0.6706766182900299,1.187047897395869
1.52734375,0.37243820356202606,0.3233686937346986
1.53125,0.19128592583257087,-0.9296736676124252
1.53515625,1.413783744786267,0.9379609286278167
1.5390625,1.5720261463916432,-0.7921937231674315
1.54296875,0.6608492992906092,-1.0233428568152123
1.546875,-0.49294509428532934,0.5392886149813855
1.55078125,0.06629177436629262,1.2685457165735519
1.5546875,0.6716491912394743,0.13075344069787298
1.55859375,0.890841127905321,0.10700617771109179
1.5625,-0.10276531677219196,0.37894489411609
1.56640625,-0.5071331890928598,-0.143920944438327
1.5703125,-0.9749852870130226,0.9291022663883372
1.57421875,0.4336294707349219,-0.22585457561945513
1.578125,-1.4126761486073918,-0.5708450308959226
1.58203125,0.6834698557669894,-2.8298351477286023
1.5859375,0.9135471656980321,-0.9469654572812615
1.58984375,2.1011656838794224,-1.3241837122606577
1.59375,-0.5875165359351406,0.7023095590689988
1.59765625,0.5430231101990113,0.2872612394612597
1.6015625,-0.22221284160404559,0.5319866977584633
1.60546875,-1.2216552318038558,0.4446122594685486
1.609375,-1.0468467203476144,-1.4569215807515448
1.61328125,0.6679386807792366,-0.5003543983159883
1.6171875,0.6040783159786122,0.5221480877980924
1.62109375,0.29909421216656346,0.5323658812848907
1.625,0.9415440442703757,-0.24074384186822217
1.62890625,-0.4075390784832777,0.44578415957938394
1.6328125,1.304155601045346,1.7809228885532098
1.63671875,-0.6919930108991124,-0.1904415109317097
1.640625,-1.520527790708769,-0.5105622311455444
1.64453125,1.6238278356293916,-0.4728323263887112
1.6484375,1.004019306461952,0.5733718916488814
1.65234375,-0.10394419708165195,0.43434516372050835
1.65625,1.135132108114879,0.24480236828940588
1.66015625,0.0873383570852447,-0.822076352323622
1.6640625,1.788410553824131,0.16508728357841052
1.66796875,-0.7320988270625018,-0.7098665652386897
1.671875,0.6928409218977452,1.4677087193842804
1.67578125,-1.9435185125258811,0.4955687887461415
1.6796875,0.6856094609334649,0.16440025789971555
1.68359375,-0.5086549312038863,-1.5841234953254153
1.6875,1.351302665085151,0.07241224912611549
1.69140625,0.6871108722784632,-0.42956334451109474
1.6953125,0.10166570377260584,-1.1325787926933968
1.69921875,-0.8879070894438306,-0.6738144089655208
1.703125,0.9045428880102633,0.9332070521221791
1.70703125,-0.1665207288976955,-1.3044409457610564
1.7109375,-2.1301154038475487,0.17923968490716258
1.71484375,0.1143822879640383,1.1349603165682076
1.71875,-0.08455631629884568,-1.7820501646006326
1.72265625,-1.3404615519707053,-0.04292526175351834
1.7265625,-1.0665876795968066,0.05413154370058769
1.73046875,-0.5943036410081407,0.14692342989836912
1.734375,-0.6487677168586685,-1.5490374889196963
1.73828125,0.030978651897973913,0.17249695376177937
1.7421875,0.6591836256876664,-0.0895948117199779
1.74609375,0.159783582125978,0.9801227875056262
1.75,0.08010554266740656,1.1806491503218186
1.75390625,-0.026338159743311728,-0.3033809509030478
1.7578125,-0.2972674267236912,-0.8713811881361553
1.76171875,-0.36910576972905984,0.1434116179173848
1.765625,-0.6374767219084003,-0.07348772488834215
1.76953125,-0.10060553347529044,1.5711427168928624
1.7734375,0.0205008417819746,0.423923268488735
1.77734375,-1.3546281218212937,0.7656930550711594
1.78125,0.1580663854869218,0.02545380838666225
1.78515625,-0.3650209630326268,-0.9049002746547932
1.7890625,1.026229199305832,0.46069138851355684
1.79296875,-1.1343750441632667,1.2189947405816661
1.796875,0.08850522671526012,0.7817611938830857
1.80078125,0.4897241911849716,-0.8527806623547094
1.8046875,0.23948154927479867,1.5667206176940582
1.80859375,-0.7214265980326359,-0.7492006467463446
1.8125,-0.8213347285818102,0.9500282863120614
1.81640625,-1.2399479727566147,0.3437885168924465
1.8203125,0.13637833917547265,0.420688433916978
1.82421875,-0.3094646480190014,0.7357422702886177
1.828125,1.302047007508864,-0.38349302416868003
1.83203125,2.5098607667510016,1.3285924441109305
1.8359375,1.9262242520855726,0.45065340925643915
1.83984375,2.2375828551209382,-0.19508842927605255
1.84375,0.19404037893588552,0.28778098220619625
1.84765625,1.3589083932554,1.8907078121237928
1.8515625,0.01509424160255778,-0.5205296355881665
1.85546875,1.0286867872801249,0.675052351194374
1.859375,-2.2638097019135475,0.29833638053744094
1.86328125,-0.1717473997303078,1.5910784680832615
1.8671875,-0.9736040003900593,-1.0894080648432658
1.87109375,-2.0992546730708317,-0.029779275499392188
1.875,1.4913202082817276,-0.8578791879409023
1.87890625,-2.0326111885425617,-0.15663908229057064
1.8828125,-0.2748682649710831,-2.2235957138229656
1.88671875,0.39777577904780054,-0.4245635479496613
1.890625,-1.0215031733329099,0.8655699298903052
1.89453125,-1.3214121848873783,0.9524899036861163
1.8984375,-1.1740031356628602,1.3576732648614787
1.90234375,0.9009392565005744,0.19192685204159826
1.90625,1.3570351890227634,-1.3318345206098323
1.91015625,0.0998042428272149,-0.48210947688735173
1.9140625,0.5902110979669113,-1.0943692475303997
1.91796875,-0.3147404109096348,1.1940005600030676
1.921875,0.3737498817069443,0.12681996299883572
1.92578125,0.6960264941370217,-0.33786456873331094
1.9296875,-0.5585128558422441,0.22484844950630756
1.93359375,-0.8539438305270128,1.3561262112778336
1.9375,-1.5627957179059442,-0.11236387749872842
1.94140625,0.735406099963683,-0.41161419323395015
1.9453125,-0.989536789751049,-0.1448050141266644
1.94921875,-0.14842914427752243,0.5914258955416821
1.953125,-2.208973875149198,-0.5103713182908775
1.95703125,-0.3094998458205242,-0.057419611642232554
1.9609375,0.8468807271716284,-1.6534241025231322
1.96484375,-0.950849468553726,2.0897049595576314
1.96875,-0.9083821048236438,0.36648891458434074
1.97265625,0.6947674059633394,-0.5258323592678565
1.9765625,1.5055312583564617,1.024625666377179
1.98046875,-0.9571452386492217,-1.2733150521726087
1.984375,0.05153602488222051,-1.2440765511225849
1.98828125,-0.5974933709180859,0.22326250050599575
1.9921875,-1.133223656569715,-0.9415911867684559
1.99609375,0.6743424911384487,0.22917029453420476
2.0,1.2001411666625792,-1.9739417762327551
2.00390625,0.4675022840386834,-0.8043775603960811
2.0078125,-0.6610383046153876,-2.028497933891905
2.01171875,-2.184524359280098,-1.8443594876300473
2.015625,-0.9700161390140206,0.1025878532307351
2.01953125,-0.41685820444040633,-0.3094402592633441
2.0234375,0.14324902071181633,0.8929016900469029
2.02734375,0.7181518629175773,0.4350831192457794
2.03125,1.217384841051799,-0.7140223216161617
2.03515625,0.3203886174478279,1.0431011500760317
2.0390625,0.3173752865134834,0.6301524814406977
2.04296875,0.7933475434081954,0.21787546895657284
2.046875,-1.1668593093069461,0.977006460729509
2.05078125,-1.5115671580066334,-1.1907122461985167
2.0546875,0.9520777767885213,-0.18002373412241618
2.05859375,-1.1660689290717277,-2.078430108736025
2.0625,-0.31421980718578785,0.008066277925124099
2.06640625,-0.6088806098073704,-1.9291957410175045
2.0703125,1.553625683281828,1.9586109207308473
2.07421875,-0.6947878332594749,0.028829156295608074
2.078125,-2.349454350226808,2.1382694452756392
2.08203125,1.4226650104385787,-0.4776934269332505
2.0859375,-0.6736770997529448,0.8859911835320644
2.08984375,0.0021040079828554326,0.13904367024526765
2.09375,0.8094357960028715,-0.35600318105129747
2.09765625,1.294252463800823,-0.15989000230976771
2.1015625,0.773084099671114,-1.7142888788985815
2.10546875,-1.483348821009025,-0.17768106092292663
2.109375,1.1884598779002606,-1.1369452308634322
2.11328125,1.6901713560530796,0.2669126566651517
2.1171875,-2.359710817317576,-1.972931881307515
2.12109375,-1.036528873387464,-0.0319104884896791
2.125,-1.1340847329645538,-0.7435303624683742
2.12890625,-1.9703316992191868,1.7787639326332396
2.1328125,0.5250579478917567,0.35491561934652593
2.13671875,-0.09223224350503703,0.2870906846163235
2.140625,-1.6750107529673766,-0.4847340022698308
2.14453125,0.3525116382541099,0.5835837594381382
2.1484375,-0.8648634486107665,-0.3407022501572402
2.15234375,-0.9180131522557335,1.8539964307966725
2.15625,0.06553084344073869,0.053125325246194406
2.16015625,0.16992146718210516,-0.7295548808364852
2.1640625,0.5489850176855495,-1.288007635579992
2.16796875,0.828378431613191,-1.4117611228126492
2.171875,-0.26385822434694617,-1.3468237104906093
2.17578125,-0.9094114423391986,0.9676463125045563
2.1796875,1.0918711831474646,-0.5454512953716307
2.18359375,2.0673504710195902,-1.7524445604074093
2.1875,-0.7213588931734459,-0.1751142478216343
2.19140625,1.7330506772473602,-0.4729520994356915
2.1953125,-0.38256066479856893,0.25838398717091116
2.19921875,0.22604759956702825,0.6920963831933236
2.203125,-1.6636281086312517,-2.1477972794604874
2.20703125,-1.4199599227351287,0.34755231277621806
2.2109375,-2.507626318157108,0.22149464322504192
2.21484375,0.143612071831709,-1.5770443383045598
2.21875,-0.014345778444436734,0.8126392530778376
2.22265625,2.2832737292268046,-1.0118743569749542
2.2265625,-1.6855669395861697,-0.025576950048582944
2.23046875,-1.3429710894443407,0.699769464224402
2.234375,-0.13366963003727697,-0.6200394681475323
2.23828125,-0.12449704480214918,-0.27743601024592396
2.2421875,-0.2070505414654397,0.7099058565985191
2.24609375,1.2218066480159933,0.13110947342341203
2.25,0.19707065386999367,-1.0069339686258822
2.25390625,-2.0905114861782756,1.2228358135034134
2.2578125,0.9258909851102152,-2.413859833906682
2.26171875,-1.0561230244954687,0.5613804036950513
2.265625,0.34506578442622526,0.35713007279949166
2.26953125,-0.21739634849806966,0.39138859927772374
2.2734375,1.7349185719149893,0.08941510142133335
2.27734375,-1.2985922012261242,0.09446176085981058
2.28125,-0.40159450999539664,-0.8054356935966104
2.28515625,-0.9668793291402351,0.3253301564081029
2.2890625,0.3501381410936632,-1.6355235008509226
2.29296875,1.3298373735847673,-0.5792715944931525
2.296875,0.4614143265688571,1.2726813784130733
2.30078125,0.2002268552905467,-1.6889049119825237
2.3046875,0.013434175661060383,0.48176574827120844
2.30859375,2.1820540194735156,-0.5013068697117345
2.3125,-0.22115413624826305,-1.5344162449472483
2.31640625,-0.16182268264395352,0.9053795414501269
2.3203125,0.33589128035991034,-1.6016959242105668
2.32421875,1.6086430232458466,2.2020505480851846
2.328125,0.5420480013520211,-0.0017956886066007912
2.33203125,-0.5290648861881688,0.3094168799555555
2.3359375,1.3153138434596106,0.5037120353335188
2.33984375,0.530213737686604,0.7557187067054472
2.34375,0.08869284623164875,1.5623418663791806
2.34765625,0.5789983676271057,-1.2192793871190661
2.3515625,-1.3604528296392397,0.4374760928604547
2.35546875,0.3840827162362638,0.032555196906314435
2.359375,0.05559842722085803,0.7219586623899249
2.36328125,-1.2228196005494572,-0.1633561289019004
2.3671875,-0.9022237857239933,-0.3062117397760991
2.37109375,-1.7497521811028123,0.5056003176711723
2.375,1.0582871640883393,-0.7755950176597541
2.37890625,0.9615121600315585,0.9813970934593409
2.3828125,0.7622669916732198,1.3945607786243015
2.38671875,0.6249741541123646,0.44582941734702725
2.390625,0.4792184067069971,1.870881137356824
2.39453125,0.9791530935945041,0.8640607379222291
2.3984375,-0.03560259779765454,2.2243219664954426
2.40234375,-1.8169422223512666,1.2192790271773588
2.40625,-0.4694173216106867,0.19390219211228918
2.41015625,-0.30705315873398087,0.7709154207761753
2.4140625,-0.9772510330846257,0.37984852149989135
2.41796875,0.5115495689379672,-0.39571907055876326
2.421875,-0.1492815831138865,-0.8601306924463671
2.42578125,-1.5176392217432004,-0.8694498127081269
2.4296875,-0.02225153350972075,-1.3877048967780141
2.43359375,0.6622575153707447,0.7348228997824621
2.4375,0.35147012352493084,0.5719705100179768
2.44140625,0.4406360314302673,1.121318479426558
2.4453125,1.9853787276070824,0.944324494328809
2.44921875,1.8069550146092783,-0.18872971807158967
2.453125,0.18838874283860935,2.368192508592959
2.45703125,0.8982193645540172,0.11052582248963222
2.4609375,0.9708808426351914,0.4085352005859735
2.46484375,0.9370926191268263,-1.347166002705328
2.46875,-1.455984518267504,0.3640218039852753
2.47265625,0.249457627966548,-1.1760011328690754
2.4765625,-0.5879552998565276,0.09571105634403893
2.48046875,-0.07174733815125314,-1.0259534020832535
2.484375,0.6176053203490186,-1.2521230877349774
2.48828125,0.5756200886368439,0.09235703897065523
2.4921875,-2.210158354346414,-0.5311061309350305
2.49609375,1.5756340963325963,-0.7462568439732118
2.5,-0.06876742009167397,-0.4314617991140507
2.50390625,-1.082997866552,0.8750769243533814
2.5078125,-0.33671361764521746,-0.7386179411438633
2.51171875,1.3805562046728304,-0.888428366545666
2.515625,-0.0784087634732783,-1.2423804058340646
2.51953125,-0.11656386463004047,0.7594839097491988
2.5234375,0.8898446488706961,-0.14760697436190773
2.52734375,0.08917144199378313,2.431006123095036
2.53125,-0.6442533513408134,-1.3586005729234987
2.53515625,-0.6124333896044574,-0.8956303578867678
2.5390625,-0.931228649277713,-0.6747725294416367
2.54296875,-1.0643958990098283,2.007966811754092
2.546875,0.4494568595816842,0.22200202972370878
2.55078125,1.1213576631160225,0.9217214933129207
2.5546875,0.7048967503488122,0.8315471028328915
2.55859375,-1.2149814911564571,-0.49136327076767855
2.5625,-1.68880874851622,-1.2194725581362909
2.56640625,-2.2316214540219645,-0.8024489112146311
2.5703125,-1.2333123685652287,0.6973078096554736
2.57421875,0.6288359620911397,0.894501974888925
2.578125,-0.09562109209644916,1.2250198381541746
2.58203125,1.3260282063149582,-0.3712871615649008
2.5859375,0.0671582589421077,-0.8529364182952861
2.58984375,-0.5254358937695516,-1.4159242167721646
2.59375,0.5565832999867454,-3.2074617211437975
2.59765625,0.3071839809472367,-0.1941613882322014
2.6015625,-2.18351915701221,0.9750302094904997
2.60546875,-1.545952454300319,-0.03721133547948958
2.609375,-0.230678096252895,1.0948405389375266
2.61328125,0.22447244011610346,0.4459910963724348
2.6171875,1.252585657604924,1.134724175094085
2.62109375,0.2673416954451572,0.06569788758738924
2.625,-0.15114485564311347,-0.1475231804830876
2.62890625,0.15696397899223746,1.0604963633347015
2.6328125,0.7405130172066318,-0.21428321922555307
2.63671875,1.7422038355281624,-1.7068110462150266
2.640625,0.17125364797826823,-1.6130186342521207
2.64453125,2.3346466306538334,1.029189376351136
2.6484375,-0.02895819172596104,-0.747711669061866
2.65234375,1.4291236258418505,0.5386255784639004
2.65625,0.9514498609514644,-0.6649457284324036
2.66015625,0.1257495139531557,-0.7863871407974778
2.6640625,-1.3365324384093213,0.657506059813588
2.66796875,1.819144185279104,0.23326659731307042
2.671875,-1.3147196865288469,-0.7207531732691347
2.67578125,0.32930962680857906,0.555819911828029
2.6796875,-0.12043646277109676,1.696373178323942
2.68359375,0.5094204452739592,-0.01301275273495447
2.6875,0.15768224546785176,0.03907363231121401
2.69140625,-0.8797385620285588,-0.5612306747709686
2.6953125,0.2309905799859756,-0.06141958073001122
2.69921875,0.16440655298010126,0.2317454642798581
2.703125,0.6009951667320703,-1.2347269245983228
2.70703125,-0.11377164386264688,1.593600353841903
2.7109375,-0.09910942322374432,-1.0105733498288958
2.71484375,0.2219047751900172,1.879496564292304
2.71875,0.37670633434256684,-0.21025897815528646
2.72265625,-0.16502858553869315,0.2325264250163419
2.7265625,0.17808053455077189,-0.28070682351615894
2.73046875,-0.29760950852460183,0.38699788574897276
2.734375,-0.5594666820417207,-1.6432429536755178
2.73828125,-0.8762181025092765,-0.5217134502551964
2.7421875,-0.5534086212220616,1.0236418250244461
2.74609375,-1.3829654407677119,-0.8459539327202954
2.75,1.5361017660318073,-1.4761590503174729
2.75390625,-0.1757492060002383,-0.3863831257992789
2.7578125,0.12963569744896847,1.1675900681129563
2.76171875,0.17782807996682953,-1.2471428579040247
2.765625,-0.028670547868554646,-1.882454626485752
2.76953125,-1.7300353607153667,-0.025490612359418807
2.7734375,1.3728572441872884,-0.3293660558875255
2.77734375,-0.9101816779863496,0.7449019859961263
2.78125,0.29583430903147306,0.06647200421130312
2.78515625,0.36318612690486024,-0.12150635554164166
2.7890625,-0.4998774332625771,-1.3885574414496562
2.79296875,-0.9188994355500938,1.0229242717236737
2.796875,-1.529863596652171,-0.9962561074287123
2.80078125,1.6724892811605139,-0.06943158916495565
2.8046875,2.00115101004528,0.245991485652594
2.80859375,0.7034941548621383,0.7811676901096588
2.8125,-0.2127288806026159,-1.2495109575962469
2.81640625,-1.3796725675088324,0.8375350285794702
2.8203125,1.5168602911011955,-1.1383042033386688
2.82421875,-0.11254722674724209,-1.2908282185105835
2.828125,-0.5027161618032369,-0.5953633985399944
2.83203125,0.3306100646634959,0.3115761964015173
2.8359375,0.567605567455136,-1.0340534310381022
2.83984375,1.589734021972803,0.619447850669959
2.84375,0.009421010318228682,-0.894813839787524
2.84765625,0.43530798043809016,-0.9219177450240116
2.8515625,0.9418845656730491,0.9616520380138283
2.85546875,-1.3366904904269363,-0.2903456173180722
2.859375,0.5189158103264863,0.4227572819327777
2.86328125,1.208370073013932,-0.2827250791747567
2.8671875,-1.2610628540517386,2.086332485253397
2.87109375,-1.5307222038123312,0.6635989766515652
2.875,0.9214229476625604,1.7482497238075834
2.87890625,-0.08043661540904924,-0.9756196921738113
2.8828125,-1.4535162200199305,1.2098384075600723
2.88671875,-0.2956407710491088,0.6238114471106425
2.890625,-1.5555689529710282,-0.7540203543330438
2.89453125,-1.0484637816352402,0.8273653942277179
2.8984375,0.7112952953106433,-0.32359699601518643
2.90234375,0.7471623745526208,0.6399426121362717
2.90625,0.2588139849231488,0.8097151284656061
2.91015625,1.787556963564382,-0.12275548408001377
2.9140625,-0.6679957211186429,-0.37062704031164434
2.91796875,2.6196974505157278,0.13459717359651985
2.921875,0.133038247482259,0.4585954299525973
2.92578125,0.05960342950499447,-0.38996146043449026
2.9296875,-0.48353706314954215,-0.337551590971699
2.93359375,0.4282956594236765,-0.6828796294290277
2.9375,0.8413737419625471,-0.6526284868789338
2.94140625,-1.0292572023421869,0.5339597510536811
2.9453125,-0.7082731817080118,0.7696889012160506
2.94921875,-0.1746135304751455,0.630976837151903
2.953125,1.0251874647145056,0.20046342371631398
2.95703125,-0.5624195412350113,0.3333259592142868
2.9609375,1.2727069826015405,-1.7082326986635987
2.96484375,-1.2092423768977059,1.3767600599033287
2.96875,2.3544762545131106,0.017275809005316767
2.97265625,0.06675019953304409,-0.12828176914859846
2.9765625,-0.12811097842668426,0.32770912125076934
2.98046875,0.9956058655928918,0.2751527165422527
2.984375,2.250073720384087,0.3060711276708972
2.98828125,-1.2150186722610166,-0.6291652366805395
2.9921875,1.652092655091749,-1.4207365626221082
2.99609375,0.7986600391116194,0.8442128729483279
3.0,-0.11127611209618872,0.8355090804356293
3.00390625,0.31626124235181535,-1.0885733801120927
3.0078125,-0.32694683084574266,-0.3054703092066076
3.01171875,-0.9368840802322892,-0.19715810677070025
3.015625,-1.3523799119900426,0.4874436390026037
3.01953125,0.2167540004500567,-0.10407276410820003
3.0234375,0.855273159535097,-0.8914639862192619
3.02734375,0.6807371642913127,-0.8904835307541747
3.03125,0.31025926005355225,2.380569378333871
3.03515625,2.35820074801123,-0.9085656187301133
3.0390625,-0.3674612273917804,0.7893941617326394
3.04296875,-0.7777191773941533,-0.8883479032182072
3.046875,-1.4779717230573817,-0.8004705465394546
3.05078125,0.492468168630582,0.057179587348940776
3.0546875,0.34529962603663594,0.3221710711025076
3.05859375,-0.10445490056081458,-2.2454083715794706
3.0625,-0.8132845237129721,-0.24988105742537597
3.06640625,0.47337390224957004,0.3179084511777991
3.0703125,-0.9464974350934139,-2.5928751877328367
3.07421875,-1.2462609476038582,0.8138724578929883
3.078125,-1.2892900456220975,-1.325335481449568
3.08203125,2.0628419866317977,-0.31152470843475194
3.0859375,-1.3425120471381868,-0.6681599250859158
3.08984375,-0.687886656738747,0.6277668685185801
3.09375,-0.28198228012331006,-1.0232491971408681
3.09765625,-1.1820906691944366,-0.1344038834548831
3.1015625,0.15512377759517892,1.3777556368155608
3.10546875,-1.1668699049714786,-0.22705395146349475
3.109375,-2.0473087988780985,-0.210943753438024
3.11328125,1.6277744565695271,-0.7098309711515022
3.1171875,0.5913882000652392,-1.2329360878922215
3.12109375,0.08963580882706501,1.2589411664296717
3.125,-0.42064876500983944,0.7974127252780929
3.12890625,-0.5021190363516729,0.20849945826209382
3.1328125,1.56044886297031,2.7102773335203585
3.13671875,-0.5095703483770697,1.0421683222490292
3.140625,0.7088032711576665,0.08203387814110176
3.14453125,0.6573866037437335,0.739239705325541
3.1484375,0.3764991789280241,1.5573437013966096
3.15234375,1.0082414485945344,0.17823613829897028
3.15625,0.3369903642086757,0.49267700981680335
3.16015625,-1.0368234816820143,0.5961737176998985
3.1640625,0.9371024987315798,0.41919869594756587
3.16796875,2.621407249092649,-1.9603245013639734
3.171875,-0.7916423497969307,1.2868324674647513
3.17578125,0.7246336730791503,0.21430592870857773
3.1796875,1.1993829421394273,0.9457461177584826
3.18359375,-0.5207362915393764,0.5808029015157937
3.1875,1.7548019504438852,-1.0384771996808428
3.19140625,-0.32764554056638334,-0.2550665443052447
3.1953125,-0.37272966421792136,-0.49143430126544196
3.19921875,0.08455785829022307,1.355681813885848
3.203125,-2.2683177098757787,-0.7451035909588807
3.20703125,-1.5209323977676725,1.415753170455402
3.2109375,-0.8428461197079337,-1.9157940146495787
3.21484375,-0.0802851637362302,-0.27194318588134003
3.21875,0.33855060368470485,1.256471423398248
3.22265625,0.5850064636991903,-0.5666430556665469
3.2265625,-1.4707125077068592,1.612809130075174
3.23046875,-0.1745736020803264,-0.2655442061341364
3.234375,-0.7715712515957294,0.33227772929639215
3.23828125,0.8067162746794813,0.9710211845751634
3.2421875,-0.19524906083431057,1.0811230965665701
3.24609375,-0.5082829203485811,-1.360740843577359
3.25,-0.692372251391755,-0.513594740381271
3.25390625,-0.7671122083240672,-1.390688355220741
3.2578125,-0.7239483059069335,-1.3805215523068122
3.26171875,-0.19828505007134664,0.34278744652279913
3.265625,0.6845638104565875,0.700112677325812
3.26953125,0.2443716727732475,0.1529461770605288
3.2734375,0.054166972630676914,0.3517597346207745
3.27734375,-0.7960361685607034,-0.5258458224913347
3.28125,0.994231841452386,0.9773127482857438
3.28515625,-1.0737886731693957,1.039879605454728
3.2890625,0.8408064342444472,1.5482861698477848
3.29296875,2.1102857647037077,0.5076752698877054
3.296875,-0.889868369871661,-0.5182040614211172
3.30078125,-1.8870257737553402,-0.953212793922646
3.3046875,0.11673074158544407,0.2368193318609316
3.30859375,0.8637594006797374,0.4621298343486295
3.3125,-0.8300225290940473,0.1653266154336055
3.31640625,0.17643746199742583,1.6948326810376066
3.3203125,0.895775377418236,-1.1704159297329213
3.32421875,1.6795820419282133,0.3478447741426524
3.328125,0.9890194731095446,-0.8840197513144392
3.33203125,-1.2832106353762933,-0.334146995813757
3.3359375,0.14417080752311667,-0.01810427185823115
3.33984375,-1.5371997551439225,1.2373944739933407
3.34375,-0.7521707843619329,0.7154646670900188
3.34765625,0.9061077323366126,0.1330047721537116
3.3515625,-0.7811468078685465,-0.7544582728474486
3.35546875,0.3390122928253185,-0.44429866765823506
3.359375,0.14241024114106385,0.34316511597625454
3.36328125,0.818677531480776,-1.4221519887927248
3.3671875,-0.01034090129854936,1.8348783546862815
3.37109375,1.0690568631510688,0.571745930889472
3.375,0.764793034441278,-0.32880082185013765
3.37890625,-0.24259289305425769,1.0428659441671126
3.3828125,-0.2900981320777603,0.25595891052656977
3.38671875,-0.9562761971960473,0.6930338327197894
3.390625,0.315270909908268,0.9091054063291968
3.39453125,-0.5071524904373002,0.5767390373212328
3.3984375,-0.19332682096786413,0.9611126376207317
3.40234375,-0.12908892128881785,0.40781415071461774
3.40625,-0.5123051449804299,0.2789119793733276
3.41015625,0.800761273744855,-1.795961840944145
3.4140625,-0.6111661684553454,0.13199071773952178
3.41796875,-0.8532981313357384,0.676290682015411
3.421875,1.3091786412727582,-0.14492137560965296
3.42578125,1.3012808276290178,-0.15141892940813353
3.4296875,0.08765529709647935,0.9743600147017044
3.43359375,-0.6745842323707137,-0.2474161426651355
3.4375,0.4739902964250129,0.6910254137225768
3.44140625,-1.1878868668657712,-2.3543815748158705
3.4453125,0.7991009044041886,-1.7273542001086246
3.44921875,-1.115403047541245,-1.4086807375726178
3.453125,-0.010901732008174906,2.00064282143959
3.45703125,0.781818048750442,1.0051360047948985
3.4609375,0.22191224997651665,0.10730965334690167
3.46484375,-0.7834591169628718,0.3645551373013494
3.46875,-1.5430599280809778,-1.217185173137057
3.47265625,0.0818993632845985,0.9628543903515329
3.4765625,-0.4061270978219396,0.21397203221028205
3.48046875,0.7540508058146699,0.7549793080260626
3.484375,-1.2638762559167398,1.673601086669408
3.48828125,-0.23461726616871717,-0.6274756875946865
3.4921875,1.292011747087803,-0.24166600408898198
3.49609375,1.8990322059832028,-0.4290408885746818
3.5,0.9525335913424346,-0.04230019782200116
3.50390625,-0.4832228559461932,1.2557465405970598
3.5078125,-1.8101478733660592,-0.02796830818094464
3.51171875,1.2067097810247487,-1.781047330204385
3.515625,-0.026646466963966862,2.2400236198893615
3.51953125,0.605148045560051,1.6048934169867266
3.5234375,-1.2463850806077932,2.3536964480376215
3.52734375,0.39635324711793435,-1.0720301446841158
3.53125,-0.13717545209579796,1.2529018227241362
3.53515625,-1.154311540853018,1.4479500625258241
3.5390625,-0.5952057901359432,-0.02809454113543815
3.54296875,-1.788331402487068,1.2048461248168207
3.546875,0.6012505611252175,0.8430751849557394
3.55078125,0.5932504453823303,0.6021484352337629
3.5546875,-1.3882735917583455,-0.9553551024529552
3.55859375,-0.912262266731607,1.8952609324594276
3.5625,-1.0208624427330402,0.851604632105971
3.56640625,-0.20221228148277137,2.343936106262106
3.5703125,1.0270590950167764,0.5622241285979696
3.57421875,0.7233370897624936,-0.7369318164189808
3.578125,-0.3435790993184239,-1.02425156216428
3.58203125,-1.273034119822861,-0.7674888490822311
3.5859375,-3.11399925236064,0.09988362691067894
3.58984375,1.7837535192644565,-1.1831725751408235
3.59375,-0.31882757172863097,-0.26265199952579765
3.59765625,-0.8568642609529902,-1.0804708832325514
3.6015625,-0.20934376598414006,-0.26594680254938
3.60546875,-0.577336681614219,0.16876119012734409
3.609375,1.314608628560441,1.2852949793346822
3.61328125,-1.251037245702186,-0.5702400505432844
3.6171875,0.23747659618101294,-1.5439173477487504
3.62109375,1.8086223096829501,1.3071881573742623
3.625,-1.1077655889769127,-1.995636788127708
3.62890625,1.5055786314461952,-1.5596806524581477
3.6328125,0.47373781369573825,1.2481705195770973
3.63671875,0.22396767101914214,1.645630780856888
3.640625,-1.466857327777524,0.5116235465646504
3.64453125,1.6102062116572458,-1.2329832696458793
3.6484375,0.806022872130467,0.8192940420214647
3.65234375,-0.609776449995603,0.7694909425249529
3.65625,1.2328343082661999,0.16621509583541755
3.66015625,-0.8065400052125047,-0.09365157092071695
3.6640625,-0.9300374355719766,-0.28868688099660295
3.66796875,-0.032364037360482066,1.158290024169096
3.671875,0.16242236566472856,-1.5238477189450212
3.67578125,-0.5042025337976848,0.7041636662726135
3.6796875,0.3958359930202217,-0.02382326322115879
3.68359375,-0.3781084915837063,-0.5436061119280586
3.6875,-0.506229292733623,0.13326700352541337
3.69140625,-0.1822170237899547,-1.068522048612419
3.6953125,0.6180242076414133,-1.088670902178584
3.69921875,0.1893086374195562,-1.6759356016663263
3.703125,-0.6940084510256346,-0.12681957661481466
3.70703125,-1.0961190389904738,-0.7393398370451743
3.7109375,-1.8156439575966754,0.45995626168900733
3.71484375,-0.6759460991844207,-2.6757304164764175
3.71875,-0.19595035209350195,-0.5241898658378249
3.72265625,1.289306733236063,0.4644850135573447
3.7265625,0.9514013795605663,1.3620734179416412
3.73046875,0.9818757872836189,0.5194157652076428
3.734375,0.3685889909941737,0.2741841468598733
3.73828125,1.4017059693571818,-0.936723554982468
3.7421875,0.49344418983328964,1.800330307317348
3.74609375,-0.9284830624145503,-0.0625922887878461
3.75,1.689136432152381,-0.7774983792945426
3.75390625,0.8431404881623789,0.8601359034484483
3.7578125,0.005606116152283327,1.259511323781387
3.76171875,0.4497336450820449,0.1658388216637519
3.765625,0.7230359739730596,-0.3222355605647774
3.76953125,0.6293853456331129,-0.6567624715609665
3.7734375,-1.2620124192134763,-0.9527220405917144
3.77734375,0.5322471766040071,0.23229499299764114
3.78125,2.6546905499481124,0.39360735204460795
3.78515625,1.2976961447135282,-1.1252096903353495
3.7890625,-1.0544241439674926,1.4816843566412592
3.79296875,-0.06444543382131267,0.5594225378769846
3.796875,-0.8313334109153075,-0.6069904583584544
3.80078125,-1.355227050378692,2.1092644333261403
3.8046875,1.9003050801480912,0.9336972070649638
3.80859375,-0.9047547280915523,-0.41461147330917253
3.8125,-0.6087945374850869,-1.0992205052547628
3.81640625,1.935364068253302,0.5410104429667004
3.8203125,-0.30759776684766027,0.6187681288437858
3.82421875,1.909323413918775,-0.10620989731567868
3.828125,-0.328025744330262,-0.12573822061011922
3.83203125,-0.7536051656869093,-1.138940105879735
3.8359375,0.6644403028841054,1.402719341245946
3.83984375,0.9432121683323702,0.6362468346040644
3.84375,1.3928342046893305,-0.22822603169559885
3.84765625,0.4278705825773022,-0.6731949823408084
3.8515625,1.5703438883732002,-0.29489325405502614
3.85546875,-1.4723590254186079,0.7062265482960804
3.859375,-0.30310518072963777,-0.5539163780802818
3.86328125,-0.26104819266745405,-0.5213118889869012
3.8671875,-1.939972156946452,1.589340178733693
3.87109375,-2.572132166431919,0.8524338000301857
3.875,0.29570735927713576,0.4083457202590189
3.87890625,-1.1032499736842374,-0.13458132035731343
3.8828125,-0.5336912273530994,-0.2880089731671042
3.88671875,0.4717997104009543,0.07622709102010693
3.890625,-0.8813566043658433,1.4527292259674682
3.89453125,-0.16688541843021404,-1.036696150273239
3.8984375,0.032270521719431636,0.02740318513685529
3.90234375,-0.5510665800353659,-0.17876266115280418
3.90625,-0.19785953346992488,0.2073058044011541
3.91015625,-0.023546356640108033,-0.24126625346550415
3.9140625,0.09774047577367022,-0.47335768392591027
3.91796875,-1.9080883074301576,-1.331555002343706
3.921875,-1.1185933212999073,0.45923041845195867
3.92578125,0.7771299066263614,0.7000748828782635
3.9296875,0.6040520469379715,-0.9445189785768748
3.93359375,0.7463221612038439,-0.25920376938660367
3.9375,-1.1868631342833371,0.7976731191802994
3.94140625,1.2450266731411976,-0.2282538633770544
3.9453125,-0.4161647045337198,0.6404255026856266
3.94921875,2.385568854969956,-0.645925235389958
3.953125,-0.9194120269931187,0.9449519821461909
3.95703125,0.787734665893073,0.3267910644342865
3.9609375,-0.40696358447293934,-0.05947169488160572
3.96484375,1.0561342331283206,-1.1888836503944946
3.96875,-1.4944133010171388,1.0518913442790114
3.97265625,0.53121750192055,0.12313642419971109
3.9765625,-1.396376805614433,-0.13628499722053877
3.98046875,0.8477923203085529,-0.73507636338146
3.984375,0.5122391349857346,-0.27651818325015487
3.98828125,0.1284125882950926,-0.9150226949985678
3.9921875,-0.2895101321873639,-0.5160418485145601
3.99609375,0.8216974560361782,-0.7188691668375812
4.0,-0.6414082259537768,-0.6359512825098295
4.00390625,-0.08299029487602468,1.04009344264165
4.0078125,0.2708264638045712,-0.21288341971027128
4.01171875,0.12447705026849862,1.85025825243852
4.015625,-0.21603272801763623,0.9551584804271089
4.01953125,0.937107723286224,0.14091741008092978
4.0234375,-0.08453215302214792,0.4183504617862585
4.02734375,0.5135439446381619,0.9906064938308793
4.03125,0.9174353324587068,-1.8779338595487758
4.03515625,-0.29783788838825725,0.32529988023313505
4.0390625,0.15355236755639445,-1.139182872024271
4.04296875,-0.09557142706998704,2.1412508052857016
4.046875,0.21609518250835796,1.770508550835632
4.05078125,1.2172514486656443,1.128547274338998
4.0546875,0.4484477076682755,-1.3622541225854021
4.05859375,0.3424869543861644,1.095042616582427
4.0625,0.8105925391497121,-0.24104201486296112
4.06640625,-0.2046288255367621,-0.8970271601337662
4.0703125,0.17169737159255988,0.4689986643119609
4.07421875,0.9597058996204776,0.12061758005272688
4.078125,0.9635284346165397,-0.770335371526565
4.08203125,1.3721049557296587,0.0013972147013122578
4.0859375,-1.3449677550778778,1.095952158299573
4.08984375,-1.998808784069263,-0.27761947048745594
4.09375,0.8782767270130846,-0.7673934504051722
4.09765625,0.5647979349714743,0.25911108882121153
4.1015625,-1.3227888742353917,-1.0515155797540747
4.10546875,-2.7080132223551416,-0.2711380383519136
4.109375,0.8697103394593628,0.8462278559074821
4.11328125,1.1928221625483906,-0.3228777171953242
4.1171875,-1.7754379188890848,1.7711357686628104
4.12109375,-0.32797371507417145,-0.42465671986038245
4.125,-0.6282731930025075,-0.7350458003520559
4.12890625,-0.5197418729379739,1.1410955551567135
4.1328125,-0.23681735694271305,0.1033085977111711
4.13671875,-1.7978260765820075,1.518278138138728
4.140625,-1.284504209921009,1.4624559103854249
4.14453125,0.8071631428723512,-0.6156344565467354
4.1484375,-0.977009843499731,-0.9615289691211764
4.15234375,1.172191410516708,0.29173280756071535
4.15625,-1.17081599525816,0.5253616433411903
4.16015625,-0.2161505180307388,0.0022344025282457353
4.1640625,-2.3272310521011237,-0.5406400103617977
4.16796875,-0.5048456604033525,1.153729266470094
4.171875,0.5522753228015463,0.892480297252824
4.17578125,-0.9002194874493054,2.5123088543123857
4.1796875,-1.3109103705537586,1.1172811913965441
4.18359375,0.7029441260500382,0.378444509353211
4.1875,1.8243169277948237,-0.7142009436142459
4.19140625,-1.0862869570708025,1.615421502785076
4.1953125,-1.7913859806324437,-1.3110515037074382
4.19921875,0.4037469130107575,0.9120210443851492
4.203125,-0.45017832267719715,-0.41131783634654784
4.20703125,0.5478968110975739,1.244884958325442
4.2109375,0.062108927654759234,-0.09941983761134357
4.21484375,0.5969543798367924,-0.8400108193539814
4.21875,1.237279696680384,-0.2774177101914209
4.22265625,0.023907412567733346,0.5477288441394436
4.2265625,0.06822408063622133,1.9939786672998145
4.23046875,0.012972122013164207,-0.28581191275794
4.234375,0.6324426557458753,0.05816425009626425
4.23828125,1.7492442311141672,-1.072168917827676
4.2421875,0.18882012307312002,-0.011652650798984763
4.24609375,-0.18960889139183398,-0.22212265454494687
4.25,-1.9974530480433652,0.30587139110034806
4.25390625,1.6615024039555062,0.8274578880800145
4.2578125,-2.6949698642294675,-0.4542459769365967
4.26171875,-1.5908424911064398,1.4289910604646827
4.265625,0.33073407791679854,0.9468094202577143
4.26953125,1.079590307278134,2.1304758477531425
4.2734375,-0.35225085564735914,1.1559000112943256
4.27734375,0.22054020556906692,0.26026772951262683
4.28125,-0.23543588152495198,1.8591352047580485
4.28515625,1.2892345529435842,-1.7661781175228477
4.2890625,-0.4277950320168882,-1.4630078017555312
4.29296875,-1.67163747995679,-0.059808941778825654
4.296875,1.1816425106572381,-0.5341598188398939
4.30078125,1.0664790133217956,0.4206479080831524
4.3046875,0.051784632501890984,0.3095603610245146
4.30859375,-2.4028043115180306,-1.0914672714138365
4.3125,1.5748258237121824,-1.315919088095099
4.31640625,0.199900133967812,-1.446600188588678
4.3203125,-0.6122829945923348,-0.784440866903612
4.32421875,0.4833314482497124,-0.7047009183126346
4.328125,-0.0038354279886692764,-0.713956594683552
4.33203125,-0.38176308851449187,-1.3668242917804627
4.3359375,-1.3243363284173237,-0.3245219728824599
4.33984375,0.08043656663824268,0.9040349597231462
4.34375,-0.29922695147240463,-0.10352531484930111
4.34765625,1.1558510669935314,-0.552657165128879
4.3515625,-1.212075568409724,0.14084475274052768
4.35546875,1.0390117785174449,-0.19250290471252984
4.359375,0.5186534830165136,-0.5433685685489253
4.36328125,-0.2914412434862022,-1.1350044717498327
4.3671875,0.5299611803607238,2.5290226164999314
4.37109375,0.3753035647937744,-1.2161006398692171
4.375,-0.6056693871810653,-2.1826141958459053
4.37890625,-0.24667458221056787,0.2958885405066057
4.3828125,0.0801106781262594,-0.6031273858304996
4.38671875,1.0027854238637668,-0.08525708189791732
4.390625,0.6388272303321126,-1.0253396717543204
4.39453125,-1.7608461295195588,-0.4553396107900699
4.3984375,-0.5562151949495442,-0.31487216661648293
4.40234375,-0.29957934844605016,0.20648949250724769
4.40625,0.7356947287762232,0.4341014680650739
4.41015625,1.0441345950207361,1.2198387199113947
4.4140625,0.5877168076978769,1.0864806211387747
4.41796875,-0.022381794680435357,2.2458111847253
4.421875,-1.5304267885624352,0.9840108261808247
4.42578125,-0.44994531009124555,1.5017582997632555
4.4296875,0.38680650095587166,-2.3490280674098667
4.43359375,1.1528351092816582,-0.07517947110439063
4.4375,0.6377079062128512,0.3395676994254612
4.44140625,0.6948032861826777,-0.47572126162821515
4.4453125,0.4083133216198692,0.5589000120864437
4.44921875,0.32403634753419014,0.23481300233921223
4.453125,-0.7908924497836209,-2.810580123234169
4.45703125,-1.2932270454429404,0.22362434614579793
4.4609375,0.13570077691309088,-1.1052162720774195
4.46484375,-0.011641482973382888,-0.3656943772917106
4.46875,1.9879046564497866,1.2152424907597263
4.47265625,0.9797749290163452,-0.7137890034352651
4.4765625,-0.21932028815766363,-1.297146693781094
4.48046875,-0.6769968246433489,0.6016718041665033
4.484375,0.33549315352318737,-0.4758131394937924
4.48828125,-0.598956022676647,-1.6787189929271151
4.4921875,0.06509125751678924,0.17055011594405933
4.49609375,-1.274891493679355,-0.035700990076372605
4.5,1.3731715622938183,0.4156486009384204
4.50390625,0.5205476962553703,1.068835221749439
4.5078125,-0.5280222482445064,-0.28993326580105827
4.51171875,-0.8560889936648456,0.46611774701036784
4.515625,0.5862054181472611,0.4466227508934859
4.51953125,2.143097132137184,0.23715257391539035
4.5234375,0.9112595006128794,0.9794389577272709
4.52734375,-0.7615041786967401,0.7545022507600767
4.53125,-0.2959946992165247,0.3691609626124022
4.53515625,0.7731923814363696,0.6908206934680904
4.5390625,-0.39116658065925514,0.6950973604297311
4.54296875,1.0693243372639587,-2.3541859411586192
4.546875,1.6418211076838864,-0.9246868454050927
4.55078125,0.35170239959367566,-0.89352820405197
4.5546875,0.7220308520910526,0.8373487897072716
4.55859375,0.1025158422644403,1.2962597926542638
4.5625,-2.099888980565078,0.5455840007945691
4.56640625,-0.21478730649446484,1.1355644999267342
4.5703125,0.17554339086966297,0.965004357669218
4.57421875,-1.2321489867601074,0.7292432541841504
4.578125,0.8756257677688757,0.7079585083265693
4.58203125,0.18159386957196483,-0.8913118809952582
4.5859375,-0.84300266855011,-0.6277381016055754
4.58984375,1.4096561880525968,0.101769690756652
4.59375,2.2737022789572325,0.7814835118433108
4.59765625,0.42907221531316214,-1.2066415594156372
4.6015625,-0.4710178058154422,0.9684043431117028
4.60546875,-0.33711110187471865,-0.10716077641618167
4.609375,1.0861650103717826,0.835821139258127
4.61328125,0.04034515783152881,0.2108396568659154
4.6171875,0.7001004327995283,-0.3440910486834603
4.62109375,-0.5158081568212954,-0.20903187455635913
4.625,1.7285101814690544,-1.226105098780231
4.62890625,-1.7140724606049234,1.1711959611529572
4.6328125,0.6381158794348621,0.17572013761151256
4.63671875,0.260502723405347,1.305594683987886
4.640625,-0.0928239745213906,-0.37087684699093476
4.64453125,-0.01079007930608873,-0.8458650286295033
4.6484375,-0.788647514899731,0.26092120097589866
4.65234375,-0.060810389666028204,0.6448013806666342
4.65625,-0.904593424853745,1.1291789205963014
4.66015625,0.7630322991742916,0.6239909845540097
4.6640625,1.563207033185786,-0.40066551534277717
4.66796875,0.25358235950819846,0.6457467827407626
4.671875,1.4059688349153612,0.5622639848394371
4.67578125,1.5685537537970193,-0.25885105778412903
4.6796875,0.8520234520598471,-1.6555820509547017
4.68359375,-1.6696690907785987,-0.41223450780524057
4.6875,-1.2261628977785868,-0.09121161698450507
4.69140625,-0.2971588316614459,-0.5362294012046079
4.6953125,0.16180958253870134,-1.046955542344084
4.69921875,-2.3566792682982527,-0.7473542565441769
4.703125,0.2918723690278906,0.4957686768206391
4.70703125,-0.20148406750127293,1.1675654477624038
4.7109375,-0.8340029859033856,-0.3531070388012841
4.71484375,1.6509181262045907,2.558389905123765
4.71875,1.5642699920071923,0.6219914212053665
4.72265625,1.3125690532920473,-0.7693685050298028
4.7265625,1.6419406358287938,0.3076470688052825
4.73046875,1.1467746296622963,0.25508438908279635
4.734375,0.9115405595427267,0.16154868309895257
4.73828125,0.3557798835775445,-0.6663588561021488
4.7421875,0.1594144337073829,0.8185712243497116
4.74609375,-0.40638426676411565,0.27970338143123497
4.75,-0.20745878697882658,-1.0651398106964398
4.75390625,0.17261679859513804,1.1822122147573675
4.7578125,0.7945130824221078,0.45090842501762096
4.76171875,0.2977379354570124,-1.2177160313739004
4.765625,0.9006837179553737,0.854569130510684
4.76953125,-1.0841531448849093,1.6169355596151578
4.7734375,0.030291025416667436,1.2557890868278794
4.77734375,0.6533493864736492,0.9181447487591384
4.78125,-0.7535552087966687,-0.4038485701991316
4.78515625,1.2218016496001625,-1.9372065683082766
4.7890625,0.39947450003539,-1.8369778104998171
4.79296875,0.0021317985258448953,-0.2973633638819483
4.796875,-0.8919557494003847,0.7411069045444815
4.80078125,-0.49095817008917547,-0.27761862971353823
4.8046875,-1.0592942724628254,-1.187779292999465
4.80859375,-1.0872000383523666,-1.0360042607703632
4.8125,-0.8570365558772096,1.1657521643600017
4.81640625,1.3754766337860982,1.8250168910079134
4.8203125,0.44065816596126334,-0.20305055842413808
4.82421875,-0.4661385083043155,1.680441170062969
4.828125,0.8128551015307728,1.195388375167194
4.83203125,-0.6581500705326346,2.18679771897165
4.8359375,0.8873191109972803,-0.5392156572438817
4.83984375,0.7415054166328193,-1.298834933881489
4.84375,-0.6788180218962676,-0.10675417867902906
4.84765625,-0.39620546756186,1.8491032196267994
4.8515625,-1.4495323651698628,-1.0862600489796679
4.85546875,-0.07798389774733233,-0.06931654691964054
4.859375,0.4487461361172785,-0.252646100524937
4.86328125,0.8920609508480093,0.3729844150567718
4.8671875,0.3931623303753667,-0.9343269312629189
4.87109375,-0.2769649166523884,-0.05800837603220255
4.875,0.0809393811829891,0.18239823170152386
4.87890625,-0.048378106227269055,0.1652791159953396
4.8828125,0.46219396787770173,-0.8637075910428909
4.88671875,-0.66258855770712,-0.5274297162090499
4.890625,0.019488405059429916,0.2115680810230994
4.89453125,0.7948073817524959,-2.903014651707852
4.8984375,1.2344773359091037,-0.20547776389309882
4.90234375,-0.5399228363353461,-0.3115172559370636
4.90625,-1.6548888083229505,1.4354687214623527
4.91015625,0.23565294522954197,-1.5926963248048231
4.9140625,-0.7676834679210142,-0.763502771443567
4.91796875,-0.5130274392592554,-0.5982131676489002
4.921875,-1.684554421513441,-1.4322207669765463
4.92578125,0.3271209441321875,-0.19922406882951726
4.9296875,2.4200829876497725,-0.2086391500412575
4.93359375,-0.2697173350578579,-1.8288484088765233
4.9375,-0.6637733234267411,0.0016880930254177526
4.94140625,-0.6484373301334841,-0.7823155926222264
4.9453125,-0.40558215165506906,-2.1155147012394107
4.94921875,0.27966027793112214,-0.21186933492217394
4.953125,0.3476897541236607,0.16878143052164604
4.95703125,2.7104892633862,-2.2422546633055624
4.9609375,-1.832448434857388,-0.8453241667175679
4.96484375,0.3073618973298677,-1.0438532635134468
4.96875,-2.1660666490350162,2.3933791045427664
4.97265625,1.933654827478318,-1.1330683304423892
4.9765625,3.0682607072226933,0.5284773804036532
4.98046875,-0.3491082706013343,0.1661555977345516
4.984375,-0.17021099327523476,0.03296939712838539
4.98828125,0.8156473582751123,0.6551576269523094
4.9921875,0.9135222734201972,2.2034288220932536
4.99609375,0.8010332546590553,0.10573889449422846
5.0,-0.11841863988538393,-0.5482915903110035
5.00390625,-0.21735201644187224,0.06508335072821046
5.0078125,-0.7821769494613366,-0.3469309337350827
5.01171875,0.5351485074174553,0.9927974766522806
5.015625,-0.5550406930065201,2.4477335400966282
5.01953125,-1.2491712235961556,-0.7041653105518658
5.0234375,-0.6178392979322933,-0.20867141678146645
5.02734375,0.19714218634111633,1.0213195766331342
5.03125,-0.9844830512959488,0.1789247328347616
5.03515625,1.5314909766049591,-1.2890898192221871
5.0390625,0.11129617331478836,-0.3110489943288789
5.04296875,-1.1750103927134863,-1.042002613985337
5.046875,-0.06354591670687333,-0.006326089035459022
5.05078125,0.6984052111738802,0.6586787280015424
5.0546875,-0.3116918702747762,0.2788973831630517
5.05859375,-1.4452231726355287,0.5962676450627805
5.0625,-2.124322317778896,-1.370415640736386
5.06640625,0.6003784483423695,-0.1653468656107379
5.0703125,-0.5507823392552043,-1.9341265697060133
5.07421875,-0.5647079641184588,-2.416037333305432
5.078125,0.9478302220343069,0.30342738919667084
5.08203125,0.8084116484707314,-1.0045286916269056
5.0859375,0.08880496868340579,0.08379407592990744
5.08984375,-0.36696963804276495,0.3925612395313334
5.09375,-0.7007407235824021,-0.43522435570633455
5.09765625,0.24884443296119052,-0.3262836417006218
5.1015625,0.757000079734604,-0.2235299561944554
5.10546875,-1.4830284585814602,-0.9898284559605381
5.109375,-0.09683174853537575,0.17615340686669198
5.11328125,-0.2834894833627834,-0.5959910450976562
5.1171875,-0.2470679736594318,-0.7977283280000094
5.12109375,0.7566608930901452,-1.2701553238124474
5.125,0.7506709521139211,0.1999967491649714
5.12890625,0.6211708604538225,0.4522493620873088
5.1328125,-0.36065535012474237,0.2023892799776638
5.13671875,-0.5857487701250662,0.8765419708062201
5.140625,0.3255224252185003,-0.293736517000723
5.14453125,0.2898318981279898,1.1010462694889724
5.1484375,-1.7136529899832855,0.5521978560041877
5.15234375,0.775045685680853,0.39112575141849365
5.15625,1.5494932109897306,0.3211471861536138
5.16015625,0.7398834265640513,0.4659937244585853
5.1640625,-0.12155949849091609,-0.47012054149633176
5.16796875,0.10506857415590747,0.4362563039370162
5.171875,-0.5269179513119351,1.6388083327825451
5.17578125,0.5424714602617076,-1.8543816828694835
5.1796875,-0.2630255499527647,0.2962711858042014
5.18359375,-0.09744005922083603,1.3134259675807454
5.1875,-1.6948195819904315,-0.39851265914008943
5.19140625,0.8196651650714412,0.05348356713154117
5.1953125,-0.45858890715786993,-0.6988276777005206
5.19921875,0.3681093014039457,1.063600260875055
5.203125,1.76053274274687,-0.3501420435749419
5.20703125,0.23382691591691562,0.7999355397919986
5.2109375,-0.28892803392749417,-0.7964737610896571
5.21484375,0.692883958365017,1.2885971771859854
5.21875,0.27426912672343257,-0.5343141577396222
5.22265625,-0.11266869135183802,-0.07751105935182845
5.2265625,0.1719456521394879,1.0744597604909645
5.23046875,-0.21054344874778128,1.120957796772131
5.234375,1.3218906190920598,-0.17502181492250365
5.23828125,-1.0083276247429898,1.0201841429999725
5.2421875,-0.24366901799564789,0.5946965370460217
5.24609375,-2.9883477041243363,0.4325519320469198
5.25,-0.7408904197646418,-0.07591659801528391
5.25390625,0.3117837565074483,1.1595739521641548
5.2578125,-0.8780452760663423,0.8257596551288688
5.26171875,1.1054718652165445,1.246689735128234
5.265625,-0.06793422339755106,0.6257632712243067
5.26953125,0.03990817894556637,0.5321644137950219
5.2734375,2.8240114989536425,0.3166304881633765
5.27734375,0.8367247609478864,1.582395649831302
5.28125,-0.928458543625073,-0.24059657642400817
5.28515625,0.19911118447351794,0.18820704832770735
5.2890625,-0.2580633212949747,0.27017374519364423
5.29296875,1.8220719825747747,-1.2746903046331717
5.296875,-0.18074723203691315,1.0752630151110651
5.30078125,0.2307933059192836,-0.4356429254031059
5.3046875,0.6067919492292775,0.1615755009342637
5.30859375,-2.116698917427396,1.418947226606065
5.3125,0.5933710201712304,0.4465958128686394
5.31640625,0.03502048011597037,0.018966148584621503
5.3203125,-1.5352051295221394,-1.022149959503661
5.32421875,0.2059067466175616,-0.03319104916653071
5.328125,-1.6096753452359773,0.04486929770418097
5.33203125,-0.9377563531285819,-1.0962642552381912
5.3359375,1.6305425567281515,-0.8327062683903598
5.33984375,1.1613131680146191,1.5778914940405
5.34375,1.8747845332912647,-0.06986327526786817
5.34765625,-0.335651493425024,0.23314179204776794
5.3515625,-0.879222027122877,1.8395900834749999
5.35546875,0.499365048905054,0.16660138163590676
5.359375,-1.3184375213272415,0.26561837241398584
5.36328125,0.6699617017227689,0.4835881608708647
5.3671875,-0.7080966108096465,-0.4432256549933957
5.37109375,0.1536658799797065,-0.3011569280661299
5.375,0.018131533153000003,-0.00645450533769867
5.37890625,1.9293929994362127,-0.5939603807026396
5.3828125,0.6499329959673512,0.5995167935164909
5.38671875,0.47143819794513997,0.9192787581901598
5.390625,1.3730229169772978,0.434761848822675
5.39453125,-0.19539134307633452,0.6786166702310201
5.3984375,0.5858383620666574,-0.28476745862521957
5.40234375,-1.7460556851556068,0.9878128863407822
5.40625,-0.13318012617386576,0.7105491856019113
5.41015625,-1.1490541330547834,1.1307307592646147
5.4140625,-1.0562495122738167,-0.9138776013378067
5.41796875,-1.7751916010617248,1.4786904332942028
5.421875,1.060428682471293,-0.09623735226790602
5.42578125,0.9262311233362233,0.675664015244795
5.4296875,1.3804704842680107,0.29764571932511663
5.43359375,0.021333523162180592,-0.8586254627202872
5.4375,1.6362167503690888,0.08216625236468722
5.44140625,2.575923491142217,0.6429108416812893
5.4453125,-0.4813883356027131,1.8301859690464835
5.44921875,0.810722185155232,0.03131304559926355
5.453125,1.7829963034009073,0.14289494386044924
5.45703125,0.15574736784151727,1.2873883276897735
5.4609375,-1.2106663260687085,0.47709535772959955
5.46484375,0.253424416106769,1.8031235263768037
5.46875,-0.8609481424879417,-0.35721502208206396
5.47265625,-0.40535691237139654,0.9526529865530229
5.4765625,-0.12962066759463672,0.518840985848734
5.48046875,-2.443003064798274,0.24624641664388322
5.484375,-0.6216670958448889,-1.5887119665926828
5.48828125,0.3543090030495816,1.0452861339546302
5.4921875,1.3284936792946545,-2.0044197643431185
5.49609375,-0.7456145276625402,-0.7899810361442394
5.5,0.8751954705736965,-0.07031798599003336
5.50390625,-0.3136457783776019,-0.16963147991969738
5.5078125,-1.518081001897667,1.1812269109736615
5.51171875,-1.2237048463604552,-0.18606218006789407
5.515625,-0.22460709511209978,-2.2321553962816836
5.51953125,1.1658019049820136,0.27218682227465224
5.5234375,2.672761573573908,0.8418565633674913
5.52734375,1.0823906473608127,-0.6190673003469025
5.53125,-1.3913006882567285,-0.34903039127003543
5.53515625,0.16004992280223554,2.0962878784446817
5.5390625,0.7857362367563888,-0.15311168840619038
5.54296875,2.3558588162098553,1.763758957786635
5.546875,-0.35240540486845745,0.6050587677736029
5.55078125,1.4513311811438316,-0.9256225883394299
5.5546875,0.17245402079021543,0.7904037565818057
5.55859375,-0.6462883806089073,0.5050898835388042
5.5625,0.10911331376519504,-1.5302908711319798
5.56640625,1.830599493895991,1.7878310890854756
5.5703125,0.3430815805187987,0.5317764541900072
5.57421875,1.0979031953283076,0.07863414966516008
5.578125,0.5631408815351983,-1.0560126959584826
5.58203125,-1.1676774764661915,0.40990162905285427
5.5859375,-0.043645010468226136,0.09539635418215278
5.58984375,-2.1477710982491938,-2.587926694784299
5.59375,0.2500994888951697,1.7286261977294985
5.59765625,-0.1825572216685615,-1.0767360353285103
5.6015625,0.2949814166287427,0.5725293689875276
5.60546875,2.647087015452454,0.9953953543397426
5.609375,-0.7546223071274224,-0.18857192007153342
5.61328125,-0.7857557492248431,0.4922648256857599
5.6171875,-0.002027888225439917,0.08745651082896011
5.62109375,-1.579692853698928,1.4691391969475014
5.625,-0.3865220447548784,-1.876040249563712
5.62890625,-1.410891027849678,2.626130243582516
5.6328125,0.08608326926746973,0.9906158286001843
5.63671875,0.7709458242487935,-0.14856313739467736
5.640625,-0.7241401237907895,1.8800027373211152
5.64453125,1.238042141063938,-0.04504885912340334
5.6484375,-0.438304192884372,-1.228622843511522
5.65234375,-0.2915182836797488,-0.8511885927707689
5.65625,-0.4643656758037451,0.5248008707762198
5.66015625,0.6616114704523551,0.12405227833320036
5.6640625,1.2582863957133827,0.7936185574421628
5.66796875,1.4740100537557344,0.18187216375572354
5.671875,1.359174069268283,-0.6881757198181921
5.67578125,-0.5201639115273864,0.22083990202926537
5.6796875,0.4390429123538028,-0.7168640269131822
5.68359375,0.4612104396357497,1.8991921556410483
5.6875,-0.5415237557050934,1.0211954772706378
5.69140625,0.48614566898096967,-3.5613720167365166
5.6953125,0.6478632095444236,1.274792959404872
5.69921875,-0.186356303250138,0.09205851504850356
5.703125,1.1082534985282577,1.839208183310359
5.70703125,-0.1527030576858866,0.07805856553388416
5.7109375,1.0392345917319865,-0.9197119986530824
5.71484375,0.422200253230743,-0.18304241861009518
5.71875,0.4382643516137161,-0.05444302189081192
5.72265625,-0.5149347587334142,0.09735479166558358
5.7265625,1.6623114675749082,-0.8827386589379184
5.73046875,0.1148075655023997,-1.3236573292960556
5.734375,-1.493037038615601,-0.14331990629560548
5.73828125,0.5302637062338976,-0.23641542387260733
5.7421875,1.0289862364955924,1.1518712028169904
5.74609375,-1.263057513404453,0.03970860424942675
5.75,0.14373748152249918,-0.3195062698716634
5.75390625,-0.40307098544894243,0.9641546634502287
5.7578125,-0.5144911299455149,0.04005930870315055
5.76171875,0.7376830364051511,-0.7267114861590156
5.765625,-0.5173232853416425,0.8200826884830528
5.76953125,-0.2350604386286623,-0.9122932971377097
5.7734375,-1.5432224664495795,-0.6778387150267385
5.77734375,0.1658328950695936,-1.0452624094224565
5.78125,0.5916516510336998,-1.8238914962516894
5.78515625,1.1768761070193372,0.7147822240152555
5.7890625,0.10326382675858983,-0.9434705555077016
5.79296875,-2.6227964306238283,0.8439232436228583
5.796875,0.6895096349599182,-0.17475482128742326
5.80078125,1.9076349993768842,-0.015131621039464421
5.8046875,-1.0123770297831318,-0.660769328474005
5.80859375,-0.41096704758048325,1.1848812343898623
5.8125,0.1400684236591976,1.7087565176758854
5.81640625,1.8664233094870515,1.5405490410346145
5.8203125,0.7767143726295286,1.7071976517855145
5.82421875,0.7421715237589631,-0.08265268479586643
5.828125,-0.11605308558134221,-0.3379423272508277
5.83203125,0.41974733934952607,0.25423633606260243
5.8359375,-0.7453257905164782,-0.9030748032346807
5.83984375,0.5311121473735768,-0.0624252853446072
5.84375,0.05084801101092122,0.13232323662424764
5.84765625,-1.7986095141788636,1.1258411884052815
5.8515625,0.35102052426310276,0.05495164564023302
5.85546875,0.23982210899774478,0.08885728072378526
5.859375,-0.20037532895495466,-0.488345850818468
5.86328125,-0.8596255687140143,1.2677149582001235
5.8671875,-0.4598022462762806,-0.3517076132875611
5.87109375,-1.159824881114585,-1.1483361643384613
5.875,-0.12133430683324792,-0.8388661620668647
5.87890625,0.6027026515635087,1.0742283828565018
5.8828125,-0.23205305012268057,-1.583430334899699
5.88671875,0.7784432091522068,0.11652262981081311
5.890625,0.4823731966389043,0.3742586094358332
5.89453125,-0.9814959981757198,-0.43379611030610926
5.8984375,0.6852040185977178,0.1654134757103125
5.90234375,0.5846813251333225,-1.098075981858518
5.90625,-0.8937093861798361,-0.01002502211008217
5.91015625,0.7474422245519051,0.23842870519678863
5.9140625,0.1256146058551736,-1.2385621561384428
5.91796875,1.3802593290916116,-1.4113113049886181
5.921875,0.5340308235991547,0.7788178642384065
5.92578125,-0.15057846883296155,0.7606198705510958
5.9296875,0.41060687500988075,0.14736025198994568
5.93359375,1.5825104550115079,0.373764668553947
5.9375,-0.6910906150289472,-1.8058005007568059
5.94140625,-0.13949013293642526,-0.23253432701204096
5.9453125,-1.6705311767805273,-1.3652429492633227
5.94921875,1.0986041504676873,-0.6059422582329828
5.953125,0.7005911322145891,-1.1253531487425612
5.95703125,-0.4454047715751233,0.029309415489747456
5.9609375,0.8521758166548719,-0.8788508485114613
5.96484375,-0.8257388658549171,0.5028747209495485
5.96875,-0.5847602452431494,1.3939602259309603
5.97265625,0.9388425023176218,1.7817380312533344
5.9765625,-0.25892364394253087,-1.2368610522215104
5.98046875,-0.5930704409210968,-0.1517680640506289
5.984375,2.6409741384749847,1.0671171060622582
5.98828125,-0.18621117596889197,-0.23402830895249374
5.9921875,1.3584662367356533,0.8731561226258082
5.99609375,-0.02960195144676601,-0.4595309745649468
6.0,0.2389734245810004,0.1994345713034002
6.00390625,1.0562448454052664,0.7970499913255154
6.0078125,0.4659353430045958,-0.5361643657238208
6.01171875,0.12828838805414589,-0.25730721299791276
6.015625,0.508106891693596,-0.8342728361617723
6.01953125,0.4744591933274171,3.55200036054418
6.0234375,-1.1271635495105679,1.2243790883985983
6.02734375,-0.5304848577963444,-0.6279565189105012
6.03125,-2.3520281423433174,-0.5949262563878607
6.03515625,-0.7002794131644176,0.11043099069333791
6.0390625,-0.699391058742117,1.3149003848102145
6.04296875,1.6557380732061953,-3.1775800696216767
6.046875,-0.6453963390157701,0.5148276981894518
6.05078125,-1.6756449684276733,0.8039944554345922
6.0546875,-1.5470435979553008,0.9296941417842047
6.05859375,0.6427525050526464,1.3079260735324234
6.0625,0.6827797649382689,0.42965866627818394
6.06640625,2.1121162687675836,-0.3785070766386289
6.0703125,-0.7128675283033834,0.9672096189099308
6.07421875,0.5161680150545478,1.4938319767124233
6.078125,1.1980694579083302,0.08693778037555366
6.08203125,-0.207741354029618,0.5083660527002102
6.0859375,-3.5582673223677136e-05,0.7154858483718662
6.08984375,-1.1395316620180729,-0.2690219454596528
6.09375,-1.0622484862126522,-1.6388145387387327
6.09765625,-0.3577174553998055,-1.2257884692671361
6.1015625,0.4936713825668684,-1.7723804450078549
6.10546875,1.1218886005636806,-0.2962982129931492
6.109375,1.1537487003787552,-0.9643640964375362
6.11328125,1.4094834967179342,-0.07661586313207779
6.1171875,-0.31930541230528425,-0.7547143531138917
6.12109375,0.7521145914311156,-0.8610068515726588
6.125,0.8365290841664523,0.5819231261346923
6.12890625,1.597520448724427,0.7012036968891737
6.1328125,-0.25781901845131766,-0.6280482288070361
6.13671875,0.5520496272379019,-1.5018874007158742
6.140625,0.3460716636199708,-0.222687804055794
6.14453125,0.051700772831875325,-0.8433975453602792
6.1484375,-0.05775812351900323,-0.41199759764752636
6.15234375,-0.42153362001262296,-0.1342851486983731
6.15625,-1.2238070838982729,-0.29308152629711987
6.16015625,0.14019068710142626,1.1209724915833101
6.1640625,-1.4884820109362258,-0.8288687323994458
6.16796875,0.7392518579728826,-1.806057429034213
6.171875,0.23849450134293124,0.48997834677575297
6.17578125,-0.9747890055379658,-0.2703430583568812
6.1796875,1.1077169044767705,-0.09302649149198673
6.18359375,1.0113038589063081,-1.4737274082102747
6.1875,1.317999229352715,0.04295856084485976
6.19140625,0.47615244938221374,-1.9137476590087281
6.1953125,1.2546609537864843,-1.7106417146086839
6.19921875,0.9969019972073273,-1.498367285586508
6.203125,-1.1334959658246404,0.28184144892673635
6.20703125,-0.8630521335698956,0.9501292960815251
6.2109375,-0.39849351347167034,2.1464812406173954
6.21484375,2.9254835740189087,0.16270221242903396
6.21875,-1.3754965289913452,-1.2628025368872384
6.22265625,0.1193215727729827,-2.0609539020797247
6.2265625,1.4200635389251808,1.2158905050472957
6.23046875,0.3372322243251291,-0.041422204754079824
6.234375,0.16266737649581145,2.7646813162299737
6.23828125,0.4146629905939655,1.3592332660503585
6.2421875,-0.3804222891539401,-1.101607284980177
6.24609375,0.3056510349553186,0.8224906719383802
6.25,-2.276373066133617,-0.3095249456996205
6.25390625,-0.42231071786569635,1.1517257420097093
6.2578125,1.3245321263582357,0.3598522020240623
6.26171875,0.16300169898037659,1.0320155644162259
6.265625,2.1713704868687747,0.277191081433693
6.26953125,-0.3549403018582146,1.0649810182320933
6.2734375,-0.734166964335748,-0.7760453834858436
6.27734375,-0.4103446677723551,1.0878844946095825
6.28125,0.026862841958909495,-0.95023617576371
6.28515625,-0.19059331009563868,-0.43368654530747575
6.2890625,0.7935940972613668,-1.3552097533258822
6.29296875,0.19113480197544425,0.5436800157988732
6.296875,0.6685171811282314,0.09351996998512208
6.30078125,0.40560714423937916,-2.9234626643625674
6.3046875,-0.13517959048015857,-0.3095259750885876
6.30859375,-1.5602053065888997,0.6508122432374623
6.3125,0.5898865411363293,-1.5133830156799501
6.31640625,1.0652593040322718,0.7691840071478819
6.3203125,0.9391546709828509,0.23045722087249074
6.32421875,-0.7169794597182931,-0.3917095674940203
6.328125,0.48004640484888633,0.9464540137958485
6.33203125,1.9759451468466778,-0.43434335857989154
6.3359375,-1.4337017130633767,-0.3019007421308403
6.33984375,0.03097594272783516,2.6801039427732603
6.34375,-0.8723776017873748,0.6665471799381435
6.34765625,1.1791462895101,-1.0036282209122023
6.3515625,-0.22281962496555296,0.013373847303661732
6.35546875,0.1910305760060197,0.4030447728638754
6.359375,-0.47204402978048016,0.24477177151974971
6.36328125,0.016875223963258287,-0.44485088576026777
6.3671875,0.8285905091627906,1.4928119560000912
6.37109375,-1.23723440546661,0.11747180859881934
6.375,-0.6024250478755624,-0.08697460323094085
6.37890625,0.32827955543277226,-0.8252006175320055
6.3828125,-1.9008222653543432,-1.1481273010171502
6.38671875,-0.45794331347348455,1.7230967717594818
6.390625,-2.084444219792098,-1.3466057052468532
6.39453125,-0.09171735623167675,-0.1987618674234146
6.3984375,0.0783973222940661,-0.15801108284755247
6.40234375,-0.7601070558667797,-0.8574762107853029
6.40625,-1.0790757571615988,-1.439545041301182
6.41015625,-1.6914035587931038,-0.8270071239912196
6.4140625,-0.517271256616899,-0.20475631012364315
6.41796875,0.5505123097026468,-0.16178256674528899
6.421875,0.283090762345815,1.1712329545125406
6.42578125,0.15364284166614392,-0.38216342484024174
6.4296875,0.1466766073323907,1.4287568122498269
6.43359375,1.2638861317693668,1.5875842266856657
6.4375,1.576514014345383,0.46002642206146765
6.44140625,0.8356318480371402,0.9110249729822595
6.4453125,0.6582229420123323,-0.3536507484377402
6.44921875,2.130841027609167,0.13902606650273286
6.453125,0.6640922684790378,-0.04262949399436121
6.45703125,0.8593332239595469,0.01737131681112046
6.4609375,0.777303815970673,-1.0296495368647696
6.46484375,-0.33369210245870784,1.5350563260463501
6.46875,-0.05366923622313533,-1.599386445189676
6.47265625,-0.1912154117944169,1.864859249337612
6.4765625,-0.46078857638109444,-1.5263820297088257
6.48046875,-1.1676731334824781,0.8925991966376702
6.484375,-1.1315464674432532,-0.7249766429447011
6.48828125,-2.2213846164371116,1.3312723130878146
6.4921875,1.4502290003560354,0.16830054393051028
6.49609375,-0.4316572160960021,-0.4669247037593118
6.5,-1.194435743507514,0.9799348787570772
6.50390625,1.3604345177938146,0.320093216401364
6.5078125,-0.9140045994078623,-0.18422810061971914
6.51171875,1.0724755499657017,-1.1041756394760687
6.515625,-0.6301073332818027,0.12506225971794444
6.51953125,-0.5506233348165743,0.7227426784782918
6.5234375,-0.13926133198117802,-0.592886140486214
6.52734375,0.7002917914678796,0.7216613624237245
6.53125,1.2825640537491267,-0.587152102695544
6.53515625,-0.4563832316534055,-0.851680873324454
6.5390625,-1.2899706228453727,0.6331403884078857
6.54296875,1.224065834326882,0.6537137204944938
6.546875,0.6396978597952571,1.7567685785677818
6.55078125,1.2751064216305985,0.9696000712463833
6.5546875,0.2728503142892867,-0.27606419083075
6.55859375,0.824435758352584,-0.048456478945801115
6.5625,1.0057281889632723,1.1597999772317222
6.56640625,0.30525446454008365,-1.2586693390784607
6.5703125,-0.3487810795241925,0.9272614159753974
6.57421875,-0.517646675955554,-0.7505232236745701
6.578125,-0.05173207455220597,1.4150641666094084
6.58203125,-0.2310199697102101,1.0959294030141986
6.5859375,0.8825205380857023,0.7233936567481999
6.58984375,2.452495374088946,-0.9437547835048506
6.59375,-1.8267007235812762,0.12311828558037606
6.59765625,-0.6676513167262742,0.18534127838008926
6.6015625,-0.16026294818075706,-0.6470775356353887
6.60546875,1.3321269165434868,0.016120672416239684
6.609375,-1.2237372943429499,-0.09296060145878347
6.61328125,0.6421940458220662,-1.2021352307287287
6.6171875,0.7357025879469121,-0.1377997851706928
6.62109375,-0.6811876254124944,0.17030934054231497
6.625,0.4625807199755037,-1.108405354932334
6.62890625,0.6527766988358082,0.5642580092734496
6.6328125,-0.8378807979008432,-0.9808733590628288
6.63671875,-1.1800785744363933,-0.5865147895207053
6.640625,0.3411839958364896,0.2711121863413157
6.64453125,-1.2667472740742425,-0.9273862576152764
6.6484375,0.6938295644449474,0.44666498277241734
6.65234375,-0.4885333433769722,-0.19344596039535708
6.65625,0.33510572239083974,-0.9937277270725741
6.66015625,0.9383241368390565,-1.0445181690619043
6.6640625,-2.425479234461892,0.1879234781216694
6.66796875,-0.6876826422899582,0.41452805928054137
6.671875,-1.5678683011962167,0.3583828052283859
6.67578125,-2.7508047196086243,1.878834328827136
6.6796875,0.4529701579449573,0.01901789646383346
6.68359375,0.6815180209205882,-0.5374002388760118
6.6875,0.07298454090566057,-0.04430458427167052
6.69140625,0.5792738584677601,-0.4342586966754443
6.6953125,0.119353206984214,1.113216153553423
6.69921875,-0.8610333935875109,0.8127290389476646
6.703125,-0.5739717111339862,0.8646268955309641
6.70703125,1.8424828250092238,-0.0397785282727589
6.7109375,-1.4777090205742205,0.5367961217487999
6.71484375,-1.3691076550297172,-1.2582185088012128
6.71875,0.49245313815604946,0.878242541052854
6.72265625,-0.8433466626180893,0.38655337881789564
6.7265625,-2.193920189918616,-0.9391390936027914
6.73046875,0.4901838578879265,-1.6418237007442578
6.734375,1.48524026015312,-0.15482891848579552
6.73828125,0.513268331621702,-1.0124110574434444
6.7421875,-1.9112115717441873,0.08535695484605367
6.74609375,-0.8217685919638532,-0.8923498448406005
6.75,-1.07364287152012,-0.9879787352050358
6.75390625,0.8634406329857536,-0.3433090449760124
6.7578125,-2.26247676171799,-0.48493363787218563
6.76171875,-0.6682548019337419,0.05235582949780922
6.765625,0.006354614129231863,0.4188156314493559
6.76953125,-0.5627503885786787,-0.2510083059445826
6.7734375,-0.2554644102612636,-1.6501383586410603
6.77734375,-0.4313959132901541,0.10671610158936476
6.78125,-1.2188257981694364,-1.7082850954114386
6.78515625,-1.0738624905623324,1.439263483585529
6.7890625,0.3678296915952569,0.012472331374045444
6.79296875,-0.6968430806712693,-1.696180313213935
6.796875,1.4811585138730652,-1.591029547881858
6.80078125,0.7287969751008067,2.4709691147221857
6.8046875,0.2267579578724373,1.1854579810941934
6.80859375,-0.5076061761120446,-0.5940166020174307
6.8125,-1.3842115622241222,-0.39741296935353193
6.81640625,-0.10607489090001199,-0.2926255309184852
6.8203125,1.521305958211654,-1.9960890162862923
6.82421875,0.059003275571057404,-1.357678897557574
6.828125,0.3328028224365969,-0.8075027853255148
6.83203125,-0.71764040183436,0.2642462497435063
6.8359375,1.3134109939141552,-1.0321807525458517
6.83984375,0.7617764437763279,-0.007651441151502495
6.84375,0.9485584757283131,-0.08534654031089585
6.84765625,1.229436288123187,-0.4962804717614051
6.8515625,-0.3165849719713973,0.014387465041336285
6.85546875,-0.6124182311799345,-0.1028118928001449
6.859375,-0.4822553371192983,0.030097042331114796
6.86328125,-1.1553111070475737,1.0008823293129325
6.8671875,-1.280795309603306,-0.641957405122256
6.87109375,-1.2803316161270342,-0.9230589495171401
6.875,-1.7811994396841018,-0.9458664667051304
6.87890625,-0.5531982360001384,-0.43656613169687153
6.8828125,1.1111728565667622,0.00021010731499920317
6.88671875,0.633397500630259,0.29058646878296085
6.890625,2.4556692730125453,-0.28271816095545144
6.89453125,-0.9469900023326258,-0.9274721185385112
6.8984375,-0.6033298063395912,0.2630191843370534
6.90234375,-0.5968549520379142,0.609512055148768
6.90625,-0.4442730221294718,0.10502343413818524
6.91015625,0.9730494764912078,0.8597051002184654
6.9140625,1.1630189376322904,-0.9190602837589615
6.91796875,0.19945286958641675,-0.0322785761957955
6.921875,1.8875936233693833,0.9678315302858428
6.92578125,0.4226953746370232,-1.0468899792069375
6.9296875,-0.9046661784353766,-1.323097830445232
6.93359375,-0.5005300031615694,1.8769758096891378
6.9375,0.10565234428457629,0.623153349123403
6.94140625,0.9630451309430968,0.21725425889212505
6.9453125,-1.062488073533407,-1.1301968590133498
6.94921875,-1.3515352531831968,-0.26351524653607605
6.953125,1.9698607099342142,0.17585159041444406
6.95703125,1.1909933577225227,-0.05639519346880298
6.9609375,0.8623768917679288,0.05583216504246728
6.96484375,1.775053008513256,-0.30699672466491923
6.96875,-1.247309386168446,-0.6519305499849898
6.97265625,0.06179275471276747,-1.0094498548106383
6.9765625,2.1776283306197235,0.04218020624697588
6.98046875,-1.7557115481649448,-0.5084989117035739
6.984375,-1.0647562879540315,-0.6664193511353713
6.98828125,1.5448326203922553,0.037500547085632566
6.9921875,-1.1397171414845908,0.18421200898154141
6.99609375,-0.06710186429448885,-0.8753146412219497
7.0,0.8273080510300932,-0.17918795951492406
7.00390625,-0.46930285639666763,-1.336362637537016
7.0078125,-0.4303782451578135,-1.152074525696983
7.01171875,-0.9768729248885369,-1.388074927103918
7.015625,1.4064449162169264,-0.16337184134887503
7.01953125,0.6700092579172601,1.675684045245948
7.0234375,-0.5396072274047502,0.6410100081796226
7.02734375,1.5444919783481361,1.3248348774641732
7.03125,-1.7017104069807765,1.8680251749143975
7.03515625,1.3115574584598284,0.17932050786136408
7.0390625,1.2009492826832255,0.4170858179507813
7.04296875,1.4984504690287697,0.38487422627693474
7.046875,-1.159183289233073,-2.2246721291335563
7.05078125,0.6862908765345984,-0.49580378214953724
7.0546875,-2.1839845023459996,-1.6791447388672163
7.05859375,0.23605215477736402,0.09483225060765886
7.0625,0.9024673373498926,1.0666196546768245
7.06640625,1.3178781175498755,0.42604318544903785
7.0703125,-0.9139410416747572,-0.5510072970783098
7.07421875,-0.8668882403778105,-0.36211692697319564
7.078125,-0.9517107115765727,0.35130447611806925
7.08203125,-0.000814861922451604,-0.5478927621751088
7.0859375,-1.5049798332328064,-0.49260186969501923
7.08984375,1.2046454827169017,0.4094811256880083
7.09375,-1.9606940924345442,-0.2825672029738052
7.09765625,-1.2044686410393313,-0.026664920905416903
7.1015625,0.012508357453408126,-0.06521874278080346
7.10546875,-1.9909056641005238,1.1448440015751424
7.109375,1.8322278476417293,0.09267248253664931
7.11328125,2.362649852904762,0.1817770775311203
7.1171875,-0.14130014627679374,-0.5220834556330749
7.12109375,-0.6815862735035418,-1.2783980561521506
7.125,-0.06867406090706953,-0.5890129243412969
7.12890625,-0.6379003539727003,1.107865708031164
7.1328125,-0.48688071355666385,-1.0299326908977644
7.13671875,1.834350307462068,-0.1998173011771431
7.140625,0.10866629857359543,-0.26558630961733687
7.14453125,1.2874218706022487,0.5263735547938371
7.1484375,-0.415988686895585,0.5241906242199652
7.15234375,-0.5285677290479323,1.5909259169177372
7.15625,1.2178780039464892,0.13610001411352207
7.16015625,-0.07204456119785024,-1.8204028435550523
7.1640625,-2.8388121596938816,-1.6943442201278958
7.16796875,-0.0741124322057674,-1.3198592491981092
7.171875,0.355588216931103,0.7180819897861985
7.17578125,-1.4086148581657312,0.5132637090778418
7.1796875,-0.012402266565596124,0.21721014054897242
7.18359375,0.5663868582386693,0.2565830836239242
7.1875,-0.5121129218115845,-0.8269246966489587
7.19140625,-0.4939686129748937,-0.001147568687476632
7.1953125,1.5170595344696536,-0.7725787926260559
7.19921875,0.5824841028707618,-2.3726567755739714
7.203125,1.0957362071164112,1.0191361183865122
7.20703125,-0.04553072037669285,1.0910430578238501
7.2109375,-1.7953911035161085,-0.9614764520326127
7.21484375,-1.6495776736102752,0.31838180835403834
7.21875,-0.44281529623021065,-1.8723606269409754
7.22265625,1.478778130969874,-1.0497674189041437
7.2265625,-0.9835174839279907,-0.8456309365535257
7.23046875,0.018647978606512954,1.0107610909484948
7.234375,0.3874766456509122,-1.7219052959153303
7.23828125,0.3576210616350194,1.033463147113547
7.2421875,0.45733081131932113,-0.6671641259608262
7.24609375,-0.09084135325849488,0.6900920371353483
7.25,0.356504962504888,1.1879909424462394
7.25390625,-1.0148567031932043,0.45910908474623785
7.2578125,0.5418806219162041,1.1473880701706716
7.26171875,0.7122334668273037,1.6967760604012971
7.265625,0.8652864801799539,-1.343505862049061
7.26953125,-0.00476067959218801,-0.7533571257989784
7.2734375,-0.855904194576295,-0.6969004641201187
7.27734375,-0.7910518653236198,-0.8557894314182803
7.28125,-1.3764151115980454,0.04315098608023009
7.28515625,-1.581976064128969,-0.2309084140522711
7.2890625,1.2423071103621879,1.5715288874660938
7.29296875,0.5537014168442203,0.9544747619592638
7.296875,0.7007571786906348,0.9944962910218947
7.30078125,0.6104317968106531,1.4981035146657187
7.3046875,-0.6535915252027737,0.010700800514226854
7.30859375,0.2470086406912719,-0.5546727447944594
7.3125,1.6990821296194007,-0.025486880420626395
7.31640625,-0.6730067216167617,0.33767952756953157
7.3203125,-0.605501507417554,-0.764916847171205
7.32421875,0.3849773807215347,-1.3825457655896418
7.328125,0.3137879674446961,-0.7247947257250565
7.33203125,-1.2889977683863836,-0.415104888096026
7.3359375,0.4392376712540426,-0.979614770422367
7.33984375,-1.067284093489414,0.7987505174027929
7.34375,-0.2612034562115438,0.848222983201927
7.34765625,-0.29859243871766555,-0.456464548523556
7.3515625,-0.08704470542736174,-0.6083175691592027
7.35546875,1.4697734832981357,-0.5391658020400236
7.359375,1.269424074357375,0.22770042432999138
7.36328125,-1.7605858624820738,0.5513987886137142
7.3671875,0.9761277364391391,-0.8057215765170384
7.37109375,-0.6657254237085973,-0.7452467545055937
7.375,0.38196306423464665,-2.0256896032155356
7.37890625,1.0798372713620568,0.380910210923294
7.3828125,-0.36275708081166913,0.7636522604884723
7.38671875,0.35621202363978566,0.0016887138980829408
7.390625,-1.1606472082403996,1.9089967106639567
7.39453125,0.7971875477443869,0.020587605505789065
7.3984375,1.9502437557244519,0.6693738070781041
7.40234375,0.4839792725176222,0.6439615331930651
7.40625,-1.405533117085651,-0.6653886466735427
7.41015625,1.1379975744345465,-1.0103027772553719
7.4140625,-1.4064954894033288,0.01835846675433938
7.41796875,-0.20818867433274846,0.588082568058815
7.421875,1.228913707479878,-0.5441305318445334
7.42578125,-0.054329321529748405,-0.9830452070535928
7.4296875,-2.4600208753102697,-1.255713814752775
7.43359375,0.35182433498442073,-1.2944455636348196
7.4375,1.23888769468559,-1.6039032592345104
7.44140625,-0.46549888362930764,0.2540471704090796
7.4453125,-0.32006785367058493,0.6784012962066707
7.44921875,2.023179903356025,-0.47288156135712806
7.453125,-1.1133124460986275,0.8018792219588486
7.45703125,1.3616709560336173,0.12585430724025176
7.4609375,-1.520609782586095,1.0237457148484228
7.46484375,2.1228779820885166,-0.7731417154599864
7.46875,0.5528578562076307,-1.4720140643835862
7.47265625,0.1582092375508512,1.0328242779862242
7.4765625,-1.1003562519554946,0.3943393415752096
7.48046875,0.7467536696353771,-2.5342607735024196
7.484375,0.7081728952726932,0.4504071045296552
7.48828125,-0.9053622664184413,-1.1678286109289318
7.4921875,0.43919572170378934,0.16216390883263804
7.49609375,-0.6135771793081667,-0.3699977580744186
7.5,1.005665171234644,-0.7898924846664516
7.50390625,0.9127979779170693,-1.0519735517482969
7.5078125,0.47626079236380914,0.9960393218055487
7.51171875,-0.08154148337310385,-0.7445539467567402
7.515625,-0.3796653520414153,-0.2480834698632249
7.51953125,0.18647987014337783,0.26995904352192146
7.5234375,0.030945000051692168,-0.19728447957035788
7.52734375,-0.6539610688252504,-1.5465423086437615
7.53125,-0.6175520089019323,0.9905655348830664
7.53515625,-0.5460493959851702,0.2993380721364344
7.5390625,0.2648031310532212,-0.37180226617289897
7.54296875,-0.1510252139234092,-0.31564964972147413
7.546875,0.29903236457759313,1.5475382586810218
7.55078125,0.6522640048781071,0.10202373493899744
7.5546875,-1.1522530387392467,-0.7275934462289029
7.55859375,0.9701605431525533,-0.034531099230707046
7.5625,-1.6420462188608054,-1.0865664848624212
7.56640625,-0.6279397739801905,-0.19161731842756677
7.5703125,1.3042507357187685,-1.0310386926888953
7.57421875,0.5362495289941878,0.24349377444631864
7.578125,-0.03180008780607756,-0.42372487429861766
7.58203125,-0.5603669491997337,0.36387077010303587
7.5859375,0.34263032274178457,1.6302980763548058
7.58984375,-0.9903156781560216,-0.30216638613962693
7.59375,-1.8998015642406996,-1.97088517398099
7.59765625,2.3042939071259987,0.3561762238216608
7.6015625,0.5153628861844916,1.5213034544932311
7.60546875,0.01949188040876003,0.15743037874314464
7.609375,-0.9074251698305277,-0.0026420896624186046
7.61328125,-0.5947699236062336,0.051213614778366334
7.6171875,1.2748215121592206,-1.1012407320096425
7.62109375,0.8927105810281489,1.5270437499573821
7.625,1.4539822664526059,0.4851905506784182
7.62890625,0.4638008929140091,0.008378050452412827
7.6328125,-1.4023138182722574,1.4766226554640545
7.63671875,0.25932288366918366,-0.0016125335270342578
7.640625,-0.6417314644717846,-1.3703941645407756
7.64453125,-0.8599224673428978,-0.29567276366994644
7.6484375,-0.102938012706393,1.7176153277620168
7.65234375,-0.02864179495844666,1.606764804040719
7.65625,-0.5106900048761677,-0.8244628796782049
7.66015625,0.19894710130741422,1.459267429109853
7.6640625,-0.21175867205195736,-0.4765855230320312
7.66796875,0.014741779296318631,-0.9092785848997869
7.671875,-0.055711214512937174,-0.8328554908419719
7.67578125,-0.818284574639792,-0.4240234226002024
7.6796875,1.6017783389132614,-0.5373816696007585
7.68359375,0.4997281594219619,-1.4125598765919236
7.6875,-0.7592056626839022,1.6783100051274387
7.69140625,-0.5476550041532423,-1.3946665839489825
7.6953125,-0.33753689914160173,0.49245791073754613
7.69921875,-1.308253231141867,-0.7366073334117013
7.703125,-0.26583827054178105,0.6462774946016523
7.70703125,0.08088729370188617,-0.2677816024754204
7.7109375,0.7271242976322758,1.256713099653256
7.71484375,1.6310710567865234,0.5704466797321145
7.71875,-0.5708739021327437,-0.8966038179400784
7.72265625,-1.0047446147447368,0.10818951257775175
7.7265625,0.25607605205896994,0.4537341433629494
7.73046875,-0.6441915639130011,1.0193119664221764
7.734375,0.870642207897977,0.8739673890377547
7.73828125,-1.0602980208677724,1.8023991429378534
7.7421875,0.8747381973445515,-1.348764001229846
7.74609375,-0.4207115294793095,0.22899110639295436
7.75,-1.5241220388255534,0.516292703255226
7.75390625,-0.37394158447823295,0.2223056014185973
7.7578125,1.5147892146974011,1.4883627476164851
7.76171875,0.6302457022752733,-0.7910523609512371
7.765625,1.2071491132800818,0.5692894901865606
7.76953125,-0.5214257625549865,-0.7210819462816579
7.7734375,-0.004501727069108751,1.172421106358959
7.77734375,0.1565110737914631,-0.5930160914980923
7.78125,-2.055576371228824,0.08251872546253747
7.78515625,-1.3661699387785797,0.002398663487411273
7.7890625,-1.7225281382096336,-1.222887003114303
7.79296875,-0.2926824427697142,-0.33281941660933084
7.796875,-0.5104344412816586,-0.40148927062768336
7.80078125,-0.6796944462266187,0.17879515443239383
7.8046875,0.8908101968719094,-0.07222829992392359
7.80859375,0.002738098503862142,-1.2042408330370649
7.8125,0.8384672709554043,0.20190543350823248
7.81640625,-1.835652166965993,0.8966441695079903
7.8203125,-0.5403954916777983,1.6382549795826196
7.82421875,0.22553721667750176,-0.6765325977617456
7.828125,-1.584698864495158,-1.545322145183699
7.83203125,-1.3154335783352789,0.7999015440197816
7.8359375,-0.5025452944855124,-1.2953932308648828
7.83984375,0.3672805257587711,0.4625597604392678
7.84375,-1.074117272602512,2.2011891546334064
7.84765625,-1.3865455233197006,0.14372123772001202
7.8515625,-1.7250684186376208,1.8061743262277639
7.85546875,-1.0447331123873347,-1.289423042839133
7.859375,-1.7653475127843936,-0.24389204787084334
7.86328125,1.397319125775835,-0.19452033496343174
7.8671875,-1.010962450738858,-0.5976691192376337
7.87109375,0.45225851449424637,0.7945108261327302
7.875,-0.918712208423041,-1.0912663991517177
7.87890625,0.15286563116313515,-1.4804267876949664
7.8828125,1.3319056549268968,-0.6073239538487033
7.88671875,-1.126334248050788,1.3486016968978844
7.890625,-1.0857717553213868,0.1597024885268212
7.89453125,0.5081540236600067,0.6821581941988984
7.8984375,-1.1482911631448598,-1.7028831629991679
7.90234375,-1.04626109055023,-1.3175531283204351
7.90625,0.47858408299064326,-2.1828587694552506
7.91015625,-0.732202467183103,-0.09704923466061717
7.9140625,-0.27548167028523246,-0.6702155760298851
7.91796875,-1.6675977783290614,-1.1411506483992062
7.921875,-0.815557447570545,0.5601453676525481
7.92578125,-0.8157525379817931,0.64521428134892
7.9296875,0.6387540394939064,0.8295211988704189
7.93359375,-0.10567001296264462,1.3522233872833636
7.9375,-0.1223004250472162,0.13277620542366794
7.94140625,0.29017383295206856,-0.7380100404462607
7.9453125,-0.10943449043148544,-0.26355187411898645
7.94921875,1.1368746332324542,-1.3366805441953487
7.953125,-0.890643686980199,-1.4466342203593427
7.95703125,0.1496441905629928,-0.9704093113426504
7.9609375,-0.9998848997779126,0.2802766878425125
7.96484375,1.016631256407993,-2.8472201466048164
7.96875,0.5406023276607235,1.65580064419464
7.97265625,1.3132427511847975,-0.5762102278974958
7.9765625,0.14893841867242189,-0.28666202931523815
7.98046875,-1.8198905741966125,0.7311200933527284
7.984375,-0.3718603278567124,-0.48430589074862557
7.98828125,1.5041232494288856,-0.9031583101118923
7.9921875,2.833465626548175,-1.3871197853992856
7.99609375,1.7601786012703,1.1601893779074595
8.0,0.00293328180647333,-0.2558928713357147
8.00390625,-0.6073606627476328,1.8724315764551107
8.0078125,0.9652693650071227,-0.3509808537782652
8.01171875,1.259175931089644,1.1274270184434785
8.015625,-1.2656533378532644,0.10254297544182099
8.01953125,0.8809127969096268,0.6827663621813983
8.0234375,0.2200189423296443,1.9615856869135062
8.02734375,-0.26897474578957925,-0.45114339872706033
8.03125,1.1081388441190028,-0.2521066212081808
8.03515625,-0.22726309827357327,1.248957012173045
8.0390625,1.27580103239205,-0.11753574846970251
8.04296875,0.9713761289341017,0.3429278986905731
8.046875,-0.704354689557113,0.23162232402267485
8.05078125,-0.9653869787364671,-0.34519859719724233
8.0546875,-0.4496707009788408,0.756649154093688
8.05859375,0.8950622635929306,0.4465201043822417
8.0625,-0.1537254110693487,0.360895171560432
8.06640625,-0.09187014425740567,-2.1803330941728767
8.0703125,-1.1651526191312005,0.26669159671138576
8.07421875,0.0003300711274250464,1.84236873263163
8.078125,-1.1318733326185884,0.24262022315008427
8.08203125,-0.8421203965561289,-0.3164176687058929
8.0859375,-1.1210421673257438,-0.5547085333275819
8.08984375,2.298323627549338,-0.18341196801125653
8.09375,1.131147381359502,0.23964147132086377
8.09765625,-0.45140085471518154,-0.5609610815322956
8.1015625,1.067127526876226,0.35041580725619637
8.10546875,-0.7694134046804672,-0.6451725494373011
8.109375,-0.04850042497118907,-0.9502893982869247
8.11328125,0.5721760655522803,0.7948520080393877
8.1171875,-1.4334847575432081,1.7462901179766162
8.12109375,0.3994889165103897,-0.4900476190161645
8.125,-0.1224829889348553,0.6803990534820101
8.12890625,-1.917998166676336,-0.5628448798972535
8.1328125,-0.48443571561166304,-0.28445947763240365
8.13671875,1.3795380568938118,-0.8711275748467439
8.140625,0.023960113504982353,-0.21467929482114148
8.14453125,0.047525618090163826,1.0938563526689575
8.1484375,-0.00035022957426148404,-0.6104550494729211
8.15234375,0.6398066971178935,1.3936583593943828
8.15625,1.0046585306235627,-0.7682100123444945
8.16015625,-0.3260763623700382,-0.19997336041783642
8.1640625,0.37229180406501644,0.5151217950219227
8.16796875,0.2971642550570579,-0.2688014003198837
8.171875,-1.2750456983504357,0.2369966054303569
8.17578125,-0.7690232584530113,-0.6103877161331842
8.1796875,0.4840645941998135,-0.6654554786589543
8.18359375,0.13819505574430666,0.08084351254601325
8.1875,-0.010172782339008191,-2.202916450481099
8.19140625,0.42545292485048425,1.030363493363573
8.1953125,0.28193179387047657,-0.07702446833161265
8.19921875,-0.38218215557200846,-2.0438365477748848
8.203125,-0.7531109739646686,0.5261092705033764
8.20703125,-2.478901629389031,0.6046498988232697
8.2109375,0.30228582119853903,0.33416210016757303
8.21484375,0.04422601300402881,-0.05183192618856759
8.21875,1.9108938385007432,0.029299842977440017
8.22265625,-0.2967643958382158,0.14700830483527236
8.2265625,0.46434715642733976,0.6189417749042387
8.23046875,0.16880093035260646,0.29432756330462323
8.234375,0.46092971608437505,0.5923389328312848
8.23828125,-1.8299729467432402,-0.5506616935508799
8.2421875,-0.45084753402377314,-2.441812381523333
8.24609375,-0.9520632739204299,-1.0522017210145553
8.25,0.4498899160948124,1.8797742806920783
8.25390625,0.12438547149661647,0.251697148340527
8.2578125,0.48068601885331796,-1.499450929867691
8.26171875,-0.8885877719507115,0.15528829130956645
8.265625,-1.3658054087748444,-0.15962430114836776
8.26953125,0.6440297889311383,-0.15715432412122887
8.2734375,2.058163087304829,0.005114059413961386
8.27734375,-0.5596023512062921,0.14272581900225015
8.28125,1.3033627787738729,0.43187526322354325
8.28515625,-0.9266810032107659,0.12969430592220804
8.2890625,-0.6303737016195009,0.7350856998400568
8.29296875,0.3411805480793579,-1.973861688548494
8.296875,0.98688299727064,0.4659717794898851
8.30078125,1.3507905545852104,-0.22907615224399525
8.3046875,0.4396155478362081,0.3595553802821235
8.30859375,1.749574570411143,1.0095067018831105
8.3125,1.4473633207688184,-1.5155963187968258
8.31640625,-1.301379043517161,-1.1193683373202608
8.3203125,-0.12302931270470302,0.8756923513649634
8.32421875,1.2170021414108023,-1.7319233026706153
8.328125,-0.32299779181637917,0.4048160065043841
8.33203125,-0.8835271551691408,-0.5804540929757748
8.3359375,1.4515085951172977,0.6053759604416741
8.33984375,0.7807074774049612,-0.7220805689706736
8.34375,-1.183078633596402,0.3183405092958888
8.34765625,-0.40957259393506706,-1.1538525429037705
8.3515625,1.1568809197104757,0.32546345546396915
8.35546875,0.12118343276498889,-1.346846664527371
8.359375,0.46480037335597857,-1.5065800489083823
8.36328125,0.656570207377427,-0.5343001185621679
8.3671875,-1.0264512203713008,0.03926122985604738
8.37109375,0.6307183557074387,0.39902933267533297
8.375,-1.2328379136268346,1.4573421940298668
8.37890625,-2.057770079162389,1.789080459245242
8.3828125,-1.3273818371915533,0.024121925625142798
8.38671875,1.3723091435690784,0.41743047938086114
8.390625,0.7450491254916397,0.470916303951518
8.39453125,-0.8959366052538895,0.2427776474999296
8.3984375,-0.15554746212286075,1.1850888676965345
8.40234375,-0.07012336677820233,-0.7030421525721808
8.40625,-0.9306599238468773,-0.905296970880104
8.41015625,0.14780232749239217,0.2828684090091401
8.4140625,0.1930653117393694,0.47784989785303694
8.41796875,-0.48927669720249406,-0.8548727621111517
8.421875,0.6949561443083236,-1.0088317505927231
8.42578125,0.3249621749329935,0.03348314105062166
8.4296875,-0.9694563102390077,-0.5589687304480419
8.43359375,-0.9015541599348459,-0.20647235341161335
8.4375,0.023742686274914028,-1.4676645730457034
8.44140625,0.3319231134156832,-3.045578841969455
8.4453125,-1.1660059388341792,-1.6454157364986959
8.44921875,0.5494612381564893,-0.18487237893173236
8.453125,0.48642689511219245,1.0062788911673937
8.45703125,-0.27917039401414345,-0.3441160138547156
8.4609375,-1.0545601099486008,-0.40394551042074606
8.46484375,0.2889109633730401,0.5086145314132355
8.46875,-1.1153990979638566,0.9466479560200214
8.47265625,1.0496384129379899,-0.8437992131869759
8.4765625,-0.06741153201875613,-0.08774797531106061
8.48046875,-1.451833474933861,0.690829800903398
8.484375,0.8117133068436642,2.006526795359514
8.48828125,-0.31986491465279204,-0.8349197540731225
8.4921875,-0.871605266662579,0.8486159057030186
8.49609375,-0.442434760429448,0.487986868698151
8.5,0.6848644336284035,0.1972385501655705
8.50390625,1.2408642094968527,0.3395951141548115
8.5078125,1.810934807863739,1.0165809990062318
8.51171875,-0.20477290982940954,1.1549427462638144
8.515625,-0.6377898927558622,1.1997837731257164
8.51953125,0.2546294779024194,0.09066036642476474
8.5234375,2.082614242960076,-0.9976324484106187
8.52734375,-0.54962337109781,-0.7923200536601501
8.53125,0.42163016327846775,0.32235302139828026
8.53515625,1.195952818822829,-0.527653622319911
8.5390625,-0.2812436392269116,-0.8818946286780612
8.54296875,-1.4110666961168148,-1.9447783393613807
8.546875,0.5846978470014741,-1.0649394804401537
8.55078125,-1.2574862713448063,0.10890443629735015
8.5546875,-1.5796943618131851,-1.316521338705736
8.55859375,-0.73022004449431,0.32783143271616816
8.5625,0.8553087279447626,-1.035140344420282
8.56640625,0.3994792435000355,-0.179077547670666
8.5703125,-1.0650626601720123,-0.2221562181483594
8.57421875,0.535654274468284,-0.4326446855955467
8.578125,1.4142372705151065,1.2606209217927813
8.58203125,0.3914037700244236,0.5556826935440103
8.5859375,0.05268930940974701,0.8014519074785535
8.58984375,0.3309281416936154,1.2757645640435276
8.59375,0.23395631138189935,1.4830341602390729
8.59765625,-0.21378029613957267,-0.593466679133315
8.6015625,1.0450249751325138,-0.049641753375671074
8.60546875,0.09047640407124508,0.6158351912424284
8.609375,-0.9162621196156828,-1.9159827417728963
8.61328125,-0.5929069478045196,0.8731418589876068
8.6171875,-1.8122492851921859,-0.6404978130812817
8.62109375,0.7188648715765039,-0.7376921804835912
8.625,-1.1861014918617379,-0.8948348549230813
8.62890625,1.4276879596788825,0.6499378078172211
8.6328125,0.16087647406042116,0.12320441639858992
8.63671875,-2.293632352261394,0.48539033979062435
8.640625,-1.3900902583207424,-1.196321468997273
8.64453125,-0.294431468872174,-1.2663063865265132
8.6484375,-2.7551360076628804,-0.15997640801155708
8.65234375,-0.5043965244120071,-1.2177789977193811
8.65625,-1.1224867147532838,1.2744418290315442
8.66015625,0.42736537151319576,0.8363495457831496
8.6640625,0.24421634583721336,-1.032905166351698
8.66796875,0.003470640596270101,0.42468767382679745
8.671875,1.9535634317391508,-0.4582057493065416
8.67578125,0.39401790119832186,0.9883911000280733
8.6796875,0.6477004233933806,0.5366171991719788
8.68359375,0.30757370804490686,-1.059834079692544
8.6875,-0.11862135146166394,0.7159352477957246
8.69140625,0.32108739460101704,-1.9672140590343523
8.6953125,0.5241341683321483,-0.10137861809959035
8.69921875,1.2335985425866445,-0.14076471458185175
8.703125,-0.007299984546009546,-0.3295129624917057
8.70703125,1.1357548982774472,0.3935090191269505
8.7109375,0.8980767974508943,-0.6697223956620779
8.71484375,0.5362725884224354,1.12436091350184
8.71875,0.6464433056844063,-1.0903573876609156
8.72265625,-1.0374400942797237,-1.665374734065909
8.7265625,-0.4665636866463483,1.8542447243251639
8.73046875,-0.3806321504731169,-0.8030328097790074
8.734375,-0.9981445882970923,-0.12841014122621944
8.73828125,-0.31963802320613094,0.5085439914056591
8.7421875,-0.29101936267379847,0.6331615104474175
8.74609375,-0.003495693584630973,1.2290753891102764
8.75,0.5468564162966135,0.19442038982071416
8.75390625,-1.4026524411483468,0.1189834370467481
8.7578125,0.9414787865051594,-1.5925614058136297
8.76171875,1.6120422246772252,0.5658392171873365
8.765625,0.02506020911084151,-0.4980323775724216
8.76953125,-1.3078812847693826,-0.6584796479118751
8.7734375,-0.7460734253258596,0.027242097230203304
8.77734375,0.7072748434160692,-0.8358758924839711
8.78125,-0.18013354952012586,0.3969475088112572
8.78515625,0.7802758406850132,0.27422245815200186
8.7890625,1.5405345358820168,0.7087349390253102
8.79296875,0.5155285267157479,2.219251934174979
8.796875,-0.44839139874647377,1.076704984023654
8.80078125,0.11185211677414092,-0.5209391064008558
8.8046875,-0.19435895840938278,-0.3692434138305786
8.80859375,-1.244032459441481,0.9942367498593282
8.8125,-0.31353493329224874,0.7707322625127995
8.81640625,-0.8741365964275137,0.8135915858634108
8.8203125,-1.5875557653309826,0.1993784886867872
8.82421875,-0.9886094339457577,0.2453595503872224
8.828125,-0.0559269619071933,1.4030855364593793
8.83203125,0.17728198789529265,-0.4998122359497452
8.8359375,0.6974464398330943,0.1527989781567436
8.83984375,0.20801873176153732,0.35171413885605696
8.84375,-0.31659218958491053,0.7196444409603532
8.84765625,0.8858895788356582,-1.3362860117289392
8.8515625,-1.2208330940760805,0.30086841741295206
8.85546875,2.3363510214920984,0.15394403617182276
8.859375,-1.4562560506921405,-0.05891564336436711
8.86328125,-1.2759016493192394,-0.007051636227410294
8.8671875,0.6411662999520888,0.17804121369093417
8.87109375,0.3892063132002439,0.8794456722531808
8.875,1.4447098273333614,-0.9020753043513436
8.87890625,-1.085622072505928,-0.3595255279270738
8.8828125,1.0780180085935742,-0.3777976049847347
8.88671875,-2.38275400526355,0.6667455510735516
8.890625,-0.1466580372825316,-0.061373489951817156
8.89453125,-2.465204492814186,0.4114614272155163
8.8984375,2.1432814623547234,0.4030426380742934
8.90234375,-1.4951772232421419,-1.6033246244206862
8.90625,1.0202812635005696,1.4927053109534238
8.91015625,-0.2870643452285274,-1.4139590351061027
8.9140625,-1.3916681282729675,-0.8869869950782283
8.91796875,0.8192696611407096,-0.361596106744311
8.921875,1.829108567460774,0.434453793459776
8.92578125,0.8396046403532034,-0.12937965593292394
8.9296875,-0.26630477368651445,0.389000725647112
8.93359375,0.4235831813317579,0.589599288046866
8.9375,-1.749768161697242,0.2981970997705035
8.94140625,-0.8803393884809617,0.7436401638452682
8.9453125,-1.0020128627452443,0.9958426760719999
8.94921875,-0.9315068917421306,-0.6356449074365171
8.953125,-2.0703686656107934,-0.8849264376334736
8.95703125,-1.5045381713104946,-1.762785399830466
8.9609375,-1.343827337129086,0.5590240128125359
8.96484375,1.8001751454674635,0.8763856827242822
8.96875,0.11607567703425893,0.6864150114485814
8.97265625,-1.4583221452115922,-0.7296411147192132
8.9765625,0.0478359733357453,0.2930160312584704
8.98046875,0.3664593019373088,1.2231045397053821
8.984375,-0.000816799189762634,-0.6672957866142237
8.98828125,1.9424358981765388,0.48713937734473667
8.9921875,0.39615763266629345,0.20415439849578404
8.99609375,-0.8293728140009454,0.21858495202667333
9.0,0.2999964666193165,0.5042670719069965
9.00390625,-0.3793927789839968,-0.5243377520412621
9.0078125,0.5349314123625003,0.5219501403424168
9.01171875,-1.4504952260459991,0.1808780615264425
9.015625,0.5036984701964397,0.3854122615838068
9.01953125,-1.1154426532688768,0.5832654926637301
9.0234375,-0.01216619227960455,0.18859447268860144
9.02734375,-0.07513361381768252,0.44885661952680134
9.03125,1.0893668359094097,-0.5164637362728629
9.03515625,1.4644070628159382,-0.9152661170195564
9.0390625,-0.6915514855523603,0.388756911941856
9.04296875,1.2028367502003445,0.30303531221221475
9.046875,0.8960663375522088,-0.4871464411456947
9.05078125,-1.196868644529287,-0.232534481246375
9.0546875,0.44302141041191395,1.002485477151225
9.05859375,-0.5397473694282585,-0.06922270460487634
9.0625,0.23321874523000966,-0.42544432753652967
9.06640625,-0.08926312824822671,1.1792418146210581
9.0703125,-1.7063041521246671,-0.9497544718425468
9.07421875,2.5948868303714083,0.7933100032257838
9.078125,-1.4101594973741387,-0.2792706191790032
9.08203125,-0.2407778410421592,1.3841971251707865
9.0859375,-0.09585974189595965,-0.8623766052756382
9.08984375,0.8041941082781711,1.2205798559419418
9.09375,1.108014102903416,0.17483449641106316
9.09765625,0.512670221224894,0.49690378104834926
9.1015625,0.10631248555333613,-0.7903651735029413
9.10546875,-1.8307854524145522,0.4369783775858514
9.109375,-0.34059315448371325,-0.2139758199844508
9.11328125,1.1836223346992023,-1.2232225022152494
9.1171875,-1.246075778987773,0.09799480683182835
9.12109375,0.4622805740646792,-0.19601017317156208
9.125,-0.34558610048963617,-0.21370689341839394
9.12890625,-0.31523875295963966,1.794861179103584
9.1328125,1.5828608513673124,-1.1665426528171978
9.13671875,1.881086771606856,1.029353975368586
9.140625,-1.0194376957809566,-0.5941529812370565
9.14453125,-0.014370324685554789,-0.49713338686091535
9.1484375,-0.39472294809172326,0.6049377787090356
9.15234375,1.1581490923584856,0.2569110196821458
9.15625,0.5087145564790292,-0.804510085400788
9.16015625,-0.7423186791652933,0.13126429615525717
9.1640625,0.39794360979944815,0.7580121126322572
9.16796875,-0.5012211564447852,-0.47460335719953717
9.171875,1.1050757758776206,-0.9641252660366219
9.17578125,0.447738273170194,0.9454113955680002
9.1796875,0.7185528859150707,-0.16153591622645808
9.18359375,-0.5903327024556558,-1.772925863768853
9.1875,0.6140302351680773,-1.3489371880733751
9.19140625,-1.1873639399205955,-0.16594417112299667
9.1953125,0.6740405295353503,0.019157385721440486
9.19921875,-0.019418372262215294,1.1851743431689041
9.203125,2.6264678381780455,-0.7028971362922122
9.20703125,0.8527170519374562,-0.4676568624892505
9.2109375,-0.41581741694419583,1.5045800001779719
9.21484375,0.5508207160268723,-0.4812101134214754
9.21875,-0.9290311847400351,0.5809219790457167
9.22265625,0.49595864166784803,-0.8403549387967326
9.2265625,0.8561902958263227,0.6517328089872619
9.23046875,0.3482649575718642,-0.9696473081036876
9.234375,-0.6286326967362538,1.055936993781639
9.23828125,-0.7964918927121504,0.29140471108903615
9.2421875,-0.5720189833670312,-0.2724402815001057
9.24609375,0.09803815110777658,-0.40757457436176897
9.25,-1.3155270816957425,1.8174803592530633
9.25390625,1.5551787727121174,2.343914619453341
9.2578125,-0.02202971214487379,-1.2327282674225652
9.26171875,-1.0926621410833888,0.5966719540086197
9.265625,-0.7687023998774727,-0.07480713226332215
9.26953125,0.8717656058400107,0.3086173659524209
9.2734375,-0.09040101462852482,0.27341458969083404
9.27734375,-0.8424735695985546,-0.27434806461976036
9.28125,-0.19593030055256555,-1.0423028981458489
9.28515625,-0.5384979046686978,0.8480863960062778
9.2890625,0.6240696804613793,-0.40928190302137185
9.29296875,0.1640912982352798,-0.18327957068201942
9.296875,0.6041509015606457,0.6822834544703174
9.30078125,-0.3058618983494506,-0.2797008414416228
9.3046875,-0.8128713886656976,-1.3550609154468702
9.30859375,-1.681079408347041,0.12778382643198277
9.3125,-0.9419899586240642,-1.551313326316085
9.31640625,-0.8475323923613295,-0.19814755194678663
9.3203125,-0.44516357650372934,-0.0858164749348431
9.32421875,-0.4351932103012135,-1.4781315937489636
9.328125,-0.37991191159404303,1.1306343251576196
9.33203125,-0.5640296069952451,-1.0223392092163768
9.3359375,-0.4859927060939204,-0.6853981122471788
9.33984375,1.0459476642029204,-0.7559077744101613
9.34375,2.0353583935575976,-0.1089546215221447
9.34765625,-0.7392082942360017,1.8826869871219793
9.3515625,-0.1653531784480925,-0.6419965780634874
9.35546875,0.318221124397519,0.2312341675835974
9.359375,2.291245285233996,1.0171946485570331
9.36328125,1.004596398458182,1.123651240690818
9.3671875,1.0387195031354532,0.7738148855430675
9.37109375,-0.5346702619221184,-0.8091680015939008
9.375,0.2205478089675241,1.8754584865845703
9.37890625,0.20782900954447248,-0.3353151965776575
9.3828125,-0.706053006461313,-1.0048928898414884
9.38671875,0.33917075071379327,1.6017515437595407
9.390625,0.9295171130103372,0.2662201013421874
9.39453125,-0.08481413850697836,-0.9733564621646893
9.3984375,-0.37274164500575424,1.0762653909826874
9.40234375,-0.055150383487829864,0.058878372201436886
9.40625,-0.16353907938383672,-0.6315405693256574
9.41015625,-1.0843760220685466,-0.8446089518333493
9.4140625,0.06257880327713365,0.9945282749904671
9.41796875,-1.338657868610103,-2.3065734236672073
9.421875,-1.6800207190562213,-0.656339216645725
9.42578125,-0.29294667399673535,-0.43237799226914386
9.4296875,1.1311710435421334,0.9075037737299676
9.43359375,-0.0842911949016602,0.3749366799598808
9.4375,0.38987322384936846,-0.621917988467963
9.44140625,-0.5122768986933157,1.0464457001757468
9.4453125,0.6172173834104877,-0.3836341753426549
9.44921875,-0.7391497129045255,0.5783909893703896
9.453125,2.3754569820524867,0.6299057999398685
9.45703125,-0.08299866200768834,0.3182409943644838
9.4609375,-2.1806795389209452,-1.2330935734538713
9.46484375,-0.3594878720985996,1.1131594735236794
9.46875,-1.416983361012391,2.035086536080715
9.47265625,-0.030225101439284592,1.5516721753363718
9.4765625,-0.4189046611670538,0.2696299405643158
9.48046875,0.091885047379847,-0.45346255618839504
9.484375,-1.4771740519046095,2.631816871203452
9.48828125,-1.6614385933335927,0.6836665998356154
9.4921875,0.4740675243635482,0.7257993090468643
9.49609375,0.28619323054014933,0.2241165263070694
9.5,1.6178341012313444,-2.560779323646791
9.50390625,0.7739449163493597,1.7022267738084407
9.5078125,0.6225919240103133,-1.5786223727278539
9.51171875,0.32799598127022694,0.301454620516263
