time,ecg,ppg
0.0,-0.2999832558086558,0.715009273162678
0.00390625,0.10947109915395864,1.6028650039246575
0.0078125,0.286050876167427,0.920838179357341
0.01171875,0.6987627856486776,1.1314680647712314
0.015625,0.775272656685675,-0.2951674436239328
0.01953125,1.325166215540191,0.18653337081735558
0.0234375,1.0113431583083712,-0.3301463237339722
0.02734375,0.1216676471581344,-0.4678873079390165
0.03125,-0.6572300737094319,1.0008305263823571
0.03515625,0.1974737128084592,-0.817041574956479
0.0390625,-0.1513255840563878,0.29006049543659485
0.04296875,-1.1156795298993658,0.32379060595496945
0.046875,1.4131695122152172,-0.1002024302608172
0.05078125,0.10133477298365619,-1.920608810268271
0.0546875,0.24062791828940075,-0.5035425357259639
0.05859375,0.082548822798574,1.053076804210634
0.0625,0.06996189052179543,-0.5765737016890999
0.06640625,0.22257574101744343,1.0363985586053983
0.0703125,-1.221339783735381,-1.6492357494517502
0.07421875,-1.7014679187802835,1.0250066910202065
0.078125,0.45864250526163264,0.8755911365176311
0.08203125,0.9232668021520697,0.6944826698797469
0.0859375,2.2213740407550344,-1.567734825084876
0.08984375,0.38416706634081405,-2.162930298465647
0.09375,1.2699213367964548,0.8491792249733359
0.09765625,-0.355525758109365,0.7985813051149663
0.1015625,-1.4460271814430086,0.5375656551007227
0.10546875,-0.3746557252886937,-1.2682012347634444
0.109375,0.16190977872239218,-0.927765816478226
0.11328125,-1.096587301372569,-0.5382472871643552
0.1171875,0.5366754058409401,1.3333252213412048
0.12109375,-0.9012233328133191,-0.6245150811842112
0.125,1.61352753724843,-0.05208079445339883
0.12890625,-0.908578934976253,0.30997717575022155
0.1328125,0.8381655716475709,0.9760778601547179
0.13671875,-1.589431437626189,0.09081950871557093
0.140625,0.4268688131182342,0.42613190819324553
0.14453125,-0.8598132890962248,-1.08436320930982
0.1484375,0.8942679719756979,0.49859173318918476
0.15234375,-1.4286999899400752,-0.3614746919166574
0.15625,-0.09705278500809955,-0.20049627978684834
0.16015625,0.9562871644484837,-0.013177494190729501
0.1640625,-0.2479707717599543,-1.700721490589383
0.16796875,0.8659486425755788,-0.047366780644741195
0.171875,-0.6177673264524305,0.3998902428054872
0.17578125,0.3368214067382557,-0.09628888898673542
0.1796875,1.1043992740473756,-0.02619534134980057
0.18359375,-3.015177370300341,-0.07039806639020767
0.1875,-0.9482688374267648,1.8751745253010927
0.19140625,1.4166578873619027,-0.44449582281592
0.1953125,0.7620460528674518,-1.796807827435168
0.19921875,-0.6857285673223892,-1.1921544682630274
0.203125,1.687321228916004,0.3855045483707757
0.20703125,0.09755530174825741,0.295910380662069
0.2109375,-0.9468590934702094,1.3022077084016623
0.21484375,0.23320880047564732,-0.7722579081261138
0.21875,-0.9987486885984652,-1.3223043787305435
0.22265625,-0.9535889584471969,-0.8621717864894198
0.2265625,0.44186120380863736,0.3311928119533587
0.23046875,0.4513974029872306,-0.7226701301090472
0.234375,0.48208862530221785,0.7930427891695937
0.23828125,-0.5864337273184133,-0.6929660251969003
0.2421875,-0.636737070258724,-0.6970675537665226
0.24609375,0.5111969537045004,-2.735496994266655
0.25,-0.6653438285217809,-1.527103520377832
0.25390625,0.5855243363836796,-1.516579627233655
0.2578125,-0.08229446988539,1.264064158156223
0.26171875,1.51120511738369,0.0005959435626782892
0.265625,-1.05348882468818,0.7704415439942318
0.26953125,-0.8075510246042766,-0.05427472066972419
0.2734375,-0.40899176080172156,0.7754773951744328
0.27734375,1.6541093408182987,-0.08531662168169678
0.28125,0.5037839256491728,0.8293167969627409
0.28515625,0.40470302975594363,0.7596269934488108
0.2890625,-0.5103843466796231,0.1539756107126158
0.29296875,-0.6247659518923125,0.06482003493829262
0.296875,-0.8761057613819688,1.5776143017426365
0.30078125,0.09135719384312317,-0.1491606598266929
0.3046875,-0.8669155569378479,-0.313731172046098
0.30859375,1.1195829024993658,-1.2865816699795634
0.3125,0.13471988438803015,0.855561750820253
0.31640625,-0.5377723231204047,-0.0808114478593642
0.3203125,0.45514436857589696,-1.2976503346194843
0.32421875,-2.0139197860405114,-0.727153032060046
0.328125,-0.8544143494473363,0.518427283871651
0.33203125,1.6636877798027745,0.6277319919303247
0.3359375,0.7203821198838609,-1.551309961985464
0.33984375,-0.8537667533342982,1.895986066629074
0.34375,-1.3836170728203563,-0.19329585573271976
0.34765625,-1.250729961825744,0.08872085715236916
0.3515625,1.4728372598332276,-1.031214771393833
0.35546875,-0.5609500868582814,-0.568682955833607
0.359375,0.9118830907220068,0.6763875920376787
0.36328125,-1.0097635622614514,0.66978160697233
0.3671875,-2.0944981096785704,0.7209640516164608
0.37109375,0.36565448871066264,-1.0733025587029859
0.375,-1.0376379198095564,-1.7745056901380263
0.37890625,-0.7767993450312969,-0.030848158656578514
0.3828125,-0.39620780598711286,0.7903810984183358
0.38671875,-0.7689516528210443,-0.6053162551833865
0.390625,1.158281058644703,1.0573886540404354
0.39453125,1.516701423279744,2.914906632254596
0.3984375,0.2655328221100946,1.6287244563931182
0.40234375,-0.026345573054893854,-0.5262309980541519
0.40625,-0.3587098983206011,1.0924893400970423
0.41015625,0.06557236253993566,0.9367228449900797
0.4140625,0.4819672238997849,-1.2576620486156362
0.41796875,-0.9533486061046047,-0.1530058049611235
0.421875,-0.8059099423551699,-0.9014334900265607
0.42578125,-0.8659145327702213,-0.3371828358750312
0.4296875,-0.600191036192712,0.05431746402857242
0.43359375,-1.2547315573176034,1.2501986870290474
0.4375,-0.26320592222125166,-0.7696168079832773
0.44140625,1.6230172541357881,-0.09611362452876293
0.4453125,-1.9227017931026564,0.032160968991035724
0.44921875,-0.6056892486485207,-0.4137030375247718
0.453125,-0.33466245344806805,-0.7256691645045863
0.45703125,-0.5561171682014906,0.7818986334596136
0.4609375,0.3867171015022443,-0.46106260360242246
0.46484375,0.5183216242719179,0.740556592152284
0.46875,0.8048763199644625,0.8478975582874463
0.47265625,-1.4177167820893146,-1.0806452677442853
0.4765625,0.04381153277887626,-0.5203250923301762
0.48046875,1.431138169881847,0.22016152910953704
0.484375,0.6395488392932395,1.0165998485626946
0.48828125,-0.2564507173082601,-1.4098140556978505
0.4921875,0.034058396148516495,1.3883582449295133
0.49609375,1.0260395911943987,0.5390908497746539
0.5,1.20759156165768,1.2525774338863738
0.50390625,-0.7719633428519295,0.12947075505421562
0.5078125,-0.4717091448249322,-1.285791798060816
0.51171875,0.759000298678891,0.7204383497825232
0.515625,1.0366106516947309,-1.3869934884077078
0.51953125,1.042365316000193,-0.2759296645436891
0.5234375,-1.0860873099587105,-0.0727054022500056
0.52734375,0.9117639045428272,-0.34848873452234663
0.53125,-0.030252537625319372,0.31649882634441245
0.53515625,-0.7107724699510698,0.5712384643035502
0.5390625,-1.504883747889974,-0.3714514935749736
0.54296875,-0.0517237792986404,0.08780560206554458
0.546875,0.9333142904419298,0.5153825672807021
0.55078125,0.276863426445824,2.0427924414712493
0.5546875,-0.011180344087151975,-0.9592210365029846
0.55859375,-0.2573677167940508,-0.421583819616079
0.5625,1.0623167593510148,1.1343602426107526
0.56640625,0.7723324400287173,0.2714207746545802
0.5703125,0.06734573236454289,1.151033707647458
0.57421875,-1.3082316253598831,0.6988300293779822
0.578125,0.3834241187702706,0.8180920427599055
0.58203125,0.4785796950902799,-2.133101408639786
0.5859375,0.3671413554215882,-2.260601097348431
0.58984375,-0.9340202941479192,1.9054664241932358
0.59375,-0.3841673634059345,0.637754106566818
0.59765625,0.8683067127984688,2.0035706784852496
0.6015625,-0.8039337113428965,0.32489355826812477
0.60546875,0.8545582982340119,-1.3017760192931243
0.609375,-0.400711989262801,0.5658341489462267
0.61328125,-0.5033265055437082,-0.14321822350610897
0.6171875,0.15116931351677532,-1.394810015748118
0.62109375,-1.6026609978560271,-1.5435607348064058
0.625,0.8747468519291557,1.7104224766132166
0.62890625,-0.3296676059868242,-1.6071394900743885
0.6328125,0.6160503766422118,-1.5620562602579602
0.63671875,-1.1721289501325414,-0.9566197031099036
0.640625,0.5272098120744629,2.344418359322743
0.64453125,0.3007002515610609,1.5473602497386802
0.6484375,0.6740005773322345,0.17537745968276125
0.65234375,0.39463904196049215,0.17460785513229837
0.65625,-0.40144633664583373,-0.6176953272843989
0.66015625,-2.383064032010796,-0.9258382944343349
0.6640625,1.3156440587270735,1.2411066454428403
0.66796875,0.5371244636605181,-0.7005721090140825
0.671875,0.4228586139765009,-0.19813253425866348
0.67578125,0.11447604107607441,0.5504281272632802
0.6796875,1.5836488201841497,2.232722549512552
0.68359375,0.7303642040131729,0.08900542154370825
0.6875,0.47246589403500533,-1.4396238437375979
0.69140625,-0.8626188401645674,-2.2222917142721785
0.6953125,0.9767476573722547,-0.4490501542188889
0.69921875,0.48980100163554974,0.9007156017355452
0.703125,0.36498024399810153,-0.9760651374977818
0.70703125,0.17136408366777273,1.0463937791671416
0.7109375,0.038531784038150683,-0.4732016227993934
0.71484375,-1.135992287983538,-0.09202165148867728
0.71875,-0.09982121411987015,-0.9220297709750892
0.72265625,2.445405600375007,1.6098915631426105
0.7265625,-1.9116132819097265,0.8022493127304496
0.73046875,0.22822855192042688,-1.2753755888301042
0.734375,0.2988281160388145,-0.6735417138724067
0.73828125,0.5782925688764943,-0.35955325648542114
0.7421875,0.03422432599088172,0.17358057527330203
0.74609375,-0.6889050232025554,-0.7967669535864232
0.75,1.5156309714865874,-1.4176646522414118
0.75390625,0.6399206840452671,0.9931219874322361
0.7578125,-0.2515808625546822,2.3889542345610844
0.76171875,-0.7167831205139598,0.8268139932443757
0.765625,0.17562378960269517,1.192509358013325
0.76953125,0.5851175425590736,0.36101439832084425
0.7734375,2.30110268230776,0.7290954603600309
0.77734375,1.0574063614533884,-0.6996292469582253
0.78125,-0.03663223784851841,0.7421385500898088
0.78515625,0.01287623241733877,-1.4374507644730523
0.7890625,0.06324301299610725,-1.0238757967798422
0.79296875,-1.5254947207194451,-0.9145818370251622
0.796875,-0.014593024237917668,-0.29968013705246427
0.80078125,-0.3064162590455522,-0.7791277804561764
0.8046875,1.5249483900059,1.7799632602491429
0.80859375,-0.4301470059742764,-0.9015744455949888
0.8125,-0.6201249034610474,-0.2606487235630005
0.81640625,1.1432262455559434,-0.5806745413083516
0.8203125,0.11386752515706185,-0.7369764918078173
0.82421875,-2.0826244944385404,-0.044298053040286806
0.828125,-0.807267818041732,2.3849033284811005
0.83203125,0.1621816914580464,-0.7262112065506002
0.8359375,-1.4209255934533853,-0.2937391655287263
0.83984375,-0.7148331034092721,1.2537082118188891
0.84375,-0.5441527448024591,0.9834380185015649
0.84765625,-0.4519129268149445,-0.6221433787980865
0.8515625,-0.44984759283170417,0.3067909675697959
0.85546875,-0.23028602676374527,0.18310492521939997
0.859375,0.5421651657722961,0.1869347700462097
0.86328125,0.47076495261537393,-0.4200785283724993
0.8671875,0.25358294551039473,-0.15347362992239402
0.87109375,-0.37372083486689217,-1.2095038634408566
0.875,-0.30331401201199015,0.5324663972481452
0.87890625,0.5804843983195502,1.585001008537718
0.8828125,-0.6138391831673488,0.46852527384589543
0.88671875,-2.62945925467335,0.9038888797080273
0.890625,-0.21396275031560802,-0.16662768331217578
0.89453125,0.23778816888908405,-1.0629879785607508
0.8984375,0.717459842433304,0.6435782816145094
0.90234375,0.5210064018679715,0.5006486937864781
0.90625,0.5623323262417953,0.05076043011250754
0.91015625,-1.4010825099187592,-0.47275330146198746
0.9140625,-0.11053623934936467,-0.8839299589515288
0.91796875,0.488722333359167,0.2608570663051197
0.921875,2.219601033765631,0.42111954837332616
0.92578125,-0.11624748218346416,0.9951896527459946
0.9296875,-0.5940396621346622,-0.2987704737288322
0.93359375,0.14838095814460484,-1.3619632081828772
0.9375,0.7061582015962626,0.8091686526583792
0.94140625,-1.826777244798873,-0.5695406780287454
0.9453125,-1.9620561579451816,-0.36562877224654616
0.94921875,-1.6010648467035171,0.4200459316888914
0.953125,1.1810518775403192,0.777702579177127
0.95703125,1.401404632845484,0.3151935450392394
0.9609375,-1.2367554625526402,0.7635624719724682
0.96484375,-0.4044815996556016,-0.03113654020158956
0.96875,-0.42930783395534045,0.3048539603074171
0.97265625,0.02576953350739851,-0.7087938147238512
0.9765625,-2.2837457168085074,-1.9317732270232282
0.98046875,-0.9584879770007082,-0.19920047664670537
0.984375,-0.12191324185326134,-0.28316639636962737
0.98828125,0.045550983515375426,0.8436373104843398
0.9921875,-0.3247804182306991,0.9698148735828684
0.99609375,-2.4363160004823947,-0.4771685796094127
1.0,-0.559462399709061,-1.0284183464955707
1.00390625,-0.38951231896121846,0.892353530581818
1.0078125,-0.6896696236043777,1.0636934746563356
1.01171875,-1.332661190405173,0.5948924215242418
1.015625,-0.6215245442186824,0.17909938417211205
1.01953125,0.6746038595653859,-0.07787328623512028
1.0234375,0.8873772876123308,0.058996834140966806
1.02734375,-1.706220122638426,-0.30784719275867556
1.03125,-0.03807940505001036,-1.0977157686774741
1.03515625,-0.5622333495568649,-2.6120480270704447
1.0390625,-0.04652927848567173,-0.07463389006707559
1.04296875,-0.006555207639748794,-0.10890128802821561
1.046875,1.660073981668084,1.4711820333147725
1.05078125,-0.2764062382759553,-0.13567421963084575
1.0546875,1.5456798009313242,0.9777562249811538
1.05859375,0.5551003517991856,-0.38740172894608593
1.0625,1.1097085872673789,0.24620023970783672
1.06640625,-2.0314253745108237,-0.6437090466803834
1.0703125,-0.9587088315862662,-0.7367440436837364
1.07421875,-0.6916517566676725,0.7310267941111578
1.078125,-1.365794354101881,1.9412927271658806
1.08203125,-1.0953558174728832,-1.0097382764901546
1.0859375,-0.9321817456474043,0.22443684223142626
1.08984375,0.32475459325608347,-0.06825724710053493
1.09375,1.0423063443482987,-0.6785518752037709
1.09765625,0.17545411931577135,-0.049083687888294744
1.1015625,-0.9393222486324643,-0.011707821443138108
1.10546875,1.1577717971683559,1.0270518295459323
1.109375,-0.6244596482000181,-2.6609024716478293
1.11328125,0.29632518733959406,0.5347921175461188
1.1171875,-1.0009623314293266,1.1810259220121253
1.12109375,-1.2182643666958197,1.6399803978573724
1.125,-0.2161131302825114,0.8771738931897696
1.12890625,0.2318369145568742,-0.15365034924157658
1.1328125,-1.44366326418408,-0.8038964252282117
1.13671875,0.380788493350407,0.14291251603970784
1.140625,1.0872941285727913,-0.22683628595253194
1.14453125,-0.5054915508076236,-0.195679553334752
1.1484375,-0.190645691333968,0.2962008020820297
1.15234375,-0.026919564158266112,-0.04625394818971475
1.15625,1.7171725096061405,-0.8863405936153498
1.16015625,-0.287334446092043,-1.7601723825376323
1.1640625,-0.8174403995872174,0.233799157564694
1.16796875,0.4059366857110433,-0.37253513791666965
1.171875,-0.5953906847224782,0.3758094119368971
1.17578125,0.5411224200525356,-0.10747833881919601
1.1796875,0.6954758847248705,0.024804930862476902
1.18359375,0.13361471247303108,1.647982029697693
1.1875,-1.9887791294493986,0.14313591497026107
1.19140625,-1.1267978176252704,-1.104158786164354
1.1953125,-0.8855716744222915,-0.8464478199830148
1.19921875,1.1075279505132762,1.3011013983880246
1.203125,0.28461743273737,-0.5895844661942895
1.20703125,0.1777121125760795,0.07081109079257333
1.2109375,1.464584116243886,-0.0141155738851894
1.21484375,0.2730316547093749,-1.5512834731440015
1.21875,-1.1962729779291073,0.0349417225952618
1.22265625,-0.609134913738621,0.12776892154256778
1.2265625,-1.1860660614112895,0.025257871752308547
1.23046875,1.02530974351568,0.4820123114581953
1.234375,-0.1875181869540731,0.2655973959197994
1.23828125,-0.46117556943343124,1.203906038390033
1.2421875,0.7633666846582929,0.23706804374669982
1.24609375,-0.3554966886436952,-1.0184230211600354
1.25,-0.7568011356615669,0.8166212344041733
1.25390625,0.8203644925781454,-0.6238735261311427
1.2578125,-2.1410492521392426,1.3363733245827976
1.26171875,0.5593277759473798,0.035688957976935526
1.265625,-0.7432772953142421,-0.76868431946848
1.26953125,-0.7805021909682405,-0.1429839599539938
1.2734375,-1.5057658035941288,1.6394233990870197
1.27734375,-0.4928262735554014,-0.09297822022369429
1.28125,0.3121482814048604,-0.09910647980439959
1.28515625,-0.45475097635760015,0.46096161198697905
1.2890625,-1.2185734943970152,-0.9505577076095294
1.29296875,-0.8444673689672982,-0.5406081815238086
1.296875,-0.8486139226694754,-1.764209001746717
1.30078125,-1.8742845191263375,0.8322678863112816
1.3046875,0.08320626151675199,0.9919304665587338
1.30859375,0.01476091495243507,-0.10231697299542218
1.3125,-1.1474032356392083,-0.09860474097944608
1.31640625,1.3319930734191732,-0.5425729236052724
1.3203125,-0.0025966604164151877,1.092163200306791
1.32421875,-0.15103893061575313,-1.243491575970674
1.328125,2.0844813773893165,0.09526003653093833
1.33203125,0.3285285620147193,-0.6097937450860366
1.3359375,-0.17616579784839625,-0.10451201313414049
1.33984375,2.1773235829557804,0.023483732713519275
1.34375,-0.38387579683457634,-1.9021786119470345
1.34765625,-1.729551952989193,0.026858939404045414
1.3515625,0.20778634936840304,-2.121049604288451
1.35546875,-0.6450465860319934,0.10273613244431157
1.359375,0.16018056143005505,0.09946825840308053
1.36328125,0.24209489751544958,-0.48911575654323347
1.3671875,-1.6593055829712315,0.6221242128538506
1.37109375,-1.192434924338154,1.2151591916835949
1.375,-0.16581531981184547,0.4070341879079607
1.37890625,1.0536022671125438,1.0308919052369843
1.3828125,-0.8698370842004723,0.7737186411135292
1.38671875,-0.8151459000312854,1.0340783143899428
1.390625,0.293522871174878,1.6052916682198772
1.39453125,-0.4586500764775128,0.19000023256849383
1.3984375,2.280489495370889,-0.16059620320671142
1.40234375,-0.5938430839672708,-0.8751274645037498
1.40625,-0.3812157668985912,0.19013444632143564
1.41015625,-0.9549886792184196,0.5054218637975457
1.4140625,-1.4613521647593046,-0.6098947227355909
1.41796875,-0.5662493520897726,-0.7336708750773107
1.421875,1.3026062475377476,-2.63246482040574
1.42578125,0.057642688702350155,-2.6628998239447075
1.4296875,-0.36201132083597093,0.28691465866159505
1.43359375,0.42296694652405187,0.46310329261649386
1.4375,0.8628499305350028,0.5327450998047092
1.44140625,-1.3080371497820902,-0.3370480497015697
1.4453125,0.08737236376019938,0.6949910963310243
1.44921875,-0.44813869866807887,1.0324838604334805
1.453125,0.6906421236979899,0.07294041734543241
1.45703125,-0.364906841583309,-0.29343159577280103
1.4609375,0.2392763678826989,-0.05250186199687141
1.46484375,-0.751031859236046,0.7368037102861221
1.46875,-1.1491765825368265,2.368443342562247
1.47265625,-0.20448265591387405,-0.12962093478238515
1.4765625,-1.3331490821164638,0.04773220780362411
1.48046875,0.0013688942890580343,0.5909545153775139
1.484375,-2.2304205917154234,0.26659411438716657
1.48828125,0.7320191453384124,-0.2593856387401396
1.4921875,-0.7075296564169,-0.3022581689598357
1.49609375,-0.3162602295058671,-1.3212562056731232
1.5,0.8181427948731523,-0.21629982753071333
1.50390625,0.6950650205187408,-1.2737841612392955
1.5078125,0.9398372606539523,0.8329476105507742
1.51171875,0.5452063224450376,0.9654284771710568
1.515625,0.3854447261916096,0.41949383907018284
1.51953125,-0.7898319236611764,-1.166090048581956
1.5234375,0.05652054019370861,0.779098308165789
1.52734375,0.5893969485181285,-0.5222155277617551
1.53125,0.3678216442337449,0.05320185647128256
1.53515625,1.2856647784540092,-1.9766051244994092
1.5390625,-0.24496157919624154,-1.655145988610097
1.54296875,0.4395993118556279,0.05881737879746199
1.546875,-0.9797351865388523,0.8681098542573654
1.55078125,1.0067872750749427,-0.6362052175162359
1.5546875,0.08935883680156811,0.8890610042767927
1.55859375,0.5789942496617204,0.41435539324645904
1.5625,-1.0124002290598593,1.6098485851611517
1.56640625,-0.11282382872807822,-0.5907112022382103
1.5703125,-1.5524284285411816,-0.6344255627520177
1.57421875,0.3418816335518222,-0.7987347031123397
1.578125,1.1016939791662002,0.5175074049788152
1.58203125,-0.23314651696650443,-1.7905822438943437
1.5859375,-0.6715671982677011,-0.31376556129014616
1.58984375,-1.125496709711948,-0.5828580050484452
1.59375,-0.3795914544039019,2.039634439727249
1.59765625,-1.201350838903941,-0.12268566654099693
1.6015625,0.29748865040639244,-0.6363328616358173
1.60546875,-0.9509780749867885,0.6741331478695465
1.609375,1.3850783689078623,0.03771676448993204
1.61328125,-1.3146004965059181,0.5176264169108596
1.6171875,-0.49835375857113784,0.9327565161971112
1.62109375,0.24557441677163805,-1.3230909152331465
1.625,-0.49083508265443493,-0.3263445680749795
1.62890625,-0.4865921075940643,0.5392504951282758
1.6328125,1.8882256425382071,-1.6123256973509763
1.63671875,0.5160299752151656,0.15392219335754634
1.640625,1.527450626827312,0.4297023396534411
1.64453125,-1.5436702716922364,1.9453037688245958
1.6484375,0.09554144902927485,1.6196744892254529
1.65234375,3.0204570899013325,-0.4965648167479857
1.65625,0.1718767346293413,-1.1016107148596856
1.66015625,-0.9637273966274786,-1.9188934409860627
1.6640625,1.6556201737347909,0.7555218544649106
1.66796875,0.9854854469502266,-0.08881749259835287
1.671875,-0.7190240364798336,-0.39313474751225697
1.67578125,0.24481595872759146,-0.17330514722336554
1.6796875,0.7369934968821649,0.6671862798290763
1.68359375,-0.5004360601925804,0.12780689956449492
1.6875,0.41307532238506767,1.2708151173206923
1.69140625,0.2849672926618847,0.8306864064855841
1.6953125,-1.8322745229467874,0.37237203561500304
1.69921875,-0.2928237410265496,-0.32328025166639385
1.703125,2.928270460332515,0.38808172389641843
1.70703125,-0.5461219478301257,-0.5703558786239002
1.7109375,0.24250902217206427,0.9142884717117988
1.71484375,1.6210594726051715,0.4102294642020543
1.71875,-1.417102341797043,-1.3356554605903117
1.72265625,0.03460509179588189,0.9544897568371595
1.7265625,-0.3131653657523358,-0.3611490265374543
1.73046875,0.04372774984832664,0.740130607352386
1.734375,1.2643379006344344,0.8568921246081522
1.73828125,0.9386305175801953,-0.5009949303380709
1.7421875,1.1068538092233215,-0.06963736226172093
1.74609375,-2.038061400463342,-2.3017846841707996
1.75,-0.9361881618045985,-0.12278635021347527
1.75390625,-1.2079970101409436,-0.8306396633904749
1.7578125,0.1338763161767291,-0.020407635502581106
1.76171875,0.9703729741465685,0.9572686208252814
1.765625,0.8500654611126979,-0.3722139499975747
1.76953125,1.400303284007593,0.20570693886423602
1.7734375,0.5568620725116769,-0.06396486565419184
1.77734375,1.754877926413636,0.3421007096778571
1.78125,0.4525545787369917,0.7442806219148496
1.78515625,-0.34337090889560756,1.6521665168587285
1.7890625,-0.44144321658721625,1.4858666197651251
1.79296875,2.1705418101186438,-0.9745253887059138
1.796875,-0.4233833535766484,1.4893755595472704
1.80078125,-1.3405623902186978,-1.4049874326568514
1.8046875,-1.1104178060168102,0.35370888689412744
1.80859375,0.9720300060823757,-0.6901752289370724
1.8125,-0.29280046639710516,1.2292580947592493
1.81640625,0.29962462597675354,0.24338425451620854
1.8203125,0.3186618828654331,-1.241236214164635
1.82421875,-0.2647420329590997,1.8181083533753375
1.828125,0.07853773826262152,-0.895242257551521
1.83203125,-0.4387545022674719,0.08765638127510289
1.8359375,0.19449792056360288,1.0277777218496917
1.83984375,0.06664592338706846,-0.6294018926376685
1.84375,1.1879595767633937,-0.20126155190383688
1.84765625,0.11365865522133817,-1.4739855577127285
1.8515625,1.4812134184514658,-0.22430469300616132
1.85546875,-0.6943752018955418,-0.3352204244734765
1.859375,1.3969300854049131,-0.45557244276356423
1.86328125,-0.41296286127516235,-0.956581273422738
1.8671875,0.2771178234974405,0.056638169501658425
1.87109375,-0.9379394062441052,0.7883743594126511
1.875,0.7771130145814623,0.9732150344319681
1.87890625,-1.3380915480988966,-1.3489342087385177
1.8828125,1.031775294667857,-1.1230985384984935
1.88671875,0.17420092779336074,0.7644375917450413
1.890625,0.35733090404434004,0.6779714654189112
1.89453125,-0.7607312062462768,-1.1428929431696437
1.8984375,-0.11133943557472663,-1.0850681318932898
1.90234375,1.2625983592334076,0.44707490853600573
1.90625,0.3089186114579799,0.4359226005827467
1.91015625,-0.9071342551840745,-1.026575173452477
1.9140625,-0.13018792922832226,-0.36341017872482495
1.91796875,2.177461168315428,0.47748793047316346
1.921875,0.7738237652417952,-0.01952851022749539
1.92578125,-1.8512614700222605,-1.0802806817309618
1.9296875,-0.785487562088648,-0.9742732575848851
1.93359375,-0.5021234588039967,-1.0434336178535062
1.9375,0.22134286246929766,1.4306620121674072
1.94140625,0.4604369447206127,-0.3415956772666001
1.9453125,-1.9273352491602662,-0.4798806819272103
1.94921875,0.3620891574182248,-1.1135722539945163
1.953125,1.0732912452407846,0.07286783481952126
1.95703125,0.403832830802643,0.694078601867122
1.9609375,0.5555805848359701,-0.18934703048015356
1.96484375,0.8268784330974183,-0.018987449060680762
1.96875,0.9342983919197173,-0.9704736425026568
1.97265625,-0.1328120360602931,0.8325246261135685
1.9765625,0.5453960966346271,-0.27439293122345104
1.98046875,0.09062023528520494,-1.3148518636505886
1.984375,-2.2209488883829316,-0.027673933997913493
1.98828125,0.3333251091542856,-0.19168870705788035
1.9921875,0.17152984308330793,-1.2835107426529015
1.99609375,-1.4649526888472373,0.7264585821737963
2.0,-0.5569170903803873,-0.2244137836271588
2.00390625,-0.6348828198250571,0.08581012436275193
2.0078125,1.6076640538665121,-0.08565065200734559
2.01171875,-0.04137010615129147,1.1706991146629142
2.015625,0.2695393903413205,0.27583606897630264
2.01953125,-1.5554860409175948,0.9396642598087345
2.0234375,-0.6924763352957805,-0.6129070380746133
2.02734375,-0.7913215977064578,-0.7010467820131845
2.03125,-0.4412064441971817,-0.4346998203247834
2.03515625,0.5027885748331016,1.8816526362382566
2.0390625,0.3350893636014792,1.4216676237914156
2.04296875,-0.833712483769744,-1.062448152430952
2.046875,2.061342698318918,1.184372673772016
2.05078125,-0.8110951866337068,-1.0863204926546366
2.0546875,-0.8715433413756227,-0.7986111778875425
2.05859375,0.08641534414339826,0.23370079795135493
2.0625,0.06036061032034768,-0.21047902701192509
2.06640625,0.9023026926884561,1.4479237986039404
2.0703125,-1.2106344324164273,-0.6100805127868326
2.07421875,0.41391011549264684,-1.2006133650786848
2.078125,-0.2864843787872578,-0.80798031586966
2.08203125,-1.282206409391414,-1.2431662526473939
2.0859375,1.1730511689334984,1.7977027892557378
2.08984375,-2.2681252387994317,-0.2527949336377481
2.09375,1.9676368964891633,0.2806320178215559
2.09765625,-1.8418892003671354,-0.029156323221064456
2.1015625,-0.24944293953641378,-1.6700107327780835
2.10546875,-0.051810840688888006,0.7441220838828605
2.109375,-0.21649498985308602,0.0631935975002786
2.11328125,-0.9444569956792421,-1.19152097918607
2.1171875,-0.40720333481691307,0.6131832656700076
2.12109375,1.2051040623507612,-0.1309861770619691
2.125,-2.0587404953639226,0.023614518772068216
2.12890625,-0.6694299669565935,-0.9822710468219067
2.1328125,0.45385936078072586,-1.5095129784907229
2.13671875,-1.334265292578907,-2.406050148618487
2.140625,1.123193646661121,-0.4898934098631457
2.14453125,0.8056043752228209,2.297431331330188
2.1484375,1.5175613877632685,-0.9430241129461527
2.15234375,0.40969991359545566,-0.02719262920258244
2.15625,0.16993761199706672,-0.35411305456618963
2.16015625,-1.8470310746433445,-1.064768132767328
2.1640625,-0.2625938413871818,0.005172578789908937
2.16796875,0.483148950589653,-0.6034920893049959
2.171875,1.4570298225100748,-0.7278672871126308
2.17578125,0.49960512912528016,1.1696381498996882
2.1796875,-0.21990181748606447,0.8971532282559747
2.18359375,1.3183915893098086,-0.04131326824756208
2.1875,0.14206550918377617,-0.2300687295228727
2.19140625,-0.4565678354724994,0.20301211955195486
2.1953125,-1.1109618243073613,0.7162875654089802
2.19921875,0.7408261563181432,-0.11190637957194179
2.203125,0.06299592033016768,-0.08742262961243655
2.20703125,0.074994270324996,-0.5981241391850058
2.2109375,0.3794253032515248,1.4424544483761177
2.21484375,-1.207302208270568,-0.40106138661670127
2.21875,-0.22522420199595336,-0.5044358133346919
2.22265625,0.6479783322984309,-0.3778713080536145
2.2265625,-1.2339140364312415,-1.56688944646907
2.23046875,-0.08365434701982645,0.6222003788540632
2.234375,0.7149538688111781,0.2076545932392967
2.23828125,-0.8127910920276844,1.7429605691799082
2.2421875,0.3274704379842658,1.0379175775232972
2.24609375,-1.0715711063894984,-2.3426127015096894
2.25,-0.90260541371106,1.0964412324307016
2.25390625,-0.08799661822655369,1.0056156629303443
2.2578125,0.38084828562523765,-0.789111591739197
2.26171875,-0.592059906920024,1.0994932316695207
2.265625,-1.8550777454316265,-0.022966218328005824
2.26953125,-2.1738870436295517,-0.24447706993076251
2.2734375,0.9316334778138718,1.0533943669301202
2.27734375,1.509404316762495,0.3133829803001672
2.28125,-1.965910268545388,0.7738582896410848
2.28515625,1.1314631619620321,0.2854667980062473
2.2890625,-0.5475924057633498,-0.8033819469028908
2.29296875,0.16777545226323404,1.3844819822004386
2.296875,0.5048229781553113,0.42943942778026506
2.30078125,0.44223888132940686,-2.0455538680978242
2.3046875,-0.15477273975113331,0.4961463199794066
2.30859375,0.8049373244889931,1.6650948040217164
2.3125,-1.6461576712763561,-0.2223871645338927
2.31640625,0.19386619123022586,-0.5786845532633339
2.3203125,-0.45966391087061176,-0.013227347853368394
2.32421875,2.2905835633993084,0.5521583695726076
2.328125,0.09315541485378816,0.5487159937563589
2.33203125,-1.1531602086888295,-0.49529935514056744
2.3359375,-0.08107306583258746,-0.4314622171348831
2.33984375,1.0588771404997115,0.8604636610665358
2.34375,-0.29252835878986594,0.7300512852516968
2.34765625,0.09682715836656891,-1.1677389000575369
2.3515625,0.4315870037738868,0.028741837844837092
2.35546875,-1.6069563258285966,0.008671319768721306
2.359375,-1.569436745597117,0.03188399968806716
2.36328125,2.466740688260652,-0.38768086589139006
2.3671875,-0.033129134215547286,-0.42528144403485296
2.37109375,-0.1405480939080467,-1.0285399243048292
2.375,0.44222029062011264,-1.5426009920851902
2.37890625,-0.2266555893638593,0.4042126808611488
2.3828125,-1.7849642097209464,1.0562148316970599
2.38671875,2.1741332737128998,-0.27126182344151695
2.390625,0.7780489334803568,-1.1044523016598213
2.39453125,0.6050805804411061,-0.4718610259098512
2.3984375,0.17684926900333645,1.2708517221714957
2.40234375,-0.17058191311695628,0.08931294872823399
2.40625,0.4196861467305083,0.3717687131686676
2.41015625,1.9585165615500362,-0.8968552403982076
2.4140625,0.05197526017509369,-0.8799084639336637
2.41796875,-0.46721722373087127,-1.318617781158703
2.421875,0.5850045788526846,0.12119279538824887
2.42578125,-0.5715411285969477,-1.3904569360163381
2.4296875,-0.5829199209544946,0.4047248249211605
2.43359375,0.3672988818007818,-0.29951080683929093
2.4375,-1.3016982860033584,-0.4108698788946162
2.44140625,1.4035305244370484,-0.5433554340874895
2.4453125,0.471739703896862,0.23949114037858948
2.44921875,-0.3915335952245954,-0.5576914099735196
2.453125,-0.26960702707941847,1.5721629883574704
2.45703125,0.6774752924207321,0.04849249045249908
2.4609375,0.7673871775483703,1.1386768917906227
2.46484375,0.6603035018225695,0.46043951288480256
2.46875,0.5205158835301041,-0.7176277485058714
2.47265625,-0.10396663101694593,-0.1514825241229632
2.4765625,-0.03067917123717984,0.2838301290563894
2.48046875,0.5731571959516877,0.7991279070514749
2.484375,1.5354279005508102,-0.6117880822072216
2.48828125,-0.0432342634674821,0.861764571464734
2.4921875,2.563674559815856,-0.7439140713865597
2.49609375,-0.47265479220858053,-0.7599315798914221
2.5,-0.7275626880941801,0.11195646322961404
2.50390625,1.2891295318611904,-0.2587360808591333
2.5078125,-0.0018335961932756883,-1.0505877560543722
2.51171875,0.08123420046917683,-0.8648185349522147
2.515625,1.7258994896025526,-0.2794171300901471
2.51953125,-1.1251591564933927,1.3228893036444755
2.5234375,1.05491611154191,0.007626351539598422
2.52734375,0.3095944341227433,0.4795928265477201
2.53125,0.435354265693707,1.3473145972204223
2.53515625,0.7111654838064395,-1.5726545060212147
2.5390625,-0.2647897738109861,0.41471163870202604
2.54296875,-1.082273966777792,1.0016208946412692
2.546875,0.035524977992961095,-1.1248946352901863
2.55078125,1.4724843880628837,-0.8342219348218989
2.5546875,-0.05635500185816154,-0.1780867114641811
2.55859375,-0.4782260772329252,2.013655443415979
2.5625,-0.12881173307759447,0.7308923655850699
2.56640625,0.07424798646894215,-0.4996458933466758
2.5703125,0.46100617768085433,0.19915532123325322
2.57421875,-1.0409342462443243,1.455657001247528
2.578125,-0.19237856536053782,1.4263868515551597
2.58203125,-0.06670766992029463,-1.5138670858034031
2.5859375,-0.11884031106737689,-0.7536263949138654
2.58984375,0.4188360247689987,-1.4967311954461868
2.59375,1.098633963915855,0.3838326502262166
2.59765625,0.6091625673067402,0.2591261229018683
2.6015625,0.4945608221134043,0.2634220392209947
2.60546875,0.09869338035639039,0.49702664277446024
2.609375,1.1559218601773522,-0.6872681728401151
2.61328125,-0.49127899895915983,-0.9885787361801159
2.6171875,-0.6104312136260277,-0.15238013723620505
2.62109375,1.4753675626252822,-0.19418657926275976
2.625,0.8174447732689682,-1.3671310245828416
2.62890625,-0.017689175983821068,-0.6212382692785202
2.6328125,0.02153160308776747,1.4242932069429433
2.63671875,-0.54807549956307,-0.17960007222801833
2.640625,0.9014041717917443,0.9997783344622728
2.64453125,-1.3114408828401332,-0.6386938651523976
2.6484375,-1.311350213437824,1.6893756680722831
2.65234375,0.8006908764883793,-1.126216415760455
2.65625,0.06490636225506546,1.210180697969231
2.66015625,-0.7414080018856712,-1.444892808029127
2.6640625,-0.12123342244817666,0.8502671815813541
2.66796875,-0.9553546815182274,0.7281753444048915
2.671875,0.1963985231971775,-0.6345093535676846
2.67578125,-1.2746150132367284,0.2752574566290045
2.6796875,0.5543017403077065,0.5358405813974972
2.68359375,1.121172013785047,-0.43444691072275554
2.6875,1.123971220899467,0.189421251703939
2.69140625,-0.3100052211751199,0.1391323025829016
2.6953125,1.6302183364219904,-0.3084500510732573
2.69921875,0.5362935482492571,0.26320468592595425
2.703125,-1.4053204448014944,0.7933143929455396
2.70703125,-1.2177029825203667,0.8537110531893995
2.7109375,-0.2185259671098616,-0.052085397504515824
2.71484375,-0.5960431354889829,0.46139150753285985
2.71875,-0.06883932805713378,-0.7631932819896954
2.72265625,1.255432905524648,1.0199941079672457
2.7265625,-2.2202555052941157,1.2418805364977707
2.73046875,0.8820654446452794,-0.14220438129161242
2.734375,-0.41108646429989476,-1.3628756080571491
2.73828125,1.2041006508041339,-0.8131544379325232
2.7421875,-1.8271883994089377,-0.236337052419449
2.74609375,-0.10934553737451463,-0.6110402867545961
2.75,-0.49296726170913785,-0.38281121360249054
2.75390625,-1.0531881062962887,-0.40995243714859
2.7578125,0.03636852577073385,1.2890785856215126
2.76171875,-0.13155349387303178,-1.4678011515057936
2.765625,-1.057755534179998,0.15444298134677192
2.76953125,-0.8444066036547344,0.3017948003807289
2.7734375,0.05807857552733261,-0.7477921144061894
2.77734375,-1.5047672094256348,0.5683216033985439
2.78125,1.3571768800654085,-0.6257526863611553
2.78515625,0.4958493221479837,0.7326256726560992
2.7890625,-0.7077580459278716,-0.572069206624857
2.79296875,-0.891034424615909,-0.7598067894577029
2.796875,0.9256759845694406,1.1652121455719096
2.80078125,0.34744659736870065,-0.15919270442844874
2.8046875,-2.765997086293195,-0.20569974438006772
2.80859375,-0.9740163356254739,0.13155001674236655
2.8125,-0.5588136319142198,0.038586004506902374
2.81640625,-0.5823017295222551,0.902922788611401
2.8203125,0.09541464198282636,-1.6272422811659293
2.82421875,0.9180767089029073,0.1867694221628366
2.828125,-0.4432473727436247,-1.0032163256374873
2.83203125,0.43023656868983384,-1.360087588286224
2.8359375,0.01610796906119112,2.2674198126070553
2.83984375,-0.581271735333333,-0.42121914240627545
2.84375,-3.0330143022760323,0.09213376407163763
2.84765625,0.9338422815786531,1.332155831991571
2.8515625,2.3233722598812,-2.590012429309155
2.85546875,-1.0771003425252057,-0.06649702190123215
2.859375,0.0002107578284629662,-1.1426576368180517
2.86328125,-0.4749873702142515,0.03247200643052907
2.8671875,-0.7575868873318368,0.47862256303119655
2.87109375,-1.9246475152208655,-0.6272501812295754
2.875,0.6080599660027178,-0.46450300854773247
2.87890625,0.004740482292522605,-0.04980565303098166
2.8828125,-1.7163284344197651,-0.1150485681316092
2.88671875,0.015468628318505484,2.049953045839051
2.890625,-1.4275412573858264,0.011242951417560716
2.89453125,1.4363162354970054,-1.617811145672533
2.8984375,-0.18801673943248473,0.6762091678144182
2.90234375,-3.7383597116539384,1.1367293562124672
2.90625,-0.23120150727667896,-0.5859505881732053
2.91015625,1.6058780473219545,0.25788751264048
2.9140625,-0.09230639099358101,1.0032581785402452
2.91796875,-0.4591180541157714,1.1595095797357657
2.921875,-0.35635212797761245,0.22274327169380645
2.92578125,1.0231494021415064,1.9621626618487102
2.9296875,-0.3659532536741208,0.8182460612738207
2.93359375,-0.26807659256213723,1.0181896275430724
2.9375,-0.5009819648658972,-2.011880741874635
2.94140625,-1.5415039182264954,-0.769500066734586
2.9453125,1.0687788388039432,-1.7906687001157076
2.94921875,-0.24736430216509447,-1.4012974714815485
2.953125,-1.374662671611725,1.0845227478958726
2.95703125,0.5492969490867555,-0.57071124312166
2.9609375,0.765181991222194,-1.2181012304348238
2.96484375,-1.2844776984137753,2.332990275044881
2.96875,0.4965906554089005,0.026004092803990183
2.97265625,2.184624315970547,0.8867394019320709
2.9765625,-0.032857143637603434,-0.2906652366104786
2.98046875,-0.5079800836202232,-0.4729846469965585
2.984375,-1.1498302464836003,0.6952064687847146
2.98828125,0.3893566229103404,-0.8068385510046596
2.9921875,-0.0664511071594767,-0.3812921287681188
2.99609375,1.233484135857648,-0.22522519834499638
3.0,-0.16654860098804736,-0.13636651409093828
3.00390625,-0.7769188715245509,0.6614016894894461
3.0078125,-0.3007803672354513,0.7682743568299945
3.01171875,-1.9901343907087574,0.3514204958145189
3.015625,0.6214647169941874,0.21127481967279188
3.01953125,0.5095326479023957,1.5648767504533263
3.0234375,-0.378199774502496,-0.5222673981428593
3.02734375,-0.11743916399383514,-1.2143930268284016
3.03125,-0.9170166295100137,0.40551075595347424
3.03515625,0.5282804093133239,0.22278605138412164
3.0390625,-1.5127158932686697,-0.8633038353848074
3.04296875,0.11781674887130787,-1.292654345686231
3.046875,0.4830098074952361,-0.04652079396309435
3.05078125,0.25383165641394473,-2.4737865310655427
3.0546875,-1.3678725693517448,-1.0379581163728213
3.05859375,0.5959436736333972,-1.5559176545818765
3.0625,-1.3259966914421604,1.3460240575504725
3.06640625,1.0072368937799072,0.4046611237062444
3.0703125,0.011019944555939368,0.8206912658526749
3.07421875,-0.5329089007630147,-0.07918792215123996
3.078125,1.345814132751859,-0.1589325360193974
3.08203125,0.5609337697112801,-0.1929000355655635
3.0859375,-0.28463230836594483,-0.22955388329915788
3.08984375,-0.03592836144080677,-1.0400704195457056
3.09375,-1.533489834537319,0.05308452239132558
3.09765625,1.0509718420056018,-0.7572083078947092
3.1015625,-0.7879888204357588,2.565977683811764
3.10546875,0.40297304725712685,-1.8920637352923098
3.109375,-0.4948230898508028,-1.9296734983002735
3.11328125,1.0046570940075226,1.3783127638459631
3.1171875,0.286273360809114,1.2907656344193095
3.12109375,0.178719534854992,1.148967778288042
3.125,0.005197293794364717,-0.6404198826338305
3.12890625,-0.873289441888237,0.3511138475541646
3.1328125,-1.0446696508366828,-0.20666977147130877
3.13671875,-0.9881712765937699,-0.6150792110943448
3.140625,1.257630319265541,-1.2025366847710801
3.14453125,0.8483744516867348,0.2905097126674384
3.1484375,0.3402522664210407,1.877413736553378
3.15234375,0.3368121126178057,-1.1264967267287394
3.15625,-1.2023978697504336,-0.0802970227400145
3.16015625,1.5153274468763414,0.14239441450708612
3.1640625,0.707582409216656,-1.3408363978378866
3.16796875,-1.9258499096894994,0.28431626456701387
3.171875,0.31229266859615423,2.791109534869328
3.17578125,-1.127318062961179,-0.9090874028784213
3.1796875,0.7216789069352771,0.1818067677148476
3.18359375,0.33984857534595314,-1.811508171184497
3.1875,1.0588806859077609,0.2247184794357862
3.19140625,1.3827213327069545,-0.10102890820288053
3.1953125,0.9829751813911521,-0.14469845581746715
3.19921875,0.5334665827554196,-0.7705962020839795
3.203125,-0.3132842921963474,-0.8067889006755369
3.20703125,0.11169817521760639,0.1922540447000493
3.2109375,0.47815726516239504,0.9534692398028972
3.21484375,1.2642200651832138,-0.06700749580737411
3.21875,-0.2596987447548961,0.05645838024765311
3.22265625,-1.1830684796139732,0.8332893672403461
3.2265625,1.5281848733520775,-0.9159561206353973
3.23046875,0.16935360140737957,-1.2033168101997522
3.234375,0.4475644606206842,-0.5113415607883397
3.23828125,0.27988991113230893,-0.38276692780784355
3.2421875,0.12086657603369802,-0.007184849380645616
3.24609375,0.18118836463517382,-0.9630413044183522
3.25,0.4193468574221132,-2.4575888963401233
3.25390625,-0.9328582583763148,0.7507997447959305
3.2578125,0.14767974009717957,-0.5097773830449135
3.26171875,-0.6582671641623008,-1.574211295701477
3.265625,-0.9860810005828003,1.150338773720421
3.26953125,-1.190600572388344,1.9067508362517163
3.2734375,0.48614417579766783,-0.3542783873635672
3.27734375,-0.3107414416250801,-0.07824529294135944
3.28125,1.146339877944397,0.7503153138041925
3.28515625,1.5737989783620645,-0.39909388009487956
3.2890625,1.7177383920219471,-2.2124805976622093
3.29296875,-1.0479766300474889,-0.8130866173986905
3.296875,-0.47161709893301923,-0.49604626427717086
3.30078125,-1.3235970713749674,1.1761160054202633
3.3046875,-1.4841158079872578,-1.0396545537735484
3.30859375,-1.5488344358977355,-0.7888847338264573
3.3125,0.30635476693453034,0.17620726543341464
3.31640625,1.6276894768413033,-0.03849608121361927
3.3203125,0.9580683035194607,2.046105301824061
3.32421875,0.8590691106108297,1.0073887268262742
3.328125,0.18059674732832925,1.9587834428841386
3.33203125,-0.7461218287405282,-0.23230750099107306
3.3359375,-0.8250346593430051,1.5929230883485581
3.33984375,0.06259873745784839,0.06739737961673707
3.34375,0.4685635035176951,-3.047117299248485
3.34765625,0.3981225210120013,0.18144994879148416
3.3515625,-0.6410157183801269,0.8680690254870891
3.35546875,1.0310953184630927,-0.8460089650278392
3.359375,-2.2047906761002842,-0.35506800716173376
3.36328125,-1.4167527775869215,-1.124121366456831
3.3671875,0.12878079806022916,-0.49447477983951144
3.37109375,0.9413721468504266,-1.81931626519458
3.375,0.15180188930917055,0.3765084821106908
3.37890625,-0.34877354191424514,-0.7782940594893939
3.3828125,0.3872912313672619,0.6698963980651815
3.38671875,1.5441507726494041,1.8677098911288557
3.390625,-1.3488136957387689,-0.7291503180599276
3.39453125,0.6153430573812655,-0.15652074103023017
3.3984375,0.2112670157081315,-1.0305599256380644
3.40234375,1.3188067332535036,0.06479326263637936
3.40625,-1.5669747252019421,-0.9587398710099967
3.41015625,-0.9895488217950533,0.12591202083493927
3.4140625,0.17853052237028066,-0.8168185972609221
3.41796875,1.3102667990419534,1.6550822819149043
3.421875,0.41784361539400466,0.5046837335836599
3.42578125,0.213666109719115,-0.8523970790393269
3.4296875,0.9474808278969348,0.9814494865679938
3.43359375,-0.7092179149941639,1.4470632998345405
3.4375,-0.5702462018811999,-1.3292483881373391
3.44140625,0.8096742031967684,-0.5149539106441783
3.4453125,-0.29293107585374073,-0.8392353623577808
3.44921875,0.027209015746969774,-0.669056049135601
3.453125,-0.3756244041135553,-0.9162920779492557
3.45703125,-0.6869244598042995,-0.5945659218835232
3.4609375,0.24469111666741986,-1.135381067456844
3.46484375,-1.617369358318549,0.5199724196747334
3.46875,1.0749929907222906,-2.020833992160175
3.47265625,2.1730093298985125,-0.13658753571892485
3.4765625,-0.10842593175825527,-0.533502942910911
3.48046875,1.1889012348058552,-1.030599720074271
3.484375,-0.30096695167171605,1.0659435490120848
3.48828125,0.9404305326733851,1.0721934796652786
3.4921875,0.8024937113804601,-0.31293427776066207
3.49609375,-1.2920665679779988,0.16276971919832903
3.5,-0.7352690204627653,-0.7049149487778752
3.50390625,1.9336760640528539,0.6304862109418906
3.5078125,-0.28472844854027446,0.3251515028937773
3.51171875,-2.8509689557349867,-1.1946393530514308
3.515625,-0.4534333709276336,0.9611230664096202
3.51953125,-0.2571427218089237,0.05757794781142385
3.5234375,0.3820437809024078,-0.2988026443228942
3.52734375,-1.2261788073447992,-0.968990189998946
3.53125,-0.49794121923873985,-0.2179029409015175
3.53515625,1.1146438245298083,0.7722779301007461
3.5390625,0.4551992584446346,0.6938755601006883
3.54296875,1.8245296201714305,0.8231980423399934
3.546875,1.2293756114793084,-0.4208703891726106
3.55078125,0.15101123056972737,0.35976547690471045
3.5546875,0.4713970631488287,1.1699598839966214
3.55859375,1.9756900748361381,0.70183690492371
3.5625,1.4804256716841786,1.8246845400496337
3.56640625,-0.11897471554843056,-1.1509435912540114
3.5703125,0.7816929310729842,0.5644275309224044
3.57421875,0.5670949370415568,0.637242010907599
3.578125,1.3763701517907758,1.0872636604742325
3.58203125,1.1716627641405624,0.5434878193956065
3.5859375,-1.4068046715387372,-0.4045216283091532
3.58984375,-0.325926188271993,1.0930223976853077
3.59375,1.0416053197250699,-0.06668628589951081
3.59765625,-1.1613939560327238,0.7858997981297005
3.6015625,-0.8511320637026831,0.05840807101340504
3.60546875,1.2512419333212557,-0.012959932611530977
3.609375,1.4716886506276452,0.7626003841167535
3.61328125,-0.5021945463347202,-1.225615009854714
3.6171875,-0.13697081397720864,0.5659948555738055
3.62109375,-0.2805703833714047,1.7678028317622396
3.625,0.7827879370237716,0.1381726968437786
3.62890625,0.9475749812955127,-1.5817865369361581
3.6328125,1.4369164040605211,0.1510207034649553
3.63671875,-0.3652021913767536,-0.33273547772809536
3.640625,0.8438218155471675,1.750000820334403
3.64453125,0.10149086485912605,0.6196244851565176
3.6484375,0.6655349446848396,0.7033409626832995
3.65234375,-0.9039024756919475,0.439997695812173
3.65625,0.6165427211115914,-2.014306920098461
3.66015625,0.13271728479545453,-0.847618387198619
3.6640625,-0.2604496919708843,-1.0880185542525145
3.66796875,1.691967240721983,-0.5833088436395978
3.671875,-1.3708197035547858,0.6758577623354328
3.67578125,-0.9684320886844409,0.5910251057919154
3.6796875,-0.023351947420037825,0.22014598696187954
3.68359375,0.3928462064150339,-1.270176722226491
3.6875,0.1963505747802346,0.3280187549490099
3.69140625,-0.001001003581978587,0.25775972331265534
3.6953125,2.002118354861446,0.7889614568683103
3.69921875,0.8202008770481825,-1.4334049345811803
3.703125,0.8907934406895355,0.2640573844190842
3.70703125,-1.1518676302731174,1.3162916113531493
3.7109375,-0.90523955859939,-0.674724740060785
3.71484375,-1.6103268836646463,-1.4616880148514946
3.71875,0.7490796695722927,-0.6543284878497594
3.72265625,-0.06588596610129634,-0.22926118117735084
3.7265625,0.5294090494990316,-0.13039270518316706
3.73046875,-0.8093134382395356,-0.001527249522385327
3.734375,-0.39612403901645216,1.4831299512306109
3.73828125,-0.8298506374084504,1.057917796290663
3.7421875,0.10594942494462183,-0.33745710969953874
3.74609375,-0.8744283056332028,-0.07029996601502375
3.75,-0.40064741849701924,0.07297261522033342
3.75390625,-2.081541115657076,1.7456590037442483
3.7578125,-0.3012630337461859,-0.7090634971514987
3.76171875,1.4709473380196,0.0004088019349814926
3.765625,-0.9325011349998878,0.7546433769305482
3.76953125,0.48299986269929807,1.6516342724953745
3.7734375,0.4359428924637712,0.23840975594303704
3.77734375,-0.7797928542121415,-1.0128365786526767
3.78125,-1.474351536624697,0.34707093052658733
3.78515625,-1.4714757520331159,0.719979988059479
3.7890625,0.31199343839603144,0.3356588888276272
3.79296875,1.010056448270505,0.6361642305811067
3.796875,0.5961946418652886,0.20413447605150709
3.80078125,-0.6775219924829412,-1.4394622293697845
3.8046875,-1.5772787752862898,1.839268838730967
3.80859375,-0.7084730652125885,-0.08923852359482058
3.8125,-0.631939291843789,-0.13237406748104394
3.81640625,0.10566209319407284,0.8928030860376072
3.8203125,0.5905196461376273,-0.45739913989755243
3.82421875,0.1795062930398586,-1.1489528603995705
3.828125,0.1391458332487499,-1.2630429681962783
3.83203125,-0.13449942190273714,0.7644472462510842
3.8359375,0.20280295412183166,-0.3640092126076292
3.83984375,0.8888361094560171,-0.5256630969315622
3.84375,-2.646019907389144,0.19705045767133877
3.84765625,-0.11147968827049103,-0.49284700930208275
3.8515625,-0.6216313377336878,0.622823208694883
3.85546875,0.4315163181968603,0.77525854158518
3.859375,1.234983041756815,0.09243410798417777
3.86328125,-2.0357672800756674,2.0531236427253337
3.8671875,-1.3833695173182035,-0.24930834828044146
3.87109375,0.29266994953331815,0.09166732155183602
3.875,3.101754757339446,-0.6004619223737062
3.87890625,-0.40386011109551906,1.0655622528255377
3.8828125,0.8010975829693616,-1.5568550220646593
3.88671875,0.10818167513988318,-1.5750731053835307
3.890625,0.2424423957813293,-1.0856591312951342
3.89453125,0.817327099546766,1.6123065187111338
3.8984375,0.08446093301074226,0.8413802442183229
3.90234375,-1.820893939436533,-0.3231680673719897
3.90625,0.5131010609001881,-0.4989198713002792
3.91015625,0.03724669287587234,-0.8019619629423446
3.9140625,-0.05889580614244606,1.2914470499160478
3.91796875,-1.7733094143316177,0.7431204568294836
3.921875,0.260430942436954,-0.05575576783903288
3.92578125,0.09980976581846089,-0.08699775579947909
3.9296875,-0.639854299619795,-0.5887552678461783
3.93359375,0.5759885541076701,1.5930521123041388
3.9375,-1.0025710873705909,2.094270730448797
3.94140625,0.045297534039492236,-1.7338754983257196
3.9453125,-0.40908584120913744,-0.8776020517353283
3.94921875,0.4604879749820445,-0.014146028456070775
3.953125,0.6356008586126334,0.5047128459884499
3.95703125,-0.7847156790956302,0.035184393769416865
3.9609375,0.8901039184889373,1.9728757262054681
3.96484375,1.6926776680163167,0.6868410105705275
3.96875,0.29962931846136803,-0.514480399277694
3.97265625,-2.6174523656028605,-1.10412409250862
3.9765625,0.47380766470997754,-1.1038247171696962
3.98046875,1.8426928502997653,-0.8294522758466064
3.984375,0.7593112307787444,2.1441596473422218
3.98828125,1.4565082326126781,-1.267175594599932
3.9921875,1.7843651343204132,-0.8006779186603297
3.99609375,0.7888188907762806,-0.29454017862518883
4.0,-1.0327146992074518,0.9074142214664837
4.00390625,0.7010153742234343,0.1297392223842659
4.0078125,1.3796191041405612,-0.23699199223525683
4.01171875,-0.1428314583885616,-0.4493388372213732
4.015625,0.5262587860569927,-1.9730242128867153
4.01953125,-0.39765097744673894,-1.4747345817169581
4.0234375,0.05751633549009626,0.7468412380058416
4.02734375,0.2155720668016812,0.328656478254091
4.03125,0.2481368648923227,-0.8398170247559399
4.03515625,-0.04485948706568281,-1.446328657322839
4.0390625,1.134690770967569,0.47513838910540035
4.04296875,0.1321564270718264,1.3075235849637568
4.046875,-0.28368655129933495,0.4033001246871331
4.05078125,-0.17272704567162483,-0.4040238973288437
4.0546875,-2.3190349216358883,1.5544116092884785
4.05859375,-1.9396253442036686,0.9918202900293421
4.0625,-0.5232681365990991,-1.2245586085546114
4.06640625,-0.4976607288094464,0.04276727761332863
4.0703125,-1.0499180979985954,1.3617074083516139
4.07421875,-0.21261466930230802,-0.12751162271621244
4.078125,-0.9471231627569697,-0.19103720265789614
4.08203125,-2.1962576286418884,0.13314866791608573
4.0859375,0.5997039302169939,-0.8011319022910934
4.08984375,-1.0518929949554998,-0.059371472742919325
4.09375,1.3060964497566516,-0.5051740804392089
4.09765625,0.42530142630817613,-0.8497888681163295
4.1015625,1.2838946671057212,-1.3928494037035546
4.10546875,1.2203891371861868,-0.268556591412507
4.109375,0.3395096727699789,-0.046246739857426535
4.11328125,0.2203431377580267,0.6924653203291721
4.1171875,0.727507031718678,1.0083714766471235
4.12109375,1.1110724163445493,0.6873605895848581
4.125,1.560786747355011,-1.1475215315161238
4.12890625,1.0777259863996336,1.4112379569324571
4.1328125,0.6368384841241829,0.3793434294106463
4.13671875,-0.6806040131910552,0.8585369604665596
4.140625,0.23324939788979188,0.8712261449485964
4.14453125,-1.0271848313096086,-0.3856209322987178
4.1484375,-1.1945709006157792,-0.6438036922283614
4.15234375,-0.3495428286911261,0.8872715654407383
4.15625,0.5416234676471815,-0.46780458619782006
4.16015625,2.5541054811253145,-0.9512304935677292
4.1640625,-0.8138637697226997,-0.24587061682711772
4.16796875,1.9883588251307454,0.23017283303137404
4.171875,-0.9957872377041826,-1.3271071407049109
4.17578125,-0.22136013436477378,0.04214638409841374
4.1796875,-0.7235660987812969,-1.068302970047105
4.18359375,-1.1852468624554873,0.527420659492053
4.1875,0.21488876314074268,-0.9719849790851813
4.19140625,0.17524848603636878,-1.7336350559589846
4.1953125,1.1105475137017213,0.22036463221209515
4.19921875,0.9180475884393633,0.4493807820653628
4.203125,-0.024392740218919552,-1.8196847491454349
4.20703125,-0.8531845240853757,0.3828270442558353
4.2109375,-0.2568137732717439,-1.8071516197698587
4.21484375,0.08683237778501705,-0.0644129573521988
4.21875,-0.4814460811108778,1.1430281179684716
4.22265625,1.8699417314549807,0.9603820617305975
4.2265625,0.012782101501147756,0.30870427847154197
4.23046875,-0.8103402090393405,-2.251161495351423
4.234375,-0.05515001688267065,-1.6198405714145523
4.23828125,-1.9248081618274206,0.553940543447887
4.2421875,-0.28130460076205877,-1.2644599023151835
4.24609375,-0.8704769470136279,0.8407487873390864
4.25,1.2072397392905618,0.6886082462721982
4.25390625,-1.4244310999250391,1.5064107564396612
4.2578125,-2.1313965058309354,-0.12510005568452143
4.26171875,0.9620390822655781,-1.274238474646357
4.265625,1.1757648530797962,0.715537781289532
4.26953125,-0.03428597002210255,-1.8896894508701527
4.2734375,-1.5199937644543955,-1.363622096562512
4.27734375,1.0448037319154588,-0.4250036705281371
4.28125,0.47695956625100505,-2.037800277009735
4.28515625,-0.28542796811760757,-0.17320536040039858
4.2890625,-1.1293790012461233,-0.3046835275872231
4.29296875,0.6263568082329996,-2.3178378541294897
4.296875,0.2699604154654216,1.1953871202794755
4.30078125,1.3698003098642473,1.0601524974101066
4.3046875,1.0540518334863858,0.5186137017799114
4.30859375,1.6382773460902893,-1.0220189106261524
4.3125,0.5754082424837693,-0.5427401808076749
4.31640625,0.17306734717167396,0.6458426231243132
4.3203125,-1.7729336575816876,2.495356270011252
4.32421875,1.5738743426871782,-0.13711382186192256
4.328125,0.7564663885025597,-1.3909890862557823
4.33203125,0.25196446522880567,-1.562569975623372
4.3359375,0.19927307597338825,-1.2077537775715088
4.33984375,0.33290873123174686,-1.3847652362328704
4.34375,0.9498961681192587,-0.2914178898471557
4.34765625,-0.3697372382602486,-0.40271665741482626
4.3515625,0.4586228741090478,-0.9038493538887855
4.35546875,0.40300581078507036,2.073558687926733
4.359375,0.3282503434675632,-1.6655989882176812
4.36328125,0.16557185659400372,1.1565189520293255
4.3671875,-0.29999724888484797,-0.14157223691458362
4.37109375,0.3628370367982386,-0.143542712361706
4.375,0.3219643906809076,-0.33675252732176286
4.37890625,0.02214165308261288,0.021460258937458676
4.3828125,-1.3862886917256265,0.2907844590340088
4.38671875,-0.37088754125978074,-0.36496014535175775
4.390625,0.13870273815212977,-0.02671819205934173
4.39453125,-0.3312856403809761,0.4304307799606691
4.3984375,0.7966547514870355,0.14054503938794535
4.40234375,-0.6287229805924806,-0.7076251177857504
4.40625,-0.1593993303886791,1.0231793971122598
4.41015625,1.3923138286794776,0.7267699464944215
4.4140625,-1.6298035423463852,0.4754466823604944
4.41796875,0.19626834380092392,1.408357200277753
4.421875,0.2810352754272725,-1.309898328860508
4.42578125,0.657864526203599,0.36559143695388435
4.4296875,-0.011129108988146924,-0.2907946910614591
4.43359375,0.1732304466756853,-1.474854320946597
4.4375,-0.2372859396154631,0.3051410037273788
4.44140625,-0.01605904331740132,0.5241406866971022
4.4453125,-1.067685920269888,0.9176559588322606
4.44921875,1.1064997718078262,0.9208022436886686
4.453125,0.5846060176119191,0.29790671828155396
4.45703125,0.29013070832670385,0.8105031836906693
4.4609375,-0.33378287983508853,-0.7274102378684887
4.46484375,1.171150356023163,-1.294012752125799
4.46875,1.3573926856656784,-0.7854704446584692
4.47265625,-1.234811790028408,-1.2011306197032154
4.4765625,0.42888807984695393,-0.3298218551924048
4.48046875,-0.2541971749113926,1.1275522563348814
4.484375,-0.22083973961358996,-0.46352819921346355
4.48828125,1.7591082797286195,0.49559797251211857
4.4921875,-0.6742165192106278,0.04615264929402408
4.49609375,-1.6271494897475829,1.0293998254971206
4.5,0.3457285859512631,-1.1324650609887774
4.50390625,-0.7457500650327622,1.5048605248085622
4.5078125,-0.6479204487767514,-0.35920985198995037
4.51171875,-0.4196792461731262,0.21515157909057928
4.515625,1.1913724357356479,1.2196594464648924
4.51953125,1.412127206231092,0.13841229045147552
4.5234375,-2.1635808308234923,-1.3418884656593062
4.52734375,-0.9566006131408311,-0.06670701022625108
4.53125,-0.9314168491297405,-0.7326163892673715
4.53515625,0.09051699304725602,-0.2746277045958612
4.5390625,0.7871081817805646,-1.1321482789377553
4.54296875,-0.5923715649717404,-0.5854327206843056
4.546875,-0.7367202051283082,0.37581418087044743
4.55078125,-1.0245632327137164,-1.6083392213331256
4.5546875,2.4338153705231074,-0.13467964866311521
4.55859375,0.14769855682518004,-0.8859860962933311
4.5625,-2.305197047317761,0.47905562414402636
4.56640625,2.312430875836352,1.6922186631910707
4.5703125,1.10260547945641,-0.6950048963309177
4.57421875,0.3608488767141751,0.026658717574684597
4.578125,-1.486908828810016,0.36388797104132076
4.58203125,-0.3779611232144715,0.12197171512500593
4.5859375,1.3161005218196657,-0.704521866372555
4.58984375,-0.3871362261577878,-2.6811511208096355
4.59375,-0.9125302183501479,0.4857993107773964
4.59765625,0.7052307984459092,0.4160718134157234
4.6015625,2.007917293845288,0.24262281773919345
4.60546875,-1.1526644566782025,1.7555296587052178
4.609375,2.6181927827535456,-1.843261448705728
4.61328125,0.8984054392122943,0.4972060039456663
4.6171875,-0.09186770630841815,-0.9358309423542328
4.62109375,1.1469422083468652,0.4038429680456522
4.625,1.190271696948387,0.32018705950820897
4.62890625,-0.3621502928789866,-0.7018541590372359
4.6328125,0.8421720665202419,-0.23581898858939773
4.63671875,-0.379445645849499,-1.3905887826222367
4.640625,-1.8442228531721778,-0.14443060875473998
4.64453125,-0.3400090998770576,0.41208704990941436
4.6484375,-0.7123495292783107,0.07689284041321481
4.65234375,0.5045476906286936,0.9275778430552478
4.65625,-0.03309590451469886,1.2740217397386242
4.66015625,-0.8874449025508444,-0.6714201168575352
4.6640625,1.0870441227751455,0.6311561745607535
4.66796875,-0.4686047746525748,-1.1873856528825664
4.671875,-0.9329458781891404,0.5820682466043487
4.67578125,-1.6867241998872042,-0.25731015289772474
4.6796875,-0.01884005431538948,-0.7387163204744972
4.68359375,-0.41958364908429113,0.42804087943317054
4.6875,0.499334149691632,-1.209136848554981
4.69140625,1.0123406375426596,-2.2301034665557693
4.6953125,-1.2992885649182595,0.26077636964769346
4.69921875,-1.3392971068711033,-0.894140088863754
4.703125,0.07375381636552764,-0.17597404315628926
4.70703125,2.675784824061676,0.08424070808029752
4.7109375,-0.23919910887421425,1.9738021548030535
4.71484375,0.13211553015445038,-0.9317653226354443
4.71875,-1.1366329221221985,0.10356655714737732
4.72265625,0.899595147438369,-2.7676320504402394
4.7265625,-0.8644502245950099,0.18645536586631742
4.73046875,0.020872639766106982,-2.003500351003587
4.734375,-0.7984201548607123,-0.1641948622340186
4.73828125,0.5748087814935675,-0.4007509620737341
4.7421875,-1.4032290691032805,0.49603205447917953
4.74609375,0.7600006588488233,-0.01723278758217508
4.75,-1.5370297057764168,0.529008401734491
4.75390625,0.3158740021387309,0.3274398227483576
4.7578125,0.02672103799181307,-0.13993199084099348
4.76171875,0.6379647269745062,-1.3017216634589852
4.765625,1.0482263967809091,-0.1342156688627922
4.76953125,-1.2936569372342124,-1.3377450660704029
4.7734375,0.2096079278583481,0.13611811613689015
4.77734375,0.5878987659263178,1.12932599739513
4.78125,-0.774483489794251,1.2402772333441725
4.78515625,0.6137992329220185,1.1242518165567925
4.7890625,-0.4640856088607061,-0.3921612376415741
4.79296875,0.521057572513678,-0.856691305717123
4.796875,1.948807113053216,-1.5119290925531605
4.80078125,0.7589120668589714,-0.5874751362160205
4.8046875,-0.4607731913470104,0.12625415114144703
4.80859375,-0.27946530071347986,0.3152505717318811
4.8125,0.11268695746533074,-0.46266913418041294
4.81640625,-0.359948288930204,-0.278539109910856
4.8203125,0.7249255719256892,-1.816365919635534
4.82421875,0.1665748565627444,1.077508934588879
4.828125,0.11373049190238306,-0.720218572293632
4.83203125,0.4127679838090872,-0.6700650711465074
4.8359375,-1.458615996236643,-0.44046686639959254
4.83984375,-1.037160445763511,-0.8442426626860771
4.84375,-0.07201621078029509,0.38095912638977
4.84765625,1.5674368322148235,1.8354083300016801
4.8515625,-1.3646323853127555,0.5922834101440592
4.85546875,-1.0155328295448482,-1.278587476231531
4.859375,0.6583763412071909,1.2121465412412031
4.86328125,0.37247165664695586,0.5180266279474193
4.8671875,0.784726454168967,0.9429863905738165
4.87109375,-0.2296718878955417,0.10764863589529158
4.875,0.9697415567704345,0.3719105005873407
4.87890625,-0.1060671037496979,1.4199365725834658
4.8828125,-0.03567064488233618,-0.4778602343422937
4.88671875,-2.234459648524215,-1.5402314528020107
4.890625,-0.1794003314841164,-0.6710885776456199
4.89453125,-0.2866079386065557,0.598907133868236
4.8984375,-0.4312948095219668,-0.222740513706539
4.90234375,-0.5230075258116059,1.0924620806249956
4.90625,-0.7587227098000134,0.39390441123305786
4.91015625,0.6956441741105718,0.9722966794437533
4.9140625,-0.23523109453813407,-0.648004962863837
4.91796875,-0.24671029015746257,-0.4510718127220865
4.921875,-0.6225034532257147,-0.7923857263696842
4.92578125,-0.7401396991636181,0.3161151556727138
4.9296875,0.1518770901056958,0.5225560128706831
4.93359375,2.0267116777896717,-0.10101240582605861
4.9375,-0.8047229166577832,-0.4334794748931904
4.94140625,-0.2310406255493749,1.0022038649866276
4.9453125,-1.0809064677752902,1.1067819910668015
4.94921875,-1.7178780265868425,0.6534526473708321
4.953125,-0.4194975911528734,-0.7646682321145168
4.95703125,-0.011945438173434396,0.23401350235806784
4.9609375,-0.25836146292365864,0.37007272879862857
4.96484375,-1.0021003175515613,0.623273940412525
4.96875,-0.22005189535274475,0.26819765240088045
4.97265625,-1.7740144361009187,0.9416931875788895
4.9765625,-0.006253919506607928,0.34794301145441825
4.98046875,-0.38431454831097184,-0.5723779036946172
4.984375,0.4706301313200138,-0.057398528057584344
4.98828125,0.04116142674788976,-0.9658713727161505
4.9921875,1.3059699251220087,0.5528871888686473
4.99609375,-0.27349110262189175,-0.6093711748161488
5.0,0.9518069148400368,-1.0890414130605732
5.00390625,-0.5425075214041976,-1.7058736410160071
5.0078125,-1.0976872902003942,-1.9172515944150672
5.01171875,1.0378573741862716,-0.5302996477274202
5.015625,-0.003635702033552175,-1.9919091671212044
5.01953125,-1.4338060355111832,0.5717504871702944
5.0234375,-0.42345825651308666,1.8808633683309395
5.02734375,-1.6145306855838222,-0.44846959953503096
5.03125,-0.4281419471241985,0.5558859416535216
5.03515625,1.825537251012012,1.0835065953022547
5.0390625,-1.0447201316511798,-0.9543044420268186
5.04296875,1.6238168154771409,-0.015408515649076582
5.046875,-0.18998882761094335,-0.45935193313464284
5.05078125,-1.1671159434128373,-0.305255794145603
5.0546875,0.6221768298689933,-0.05901664484402547
5.05859375,0.328882085798149,-0.6504636010727974
5.0625,0.3414572662742315,-0.03857414398612896
5.06640625,1.2608457917145568,-1.319050155216783
5.0703125,0.5562156474996948,-0.3247065982520543
5.07421875,0.4436332098019525,2.3556862199341357
5.078125,0.24700209830837874,0.6039735573942305
5.08203125,-0.3756363852354685,-0.00022677490493746912
5.0859375,-1.8322695374591722,-0.9789216640391135
5.08984375,0.4172515301280598,1.1407417913860427
5.09375,-0.5796827212368374,0.2045411547658104
5.09765625,0.03391575135430366,1.1123690705032006
5.1015625,-0.829848026631569,-0.7627286255033022
5.10546875,-1.1844526036541263,-1.082687196377581
5.109375,-1.0018139768211725,-0.11207555725000186
5.11328125,-0.779308996922205,0.5309531753657608
5.1171875,-0.2747630217888928,0.38143863405642653
5.12109375,1.4684271475337565,0.04847491515010209
5.125,-0.29849980450178615,-0.6563302203693347
5.12890625,-0.1453017331491508,-0.09730350812619402
5.1328125,0.38090569300115157,-1.7037282683979378
5.13671875,1.226383515391184,-0.6800287043425816
5.140625,-0.6815819882289085,0.17127225264898097
5.14453125,0.8606981277660073,1.9461507561498883
5.1484375,-0.684893802682635,-0.4219580567884841
5.15234375,-0.37626780161377443,-0.6149657058263116
5.15625,1.8239360344211977,-0.7722894155782005
5.16015625,0.3214448156133374,0.524717746627617
5.1640625,0.1469963481935279,-0.26074593869489043
5.16796875,0.47950949956434263,0.2514098779417135
5.171875,-1.8969914245215658,-0.385897123191616
5.17578125,-0.5348842021553695,-0.5148792313949255
5.1796875,-1.6522155056749503,-0.6957284770997345
5.18359375,-1.5003255969241098,1.0042739285139775
5.1875,1.3390587833456515,0.8701461361409921
5.19140625,0.7813227869030015,1.419419418101928
5.1953125,-0.04079510622626382,-1.2957063101293569
5.19921875,1.0567478741626493,1.5659256706298657
5.203125,-1.3032714700262291,-0.2899261616073564
5.20703125,1.48346717165993,-1.1894956271473616
5.2109375,1.6310299218140645,0.18126421875140084
5.21484375,0.575425031626704,-0.29950308039667134
5.21875,0.4265484055907634,-0.8643793824749763
5.22265625,0.7505160454019838,-0.20023786934538995
5.2265625,-0.22081309977622746,0.940488203767475
5.23046875,0.5668621114934154,-0.1634463410868664
5.234375,1.0977532822619973,-1.4460241762148416
5.23828125,1.4096360190479258,0.8488855232946759
5.2421875,0.5166156543241626,-0.5608568150094545
5.24609375,0.8675127817520701,0.32076854137111843
5.25,-0.8336644224893663,-0.1604133274509492
5.25390625,0.0017322985189591887,0.0857330439028161
5.2578125,0.7875647047380648,1.4904056501193375
5.26171875,-1.2740254510139803,-1.0355391869435233
5.265625,-0.4518538040119446,-0.1540606576979554
5.26953125,1.6900926998082313,1.0194877432961709
5.2734375,-0.5550111603302857,1.2677024234214378
5.27734375,-1.2988200266200813,-0.6127444685671564
5.28125,-1.3857890800122694,0.9210458674529959
5.28515625,2.2497886986583544,-1.8217851264818026
5.2890625,1.1538894763886656,-0.6649258520707639
5.29296875,-1.4748547639981913,0.26835361005164116
5.296875,0.386512122511343,-1.3118763256889072
5.30078125,-0.01067771765189047,0.013981498314574816
5.3046875,-0.18586281996983012,0.6071953380138174
5.30859375,-0.7048704770652716,-0.7844774610460056
5.3125,-0.25467515843862576,0.11849825755272242
5.31640625,-0.11972862485380814,-0.370201915725844
5.3203125,-0.07485442234490869,0.4112989746275015
5.32421875,1.1224122883029857,0.9312602353557868
5.328125,-0.9779889062080281,1.258386291383291
5.33203125,-0.9370551357251607,0.5076808497819333
5.3359375,2.5004171881155357,0.1723158144661091
5.33984375,0.7472889515510348,-1.0367804376879202
5.34375,-0.3317327931660285,1.2084160351238378
5.34765625,-0.22785714944243404,1.5449003859042074
5.3515625,-1.2090734730070587,-0.7188037230754641
5.35546875,0.4631521368659591,-0.9362757166706654
5.359375,-0.614171341517542,-1.0933394674521655
5.36328125,1.515948866213029,-0.4458156391880989
5.3671875,0.25724484545166637,0.5271126629706737
5.37109375,-2.6828649832704614,1.4747017772420794
5.375,0.5633944169967827,-0.1135889774296092
5.37890625,-1.2559550077949069,-0.32176164910859206
5.3828125,-0.824461984745021,1.1619910561463607
5.38671875,0.29114563737092325,0.384185467972791
5.390625,0.6218937576417909,0.4044245008641629
5.39453125,0.3980771181915882,-1.6400109482290883
5.3984375,-0.6046968176795707,0.0736501541512874
5.40234375,0.785654863948222,-0.8387442363751137
5.40625,-0.38125332524972794,0.7619330232993224
5.41015625,-0.5890407870650641,0.2781587504040489
5.4140625,-0.5532427275407017,-0.880446980539297
5.41796875,-0.4671123633624717,0.007550483656923646
5.421875,-0.7563039230157058,-2.270742790827787
5.42578125,-1.1051376305402523,0.052769301526021994
5.4296875,-0.9523160511003219,-0.7855395934997123
5.43359375,0.5049011974186138,-2.776837701318665
5.4375,1.126295199638319,-1.5030844193254569
5.44140625,-1.1678586323953044,-2.1711007635401414
5.4453125,0.2949310441259691,-1.0269835824739788
5.44921875,0.21119649128033718,0.5129751305629181
5.453125,0.6432923770262612,0.7219954968491329
5.45703125,-0.11113628422380835,1.2013256354824913
5.4609375,1.173878102082346,0.24361779771039285
5.46484375,-0.628728366140933,1.7619404702749903
5.46875,-0.12268864990729218,-1.7152430297219534
5.47265625,0.07122118518900314,0.10928703776630087
5.4765625,-0.45557763994542283,-0.6997775295588137
5.48046875,-0.07274690001400248,2.1502873344659537
5.484375,-0.9077404614002085,1.6068028665874199
5.48828125,1.6329964038837974,-0.4829856887682363
5.4921875,0.4230095302629499,-0.0020003447983328584
5.49609375,0.3168646306144775,0.18767833923584532
5.5,0.742436798736526,-0.4781778006393864
5.50390625,-0.336462362765426,-0.21335977348531243
5.5078125,-0.8923288116050481,-1.6766056226538748
5.51171875,0.026544921125115296,-0.7937700836916158
5.515625,0.6573067770890103,-0.7577303295098532
5.51953125,0.2390489281797061,1.8881542359623578
5.5234375,-0.33195433868581375,0.0649981134045469
5.52734375,0.7468920651797359,-0.6669523786676649
5.53125,0.06671615105716817,1.0400387534204791
5.53515625,-0.4702966862864947,0.6946664975764072
5.5390625,-0.6392691899142197,0.17889793251586997
5.54296875,0.22867941414803486,0.2280745204683427
5.546875,0.5263909012215708,0.9380619447853226
5.55078125,-0.8340434556323193,-0.725196187781938
5.5546875,1.0775184135812035,-0.2872705367920934
5.55859375,-1.962258068436643,0.7723433184697727
5.5625,0.6305901725928433,0.704739157448902
5.56640625,1.7767509536467412,-0.5236632621714404
5.5703125,-1.7717814615146616,1.0588418372905035
5.57421875,-0.9172541995663883,0.7530914328227064
5.578125,0.4150208160993754,-2.0664810792517727
5.58203125,0.5869238520703369,1.2443910359627168
5.5859375,0.1399318421623044,1.1839714212354437
5.58984375,0.6136217282557441,-0.5185177753765033
5.59375,0.3250357312143978,-0.8632751573730622
5.59765625,2.040500598165623,0.6414329778982405
5.6015625,0.8094647045916856,1.168541334430402
5.60546875,-2.0273645017524062,1.3983487505057905
5.609375,0.31631888594590374,0.7605185164510229
5.61328125,1.5363749985803956,-0.6738208158801902
5.6171875,-0.6566263267441385,1.1026899511400081
5.62109375,1.3268622380873567,1.369915790261999
5.625,0.17610092265390193,-0.7062381842109071
5.62890625,0.8681494858814098,0.7318887297526091
5.6328125,1.7179761120142463,0.7021598540158782
5.63671875,-0.13524877226217508,-1.4970851613257792
5.640625,-0.33261677674547435,0.07479661354933655
5.64453125,0.45225817305957705,-0.8310374615611894
5.6484375,0.2774872593611247,-0.7850327113269872
5.65234375,0.6461038349786123,-2.229321471338213
5.65625,-0.04462155652676558,0.7351199071306002
5.66015625,-0.1879801769209297,-0.536040842238261
5.6640625,0.2500393705118246,-0.892915407718127
5.66796875,0.491626115364645,0.18179740868543995
5.671875,-1.6066545524215325,-0.42346404824909445
5.67578125,0.7716172626022786,-1.326134102932049
5.6796875,-0.0900592541451443,0.1971176838748232
5.68359375,0.29817970036996916,-1.1852384556502957
5.6875,-0.00908040598917038,0.5870464623939845
5.69140625,0.4195130810946665,-0.006906470362334923
5.6953125,-0.6948376272296225,-0.4553273439909974
5.69921875,-0.14645480739765213,-1.1971893073310977
5.703125,0.6777658468293015,-0.7064999495835352
5.70703125,-0.3174350152386372,-0.8386693869858319
5.7109375,-0.8449167980757645,-1.6378201147734406
5.71484375,0.345102204845939,0.022744293230714842
5.71875,-1.7496267639925553,0.5953081388699827
5.72265625,1.04931083772626,1.2356718725303455
5.7265625,-0.10063117180188466,0.8809993997807424
5.73046875,1.7768540447170473,0.36788655646377005
5.734375,-0.2623967219849944,-1.0906447165535342
5.73828125,-1.0551974501106651,-0.2346398290879006
5.7421875,0.3457009780965158,-1.4820573725878203
5.74609375,0.3907364740619085,1.6102019803202514
5.75,-0.3480083012670561,-0.4169760741469851
5.75390625,0.47232944812252836,0.04771710090401867
5.7578125,0.567068663833693,1.1089801435569497
5.76171875,-0.6042668937307925,0.481554553095336
5.765625,0.5776006350287682,2.306359343340526
5.76953125,-0.217305045060961,0.6766139846745032
5.7734375,-0.3734697764008819,-0.9464411993561351
5.77734375,2.517954224798028,0.7940520890455117
5.78125,-0.652048511662576,-0.9378933713634866
5.78515625,0.3362830165810117,0.28485166219745045
5.7890625,-0.7583289513544321,1.0059727725713103
5.79296875,-0.09617673301633023,0.5244892649612168
5.796875,0.6739000972329394,-0.6831473468504347
5.80078125,-0.5365553888621681,0.25570769436564644
5.8046875,0.7504412434875716,1.1017142446325296
5.80859375,0.7135368169448383,1.3894103411525132
5.8125,-1.9157244486274183,-1.137209244506827
5.81640625,-0.05696087607900811,-0.6372649340600038
5.8203125,0.12646723276572042,-0.7536398057501474
5.82421875,-0.5473222714884907,0.4667093516856973
5.828125,-0.2044141825932086,-0.4833526601633151
5.83203125,1.7309942103793132,0.3357340330924038
5.8359375,-0.18034091762222781,1.062633876488131
5.83984375,0.5363177109704224,-0.7959087244305539
5.84375,0.39790800738377563,1.0030147411358694
5.84765625,0.4244757834645342,-0.08391144674255516
5.8515625,-0.5716186938188471,-0.5272822402492264
5.85546875,-1.7212796386179159,0.021375578795924787
5.859375,1.3566827673818522,-1.765523139012856
5.86328125,0.6069998200398303,-2.1033782746643452
5.8671875,-0.30895454919391074,-1.016869567977437
5.87109375,0.7550939113289238,-1.4893984515547534
5.875,1.0734093403452518,1.1597443108404886
5.87890625,-0.9547122058111537,1.2506982067720067
5.8828125,-0.007835914463022836,-0.6070092135013183
5.88671875,0.1929223924579845,-0.12265513492426376
5.890625,0.8793412949297351,-0.06796384200826946
5.89453125,-0.8521335025211236,0.9518411087469169
5.8984375,-0.2847603605268187,-0.08245046450681577
5.90234375,1.2776873654216878,0.05567516650681079
5.90625,-0.5877798269854447,-0.5131652152913531
5.91015625,0.5321708260552113,0.4471555962873702
5.9140625,0.3779921562660491,-0.13295685399468377
5.91796875,1.2031716065616738,-0.6036450624476316
5.921875,1.8837401334631918,-1.602608025798603
5.92578125,0.7732774504001477,-1.3894756257877179
5.9296875,0.5307958070654144,-1.3291695785079918
5.93359375,-0.6803340820359729,1.7350500896429089
5.9375,-0.39971064749914087,1.5439253263291046
5.94140625,0.7174563973031829,-0.5387180457852705
5.9453125,3.0171206471658527,-0.4061543153060924
5.94921875,0.9146997260867131,-0.4112952116342308
5.953125,0.9146838428362538,-0.4112529514991165
5.95703125,0.019509805284346204,0.2994476126959338
5.9609375,0.2488369720034459,1.1067332659339517
5.96484375,-1.1129475962068796,-0.8435100725972547
5.96875,1.2204416907248394,0.5426999162251921
5.97265625,0.01616422298306714,0.2009325877633972
5.9765625,0.5090468837639396,-0.523080040275696
5.98046875,-0.45747202829621797,-0.8285678064957246
5.984375,0.3520210088857548,-0.5233677617752521
5.98828125,-0.9290504991482716,-1.0947843004032043
5.9921875,-0.37755980263314964,1.9662625102324487
5.99609375,0.7119874869920537,-0.7989164835088062
6.0,0.30270143468371485,-0.2732052080223348
6.00390625,0.5744377797297324,-0.7764258431548224
6.0078125,-1.957220867986557,-1.485801649394785
6.01171875,-1.3815313031237473,-0.376112057169492
6.015625,-0.7636399226735271,0.8898269479682269
6.01953125,-1.0751938384352915,-0.2205408423429563
6.0234375,-0.5607497407242714,0.34526101135692383
6.02734375,-0.6039732457004061,0.9571016652501905
6.03125,-1.7801230866913165,-2.528340820623947
6.03515625,1.1523666075007652,0.1964193027289729
6.0390625,1.2827229566307952,0.23781074422477114
6.04296875,-0.2901162650426432,-0.5730917186901766
6.046875,-0.5998596649709556,-0.2904352284856886
6.05078125,1.3443078116970304,-1.212558056800623
6.0546875,-0.23359201923544692,0.0851084823994227
6.05859375,-0.9591062598695121,-2.4805117958364336
6.0625,0.20579178025651934,0.8330680794061007
6.06640625,0.33053384700440075,2.086584900133867
6.0703125,1.4341200383087815,-1.954669318589907
6.07421875,1.7294036764769167,-0.42569288477423206
6.078125,-1.2997860566173327,-0.03750275615120745
6.08203125,-0.3207482476793198,1.6611095620669525
6.0859375,0.2904294332382234,-0.14311289648655331
6.08984375,-0.8781522299628806,-0.14467472522861632
6.09375,-1.0020161419158409,-0.6392531855409327
6.09765625,-2.138418347588511,0.2817335000585807
6.1015625,2.236875476153568,0.48764044457250644
6.10546875,-1.9105333123150345,-0.2698758740568718
6.109375,-0.2654851433131597,-1.7180853940171412
6.11328125,1.0449381046900705,1.2144240545259202
6.1171875,-1.3428842784463002,0.6635432960052493
6.12109375,-0.44396614656671496,-0.17279475927326626
6.125,-0.34880112135374874,-0.19415789901700473
6.12890625,1.4939028690859186,-1.0059103319328033
6.1328125,0.42284902952210485,-0.4641292972704063
6.13671875,0.6669154202150791,-0.6327723140803924
6.140625,0.2618826565897409,0.8452798926306231
6.14453125,-0.2988274439076934,0.26807507782132484
6.1484375,-0.8231624366478196,-0.33208764955319026
6.15234375,0.8287493500932466,-0.10271836164075789
6.15625,1.0027917621627558,-1.1935419994784429
6.16015625,-0.23917899220459957,0.7462746230557624
6.1640625,-0.9223883474410828,1.3399099474169822
6.16796875,-0.7114469103256951,0.3999718951586856
6.171875,-0.9980317317969536,-0.28498966993604163
6.17578125,0.16366414166076723,-1.8376828436147654
6.1796875,-1.7977092011114995,0.4154492481419613
6.18359375,0.6868900391997069,0.5937468890022055
6.1875,0.42899077114845513,-0.5201644827939536
6.19140625,-0.5225819102483824,-0.20020004922102808
6.1953125,-0.4113646798252758,1.1693693790642694
6.19921875,-0.806611814149961,-0.4249978262663449
6.203125,-0.24260557000979566,-1.3770732438080542
6.20703125,-0.8300804069301749,-2.05795290589427
6.2109375,-1.8278561616806746,0.06450765224676819
6.21484375,-1.0682307407084628,1.193650039534226
6.21875,1.6091723611424398,0.25673163306928243
6.22265625,-0.4263710529276268,0.6924946631819976
6.2265625,1.1448043085676995,-0.41588771690040627
6.23046875,-1.2107894256461424,-0.03416155266848819
6.234375,0.13626863213363682,-1.08736753708159
6.23828125,-0.6286345737558011,0.07706138344226107
6.2421875,1.1129872769091478,-0.036603009589155286
6.24609375,-0.58515735763804,-0.49644586879081676
6.25,-0.795814095132974,-1.8572268193772024
6.25390625,0.2786253645508122,-0.486169017583682
6.2578125,-1.0322427677167811,1.1459728881830615
6.26171875,-1.0865843671215267,0.20972280568847718
6.265625,-1.3693252164333014,-0.8544612051151306
6.26953125,-0.9532196731189782,0.17203392113039273
6.2734375,0.44557864732873376,-0.1414572294250587
6.27734375,1.5603576164689705,0.6296324145902169
6.28125,0.7633252300223622,-0.3559374831435896
6.28515625,0.5462390536311872,0.6473205675904088
6.2890625,-0.07889801521201789,-0.8167760845002807
6.29296875,0.2420225935650199,2.341597813563793
6.296875,1.7317598232630473,2.0825097910839854
6.30078125,0.37508845081651315,-0.3005771702578874
6.3046875,0.14314671957895647,0.5180725870458854
6.30859375,-0.6381743008129089,1.1290713017361589
6.3125,0.130857956636523,2.3796949357647112
6.31640625,-0.2174697070397298,-0.5519825010390926
6.3203125,0.08147185659226652,-1.105992330680894
6.32421875,1.0422235362121142,0.3388187942421241
6.328125,-0.4611688972794728,0.024957801758324554
6.33203125,-2.5039138677454043,0.24573222850556117
6.3359375,-1.5902243320172185,-0.3289256865984174
6.33984375,0.36401891841620637,-1.5565757190550267
6.34375,-1.3519012808996227,1.0161591020990026
6.34765625,-0.7126527607971104,-1.635834416881012
6.3515625,-0.6273835015089059,1.0470446932670934
6.35546875,-0.73809993075565,1.2694520131241862
6.359375,0.17705287742945985,0.23699513747794698
6.36328125,-1.6135638292396637,-0.48667495431947044
6.3671875,1.8139289028622687,0.9861036332998693
6.37109375,0.27252207264837097,-0.41595577947622614
6.375,-0.43689201340183154,0.7799151116583669
6.37890625,0.9061339288942653,-0.9048322453200904
6.3828125,0.0732332109481261,-0.2922441952514072
6.38671875,-0.22369045132693866,-0.7152779230352149
6.390625,-0.06715254963789591,-0.5176507705398155
6.39453125,-2.003673759059784,-0.10702288739298148
6.3984375,1.1772814668697928,0.05683997164314168
6.40234375,-1.954239925902245,0.7821332581740049
6.40625,1.8472903153225029,0.1920691246614328
6.41015625,0.0031019840470744883,-0.9376834514014991
6.4140625,-0.377224762858603,1.1266789860515805
6.41796875,-0.8034139666361452,-0.12259607632527177
6.421875,0.2003891079707926,-1.0422712361224735
6.42578125,0.7972812583556754,-0.722567133346928
6.4296875,1.4442497853153013,-0.9630210592406949
6.43359375,2.349166227725895,-0.8993803250826592
6.4375,-0.7626226262628076,1.1438937753662737
6.44140625,-0.07543091605249237,-1.6941240352733522
6.4453125,1.84138409661644,-0.30935337207711305
6.44921875,-0.852432375619607,1.0777505605726732
6.453125,-1.1722781334014267,-1.1371317898257458
6.45703125,0.14361361045819449,-1.5151355044230093
6.4609375,-0.16608220530491372,-0.2548685182515
6.46484375,-2.3416765146976695,0.7021251378113371
6.46875,-0.5744540690280339,-1.667256301179791
6.47265625,0.33476763738117504,-1.2500384538621556
6.4765625,-0.24612751717294504,-0.919986193118848
6.48046875,-0.17393385805466516,1.268460540598249
6.484375,0.1235884657066113,-0.16920677231974496
6.48828125,0.7531935672979906,0.3106015985683432
6.4921875,1.6091883948236192,-1.117914917044549
6.49609375,-1.1306009703093054,-0.8466080827143792
6.5,-0.39953672469391194,0.5500155973999763
6.50390625,-0.5765934476667415,-1.26204091692595
6.5078125,-0.9708117419264857,1.3475701980885215
6.51171875,0.11183432125581753,-0.7089411190102428
6.515625,-0.08245983129629855,0.24956102903729083
6.51953125,0.17641100827312228,1.6457600680234583
6.5234375,3.274946822902097,-1.5579707420036768
6.52734375,-1.4613352794013772,-0.9433876292288016
6.53125,-0.06681348572810793,-0.058468245171885515
6.53515625,-1.0662967523449491,-2.0765560203686375
6.5390625,0.00861961303293018,0.8711773561320185
6.54296875,-0.49754869807161023,-0.3902278979661396
6.546875,-0.6199096675840894,0.09756884700215085
6.55078125,1.5870488635275841,0.350523585379864
6.5546875,-1.2527527365383782,-0.9077320961198261
6.55859375,-0.7825445397319428,0.5174398294467338
6.5625,0.6453684396011019,1.3903760265200555
6.56640625,-2.2633714128340072,-0.5168068775550274
6.5703125,1.4765016110089877,-1.3354121182274403
6.57421875,-0.4970560925505563,-0.17594158232156776
6.578125,-0.7286973002753216,0.30908489623979424
6.58203125,0.2576868951274649,-0.8843849265505449
6.5859375,-0.2176979143863341,1.471945358696573
6.58984375,-1.2431391260438385,1.0830895667850609
6.59375,-0.6369997318524079,-0.1062359825254074
6.59765625,0.6974843228177398,0.7232597077394818
6.6015625,-1.0383370867201027,0.6066649224923127
6.60546875,0.2667195749331703,1.55432326140208
6.609375,-0.12266983449867035,0.09659398016581981
6.61328125,1.1309098680809848,-0.03273265538937085
6.6171875,-0.656744356257998,1.0028409269083964
6.62109375,-0.3525422595282866,1.1364747649666487
6.625,-0.53462844654217,0.31790975337453137
6.62890625,0.18890524100139297,1.572948410704295
6.6328125,0.015378069919972454,0.9427252208006482
6.63671875,-2.0710419639804214,0.762325918397172
6.640625,0.14727370076333138,-0.4354075627266202
6.64453125,0.19861165679979875,-1.2907922368829063
6.6484375,-0.06701948236751373,-0.5214902590173756
6.65234375,-0.04831933750199818,0.2303078260339175
6.65625,-1.3117591511927218,0.642829608578239
6.66015625,-0.43605925278796054,0.17080847480461972
6.6640625,-1.261986045660281,-0.484576433435394
6.66796875,0.2502570380514261,1.981763681621141
6.671875,-1.5360608612402737,1.0756376005562291
6.67578125,-0.5612650346945285,0.4840673545961819
6.6796875,0.6791140998646811,-0.42001961596961745
6.68359375,1.6651006153248167,-0.6695416737959409
6.6875,-1.7002841326053137,0.523186492421617
6.69140625,-0.5718306945332309,0.8745355180322247
6.6953125,-0.7604464430028122,0.5668348782048459
6.69921875,-0.7236429059552313,0.6338436151350577
6.703125,0.7903963669633298,-0.8317056795325976
6.70703125,-0.7532503141507393,-2.001129214943076
6.7109375,-0.7362365289307663,0.10380481566141149
6.71484375,0.33248451813077434,0.10286425234243565
6.71875,0.4060857110735889,0.7556034589290387
6.72265625,0.676349543952483,-1.9285859730353898
6.7265625,0.9699533866133468,0.4976362596831773
6.73046875,1.6105294110329857,0.3614546590714832
6.734375,-0.8818808867795495,-0.28103282627986703
6.73828125,1.066210485832581,-1.041706819041549
6.7421875,0.6160937714554565,0.2936742658311101
6.74609375,-1.1214325324092531,0.833884315298004
6.75,1.2601890512990388,0.8633938058247521
6.75390625,1.0729163982546874,0.8172478092846268
6.7578125,-0.7156674226322645,-0.31319652340989496
6.76171875,1.0854519127708284,0.1979297163595631
6.765625,-0.8413563661913899,-0.09436989656691486
6.76953125,-1.2750504259465454,0.5745725223023321
6.7734375,-1.209659219835928,1.2536723654128115
6.77734375,1.2212548053507615,1.664267803770503
6.78125,-0.0037743261309794753,1.6979727617568923
6.78515625,-0.4456572431202636,-1.1683963589073043
6.7890625,-0.9774810458899016,0.005894987988916717
6.79296875,-0.090428482972424,0.16918277776839033
6.796875,-1.6573231116878275,0.07183016375131314
6.80078125,0.38378026934050563,1.1453168652456345
6.8046875,1.8105974954778046,0.023618751840015176
6.80859375,-0.04551826928634628,-1.7005795719372445
6.8125,-0.3101491896070926,0.04656291860202538
6.81640625,-0.7421854716441778,1.250176622697986
6.8203125,0.003975711351778949,-0.016027017554088484
6.82421875,1.2927430970383749,2.2166860089196962
6.828125,-0.33611235776084525,2.0454540731979485
6.83203125,1.1770270376138432,1.487991007391213
6.8359375,1.6820410817896183,0.05066158450208351
6.83984375,0.12337027181528001,0.005255997446349382
6.84375,-0.024843685578540366,-0.2682019902990285
6.84765625,-0.7162180543140703,-2.360316384121977
6.8515625,1.2332544719732306,-0.8541329432006769
6.85546875,1.3273653099089315,1.0010109427374987
6.859375,1.4639947399525057,0.9798572922579083
6.86328125,-0.7557410200098221,-0.425399505353488
6.8671875,0.4998182865846751,-0.7768419954158307
6.87109375,0.03822911783523565,-0.15154986998982262
6.875,-0.6736055355439886,0.06690532764715688
6.87890625,-1.4511899477383583,0.3689056604016891
6.8828125,0.4317132590705453,-1.460494750939635
6.88671875,0.3542890212363525,-2.1803683409782084
6.890625,0.6052500777190405,-1.049431906352788
6.89453125,0.8039399003671452,-0.46957321928446405
6.8984375,-1.6635161686283397,0.09185394934813855
6.90234375,-0.49132083359084316,0.4582785615500554
6.90625,0.549983622121256,-0.2487846117644968
6.91015625,-0.07713425742585811,1.0133879250520703
6.9140625,0.4398894834935543,0.8103240134133646
6.91796875,-1.3804555586107234,1.5791731147810588
6.921875,0.31253814648959893,-1.9362296957206973
6.92578125,0.015531611533701525,0.060331544382478314
6.9296875,0.4467098648545081,-1.2261209273777884
6.93359375,-1.2356941896595957,-0.5665909020153598
6.9375,-1.3377147952918091,-0.20874552017773004
6.94140625,-0.7049601991199467,1.1246725890030813
6.9453125,-1.534962007206972,0.30511309102718814
6.94921875,0.07451688984707103,1.3253885940912775
6.953125,-1.5916785340112787,-0.23267143281334904
6.95703125,-1.1664337706861938,-0.4177597511296924
6.9609375,-0.046521932577805444,-0.072859696647203
6.96484375,0.8894958216025739,0.21540789762878834
6.96875,-0.5801575639612108,-1.1207447268253916
6.97265625,1.755705810911932,-0.33595845917153894
6.9765625,-0.045127249517360836,0.18505213195396628
6.98046875,0.497052534104851,1.7342229802780267
6.984375,0.10806008956217364,2.2384306386493176
6.98828125,0.8655970235264686,-1.431384624459741
6.9921875,1.4253932697738854,0.7574250493784643
6.99609375,-1.3458085545605414,-0.9690677975623103
7.0,-1.0931034341049533,-1.0302861002347214
7.00390625,0.692789858907179,1.0828261583454022
7.0078125,2.3467313899990554,0.48041283188740735
7.01171875,0.3124218935843897,1.1732960548993001
7.015625,-0.7054052079428585,1.3205079228381396
7.01953125,-0.017938778570574083,-2.1646419297129964
7.0234375,0.305402958480304,0.7126119922537439
7.02734375,0.5078827590441857,0.8316307321683712
7.03125,0.4531477297807044,0.7407160525707438
7.03515625,0.5984625605842456,-0.026381570557802846
7.0390625,-0.0007964215666605239,-1.3931580185334491
7.04296875,-0.4253703878674751,0.22420068793916964
7.046875,0.2102923121778481,-1.8545783396248026
7.05078125,0.48531282509562484,0.568058389568549
7.0546875,-0.23895338070261696,-0.211291152533843
7.05859375,1.2904979250702908,0.17827655374685925
7.0625,-0.3799054484335829,0.8392464080946875
7.06640625,0.9271510993037788,0.650783065215421
7.0703125,-0.4750088945026827,0.9941250777691661
7.07421875,-0.7724673008104618,0.37979905513173756
7.078125,0.35620459569649593,0.49711933563298033
7.08203125,0.1213823709791034,-0.3114657654613808
7.0859375,-0.5233425765914208,0.48576624184331524
7.08984375,-0.3895861197322219,-0.7547446468028493
7.09375,1.2846890812163398,0.8336332833657788
7.09765625,0.4885040685216277,-0.15901070007798623
7.1015625,-0.8103751340385037,-0.06280565374304672
7.10546875,0.033027616295719306,-0.878553354377883
7.109375,-0.08849673283948667,-0.6760370459006058
7.11328125,0.10337011280454599,-0.15824039176328353
7.1171875,-1.031191542305554,-0.3067333272135498
7.12109375,-0.25847887714285145,-0.5068570494465441
7.125,1.832758591626567,-0.3043177560572916
7.12890625,1.153255806325609,0.06483241422257187
7.1328125,-1.8889372661608532,-0.9530354419726639
7.13671875,0.5278638941807217,-1.682452552330276
7.140625,-0.4482088998876163,-0.18342848782742235
7.14453125,1.669658638524484,0.8301580312607085
7.1484375,-0.5860588294697849,0.5964992196526331
7.15234375,2.009276005919997,1.1000549724587254
7.15625,0.923085729119925,-0.8664450911211721
7.16015625,-0.23882184091708172,0.7028314835013221
7.1640625,-0.5773684827258182,0.49358200452299883
7.16796875,0.8630571707724818,0.0822159672180351
7.171875,0.857650370182261,-0.19261027466759995
7.17578125,-1.784502783245246,-0.32675174344485625
7.1796875,0.9040540478024537,1.77856100697775
7.18359375,1.3196843248615737,0.26192748108180386
7.1875,-0.283879757930308,-0.4896149904061609
7.19140625,0.8372670452650698,0.1274692229780151
7.1953125,0.33874096877397775,1.28710819108556
7.19921875,-0.37787264468079546,0.7725618580747932
7.203125,-0.1926122263259642,1.0362693618077214
7.20703125,-1.7575955723319756,0.6374823976282817
7.2109375,-0.37658045625615494,-1.2487730409044824
7.21484375,0.615577998663452,0.3344799377508087
7.21875,-1.4111774736093314,0.12034416418047887
7.22265625,-1.0752882404944533,1.3108324800431472
7.2265625,-0.6919516748197548,-0.25317853949909647
7.23046875,1.530279097891792,0.5065249798413994
7.234375,-1.8542918516241929,0.19297449688864687
7.23828125,-1.4074100571584054,0.7359100870879228
7.2421875,-0.45475456245187823,-0.16920037278982147
7.24609375,-0.9655018541151711,0.6843674981276259
7.25,-0.3287193961417844,0.2314555262712822
7.25390625,1.304369159256424,0.07183114115092996
7.2578125,1.5072951161719363,-0.6460507197946274
7.26171875,-1.3602035446119691,0.3974663366930355
7.265625,-0.37781629283493817,-0.07433676512832535
7.26953125,0.365902589192766,0.5185034782532966
7.2734375,0.17566969048489617,-0.060934008743352565
7.27734375,-0.15484347081746822,-0.5390097804901531
7.28125,2.024901771294142,0.6752984768582712
7.28515625,-0.6312577804055496,-1.6590533992074865
7.2890625,-0.2704436370562684,-0.3045024182740348
7.29296875,0.9528412254916186,0.10160983977631362
7.296875,-0.0066630453646390805,0.2418889814074956
7.30078125,0.7913113370295937,0.4863571996605055
7.3046875,-0.653872709280884,1.382518635741208
7.30859375,-0.1912610143206556,-1.2059494944540017
7.3125,-0.39393639203442865,0.4408676262319424
7.31640625,0.08172240963175528,1.6584225015881158
7.3203125,0.7937758001012818,2.0836355525431847
7.32421875,-0.10443087341192817,0.4316724308449154
7.328125,1.187532079592062,0.5463174917835545
7.33203125,-0.423282396928158,0.36191363106055113
7.3359375,0.527861169163731,2.433773948647316
7.33984375,-0.5107224441593943,-0.7027263080224206
7.34375,-0.40167429473295163,0.517618520062738
7.34765625,0.3101567918967469,-0.23902931775517422
7.3515625,-0.14367478287571311,0.8349114872107146
7.35546875,-0.47228421397145415,0.6847470057490732
7.359375,-0.32661908202919115,-0.45556041329068975
7.36328125,0.17553160501070195,0.4653185338841803
7.3671875,1.7366564688199515,0.6660302754839093
7.37109375,1.2227484948005383,-0.9992945724226566
7.375,-1.742782079441652,-0.20702811562744144
7.37890625,0.21263241280716483,-0.8340957242774468
7.3828125,0.6560186111207787,0.294319551475676
7.38671875,-0.6513159946177901,0.30448526012223875
7.390625,-0.21843102837627476,0.6080136122673214
7.39453125,0.6888085846306076,-0.7173835964568924
7.3984375,0.43975051923101305,-0.07966434948789623
7.40234375,0.7412260833828149,-0.4177426848188356
7.40625,0.5456446299072353,0.71161622330942
7.41015625,-0.5674190549949913,0.7690268723500064
7.4140625,-1.2505256035675596,0.25234883315349366
7.41796875,2.665255253174735,0.7471521730319611
7.421875,0.5878945298391249,-0.7034402045884746
7.42578125,0.6609070873869465,-0.4054581256670704
7.4296875,-0.05233927414466176,-0.10175770992600264
7.43359375,0.5429440201764374,-0.11957971469733823
7.4375,0.2199619401602347,1.8304165303293531
7.44140625,-0.09413995275340628,1.125341225662919
7.4453125,-1.0370931757345039,-0.1419814132825912
7.44921875,-0.8147201635524447,-0.9948626948168783
7.453125,0.13312083865217728,-0.9623029049872347
7.45703125,-0.2167167874897127,0.8375982389338058
7.4609375,-1.2237373956010327,0.3133726801222312
7.46484375,-1.65920980918969,0.5167842282915164
7.46875,0.5736005383779029,-1.368644199304507
7.47265625,0.985494779577547,0.32367080592564806
7.4765625,0.9343116894786034,0.2583232416140953
7.48046875,-0.42103575990798353,0.4131208676697038
7.484375,0.3276483376971915,0.8026223889668573
7.48828125,1.6198425976809017,-1.5156957180955126
7.4921875,-0.6604918439847853,0.5418693819384814
7.49609375,-0.7616827930636006,1.148179631542393
7.5,-0.2647708695946427,-1.3121568795857226
7.50390625,-0.1970611824639859,-1.4492822115112531
7.5078125,1.6946578834546637,0.7970178130007194
7.51171875,-0.32100128623271856,-0.8055616813512625
7.515625,1.1290005435784014,-0.22442104479704908
7.51953125,-0.2586236753272783,0.20802742584722486
7.5234375,0.7250925191507316,-1.2088342267338532
7.52734375,0.8575156118822851,0.7131288488684094
7.53125,-0.3816751718111654,0.3480123891200118
7.53515625,-0.8077267894715566,-0.7284310585072616
7.5390625,-0.5642677333881341,1.2550999137984449
7.54296875,0.362887623227351,2.125917510193122
7.546875,-0.9867323816027562,-0.6664743976976665
7.55078125,-0.03449791421967797,-0.17202744412718524
7.5546875,0.07096564778043353,0.17008590111629923
7.55859375,-0.08006737805433062,1.2786963737380117
7.5625,-2.2877076404030494,2.3015898514432447
7.56640625,-0.2837287676248792,1.9751944672883115
7.5703125,1.2912554677394497,0.9495150980698236
7.57421875,-0.16239975230102927,0.5329874825088097
7.578125,-0.3276513209981721,-0.5560712811134831
7.58203125,-2.0314000661128664,0.06972688407902111
7.5859375,0.026998778554618172,-1.3855863563930175
7.58984375,-1.7132688355883685,0.8473644028763684
7.59375,-0.0905594470246655,0.15934673315034606
7.59765625,-0.6318958525828567,-1.1177305492742635
7.6015625,0.5680768579613982,2.4827667303324077
7.60546875,0.8620483275940477,0.9417784663942055
7.609375,1.510853679581059,-0.48194469675988694
7.61328125,-0.8154408763347398,-0.16142950869070077
7.6171875,-0.5861815523890548,-0.5268377593021257
7.62109375,-0.913648587856431,0.2202557306380209
7.625,-1.027298343711769,0.9813383956187126
7.62890625,1.1305596554597295,1.666773177471503
7.6328125,0.34770662188937457,-1.1661977726556911
7.63671875,-0.09637714684614423,0.5411109412631304
7.640625,-1.0599526777387405,-2.644296631766386
7.64453125,-0.5718403303180153,-0.2144779920352334
7.6484375,-0.77475981963829,2.715970072398971
7.65234375,2.069078374386745,-1.2921895180291012
7.65625,-1.07359170202668,-0.013389359181659151
7.66015625,1.0215501069369306,-1.4228653959154165
7.6640625,-0.3844108709895225,1.0351854115102936
7.66796875,-1.3778876107278788,-0.830820980149158
7.671875,-0.9928261312579656,-0.241553668522232
7.67578125,-0.23235397303273786,-0.15991529767219947
7.6796875,-0.29447116763250897,-1.0039140704975513
7.68359375,0.6534079740219594,-0.8689369962602912
7.6875,-0.14004470630415186,-0.18986209072334773
7.69140625,-0.1385325989743858,0.578088806168803
7.6953125,0.8389117542981979,-0.8508252693516916
7.69921875,-1.5032382229213643,2.133106616070822
7.703125,0.7576049569780856,0.360139005672682
7.70703125,0.2626534926214483,-1.2723405906559884
7.7109375,-0.015833532073486662,0.3500708550127544
7.71484375,-0.3324810160896599,-0.8150475965493121
7.71875,-0.048180283768527274,0.23520041050520615
7.72265625,1.4507299579284096,-0.8996547953183984
7.7265625,-0.3893416379101263,0.19974195893602825
7.73046875,0.8074312665788203,-2.1408658133739227
7.734375,-1.2674638525504465,-1.7916770340839747
7.73828125,0.6957161429445191,0.33809576350609566
7.7421875,-0.7051987322620128,0.28178462865298065
7.74609375,-0.49242283544851634,0.14261182999773594
7.75,0.09269636434767765,0.4855801394555035
7.75390625,0.5997817427057226,-1.4585876294558489
7.7578125,-0.03829934572377025,-0.032580002532544554
7.76171875,0.6040248786299226,0.09142472110979444
7.765625,-0.5267757310080284,0.4540337462460015
7.76953125,-1.6463887365553902,-1.1958760669522581
7.7734375,0.9006202651411226,-1.6745316155235284
7.77734375,-0.2376023216013271,0.10577888155359537
7.78125,1.1026009409846016,-2.12750175328264
7.78515625,-0.49187015374814436,-0.756577000157081
7.7890625,0.5674986965178681,-1.4585248229288208
7.79296875,1.5002430870477945,-1.7108095149203926
7.796875,-0.4028586145231545,0.8523899630002593
7.80078125,-0.5610559729592367,-1.7403819134016643
7.8046875,-0.8943173776340018,1.5905023103449185
7.80859375,1.1990609364092746,-0.18441572481865162
7.8125,0.07346337404011649,0.7530094669876761
7.81640625,-0.7382214573030277,0.9587206172618075
7.8203125,0.40651515957380413,-0.6950729296118521
7.82421875,-0.7032324749741851,-2.216146858546886
7.828125,0.31457998248966723,-0.034184137359746805
7.83203125,0.7843925162561114,-1.1035707750067252
7.8359375,-0.30779681195812747,0.670970553746688
7.83984375,0.19556167281926687,0.5582483991814838
7.84375,1.9046974102549667,-0.19663954074477366
7.84765625,0.27902156925536875,0.2237383466128575
7.8515625,0.08137975947035452,-2.3591801460644786
7.85546875,0.49068625858843384,-0.9415104970362218
7.859375,1.616671922974248,0.5536199289797122
7.86328125,1.5256943974683346,-1.7326966583839263
7.8671875,1.4859080177339667,0.46007327730733855
7.87109375,0.49725202447934524,0.890237471010121
7.875,-1.0207337300584045,0.7744751525747616
7.87890625,0.29129483532398276,-1.7272621505472767
7.8828125,-0.2604838307981869,-0.2838699940818938
7.88671875,0.5241562057969728,1.4059024561786337
7.890625,0.9710080559384101,-0.3368913113150979
7.89453125,0.6080577534004343,0.4667242549311472
7.8984375,-1.2290009587279167,1.5650843999451556
7.90234375,-0.8789772215247971,-0.6241249823671216
7.90625,1.1167185079575384,-1.410760906663629
7.91015625,1.1638113489200768,-0.23359572949061336
7.9140625,0.160994967475716,0.5705767169659474
7.91796875,-0.20706903969521032,-1.8047609767344517
7.921875,0.5456377619192002,-0.23217684452104762
7.92578125,-0.8747816033220385,0.20501227462224828
7.9296875,0.036364549026602515,0.5046668736586253
7.93359375,-0.7543077993695169,1.5588196674499706
7.9375,-0.21531456265624804,0.030757369792222537
7.94140625,-0.44190788306153833,0.3629824230217432
7.9453125,1.5972943605885428,0.6543991709744638
7.94921875,-0.08135261441732002,-1.7386651895763585
7.953125,0.9708051394201535,0.8132038482443507
7.95703125,-0.3799606160819997,0.8185413409309049
7.9609375,0.7075652769882586,0.13095119432187666
7.96484375,1.2202942748305754,-0.3638468845651794
7.96875,-3.6676082338341063,-0.76554504459519
7.97265625,2.597795311855572,-0.24157983690980872
7.9765625,0.03401180133755002,-0.21400139699003304
7.98046875,0.2799858003747503,-0.5756562921665485
7.984375,0.6812920516512578,-1.5911981256915828
7.98828125,-0.3542993363694227,-2.373058976531678
7.9921875,-0.29247972524808846,-0.48020295999303914
7.99609375,0.8258176074263861,-0.16010277287572833
8.0,-0.897192653806801,-0.34972952992716394
8.00390625,-1.1767297564609145,-0.6676853685064426
8.0078125,1.190117051161396,0.032027453422827916
8.01171875,0.21013415489233545,0.24727590672282526
8.015625,0.4831077800695821,-0.552592359299741
8.01953125,0.9250406999194235,0.7770653861997083
8.0234375,-1.5844255474421949,0.8243447272712854
8.02734375,-1.5594852888793047,-0.8202056543850414
8.03125,-0.002628717710457254,2.2590927019629223
8.03515625,-0.5324007554404618,-0.2961071820403769
8.0390625,0.5054926996176785,-0.09606001144126361
8.04296875,0.29354039424578293,0.716421530869696
8.046875,1.6471374604386566,-1.4221610910864548
8.05078125,2.23427216509071,0.601021356578418
8.0546875,0.0576385185919578,-0.12914681674331638
8.05859375,2.487144391674555,0.29687843057602975
8.0625,-1.9481497829850318,2.3336340434199396
8.06640625,0.2021764743934054,-0.7679697457999946
8.0703125,0.5913144134923373,-1.3379204487194818
8.07421875,-0.5329952250321701,0.3950859945130497
8.078125,1.052604205335345,0.8943332646413134
8.08203125,-1.2485941292355944,-0.028310106889619317
8.0859375,0.6114845819523674,1.5333106997820174
8.08984375,-0.6425268920569271,0.2834091558626649
8.09375,0.36441730369140185,1.2462039608207942
8.09765625,1.0489095383114204,-0.295579901888907
8.1015625,1.903668229955791,-0.5515145322875479
8.10546875,-1.3375755128647309,-0.9050300735493193
8.109375,-1.8121326336412868,-0.7046527644170117
8.11328125,0.22015658346691216,-0.28986415600417303
8.1171875,-0.34874033739199084,0.7641052141316388
8.12109375,0.8828263518796756,0.5370538644762282
8.125,1.7594707569443027,0.5771976324547431
8.12890625,-1.2864895275686636,0.7774728419019853
8.1328125,-0.2847208089677809,-1.0632321729868328
8.13671875,1.246660488376155,0.4168561592767641
8.140625,0.32795125891911225,-1.262699319751395
8.14453125,-0.297613931726714,-0.34231247954138067
8.1484375,-0.5792216011317073,-0.0583205974633039
8.15234375,-0.16249607498831023,-0.9863031665250244
8.15625,0.38130377515070835,-0.22338599050937813
8.16015625,0.3559410600408019,0.8154358349122994
8.1640625,1.015682948842934,-0.09152347377589531
8.16796875,0.5782661424937743,0.9000665903330122
8.171875,1.5461162959361838,0.33641632996191373
8.17578125,-1.2011320324768069,-1.4750094746199862
8.1796875,-0.16683555179273948,1.2773473017963253
8.18359375,-0.22904596910994732,-0.9588583865772262
8.1875,-1.0195274422454021,-0.037946581379189805
8.19140625,0.8838416825981757,-0.8037536544478577
8.1953125,2.0450585287334055,2.2958013421949923
8.19921875,1.1942571766881998,0.6853179064162449
8.203125,-0.27151325807162396,-0.21597395694702565
8.20703125,-0.10759544115988659,1.2939454623594757
8.2109375,0.9224081727861858,0.3713862742629027
8.21484375,-1.1576900150845775,-2.5841116437268346
8.21875,0.42306713214896224,-1.4892146410592393
8.22265625,1.2226067457881646,-1.0542522403604813
8.2265625,1.6200082824585607,-0.029190106173223797
8.23046875,0.271401494302195,-0.051347451543747515
8.234375,0.3535791677685983,0.13582620825870828
8.23828125,0.5219772877705684,1.0457640577796834
8.2421875,0.7397598569861771,-1.0807928563390041
8.24609375,-0.14598738083553572,-0.620494969294794
8.25,1.7394955076072869,0.3121384564354478
8.25390625,-0.742406894116211,-0.6034165355890334
8.2578125,0.12818542064219013,-0.041475362282640246
8.26171875,1.0177963057094177,-0.3920995531658752
8.265625,-0.9421067622726369,-0.8090199904160225
8.26953125,0.15202605750100467,-0.3437101271885475
8.2734375,1.3389355029492145,3.070416361186108
8.27734375,1.2509421264215168,0.9873977217715477
8.28125,-2.699476098349156,-0.12489344175453881
8.28515625,0.44010093487087953,-1.455170468427692
8.2890625,0.19407071469807816,-0.2650006993186112
8.29296875,-1.039627396512873,0.03314053601315335
8.296875,-0.6808961613739487,-1.081385076409675
8.30078125,-1.6220696169882096,-0.07358312743180573
8.3046875,0.2638562691470129,0.7185873963840921
8.30859375,0.6163110705962987,0.19655338572914816
8.3125,0.8764444311843571,-2.0674024584206485
8.31640625,0.16660385655002197,0.3933263628807679
8.3203125,-0.3947345713087629,0.9967504355585629
8.32421875,-0.8083077703135731,-0.36717593522584124
8.328125,-0.407125919820445,-0.2297337188985046
8.33203125,2.145886611765241,1.874543683208072
8.3359375,1.494298974403535,1.072993436655194
8.33984375,0.6769654083956109,0.1667233860008072
8.34375,1.2672875566611164,-1.9466179759963465
8.34765625,-0.2818436486247036,1.816036307367763
8.3515625,-0.6562485205518852,-0.4541233566541377
8.35546875,-1.0364849022608158,-0.9925005202441811
8.359375,0.43680090377826036,-0.01631666410461932
8.36328125,0.27280727611738526,-0.3320994643820078
8.3671875,-0.8057544695291644,-1.9873904746486162
8.37109375,0.6606696963290589,-0.8155601421471075
8.375,0.3400837203872157,-1.3520420406927496
8.37890625,0.6633647885756901,-1.2832444803177254
8.3828125,0.6824773457745281,2.3988901565264222
8.38671875,0.34156630031422336,-1.889851974288189
8.390625,-0.20877936611034598,-0.3905134046396956
8.39453125,0.3619221477226162,-0.2501207198259349
8.3984375,-0.9039014707116853,-0.055900794118163816
8.40234375,0.6707406355481935,-0.5371609727495268
8.40625,-0.24298366611550978,1.2441224344410498
8.41015625,-0.7075127337632117,-0.2809154149178024
8.4140625,-1.0516510999758637,-0.35311084613110094
8.41796875,-0.08137935647743642,-1.73625578422182
8.421875,0.12011119838455898,-1.1582090551783815
8.42578125,0.8456696806581185,-2.450431361366888
8.4296875,0.5370879934605758,0.027116231548841078
8.43359375,-0.46005213179709,-0.30315393395233875
8.4375,0.15085602292594724,-0.19085930757850117
8.44140625,0.1482089141560392,-1.676377686630155
8.4453125,-0.4905885350315409,-0.10359266908407719
8.44921875,0.7045689027006199,-0.45920533367415617
8.453125,0.27611433512201045,0.3054398552536602
8.45703125,0.773484102694018,1.5270470577543167
8.4609375,0.6334666520297988,1.2462928310101942
8.46484375,-0.5418715927172155,0.8129855159867422
8.46875,-0.5702666603752737,-1.1492623933512232
8.47265625,0.7245551142828753,0.7930069356975735
8.4765625,0.5740603884282034,-0.6192951937385098
8.48046875,-0.33724606950837244,0.42663898374631676
8.484375,-0.005582324304548607,0.4119775696715681
8.48828125,-0.36267618344473973,-1.673879320743746
8.4921875,-0.011500903288111076,-1.355700117209843
8.49609375,-1.2371762865583529,0.22589271882176448
8.5,-1.7470969582580784,-0.8462059013572585
8.50390625,-0.16432953237511264,-0.08088951146902698
8.5078125,1.1858665266404755,0.48375362793956456
8.51171875,0.6387526364157342,-0.755129509920805
8.515625,1.2472749374965335,-1.7189497498295936
8.51953125,0.02978817224283464,2.2899684165251557
8.5234375,-0.4760207072437561,0.8523110129983575
8.52734375,0.4232992726987136,-0.5284337963248816
8.53125,0.0488504156386896,1.0712674308065149
8.53515625,1.0052886503666298,-0.7175551422493686
8.5390625,-0.6642526383826928,0.7088854037199863
8.54296875,1.0474897131093983,0.49218651008221076
8.546875,0.309451277587616,0.3661027587399647
8.55078125,-0.9585874879324449,0.14517651616997485
8.5546875,-1.9483309443607968,0.14427025244922181
8.55859375,2.502719576011812,1.3074231286481743
8.5625,2.4070527487051416,0.02286906324008819
8.56640625,1.0454510066863119,-0.029368837398350715
8.5703125,0.35472311500205445,-0.6363179944774529
8.57421875,-1.13414294919112,1.108263958497777
8.578125,-0.07917240346161294,-0.6392417691502947
8.58203125,-0.6674955112413318,0.9414336983514895
8.5859375,0.5764543269887379,-0.6492296429640436
8.58984375,-0.45000740676060585,-1.3452299855289183
8.59375,-0.06974853657859453,1.6375337690160614
8.59765625,0.453790666923746,-0.5483109361354448
8.6015625,-0.9695392959918137,-0.5499242822545068
8.60546875,0.33562771163582705,2.1076340394959376
8.609375,-0.0725282959211395,-0.6645287539853008
8.61328125,-0.1374968373646426,-0.08457924382641065
8.6171875,0.9124327179943672,-0.31700898108040754
8.62109375,-0.44581626647283085,-1.1834415481079021
8.625,-0.3908847624894129,1.3008021103387983
8.62890625,-1.4490993529814444,-0.38428749282916796
8.6328125,0.23144961589562207,-0.07647568523153683
8.63671875,0.3555208573687019,0.15065745919783388
8.640625,0.7458485747894859,-0.9923474841733447
8.64453125,0.544099588531309,0.013591249044481238
8.6484375,0.03527356527621197,0.6581458512259523
8.65234375,-0.35708593536679223,0.8054117088095438
8.65625,1.2299065453922902,-1.125659383346034
8.66015625,0.49467165916202205,1.260033477549699
8.6640625,0.7799759716923743,-1.423952025865273
8.66796875,2.566204124517016,1.3190784422593576
8.671875,-0.04202991144194834,-0.951568189603153
8.67578125,0.3485566256686028,0.503261216011131
8.6796875,2.1048377732639842,1.1846738089864972
8.68359375,-0.39328704572186823,0.03574830497555584
8.6875,0.7243275886621572,-0.003056094554844443
8.69140625,-0.7378978639285794,-1.1724093077621889
8.6953125,0.4394205666715144,0.5736969402543722
8.69921875,-1.4022476042687197,2.5316429286531323
8.703125,-1.118400440007636,-0.2528789007844675
8.70703125,-0.18827856990797182,-0.33459948488459684
8.7109375,-0.5918029273996068,-1.0231590106026436
8.71484375,2.1665033178541124,-0.32986973314241214
8.71875,0.6616619615319276,-0.2867829937431013
8.72265625,1.7783932169105674,2.3434841389236767
8.7265625,0.7566546975418744,-0.5157054616821978
8.73046875,-0.561292466081835,-0.2496185525929961
8.734375,1.9679371513309847,-0.9369381799789432
8.73828125,-1.4591984740581514,-0.4032452743808527
8.7421875,1.115957694483609,0.9488851765484813
8.74609375,-0.18886307281854844,-2.2539190422123103
8.75,1.3333629113611478,-1.1325770385630276
8.75390625,-0.44334560243375704,0.2771969895816233
8.7578125,0.4002640524672258,-1.038620029750835
8.76171875,-0.0554661737878498,-0.48086646727600996
8.765625,-0.6581340939614141,0.3389404072568462
8.76953125,-1.5898890868632307,0.11798666778324593
8.7734375,0.27864686682200257,-0.2606353885698791
8.77734375,1.1331371622570616,-1.4037805038573452
8.78125,0.08315838252675321,0.06963097920224218
8.78515625,0.25529066140613715,0.442774882344978
8.7890625,-0.9171644587685955,-0.498722249759478
8.79296875,0.4575568158498988,-1.0637614468729617
8.796875,0.9180907490673198,0.538640553313627
8.80078125,-0.33431497111177527,1.0165318211725665
8.8046875,-1.2162803597542273,0.25539322011106874
8.80859375,0.28746540792420366,0.900143720194044
8.8125,-0.2583667130043013,-0.2896866081941362
8.81640625,-1.7566882618307218,1.2687543378556652
8.8203125,-0.06971633616440277,-0.20531985798999727
8.82421875,-1.5688066357398696,1.5449850054206056
8.828125,1.3039372859678773,-1.056160570953188
8.83203125,0.6219267206711956,-0.660625763082101
8.8359375,0.8283021924468179,1.048986170457635
8.83984375,-0.9154018567589177,-0.12140866020528766
8.84375,0.34239374801596084,-0.8501087385042028
8.84765625,0.9460452996086778,-0.9134781665485385
8.8515625,0.16010466783984184,0.6823524633043764
8.85546875,-0.5962110577613223,0.7408657977415675
8.859375,0.3609699223445497,0.9870085403074442
8.86328125,0.311562796756164,-2.1613844700269826
8.8671875,-0.8669309462041896,-0.3431511878785448
8.87109375,0.8047575991382034,-1.1469508982343803
8.875,-0.08299203504583078,0.4589121739732986
8.87890625,-0.3890225774388582,-0.09430377192473671
8.8828125,-0.2666487500293266,1.2018065023474491
8.88671875,-0.6182149035687259,-1.1627915149995374
8.890625,0.8256077105313802,0.14607814731346
8.89453125,1.424047873403637,-0.10919013553193958
8.8984375,-0.7219763943388584,-0.9648875595001871
8.90234375,1.2492785546923697,1.1089404721831122
8.90625,0.8048385204354757,-0.4749561742924009
8.91015625,-0.757848478011196,0.774733220981427
8.9140625,-1.2706865485279308,-1.6901173937517457
8.91796875,0.14346404681121516,-1.275871357957469
8.921875,0.369283881800984,-0.03213097364099759
8.92578125,-0.5872516493117675,0.38021422621733486
8.9296875,0.41992351310904363,-0.14732363739237297
8.93359375,0.05800679232167019,0.13353079313711974
8.9375,-0.8788241436613591,-1.0819854633567856
8.94140625,0.29953127950940983,-1.3564912505331885
8.9453125,1.5207881122249935,0.008726123596077013
8.94921875,-1.0119448994265985,0.12922545313653072
8.953125,0.2538691668188768,-1.5028081896196235
8.95703125,-0.40446345999806294,-0.47219715951609303
8.9609375,0.5077665342240265,-0.6344383229937498
8.96484375,0.20478007367030168,0.796987061594646
8.96875,-0.27263388866877697,-2.0733344503066995
8.97265625,0.3914028284326904,-1.2216535455677695
8.9765625,1.2611823354694613,1.195381294932686
8.98046875,-2.1972554275976943,-0.3970309889481495
8.984375,-1.0038643693493732,-0.544487995699391
8.98828125,0.29499468618813307,0.996992471281557
8.9921875,-1.7966506420397674,0.6794787053838673
8.99609375,-1.6355599983101277,-0.26299554826723776
9.0,0.3179845561094601,0.17817368945870396
9.00390625,0.8281191829676858,-0.6780841177747712
9.0078125,-0.40338350756689206,1.1640846345112246
9.01171875,-0.6523160093579161,0.20880384268836183
9.015625,-0.16072238828689073,1.2539200654667937
9.01953125,0.42202156546872455,-0.8164369471656074
9.0234375,0.43027419572810066,2.106163138885183
9.02734375,-1.184072920704458,0.8968073016556681
9.03125,1.0008756942672627,-0.5931160567545176
9.03515625,-1.5282886783415275,0.5473555341428414
9.0390625,1.595342314479036,-0.6983578791794234
9.04296875,0.35832478334861684,0.425138186072729
9.046875,0.062272911110570685,0.2097612297827406
9.05078125,-0.8683897950642999,-0.5731501541741463
9.0546875,-0.4337724768163051,-1.1095663869257226
9.05859375,0.4761955604841405,0.6058483840835049
9.0625,0.7318760522371539,2.469618916637881
9.06640625,0.5215906328500861,1.210595347294395
9.0703125,-0.10845629895595629,0.3685096208340134
9.07421875,-0.699550104539331,1.1961546280595103
9.078125,0.7424007765525052,-0.5186644061679317
9.08203125,-0.4118247523426199,-2.409704033385323
9.0859375,1.8941631382399655,-0.47117920026862187
9.08984375,0.983269986817545,-0.2708505996111475
9.09375,0.07027776336353941,0.605759406532755
9.09765625,1.5614578502515257,-0.5989486176954157
9.1015625,0.6996074838661909,0.5869012285605704
9.10546875,-0.5952524046235715,-0.275706309785429
9.109375,0.7731590416106252,-0.1636770670691509
9.11328125,-0.3758216868348018,0.2437745200882386
9.1171875,0.17735223782682485,0.21639840445191136
9.12109375,-0.6140378005327847,-0.9683027886148146
9.125,1.311667372654521,0.05897612431534788
9.12890625,-0.3490547446380533,2.4296607430847357
9.1328125,0.342560759082355,0.5361902763027245
9.13671875,-0.8322842905941119,-0.43930420615777743
9.140625,-0.7351024470495868,-0.1331738586096062
9.14453125,0.9310772728126376,0.9153677354284137
9.1484375,1.356742253225418,-0.1350992845226512
9.15234375,0.28555293646578805,-2.3513509456249775
9.15625,-0.49877725042557014,-2.1533168525077344
9.16015625,0.07719344535268338,0.14956369260384958
9.1640625,2.0353145115262383,1.341829823601968
9.16796875,-0.4833804319960447,-2.510165163995851
9.171875,-0.07116075069451298,-0.7713637841923288
9.17578125,1.174984468723189,-0.8599473887723011
9.1796875,-2.3427125562659854,0.2304351960528024
9.18359375,-1.1270210210237595,0.44209876566148537
9.1875,-1.3072262866278652,0.08635695112508666
9.19140625,1.3712430060233496,-0.6924753979878797
9.1953125,0.16353334577797188,0.6386869897907793
9.19921875,-0.25345255079940937,-0.7417066849236147
9.203125,0.5230765126596557,-1.0289958115512423
9.20703125,-0.28294154406175565,-0.4234089570172651
9.2109375,0.3244455627081161,0.6573216754171232
9.21484375,2.038489071718735,-0.49119950785874705
9.21875,1.340359561237256,-0.4995765540765003
9.22265625,-0.28008596426073185,0.2155641644148671
9.2265625,-0.5599662884050356,0.5099222379267848
9.23046875,-0.7424473896139245,0.0165334868729272
9.234375,2.377750147379499,0.3029783250292418
9.23828125,0.5242131627566133,1.0389188749568858
9.2421875,0.567274473608443,0.09844395165336871
9.24609375,-1.1118102179328226,-0.7671048462660421
9.25,-0.7644222822293691,0.27517630670430215
9.25390625,-0.6340597894148694,-0.7766975176085095
9.2578125,0.13110312750005135,-1.1490226491686675
9.26171875,1.4575085503516922,0.9082198840942685
9.265625,1.3059065869054958,1.9296756080716355
9.26953125,1.4565779430169943,-0.27855247636919994
9.2734375,-0.6149640698177045,-1.5404469555542017
9.27734375,-1.2903697494477215,1.0775714357836406
9.28125,1.877827517325618,0.06458329462715025
9.28515625,-0.998805693335742,-5.304206940772662e-05
9.2890625,-1.3773072027941649,-0.30216413022632443
9.29296875,-0.11038217451415143,-0.28059530656815673
9.296875,-0.2920810808924035,-0.7977035855738966
9.30078125,-0.1774344588715517,1.4546028744300183
9.3046875,-0.5688589423134214,0.4355151850005734
9.30859375,0.07661210442329733,-0.06259483151317771
9.3125,-1.0424262814850744,-1.93800731294837
9.31640625,-0.33054124862601575,0.9803338640780439
9.3203125,-0.21889665678364148,0.973024459811051
9.32421875,1.0930754949438155,0.630608260013112
9.328125,1.0598168018788858,0.8557506342377234
9.33203125,1.6982727099105,-0.8571928869154997
9.3359375,0.6044277791640584,-1.7525521152575905
9.33984375,0.2199226019810197,-0.42042313316798424
9.34375,2.2880118910517377,0.25266164416039943
9.34765625,0.6442160004245622,0.629673334610517
9.3515625,-0.0010827227908688612,0.12421564368865061
9.35546875,-0.040977027782347,0.29681896022697113
9.359375,1.4316702901007148,0.9029813336999244
9.36328125,1.746822443619037,-0.08889842197081269
9.3671875,1.3450461909715579,1.1601195615931634
9.37109375,-0.4373162479682914,1.0796255978519826
9.375,0.8886565208313839,1.2189651764708143
9.37890625,-0.46567379134251213,1.2641190053958946
9.3828125,-0.826981735796663,0.9667603066316484
9.38671875,1.043965437244006,0.41582114356177347
9.390625,-0.08663638921817952,-0.47948323340507437
9.39453125,0.8107163519651609,-0.10498358287879957
9.3984375,-1.8932995617876258,0.707098649236257
9.40234375,0.09468348529175957,0.7761468006350445
9.40625,-1.9912442734388986,-0.8482325101711732
9.41015625,-0.8104238534010013,0.26012254363437365
9.4140625,-0.23521313013960685,1.4325383983403253
9.41796875,-0.08668097156607547,-1.2402957509711283
9.421875,-1.0272114296386619,-0.26122960323183797
9.42578125,0.4228244608504724,-0.9797831707080156
9.4296875,-1.3264388840420593,-0.8549221216345692
9.43359375,0.23213318369288152,0.08208271399314587
9.4375,0.9269140499444344,0.5130580618152594
9.44140625,-0.23948551874355034,0.6966528041677783
9.4453125,0.07260182880241997,-0.12499787757229837
9.44921875,1.3622482421080322,0.30690613785065174
9.453125,-0.5277866831438219,1.730996709384115
9.45703125,-1.1431979669974568,-1.7096564872992712
9.4609375,-0.040858615403581156,-0.2752629777208462
9.46484375,-0.7060694947770828,0.2718103040562623
9.46875,-1.3192622134122745,1.027799931335587
9.47265625,0.2671325341614359,-1.1628226297884472
9.4765625,0.5418373050277051,-0.36714532298628466
9.48046875,0.3292417051995984,-0.9059431295443876
9.484375,0.06753883270270307,2.7534160093071973
9.48828125,1.6182158636893482,-0.3258263989863945
9.4921875,0.7715481906912973,-0.06888794117645215
9.49609375,-1.1880843097925076,0.8039330455655169
9.5,1.574120788754458,-0.9991542860085258
9.50390625,1.865719121917273,0.9500455970094576
