time,ecg,ppg
0.0,0.8230364305488138,-0.5317966917836954
0.00390625,1.546165197455508,0.20469489957174103
0.0078125,-0.9487072607045088,0.472944476598861
0.01171875,-0.7139798364394343,-0.013754082478810667
0.015625,1.4978034177324004,1.2453916705787855
0.01953125,-0.6246751593972117,-0.5219261065609351
0.0234375,0.44703311131381596,-0.9076554855736102
0.02734375,-0.2451399499592121,0.5226190069897168
0.03125,-2.092950738036411,0.9474515701954607
0.03515625,-0.17339076090933067,-0.9136762783869543
0.0390625,-0.9260346887950089,-1.6116101319472982
0.04296875,0.4635810536116595,0.7616657626881103
0.046875,0.25248294864413434,-0.6059015134799186
0.05078125,-0.6625357430463141,0.44922660811011395
0.0546875,0.679327065194794,0.11043861632931938
0.05859375,-2.0632064434513926,1.7892004161295145
0.0625,0.9076553764483084,-0.6249849475879188
0.06640625,-0.7998152163823461,-0.07054705105116933
0.0703125,-2.137192833730693,0.8322972409637069
0.07421875,0.768363933412248,0.8259264280818774
0.078125,-0.393407450650941,-0.6474613678551684
0.08203125,-1.7906767292942252,0.5549608021385714
0.0859375,0.14114977723981867,0.2103864566829563
0.08984375,0.6316307435524313,0.4691847153914201
0.09375,-1.271382545379628,1.6792110687250297
0.09765625,-0.04030981886555161,-1.0433115214966355
0.1015625,1.0593331061301514,-0.014260934140494059
0.10546875,0.5611658587223638,-1.025987276425481
0.109375,-1.159586413621133,-0.9195633618277362
0.11328125,0.11049428487626792,-1.3690179886090657
0.1171875,0.4825786256833207,-0.24163433381593566
0.12109375,-0.7478037927183581,0.2472246508176827
0.125,-1.0874466971238084,1.034706706911385
0.12890625,-1.5331528437498876,0.4215382618356861
0.1328125,0.909355081841765,0.5725583883661192
0.13671875,4.213605191980703,0.5380488270602617
0.140625,-2.2055459624115077,-1.640446920613626
0.14453125,0.6693291654261628,-0.6790066506019649
0.1484375,0.4530157656339259,-0.769629283721651
0.15234375,0.6498503780586312,-1.1291605954478916
0.15625,0.6108006097338704,1.4279919744039271
0.16015625,-0.7319809916502629,0.7521228825466441
0.1640625,1.4332326749010513,-0.5269437262909615
0.16796875,0.5078230569977403,-0.5544084555800757
0.171875,-0.14590076600149177,1.5096546083943694
0.17578125,-0.37493975821466696,0.5227434027196641
0.1796875,-0.13052004190149505,-0.7181889087306595
0.18359375,-0.65697778787036,-0.8847732683662727
0.1875,0.9804925549135265,-0.051978343781175544
0.19140625,-0.4585492114618845,-0.5251803925973114
0.1953125,-0.9377420761806784,1.7890186847066285
0.19921875,0.05868056504255002,0.7913152081094125
0.203125,0.8001315897128268,1.0343298059330666
0.20703125,0.49682094411813216,2.2015390336875855
0.2109375,-0.5641386180119052,0.39133287963378416
0.21484375,-1.767358091393303,-1.8051984146240443
0.21875,-0.1994518796149458,1.8440322419149233
0.22265625,-0.97504525795738,0.053078053332016116
0.2265625,-0.5039487492524648,-0.4198073821415349
0.23046875,0.9770863630479729,1.208162570087619
0.234375,0.02577367620587377,1.337790053696198
0.23828125,-0.7190199401926817,-0.9297254589781617
0.2421875,-0.37672291141921516,0.5793478374705161
0.24609375,0.6391104583687194,0.45647138724622804
0.25,0.49434081665581725,-0.4800621635013961
0.25390625,-0.11531779866226274,0.5199724582989503
0.2578125,-0.25030957215277017,1.3315818554085475
0.26171875,-0.7629153351965661,-0.23583602365022566
0.265625,-1.0667295982890677,0.6571591747670964
0.26953125,1.1601636196801843,-3.215185104765594
0.2734375,-0.349601399963335,-0.6341203260360662
0.27734375,-2.043814722739357,-0.7261473255403695
0.28125,0.08685014595099556,0.6198009944835965
0.28515625,-0.45013260863492105,-0.5757101170768592
0.2890625,0.13753807913552896,-1.8025681412877852
0.29296875,0.5133089885135491,-0.45800214359444213
0.296875,-0.6989227626378701,0.5775579380957202
0.30078125,0.21385193160199073,0.7821101034504683
0.3046875,0.011013393256777101,-0.18438722248054687
0.30859375,0.8815026117646484,0.47514167497735327
0.3125,0.18816312159972656,0.09725822426823755
0.31640625,-1.5417292455364875,0.25088140673781195
0.3203125,-1.4159103569149052,-1.4755469924004465
0.32421875,-1.4597565809119135,1.634369405360898
0.328125,0.2548791307393174,-0.6002841490591357
0.33203125,-0.4867386442922841,0.2680979038270563
0.3359375,1.5813933507594993,0.5497075786064372
0.33984375,-0.8608699547926636,-0.12480227997256028
0.34375,1.3550469547275925,-0.11035841064006495
0.34765625,0.10610268037047141,-1.3084566515246105
0.3515625,-0.701368206533234,-0.8316663714004856
0.35546875,0.21088186069925505,0.8870925922693336
0.359375,-0.7483268277734176,0.1728384917160207
0.36328125,-0.8614556896476574,0.605481548674898
0.3671875,0.3017328010946018,-0.4262455906388579
0.37109375,0.5040406179321462,-0.3681284107645037
0.375,-0.7367296074483871,-0.4113323070659229
0.37890625,0.5430348841546137,1.0606951660441053
0.3828125,-0.8773285202706074,-1.6190175519697803
0.38671875,3.2037205479585897,-0.6974034744891966
0.390625,0.004855454335442306,0.749155120414319
0.39453125,0.0013053786033548477,0.8104482463986116
0.3984375,0.5360113510733,0.6230694501196692
0.40234375,-0.5088024254254219,1.5462789746005807
0.40625,-0.5589105208631843,0.7460146858133612
0.41015625,-0.5095935391998245,-0.016603258904507912
0.4140625,-0.19143652548299167,0.39226739684683204
0.41796875,0.4937715407192791,-0.554892174459945
0.421875,1.1055867358741487,0.10183354756335213
0.42578125,0.7694560274800788,-0.23542740102777432
0.4296875,-1.5708874256527836,-0.7447782499969641
0.43359375,-1.7710356663906803,0.5682966760980733
0.4375,-0.5123000929238558,1.6425353652067072
0.44140625,-0.5883666813410158,1.1887831504465598
0.4453125,1.0877828063325898,-1.394872987701329
0.44921875,0.5056415347205171,-1.4545909922584537
0.453125,1.150288701139411,-0.22533346491326578
0.45703125,0.44284792813205376,-0.23177854605826945
0.4609375,0.2529306019668185,-1.0806818794412847
0.46484375,-0.517004441421213,-1.662780056391956
0.46875,1.2626382097324313,-0.678068431295916
0.47265625,-0.18644884701555428,-1.2213836297018779
0.4765625,-0.16394401522780302,-0.44107398121442
0.48046875,0.029453608430207223,0.291034751252328
0.484375,-2.728368366999071,0.6187390837236952
0.48828125,0.35094816400498335,-1.452523260079322
0.4921875,-0.0422397476849719,0.8747641661359904
0.49609375,-1.8128465587988496,-0.2573123818129443
0.5,-1.5656757671899038,-0.5254480705052105
0.50390625,-0.09357378553438767,1.3246075795515908
0.5078125,-0.09182811383117567,-0.3552519148230188
0.51171875,1.236875486476735,-0.03899081729185141
0.515625,-0.08286419384159292,-0.7946860093533304
0.51953125,-0.1499244370000256,-1.3913956984340472
0.5234375,-0.7128219190232329,-0.6427946963249673
0.52734375,1.5085434436465306,0.6447222882719934
0.53125,-0.3439539396780445,0.9279925526459578
0.53515625,-0.07462179436500539,-0.19664695407645344
0.5390625,0.28180949284453466,1.5370554814483666
0.54296875,-0.6221165761839325,-1.109487433712184
0.546875,1.120828132111529,-0.8105247400431054
0.55078125,1.2168694093084167,0.7227960616275964
0.5546875,1.359711443479676,0.3758600913359414
0.55859375,0.8821655987499595,0.6575949365183169
0.5625,-0.5022150999848196,1.3078355418000835
0.56640625,0.7762176768962232,-0.7337566570030404
0.5703125,-0.6922092635008804,-1.261391556242115
0.57421875,-0.6504061434533156,0.3658236846913168
0.578125,0.2083289994644844,0.04343131623554748
0.58203125,0.18121591522617136,-0.5106870203436501
0.5859375,2.7686602584187265,0.06336268753760096
0.58984375,0.7513945611954121,-1.2070878909768863
0.59375,-0.28197460581485617,0.571914652768771
0.59765625,1.334717691550165,-0.7452096585851063
0.6015625,0.175421462859426,-1.3873141118949628
0.60546875,1.5758376049320968,-2.046654111357427
0.609375,0.051628207636001254,0.8211206365839663
0.61328125,0.009580794226588968,0.5147436368334436
0.6171875,-1.4704721019087201,-0.5744445207988277
0.62109375,-1.5507986224404493,-1.2746443932269216
0.625,-1.01838516072691,1.2643868800899178
0.62890625,0.6366385405474712,-0.5913204174622555
0.6328125,0.32127998301812316,1.1444806924880861
0.63671875,0.34237854084635666,0.8005584737735083
0.640625,-1.1292367336257578,-0.1309446580809594
0.64453125,0.13518221242789805,-0.1150051790950406
0.6484375,-1.2263922717925095,-2.86759538610776
0.65234375,-0.066554545796175,0.7861926620540676
0.65625,0.027793617389452088,-0.37646899067425976
0.66015625,-0.503274185043632,-0.2397168795587987
0.6640625,0.029439292906215105,-1.2726543265703418
0.66796875,-0.055444890913508835,-1.585633199372942
0.671875,-2.1026865981584644,-0.12009640813044749
0.67578125,-0.09453675294475934,-1.1482638755976626
0.6796875,-0.8772062442279709,0.4003072912216358
0.68359375,1.231924832421655,0.0006784010877236916
0.6875,0.1599912252192642,1.5125103952302967
0.69140625,1.1454961934433396,-0.4775121074543592
0.6953125,0.3576810023146183,-1.1483629044178791
0.69921875,-0.19638937390464,0.2201900894344981
0.703125,-0.1265614533960001,-0.4082196181654126
0.70703125,-0.6627614702977807,0.7965752133074517
0.7109375,-1.014067386200277,0.9690240573148919
0.71484375,0.7682301639208148,-0.45305013287790624
0.71875,-0.3027779886168065,-1.6816573639688028
0.72265625,0.2232319401805161,1.2436816095353218
0.7265625,0.7063199348549062,1.706127236604032
0.73046875,2.4826943579829903,0.2417256631165971
0.734375,0.5917354133748897,0.11550029042702545
0.73828125,1.5690839916715937,1.1707716844562694
0.7421875,-0.22315849967865914,-0.10179835308575803
0.74609375,-0.14414970610382286,1.6184722777517064
0.75,-1.2350263908580723,-0.41830435725816567
0.75390625,0.15226008782026024,1.7909026160114372
0.7578125,2.2073706574103733,2.256042875668654
0.76171875,-1.3900352798908557,-1.9560791983488055
0.765625,2.6194341751261105,1.946607568603508
0.76953125,-1.6005663433075643,-0.10177826180075568
0.7734375,-0.3878212339820456,-0.2182180554537404
0.77734375,-0.858754557338155,0.8490381689475287
0.78125,-0.37906489762799467,0.7215119095115243
0.78515625,-0.31869261419717526,1.9781188012823179
0.7890625,-0.30116227348808033,-1.035349164656389
0.79296875,1.2023954726501684,-0.23360272559767675
0.796875,-1.7364064947054934,1.0566077955839623
0.80078125,1.4180733157917103,0.9171879210655505
0.8046875,-0.5210158190314397,-0.2865478252825261
0.80859375,-0.8097059905053301,-2.0333939234758933
0.8125,1.0613213697740085,-0.4434945340573322
0.81640625,1.8127990360747392,-0.36991091657779984
0.8203125,-1.080513750563863,-1.2655034217838286
0.82421875,-0.8328077252278947,1.8407773026485421
0.828125,-1.3333277414033256,1.3810491140518844
0.83203125,0.5786458122974808,0.9858842823997119
0.8359375,-1.5891346889793947,-0.01682811409448379
0.83984375,0.7323741621980497,0.672904948073114
0.84375,0.7563700924317259,-1.822214151574432
0.84765625,0.07892454174020594,-0.32473135331566116
0.8515625,-0.5449331389340084,-0.13091872616011369
0.85546875,-1.301957768583683,-1.5841662752248993
0.859375,-1.4564103004508615,0.09356564918469151
0.86328125,0.5993574754873676,-1.0591066465802301
0.8671875,-1.523735718955274,0.7414005541239371
0.87109375,-0.5398820967015503,0.781797406207653
0.875,0.15946986571411864,0.5903061305464988
0.87890625,0.45439603192560873,-1.7732032001221238
0.8828125,0.8527342771644134,0.5360289959722889
0.88671875,-0.47993625281000984,-1.6461864580336822
0.890625,-0.01563625967876971,-0.39246394459771977
0.89453125,-1.2257811719250544,-0.19455198441618354
0.8984375,-1.1510826057665522,-0.013145359951212725
0.90234375,-0.16054285901974225,1.0287140123229495
0.90625,1.322056858338615,-1.818903777446303
0.91015625,-0.5217916852747411,0.03761517325699193
0.9140625,1.285616253096466,1.1431658043505266
0.91796875,-0.10324832125885994,2.0747930851677974
0.921875,-0.20867739270633517,-0.8987918905049065
0.92578125,0.947807792134157,1.0089115424692963
0.9296875,0.30513338700489107,-1.3049265287767318
0.93359375,1.257467554231551,0.5908445980572519
0.9375,-0.48867928434608127,-2.243778411742442
0.94140625,-1.58118951972597,0.9641973273029918
0.9453125,-1.0318026160401763,0.8693860850637095
0.94921875,-1.7129016026449124,-1.3302360948167449
0.953125,-1.1304648012830596,1.6103548984153078
0.95703125,-0.2404422320264017,2.068635926437722
0.9609375,-1.0993774215124676,0.47327725283461203
0.96484375,-0.39721155731809904,0.4364391478687626
0.96875,0.7669573956062392,-1.0136639609017641
0.97265625,-0.8543292157701942,1.068686549919287
0.9765625,0.4470450244993932,0.3271312875191343
0.98046875,-1.3743813136971017,-0.016235566615042607
0.984375,0.1493602983768471,0.6796486623353835
0.98828125,0.3715604667559878,-1.722459421454569
0.9921875,-0.3018079589138755,0.5492026695382519
0.99609375,0.338158793373404,1.3232745685851055
1.0,-0.1559293806302463,0.9298114844619009
1.00390625,0.4939011338312726,1.881467185929132
1.0078125,-1.3179677979445281,-0.030094920926239246
1.01171875,-1.0514442452751307,0.883812111201084
1.015625,-0.8818043593719048,-0.1042775981277093
1.01953125,-0.8917456843377699,0.20416159363900105
1.0234375,0.9648143092625198,0.5299209220037049
1.02734375,1.0145652977544732,-0.21416714433776773
1.03125,0.097021816852914,0.2700067518937092
1.03515625,-1.9380630353142043,-0.4615199750050702
1.0390625,0.20655320630067336,0.5606706043695734
1.04296875,-0.6868659107883953,-1.0475980992746727
1.046875,0.22617806996691944,0.6545429136612063
1.05078125,-1.0824835863628988,-0.9195219832026809
1.0546875,-0.08662957166942359,-1.1490511014326312
1.05859375,0.6279219266293614,-0.631803742095766
1.0625,0.5080895643805007,0.03983702491068616
1.06640625,0.5463290977575457,0.15723222903607173
1.0703125,-0.19435979435702946,0.5159534040037037
1.07421875,-0.14982716108697136,-0.8201707951622853
1.078125,0.6301298142593719,0.056479246560276745
1.08203125,2.4974567304367286,-0.6612406459126448
1.0859375,0.029898125732390583,1.2412997819568394
1.08984375,-0.8818323940842213,-0.7089275356292233
1.09375,1.71240873562824,0.5175451242452902
1.09765625,1.453875225599664,-1.1453635794540662
1.1015625,0.25490993839122866,0.9089999252853624
1.10546875,-1.7364228382791937,-3.0426134128895077
1.109375,-0.5876421306303098,-0.6522560195121515
1.11328125,-0.45604690349350385,0.7114641472739873
1.1171875,0.5013819356488093,0.7639761727060009
1.12109375,-0.6513019201368554,0.1960364018757425
1.125,-0.5707435358633175,-1.3447159884801025
1.12890625,0.9713615387145146,-0.44651558579569783
1.1328125,0.7091575679571613,0.4034525297310491
1.13671875,-1.1670307478284696,2.0812887589038174
1.140625,0.7929551235638029,-0.995398282215006
1.14453125,-1.5182129241359048,-0.5605872640772175
1.1484375,1.4843452967424573,0.30548931033676685
1.15234375,0.13602714543953262,-0.12518589711011144
1.15625,0.4063169366618905,0.5638412155544614
1.16015625,-0.49469338613360675,0.7978210810006652
1.1640625,-0.815024106043104,-0.8453906260609664
1.16796875,0.4180279998160048,-1.4770745841273967
1.171875,-2.192889370280656,0.20343259610100525
1.17578125,-0.7976178834888467,0.42961283569842984
1.1796875,-1.4482444031613995,-0.19858180474397008
1.18359375,1.688209350054592,0.048766536214773885
1.1875,0.07575557843943033,-1.4092506083056437
1.19140625,0.33406269364042096,0.09102872710713214
1.1953125,-0.6095039987009492,-0.42088714506065616
1.19921875,-0.9505745391361129,-0.28435277000404274
1.203125,-0.3907707291671725,-1.380635111685714
1.20703125,-0.893876570295944,0.9619351274980898
1.2109375,-0.0972395899741033,-0.900071506082051
1.21484375,-1.3413509514508268,0.0266613743731883
1.21875,-1.0352676100916889,0.6494994945496977
1.22265625,-0.6543134505242008,-0.9793205838147732
1.2265625,-0.7679462403958555,0.7472212039173354
1.23046875,-1.525486260919223,-1.9221983580360313
1.234375,0.916731717600012,1.0747144402615914
1.23828125,-0.45913835527750163,0.004801397357499912
1.2421875,0.6332695198535109,0.17115535851271255
1.24609375,-1.8008230133919054,0.8500811959650473
1.25,1.4500501713484029,0.5102298829298865
1.25390625,-0.5666718688594986,1.4628922989388526
1.2578125,1.5869395254194418,-0.13616518167966504
1.26171875,-1.1855662980969262,0.5117075393834931
1.265625,1.3624545172033173,0.3005223940720524
1.26953125,0.07456451381924648,-0.18741281647946528
1.2734375,-0.791338573731448,0.5388467073819828
1.27734375,-0.8483617818103057,1.8587932561436518
1.28125,-3.301514185354619,0.46550668194816974
1.28515625,-0.03290337671726253,-1.4526660769316797
1.2890625,-0.2631251968191383,0.3522828991169862
1.29296875,-0.13342859299847276,0.29962742517336516
1.296875,-2.0894379350937275,-0.3480998733336659
1.30078125,-2.160582781349259,1.387755029243266
1.3046875,-2.966669227198497,0.29451510402896247
1.30859375,-0.1755041803754317,-0.6250387308079303
1.3125,0.23611135686075257,-0.8307446549703327
1.31640625,0.8509937554961439,-0.21538868852732376
1.3203125,-1.0832405415136699,1.4078838200874897
1.32421875,0.6448268492447994,-1.1081009775066237
1.328125,1.485980305333199,-0.502556312505481
1.33203125,-0.8601163399665978,-0.5875477839969282
1.3359375,1.0040543166260192,0.8419000579306947
1.33984375,-0.09204025762883246,0.21397033569188173
1.34375,-0.7545798261702799,-1.6195821260561725
1.34765625,-0.7013378636314082,-1.5921661710266946
1.3515625,1.628616989031042,0.8809970260845944
1.35546875,-0.8000858207650748,0.6183330789789417
1.359375,-0.43716889035646606,0.19394816045862995
1.36328125,1.0001424188164783,0.28851201821876515
1.3671875,1.9952356603323445,0.07448926570828912
1.37109375,0.34728623190957103,-0.20372409327635363
1.375,-0.4052259221849121,-0.962890939195227
1.37890625,0.8690193046686578,-0.1973544784784094
1.3828125,-0.550371166623889,1.5357435875100498
1.38671875,0.9696285429076051,1.1096244344133122
1.390625,0.8077653572615323,0.5747662159654889
1.39453125,1.3427798252439014,-0.6258756021688834
1.3984375,0.4384034442408498,-0.4466556291920297
1.40234375,-0.6929489879514332,-0.48719189233840116
1.40625,-1.3375390645696845,-0.18193732590860628
1.41015625,1.6984694283048423,0.5082691289718425
1.4140625,0.26259520701015737,-0.33029318935262475
1.41796875,1.0783087540504046,1.0254798547986859
1.421875,0.7779399560448979,0.45904283985893446
1.42578125,0.3533500246720362,-1.0516912174912318
1.4296875,-1.3112981819974772,0.6871943996186416
1.43359375,-0.5849802656206711,-0.6109838664827506
1.4375,-0.3786776966862322,0.24720121310220844
1.44140625,0.9988271658870118,0.43600575210553605
1.4453125,-1.0960059361389518,-1.8348199216082244
1.44921875,-0.9352978146732642,-0.6810653153011104
1.453125,-0.8031524173363315,-1.5154766739399652
1.45703125,-0.6774491863488659,0.14315016899319324
1.4609375,-1.5411347930324586,0.21194986594476906
1.46484375,1.0804626661476266,-0.03729065863076714
1.46875,1.4910176121249323,1.9759262078493645
1.47265625,-1.1347568249909215,1.1484928661382472
1.4765625,-2.6770694068219814,-1.785868081121163
1.48046875,0.075483580034937,0.48437554333329913
1.484375,0.2501750125709954,-1.2654558009790686
1.48828125,0.37561897852541115,-0.9241339065722954
1.4921875,-1.6536462297756587,-0.8610083873245122
1.49609375,0.36505569192910853,-0.8237202119306586
1.5,-0.6213043327928348,-0.3787901944464137
1.50390625,-0.1381624179934072,-1.8414277705735071
1.5078125,0.30346269694984057,0.13916308658213447
1.51171875,-1.519986209767012,-0.6327255978136141
1.515625,-0.17298140600016199,0.45513604613131214
1.51953125,0.7939769448925302,0.27829339879480014
1.5234375,-1.284847946943751,1.380096227176675
1.52734375,-2.0635443976172723,-0.6776883871651259
1.53125,1.2745972527407259,0.503287976817292
1.53515625,1.2165540267017898,0.5577396237368913
1.5390625,1.0041250464157545,-0.22740910962618846
1.54296875,1.6850471070719786,-0.7290945182044979
1.546875,1.1905298957437584,-0.3859675043059372
1.55078125,1.287631109158749,-0.2752074659664817
1.5546875,0.3445345336829807,0.7011184459196915
1.55859375,-0.35660315694169725,-0.4257432189585503
1.5625,0.5050635629738325,1.03433131710618
1.56640625,0.5782209933862035,0.324780386627039
1.5703125,0.06565804096433113,-0.7220887892714521
1.57421875,0.1347348979541879,-0.675932145416883
1.578125,-0.03369363578985216,-0.3079436373079039
1.58203125,-0.0986356901175331,-1.6287040497279066
1.5859375,1.439610907012316,0.8530595659223379
1.58984375,0.5475923573803522,-2.5412001808598905
1.59375,-1.6743450559212452,-1.9251444319500435
1.59765625,-1.020065328754112,-0.2835199643695089
1.6015625,0.3789863674447739,0.3100025502667326
1.60546875,-1.5129400492234488,-0.49183278143122405
1.609375,-1.2731226808351122,0.017786915485141545
1.61328125,1.5137378943175694,-0.8303839176724115
1.6171875,1.2781831653117663,0.8898502836899305
1.62109375,0.20231238206404648,-0.32297965166754755
1.625,-0.8503181515922255,-1.387221691385956
1.62890625,-1.1251536516773601,-0.19593940513205835
1.6328125,-0.8066421089385434,0.21651683946346398
1.63671875,0.9041277675163177,-0.2726487114912535
1.640625,-0.6130147126395916,-0.12147669663610447
1.64453125,0.71823899889458,1.0810171805489637
1.6484375,-0.11421343344269502,-0.5873809199348284
1.65234375,-1.9495072648599303,0.26638945813218823
1.65625,0.3851380744251336,0.5957061561024899
1.66015625,-0.04438662296649723,1.1659641280028294
1.6640625,-0.4600894034277304,1.8565771919129093
1.66796875,-0.3973660233063595,0.8432227082628334
1.671875,-0.993029079491148,1.1544642645546546
1.67578125,0.21303435745312888,0.9373662515729938
1.6796875,-1.7822141041178095,-0.4162348880265154
1.68359375,0.8743500272417486,0.8405989548375992
1.6875,1.5405940765294512,0.31420576572458614
1.69140625,0.3774957277610359,-2.6012240258363724
1.6953125,0.11878784000321015,-0.47617248354949715
1.69921875,0.6475842459080069,0.19524723013957718
1.703125,-1.560579965008411,-1.048099285014506
1.70703125,0.4354078475165314,-0.5650439677937161
1.7109375,0.6478857676206133,-1.2424536368995263
1.71484375,0.49313946184425267,0.7425361436791319
1.71875,-0.7248687366674981,0.2226148539617278
1.72265625,-0.7973258136567534,-0.7345111437493422
1.7265625,-0.33987468734166454,0.1727653469908809
1.73046875,-0.8171167544141549,-0.21640026890636258
1.734375,1.155028463637439,0.8898659945848916
1.73828125,-0.26434075895211306,1.476571914754945
1.7421875,-0.8741672953897837,0.03711051144236278
1.74609375,-0.8304654856412258,-0.8367148347629901
1.75,1.5516417527320192,-0.9229127617878479
1.75390625,-1.9647144332797293,-0.8576741757526419
1.7578125,-1.0870412142203052,-0.2580312465208234
1.76171875,-0.1549323836881253,-1.135060186965131
1.765625,-0.51642378305554,1.8034779138029493
1.76953125,-0.05860206855521353,0.4107076169120919
1.7734375,1.2710041592704575,0.36809868090866527
1.77734375,-0.9051002684089591,-0.14800921007134815
1.78125,-1.2224098343013077,0.19149677858474623
1.78515625,1.6334664060018158,-1.6046960721234484
1.7890625,3.095547415789063,-0.909206728166791
1.79296875,1.262243367215848,-1.0962161738669773
1.796875,1.3901783893003354,-0.008885802923296401
1.80078125,0.6921319366279798,0.36130167759237386
1.8046875,-0.3583192744947814,2.074166306179399
1.80859375,0.4966411030032229,1.21467426409874
1.8125,0.4505035220542295,0.3729603848695565
1.81640625,0.2940053092762728,-0.11320085854626456
1.8203125,-0.1984588204423943,0.6687195073995688
1.82421875,3.343016073609695,-0.7668729438207591
1.828125,1.1581844517637148,-1.912573564388874
1.83203125,-1.4074064814912612,-0.5442897148906073
1.8359375,-0.8297253094618989,-0.08260796937975691
1.83984375,-0.2599219178066834,-0.12019343395059179
1.84375,0.4526090757834235,0.6360207506638679
1.84765625,-1.2007111527812016,1.1560730384090614
1.8515625,2.9525777084716824,2.3985688151289013
1.85546875,-2.199577571519966,-1.6987969246315315
1.859375,0.06614043516950527,0.7177567183862684
1.86328125,0.6474597004794905,-1.1377427873694024
1.8671875,-0.3962351063523063,-0.7370953273672383
1.87109375,-1.029771522877004,-1.1576804412389865
1.875,-0.3425863989496028,-0.797900456402913
1.87890625,-0.735560590739844,0.18450340812827326
1.8828125,1.7885903415557336,0.6241381146637165
1.88671875,-0.9915104610536118,-0.662651715220634
1.890625,-1.348817224421859,-0.5363292396285584
1.89453125,-2.1944582415639924,0.8387842082588235
1.8984375,-1.4421828584050649,1.0841269729159237
1.90234375,-1.1202344757548557,0.17771718278598023
1.90625,-1.8876968665268485,1.2460322063653615
1.91015625,0.8280211302199064,-1.349081631184493
1.9140625,1.5083563378079419,-0.4347586644517735
1.91796875,1.1624214756733935,-0.76153651174082
1.921875,0.8292559956018991,0.8136184035768137
1.92578125,0.8061613029633483,-1.2316477428585624
1.9296875,-0.28192592881916934,0.04850167455002051
1.93359375,-0.05209071806926991,-1.1436621692350715
1.9375,0.43921485442187885,-0.39464112954314945
1.94140625,1.1267454056469681,0.14303845449093025
1.9453125,1.466671619844511,0.7391166090995984
1.94921875,0.7475081193189286,-0.18875969317552443
1.953125,0.09741782009363013,-1.4102763691915206
1.95703125,-1.7358981473087205,0.32114213074535686
1.9609375,0.6467715479655726,-0.3801072386030481
1.96484375,0.5422371592770877,-1.0208464496045393
1.96875,-1.2807549869761046,-0.9911760204502397
1.97265625,-0.5465367918999846,0.430294519593682
1.9765625,0.9127241603894009,-0.324506270661128
1.98046875,0.32830769331403703,0.7243418245275985
1.984375,0.3518508659170024,0.7174899426787145
1.98828125,-0.012605432477176333,-1.849886564011516
1.9921875,-0.5531206282548085,-1.2076824485443551
1.99609375,0.3794416403170698,-0.7018516929751617
2.0,-0.990701277418012,0.8674857410972686
2.00390625,-0.9212217373590585,-0.26104678112709734
2.0078125,-0.17081741577422976,-0.41537518941833357
2.01171875,-0.9084702149149902,2.0694858720918043
2.015625,0.7963119845058909,0.34049357527301144
2.01953125,0.569528895018588,-1.727426814919805
2.0234375,2.264208999867255,-0.8285359600242231
2.02734375,0.5101570826594795,0.6288046541936607
2.03125,-0.4227424258436109,-0.47998837597285565
2.03515625,-0.044130671472709056,-1.8383041863422287
2.0390625,2.6643719655287663,-0.7640677566337056
2.04296875,-0.7256977622848051,-0.07552652927996076
2.046875,0.14666878123875499,-1.4690296196590504
2.05078125,0.12402463293239037,-0.44690841873150366
2.0546875,-1.142299071989391,-0.08809598733474411
2.05859375,0.29048950481678226,0.00282088906219562
2.0625,0.6931577604840499,0.26162021248929695
2.06640625,-1.6898368104533648,0.5776359928966162
2.0703125,0.11385351023490427,1.3543936833973163
2.07421875,-0.2622564767845161,0.2894463226123979
2.078125,1.3082773264238405,-1.436457982727033
2.08203125,0.43440119734903654,-1.968342837170111
2.0859375,0.22114435639628513,0.54077083544426
2.08984375,0.19620087591611984,2.099772773969177
2.09375,-1.0172532144694348,-1.0761775944152174
2.09765625,-0.6429533419936059,1.6902543244686676
2.1015625,2.175163825435933,0.9665162564512421
2.10546875,-0.04202196035667584,0.017721497144222557
2.109375,-0.9983576768544766,-0.511064786654564
2.11328125,-0.04805296158154896,-0.8112694608522403
2.1171875,-0.48885502103668366,-0.3768969880648644
2.12109375,-0.30907959955694814,-0.9197308464689016
2.125,-1.3777780227553051,-0.03853741469842491
2.12890625,0.7531436230131207,-1.0397562496698418
2.1328125,0.7218979679050229,0.7645299765476689
2.13671875,2.650483039046686,1.911063115233716
2.140625,0.9023450307217326,-1.1502680664352525
2.14453125,-1.2158139606423708,-1.0330308746640757
2.1484375,0.06441931046917064,-1.2520658189896192
2.15234375,0.5638855810886039,0.6136908795204042
2.15625,0.6093152313504647,1.7271015416864084
2.16015625,0.2534833064043912,-0.3002662478513067
2.1640625,-1.838488127804477,-0.46146088969512034
2.16796875,-0.55215476366893,-0.18037654146458976
2.171875,0.5294002023028839,-0.8089511804239063
2.17578125,1.160387303043386,0.9641009608469866
2.1796875,2.275416903652201,-1.1132225689956907
2.18359375,-0.3084701439629149,-0.6310911569144784
2.1875,-1.8736710222427848,1.6335718305509659
2.19140625,0.26962736616448,-0.8668889002249063
2.1953125,0.49406557080125196,1.2848991036795099
2.19921875,2.4747812070743227,-0.5903388578447795
2.203125,-1.2784105215865393,-1.61450404532584
2.20703125,-0.42526251590088504,0.6541839756011015
2.2109375,-0.9003389192306606,1.0852752310420712
2.21484375,1.1238653310637359,-0.6446518377584083
2.21875,-2.193155823547106,0.10216394479617229
2.22265625,1.125914545974983,-0.6862341656921
2.2265625,-1.02315644929806,-0.6401384856622446
2.23046875,0.7334718780412572,-1.2947751395807676
2.234375,-1.5903877381911669,1.4578988322494708
2.23828125,0.06286928300675398,-0.5180964754932097
2.2421875,-0.31480114479667387,-1.050426925237607
2.24609375,0.6984265837689868,1.8652973292618378
2.25,0.21150041365951233,2.3047233382793104
2.25390625,1.4952040452441606,-1.3723265602417962
2.2578125,0.14827024959030954,-0.517858850850049
2.26171875,-0.14749851327633187,0.801105717346067
2.265625,-0.3849586165464154,-0.9622812947206353
2.26953125,-1.3989094617359548,-2.4131348521457605
2.2734375,-0.3195805992180388,-0.8107135293789992
2.27734375,-0.31081584592491607,0.2918649388499872
2.28125,1.2635280229852377,-0.5092467597245333
2.28515625,0.31485157483935844,0.2933849972469243
2.2890625,0.463388465497692,0.5260680596775263
2.29296875,-0.8929120972128355,0.5001080701565529
2.296875,0.09744710774142472,1.1123281656610327
2.30078125,-1.3057911565943985,-0.21262408207046424
2.3046875,-0.3704327239557649,0.307508253349479
2.30859375,-0.7497027649796753,-0.9424159046091297
2.3125,-0.5504213657116456,0.5031434140213962
2.31640625,1.6411440518565699,1.2135947420364355
2.3203125,-1.211920027102458,0.13088023764427353
2.32421875,-0.8071777054580107,-0.3354675105157478
2.328125,0.11260763197716075,0.148708982354211
2.33203125,1.3329934207131187,0.4385786473798908
2.3359375,-3.132614213950894,-0.24122647096110295
2.33984375,0.15119929546468427,0.9914457350540664
2.34375,1.1965324267340758,1.5303764153520003
2.34765625,0.6832891155908647,0.9120615665555889
2.3515625,0.08052350117501214,0.10517720286278762
2.35546875,0.9019599075283236,2.737087799778727
2.359375,-0.5444102175963701,-0.7107490377603543
2.36328125,2.1811129039508903,0.4253563605674157
2.3671875,-1.1946814324174733,-0.17589471942268603
2.37109375,0.9576890878670197,-1.2348236786521865
2.375,-0.46854851076598786,1.83074886239374
2.37890625,-1.2171523089401377,-0.5688795894024427
2.3828125,0.9102932958468735,-1.402672288376344
2.38671875,0.0014815562493634446,-0.028687524008163007
2.390625,1.4281559908088655,-0.31686605175234706
2.39453125,1.2517661187343208,0.18960982460770695
2.3984375,-1.141189172196982,-0.36182745293202584
2.40234375,-1.3921446453584203,-1.0010475379054242
2.40625,0.6788030324868972,0.7864119268220248
2.41015625,0.3829670383948024,-0.12470200093750844
2.4140625,0.47229081492344205,-1.4426312044860736
2.41796875,1.006336155971192,1.104123426234839
2.421875,0.7664967347376777,0.051191760988671446
2.42578125,1.7460987884312686,1.674549213440191
2.4296875,-1.1929738161147436,0.47889855383491003
2.43359375,1.4595119474232865,-0.0025546759309667847
2.4375,-1.1406086552976942,-0.9489429348058682
2.44140625,-2.0063707821023558,-1.0989937387882798
2.4453125,1.2217285253600465,0.11950444332892328
2.44921875,0.219284743622409,0.5025795621212655
2.453125,1.5139148819196666,-1.2529910226353536
2.45703125,1.5658518058298638,1.469628227016191
2.4609375,-1.4769487337791074,-0.5406546092077837
2.46484375,0.6133066542477341,1.7578855580514894
2.46875,-1.0845268015488054,1.675632517348839
2.47265625,0.18872823811439246,1.0784996907267332
2.4765625,-1.5361508159958863,-0.8491970340319897
2.48046875,0.4314969762783346,1.7904124297658146
2.484375,-0.27396116164821205,0.8335920908071299
2.48828125,0.4048102480469289,-0.5684117575033535
2.4921875,0.503524907753741,0.6379186815984313
2.49609375,-0.5341475182183546,0.08058489002355756
2.5,0.894732009992971,1.2719327644373868
2.50390625,1.1159509396435519,-1.6638976530349625
2.5078125,-0.7283898397481412,-1.6124702086050235
2.51171875,2.0026296216625528,0.03677577020986026
2.515625,0.6745056881640671,0.26993331270478593
2.51953125,0.7036610808887032,0.42140550021747114
2.5234375,-1.4814822728305086,-0.2586211479829422
2.52734375,0.5081593418501013,0.47257342564343724
2.53125,1.5866920313415953,0.8449917741127523
2.53515625,0.27392111046341217,-2.055451980283096
2.5390625,1.8022627503554063,0.6058808299422567
2.54296875,0.053682557097196014,0.7781421574745355
2.546875,-0.18657529927324118,-1.3523859975365475
2.55078125,0.7191582509346036,-1.4139131166376406
2.5546875,1.330584815818978,0.1194212016859319
2.55859375,-1.5035706690067998,0.9502675589736616
2.5625,1.264188225248821,0.0427834277274403
2.56640625,-0.7795185904822997,0.4948721893103859
2.5703125,-0.7006415175127906,-0.6800654195390399
2.57421875,1.6178282469670136,-0.9848731547755649
2.578125,0.9572576363501767,0.6766315187895218
2.58203125,-0.2962111785975471,-0.6889849126989818
2.5859375,0.1444476193642688,0.6534572835132287
2.58984375,-0.881494541142796,0.7954522920456847
2.59375,0.20779947232205087,2.7960199825136653
2.59765625,0.8956034233809211,-0.8608924567888442
2.6015625,0.4631791726180557,-0.371921713267007
2.60546875,0.1047044548501361,0.44178097092310825
2.609375,1.011753038290152,-0.7258925473813413
2.61328125,-1.6468044299189615,1.0030182268701
2.6171875,-0.9354236528222233,-1.0184285102534079
2.62109375,0.7883269368765801,0.21988722663848168
2.625,-0.9452485502021734,0.17742753353640606
2.62890625,0.3576610571641938,-0.005679485797917055
2.6328125,0.37726237590813083,-0.26970023359099293
2.63671875,0.9384945818773749,-0.22468639866779452
2.640625,0.3948103228474071,-0.500309767372759
2.64453125,-0.964549295734976,2.741902514699409
2.6484375,-0.06618015195726613,0.1546448878726818
2.65234375,1.2651893602815933,0.15852118438227436
2.65625,-0.2905170124078862,-0.028641465440123807
2.66015625,0.23053604533564223,-1.7489979029824732
2.6640625,1.1376400336756478,0.5701215576018542
2.66796875,-1.6065828007555059,0.4634812525020392
2.671875,0.7744591693940933,-2.853729376704333
2.67578125,0.3525098244214105,-0.26888859011471544
2.6796875,-1.5315995494704269,-0.40211973069639184
2.68359375,0.8042175431817764,0.3940055834514574
2.6875,0.3181557970671845,-1.0436330744278304
2.69140625,-0.4854269862669731,-1.4338958582755075
2.6953125,1.0295515586633324,-0.7759372538394269
2.69921875,-1.207590225472528,1.0213477102692037
2.703125,1.003896795142807,0.566643312287087
2.70703125,0.3009333264757754,0.006644310674155162
2.7109375,-0.46221923705253476,0.6919260888066252
2.71484375,-0.670620277533175,0.3702587260307447
2.71875,-0.4739821413534128,0.11120109902646089
2.72265625,-0.6651931095122633,-1.4854376740464275
2.7265625,0.8556781897164975,-0.71188232379387
2.73046875,1.0525239446567445,-1.1095304161559882
2.734375,-0.7889762793431511,1.7908713047242195
2.73828125,1.452261613083772,0.6428950281911677
2.7421875,0.012256095107531104,-1.2215825095880442
2.74609375,-0.023183948630455666,-1.2931329358626473
2.75,-0.17490554482769274,-1.4641543735889218
2.75390625,1.0397418466799033,0.710113015801612
2.7578125,0.15570804192559845,1.2058001263362317
2.76171875,0.8694738426318024,-0.5343650310493493
2.765625,-0.09014198065883726,-0.4723956785544634
2.76953125,0.33133913335254156,0.6001633448941132
2.7734375,-0.28829964703794675,0.8643554510810876
2.77734375,-0.5000388774262209,1.1398640058236116
2.78125,-1.7485977899913059,1.2425089055018923
2.78515625,0.8698407054929491,-1.1736237427457075
2.7890625,0.5350691233533856,0.18438056538545972
2.79296875,-0.6742592821003616,-0.013660592300663188
2.796875,1.2037364274461393,-0.7244134784912574
2.80078125,0.286543496824277,-0.6838191117711424
2.8046875,1.2686022604105751,0.03186229524867362
2.80859375,-0.8955162573508081,0.6586902512895019
2.8125,-0.05199491434380168,0.9965566250826347
2.81640625,-1.0618609391707468,1.4952399152884515
2.8203125,-2.0908419389619386,-0.33594283825144766
2.82421875,-0.1838809072978911,1.5655520742084188
2.828125,0.2609302519438719,-0.7333661308923016
2.83203125,-0.4017913697045277,0.31930448288698904
2.8359375,-0.003781563951977163,1.6111554061386821
2.83984375,0.8990825826157215,0.046591419611951373
2.84375,-1.1915150049607939,-1.685555096566245
2.84765625,0.4223387169452392,-0.7485639578474992
2.8515625,0.6866184249358763,-1.5244552779967195
2.85546875,-0.7374949511953967,-0.015322192770137582
2.859375,1.0305283621520593,-0.0023543260244110764
2.86328125,0.30286088246642856,1.6838245434963979
2.8671875,-0.4896598703262882,-0.47401259773914123
2.87109375,-1.443415635545211,-0.3268940461107821
2.875,-1.1699526756241745,-1.588157048011123
2.87890625,-0.14328863049304827,1.0516131311895198
2.8828125,0.7216279525175943,-0.9800127105485789
2.88671875,1.3181283227438763,-0.6572154971627705
2.890625,-0.24512558820757682,1.1285604916387377
2.89453125,-0.9634443012929459,1.0920615856058116
2.8984375,0.07700997777469189,-1.5973973817722444
2.90234375,-2.103096280894293,-0.05578121140334884
2.90625,-1.0684797089626084,0.34400737360135764
2.91015625,-0.3361582903439138,-0.9060480004365699
2.9140625,1.121337861170801,-1.4451542473489745
2.91796875,-0.9039035815108442,0.46641160311529645
2.921875,2.5773821106957495,0.8668785127114583
2.92578125,1.1335225584989448,0.7534179615459161
2.9296875,0.36150196599754053,0.03592365754792702
2.93359375,-1.6943900232380116,-2.0779179417137636
2.9375,-1.339855983705784,0.11916631012687379
2.94140625,0.3961199927990818,1.3768989175979174
2.9453125,-1.4876720183599974,1.578594785136408
2.94921875,-0.030150491588168796,-0.46089391668497864
2.953125,1.591576048657772,-0.37021954154166403
2.95703125,0.511148465682951,1.6761490113737367
2.9609375,-0.3932971772833006,-0.16362730547185617
2.96484375,0.291598469350196,-1.377023150568106
2.96875,0.6872179348878075,2.1421157418831784
2.97265625,0.7924333505882666,-1.09944468131744
2.9765625,-0.731202218365808,-0.3093444515632664
2.98046875,0.8773995433224708,0.6949367010174896
2.984375,-0.763486982318737,-1.1985520027721166
2.98828125,0.468958017179954,1.2925050556476378
2.9921875,0.41367040456459236,-1.0146438612894009
2.99609375,0.6362009807174019,-1.8213506107331412
3.0,-0.8046424148205608,-0.3001149045055724
3.00390625,-0.5034281869826023,1.393590539098052
3.0078125,-1.2205950360328397,-1.1992103392189424
3.01171875,1.7717312730868986,-0.2030563019483963
3.015625,-1.0128153517722016,-0.5431864529244346
3.01953125,1.4529766259388772,0.880350084274862
3.0234375,1.0051879123829395,0.4132152877053933
3.02734375,2.1123136559312226,0.6106192507924394
3.03125,0.10646051638101102,0.14112602973331506
3.03515625,-0.0634415412523122,2.1207684185054374
3.0390625,-1.9280423303855883,-0.0373054940090297
3.04296875,-1.1325673348942078,1.4968852023341475
3.046875,-1.0980288786030172,-0.4642708066746623
3.05078125,1.8001583422627445,0.8222902794496522
3.0546875,1.0461502468694805,1.0852499614137607
3.05859375,-1.3769957183134702,-0.9615670804633502
3.0625,1.2007918146342074,-0.26804140800118764
3.06640625,0.6603583490448154,-0.7818795661119116
3.0703125,-1.384660542064464,-0.7080562115373024
3.07421875,-0.07828834926154707,2.0379001335604805
3.078125,0.6151701682728457,0.09152965474221869
3.08203125,0.5450287163139841,-0.15312043865255334
3.0859375,0.9017944540294117,-0.4383696273176526
3.08984375,-0.26794822450809647,1.2118043487476773
3.09375,1.8936121088135496,-0.4045712955926858
3.09765625,0.28396724269723567,0.1482396073371218
3.1015625,0.8164886276021025,-0.6791455642509218
3.10546875,0.3171237081967466,0.2675028183749777
3.109375,-0.07387965881310425,0.8456977390134346
3.11328125,-0.08479688620655826,-0.017540736032032826
3.1171875,-0.18429623435432613,0.4370535508682963
3.12109375,0.0496844408877612,-1.3955795384897725
3.125,-0.8343940139701906,-0.5878832046788917
3.12890625,0.9377246618327485,1.4975367755988955
3.1328125,-2.3601970493059885,-0.17239210221187343
3.13671875,-0.0706346434987842,-0.5122419719195577
3.140625,0.2155810453127334,0.11681599250191496
3.14453125,-0.7011727929327536,0.5281346563756188
3.1484375,1.4308916594866126,-0.5716003917997665
3.15234375,0.8299191795767167,0.2936741219222562
3.15625,-0.2291080498403777,0.10100860936789274
3.16015625,-0.5199985410173713,1.5999424795196544
3.1640625,1.268948773264269,1.2307485602121178
3.16796875,0.5814777362743195,-0.399325030382769
3.171875,0.23447308283187046,0.17365514504444646
3.17578125,0.14398055132761017,-1.6910027575811126
3.1796875,-2.111230051570715,0.9569852499511211
3.18359375,-1.4571246884811377,0.2762114619998091
3.1875,-0.5637007430797012,0.1565878256062928
3.19140625,-1.821011006922416,-0.8391015221012174
3.1953125,0.9255683508564503,-0.10058947182277521
3.19921875,-1.7105660111139371,0.6944048051738281
3.203125,0.4835971792552653,-0.6315934504626946
3.20703125,-0.18455600276661044,-0.8830106922621457
3.2109375,-0.1594899830357951,-0.7958492217060611
3.21484375,3.1489824626794625,-0.24937113907776265
3.21875,-0.3119605664708819,0.11290071526551793
3.22265625,1.5453079482165526,-1.186785807092138
3.2265625,2.94603534754972,-0.1134203675002392
3.23046875,0.5750038908141938,0.2273193141640861
3.234375,-2.0729625924042834,0.06867179041317287
3.23828125,-0.09799240561851723,1.1821229584792157
3.2421875,-1.8376713347457359,0.8885176979969371
3.24609375,-0.1464859351859081,-0.8356004968301267
3.25,-0.26140221474466896,0.4756552153155734
3.25390625,0.4208106031963998,-0.9919987676239151
3.2578125,-0.10727393463949203,-0.22431025438591504
3.26171875,-0.004565332594179021,2.344534905010843
3.265625,-0.04362799889860757,-0.5727488684082204
3.26953125,0.08998549547700876,0.5764301774058718
3.2734375,1.6302856800106615,-0.450156235598951
3.27734375,-0.28814065440140685,1.6549114400799585
3.28125,1.0028044379454069,1.7761155372001547
3.28515625,-0.036458028837653506,-0.9595721745470925
3.2890625,-1.6358989633688914,-0.06729451563805962
3.29296875,-1.2395812110842725,-0.2462327503346557
3.296875,2.052710413357257,-1.1270142891935597
3.30078125,1.0551571292257118,1.4555401604896365
3.3046875,2.0757163536039225,-0.13179788153955743
3.30859375,-1.2561308541979523,0.5795015847858928
3.3125,-0.1611594625286179,0.04309077770109551
3.31640625,0.6872031900776524,-0.3572035998227014
3.3203125,0.950711003593193,-2.093039285731457
3.32421875,1.1502379669864287,1.2921201438496013
3.328125,0.5376045293218249,-0.14543945651039375
3.33203125,0.870671838152639,0.032678472214200796
3.3359375,-0.5295566220630807,-1.302799135812837
3.33984375,-0.7728914932126152,0.9596075473780492
3.34375,0.017967030373130258,-0.46982743842559227
3.34765625,-1.318610179194339,0.5487919355582632
3.3515625,-0.08178917569121488,-0.6816714218261488
3.35546875,0.640795489900205,0.6515891261059494
3.359375,-0.04861986105006216,-0.14136485919432476
3.36328125,0.6129434603092058,-0.6322117807762287
3.3671875,0.9109526883291962,0.4018468061150369
3.37109375,-0.7763305524771243,0.84707324797094
3.375,-1.2954434881028427,-1.006861902020587
3.37890625,0.6161906693008266,-0.3824358579669289
3.3828125,-1.6540510590141715,-0.2325478408578399
3.38671875,-0.06503188599813847,-1.66302472414994
3.390625,0.7008684919887496,-0.8982984595534074
3.39453125,0.1103664983940032,-1.352335467699313
3.3984375,-0.5786168214628586,0.922674741279138
3.40234375,1.0156007626733268,-0.32144387722094614
3.40625,1.2921693907943326,-0.8639565925422907
3.41015625,0.0661673039724835,-0.0798278053963996
3.4140625,-0.7495375531504211,-0.8557594069672677
3.41796875,-1.9723990802331632,1.0708623217673863
3.421875,0.9768610184964027,-0.4248291452371036
3.42578125,1.4259763258931022,0.9851484055256327
3.4296875,0.9605360186148171,-2.4698905177611423
3.43359375,0.07481369599562623,2.021299748891226
3.4375,0.487859580462739,-0.6013932068751755
3.44140625,-0.6288545257484798,-1.2691533987828527
3.4453125,-0.5592104939250229,0.1022073263046999
3.44921875,-0.1930975818320684,-0.7645877090279484
3.453125,0.17659570096610655,0.5216753838789031
3.45703125,-1.061727263433219,2.0051736086746876
3.4609375,-2.682098910117675,-0.36237553112436205
3.46484375,0.2370371748329372,1.0052213417943112
3.46875,-0.5656754738933818,0.9023796729422106
3.47265625,1.3685153601016038,-0.27948560933191885
3.4765625,-1.0307599247473944,-0.6669361123101019
3.48046875,0.2468478886909875,1.8077359038305414
3.484375,-0.3459129851881691,1.3827765884911212
3.48828125,0.5150204351118179,0.43217961886076156
3.4921875,0.9043785036323642,-0.6697624949055374
3.49609375,0.3870817567011541,0.9577317594891617
3.5,-1.970200741701532,0.14949782498027822
3.50390625,-0.9402958558536989,1.5365549658988624
3.5078125,-0.85818014518739,0.19555524833758153
3.51171875,-1.8315836982041753,-1.2299215491153106
3.515625,-0.4921999622616711,-0.7073089587735161
3.51953125,1.3974024560873026,-0.37073279547194715
3.5234375,0.052084047620078656,1.6203446769593772
3.52734375,0.1642869283998428,-0.8404419101651669
3.53125,-0.5245630277304624,0.4140189064262385
3.53515625,-0.7564319916702921,-0.8870195760849738
3.5390625,1.984634914031729,0.13606109569288982
3.54296875,1.000331678962133,1.3569053794015995
3.546875,-0.37655056339600645,-1.3592251084496954
3.55078125,0.4010746212859947,-0.8317868953933322
3.5546875,-0.06950812231510912,0.14231726394882613
3.55859375,-1.273559070975687,0.6883853642584132
3.5625,1.2195806375718652,0.29008308933208027
3.56640625,1.1767675301631801,0.21581423940337593
3.5703125,-0.9958593069039442,1.8059852275457393
3.57421875,0.1210479578093801,1.1073454499245894
3.578125,-1.1993821215323417,-0.021364163016740854
3.58203125,-0.3202680535805442,1.135510755521545
3.5859375,-1.5000818115437913,-0.427074846049523
3.58984375,0.465445816258966,-0.3765610831380574
3.59375,-0.02671509674735008,0.5035013437427038
3.59765625,-0.5987513331738107,-0.0679443634641594
3.6015625,-0.555721635905447,1.1998086484674775
3.60546875,0.3559051092260406,-0.14178199483915765
3.609375,-0.014228562392325448,0.018195496358433472
3.61328125,0.9807323989409222,0.01876891577275241
3.6171875,-0.6667072031631484,-1.7969392548629344
3.62109375,0.6026973659561788,0.656623382300241
3.625,1.078571610883918,0.14301437366442893
3.62890625,0.0696570214732899,1.862232154043812
3.6328125,1.3933197684499308,1.5386285906482475
3.63671875,-1.926684997194445,0.9753253739177117
3.640625,-0.8015661969882495,-1.2714548765494753
3.64453125,-1.7936004452490815,1.3534357437612232
3.6484375,0.05690701343612747,1.3915106373908457
3.65234375,-1.8466191101095386,0.6026701133929694
3.65625,-0.3107559004260444,-0.9582628792276369
3.66015625,-0.502827350149972,-0.08357699774708535
3.6640625,-1.631836872139107,1.4659124959849557
3.66796875,-0.0765177650558279,-0.7944398021304933
3.671875,-0.850279789246462,0.6027942364833678
3.67578125,-0.3231044961057346,1.4944219294022585
3.6796875,-0.9002636065848543,-0.41006916246269104
3.68359375,0.44260514464266026,1.6506495748255425
3.6875,-0.31096674007082103,-0.45930008075551476
3.69140625,-0.3652134013971368,0.6415878047959294
3.6953125,-0.8386697971667612,0.04677960216334687
3.69921875,0.6053773078219287,1.4553157041479354
3.703125,1.2266825237395818,2.7053279928689253
3.70703125,0.34855172880865815,0.06840559174813601
3.7109375,0.4567468187227207,0.2027555333898612
3.71484375,0.5696420798336439,1.2367113421205245
3.71875,-0.8125648464009305,-0.5770655911332137
3.72265625,-0.05547873489440805,-0.2521737550282194
3.7265625,-0.49026592004232833,-0.43762463939312485
3.73046875,1.1055371825150009,-1.0643555038431078
3.734375,-1.2222653716370573,-0.49500970073367856
3.73828125,-2.17367321245041,0.3582476558293028
3.7421875,1.1833637130588508,1.4229416535441448
3.74609375,-0.2404396867766153,-0.7050121518807856
3.75,-0.9374030384564924,-2.298405148913688
3.75390625,0.4024504297602419,-1.3534652316794435
3.7578125,-0.03251591024650237,0.16021556832622544
3.76171875,0.47383833226267735,-0.8810072112221113
3.765625,0.9512356390059631,2.1239271001465823
3.76953125,2.2149090103681357,0.46320210584651766
3.7734375,0.8225788034551087,-0.14970493722044487
3.77734375,1.0339426764144513,-1.2940301990426926
3.78125,0.18627194392006818,1.6044052500197934
3.78515625,0.9394605539739711,-0.623247045531735
3.7890625,-1.847925474474395,0.09399256808098712
3.79296875,-2.1065146741276184,0.1386670755054323
3.796875,-2.8327712735009345,-0.5680739748693286
3.80078125,-0.47068087816192417,-0.2713003377056452
3.8046875,1.3100918530418328,-1.166598741153813
3.80859375,-0.24158968714787502,0.8021501295722192
3.8125,-0.854843220548847,-2.736227314778408
3.81640625,-1.4585050244045836,0.19631015288234135
3.8203125,0.14228857304550485,-0.1257280210218963
3.82421875,1.2817394196851413,0.4835357804315214
3.828125,-0.8155482965064614,1.0439726526463022
3.83203125,-1.3035121612336409,0.7074174137480451
3.8359375,0.4319860491615018,0.8081532055640938
3.83984375,-0.23577115540247745,-3.278120488400006
3.84375,0.032406689897212605,0.2420816026413196
3.84765625,0.4404750060591019,1.1911367520724985
3.8515625,0.15767926151801723,-0.1987639581236207
3.85546875,-0.08491680478833737,-0.7111634128827571
3.859375,-0.6483747271889486,0.7229357457472798
3.86328125,-1.6690384781952041,0.04669750845857217
3.8671875,-1.3177895641379633,-0.753784408316044
3.87109375,-2.3752927546722393,-0.9611445191258972
3.875,0.2826004343628145,-0.26112874964399113
3.87890625,-0.33961812269092395,0.04398140737015695
3.8828125,0.6473649235487866,-0.887888388508229
3.88671875,-0.7573475870419402,2.2311272033471923
3.890625,1.4822772422611714,-0.5272290601755409
3.89453125,0.46127854422168196,-0.35569029930355295
3.8984375,0.15914306567665448,0.36593393194316415
3.90234375,-0.6419884641570126,-0.5670129025102976
3.90625,-1.0238086289155477,-0.1764480480151681
3.91015625,-1.009067393225388,2.6637765482512616
3.9140625,1.0672206172329826,0.8616099738920732
3.91796875,1.4604785687215773,0.6216573033329119
3.921875,-1.4924852315375239,1.384408197710879
3.92578125,0.2624152198205351,-0.40626129485838874
3.9296875,0.28127204153793717,0.6316584068451692
3.93359375,0.802249387711314,-0.5418772880906324
3.9375,-0.8409283118341773,-1.4924861162309895
3.94140625,0.4332824273353654,0.3675342672396767
3.9453125,-1.6179112405840494,0.29900545971945724
3.94921875,0.8678069973297917,-2.917482524053261
3.953125,-1.1489953318425576,-0.06012909854464206
3.95703125,-1.26618255978169,1.2685945688215137
3.9609375,0.953276043628155,0.15973122069061507
3.96484375,-0.2998778879298272,0.9251601694272518
3.96875,-1.682782681022127,-0.22105317908494318
3.97265625,1.783316988813851,0.931576297801968
3.9765625,0.9969449190409633,-1.227059433059185
3.98046875,0.2625605107946936,0.8660315749148253
3.984375,-0.283428854587813,0.9372999724555615
3.98828125,-0.030111149633335554,-0.5347076671042967
3.9921875,-0.3892304061545406,-0.07142196238565199
3.99609375,-2.310358100953013,-0.7684462913262257
4.0,-0.41909474644268097,1.2887343397869437
4.00390625,0.648877244991476,2.1579602064241947
4.0078125,1.9314266880498618,0.25994836125826903
4.01171875,-0.23860024337909053,0.36460844888548855
4.015625,-0.5169414033327127,0.13761109145832676
4.01953125,-0.6243027780873426,-0.04442670755116474
4.0234375,0.2330930650352586,0.4880415003689834
4.02734375,-0.0044152876550324184,0.346627482770116
4.03125,0.06967174908829886,-1.3286855092556364
4.03515625,-1.4370220409515937,-0.5617023644093889
4.0390625,1.4883073941190834,1.2005963008786946
4.04296875,0.4275254523158524,1.0217409808300524
4.046875,-0.5870077902963681,-0.1941114728815032
4.05078125,-1.1799264946885533,-0.7035873187476921
4.0546875,0.46589526146470067,-0.6045677058732598
4.05859375,0.9877869367073768,1.3580525434793864
4.0625,-0.458606064410602,0.014416980749401346
4.06640625,0.4255292001955959,-0.6059605707041933
4.0703125,-0.34275746485515707,-0.543334663361229
4.07421875,0.5157941138482137,-0.591120519976637
4.078125,1.1873503887322807,0.12165658889507247
4.08203125,-3.0435758309765126,-1.1924833922235198
4.0859375,0.20168716074793094,1.022591382296607
4.08984375,2.74327280624061,-1.3748791916946046
4.09375,3.0113687437864614,-1.8668227041619843
4.09765625,1.3320253086743405,0.7758751648226593
4.1015625,-1.5941239470198776,1.4900287256717637
4.10546875,-0.3140568472127702,-0.7662483153274706
4.109375,-1.411620805888771,-0.33434184249049004
4.11328125,0.155938076196278,2.060111683862422
4.1171875,0.8557671375903435,0.47031450624318955
4.12109375,0.540968125399199,0.1595631401120938
4.125,-0.5408849124536641,-1.1202453271124089
4.12890625,-0.15054961619188725,-0.04259642580390933
4.1328125,0.127452416140759,0.5157665073663937
4.13671875,-1.561618670355574,-1.078419825909601
4.140625,0.30919358599232954,-0.16059978345392334
4.14453125,0.3600679181165913,1.191997715590326
4.1484375,1.5321391491559802,-1.530575095633725
4.15234375,-0.2522364726238105,-0.03947218933217036
4.15625,1.7457402362134402,-1.8551939332159442
4.16015625,-0.010515659295691048,-0.29403863336534375
4.1640625,-0.5059341140756807,-0.3240994498958274
4.16796875,0.48862129688255623,1.1960065104273447
4.171875,-0.4312486607777306,1.1564119397248407
4.17578125,-0.4472784213052395,1.3144036803589834
4.1796875,-0.535331726560603,-0.7860981035844127
4.18359375,0.9164400278455129,-0.19758242973299436
4.1875,1.335640106937586,-0.3311756707717931
4.19140625,0.9162102639170965,1.4765243607145613
4.1953125,1.770232277859194,-0.8506165717870052
4.19921875,-0.6258653431136535,-2.1242984317495597
4.203125,-1.5530380869629492,-1.2988991651090593
4.20703125,-0.10120197463627222,-0.9448333899112679
4.2109375,1.175455166151416,-1.0409283487249186
4.21484375,-0.267229388873053,-0.21449972695586664
4.21875,0.4326913346930242,0.24771598789812854
4.22265625,0.1521113832946636,-0.049959143251508215
4.2265625,1.0133846562282736,-0.32636079918396055
4.23046875,2.8348357859054163,-0.38465770957066886
4.234375,-0.6524995524469736,0.2867549115040005
4.23828125,-0.30135137407606716,-0.4194947077443301
4.2421875,-0.022782299763833603,1.6165404117534254
4.24609375,-1.2067876131584319,-0.9276952640058126
4.25,-0.2493298840758484,0.6302941126189893
4.25390625,0.45546626236425775,0.6243705036774224
4.2578125,-1.215057179302131,-0.2694547467711933
4.26171875,-0.8311151599724015,-0.6769628124018481
4.265625,0.3852499161763638,-0.3232877187003057
4.26953125,1.7690163145529654,-2.478762068738658
4.2734375,0.6383131310506687,0.6935630428396902
4.27734375,-0.6284394483974759,-0.884862372571324
4.28125,0.8491980067247282,-0.04976744569368302
4.28515625,-1.4462414885946058,0.6082278202400565
4.2890625,-1.8935108196627195,1.4166419175951845
4.29296875,0.03165847679071132,-0.2193801950789312
4.296875,-1.9362486618513073,2.139510153469761
4.30078125,0.2134636914978368,1.4205559814869637
4.3046875,-0.38723546774130535,-1.44749852838824
4.30859375,-0.12442090063759277,0.05635842833403598
4.3125,1.4867295997727192,-0.7657169701245962
4.31640625,0.045391819194444814,1.0293993987932664
4.3203125,1.2115514954999334,0.5325943276377616
4.32421875,1.7845486803174466,0.5920695540882233
4.328125,-3.1022942369506787,0.16956131603557828
4.33203125,0.7560080741836938,-0.5409240735470957
4.3359375,0.35585655782879044,0.2938848660891804
4.33984375,-0.5890170122590632,0.661466282453965
4.34375,0.9278939712605342,0.4251728804900234
4.34765625,0.9063946197066092,0.03975412916275647
4.3515625,-1.7986505714863081,-1.4824144955444676
4.35546875,-0.1823017996721006,-1.894871411136694
4.359375,1.3091934169795174,-1.8728667752520183
4.36328125,0.7749202049823831,-2.3744438418747307
4.3671875,0.25133958536673096,-1.6370026101518735
4.37109375,0.28930266573163854,0.4946244001069715
4.375,1.216079535146668,-1.0677607244747107
4.37890625,0.0012668160914980618,1.0578884399403006
4.3828125,-0.34417613719757134,0.7292130780768361
4.38671875,1.215715751956464,0.47712777745028134
4.390625,1.1770002856342963,-0.8632607788739443
4.39453125,-2.177025338912348,0.10860937410499061
4.3984375,0.2995694846904854,-0.7568530855859628
4.40234375,1.050928126412579,0.9158341864299571
4.40625,-1.9478004145712065,0.815597178680001
4.41015625,-0.7059425079298098,0.301352411742767
4.4140625,0.6360335191240524,0.11167347886011379
4.41796875,-0.7053100706643758,-0.29525090928054326
4.421875,1.7235473387612044,-0.1488528150163705
4.42578125,-0.3772988414109888,0.42998819221326673
4.4296875,2.1704716140353306,0.5103412202676437
4.43359375,-0.3406130281851523,0.4521306476976089
4.4375,-1.532364449004511,2.2043485489164993
4.44140625,-0.9292309105513761,0.9955471553954081
4.4453125,-0.49054997631353975,1.6015916053792723
4.44921875,-0.28745362792316614,1.6182456286710971
4.453125,-1.3929893119899113,1.2900476144237227
4.45703125,-0.7338337883030025,0.2120449322601644
4.4609375,0.4160738347913506,1.7354242711068686
4.46484375,0.5921472742986884,1.6651648209610945
4.46875,0.8266033763656144,0.6649606719470197
4.47265625,0.6982467659219744,0.1796050778126207
4.4765625,0.35617376703489084,0.019557491015374392
4.48046875,-0.5751911529675882,0.48388233526978536
4.484375,-1.1713090438791847,2.1307190155623656
4.48828125,-0.40224980126311977,-0.9402853968945207
4.4921875,0.4269585429023001,-0.12067709325098668
4.49609375,0.3322358498445299,-0.1315804521216284
4.5,1.636824682497387,0.8635355606967541
4.50390625,1.7367471539232198,-1.0258534727264312
4.5078125,0.9019263808654434,-1.755291712184499
4.51171875,0.871061041324414,-0.719955351935326
4.515625,-0.28887684022537297,0.4545807943560482
4.51953125,0.025959464259250976,-1.5373885614846101
4.5234375,-0.19072190640551812,-1.5725548291030416
4.52734375,-0.07957597640569318,1.499944597666562
4.53125,0.9603968134729091,0.4068382076295814
4.53515625,-0.443583079754536,-0.14202030903674998
4.5390625,0.9295020512422856,-0.6029860239508607
4.54296875,0.9354862454724513,-1.4316690572254926
4.546875,1.2752457371701587,0.9662134678812533
4.55078125,-0.5497290918468655,0.75302679237488
4.5546875,-0.5993047857710266,-0.06773862911840074
4.55859375,0.5010178471116898,0.9929544794115182
4.5625,0.8128500950061751,-0.9323070375772765
4.56640625,-0.27025238465848583,-0.7748427990480218
4.5703125,1.3039095917463883,-1.7220912202006582
4.57421875,-0.5009637497608335,-0.6698070965978187
4.578125,0.3730383855424071,1.5955540925039318
4.58203125,-1.326080736776999,-0.4329806680234266
4.5859375,-0.5336895303262535,1.1770211112192246
4.58984375,1.7949546795423497,0.3646393721443638
4.59375,-0.30363717558308123,-2.6338423239940423
4.59765625,1.105772500337045,0.2574465424548854
4.6015625,-1.3737498884465809,-0.6796865470066246
4.60546875,0.6622472733011856,0.4315929392799457
4.609375,-1.8703953463393501,-0.5788781553642587
4.61328125,-0.5189180241489338,0.9856431330589359
4.6171875,0.2661739802473732,0.1467391934696094
4.62109375,-0.06031621937387364,0.49740285599251133
4.625,0.544864096244829,-0.7326996688929341
4.62890625,-0.011710457310712156,-1.1880137291963968
4.6328125,0.9674660627409102,-0.5156732706967453
4.63671875,-0.3984488048560501,0.16313128438441335
4.640625,0.022544367056459583,1.5621017252694005
4.64453125,0.80027061826217,-0.6691231684728925
4.6484375,2.045744301726056,-0.010285106297733536
4.65234375,1.326105212799719,0.4084551792443352
4.65625,-0.10679469752944992,-0.005316281694888132
4.66015625,-0.5392041870566802,0.6172317366795549
4.6640625,-0.2057577706664087,-0.12131069755382036
4.66796875,0.16580362853846115,1.0250357009928261
4.671875,-0.6682130446985163,-0.43870617122615724
4.67578125,-0.45945695913045176,-0.9913772432687404
4.6796875,0.8681397486018463,-0.035214063753883945
4.68359375,-0.4895906015791637,-1.0594624010145386
4.6875,1.2273914947586861,-0.6653922891807191
4.69140625,1.5210926418774595,0.6296312161601058
4.6953125,-0.7058119528719203,-2.0725133924748267
4.69921875,-1.2256955174119837,-0.29625165943944964
4.703125,-0.47525386629324057,0.16355712311763035
4.70703125,-0.8254317889936091,-0.5437459968496796
4.7109375,-0.23173689667832678,-0.27413511223021897
4.71484375,-0.4575634159586372,0.9333447386035026
4.71875,-0.6802818014696691,-1.324967854673223
4.72265625,-1.6717082456523424,-2.125012226445861
4.7265625,-0.7108525937991736,2.4005767225761034
4.73046875,-0.3866356423942312,-1.0264933211620824
4.734375,-0.24838738925501877,-0.15374200544878047
4.73828125,-0.05230124684759157,-0.9495844675606359
4.7421875,0.4486777118009428,-0.4755320419225707
4.74609375,-0.11469252551639818,-1.071913371679192
4.75,-0.7652350232688143,-0.9299399739857448
4.75390625,0.28882771508896604,-1.0081754190006105
4.7578125,0.8647331514431975,-0.6907016435527441
4.76171875,0.13661042832577813,-1.075159136778671
4.765625,-1.5216177040740222,0.4222892514521955
4.76953125,1.3695303774506797,0.0655262906891576
4.7734375,2.1106635060834167,0.32374983703006704
4.77734375,-0.6488679464455583,1.1189442387198967
4.78125,-0.18285069813610494,-0.45075310259265033
4.78515625,0.49864331113824295,-1.3857541365584447
4.7890625,-0.03151876808948979,-0.6560224175451155
4.79296875,0.0072770270694656235,-0.21983870328372163
4.796875,0.4393562506891736,-1.0599127679099456
4.80078125,-0.8881983691063291,-1.2434832790721968
4.8046875,-1.943294136282492,-0.9969008237450447
4.80859375,-1.689640724546502,-1.7487234283007078
4.8125,0.46317179383297213,0.08742172501552396
4.81640625,0.01905140307538518,-0.956176160627604
4.8203125,-1.1199093004189127,3.0349250563863888
4.82421875,-0.8018007655750221,0.7595818481424149
4.828125,0.17035423020385745,1.1107935150767607
4.83203125,2.0610273747386194,0.2976836905118112
4.8359375,-0.8837565249302349,0.1254061235923673
4.83984375,-0.41469610585814226,-2.9785941779840543
4.84375,-0.6842932633471052,-0.3158791895514143
4.84765625,-0.18135101696525116,-2.1827014853223843
4.8515625,-1.04390986091504,0.47473421710348374
4.85546875,2.092582858201777,-0.7650547816308806
4.859375,-0.9084716979293107,0.2583573404767508
4.86328125,-1.9504700221491618,0.5285350223865495
4.8671875,-0.9098671418910583,-1.7020250140768531
4.87109375,-0.7155460742127567,1.1898354534097995
4.875,0.9729540874623833,-1.6748508884954065
4.87890625,-1.1491831246440238,1.1201452956849143
4.8828125,0.6710318721159723,0.6655264186941553
4.88671875,1.3495541688116617,-0.6757816013732433
4.890625,0.7572542438358253,2.817238540386368
4.89453125,-1.0693567490876392,-1.4106958588422338
4.8984375,-0.07607987442584063,0.3302087576127576
4.90234375,0.08926550369568532,-0.1472420417190523
4.90625,-0.17783718775439414,1.7015397093803213
4.91015625,1.5409210842430987,2.0428790064876026
4.9140625,0.7109338125472326,-0.3838626658560597
4.91796875,0.5974163111913757,-0.5095390589124474
4.921875,-0.10173360111048756,0.45007930655928907
4.92578125,-1.214104586687006,0.14934415583365573
4.9296875,-0.18004546058016505,-0.6171960588642335
4.93359375,1.0315056618160963,-0.2160431664641545
4.9375,0.9536351321309794,0.795128847311099
4.94140625,-1.0173276415398667,-0.9084924363807887
4.9453125,0.7150406837901504,-0.9139282386670271
4.94921875,0.7750383106760309,-1.052838441370656
4.953125,-0.5682986791295773,1.0101179621487983
4.95703125,0.42798631367804335,0.1986242861503142
4.9609375,1.3277074409717537,-1.4791451729051763
4.96484375,0.6851489016035098,0.226759458460976
4.96875,1.5184018224249758,-0.5434571144954055
4.97265625,-2.2600409241991377,1.1156327441120988
4.9765625,1.4122784908666213,-0.5656793455249626
4.98046875,-0.8707592063359881,-1.046868401576723
4.984375,0.6607644026169878,-1.3588858336481906
4.98828125,1.7867242666859868,-1.4585041100033533
4.9921875,-1.055734771822318,-0.8680191144883523
4.99609375,0.9522246466320239,1.5691825422062582
5.0,1.355238147883215,-0.9816955331613357
5.00390625,-0.40224837301984523,0.5568105925315069
5.0078125,1.9268728422687282,2.517485076757397
5.01171875,2.229177537353163,-2.760076023187444
5.015625,-0.6113302831429391,1.093492281708249
5.01953125,-0.47095079543097756,-1.2690638291374496
5.0234375,-0.3980409282910755,-0.5953237398871625
5.02734375,0.929884755341949,-1.1071090930556626
5.03125,-0.08429816807378535,-1.2564899792174338
5.03515625,-0.40126008338658103,-1.488936948931808
5.0390625,0.9479525624043554,1.6081178013847652
5.04296875,1.9892046127753111,-0.5550696201670478
5.046875,-0.6149625216291996,-1.4152739703213983
5.05078125,1.1714465355311436,1.6969754488127686
5.0546875,-0.2495553442972276,1.6009548457236158
5.05859375,-0.3167073230390608,0.8395834722684207
5.0625,-0.2752253251776509,-1.02461353779427
5.06640625,-1.9445298677124985,-0.8899695040152477
5.0703125,1.144139915681778,-1.767672862327362
5.07421875,-1.182849348553116,0.5512546862285772
5.078125,-0.7765646679263414,-0.008134038648093624
5.08203125,-1.2340294891893064,0.07974658407212894
5.0859375,1.3606543972896583,1.505145334258916
5.08984375,0.13280785016193525,-1.2840159575722299
5.09375,2.9152405286958247,0.1585062546662577
5.09765625,-1.1453290874510582,-1.2776902598682083
5.1015625,0.15822137943592773,-0.13715283929294395
5.10546875,-0.30385155121596047,0.5689427767297803
5.109375,0.20727904194462138,-0.45861765666076326
5.11328125,-0.8663523145716514,-0.05773376731683126
5.1171875,0.7548060204523095,1.566805260313828
5.12109375,1.5412709925077763,-0.5275151728556258
5.125,0.7745427441985053,-0.944044804184984
5.12890625,-0.09014637481839731,-1.556707483351771
5.1328125,0.533887158594002,0.34739096574940803
5.13671875,0.8711861792165846,2.0731657745477077
5.140625,-0.8669059656822989,2.819252974406736
5.14453125,-1.1955455187257213,-0.531686149667442
5.1484375,-1.2958306334795289,-0.6724332098369571
5.15234375,-0.24901388953401296,-1.3823454330770246
5.15625,0.20090094727143312,0.15162266328354124
5.16015625,0.9181861621973083,0.2487623130383491
5.1640625,1.4853532692233664,-1.0021842121367541
5.16796875,-0.12567902919148682,1.0664618357896334
5.171875,-0.11145339212879093,0.017246224807356703
5.17578125,-1.789998850115638,1.9312194196614592
5.1796875,-1.8912201096960302,-0.04037172845785715
5.18359375,1.9012304623587855,1.1944903335740524
5.1875,-0.6371122737366652,0.02634205227079619
5.19140625,0.1916498116560605,-0.6328329376243788
5.1953125,0.7691079017620684,-2.9856780486170393
5.19921875,0.6123383049892808,-1.054810953944376
5.203125,-1.1111296367917054,-0.19549302410397734
5.20703125,0.8509464761542788,1.1230453482761082
5.2109375,-1.0361350794083866,-0.043033591012646775
5.21484375,-0.5833348429726444,-1.4054483588404898
5.21875,-0.24697720972659862,-0.029384819725768986
5.22265625,-0.5586097483711159,-0.07392446688108048
5.2265625,0.7159804451584241,-1.3639181049449944
5.23046875,1.204191431048073,-0.36519224984838966
5.234375,-0.770322079081404,0.009740982636015616
5.23828125,0.651645731694488,-0.21834326148658992
5.2421875,-0.821659487921601,0.3260166233109659
5.24609375,1.4730963365406202,-0.20788560175550827
5.25,0.18959244325500024,-1.0524116134044823
5.25390625,-0.4385846453953734,0.0021940234363224003
5.2578125,0.8468375587426364,0.13232477128989265
5.26171875,-0.5358289941333971,-1.1847214944856579
5.265625,-0.6379993387071123,-1.2336006402001887
5.26953125,0.655394579191392,-1.1559604332518012
5.2734375,-1.0573575418902605,-0.37789645917305775
5.27734375,-2.3907739820909155,1.5410477501040194
5.28125,-0.8307117694117029,-0.3901767936066143
5.28515625,1.475432698215145,0.42290733993250784
5.2890625,-1.8436922825813586,0.10459598038551864
5.29296875,0.636050764237095,0.5327045719852218
5.296875,-0.291748071910614,-0.753465015296458
5.30078125,1.8095373286094,-0.7133200557454568
5.3046875,1.0793355367888757,0.23897845653074715
5.30859375,-0.9274071855614647,0.05304672173065854
5.3125,-0.6329488467550122,0.7652053316775442
5.31640625,-0.4010026914293288,-1.0227669242866757
5.3203125,-0.07503487448959482,-0.5598144501354569
5.32421875,0.4376757939459681,-1.7656346118382802
5.328125,0.12039437245365563,-1.6549718677720016
5.33203125,-1.0712488524127337,0.7230515193741152
5.3359375,0.5571566795859819,-1.0765658323157463
5.33984375,-0.6664908198697117,-1.662121586088211
5.34375,-0.6089696431615355,-0.42921280797738237
5.34765625,-0.060565443159238154,0.08846844903021113
5.3515625,-0.3096693900287787,-0.32704862983801486
5.35546875,1.4952032358857437,-0.47858954690939587
5.359375,0.9005020680552916,-0.4311613044224236
5.36328125,-0.9992204242681867,-0.7130478197404688
5.3671875,-0.08820880710155062,-0.7824455677747962
5.37109375,-0.7954676049847047,-1.4881469935165241
5.375,-0.0298186687053085,0.7661841500873793
5.37890625,0.23763821970469778,-1.8143787727100877
5.3828125,-0.22976052375299424,0.7540956603559353
5.38671875,0.8718027684604867,0.3748622613080622
5.390625,1.0776577108464362,-0.02234071994303715
5.39453125,0.7627021380793614,0.24578792166560273
5.3984375,-0.6015158271504375,0.7082222915132954
5.40234375,1.2819321939478334,0.4940638164111596
5.40625,-1.390640968856228,0.21383761698631037
5.41015625,-0.5285611218563515,-0.24292303571880644
5.4140625,-0.47553723832998257,0.5065956207237776
5.41796875,-0.13043224592917463,-1.673458670066286
5.421875,0.2779790686735948,0.11821081900938053
5.42578125,-0.21572937141093954,-0.06140671632327339
5.4296875,0.29511451784062376,0.10236835534809757
5.43359375,0.8917602402626492,0.5431951521875203
5.4375,1.0358871728195265,-0.19302499178462146
5.44140625,1.0302238258058156,0.2217066499027489
5.4453125,-0.6918043101338717,1.9692889422666475
5.44921875,0.1294510652627885,-0.15440624608078557
5.453125,0.9655075663590126,-1.4842393618021814
5.45703125,1.1398037392284333,0.9674431401926201
5.4609375,1.9896084248576615,0.17652456535967342
5.46484375,0.6639801968511301,-0.7957520366697228
5.46875,-0.5709515467964533,-0.4388406854843312
5.47265625,-0.5658121567831104,1.3061504178618657
5.4765625,1.0745003738058134,-0.29647875728530365
5.48046875,1.8319649023255618,1.065206954064919
5.484375,-1.480770411318567,0.42653665906749794
5.48828125,0.0702483862323854,0.9066028135740946
5.4921875,-1.2231843829035007,-0.7654885974351605
5.49609375,-0.412548214863662,0.6390231171180077
5.5,2.261565232711004,-0.7572748682283632
5.50390625,-1.0027629537615383,0.41347367335371116
5.5078125,0.3443353267816185,1.2089409791394523
5.51171875,0.23784792246482986,-0.9514926784976462
5.515625,0.3811507206304185,0.2275874440645146
5.51953125,-1.2365822282138168,-0.26488954354731764
5.5234375,-0.12529694600291705,-0.8440294090220636
5.52734375,-0.37356787096376914,-0.025958054125694477
5.53125,0.9109396197955506,0.08403499477800254
5.53515625,-1.1616931344337986,-1.4492948647087303
5.5390625,-1.664059775232781,-0.0947037708388859
5.54296875,-1.5040590709994972,0.9591774851553496
5.546875,0.340131786416849,-0.4588782881747755
5.55078125,-0.7164786973337312,0.6451975007155304
5.5546875,-1.0794248622924552,1.4401965952404214
5.55859375,0.70039630920456,0.18061578314291532
5.5625,-0.5937222369609734,-0.5217179818579044
5.56640625,-0.23521510834236517,-0.5332522187005894
5.5703125,-0.014086248946878242,-0.07497006076160269
5.57421875,-0.21749118022186595,-1.033595606816963
5.578125,-1.8706694838406754,-0.5886375169061075
5.58203125,-1.4807720078997053,-1.4372870935673725
5.5859375,0.7764899109578928,-0.00041323103220942123
5.58984375,1.517049585880158,-1.2540734806302836
5.59375,-0.7062359387829863,-1.849845962790549
5.59765625,-1.5288503918867897,1.050412778171261
5.6015625,-0.5928879129654048,-0.07195855747956648
5.60546875,0.9341987351845412,0.1010720601686339
5.609375,-1.0622699338836952,-0.6900060386870793
5.61328125,-1.1097413964259657,0.02199580068037151
5.6171875,-0.4146936079075438,0.6828266369401352
5.62109375,2.4307406014616535,-1.1132478085396855
5.625,0.9346437077494927,-1.497869229654995
5.62890625,0.7928640956567445,0.4555237018642238
5.6328125,0.8501753044428039,0.1717041114962079
5.63671875,-0.6823023328937162,-0.6913605672347883
5.640625,-0.2552260806056194,-0.7412916377401546
5.64453125,-0.40992759073610674,-1.7023859823049112
5.6484375,2.070037751131995,-1.8057436777792475
5.65234375,-0.45941646288185806,0.018346857972796775
5.65625,1.1047952834702968,1.681040159572252
5.66015625,-0.6525148657885547,-0.4492058327966576
5.6640625,-0.8619460720701553,-0.7462185649377201
5.66796875,-1.6877413432107122,0.011725959576048335
5.671875,-0.642417066360748,-1.1853573906777266
5.67578125,-0.36298358041783535,-0.7803148649516142
5.6796875,-0.22754866583671915,0.3047840954283597
5.68359375,-0.7320103039643411,-1.9960068557667237
5.6875,-0.31505303377482724,0.1803394947837706
5.69140625,-1.8513915915996935,0.04875289581016546
5.6953125,0.5126287638086483,0.36298882889847683
5.69921875,-0.24282844974740572,-1.2181345931660585
5.703125,-1.4258599767954283,2.3699545779477074
5.70703125,-0.2006990857369624,1.1660186461684277
5.7109375,-0.25837184356674,1.0130967756068743
5.71484375,-1.591285898076608,-1.3593535934347525
5.71875,-0.9319903621748735,-0.6389132379018205
5.72265625,0.12629088949482792,0.471728808567574
5.7265625,-0.6100400049377638,-0.28150781340034864
5.73046875,-0.42566909544035497,-0.9493362529678421
5.734375,-1.5464196619446924,-1.1533789326850672
5.73828125,0.23082656111296912,0.8505766773176975
5.7421875,-1.4288466940938855,-0.3827524639511457
5.74609375,-0.6032841677295083,-0.8844531654100315
5.75,0.7598639371562422,-0.10627689939111329
5.75390625,-1.3274802457312918,0.24048197757631862
5.7578125,-0.8717272459400387,-1.5417707586811993
5.76171875,0.20531265435294044,-1.3404047379839779
5.765625,-2.259966972118865,-0.7228116230878494
5.76953125,-0.3650223571423467,-1.1696380828846749
5.7734375,1.2586829617766695,-0.644038411404439
5.77734375,0.8557629256918894,1.9438855691779067
5.78125,0.9165769144926419,-0.24618639890474814
5.78515625,-0.3128128868299964,-0.7638160279782348
5.7890625,-1.3153012636314658,-0.5584373559073429
5.79296875,0.4807860722732575,0.5378196233125843
5.796875,-1.1662700690209615,1.372614189516828
5.80078125,0.3900430727529687,0.5822387494377851
5.8046875,1.0379137977903823,-0.5031808577872708
5.80859375,-1.0538639455725287,1.521950984099393
5.8125,0.9323576768137275,1.7433950682396264
5.81640625,1.6084751935125243,-1.1747345014423183
5.8203125,0.5708373439547108,-0.45199458711066365
5.82421875,-1.791180417055978,-0.2720110487231694
5.828125,1.8983736362112444,-1.504424431585629
5.83203125,-1.495116404517582,1.0241388018178932
5.8359375,-0.3285366445213536,1.4633353388925405
5.83984375,-1.4251600880878872,0.9172754428265814
5.84375,0.3164642860210998,0.15392489313264032
5.84765625,-2.2461636989089393,0.5060017245549527
5.8515625,-0.24480758200078825,-0.2403321776407465
5.85546875,0.6455631641324046,1.6475904740181053
5.859375,-0.2989249803523204,-0.5286740480881982
5.86328125,0.4768406629329789,-0.5810553714988951
5.8671875,0.2776140019320517,0.36997179965913707
5.87109375,0.897793582322995,-0.027311642541770126
5.875,-0.7263246737706514,-2.5723774816281813
5.87890625,1.5616503457221447,0.012861360038849407
5.8828125,-0.2043306403847387,0.14659639033315192
5.88671875,1.416240054598064,-2.0705190446229698
5.890625,0.47843644959239273,-0.01979567864494937
5.89453125,0.5131051922387212,-0.22688780554010646
5.8984375,0.30180820139946685,-0.8193333223090389
5.90234375,1.1777455824681144,0.7917505043012059
5.90625,1.2240388998445422,1.471985362928105
5.91015625,0.08700965266040571,-0.25062196314951457
5.9140625,0.9564909155259929,-0.32152371407844726
5.91796875,-0.37465837786620493,0.7477859103645228
5.921875,0.5705050563588592,0.028563923864145413
5.92578125,-1.3730136808766866,-0.826665453741613
5.9296875,-0.15189673711809756,-1.6920949854740166
5.93359375,0.4333312649247756,1.0147412113009335
5.9375,2.4084827901844124,0.06756144330788769
5.94140625,2.0761623581466675,0.6006595310493765
5.9453125,-0.33409242518889914,1.3208782455496826
5.94921875,-0.248353004549504,-0.15201466650031617
5.953125,1.2104629246337322,-2.0818836069428617
5.95703125,-0.772757531016498,-0.3404753041666478
5.9609375,-0.44881491200323004,0.9122501501394047
5.96484375,0.21004455410946768,-1.375636596810103
5.96875,-0.7767467348169858,1.8034725176785888
5.97265625,1.680605070688396,-1.3919902117801357
5.9765625,2.3628286966046086,1.5572091814061395
5.98046875,1.0446399376677973,-1.876557111582704
5.984375,1.896166726879474,0.4889230406548834
5.98828125,-0.3643002434244198,0.7171780124097138
5.9921875,0.4272483490868484,-0.46487832577794463
5.99609375,2.629166314237306,-0.061437849982118785
6.0,0.8623574936609965,0.8248296259297307
6.00390625,-1.5672061138702995,1.570300324091193
6.0078125,-1.9252329004665243,-0.5378811566423313
6.01171875,-0.3718078136102152,-0.602559360239502
6.015625,-0.25111191237874503,0.06860072012378214
6.01953125,-0.9573356257889771,1.530406869182266
6.0234375,-1.0260170820082681,-0.20519396087665812
6.02734375,0.5106561757057123,-0.34585917045812786
6.03125,1.6433526646620453,0.9991288768944185
6.03515625,-0.7483237747553104,0.40255281275369315
6.0390625,-1.5526637161137695,-1.1116020708296408
6.04296875,-0.8558472215310928,0.6380580922025891
6.046875,0.014222673782222774,-1.0018134001783083
6.05078125,-0.7815415269568537,-0.013740462530504685
6.0546875,0.7414737036931003,-0.4375705596758636
6.05859375,0.46074637812502395,-1.5449175649440199
6.0625,-0.466677830756095,-0.31348560619621346
6.06640625,-0.9745822183797276,-0.8365698346240646
6.0703125,-0.8893794086285175,1.3150649334877522
6.07421875,-0.11716341493833532,0.9881102199111617
6.078125,1.8301140792116968,-0.3638231308139496
6.08203125,0.4745800128556806,0.44046008948676973
6.0859375,0.5353858073769333,-1.448667045010045
6.08984375,0.6398001925089728,-1.4381352127303721
6.09375,-0.4631376897621233,-1.060998215070413
6.09765625,0.9850108734899128,-1.6171730017261479
6.1015625,-0.8817810762333718,-0.21906837838552407
6.10546875,-0.6764238893502992,0.09662307348552278
6.109375,1.4007998273275333,0.29103389117180356
6.11328125,0.2568421881984165,-0.5923551445671521
6.1171875,-0.09853114987542361,1.489456558388926
6.12109375,1.0966511237202816,-3.054009797177176
6.125,0.4115175659831568,0.5090484983384251
6.12890625,0.15573546934760366,0.4576950778265964
6.1328125,1.03253425384084,-0.8600592014098191
6.13671875,-1.103714925486743,0.5799506643649884
6.140625,1.3938317783245568,-0.8328478495835825
6.14453125,1.7685181709686002,0.14537730537315965
6.1484375,1.293653403904021,-0.238119509519119
6.15234375,-0.14607835617108073,-1.3752159717868644
6.15625,-0.44324686385272893,-0.08212054845555879
6.16015625,-0.5156767113310144,0.6419471094631095
6.1640625,-1.0766595216379384,0.16285981434771885
6.16796875,0.769441135788459,2.919043377446458
6.171875,2.099307706429811,0.7022949844274237
6.17578125,-1.2543740161242785,-1.0249428480975828
6.1796875,-0.22195684060566565,-1.9547230297214049
6.18359375,0.40748627643117097,-0.061579912788823035
6.1875,-0.757314043955544,-0.12096532789978413
6.19140625,1.0229934979186304,-0.7990295008223707
6.1953125,1.3553236583009396,0.30309996870365574
6.19921875,-2.711998852675414,0.9600473432356739
6.203125,-0.7731915378362825,-0.32480418425958457
6.20703125,1.7090572492331397,-2.241779093848126
6.2109375,-1.0808530455425522,0.22044442614842286
6.21484375,-0.7638557450298873,1.9427073868206215
6.21875,-0.33860732843590824,-0.4078605889597195
6.22265625,-0.32500757830060517,-2.6127485209731365
6.2265625,-1.4327405262941624,0.6021468547532008
6.23046875,-0.5176189130673007,1.3646137118803732
6.234375,1.6429499847397833,0.6955976817241276
6.23828125,0.7394715113463399,-0.37830827623153107
6.2421875,-0.8775656525675233,-1.7872369533410948
6.24609375,1.2081032665729414,0.4262877480219308
6.25,-0.003043696080122541,-0.5386707973627456
6.25390625,-0.136655701146692,-1.4083858756575074
6.2578125,0.20998702509361455,0.3778190203342278
6.26171875,0.6551941304850143,0.49958232689585585
6.265625,0.4855205562332446,0.8714272081388645
6.26953125,-0.5288229479388421,0.23269516872914076
6.2734375,-0.29339206101039844,0.5278646853128166
6.27734375,0.028677172598221733,-0.6025612455218352
6.28125,2.877966503183002,-0.09241458720006865
6.28515625,2.0804522631308466,-0.7337622354358826
6.2890625,-0.7186733056837386,0.227592736048022
6.29296875,0.8729170791291289,-0.7636747155967336
6.296875,-0.34208076142091015,-0.5184312898077096
6.30078125,-1.410838133343506,0.7460296561732133
6.3046875,-1.1934478576936693,1.3815214856924858
6.30859375,-0.5753100673262443,1.470547322420617
6.3125,-0.7737552377881054,-0.17287621733804992
6.31640625,-1.4610241798021946,2.566121950717184
6.3203125,0.9487676138816372,0.11407596112921789
6.32421875,0.7589695391126623,0.418725580022733
6.328125,-0.14772907367921523,0.004075604827317736
6.33203125,0.43743369816077365,-2.274607716830395
6.3359375,0.27256008636134205,1.0154335022020866
6.33984375,1.5580011114981114,0.1286968082763042
6.34375,1.9808141280309721,-1.0147746682587357
6.34765625,1.0140942850954384,-2.3781060583329174
6.3515625,0.7227084921756991,0.19222773842993912
6.35546875,0.74432647586014,0.9903097337468009
6.359375,-0.071946888115737,0.8524026840547579
6.36328125,0.7048436749984293,-0.4486526408630942
6.3671875,0.1866276637028649,0.662107853211938
6.37109375,0.4661275810424458,-0.5912401783273251
6.375,0.4885958096341681,-0.8117968168273235
6.37890625,-1.43395932304421,-0.40850142268559053
6.3828125,0.16585177494601933,-0.35486843878953794
6.38671875,0.4610305210290733,1.1313711923508794
6.390625,0.059374262767239235,0.5124580784697234
6.39453125,1.3590441086986835,-1.0976537936560116
6.3984375,-1.0940239905504379,0.4819178339328602
6.40234375,1.0486386513723658,-0.5904926638731652
6.40625,-0.08878450870688152,-0.3806772824398744
6.41015625,0.43336140381326516,1.268384495173829
6.4140625,-1.4905071631530717,0.35814292038631657
6.41796875,-0.40016749674128355,-0.8012635684637801
6.421875,-0.7678312096985597,0.5919231996389394
6.42578125,0.3920018433202817,-1.3973945798657441
6.4296875,-0.338738424370932,0.46241255902539297
6.43359375,-0.1318019837964002,-1.5848408603373245
6.4375,-1.1724809196590547,-1.3782835454770035
6.44140625,0.22819853859316405,1.504698794308628
6.4453125,-0.6770564199120822,-0.8752233185934071
6.44921875,-0.9646524152327661,-1.1438860698837208
6.453125,1.4316618980657376,-1.4981089387017656
6.45703125,0.8469044706132357,-0.48445868201569187
6.4609375,1.9806123323532285,-0.5555509500483892
6.46484375,-0.14800464907787164,0.6904964476969085
6.46875,-1.1839715532117534,1.0574823381971883
6.47265625,0.8008621948140752,1.481867978326467
6.4765625,0.03053554662594072,-0.6478361039794451
6.48046875,-1.346584160847561,0.3155461980350566
6.484375,0.5958635689315837,-1.8593821683912448
6.48828125,2.213253847989202,0.8190402548363803
6.4921875,0.9802164346632235,0.1405417597084224
6.49609375,-0.12457268412678056,0.7600650511117706
6.5,0.30577082296408564,0.29311053746008414
6.50390625,0.6472523140283262,0.3980064736386124
6.5078125,0.028184157740444166,1.383125057168315
6.51171875,-0.4971626082097348,0.08819954993258895
6.515625,-1.6601519219736163,0.6551092766129875
6.51953125,-0.20301751799896992,-0.27648410252165506
6.5234375,0.23096461808905971,-0.03543025883563187
6.52734375,-0.34538352347280116,-0.7579353843118818
6.53125,0.27999203765161024,-1.4231268597976596
6.53515625,0.8932350409692774,-1.3418712306610454
6.5390625,-0.5709466862979611,-1.322952511330519
6.54296875,-1.316286023827382,0.8602623175627002
6.546875,0.7594796377959008,0.8132204915712473
6.55078125,-1.0593171615117942,-1.0283656685796685
6.5546875,0.43304274999991693,0.794491842835319
6.55859375,0.9183457719924855,-0.5862270293704546
6.5625,0.537062552190195,1.2387309677656075
6.56640625,0.42714113735154186,0.7779616940643351
6.5703125,-0.7304020964761108,-2.1481085009155536
6.57421875,0.44945339289987585,-0.31466063991086873
6.578125,-1.1836913834422857,0.47377559112407824
6.58203125,0.48116756298029145,0.7207929854595864
6.5859375,-0.457422286921937,0.3784063495709525
6.58984375,-0.5598916478062901,-1.6333517002711744
6.59375,-0.3003881630134502,0.8783155686331835
6.59765625,-0.5812568766314885,-0.4662653388140784
6.6015625,0.30037258049900833,0.530708954870534
6.60546875,-1.7698893488534266,1.411508838570143
6.609375,-0.6386184989605884,-0.3058661719813468
6.61328125,-0.24719828251436282,0.9395851562214953
6.6171875,-0.791401921573371,0.5875529981951647
6.62109375,1.207790604048368,-0.24224609982643455
6.625,-0.49179843977293725,-1.2056743360191433
6.62890625,-1.1955172630770736,-1.3224281684228365
6.6328125,1.5307108166169996,0.414065561280085
6.63671875,-1.5637563733400477,-0.19992836022373212
6.640625,0.11903050078595015,0.5394859829371134
6.64453125,-1.7754318645472602,-2.5766579856000873
6.6484375,-0.9591581050513048,-1.7256644403667916
6.65234375,0.3531456402368815,0.7437552361607962
6.65625,0.1830024200665471,-1.3011292839309647
6.66015625,-0.23166660411894183,1.6891200610236068
6.6640625,-0.5085275776253205,-0.08114703439783279
6.66796875,-0.3633374054183598,-0.435396464148726
6.671875,-1.5131387576976303,-1.17949853745303
6.67578125,0.044128935613943134,0.6761815142835749
6.6796875,1.6019687818317498,-1.0224387645816788
6.68359375,0.007816945435747794,0.13686904769650407
6.6875,2.275356848988619,0.667577377383638
6.69140625,-1.0396839725010707,1.259123114958124
6.6953125,-0.7657560754057833,-0.7152675136124551
6.69921875,0.0014558106429670616,-0.5409968935080225
6.703125,0.35801565903994936,0.8283044763057794
6.70703125,0.873241458126312,1.1694850306156988
6.7109375,0.8062273759872989,0.66980052414435
6.71484375,-0.31523350080033496,-0.44023973315456905
6.71875,-1.512115163242023,0.742933121895896
6.72265625,-1.116683722157155,-0.2738892268192948
6.7265625,-0.2491971743670693,-2.130133775341903
6.73046875,0.02866180786637567,0.9336307648549872
6.734375,0.2955863873121483,-0.6216926279922862
6.73828125,1.8170314194820416,0.9701205159193002
6.7421875,2.156552124381738,0.07064591673505359
6.74609375,0.8776472141174941,-1.2671229932671686
6.75,-2.2413800379899507,0.7069814879760459
6.75390625,0.11015121084501503,-0.559335161767071
6.7578125,0.346001442995055,-0.32114117135943043
6.76171875,0.25866396955334237,-0.44530842779607355
6.765625,0.8991113905866002,-0.2525758972920864
6.76953125,-0.08304701898209513,-0.37125267080525215
6.7734375,-0.5449270262328038,-1.5760926063000071
6.77734375,-3.008917390832611,1.2456004844288504
6.78125,-1.2593542723162328,0.8699314655278848
6.78515625,-0.16319449346152642,0.3763597871530938
6.7890625,0.5138766850601995,-0.8171876735886213
6.79296875,0.8025331482650971,1.5018075716585644
6.796875,-0.8600664428281114,-1.7094105732609246
6.80078125,0.27019454100723306,-0.5099287045534601
6.8046875,-0.020743324618784868,-1.4763523481348275
6.80859375,-1.1706261925806227,0.9424326816149939
6.8125,-0.45680508629508937,0.7756748450426482
6.81640625,-0.07923732404659405,-0.6780725164020774
6.8203125,0.120297914875934,-0.25230769892248633
6.82421875,0.8503528869553592,-1.1234811870282835
6.828125,-0.836375175956698,-1.4587184655919159
6.83203125,0.06384761003537912,-1.2475420590561366
6.8359375,0.3493689933880018,-1.276648004355348
6.83984375,-1.046977464179859,0.8552272962514855
6.84375,-0.08196687222627737,0.31657077632914354
6.84765625,-1.1332607646478445,1.1356068168826754
6.8515625,-0.8410025204419412,-1.5587177887576051
6.85546875,0.37099636457084517,-0.6464764956593975
6.859375,-0.7126168710870261,-0.7490325239347951
6.86328125,0.8408888703917419,0.09936697677179815
6.8671875,-0.21572519729039175,-0.6799551432241685
6.87109375,-0.8922091509954482,0.531260220695599
6.875,0.658277272663617,0.7426621469190362
6.87890625,-0.45607170631148425,0.2989777693323676
6.8828125,0.38185640602597043,-0.11552858112075891
6.88671875,0.17644346884082623,0.2010745431069686
6.890625,0.6417295061664566,0.4799751474903309
6.89453125,0.5276361057851623,-0.47307186487489905
6.8984375,-0.9078271534065402,-0.5597143349773464
6.90234375,-0.8365542935806543,-0.04444529903051493
6.90625,-0.24369119488554047,0.9254916582064746
6.91015625,-0.11059106376353575,-1.6300919326503454
6.9140625,-0.6373792883052548,-0.24512162991351497
6.91796875,1.8346393400667147,-0.8319869569002003
6.921875,-0.9541711725279755,1.0007786507637138
6.92578125,0.22398556355947685,0.24474242140938096
6.9296875,0.46369597292461384,-0.09190810929870553
6.93359375,0.5618126411157176,1.5029328504855424
6.9375,2.509281092821435,-0.690420084672551
6.94140625,-0.514116164784936,-0.22942092968355748
6.9453125,0.7560589885098968,-0.6334867661074615
6.94921875,1.0844844458282064,-1.181917027713287
6.953125,-1.3339939681063628,0.7647456881912147
6.95703125,-0.2603800033784119,-0.030927265615060838
6.9609375,-0.504654716702867,-0.9654195409020712
6.96484375,0.7513778241043341,2.9123955527959575
6.96875,-0.09153447731420783,1.295004559010111
6.97265625,1.6738653933243752,0.4530772254870439
6.9765625,2.1928109454372082,0.34879938068812233
6.98046875,1.4484044920276633,0.8580874609402668
6.984375,-0.9122422163293872,-1.3325090901336136
6.98828125,1.9494355586214216,-0.04356230393292521
6.9921875,-0.856149302362901,0.20974832002693447
6.99609375,-2.5762028836570208,-2.76296127178944
7.0,-0.5923399887487343,-1.6723962800910983
7.00390625,1.3784439395398052,1.2810463900062738
7.0078125,0.00900991638083126,0.7146247562234438
7.01171875,-0.2368191292771145,0.16830539427284397
7.015625,-0.5704970644578532,0.3349471211168389
7.01953125,-2.3090563310923033,-1.2867653884495074
7.0234375,-2.0433829762165345,-0.2836953412885807
7.02734375,-0.783267308418373,-0.09509967457893366
7.03125,0.5039430207969042,-0.20543293222997328
7.03515625,0.47429467911209894,-1.3265212559569621
7.0390625,-1.0524698823306937,0.3880848547469164
7.04296875,-1.3299008684906561,0.353577540085496
7.046875,-1.5943588598343754,2.0535500153188684
7.05078125,0.6079434594272333,-0.7001291571204852
7.0546875,-1.1400496119276802,-0.9685736860725218
7.05859375,-0.30829266172794806,-1.501214580303079
7.0625,-1.3267368978089191,-1.0187183285545154
7.06640625,-1.5930813606050558,-2.3355409923321955
7.0703125,-0.9151571278527005,1.2856791585796419
7.07421875,0.42875828479596617,0.4895135421176813
7.078125,0.8684533111804218,0.3062507003199865
7.08203125,0.6046718854026296,-1.8090986832473208
7.0859375,-0.6636885939967903,0.7329420840980173
7.08984375,-0.8310718217619278,-1.2893142226051004
7.09375,-0.22313632089953137,0.11264054599337361
7.09765625,0.4028038393003596,0.7443076783108791
7.1015625,-0.954766102956556,-0.12806403441752262
7.10546875,0.033931953316808317,0.583285684717541
7.109375,-0.04971068291260769,1.4276838888153536
7.11328125,-0.8607358728648813,-0.038000885154704005
7.1171875,-2.0247577710837676,0.0831362105181495
7.12109375,0.36809128606187713,0.26074177392277836
7.125,-0.6522195077176236,0.8500686982293993
7.12890625,-0.46863443057646553,0.7505074157593321
7.1328125,-1.589046838546638,1.6592444565405042
7.13671875,-1.1317710521136914,-0.023940349612177354
7.140625,0.2284053402795465,0.08710959858199643
7.14453125,-0.02654335522684731,1.382793638281265
7.1484375,0.713528398543296,-1.3406967470021038
7.15234375,-0.29970206626642,-0.3881720551023493
7.15625,-0.2486122809868217,0.16309560111699925
7.16015625,0.5558825179897708,-0.21116718863502482
7.1640625,0.14955631245903409,0.08357073618926358
7.16796875,0.05243444246655719,-0.6252153040042412
7.171875,-0.1728806219991986,-0.007639031155029663
7.17578125,-0.5796729169310644,-0.01708919098746073
7.1796875,-0.9401855579495205,-0.11344929738127577
7.18359375,0.71274225167138,0.4504739585762309
7.1875,1.750034896923254,-2.1710709692605987
7.19140625,-0.6024209353947892,1.6416518970066944
7.1953125,-0.9524057190331687,0.04735077932417218
7.19921875,-2.5468240448808164,-2.348354802773516
7.203125,0.007349913198322481,-0.989571681235867
7.20703125,1.4918420070297347,-1.5723359424821317
7.2109375,-2.2262217469091605,2.4956131481780917
7.21484375,1.5180804716352017,0.5974408066632017
7.21875,0.6910447670332043,-0.19849397836636173
7.22265625,-1.8066035484261893,-0.6980923632713331
7.2265625,-1.2351332156078418,-0.33041426669274565
7.23046875,-0.3088415407383547,0.15385853536331134
7.234375,-0.25233753231060035,0.9903598939179941
7.23828125,-1.46020752370282,1.0208371565729917
7.2421875,0.9502320728660714,-0.09965833788630227
7.24609375,0.8174535804506863,0.007572738789771407
7.25,1.5950598598417047,0.5438367648710088
7.25390625,0.25620177247820364,-0.2741776922057741
7.2578125,1.5879328639779655,1.0445259275293746
7.26171875,0.9673604145924996,0.2931681093508174
7.265625,-0.6278016679062205,0.997448232760348
7.26953125,0.9975778816387636,-0.4610895048293949
7.2734375,-0.4312998027285475,-0.697253632368413
7.27734375,-0.10692386518595504,-1.3175847556145006
7.28125,0.3652488052942827,0.49212511557305816
7.28515625,-0.7964505804929759,0.2887401994498127
7.2890625,1.274552289832062,-0.18332908607856674
7.29296875,-0.8278698201437994,-0.32823677872275214
7.296875,0.06611278925635801,0.9307927599928416
7.30078125,-1.6308202017737288,-0.048496611522331624
7.3046875,-0.3337852590619974,-0.368602022422326
7.30859375,-0.1623234246698608,0.1279114336271411
7.3125,0.8769313533747485,-0.10153802348313336
7.31640625,-0.04345411395540956,-0.4995803500147174
7.3203125,-0.8857995335157223,0.5004228561781863
7.32421875,-0.5907839700418333,-0.10421293889313137
7.328125,1.845748730885365,1.3887473433309172
7.33203125,1.7140639956145811,-0.08799860675989149
7.3359375,1.0065469565695337,0.4390796856168495
7.33984375,-0.969982679491687,1.671291801664365
7.34375,-1.072997553659211,-0.5987579963323194
7.34765625,1.4424994020259352,0.46739003415385283
7.3515625,-1.3187310667016359,-1.0565151572151845
7.35546875,-0.14841410218739182,1.8668627795975838
7.359375,1.7910476284379886,0.5954949185206986
7.36328125,-0.46412632378383456,-0.555352484763347
7.3671875,-0.21959183031509685,-1.1278118578355867
7.37109375,1.9030228552146096,0.20967194094070166
7.375,1.1995445142702028,0.2381351080888492
7.37890625,-1.015798321437625,0.5833105986377867
7.3828125,0.08392183712352347,0.7211256919817172
7.38671875,-0.5241232919398225,-0.36123604685210253
7.390625,-0.87406693772291,-0.1958091334941582
7.39453125,-0.07532206940717566,-0.9854538018867544
7.3984375,1.2440042373205056,-0.15223601244546717
7.40234375,-0.21073315706598256,1.8331345548463125
7.40625,0.39876835417550305,1.3459022013073474
7.41015625,-0.6810981139141037,-1.2274814606241773
7.4140625,-1.6277755718079951,0.17143940428743393
7.41796875,-1.904806462431245,0.13498680038472397
7.421875,-0.9778834167859677,-0.7413713142321542
7.42578125,-1.4369090597235918,-0.8661639654859264
7.4296875,0.012997132490646712,1.8350276428323795
7.43359375,-0.5196182058463352,0.7785495356414404
7.4375,-0.7821130068434166,0.24990892614248172
7.44140625,0.018831208706601477,1.1449721655901601
7.4453125,1.47180259591036,-0.26249333843379047
7.44921875,-1.0684918786209505,0.41576954670248895
7.453125,0.23400599435479164,-1.2872626414029824
7.45703125,-0.4672503057807946,0.34879771648138436
7.4609375,-0.2950593650974764,-1.783600649708238
7.46484375,1.5664528438343277,-1.8651611170272038
7.46875,-0.4648866792985576,0.8340298805993204
7.47265625,1.0761339318797682,-0.9549191687067933
7.4765625,0.06297907305110846,-1.651423186072546
7.48046875,0.18250300486473017,1.0665918195302277
7.484375,-0.279048856440445,-1.1897093679750304
7.48828125,0.2990525886251262,-0.4080094898555017
7.4921875,2.017987550247698,-0.30780813855000094
7.49609375,1.0415384119380324,0.8527370771992504
7.5,0.6563223521258554,-0.07437352313150868
7.50390625,0.08812274316097392,1.768541294743791
7.5078125,0.8403544544694406,-1.7055380778550056
7.51171875,-0.3754542957419582,1.12499375314489
7.515625,-0.23362564585864753,0.23532038026457236
7.51953125,0.8711938918932869,-0.009572874546556101
7.5234375,-0.19631947135186048,-0.4146345531037229
7.52734375,-0.556044679977081,0.15865493872667677
7.53125,1.0446359934160394,0.045825692718119176
7.53515625,-0.33849639494690337,0.7638885626383716
7.5390625,-0.10951708656493739,-2.2329335230302294
7.54296875,-0.5365673784711879,-0.7652086255488357
7.546875,0.3383168891489883,0.7232410174500818
7.55078125,0.521827996504711,0.5398816152216114
7.5546875,1.205562285723135,-0.06785715885100636
7.55859375,1.4338782070247773,0.7092452111235773
7.5625,0.9518640718988203,1.7013181647210598
7.56640625,0.3247206800211437,1.2596424804017894
7.5703125,0.3624754017944977,-0.5869830686018795
7.57421875,-0.4910288049620004,1.434078643161455
7.578125,1.0434212528559572,0.7141233493626487
7.58203125,-1.3603346030893912,1.1949139762337178
7.5859375,-0.5297482994388235,-0.2837578322868547
7.58984375,2.7690263646494255,-0.15376141604400254
7.59375,-0.2847956471655816,0.8785526148671975
7.59765625,0.2605552236653185,-0.842043266225113
7.6015625,1.234720324530883,-1.2015102046001238
7.60546875,-0.8059547161833968,0.5676024445947393
7.609375,-0.6293734103637241,-0.7490829818509515
7.61328125,0.6462056689133704,-1.1461495026489008
7.6171875,-0.39512690851994586,-0.08983827461744162
7.62109375,0.622082830138081,0.7236428849388031
7.625,-0.3847402740241619,0.7251100141936394
7.62890625,-0.28205862343755006,1.2597405323400386
7.6328125,1.0302263990529286,1.291053900314346
7.63671875,0.6788421180407591,0.41143135366245515
7.640625,1.172735032591305,0.06509482991522766
7.64453125,1.6588732533120745,0.2934590981443027
7.6484375,0.7827828005559103,2.01132629696773
7.65234375,0.8347117939020313,0.7857665027136497
7.65625,0.3071554476669505,-0.055402645781907456
7.66015625,2.0386778747527163,-1.3182504151293333
7.6640625,0.9938156690115589,-0.28544705596375225
7.66796875,1.3038966222536417,1.3950159235368504
7.671875,1.246250336874933,1.2211574761036494
7.67578125,2.748817921924274,0.4610801325056167
7.6796875,-0.06488474171322044,0.9301428724229786
7.68359375,-0.40223473387102204,-1.0561444433207607
7.6875,1.4446787396286818,2.0769535204027174
7.69140625,0.2596742500538196,-0.4961642212612243
7.6953125,-1.0329908882596497,-1.244875718686103
7.69921875,0.912942699142031,0.23267201672403012
7.703125,-0.2444471906666889,0.1128128881284084
7.70703125,-0.041869467459340066,1.7356280439664076
7.7109375,0.677031463093151,0.42575217597653947
7.71484375,0.5335313388197562,0.08468977041970897
7.71875,0.6852375480488455,1.0913246943675385
7.72265625,-0.5048272376964026,0.8398404841103286
7.7265625,0.6072704007470592,-1.2855972862047946
7.73046875,-0.099680932190815,-0.20207321205985304
7.734375,-0.07533261718372816,-1.3804558142574015
7.73828125,0.32662908082577263,-1.8028340752002563
7.7421875,0.0552603318941634,-0.7704127032648741
7.74609375,-0.3005444000734032,-1.491433361220557
7.75,0.7703484626850288,0.963897842072603
7.75390625,-0.27540786650702526,1.2593512470207915
7.7578125,1.640071533777436,2.355098566240656
7.76171875,0.6076537417447848,0.7105726224634267
7.765625,0.26980665273496185,-1.076499222970761
7.76953125,-0.9415588700807853,0.4064178836466483
7.7734375,1.592564316973921,-0.33711398447027696
7.77734375,-0.4762432778209131,0.5150752409205455
7.78125,-0.19020304914639324,-1.1517088110042242
7.78515625,1.044084888826393,0.6820314425454089
7.7890625,1.5504996060172007,0.3232249003706681
7.79296875,0.6156175309203018,0.18324801185504538
7.796875,-1.2531616281003708,-0.8636433453935307
7.80078125,1.6659186556136214,1.3251607864555037
7.8046875,0.538729659554373,-0.3339352601331671
7.80859375,1.096618988502534,-1.1659819487942045
7.8125,-1.5548874770047385,0.7158934961112883
7.81640625,-1.4639568769796572,-0.8771454213817828
7.8203125,-0.28691844130543326,-0.5892104887435974
7.82421875,0.4559534877650693,-0.38540807802332827
7.828125,0.6695059790382705,0.5062856535699639
7.83203125,1.5846495850624482,-0.47576270845752683
7.8359375,-1.4831016965516814,-0.7312761217279619
7.83984375,-0.40906888872327124,0.9929390508902131
7.84375,1.2980988364940829,-0.1787674253979959
7.84765625,2.2188019698322674,0.09006452216429708
7.8515625,-0.9434537834848189,1.153106868171766
7.85546875,-0.2884867444602199,0.874053083702609
7.859375,0.7180128696010328,-1.4450478984280755
7.86328125,0.28061365281649886,-0.1561483998607734
7.8671875,0.6589246876469891,0.41077605433612235
7.87109375,-0.4288917967779758,-0.5353061989241389
7.875,0.9600720379758657,-2.4638403098382287
7.87890625,-0.2504569781698092,-3.1007695201939613
7.8828125,-0.8350350054798892,-1.174469882202044
7.88671875,-1.4874467932638855,-1.1710283308893865
7.890625,-1.1213284020200402,-1.2819183953530626
7.89453125,0.7483650259992698,0.8745351463718082
7.8984375,-0.17589434020841158,0.1463023164677249
7.90234375,-0.23658861637306622,0.9694868396485619
7.90625,-0.9939252948646279,1.1567175156546767
7.91015625,-0.3551975762171467,0.9031796810525655
7.9140625,1.1443068499334772,1.4793481709369363
7.91796875,-0.3070573144371134,-0.7082607540913657
7.921875,0.6680283314907847,1.0547804835646888
7.92578125,1.0778753368388043,0.011085812964543867
7.9296875,1.1619675231447026,-1.3829407475555056
7.93359375,-0.9787912027506135,-0.5087493399200486
7.9375,-0.9835700612023504,0.687193141472414
7.94140625,-0.6039648794922996,1.2424047878916793
7.9453125,-0.09669098880592322,-0.6620696975616976
7.94921875,0.9715103702445247,-0.21296470853230046
7.953125,-0.21139442993071247,0.07280714287523268
7.95703125,-1.5549035112486094,0.11477200935632231
7.9609375,-0.8554730930079616,0.125472947434222
7.96484375,0.3428318573127176,-1.438443357701843
7.96875,-0.8715492585726637,1.9307279468559797
7.97265625,2.36868692264774,-0.03029696930945268
7.9765625,0.9920156477099475,-0.04525397589751226
7.98046875,-0.5430152925854034,-0.5980021578474517
7.984375,-1.4966591152319786,-0.2977538743648285
7.98828125,0.8715957107998952,-0.5076849354613393
7.9921875,0.5619210280830164,0.6292194943163254
7.99609375,-0.5030285681780554,1.1134600134217945
8.0,-1.5857548453114685,2.096288394244086
8.00390625,-0.22368190659856288,-1.3686946663528756
8.0078125,0.22646279982596929,-1.353963330737903
8.01171875,-0.39469924713311993,-0.3513483131945774
8.015625,0.13134406645589894,-0.27305643562700566
8.01953125,-0.9735895193643613,-1.0420223008180993
8.0234375,-0.05849086735289506,-0.25334780175515215
8.02734375,-2.2301401895646196,-0.4828676479433147
8.03125,-2.3857518666703523,1.3641761278000197
8.03515625,0.6435952533253149,-1.8166470567297246
8.0390625,-1.039526713610411,0.13884803427672324
8.04296875,-0.7541207226100798,0.5439570531193728
8.046875,0.8089026749835816,-1.5883999644809759
8.05078125,-0.7691035168105645,0.9316135169155948
8.0546875,-0.41956783684898696,-0.6036156199272268
8.05859375,-0.010594021326023242,0.18668522566542164
8.0625,-0.7538468057322538,-1.4223897510298358
8.06640625,0.32656420208058845,-1.315919865430558
8.0703125,2.6213385639229374,0.356056662796255
8.07421875,0.41042327113159827,-1.2191678793809324
8.078125,1.4128760590633196,-0.05471912106377394
8.08203125,-0.05185133701051307,0.590228135675456
8.0859375,-0.8922418981741986,1.8299559165596364
8.08984375,-0.3399944331726059,0.18468645313828952
8.09375,-0.1077014439137455,1.5728440371882346
8.09765625,-0.6820463178847855,0.03488567494845782
8.1015625,0.8409911226960228,-0.16720239096450817
8.10546875,-1.6793534735202036,0.9610426011915343
8.109375,-1.9673760899092825,0.4354305636032384
8.11328125,0.2909792703250032,0.7166070977394713
8.1171875,-0.9981665587377949,0.7013217406125448
8.12109375,-0.7972013427946572,2.7049950723254073
8.125,2.1208912442458523,-1.8274835656418502
8.12890625,0.5674571040781915,0.780702472918862
8.1328125,1.4893226559561674,0.15869051501047937
8.13671875,0.3871019374188505,-1.023450042290165
8.140625,-0.49737517368752265,1.1795791548793797
8.14453125,1.1739142641726055,-0.43780215135627554
8.1484375,-1.0617756836593646,0.2681628158652795
8.15234375,0.7601486605209169,0.22198996961220144
8.15625,-0.27828374174432857,1.5249313553904247
8.16015625,-1.0535818183407732,0.21509041408846222
8.1640625,0.9242629977294263,-2.3330017902063407
8.16796875,0.7285988628089014,-0.6371903705172153
8.171875,0.32534664056502777,-0.029060963359125225
8.17578125,-0.5959616997989277,-1.0962184833640716
8.1796875,1.212888064208324,0.18641087963245656
8.18359375,-1.704930551545123,0.8540491139586948
8.1875,-1.0887602607199598,1.0583508406400055
8.19140625,1.8965574166113421,-0.2106666444339969
8.1953125,-0.014740057320053908,-1.097025383874854
8.19921875,0.8370539429994236,0.09383960991193623
8.203125,0.838716846934546,-1.0975838957934179
8.20703125,0.0022819205562685336,0.061837496999626894
8.2109375,-0.6108068997777903,1.7909411782244036
8.21484375,-0.4177186681826241,-0.4287028690305298
8.21875,0.5890111024376833,2.071531463734946
8.22265625,0.3051148011301754,0.273132489983731
8.2265625,1.7089901998972015,0.5793236831119449
8.23046875,-2.259979116332407,0.21983150543608723
8.234375,-0.9438373637223731,-0.40470564876063625
8.23828125,-0.6979236194914605,-0.34210248862720644
8.2421875,1.4769532115913375,1.7273675556086208
8.24609375,1.6240997361464062,0.4736148776031327
8.25,-1.0977519304150987,0.7898554817088799
8.25390625,0.1423934730311724,-0.17803121708852335
8.2578125,0.6545021735665948,0.86679116055332
8.26171875,-3.033753262798761,1.049695690618803
8.265625,-1.4481866573993187,0.8195097359596856
8.26953125,0.20921705771375695,-1.8867649265840274
8.2734375,0.9624368347774417,1.023241935518913
8.27734375,-0.38192539506969003,0.14708399144627796
8.28125,-0.9888679187319629,-1.305161038942518
8.28515625,1.1443566042277795,1.0442175948014771
8.2890625,1.8637329061617207,0.5900946274559127
8.29296875,-1.8381583115421953,-0.2448640819354199
8.296875,0.9392735679818875,-1.248861304005417
8.30078125,-0.779804929777093,0.4567396094025855
8.3046875,-0.19314863757254117,-0.030975721163606352
8.30859375,0.25934627124180404,0.01994404231879924
8.3125,-1.5184793330559594,0.9267939950529238
8.31640625,1.1721565241282674,1.5275044990101734
8.3203125,-1.3464637320609079,-1.554216282987955
8.32421875,0.2262829158528391,-0.7558203499969759
8.328125,-0.9934086881111764,-0.2898709545213306
8.33203125,-0.2432771858126314,0.2642611878502563
8.3359375,-1.0592858372149523,0.735324787140748
8.33984375,-1.0434243696410803,-1.1418429591773465
8.34375,-0.1213078119285313,0.7237365594383727
8.34765625,-0.5608999672509255,-0.0035391528700245423
8.3515625,-1.02166786373272,-1.6302687734897994
8.35546875,-0.29112993292629846,0.5918776344214033
8.359375,1.1903065056683866,0.9479897456282438
8.36328125,0.5965249005345221,-1.0230331042727243
8.3671875,-0.43800206929707025,-0.015632601512345017
8.37109375,-0.6222589655316865,-0.2037709550177388
8.375,-0.007434066907771727,0.047142345522129654
8.37890625,-0.7540040470942669,0.5577766422074618
8.3828125,-0.5919601300458179,-0.8879172525073218
8.38671875,-0.24681863525575237,-1.233424696734648
8.390625,-1.4417594914614982,0.2841223917137396
8.39453125,-0.3482348964804424,-1.8434732608663589
8.3984375,1.4896763060508695,-0.31262750621776275
8.40234375,0.8400898913150018,0.6663427383963253
8.40625,-1.338735297896137,0.8846437366329518
8.41015625,1.4418769452008615,0.22529131867324012
8.4140625,1.1694718570946168,0.7508034213614104
8.41796875,0.46039812138449476,-0.9375238771115015
8.421875,0.912726891451703,-0.8736987325965564
8.42578125,-0.2966492255347906,-0.6425914015463458
8.4296875,-0.664850064713143,-1.3276419243780933
8.43359375,0.19260218921331307,1.7792652181481892
8.4375,0.3160416153781978,0.2692648460958721
8.44140625,0.7475761452792156,1.809616616349966
8.4453125,-0.23524146318084527,0.8725799368232817
8.44921875,1.3021968187895654,0.9139142527310348
8.453125,-2.543850097851605,1.1407469150698883
8.45703125,-0.22140985275426,0.49566300309626915
8.4609375,2.3715110367022234,0.25718738767568006
8.46484375,-0.15904208343652532,-0.19328536895845289
8.46875,-1.3943700099252168,-1.0254651031695132
8.47265625,-0.9477520460321078,-1.1479208651034898
8.4765625,0.4101488987380996,-0.3770028717745142
8.48046875,-0.8393228135667596,0.8756841229149375
8.484375,-0.6630240249446099,2.4913419610477847
8.48828125,1.6156975924876509,-0.7935672763226593
8.4921875,-1.6457711666872614,-1.1377717677721315
8.49609375,-1.0454315902531974,-0.10162731085809623
8.5,-0.3387310828022421,-0.25783129048916875
8.50390625,0.253452521763953,0.3926394250101178
8.5078125,0.8403461276542409,-0.1924283297076861
8.51171875,0.18141342703303137,-0.42748486030708
8.515625,-0.42743314349196265,0.31230017688533
8.51953125,0.5570565446151853,-1.3641443537672961
8.5234375,-0.9655414121082945,-0.7327547618978869
8.52734375,0.17290916163908296,-0.9492565863605967
8.53125,0.4726762234694934,0.8400012008920401
8.53515625,0.0879456863243993,0.08829669881655673
8.5390625,-0.8847718783701687,1.0123265130813413
8.54296875,0.20540680003712183,1.671636831933598
8.546875,-0.7470167840310837,-0.07511903555116337
8.55078125,-0.7513567895481913,0.48282783438367405
8.5546875,-0.43765336645636954,2.068418636945122
8.55859375,-0.1341206246121965,-2.0550853538799108
8.5625,-1.5117359673409891,-0.7227112221751757
8.56640625,-0.4060420116528809,-0.435603237901262
8.5703125,-0.5616913452449567,0.004108028257113105
8.57421875,0.3978905312032066,-1.1931172759501005
8.578125,-1.1148482458851,1.0690044543032906
8.58203125,-1.1053359294529839,-0.08992773363741847
8.5859375,1.0358449926000757,1.3998144018581198
8.58984375,0.4143853805537171,-0.809657787230067
8.59375,0.3210918323963187,0.1671520699527523
8.59765625,-1.3245094597894347,0.8295729009297654
8.6015625,-1.2075584347494246,-0.7358020455973312
8.60546875,0.18434949236319526,-0.25551403308313775
8.609375,0.2725627448081389,-0.48772256279646387
8.61328125,2.4044827337850876,0.3292183732048836
8.6171875,0.00897694316502933,0.3558717190835051
8.62109375,1.301226065030998,0.351225928343591
8.625,-0.4443803814741826,-0.39007776578144965
8.62890625,0.44979950289597687,0.9998474896410906
8.6328125,-0.1611190756423739,-2.098265563479105
8.63671875,-0.11064202439458123,-1.3503064295304668
8.640625,1.021226030013649,-0.11494193968387512
8.64453125,0.11747264879330654,1.1321148555792773
8.6484375,0.5624311341309599,-0.8059342650084667
8.65234375,1.052456091757481,-0.3450779270206726
8.65625,0.10392747450259798,-1.7295336002052053
8.66015625,0.029376470565219102,2.126754449747994
8.6640625,1.5811831799200122,0.32233881192661107
8.66796875,-0.5276216506716003,0.8980394411154521
8.671875,0.8058345107331514,0.786418411246734
8.67578125,-0.13609532061842208,0.3812341005227551
8.6796875,-1.0354540229108835,0.5155630811070734
8.68359375,-1.5043458740979971,-2.052353172011715
8.6875,-0.19854948017656254,-1.500431386078636
8.69140625,-0.8141607499946683,-1.6649338188955294
8.6953125,-0.4702757373346287,-1.382505001946187
8.69921875,1.7310592145317902,-0.28010192927410504
8.703125,1.8742968845550718,-0.665873453353716
8.70703125,-0.9192385049107535,-1.262389754291279
8.7109375,0.8647976431890626,0.78312274175528
8.71484375,-1.2116604106101854,1.6460684396807193
8.71875,-0.18236035994147676,-2.480375311071302
8.72265625,1.6401729701233518,-0.811010189425902
8.7265625,1.7332310752900473,-1.795438164636962
8.73046875,1.0346665058409983,1.551855371438685
8.734375,-0.41567918388572783,-0.34848820294611504
8.73828125,-0.32791527437821666,0.6326464670809486
8.7421875,0.7621100490105239,0.01577473880279102
8.74609375,-0.40944623132833463,-0.5403794679140631
8.75,1.5102139005475697,-0.5557948804612478
8.75390625,0.19096306991440257,0.4418659187472656
8.7578125,-1.203926855256647,-0.7199071230648899
8.76171875,0.11041883907786162,-0.8286217971228963
8.765625,1.565313830314497,-0.17553461333971312
8.76953125,-0.4112992157405295,-1.338711103840603
8.7734375,-2.1200623786924986,-1.8490143640932926
8.77734375,-0.5049355011776515,-1.53054284247588
8.78125,0.2280181279547401,2.11543069530837
8.78515625,-0.17341595851769515,0.5412974359912938
8.7890625,0.5618453979908976,-2.1194239562465698
8.79296875,-0.6441051791140923,-1.2150098332059756
8.796875,0.39517474160292665,0.5502332918974103
8.80078125,0.32332922896114724,-0.7048366559928955
8.8046875,0.31759594638412897,-0.671823186472481
8.80859375,1.2096548451080715,-1.9283853046947603
8.8125,-0.5836881367602614,-0.4819377306412695
8.81640625,0.5457506821158222,0.8082441726496133
8.8203125,-0.35796948082567936,2.029156202041255
8.82421875,2.296732129742646,0.7117726445477004
8.828125,0.35695667788980223,0.8278825763435981
8.83203125,-1.596616391086038,0.36586693191983705
8.8359375,-0.7200324611287018,0.3280878572409224
8.83984375,-0.022146011962185002,0.21993721846429487
8.84375,-0.8869310130652984,0.1216245254214655
8.84765625,1.2075770359840095,-0.5339399570574389
8.8515625,0.7301833537700452,0.7436538716497065
8.85546875,1.8568135018533396,0.11186649246082217
8.859375,0.0736035354071898,-0.8371725760154087
8.86328125,0.44633344479156706,1.2437784855178304
8.8671875,0.8128333660562711,-0.37152620067837194
8.87109375,0.8624651885171083,1.427774535446304
8.875,-1.0935580496136559,-0.3937260634429519
8.87890625,-0.29927075191258323,0.2974340550055093
8.8828125,-1.2615876326171913,-1.7546023394347812
8.88671875,-0.8895436376221935,-0.2021869861462868
8.890625,-1.0347504419297557,1.513615642059144
8.89453125,-0.5696536540774865,-1.3476374200591577
8.8984375,0.3086102297163936,-0.4006048906999178
8.90234375,0.47350883172894676,-1.0366378608774491
8.90625,0.2929824133662849,-1.4139870343124736
8.91015625,-1.0182303431050117,0.742464666799147
8.9140625,0.557682423419051,0.3596178224792839
8.91796875,1.687807984700646,0.5394585359433371
8.921875,0.8178151751699666,-0.15071583434241703
8.92578125,-0.0002733755813855204,-0.9620473555032114
8.9296875,0.45932321911779733,-0.35237889460011645
8.93359375,-0.9255915527361869,-0.3818145541110475
8.9375,-0.17271124994571438,-1.9330777596793884
8.94140625,-1.1572917562442158,-0.4067020882378137
8.9453125,0.2136581536511826,0.893196398657171
8.94921875,-0.6491111135335186,-0.003347071428356037
8.953125,-0.19672743691098182,-0.10519959808382241
8.95703125,-0.40657014268965136,-2.114705932322182
8.9609375,0.3646049183139004,-0.7175479468916093
8.96484375,-0.6960200360022722,1.2223299065859738
8.96875,-1.7833497454476392,-0.26787797880745745
8.97265625,0.39689162486518953,-0.5603645042572903
8.9765625,-1.797866513997177,0.12641459828410392
8.98046875,0.28412551452284723,0.5747357552867597
8.984375,-0.06950597599229374,-1.22173399625468
8.98828125,-0.8941920484005029,-1.9532881124043788
8.9921875,-0.9163828167911883,-0.3736246844203673
8.99609375,-1.6653083188902107,-2.3815913633560597
9.0,-1.6717528918177007,0.33757876982739554
9.00390625,-3.21268315234564,0.18797052086390756
9.0078125,-0.5704010909995163,0.12248961773250149
9.01171875,-0.24940163284473776,-0.5434908321348282
9.015625,-1.0724232448195488,0.22433968141453392
9.01953125,1.0423846723856514,-0.17006118594311428
9.0234375,-0.8352394144097086,-1.1331765169629044
9.02734375,-1.7618759426689719,0.47720573352887985
9.03125,-0.15988696537746439,0.21483111360421459
9.03515625,0.04827817749161562,1.4535448253390124
9.0390625,2.4494278412333874,1.2020131168488328
9.04296875,1.9716786505822217,-0.43440228328458985
9.046875,-0.2622698511669936,-0.5148032012713504
9.05078125,-1.352714892938525,-1.061688580136975
9.0546875,-0.1348769102890324,0.745264409032952
9.05859375,-0.35372530874681135,0.21689430203448393
9.0625,1.2124147080524503,-0.2533912017585132
9.06640625,0.0702697751143242,-0.06816476161380566
9.0703125,0.3122616608814732,-1.3447429473964996
9.07421875,-0.44774316851856505,-0.5398112890593555
9.078125,0.1810533102818528,0.2842594566964546
9.08203125,-1.0384432095517349,-0.5005578705252595
9.0859375,-0.36286228073602517,0.2281142438970409
9.08984375,1.5136957953416474,0.7917819373227133
9.09375,-0.36425887860850314,0.07110666554031086
9.09765625,-0.506634111485438,-0.005174562579275901
9.1015625,0.010391981862066085,-0.23636499235573066
9.10546875,0.47356037979439813,0.5496248638607621
9.109375,0.7886369567080995,0.3704876389910068
9.11328125,-0.4504652046619745,-0.6879929519813907
9.1171875,1.237402919423291,0.7079162105948544
9.12109375,-1.1042152408189707,-0.20186043455916414
9.125,-0.11454476017417466,-0.41378234225164107
9.12890625,1.961859537711087,-0.21233056793246277
9.1328125,0.285803993073183,-1.564897351963757
9.13671875,0.017017365247221708,-0.9267133029214324
9.140625,1.1946830786191216,1.909720418579717
9.14453125,-1.0418800657305036,0.31250105469389067
9.1484375,-0.8671719385139013,1.103769970946946
9.15234375,0.1410447424682087,-0.5243758703392127
9.15625,-1.2359723490890189,-0.6696228443029153
9.16015625,-0.5478668910850637,-1.4136068711565124
9.1640625,1.3351823099772133,-0.20662205509501386
9.16796875,1.1104786081304827,-2.213947414783471
9.171875,-0.7430418048894795,1.1707423892070437
9.17578125,0.6063999961930664,1.1115993645168152
9.1796875,-1.7004367011218529,-1.1221152353136634
9.18359375,-1.8850155880985835,0.1083389784206861
9.1875,-0.9870867495244066,-1.631457443157266
9.19140625,-0.017591251239534804,0.024483788027902593
9.1953125,-0.4321712963089823,-0.4148387081982011
9.19921875,-0.9617468853986089,-0.2644554399282168
9.203125,-1.314076091397535,0.8139286639662565
9.20703125,0.34119472386174754,0.30051261077358854
9.2109375,-0.6052401650155294,0.3234122712838409
9.21484375,0.5399213051407868,3.4078378615197282
9.21875,-0.7187599772580864,0.13953682958464636
9.22265625,-0.17706972493199943,0.26398949848343134
9.2265625,-1.2620552856588314,-0.022248244888354973
9.23046875,1.1403142369745893,-0.5673689801213413
9.234375,-0.1886750106851644,0.5392949416123022
9.23828125,-0.8520453303676364,0.2784242327897321
9.2421875,-0.7589291165455481,1.2303532452544403
9.24609375,-1.5436409870665893,-2.727210703042547
9.25,-0.04480318848668422,0.16580947798814882
9.25390625,0.8733295219250115,0.9080958414506064
9.2578125,-2.0589618211545706,1.4132245565927037
9.26171875,-1.2013101098029242,-0.5830064086484458
9.265625,-1.081851607478392,0.6215078868285872
9.26953125,0.5445438710206707,-0.700796909617715
9.2734375,-0.1638711136674621,-0.8373784057337588
9.27734375,-1.188632081977913,0.7357193157470677
9.28125,-0.9918644945358647,-0.42221955250714843
9.28515625,0.8966995982570061,-0.5707122332245861
9.2890625,-0.18328470367994149,1.629153238976119
9.29296875,-1.3927910181222405,-0.431325525541364
9.296875,-2.6393493777316808,0.7865733449637853
9.30078125,0.30725291076783007,-1.824808291862855
9.3046875,-0.07495467348705281,0.547822830132564
9.30859375,0.6026067564998725,-0.18882213251263555
9.3125,-1.1725826311481913,-0.0917991579696804
9.31640625,0.37666753207236725,1.0515463691902938
9.3203125,0.2581053274491399,-1.3666852277028518
9.32421875,-0.425337151649635,1.1361294643001636
9.328125,-0.5630487774377723,0.30436553804848665
9.33203125,-0.3190785363216958,0.9207442358585652
9.3359375,0.6968294036764,-0.7789438897971588
9.33984375,-0.6419635475264545,1.147354304068885
9.34375,-1.037078860556364,1.4111506582335833
9.34765625,-0.3757450135058379,-0.12280033704172794
9.3515625,-2.370703050478393,0.04967752639233932
9.35546875,1.5980927147557848,-1.0506951755991207
9.359375,1.0424011872396164,0.7271940513222606
9.36328125,-0.9781053566462066,-0.31905916418935687
9.3671875,-0.25626292189445266,1.052193014504554
9.37109375,0.2921436487731697,-0.7247585698891006
9.375,-0.12894173437446108,0.8586880805499292
9.37890625,0.7597758848663657,0.2841590676834115
9.3828125,-0.6064346593165953,-1.362594099151733
9.38671875,0.7898043763525985,0.3112371592380098
9.390625,-0.39343479604004244,1.1661587392713426
9.39453125,-0.4833891704235207,-0.34849273840324185
9.3984375,2.053407416677086,0.03020076750022997
9.40234375,-2.2803280396891257,0.5641175127834327
9.40625,-0.009167141385103038,-0.4289657505092652
9.41015625,0.5055458381006648,-1.0374693988624095
9.4140625,-0.036466673356573914,-1.2230246305166275
9.41796875,0.344291099913212,0.42077580844089363
9.421875,0.9490640767553117,-0.6119252184667822
9.42578125,-0.4603638085972545,-1.0238465264679788
9.4296875,-2.2483916319552506,-0.30599043296439293
9.43359375,1.1535544621956542,1.8274649926078066
9.4375,0.10449354006244085,0.8304370711787782
9.44140625,0.6332626392036642,-0.6253207721202955
9.4453125,0.688230113031262,0.11581187414994401
9.44921875,0.8135269588128219,-1.9964851145989282
9.453125,-0.3993363646648647,-0.21911115244712312
9.45703125,0.6764582097259539,0.5953609351330621
9.4609375,-0.06548705741997067,2.261356254629484
9.46484375,-0.15046867333968889,-1.3479252948313454
9.46875,0.7957729812430178,0.4664100623949806
9.47265625,0.45652531327523216,-0.40170042216054425
9.4765625,0.08449058099837856,-1.167841009326116
9.48046875,1.5142574037587184,-0.2638493388045493
9.484375,-1.4840927066724219,0.9398083440736493
9.48828125,-0.3269630222337983,1.3313618406678969
9.4921875,0.824199234453726,-0.34688159893870724
9.49609375,0.6172586594973254,-1.1588624390616624
9.5,-0.14871416650039834,1.0521843169106095
9.50390625,0.7089237216243974,-2.32474509257678
9.5078125,-0.7206589863715005,-1.1786545967548443
9.51171875,-0.860411293753586,0.42621895950677197
