time,ecg,ppg
0.0,-0.04114198954736483,0.5576140814204272
0.00390625,0.5506957535167548,-0.49148692810804084
0.0078125,-0.6616354063248832,1.0539262239414426
0.01171875,-0.6181265283896629,0.8479690338939005
0.015625,0.27786813167555596,-0.03209752989565555
0.01953125,-0.06281883389295231,0.6070295929300311
0.0234375,-1.0407214965373264,0.8887180352754516
0.02734375,0.009167483528110053,-1.7488788261488268
0.03125,-1.7870348625124375,-1.3260607265326354
0.03515625,1.0494217215220996,1.156432269254381
0.0390625,0.5438203141352894,0.4934203344570456
0.04296875,-1.010756331735045,-0.4438227786377528
0.046875,-1.8787889840989629,0.1065645705912183
0.05078125,-0.09753353767663027,0.009870492264998662
0.0546875,0.8912227253542453,-0.28202884595016403
0.05859375,1.4652993859589085,0.4209123785812556
0.0625,0.06282734451963584,-1.6980871912340612
0.06640625,1.182418030771037,1.356731414148303
0.0703125,0.17635784142795166,0.7114631533774787
0.07421875,2.6125997272112866,0.5802194376115968
0.078125,0.08759954617596284,-1.5179154846401444
0.08203125,-1.2396922671243917,0.1759540557732898
0.0859375,-0.5208854542106962,0.18211980895663332
0.08984375,0.16006542086004152,-1.7302052817044533
0.09375,0.36274144583585805,0.6878389657346273
0.09765625,0.7716438083995223,-0.34960164060070464
0.1015625,0.49386795265075895,0.2685711686691153
0.10546875,0.6728344879069913,0.8107584102305436
0.109375,-1.1287546621141,-1.1738675424464082
0.11328125,0.7457364733875796,0.07313467731427153
0.1171875,0.818178283024874,0.00020325771052463675
0.12109375,-0.1689051277765376,0.6433584177174179
0.125,1.6096496397498525,-0.5675444285673926
0.12890625,0.19185651726248698,1.3412407969915494
0.1328125,0.2552939699068114,-0.5271461042412228
0.13671875,-0.0272087806834992,-0.1553584980221382
0.140625,0.5628633769708876,2.2241205960264447
0.14453125,1.956098280630535,1.9038562598300812
0.1484375,-1.4720597348999516,0.7130745887504795
0.15234375,-0.8481435771137761,-0.27012851071850097
0.15625,-0.9612468358061212,-1.3700257758593826
0.16015625,0.6117795332701207,1.027876663600671
0.1640625,-0.7789598232017303,-0.6827231775649838
0.16796875,-0.7853731719823879,-0.5511835142198145
0.171875,-1.305825285673302,-0.8379581572139103
0.17578125,0.4799513941105991,-0.7179675442260737
0.1796875,-1.8266217055009442,0.6895468657511994
0.18359375,-1.6536885824646563,-0.5481819747510099
0.1875,1.248968261558556,0.9800983136279846
0.19140625,-0.9390090741001093,-1.2554677365314306
0.1953125,1.0095257508990556,0.0403322622824919
0.19921875,-0.5837399333499466,2.216147320185832
0.203125,0.4104964348068337,-1.1438867394237109
0.20703125,-0.762235156833467,-0.430727424608806
0.2109375,-0.47724186465426577,0.5719487488356669
0.21484375,0.029820319949171198,-1.2469287091619048
0.21875,1.8279879510992418,-2.0680966366983142
0.22265625,-0.9212473147132546,2.6331046497437534
0.2265625,-1.2681197870914467,-0.8522313756829096
0.23046875,-0.2855448623892477,1.0431417484791718
0.234375,0.27041939495585815,1.0484490751702011
0.23828125,-1.2866088238085003,1.627266321082724
0.2421875,-0.40579086940032355,-0.5445401761456884
0.24609375,1.1701508514020094,-0.6750754988117936
0.25,0.10965629603041276,0.052122551040218436
0.25390625,-0.31444135232550935,-1.6155036779132639
0.2578125,2.4844546706780326,0.25831517763819306
0.26171875,-0.6890586063718184,0.8930722730973671
0.265625,-1.1303664485480436,0.09815473793586961
0.26953125,-0.4166867452384763,-1.5909652184371124
0.2734375,-0.3424441915312638,0.6276022296955223
0.27734375,0.42904642875677346,-0.02940890132339991
0.28125,0.3784785979324996,0.28266309333504464
0.28515625,0.7123482077574589,-0.28806032949807386
0.2890625,0.16517554542548107,-0.9702615186450597
0.29296875,-1.0027125195087996,1.0298720225260105
0.296875,-0.9767019719095063,-0.2426270327267211
0.30078125,0.3146089772522227,0.35568388137969287
0.3046875,1.1235914309475175,1.4684095929515435
0.30859375,0.02804429849645925,1.6293710791451959
0.3125,0.3795286427008811,-0.8388757824189806
0.31640625,0.7713455773363193,0.5308284408827115
0.3203125,-0.08620762295221196,-0.025456379388589412
0.32421875,-0.9918847509184183,-0.24062733146209053
0.328125,-0.5134744921699795,-0.5640143402897828
0.33203125,-0.267281047786496,1.2579060026014348
0.3359375,-3.3372216745537084,0.1479456870759792
0.33984375,0.4698752649508474,-0.7607466918477597
0.34375,-1.4118248290947981,-1.4487546819779495
0.34765625,-0.6411504689751832,0.8091396433598617
0.3515625,-1.1387890547332877,1.1884371272197232
0.35546875,-0.9213389113758328,0.48582398033226026
0.359375,-0.6792034847305731,0.2513842018800411
0.36328125,-0.33088796305664553,-1.227916242526642
0.3671875,0.3012305921196953,-0.6796058898221763
0.37109375,1.6387691076041326,-0.6863558896050473
0.375,0.49380295757544884,-0.8784748301813067
0.37890625,-0.039601679566607324,1.3751982112644299
0.3828125,-0.49000913489564635,0.08093896165091484
0.38671875,0.11103571665370267,0.20875490705053956
0.390625,-1.3020621090264752,-0.9401695089356192
0.39453125,-0.7220663031480646,-0.7181858203538406
0.3984375,-1.3435815512075864,0.756994341764633
0.40234375,-1.0252210512098896,0.4437135986532677
0.40625,0.5337011861515418,-0.5883744746824724
0.41015625,-0.9266484584860472,0.5154978093198416
0.4140625,-0.3413873251279186,-1.1981143710354416
0.41796875,1.9465776402769295,-0.31946189106135353
0.421875,0.2274565954515885,-1.9010023272116352
0.42578125,0.20571791386698948,0.5740209721687132
0.4296875,-1.0645817820312504,-0.18521885944658878
0.43359375,-1.0765681518297208,1.2775788784703528
0.4375,0.23010340905116808,-0.6703895848824932
0.44140625,0.5447810411137283,1.0302505044317372
0.4453125,-0.8806597867177605,0.08205204607312694
0.44921875,-0.7284990252479837,-1.2387772505621015
0.453125,0.33402127031918566,0.46027403618095786
0.45703125,0.5885919676460617,2.912462840825776
0.4609375,0.4991743245740997,-0.9567590747820924
0.46484375,-0.6366239129881223,2.1576088099411996
0.46875,-0.6679924590948916,-0.005455792065920011
0.47265625,-0.6527135819387495,-1.6304341054127418
0.4765625,-0.26317819890069477,-0.1963993015418592
0.48046875,-0.10403150142117054,-1.028828018721325
0.484375,-0.06932508968581262,0.2802955264325731
0.48828125,-0.5089711681330578,0.7832458979931773
0.4921875,-0.069091278912322,-0.12463352451446501
0.49609375,0.3351930572613773,2.2852614509120452
0.5,-0.25281526512031827,0.4417142194766108
0.50390625,1.022888243543266,-2.219788607075337
0.5078125,-0.8496237424228753,1.3811464593971885
0.51171875,0.07881876890581817,0.4738703314998312
0.515625,0.2887582873396721,0.32089873520828593
0.51953125,0.13772443126233144,-0.7032636083543935
0.5234375,1.2071276448261574,0.23866894551113188
0.52734375,1.5227470638426632,0.4070990718662383
0.53125,0.19173221982775315,-1.0087274394537102
0.53515625,-1.6546226315724812,-0.5729971357137524
0.5390625,-1.1150872168261028,0.48833037387707495
0.54296875,0.9134473272947649,-0.7454530461172543
0.546875,-0.029741556536940657,-0.15914511220886657
0.55078125,-0.7699744262693795,0.05717484195393754
0.5546875,0.7810028122328022,1.845833725851021
0.55859375,-0.245078605857368,0.4615866561435792
0.5625,0.1795804667094372,-0.371974899920401
0.56640625,-0.7820787178996993,0.4212381817556077
0.5703125,-0.6702934674078845,1.28244148143498
0.57421875,-0.1798792992868812,0.1492286587595061
0.578125,0.3346158829699054,1.1284205898030355
0.58203125,0.7847636410975307,0.1826242845255137
0.5859375,0.4481236960326503,0.4573385255210173
0.58984375,0.014228460937061834,-0.36161859813234354
0.59375,0.7546653323729116,-0.6289350151167209
0.59765625,0.9946335669020663,-1.130468288139018
0.6015625,0.472593826511354,0.725891307460306
0.60546875,0.25072656312444214,0.9770839086015075
0.609375,1.3643875650362023,1.15535758218627
0.61328125,-0.08096323015751432,1.5820871197431525
0.6171875,0.9530985663025742,1.2922460424020306
0.62109375,0.6210493602948646,-0.7877595414772092
0.625,-0.23131381431598616,-0.4318460309797078
0.62890625,-0.18677306816619396,-1.0242842508285142
0.6328125,0.5575724060630105,0.46522030757837307
0.63671875,0.6639447407952969,0.15961459128405045
0.640625,-1.044853424085994,0.9577153155851599
0.64453125,-0.8091831067864609,-0.2700804595471365
0.6484375,0.564676266093656,-1.3119531263055795
0.65234375,1.3200433714598323,-0.13570380656533562
0.65625,-1.047132738142521,0.24842170645375533
0.66015625,-2.3894489814408124,1.9081886958818242
0.6640625,-1.8135608576166824,-0.2507124848882343
0.66796875,0.39430293539256944,1.446731809993577
0.671875,-1.1071014131554593,-0.7146462807667999
0.67578125,-1.2105556385655023,2.040204564445282
0.6796875,1.088841810699023,-0.7931591416080911
0.68359375,-0.8411783578373608,-0.5926153308797718
0.6875,-0.35317614814756293,1.8140498808797594
0.69140625,0.06283330953250417,0.0009654427072201748
0.6953125,0.8479825712368074,0.9933238135614353
0.69921875,-0.5744682003598985,-0.5781499560111995
0.703125,0.6243370106047929,0.21903874805084322
0.70703125,-1.554194778949149,-0.6767554681041444
0.7109375,0.18459986577860543,0.33206684658367586
0.71484375,-0.5200654325985363,2.2261289401392297
0.71875,0.20551287734683613,-1.7622473896628874
0.72265625,2.116747006796571,-0.9435438899677269
0.7265625,0.2923744182378295,1.5576842573772265
0.73046875,-0.05236365736595695,-0.3634049496867753
0.734375,-0.23138526964851533,-0.6765310163893267
0.73828125,0.6020646775477346,0.7476137494294864
0.7421875,-0.09089917784602387,-1.1295793040699218
0.74609375,-0.18684923098066347,0.6784861956519606
0.75,-0.7802936973436378,-0.6436667134796221
0.75390625,-0.18630865678114883,-1.7938632106411656
0.7578125,-1.263030596702014,-1.3656361698523347
0.76171875,0.4401112774668855,-0.9331376096787908
0.765625,0.34601246652956935,0.7860291201520314
0.76953125,1.6169250973288256,1.5448893592688122
0.7734375,0.5139834698603621,0.5291638789254833
0.77734375,0.8458872427690574,-2.6750051145689677
0.78125,-0.9904705392648389,-0.27484846520094564
0.78515625,0.1469583562836363,-0.005987158163671695
0.7890625,-0.03306875103651368,0.9777162552592856
0.79296875,-0.2658374313327392,-1.0528339783966976
0.796875,0.825069002412929,-1.117046624719112
0.80078125,1.2804173742589169,-0.18001454699467798
0.8046875,-0.19736079749881855,-0.18248922166741827
0.80859375,1.0511249756239422,0.904900429252206
0.8125,-0.459476760657637,-0.12684193020676673
0.81640625,0.11277478917830205,-0.11511184990445728
0.8203125,-0.008400366185070972,1.3362090082092855
0.82421875,1.8710014518966858,1.0741315979824395
0.828125,-0.08109502219919325,-0.17432612614786921
0.83203125,0.712615537814277,-0.9275639751447188
0.8359375,-0.468887781533342,0.48764865276096564
0.83984375,-0.15304544605009557,2.0625852794566577
0.84375,0.5842334120560031,0.4784969587811443
0.84765625,-1.1024754892097681,0.9274515908534033
0.8515625,1.3653398172357571,0.7879806087439589
0.85546875,0.4811810107844911,-0.9221310780688468
0.859375,-0.8839845903784602,0.9016730842135149
0.86328125,-1.6064446452042798,0.991345876971951
0.8671875,-0.12531543117226726,-2.0169273374877896
0.87109375,0.6391865558918254,-0.8228960031479313
0.875,0.5635478414111051,0.1993942399631996
0.87890625,-2.3910266391548314,-2.933984327879304
0.8828125,-0.5770804487529386,2.1232624631566415
0.88671875,-1.1902545399850428,1.0386320336595682
0.890625,-0.4818217585346211,0.1813234962954356
0.89453125,0.8769445177878394,1.4474007114185157
0.8984375,-0.345106220925761,-2.1708186598727313
0.90234375,0.6431373036875494,0.5026770987219507
0.90625,0.03547818368173991,-0.5449555966607278
0.91015625,-0.32590310395035915,-0.4309263543073827
0.9140625,1.2262334985126284,0.37957843142923425
0.91796875,-1.1491492927407945,-1.24800751168326
0.921875,0.8072527384533774,1.7468886550982505
0.92578125,-0.4598570225604149,0.8522545852006012
0.9296875,-2.333112431107055,0.8909211559381024
0.93359375,0.16692254246934696,0.10128850160527882
0.9375,0.7895927394459709,0.3598570026906162
0.94140625,-0.5850226669253811,-0.08100214518387745
0.9453125,-0.7050394444348423,-0.35696393768086604
0.94921875,-0.49208573303195485,0.6261341606245729
0.953125,-1.3202744505526642,0.7071832994875462
0.95703125,0.22795278355905577,-0.8269581363571118
0.9609375,1.3482191787058886,-1.1002614001900513
0.96484375,-1.835379553003933,-0.8379001966365864
0.96875,-1.3126747774306957,1.452159660956015
0.97265625,-0.16760755459640525,2.653539156342406
0.9765625,0.26325517039163976,-0.2929473978723684
0.98046875,1.8666917381262542,-1.3818133594301534
0.984375,0.32754543797841185,-0.7877344103397048
0.98828125,-0.9560462329013667,-0.6855105957109526
0.9921875,-0.2654026651485613,-0.07385590830318442
0.99609375,0.01561823693700583,1.3765442943423438
1.0,-0.050271642868078864,0.17443413165094432
1.00390625,0.4700527498507894,-0.1936315066239416
1.0078125,-1.0254447753838316,-0.3074577988041361
1.01171875,1.730684243857154,-2.0665633255663245
1.015625,0.09711945612579533,1.390745129326704
1.01953125,0.5982813117756723,-0.0017845689416426814
1.0234375,-1.3992906016355706,-1.127505983723321
1.02734375,-0.9150450947281171,0.8146877594392006
1.03125,2.0304664430431076,0.6190525674036566
1.03515625,0.07828401009382584,-0.9402905440531286
1.0390625,1.4185581784464858,-0.6874543636687522
1.04296875,0.8492659243019441,1.934526248556743
1.046875,1.1439255943215372,-0.09612073075783159
1.05078125,0.09921533651329523,1.9843805724382806
1.0546875,1.621828776991863,-0.010638296144970468
1.05859375,1.2235646880449795,-1.828753027065166
1.0625,0.39173593878545543,0.7032703498102345
1.06640625,0.13530550777980613,-0.2828047646950855
1.0703125,-0.06237004190045654,2.369278249559806
1.07421875,1.0644788999789603,0.477229540123228
1.078125,-0.45066549298342934,0.7056908086295198
1.08203125,-0.11424616698559932,-0.8812100411156536
1.0859375,-1.7169930385363668,0.15724821764854915
1.08984375,1.1754908404622952,-1.645878963105187
1.09375,1.1834566594116822,-0.3709383102922201
1.09765625,-1.3286649542524618,-0.09821030937373224
1.1015625,0.5750292666048749,0.1481394032760537
1.10546875,1.2646365635344192,0.2501770090656424
1.109375,-0.6041427753221964,0.37360969057710663
1.11328125,-2.288221124555878,-0.6948000384183126
1.1171875,-0.5239767826108552,-0.5698670059622151
1.12109375,0.8166858743946442,0.6570986141031038
1.125,0.1398300309437187,-0.8054685524773416
1.12890625,-0.09081875372122884,0.0691833962079065
1.1328125,-1.308485749990768,0.7303315172586462
1.13671875,-0.9430821716238186,1.2552292838234578
1.140625,0.20870447860836538,-0.7450836109822762
1.14453125,1.3063667367027365,0.6012569529161186
1.1484375,1.1583449140749547,-0.08377495639044592
1.15234375,0.07313032445940712,-0.4600686993129143
1.15625,0.16528261800344887,0.3336615538513029
1.16015625,-0.8029611879568309,-1.0613939790165992
1.1640625,-0.11174160640989066,0.21391364127620374
1.16796875,0.673921996214341,-0.008516404566585763
1.171875,-0.013404207525420622,-0.7436952479294612
1.17578125,1.3595900856105776,-1.3323972310019139
1.1796875,0.10690081731320955,1.444207071416718
1.18359375,0.0357638392792977,0.1765758820334629
1.1875,1.8106530499234554,-0.022045760739269397
1.19140625,-1.6488744127363233,0.49774250450614604
1.1953125,0.3683465255719162,-0.7159684484367028
1.19921875,-1.2868272672542072,-0.6706763697400396
1.203125,-0.25205543286843013,0.3744200590664127
1.20703125,0.04452817721570349,-0.3820102156004996
1.2109375,1.6047931957727366,0.32788861403698455
1.21484375,-1.353923748757148,0.39279688415718794
1.21875,-0.7407437233537361,0.5126033332936305
1.22265625,-0.2654668358040298,-0.04189286176194299
1.2265625,-0.8277394847176964,0.39173481392442777
1.23046875,1.6408763963308528,-1.065543945551696
1.234375,-1.1138548726181838,-0.6768022282354608
1.23828125,0.5544106534357196,-0.8119000014352555
1.2421875,-0.6455823206666372,0.4522366623252097
1.24609375,-0.3044548365223084,-0.1456477402012111
1.25,0.25672332458463415,-0.2977533326399665
1.25390625,0.401909897648605,-2.1518455715902696
1.2578125,0.6051828369792599,-1.0538548308517912
1.26171875,-0.46761475216822357,1.5064939366064054
1.265625,0.28301285712842167,0.3146805298604817
1.26953125,-0.1357491326012149,2.206029410699392
1.2734375,-0.6049554542077993,0.5132455882809838
1.27734375,0.28877681723484294,0.3622028149489886
1.28125,1.6564732237263877,0.37023105926627853
1.28515625,-0.3648062522975061,0.08129392507924066
1.2890625,-0.6147032077649685,-0.6694281915507315
1.29296875,1.0867825981037493,-0.5861487165617613
1.296875,-0.41419445391816473,-1.1698781711836037
1.30078125,-1.2183963449518511,0.162349216994425
1.3046875,0.8462901983693945,0.1819289544391272
1.30859375,-0.12241341827965778,-0.9122972839725552
1.3125,-0.0015230780146697452,0.12558985034251915
1.31640625,1.0676686809462994,0.4791756231871874
1.3203125,-0.6655867779257791,1.0038608467168566
1.32421875,0.3417432087635287,1.2477490018976658
1.328125,0.09878031284775603,-0.6489739341772347
1.33203125,0.3585773322982336,-2.774710142714101
1.3359375,0.19405076935441185,0.16828220822308657
1.33984375,-1.8154606304889953,-0.5231489687865272
1.34375,1.3610530472351725,1.1023845927159048
1.34765625,-0.9980795275750574,-1.8616026840224946
1.3515625,0.28192213080653,-0.6170714684270172
1.35546875,-0.8454027104817089,-1.5983636285828167
1.359375,-0.5020299899735684,-1.326048519854753
1.36328125,-1.3873214323154204,-0.7148291093745087
1.3671875,-0.20095625071204748,0.6656765134446293
1.37109375,1.281482543766156,-0.697444527181219
1.375,-0.16113831329876177,-1.305922165099545
1.37890625,0.6132476322976657,-0.8514872991353605
1.3828125,-0.019055631107377097,-1.4204657616528955
1.38671875,1.3395028826514455,-0.15004824231727754
1.390625,-0.7950389982602364,-1.3072570475916232
1.39453125,-0.3530477371846819,0.35900219685233764
1.3984375,-0.27713749005580796,1.0581808889626954
1.40234375,0.9594077644679121,0.08751329394943777
1.40625,1.215153891754138,0.1015197376411811
1.41015625,-0.938432115490191,1.0328437629782186
1.4140625,0.5240810134000254,0.8240577336360903
1.41796875,-0.8203367766327849,1.2011486443491903
1.421875,0.5613311298135691,0.6217831754332687
1.42578125,0.8226360428880668,0.8663080254822031
1.4296875,-0.9475482790188663,0.3028262396832271
1.43359375,0.2001713202001973,-0.7946140179004433
1.4375,1.091971505618295,1.900511126329196
1.44140625,1.2459001459950456,0.9722255368720398
1.4453125,0.014740902836831472,0.14261708856648453
1.44921875,1.4223637986051334,-1.68905813224599
1.453125,-0.2827758998872124,-1.0676037420228508
1.45703125,-1.2952040496149262,-0.694099025784932
1.4609375,0.3022847963169581,0.7212118302296485
1.46484375,-0.5683315195855179,0.1930462305791835
1.46875,-0.6175040697749792,-1.2306711237909658
1.47265625,0.7904304023791736,-0.7417549333884385
1.4765625,0.5969851244547563,0.17133684626374748
1.48046875,-0.21436376372752394,0.6210751733743647
1.484375,2.0311228409281123,0.8493911432614135
1.48828125,-0.3119227695330302,0.5667240636594232
1.4921875,0.03715025325814264,0.5299126148054907
1.49609375,1.3826689557851233,-0.4121540619914313
1.5,0.46207108164205857,-0.4673146665767749
1.50390625,0.9168790486241054,-0.16915304999034395
1.5078125,-0.05302401975213009,-0.031136401410155893
1.51171875,-0.17838007102988546,0.33811374486847906
1.515625,0.27625306909344444,1.4367693175798448
1.51953125,-0.3557491088800702,1.0429316293353499
1.5234375,-0.33409912584776547,0.37591797120293274
1.52734375,-0.8275702208597584,-1.403122054867298
1.53125,0.2208136888884745,1.2626540981648966
1.53515625,0.0559975904036301,-1.5777968109297666
1.5390625,1.8302812932966,-1.8020520479993163
1.54296875,-0.4503578344173779,0.09707345723276198
1.546875,-0.23919148252689415,1.7156304040480996
1.55078125,1.4620465061334942,1.6464000727340813
1.5546875,-0.32100869522807673,1.7618040281115306
1.55859375,-0.00566872590333961,-0.6503445035728029
1.5625,-0.4677529549343185,-0.3534823349449192
1.56640625,-0.19479000470778762,1.2428060187659888
1.5703125,1.276848978933999,0.04840004342103432
1.57421875,-0.24131088060820602,0.40930197197245927
1.578125,-1.045998065491955,-0.6787099291520337
1.58203125,2.172294543714244,-1.19763412055165
1.5859375,-0.9653034835431102,-0.6668537635003529
1.58984375,-0.16569100599270203,-1.2934447488506804
1.59375,0.5165470862203864,0.07840864702467037
1.59765625,-0.38628789255480583,-1.960606955003427
1.6015625,0.10335009687994338,0.8358629015235396
1.60546875,0.37528208979392974,-0.05539947677405152
1.609375,2.5708813845588425,0.9595891298996656
1.61328125,0.6717177490947308,-1.1449101169592402
1.6171875,-0.15998200813036767,0.39921215297558704
1.62109375,2.119468102302614,-0.08437278423879796
1.625,-1.054348818889942,-0.6155375253937375
1.62890625,-0.013912872029467652,1.3616627834614798
1.6328125,0.7980963702356958,1.478171266942417
1.63671875,1.297794762467254,-0.3072513235953262
1.640625,0.4122133361608836,-0.3583132710915495
1.64453125,0.8047516550136103,-0.540373915914686
1.6484375,-0.7336307558610318,0.05243717470796379
1.65234375,1.2483280866766746,2.340073486027925
1.65625,0.36336167219276894,0.290342362699567
1.66015625,-1.0957286829584794,0.6381072158013372
1.6640625,1.4690784710150349,0.9225413364842726
1.66796875,1.4865717390826465,-1.9015315241159343
1.671875,-0.16746412287869797,-0.11977300541172649
1.67578125,0.6662113507181234,0.5117326244920067
1.6796875,2.4151675169646545,-0.26005881678931403
1.68359375,-0.6385770882030357,0.3145274539179987
1.6875,-0.30964230243618956,-1.1899020011978332
1.69140625,-0.971729622985016,-0.29973631183353805
1.6953125,1.4618380425718176,1.6709487283702829
1.69921875,0.7055061740249008,-0.29075017720848717
1.703125,-0.12101140813524303,-0.6239364569480738
1.70703125,0.34758641669246665,-0.5930793771583253
1.7109375,-0.6583747698523985,1.011153077237129
1.71484375,-1.0197667046266619,-0.061914819456492076
1.71875,-0.1615357355866426,-0.49239047576168976
1.72265625,-0.2363542332493451,-0.942258570650547
1.7265625,0.05066475480924494,-0.5202370084507382
1.73046875,-1.5557413706060375,-0.0221432557976121
1.734375,-0.21972002821928152,1.7752040108264775
1.73828125,-1.603489134443458,-0.001462831674628823
1.7421875,-0.6689997763112193,0.9971349136526866
1.74609375,0.41171861547026317,-1.2418763149218646
1.75,-0.03771944700636194,0.7153673421843887
1.75390625,1.0870466602818212,0.1407495477726695
1.7578125,0.7503700892384267,-1.6718843736283389
1.76171875,1.1374227112207371,-0.2790153117750197
1.765625,0.9390634845236765,-0.16531013312742163
1.76953125,-0.20980835471465578,-1.4883637199943553
1.7734375,-0.3362117636135668,1.3117006431823264
1.77734375,1.0328652332034578,-0.4630790091045406
1.78125,-0.07520783251897552,-1.5323537983135977
1.78515625,0.3529926276271989,0.9115863748148904
1.7890625,0.39391743128153234,0.5539214478661648
1.79296875,-1.6130467801665611,1.1567797213119309
1.796875,-0.4826050432072479,1.8431555094698493
1.80078125,-2.0136367969225923,0.4657688416486013
1.8046875,-0.12136949372069172,0.7886477581189747
1.80859375,-0.713709032477205,-0.6536692415893075
1.8125,-1.3348548690751665,-1.0786485675418689
1.81640625,1.2175933786324937,0.22810753985402926
1.8203125,-0.39448038398015,-0.8749768334372208
1.82421875,2.01134143805141,-0.11441482301324143
1.828125,-0.685875468716644,1.4781210705289298
1.83203125,0.7594912627453957,0.515011328992485
1.8359375,-2.023737227194064,-0.12662627322585226
1.83984375,-1.0283117915066153,0.00511657065576869
1.84375,0.3705853234857132,0.7867526160992648
1.84765625,1.9653939214383909,1.7290259021287746
1.8515625,-0.936800915285462,0.0560384651096223
1.85546875,1.2856349723694174,1.1854823697719301
1.859375,0.3136697599728504,0.7933148650420682
1.86328125,2.4958155602526046,-1.3025871150540167
1.8671875,-0.39332814247108766,0.08240879505969712
1.87109375,0.273131384645972,-0.6391257598865937
1.875,-0.21191537865756283,-0.6620051276405591
1.87890625,1.5777820037882384,0.4674027228843414
1.8828125,-0.658468500101814,-0.40068854787723945
1.88671875,1.2992528073732854,-0.014999143533198112
1.890625,1.6431269426375452,1.9842288933890178
1.89453125,-0.24947108424140618,-0.4319190773684073
1.8984375,1.5511675547609847,-0.22895960895880638
1.90234375,0.7277593123096295,-0.05089318382876319
1.90625,-0.08583375249996479,1.148510212472629
1.91015625,1.543461822778789,-0.27963126261496063
1.9140625,-0.8154337408645721,-0.5128483864585306
1.91796875,0.2765783835321664,1.0245214456796665
1.921875,0.8397033545493565,0.1638599168872846
1.92578125,1.2887718094450353,-0.41547008302143185
1.9296875,-0.4581745801616192,0.6640052531221672
1.93359375,-0.24193301293294206,1.2052920659675064
1.9375,-0.5722184942844595,0.9255765505976901
1.94140625,-1.3403220677569332,-0.24360946945413553
1.9453125,-1.4294621869102162,0.803823898043528
1.94921875,-0.856781341948392,-0.9716086185866925
1.953125,0.48320085688771147,-1.3447545022520901
1.95703125,-0.8224038757612621,-1.3468824143368945
1.9609375,0.07053532914271228,0.5083220047076045
1.96484375,-0.000815755316768576,-0.8132665679845601
1.96875,-0.6871409322708013,0.555485001429457
1.97265625,0.04337432772046872,-0.4880804397568009
1.9765625,-0.4464270034616519,1.1700334516854536
1.98046875,-0.19493118873748094,0.21598294774571722
1.984375,0.37210481572874177,0.6794737727592041
1.98828125,0.5225165811024041,-0.015544278769419358
1.9921875,0.53481290704697,0.0961014588639356
1.99609375,0.6909701586744036,0.2704344796976944
2.0,-1.2036821300080411,0.46500453625380433
2.00390625,-0.11662517089342724,1.0568523947201538
2.0078125,0.3743705251599294,0.48847113802337483
2.01171875,-0.7177349699585237,-0.7218441087864191
2.015625,1.4121785560600335,0.46405044068164686
2.01953125,0.7593332144160322,-0.14396458185125113
2.0234375,-0.10114294407724284,0.7723094286972768
2.02734375,0.07327959910323421,0.4847979088551688
2.03125,1.5372684716006666,-0.3091618620400501
2.03515625,0.2672622833430053,-0.858344407915553
2.0390625,-1.2002832304893685,-0.9537868098633651
2.04296875,0.5738878965219297,0.7807432401247352
2.046875,-0.0592943279220745,0.8180126669389987
2.05078125,0.026691396624620296,-0.19149989950181578
2.0546875,-1.9890526804940711,-0.5472794178968196
2.05859375,-0.22678267919757747,0.8822813664272606
2.0625,-0.9009087841145436,0.4595313957026454
2.06640625,-0.42240745240321875,-0.03338589681639564
2.0703125,0.9532322805848271,0.47392084422277514
2.07421875,0.14986957916654323,-0.12822592799940108
2.078125,-1.1393217332874503,-0.46766882790874303
2.08203125,0.7339234924319149,0.5889560237000645
2.0859375,2.2871748740388487,0.2653339934131861
2.08984375,-1.2986828596906723,-0.4268241019219011
2.09375,0.00868649230064032,0.372019082184623
2.09765625,-0.7905921867228604,0.6489054430538181
2.1015625,-0.3129995502133649,0.5453579132048412
2.10546875,-0.0007823217669692817,-2.300286613255419
2.109375,0.9300945891166109,-0.19547994205332747
2.11328125,-0.6362466613966716,0.3069768141860508
2.1171875,-0.8555474369183257,0.6396238521701044
2.12109375,-0.8230697885081427,-1.2154132028101254
2.125,0.3107364053590803,0.24020782857705325
2.12890625,-0.3541336466829691,0.22509573605298194
2.1328125,1.46830338426316,2.197512471515517
2.13671875,1.761443287080228,-2.067265117493563
2.140625,0.5046954387070395,1.0750945211802743
2.14453125,0.6803583506550724,-1.2813767079897544
2.1484375,1.0667162504597762,-1.6947116346472764
2.15234375,-0.02689679345623788,0.11241800722132918
2.15625,-2.5368278406359916,-1.6134168201029788
2.16015625,-0.6458473844781503,0.5747633172079074
2.1640625,1.2373460062233974,-0.10895487434340291
2.16796875,0.4749522941657077,-0.9578019629674593
2.171875,-0.20408607356230327,0.869195526370711
2.17578125,-0.977166213190103,0.789469901986384
2.1796875,-1.5053743980142975,0.0165712657205587
2.18359375,0.6257368234955231,-1.7425491368163897
2.1875,-0.2970100450359908,0.48030496406440926
2.19140625,1.7110227707895913,-1.3960842732567742
2.1953125,-0.39204069411766085,-0.2407970751382542
2.19921875,0.09330892194588268,2.370514674366617
2.203125,0.783192231026878,-1.713666595545797
2.20703125,-1.687936903621264,-0.11683594094915072
2.2109375,-0.31885691628408563,0.8493396425039977
2.21484375,0.2463892429969614,1.0195515067196228
2.21875,0.21632506810739627,-0.7534963751067836
2.22265625,0.036641118043679664,0.30895130614601163
2.2265625,-0.7163689112109803,0.6044763764533415
2.23046875,0.7360475947732508,0.0759004393952041
2.234375,0.02183614503689188,-1.5301158728353297
2.23828125,-0.6410122222588694,0.5146650369329079
2.2421875,0.0073370812138257935,-0.3759546828283261
2.24609375,0.7925429932846628,-1.8702760037347779
2.25,-0.03699825907879036,0.7078094459089621
2.25390625,-1.5928794783966596,-0.5455760116352402
2.2578125,-0.5945625835421917,-0.4929525899394709
2.26171875,-0.8627284190140293,0.3848011354735642
2.265625,0.9741454882753414,0.5370490665635361
2.26953125,0.9412450298457212,0.42428145803677336
2.2734375,0.472917032228758,1.5188761398863981
2.27734375,-0.975673498015021,-0.18055293343660495
2.28125,0.552747105795657,-0.1774045746456307
2.28515625,-1.0135619408098064,0.6363029549197561
2.2890625,0.029880106054174675,-0.6982805365438558
2.29296875,-0.8743186478678635,0.3978068712263111
2.296875,-1.5137126486977184,0.3310379679336587
2.30078125,-0.1289077088471563,-0.3271941514913217
2.3046875,-0.902760119548199,-0.08806915279164552
2.30859375,-2.0061470235281713,0.3813286764075023
2.3125,1.2377288308215204,-2.701433465120415
2.31640625,0.8817626944382911,0.20096980767080216
2.3203125,-1.186605589320342,0.8562368672311407
2.32421875,-0.3138355956266012,1.2500680519313496
2.328125,-0.4879135156786996,-1.577622359878314
2.33203125,0.04884877433398489,1.1342561987118651
2.3359375,1.5878798873557363,-0.3934143361011406
2.33984375,-0.32790799427138934,0.19503303388308668
2.34375,-0.8920862791026701,-0.012750964351542967
2.34765625,-1.421703697324335,-0.3074644997208619
2.3515625,-1.5523962497511814,1.4915359223492142
2.35546875,0.4091322553887085,0.021471144302222526
2.359375,-0.2025867162930358,0.4112827425434118
2.36328125,0.32918250009978123,2.050993600791186
2.3671875,0.2806731643621079,0.5070103580105926
2.37109375,-0.8436782339157076,0.3217170111249007
2.375,0.6488575163351115,0.4842003140871536
2.37890625,1.0631812072454905,1.625465014301755
2.3828125,-0.804842691226176,-0.5716425490339909
2.38671875,0.858129459062394,2.4725707559212418
2.390625,-0.634133801667558,0.4723002591571704
2.39453125,-0.31589602752064805,0.41318075536153054
2.3984375,-1.0276034084919654,-0.7921805576288464
2.40234375,0.5752207280586646,0.6233983781702271
2.40625,0.3523277374232435,1.2916698756403822
2.41015625,0.788258587084884,-0.4694381314994582
2.4140625,1.3305409567980633,1.188992342799625
2.41796875,0.4644432673551335,0.2927677562452366
2.421875,1.2807532565609863,-0.7777027676535307
2.42578125,-0.07769651798576747,0.7418564560334963
2.4296875,-0.12011055907110627,-1.3447284618627091
2.43359375,-0.19168392364178943,0.29746712552806187
2.4375,0.5566866993521742,0.711880350725681
2.44140625,0.5044918522533787,-0.14344555539085893
2.4453125,-1.4629936259510783,0.7829591719006695
2.44921875,1.0761548933885527,-0.8758642842393092
2.453125,-0.6168104666154354,-1.306714598204634
2.45703125,-0.1299482235493584,-1.4017685809701557
2.4609375,-1.2258484541394343,0.17747265400955373
2.46484375,2.2110294418936745,-0.5947454097818504
2.46875,-1.0382640054512053,-0.31094696759062757
2.47265625,0.8372044327362271,0.708658962601805
2.4765625,-0.22506380578225238,-0.8564064993742743
2.48046875,-0.024451259826035,1.0591106602974016
2.484375,1.043530434790659,-1.049130315098216
2.48828125,1.3802682313308492,0.6246396704158347
2.4921875,-0.1595313658152454,0.04007975315513437
2.49609375,-0.10238790979926284,0.15899632313375645
2.5,0.9555346427722751,2.599906047712552
2.50390625,1.114552361164044,-0.5538175549245541
2.5078125,-0.7843134518905709,-1.3348263937584883
2.51171875,3.072661894481402,1.9373216875749946
2.515625,-0.35933901775143745,-0.7720458305660285
2.51953125,-0.8498023757353965,0.9375308943598095
2.5234375,-0.19759884182173448,1.6165804888506423
2.52734375,1.1879680496459475,-0.5979342085711054
2.53125,0.074637615525419,-1.2486977399356602
2.53515625,-1.5297024254379668,-0.6987663794629113
2.5390625,0.8696728721263213,-0.6380660855345531
2.54296875,0.750993881045838,0.3019242242215442
2.546875,1.775075777969002,0.24600524503075333
2.55078125,1.5439770679240887,0.181191290911392
2.5546875,1.2522337304945657,0.6878982963405389
2.55859375,1.0817761395523318,-1.0488364471373117
2.5625,0.2079030180992046,-0.7155012461661986
2.56640625,-2.316401746459072,1.1240552206556846
2.5703125,0.8450268588224148,0.5943357268259524
2.57421875,-0.4299901947545379,-0.4425193803309621
2.578125,-0.6889065331537769,-1.2370813157670506
2.58203125,-0.25163582666593587,-2.169844656750781
2.5859375,0.6632676505206145,0.015755561276300078
2.58984375,0.3985368258417291,-0.4581560269850189
2.59375,-0.012112193577622147,0.10378443417720358
2.59765625,1.113520105680995,0.10391468316086284
2.6015625,0.2974667644216104,0.0008946660444227387
2.60546875,-0.7993499080246452,-1.6016441579032303
2.609375,-0.39676489349471633,0.5403618844515531
2.61328125,0.8145288631838703,0.8498455300757511
2.6171875,0.8955005340161661,1.4574858859494166
2.62109375,1.3444066086396522,-0.34750529345514547
2.625,1.2559265408074367,-0.3767143968336884
2.62890625,-0.3661019263172265,-0.8342713763992674
2.6328125,0.08964085782240327,0.9069309269691953
2.63671875,-1.2370957808863694,-1.1746303181615183
2.640625,0.6006718641778679,-0.5629937077479675
2.64453125,-0.3516111265648794,-1.2734487025015047
2.6484375,0.5684801813146843,0.19190630693395636
2.65234375,-0.3501414290262224,-0.7164169049386031
2.65625,-0.9593351230036851,1.2570592947419963
2.66015625,-0.7765102145150735,-1.0368703827406403
2.6640625,-0.26510989690178743,1.1136099389535725
2.66796875,-1.5311170948963522,-0.34223237223393294
2.671875,0.23520328527457493,-1.1774232448287334
2.67578125,1.2769343512621503,-1.4820406914085744
2.6796875,-0.748322504778757,-0.1379109048633147
2.68359375,1.1955447642880708,-1.5899497776933593
2.6875,1.4721633866292256,-0.6678158495253478
2.69140625,-0.23854953823746922,0.3124428244115817
2.6953125,0.8346647374123077,-0.7296145133551656
2.69921875,0.010725262249556881,0.6514526403742746
2.703125,-0.49142442825052507,-0.2885673255148933
2.70703125,-0.19455256344963437,0.6735640392659834
2.7109375,1.6846985381760917,-0.6298540720428891
2.71484375,-0.4828281442166986,0.7208557851045329
2.71875,0.39686389183228443,0.4594491417321337
2.72265625,0.4044980840347808,0.8688216734899578
2.7265625,-1.8276438145655887,0.07679736260464068
2.73046875,1.2001014803588248,1.5890979826311058
2.734375,-1.0771201774380539,2.1966308015097415
2.73828125,0.7581073269905719,0.442417256940872
2.7421875,-1.046424366331822,0.46658456500268425
2.74609375,0.44052943891232843,0.8366761718224884
2.75,-0.14612110959811545,0.6433171241112132
2.75390625,0.497988401956255,0.0487945851456885
2.7578125,-1.0736147988357363,0.16281540716732837
2.76171875,-0.3042912532729294,-0.24813195779183236
2.765625,0.4906448353895608,0.929904560523817
2.76953125,1.8238781180450587,0.2019983868082586
2.7734375,-0.5205703499173986,0.7567013397974799
2.77734375,0.9806274944181532,0.38871130332942316
2.78125,-0.8366445916150556,-0.6635842678531008
2.78515625,0.8190252257856946,0.17394462399429067
2.7890625,1.0042894464436007,-0.4078698269025462
2.79296875,0.06011424806123916,-0.8860351451589952
2.796875,0.23479948917656512,0.08800120291123793
2.80078125,0.4830482714693451,0.7112434017273824
2.8046875,1.1581666568349984,1.1466272861906481
2.80859375,-0.4649536351911697,-1.0327044485842494
2.8125,-1.6010849774974072,1.6815645758626845
2.81640625,0.7965101190046608,1.1003902980222695
2.8203125,-0.6645215413718523,-1.4094017143083446
2.82421875,-0.6571655423497228,0.8640801005017442
2.828125,-1.113003710700417,-1.3523868298700779
2.83203125,-0.41181956944810144,-0.4339279618407321
2.8359375,1.371120752281255,1.0192551150002462
2.83984375,-0.38248335425391533,0.8354993399059268
2.84375,-0.48015151899420655,1.052605512868839
2.84765625,-0.9178546586151872,0.7231694237497557
2.8515625,0.13728917060495982,2.2099621411673716
2.85546875,1.6001276789854102,-0.8704162063812535
2.859375,-0.45802742283236647,-0.5913488458487293
2.86328125,1.977645565102456,-0.6149468586186202
2.8671875,0.2558033246438008,1.0684580097787026
2.87109375,0.1780671045458406,0.13442490895448372
2.875,1.0616147410288586,0.07613088834722924
2.87890625,-0.9464884396373578,1.2681238350529846
2.8828125,1.1863585828392957,0.2155614159519178
2.88671875,-0.20908132935169535,-0.1689698416501652
2.890625,-0.3274511303270165,1.1222824365438824
2.89453125,1.1925472838710947,0.6108499488106809
2.8984375,0.288007270275174,0.08198097775750945
2.90234375,0.2943159993935024,-0.5179252907919042
2.90625,0.2650946127925406,0.6616352700558338
2.91015625,-0.34694173505435466,-0.4261846782924105
2.9140625,1.9558601985856658,-0.5913405583438469
2.91796875,-0.20902216485030067,0.5708622088163658
2.921875,0.40254973978465647,-0.4476466426935231
2.92578125,0.9111054663227752,-2.1453482558888015
2.9296875,-0.30852731438534065,0.4660867408751412
2.93359375,-0.967288022427662,-0.9523926711853024
2.9375,-2.1844765577461223,-1.5141371821329959
2.94140625,0.19494147763289366,-0.42155043726172803
2.9453125,-0.46468732937939233,1.2824800531216558
2.94921875,1.1078858529413114,0.10942489703789857
2.953125,1.0157415349118175,0.1291089151442623
2.95703125,0.28696446466016945,1.8000890916455972
2.9609375,-1.2831748266197982,-1.6667432307755694
2.96484375,-1.5718672042506634,0.6126878526848317
2.96875,-0.7191026630936034,1.0503793329456246
2.97265625,0.11165912332740283,0.9707521379656789
2.9765625,0.07312824640415584,-1.031809560262202
2.98046875,1.1102481863329596,1.9288435535622073
2.984375,0.2241621917826098,-1.694691294813086
2.98828125,1.2431660790975576,0.208954415533624
2.9921875,-1.1236684249131208,-2.477193318176619
2.99609375,1.1159325784841592,-1.1419562683831372
3.0,-0.10860787753762602,-0.24830878660125755
3.00390625,2.0027896196980173,-0.7754545124367864
3.0078125,-1.627770236682077,0.9586487148384892
3.01171875,0.10787667567193247,0.18980629814591102
3.015625,-0.7661217441916595,-1.7241500926158893
3.01953125,0.411773393268188,-1.6071195510929042
3.0234375,0.9312368431269388,0.4871093747980145
3.02734375,0.45003170422965644,-0.5958035977767594
3.03125,0.30212414708027113,0.24377084425226445
3.03515625,0.4312834004277685,-0.8754027328490597
3.0390625,0.22631987026599837,0.3594018216598956
3.04296875,-0.8750661681014464,0.36653333673962923
3.046875,-0.6909497130642603,-0.22126461041883985
3.05078125,-1.5433990040258956,-0.7648476533019084
3.0546875,0.1563842149519292,-0.7561653444113537
3.05859375,-0.15712475025335737,-1.3671071579651004
3.0625,-0.7079143316929313,0.00498557664284445
3.06640625,-0.36259803280532016,-1.6570021570875924
3.0703125,0.47437708794432026,0.08049299954153806
3.07421875,-0.9179157146211411,0.7291400970915708
3.078125,-0.6617457333244022,-0.36311150506054213
3.08203125,0.30075681393825715,-1.6025459664957222
3.0859375,0.07292954456913725,-1.3151489271730656
3.08984375,-1.796765911524716,0.20769081301104259
3.09375,0.21742198510394986,-0.49138637394068463
3.09765625,0.4460808122020972,0.7265474833001961
3.1015625,2.5239861057523165,-1.2268593985716598
3.10546875,-0.6861852591967104,-0.6123908277471092
3.109375,0.2045414760727547,-0.6850940552590397
3.11328125,0.8840889003797437,-1.1040890827918812
3.1171875,-0.5033428776679871,0.1099009171264178
3.12109375,0.14030695971823914,-0.3952967676810506
3.125,-1.1502889249105988,-0.8626193647033855
3.12890625,1.2909918515740275,1.6036664883247014
3.1328125,-1.7484014740269456,-0.23230185517015686
3.13671875,0.531878129253298,0.030111722592681165
3.140625,0.2950626177973314,0.9719333386765576
3.14453125,0.8472827447089133,0.051323266176167864
3.1484375,0.22503217015585764,1.5169396483394157
3.15234375,1.4094017980547224,-1.014006382025578
3.15625,0.42159533407695987,-1.0814535141577106
3.16015625,0.3597231622795994,-0.13952284038005372
3.1640625,0.5996039554960719,-1.4714234766451226
3.16796875,0.6220334660169756,1.1172882921054648
3.171875,-0.608325417905259,-0.9991969357645097
3.17578125,-0.13917951169813808,-1.5342532768434047
3.1796875,0.8935265134653543,0.8161583932143418
3.18359375,-1.3250179718020767,-0.9106312594086419
3.1875,0.10407729213566362,-0.37676842385458775
3.19140625,0.5332577882716187,-0.2375014738865548
3.1953125,-1.4256783540322961,-1.0843874115744097
3.19921875,1.254070446831084,2.7661520503044783
3.203125,-0.2483253461704484,-1.4286756634525626
3.20703125,-0.04157601116345753,0.02573102797224678
3.2109375,0.1467145962430042,0.5539553281405568
3.21484375,0.5837572106472717,-0.23508457330032406
3.21875,-1.7483590159372733,0.22098528980429624
3.22265625,0.921631419585433,0.787673004500371
3.2265625,0.35887292048964264,1.1956148597338103
3.23046875,-1.2440277025635147,0.9837027483895864
3.234375,1.567745812990812,0.0013081834442089867
3.23828125,-1.2248511161101876,0.04188539732305166
3.2421875,-1.541054762185837,-0.9951479745566214
3.24609375,3.3276705320839484,-1.5628419358440055
3.25,0.13774835661083823,-0.7181397154213726
3.25390625,0.7988818560449661,-1.2410879416630811
3.2578125,-0.12564916184589986,0.2216115977486483
3.26171875,-0.5994217924686864,1.2301053239682336
3.265625,-1.3323901505184133,-0.04186458892936735
3.26953125,-0.4528267645036543,-1.1058217480711987
3.2734375,0.42485688821939277,-1.040793107000036
3.27734375,-0.5678414288227124,-0.8027263887001891
3.28125,-0.6306416381575597,-0.5684909409681012
3.28515625,-0.31649328504147795,-0.8827218145592914
3.2890625,0.4540410127937079,-0.47952813507547076
3.29296875,-2.245314902978483,0.46447654104300234
3.296875,-1.1210042968891867,-1.324351952369853
3.30078125,-0.4472330812541492,1.9831560865647322
3.3046875,0.14683467884664295,-0.6599575413801898
3.30859375,0.8411079304150715,-0.23417435522661684
3.3125,0.4814606492694449,-0.09495060025784875
3.31640625,0.009706099893745351,0.49322863466824396
3.3203125,-0.6230883675664964,-0.5587471560079578
3.32421875,1.3043692390201955,2.437136051438968
3.328125,-0.4864557270382909,-1.0855499858479787
3.33203125,0.4949511571953788,-0.4920833336253821
3.3359375,0.5180429330548055,2.5915395584316423
3.33984375,0.17738419265342237,0.6770711602929698
3.34375,0.5978760334291355,-1.1195357703228006
3.34765625,-0.9662193602820347,-0.25241816937126565
3.3515625,1.1532722968139801,0.44541848931959094
3.35546875,-1.2845837565955458,-1.6474405511219645
3.359375,-0.7975646432029398,-0.050890245453890405
3.36328125,1.4517716966782543,0.05952017935805038
3.3671875,1.587706110476493,-2.1202013204423427
3.37109375,-0.21669479062931812,0.9271568942993551
3.375,-0.08321523073643859,1.5411333405326022
3.37890625,-0.6127273838706944,-0.93466332195767
3.3828125,-0.6964288910440104,1.387020239967811
3.38671875,-0.6985887511954644,-1.9279088877596835
3.390625,1.2477578942717802,0.08157098611796641
3.39453125,-0.26224722242242066,1.0792851865934052
3.3984375,-0.38803400798446847,0.5691547926854781
3.40234375,-0.5566372539983896,-0.03802474453987932
3.40625,-1.0548280924435434,1.4278076198156102
3.41015625,0.8635608822891253,1.978047897255107
3.4140625,-0.022395753582586442,0.8163341537929721
3.41796875,-0.7599230660177048,1.741502491887439
3.421875,0.24503728776212022,-0.968918834804995
3.42578125,-0.29658181419994795,-0.23073116993554313
3.4296875,-0.327765731756727,2.26060028356444
3.43359375,1.8110312119121423,0.9257500683968914
3.4375,-1.3559495223058307,-1.650652922709143
3.44140625,-0.3906809637992479,-0.25780555049161386
3.4453125,0.13845029934918313,-0.18629844705324758
3.44921875,-0.4424742207516653,0.20945305454264598
3.453125,0.8101782368038493,-1.2325200748997176
3.45703125,1.3332445325462023,1.2681564911749312
3.4609375,0.4080993904800979,-1.4143559536928108
3.46484375,0.8399115512214547,-0.36650607218872894
3.46875,0.6450721559618967,2.4012290377856105
3.47265625,-0.1575158789283077,-1.3112066418715107
3.4765625,0.6838518808883479,-2.387205121639369
3.48046875,-0.11948777628966958,0.4745174770822175
3.484375,1.0175275067930194,-0.4982338215350204
3.48828125,0.12777160700355134,0.8435472793535345
3.4921875,-0.8274678855779413,0.025172190777475456
3.49609375,0.8598806171139085,-0.37792383645631444
3.5,1.4094992851456931,-0.8524784532444183
3.50390625,-0.94675254243764,1.4493840751268323
3.5078125,0.04817043646556401,-0.5541320395216884
3.51171875,-0.15321933335397592,-0.5539641113410313
3.515625,0.7503562224592372,-1.2118197562063961
3.51953125,-1.3806945661498027,-0.6987455187342406
3.5234375,-0.7887851940700353,0.6259034504024413
3.52734375,-0.9384403751050396,1.3531267813643626
3.53125,-1.420208503223122,-1.0075524442617871
3.53515625,-0.051892674711899706,1.8833397119072348
3.5390625,-0.35808577271792513,-0.8525763486382069
3.54296875,-0.6448509477002802,0.4668142684540564
3.546875,-0.06859766425662589,0.11487614462299815
3.55078125,3.2407183726039093,-0.5981970143779543
3.5546875,-0.3133370128063141,-0.5643850100105344
3.55859375,-0.26635752627730536,-0.2907109437616282
3.5625,-1.9580225897347039,-0.21236775304006106
3.56640625,-1.1710162856771047,-0.026525179134419964
3.5703125,-0.2600733448960404,-0.15910867687209657
3.57421875,0.32916361262201316,-0.26844442466770113
3.578125,0.880680205555831,-0.9035921136014017
3.58203125,-1.4058804678265133,-1.5300218575263413
3.5859375,0.2852593179386407,0.5705133784948795
3.58984375,0.15835481620113093,-0.6830341794152152
3.59375,-2.172422305984935,-0.44535511966001345
3.59765625,-0.928905718180881,1.317394571389138
3.6015625,-0.28286448017974203,-1.220092977653526
3.60546875,1.0793198127155195,-0.49225521453944726
3.609375,1.2032613247733162,-1.511416502177868
3.61328125,0.2347723408026977,-1.3505547785467282
3.6171875,-0.31273059672946246,0.5479284565847155
3.62109375,-0.8488854127781668,0.5041324504688811
3.625,0.8005944089864939,-2.0673683548439947
3.62890625,-0.4167190650237696,-0.741071545375768
3.6328125,-2.225946158499501,0.23235711257762642
3.63671875,-1.1509003347859952,0.2569293795531148
3.640625,1.4426922800986466,-0.2019029382742722
3.64453125,-2.53226937661069,1.2563070273626926
3.6484375,1.2797171557114977,0.502842983827469
3.65234375,0.562226569551018,-0.7126032083282215
3.65625,0.23273817286866108,-0.1217113448528674
3.66015625,1.9579742762659968,-0.19434755198689843
3.6640625,0.05894804899610668,0.8822195331653117
3.66796875,0.34264396966551147,0.5801979750622928
3.671875,1.06163656977429,2.0270395020743246
3.67578125,-0.637841131543497,-2.0180935046504156
3.6796875,-0.8764667988430455,0.7012976636585577
3.68359375,-0.36697174489903195,0.8129752042765601
3.6875,-0.6807275095578881,0.8157842360931696
3.69140625,0.204512394282167,-1.4471866733462997
3.6953125,0.2933824251751173,-0.48157980274465934
3.69921875,1.7004123910928506,0.08882290204359929
3.703125,-1.5062740393247314,1.2241952794874622
3.70703125,0.10471637724881491,1.2569409758475263
3.7109375,-0.25414949130803294,1.0625837801198172
3.71484375,1.1541072132046124,-0.4410062255256535
3.71875,0.8657343990601241,-0.20860144696576122
3.72265625,0.41501552078075243,-0.8163828997912398
3.7265625,0.9687352452690832,-0.5487594786039679
3.73046875,0.47090801072788496,-0.672283876820356
3.734375,1.1167647658595588,1.107890961448248
3.73828125,-1.547014753456543,-1.595400773659865
3.7421875,-1.5798133514446904,-0.9797040683989442
3.74609375,1.1188956986089338,-0.21806935867636484
3.75,1.5434402324603924,0.11825534113474834
3.75390625,-0.5957650389834286,1.204142035538535
3.7578125,-1.5208983161106768,1.595626110301815
3.76171875,-0.8385287278720642,-0.41107341648526685
3.765625,-0.8551764343046041,0.32876562625013733
3.76953125,1.4106800905623358,0.4685787695221776
3.7734375,1.1215686369367295,-0.4509515974621804
3.77734375,-0.07578497711707315,0.5077596467454853
3.78125,-0.40506628646917864,1.50336286838171
3.78515625,-2.332829155573574,-0.3539105773527128
3.7890625,1.5268574728037971,-0.12093118539821246
3.79296875,-0.07130820958179883,-0.32751189107854556
3.796875,0.9475303319958556,0.40049550730438527
3.80078125,-0.6673073741684262,0.631528049380521
3.8046875,-0.9716869575642852,2.4707542126824857
3.80859375,-0.33214065218620137,1.1057272816340469
3.8125,-0.4462045555569102,-1.133343674185931
3.81640625,-0.4389864832076892,2.1470822100015186
3.8203125,0.8129662038000864,-1.089773988925421
3.82421875,-0.565894620911423,0.6491378928530552
3.828125,-0.3240022680652359,-0.49066832966982993
3.83203125,1.9310491800360352,-1.5572454515983976
3.8359375,-0.3895714529823092,1.842026217032952
3.83984375,-0.7094932266842429,-0.5449745046199214
3.84375,1.3607116147627192,-1.2749647055894227
3.84765625,-0.06417181669248158,-0.04111606007106081
3.8515625,-2.0317983217091573,-1.0631441710472003
3.85546875,0.7601842648971,-0.47837853303581523
3.859375,-0.5172600002299557,-1.0874625821925505
3.86328125,0.25904152868933633,-0.5909913078999346
3.8671875,0.05910643000316718,0.5567611423938771
3.87109375,0.3637986926642196,-2.8912255942049034
3.875,0.9904792226376401,0.7155531339878095
3.87890625,-1.2504241259634814,-1.028481300979962
3.8828125,-0.2894140896856338,0.04570465198563122
3.88671875,-1.1310396383729822,1.3327183686693123
3.890625,1.6151799897533243,-0.6579456865806588
3.89453125,-0.3220392651294083,0.15910961029409867
3.8984375,-1.4559246390726803,2.045741435174056
3.90234375,-0.40619746940636914,-0.2560684917607723
3.90625,-0.8946737094568076,0.2969471353779698
3.91015625,-0.9320318984790235,-0.2671202424207037
3.9140625,-1.1435332700152103,-0.1283156905003398
3.91796875,-1.7081185230802969,-0.7474562879205766
3.921875,-0.21754389855870343,0.16255658616164828
3.92578125,-0.7366590795309692,0.7759136495104931
3.9296875,-0.4079631159843339,1.7118647194317769
3.93359375,0.06999444159628063,0.263765954516493
3.9375,0.6675711030443252,-0.6458870601310167
3.94140625,0.06854636833197571,-0.07924307793346834
3.9453125,-0.5756015006013511,-1.1137467698089298
3.94921875,0.47238901908983977,0.25691334414173755
3.953125,-0.8518072540568878,0.4219321391513646
3.95703125,-0.10064901439179272,0.10157326075477828
3.9609375,1.6396404754037612,0.97632895508911
3.96484375,-1.8931186385090908,-0.2863961119071916
3.96875,-0.8650797898888277,0.6989756074686185
3.97265625,-1.6291593876251254,0.8970307007386068
3.9765625,-0.4827674034060327,-2.0416809453309246
3.98046875,-1.9128688267156169,-0.3775115731213133
3.984375,-0.5145523304239208,-0.931650332309868
3.98828125,1.2549664741351187,-0.3931599436137589
3.9921875,0.706467216090644,1.3135827115927674
3.99609375,-0.12728626574168275,1.8515923221418664
4.0,-0.09535830932088003,1.0868637512435702
4.00390625,1.185582650031728,0.12975780364028752
4.0078125,-0.7083627861944259,2.907805099282092
4.01171875,0.11136874429933971,-0.4548368154788264
4.015625,-0.9354113445852277,0.03300521279093396
4.01953125,0.5957949829994349,-0.419143352410914
4.0234375,-2.0838261918406684,0.9419036232064409
4.02734375,1.0957044471324195,1.0664890574972132
4.03125,1.6042947364044242,-0.5077983145199625
4.03515625,-0.29100332116994254,-1.2961425840120473
4.0390625,0.0012969915635699372,1.2476632475761387
4.04296875,-0.47345799194203625,-0.08458580162839761
4.046875,0.1121658207399782,0.10215976375901467
4.05078125,0.30584911532980336,0.8311368140039525
4.0546875,-1.1539191809310858,-0.036156646008960555
4.05859375,-0.018776703800672735,-0.8681225262248777
4.0625,0.3319997221480758,0.06373882031387315
4.06640625,-1.1466386439793843,-1.4220898124008126
4.0703125,-0.5450643499217841,-1.0205304956403483
4.07421875,0.4794874183065067,-0.24487602109777395
4.078125,-0.5997621630524949,-0.09530905472773651
4.08203125,1.570016666975665,-0.370795880078378
4.0859375,0.9449338236923993,1.6595358544977117
4.08984375,-2.339852774603236,-1.227040544335651
4.09375,1.6750855211761948,-0.3061331615255926
4.09765625,-0.7560024774624335,-0.1259697425849484
4.1015625,0.1574196997711124,0.5176262209452046
4.10546875,-1.4575050779483434,1.9989473221348502
4.109375,-0.07734199895679988,0.12766872112132796
4.11328125,-0.716460792508977,-1.258300845533529
4.1171875,0.0908165993943249,0.14454238210924608
4.12109375,1.588489925697037,0.2519397293039883
4.125,-0.1538104242594385,-0.33210242270037105
4.12890625,-0.5276748442500594,-0.7226009866188821
4.1328125,-0.6351387048047806,-0.5490365642683118
4.13671875,0.7055531291518189,0.4582631822926818
4.140625,-0.31937998082408386,0.010285445867363662
4.14453125,0.509698810059115,1.0001364249899627
4.1484375,0.8058638433219607,0.46942345747565706
4.15234375,-0.851187938186556,0.10268626022288477
4.15625,-1.1490216590495768,0.7494091128867417
4.16015625,-1.5699022364382762,0.006891765544913338
4.1640625,-0.1982938726798285,-0.08346090863994594
4.16796875,2.1660875981955163,-0.36440967658811657
4.171875,-0.9522942943815892,0.5234925962151852
4.17578125,1.57254548983604,0.1511233562670826
4.1796875,0.518438336106524,-0.3950149950395698
4.18359375,-0.43581782172896527,1.3987193820070765
4.1875,-1.1609291646168456,0.6460268886137697
4.19140625,-0.48219442758385317,-0.9304074217038341
4.1953125,1.4234664785734272,0.029312667041765054
4.19921875,1.2406053441542688,-0.2012248111844808
4.203125,0.6517460663892567,-1.610318009580156
4.20703125,1.5725374782725317,-0.5958759986492389
4.2109375,-0.9246400783575887,-1.1706463042660622
4.21484375,-0.12433348231114821,-0.675219873411099
4.21875,-0.6350783773881747,-1.0703096872225581
4.22265625,-0.39724416984203376,-0.6658098361018566
4.2265625,-0.7206911320189288,-0.08737928591048648
4.23046875,-1.898001724186487,-0.7012579813279246
4.234375,-0.8793620181419574,-0.5919509082965353
4.23828125,0.5249165615381438,0.1404816332214327
4.2421875,0.6411825538647729,-0.4444277834625283
4.24609375,1.057271712736589,0.664575336900257
4.25,1.668037423452042,1.1261298610894324
4.25390625,0.3144265689775519,-0.36249478810509905
4.2578125,0.011878461639032363,0.6037567912844573
4.26171875,1.7927317168329124,-1.1942553118460522
4.265625,-0.928838742307642,0.8992572213673116
4.26953125,0.264981591897138,0.3843129127308159
4.2734375,0.6118646931774046,1.4463287532133229
4.27734375,0.8724155444338115,0.4415633546545745
4.28125,0.01913055630131793,0.6514830669605046
4.28515625,1.8046696471518624,-0.627457877973794
4.2890625,0.41764227149698596,-0.17711964648801085
4.29296875,-0.4341778555440764,-0.8845627023452389
4.296875,0.7928307300783487,1.572849230528941
4.30078125,-0.9370873712300934,0.9377166052526711
4.3046875,-0.5028570446532776,-0.0552511868942951
4.30859375,-1.2362187797513156,-0.38386786172837356
4.3125,-0.7197742814104899,-0.6425594631111875
4.31640625,-1.0332426123043414,-0.07182382694424923
4.3203125,-1.6133723352609244,0.13972775465345472
4.32421875,-0.9289895497655499,1.0760861828231056
4.328125,-0.04276233215962343,0.18642886756572333
4.33203125,2.2643061687091715,-0.632173709656887
4.3359375,-0.7247301316782835,1.4344044098115845
4.33984375,0.8116937374226526,0.4013453945385288
4.34375,0.02268359462167354,-1.3391315120641167
4.34765625,0.9628475863255662,-1.3154510736543206
4.3515625,0.02425545451896434,0.8645263777904076
4.35546875,-0.273184757607759,0.05657909651519248
4.359375,-0.5281901830555096,2.4526183820205794
4.36328125,-1.0030984264021157,0.29614403411098006
4.3671875,1.1209304873310473,-0.07185578056193453
4.37109375,-0.7911062739583796,-1.2371951981313538
4.375,1.7674146986993458,-1.4081934948167585
4.37890625,-0.38809895068431527,0.7014120025336139
4.3828125,0.5909782110845715,0.7022865787972042
4.38671875,-0.31014728908571393,0.2010375888027568
4.390625,0.8731456577073984,-0.3130449543101377
4.39453125,-0.32479239961854967,-1.2751041241128112
4.3984375,-0.042758784280480994,-0.4030133183137787
4.40234375,0.9627919331461653,-0.7126725104147745
4.40625,-0.9578302019473144,-0.6701812991892001
4.41015625,1.0601501058383367,2.089421089560528
4.4140625,0.6800498193407328,1.5000870859197246
4.41796875,0.6210583167781991,-0.5664188138244647
4.421875,-0.8913006777644245,2.1536501602842653
4.42578125,-1.2427060349341352,0.725421294817009
4.4296875,1.3402666588887326,-1.1864099814355427
4.43359375,-0.6671228887867207,-0.760779340083572
4.4375,0.4754066959676523,0.9352329062090148
4.44140625,-0.6919308183519627,-0.4984754946727451
4.4453125,1.4205921943070572,0.5391386686265519
4.44921875,0.04396164168096969,0.01623210362174065
4.453125,-0.8309968911622806,-1.6183419943197863
4.45703125,2.35537964528224,-0.06316400969776778
4.4609375,-0.023435751325227187,-0.5539880035025772
4.46484375,0.4004251457414091,-0.5120228834954123
4.46875,-1.245563162132725,1.0353513005764317
4.47265625,-1.1528484679472448,-2.228611574619048
4.4765625,0.16076187171880224,-1.0098421358620449
4.48046875,-1.0535052529524178,1.6410475479394433
4.484375,-1.2285334592980317,0.3671791526028877
4.48828125,0.26344767634369093,-0.5127650993851398
4.4921875,0.816679696843813,0.43203446218416125
4.49609375,-0.7395076131854046,0.5914057496347227
4.5,0.4956130876474728,0.6667958906149403
4.50390625,0.2011012676368591,1.1201209973981263
4.5078125,0.46259373019788663,0.7664486257801794
4.51171875,0.25487168703753277,0.19688597031583008
4.515625,-0.18386555255175296,-0.36662683783289196
4.51953125,-1.8747713413129798,-2.8497441718544922
4.5234375,0.8828463839396681,-0.5118393969738263
4.52734375,0.5909076205601697,-0.3771721984817811
4.53125,-1.4587186045525689,-0.5409317422443852
4.53515625,0.8511538470533382,0.5996564745667636
4.5390625,0.5077731311865115,0.518146683727823
4.54296875,-0.5898445787925173,-0.8652655819767052
4.546875,0.7556842109279643,0.2823590920847822
4.55078125,1.3780629455418918,0.14809620311223115
4.5546875,-0.6233046666524824,-0.7755938188808559
4.55859375,0.43594541282929283,0.5130879963952217
4.5625,0.1261467711297544,2.0363142604668134
4.56640625,1.9163240400122,1.3143048330739289
4.5703125,0.08978126412314369,0.2176462371543729
4.57421875,-1.755422185531655,-1.6339993417880636
4.578125,-0.5422567903722381,0.4780358340179813
4.58203125,0.36105272850670533,0.8061622116984302
4.5859375,-1.191298920775333,1.3000141731104007
4.58984375,-0.09815618879304282,-2.394485968403984
4.59375,-0.12698955777833726,0.6244650100320659
4.59765625,1.6889754197335525,-0.4105982939286893
4.6015625,0.516770365838218,0.2487155836658115
4.60546875,-0.7483858999017253,0.2372945583212163
4.609375,0.2178976117927236,0.3928845859933393
4.61328125,-0.0599284843525956,0.033582744094999645
4.6171875,-1.2463439813782689,-0.3740478203929977
4.62109375,1.1422376451686558,1.1314554442942892
4.625,0.7999616813689405,-0.3833337671421002
4.62890625,-0.46215553862302367,-0.018342178981888918
4.6328125,-0.35554600678733433,0.26112581395766377
4.63671875,-0.9597661678692645,0.057633371611324966
4.640625,-0.8052939613618678,0.6662682032160119
4.64453125,-0.17254730006235977,0.1741274972790527
4.6484375,-0.6394296606986074,-0.90808603642019
4.65234375,-2.3134533317617616,0.2318968025305679
4.65625,-0.021712072633847865,2.6271495556680495
4.66015625,0.9770237769254664,-0.6306771214794825
4.6640625,0.7909326317280876,-0.7395487997046886
4.66796875,0.9807977237617956,-0.19392600295515436
4.671875,-1.2577061833464351,1.6468217335936728
4.67578125,-0.45205419600597607,-0.45525026765458126
4.6796875,-0.8644848011678754,1.3287920886276197
4.68359375,1.046660186486737,-0.7214519820734838
4.6875,-1.2339918138514774,-0.2981594397466337
4.69140625,0.06118856770791029,-0.7804866358385488
4.6953125,1.5968247445564117,0.036682030186810446
4.69921875,0.11757492309428386,0.2945173080154345
4.703125,-1.4708544726049413,1.6949435470827423
4.70703125,1.9684741233299183,-0.5057311736514467
4.7109375,0.22332687041170587,-2.2065956471017305
4.71484375,-0.05948421305889249,0.010355994103588808
4.71875,-0.5081180201783627,1.6185669995557719
4.72265625,-1.0098536872899824,0.20137635321068678
4.7265625,-0.20461860186136316,0.5265329844340139
4.73046875,1.1756728331569881,0.36373069733328556
4.734375,-0.6754025997805841,0.3916883863305513
4.73828125,-0.6525424349182756,0.6997360855433522
4.7421875,1.0148074626714307,-0.8652133601411435
4.74609375,-0.34629476757126765,-1.0351763589357599
4.75,0.33616149876522194,0.7475588822773082
4.75390625,1.1643914190687505,0.4777362702285726
4.7578125,1.108422030404327,-1.437476908749297
4.76171875,-1.5119889602875463,-0.9511717783875233
4.765625,0.273645738217295,-0.20419118594017252
4.76953125,0.3186358865049549,0.2434669332839604
4.7734375,-0.7081677176854014,1.1946690521767926
4.77734375,-1.3361159483646243,0.06304050601896012
4.78125,0.7307515042028959,1.94114651550234
4.78515625,-0.8770612046145666,0.27011930198585987
4.7890625,-0.1802972817280564,-1.357502744517617
4.79296875,1.0314843720792448,-0.10625810613078411
4.796875,-0.6026280044552327,-0.5894987574027207
4.80078125,0.6366886675686557,0.1749431254408034
4.8046875,-0.3045731349406941,-0.6453791755500361
4.80859375,-1.1110863803026128,-0.3603942078443489
4.8125,-0.3970470383912122,0.809809135237152
4.81640625,-0.4086743661459301,0.8003416334528459
4.8203125,0.7537371101224524,-0.788799989099373
4.82421875,1.1356547633886898,-2.4611235066131942
4.828125,-0.53859086313903,-0.5837429592224438
4.83203125,0.6526493119300613,0.7211496486576658
4.8359375,1.5672247823859702,-0.3355151477494828
4.83984375,0.3413795688522868,-1.1716286392105224
4.84375,-0.18020685623411092,0.6727478158249196
4.84765625,1.4382767122068039,-1.34559459846705
4.8515625,1.3339769083219675,-0.31375443891616206
4.85546875,-0.303907371276154,-0.3541201070170536
4.859375,-0.906939511654903,-0.850268906647371
4.86328125,0.46521433974460846,-0.5773132016054532
4.8671875,1.1924782245442744,-0.7607397234388366
4.87109375,0.5914879095326777,0.24737728699351705
4.875,-0.048971385448149635,-0.9541615311183825
4.87890625,0.9907134701666871,-0.44346378016662097
4.8828125,-1.3177324609738137,1.4900282084013368
4.88671875,-0.3679532191139535,1.6327380077604638
4.890625,0.177128130619,1.9067969010210282
4.89453125,-0.8760358383985605,0.12541385598199795
4.8984375,0.9245702747650391,-0.3224983374919229
4.90234375,-0.723304804812197,1.9663098209158756
4.90625,-0.200608623422067,-0.7513517493636827
4.91015625,0.26361123970388467,0.3948176308840326
4.9140625,0.8113995084634235,0.5304527739109665
4.91796875,0.38248660304192295,0.2848388332800982
4.921875,1.1997234951732523,-0.06840840298831906
4.92578125,-0.2364969087876007,0.3617144419028566
4.9296875,-0.28654329079023494,-0.11822543194145797
4.93359375,0.57535645985631,-1.216621133037917
4.9375,1.6160671903483856,0.1833206921851152
4.94140625,-0.6726263553730865,0.40286250358342474
4.9453125,-0.4226609949381337,-0.7366523951384988
4.94921875,-0.2551949899119878,1.273144850615636
4.953125,0.4385695032542263,-0.9611107793969288
4.95703125,1.2975682701609839,-1.0106481529318798
4.9609375,-1.0370749553201388,0.09031253198098287
4.96484375,-1.3667334157058095,-0.01950594289256739
4.96875,0.34581650767152267,0.6504274924888579
4.97265625,1.7368979169169634,-0.8463327850196468
4.9765625,-1.7357216979154224,-0.21125773754147026
4.98046875,-1.0586783335656507,-0.13958698109359183
4.984375,-0.4065713864301192,-0.1891381323464181
4.98828125,0.5810174586608775,0.1144678613171561
4.9921875,0.627561401530297,-1.0123681911617646
4.99609375,0.5933394146246718,-0.772688704341595
5.0,0.3881591135768274,1.540519935394524
5.00390625,0.7393408200463721,-0.9808160922823854
5.0078125,0.7623955178229668,-0.39134723988710524
5.01171875,-0.2280656533585705,-0.10527280812407111
5.015625,-0.814678200397573,0.676834243384815
5.01953125,0.16756266173681053,-0.8786897637069369
5.0234375,-2.3040115059457325,1.5464714779640287
5.02734375,-1.1238004608737968,0.4555976752013618
5.03125,0.25112702890931643,-1.5812499754024427
5.03515625,0.9506724263027693,-1.571371290755167
5.0390625,0.024108696791494577,0.13178228163401745
5.04296875,-0.4050206968490571,-0.3720600553611467
5.046875,-1.57572108256532,0.6206214788309504
5.05078125,0.6802723880676841,-0.9655462438034734
5.0546875,0.18045760652081136,0.24334912082309235
5.05859375,-1.5585814347583693,-0.513392641363287
5.0625,1.0637894715442946,-0.4724090439843315
5.06640625,-0.32649686357043783,-0.24335388632682506
5.0703125,0.6940891064412812,-0.9318965144722373
5.07421875,0.2096035979194079,-0.6975701788837254
5.078125,-1.043555222582493,-0.09048632492637522
5.08203125,0.7387232194391856,1.0311089817815875
5.0859375,1.372629373629394,0.23211406187705522
5.08984375,-0.3511712281731647,1.3078527871541719
5.09375,-0.6012506247359559,-0.3970155113145906
5.09765625,0.2610398975250411,-1.0508511134406537
5.1015625,-0.06593642801230329,0.733997945061533
5.10546875,0.8744446315838132,-1.6197360451806173
5.109375,0.05511535672110297,0.6284939903722466
5.11328125,0.4037014005651164,-0.5813863649306641
5.1171875,0.09909457594588918,0.12718515184898416
5.12109375,-0.9955809797913313,0.7508101708517
5.125,1.3246770144978102,1.8375156957288412
5.12890625,0.8250433871843047,0.9340420300273962
5.1328125,-0.1980998979763107,0.22383795695019176
5.13671875,0.16506955320937156,-1.8224473416790155
5.140625,1.0896746393902925,-0.2739634641723324
5.14453125,-1.8117980960876934,1.0575795863160238
5.1484375,0.038419833104548044,2.1112786467672766
5.15234375,-0.3106431447832479,-0.5099976120518875
5.15625,-0.25976061513208865,0.09428315975198852
5.16015625,-0.09926738479723396,-0.6825756373815962
5.1640625,1.7361352709839593,-0.14125736640476227
5.16796875,-0.31337909487153376,0.12135749698099349
5.171875,0.10902349906281766,1.6020325991875615
5.17578125,-0.3062702086126653,0.49190790425442515
5.1796875,0.47901014490693494,2.1855769176609976
5.18359375,-0.6791519962142033,-0.8649254240187786
5.1875,-1.686894049971254,0.32214925136265016
5.19140625,0.6715734407841842,-0.15259914501428543
5.1953125,-0.9508178708608599,-0.348331132559398
5.19921875,-0.3743185666352562,-0.2406589299749451
5.203125,-0.6330659801689373,1.0886700292173195
5.20703125,-0.6509875709525093,0.7953109161428493
5.2109375,-0.6865738724225219,1.2620793798278143
5.21484375,0.5808186261558239,-0.450834463733113
5.21875,-0.0038451031932284774,-0.616089397067771
5.22265625,-0.8891813468820583,-0.29797182491295493
5.2265625,-0.6696138958803293,2.0053460679028943
5.23046875,-0.11026090803686392,-0.23320482332552855
5.234375,-0.6177733122466419,-0.2995030133528586
5.23828125,-0.2931900170675735,0.6220780945801405
5.2421875,2.514558903344749,0.0515635795474274
5.24609375,0.2068452319964829,0.9495089392357697
5.25,1.3580901870376096,0.28651085978973745
5.25390625,0.32189096115577853,-0.5803583929557505
5.2578125,0.48444517314888297,-0.7928514037337323
5.26171875,0.17626097483919095,-1.4872261459956997
5.265625,-0.6072737269616573,0.4729529930530047
5.26953125,0.5529050594429341,-0.33209561973123164
5.2734375,-0.6441552183090241,0.7787584820257804
5.27734375,-0.685834105052258,0.12576667837400846
5.28125,1.6380938721722464,0.3935382180884496
5.28515625,-0.39521797316304735,1.0249409201895177
5.2890625,-1.0089121185916083,-0.26558462551757855
5.29296875,0.3774722126340322,-0.695076489331215
5.296875,-0.9634355434021861,1.1710876410374937
5.30078125,1.4813058453988406,-0.6531756745071207
5.3046875,-1.0674163038057791,0.11375026059096159
5.30859375,1.0947032935310235,-1.5363347674829801
5.3125,1.623640047048447,0.7256365710290681
5.31640625,-0.1617448193824512,0.9173362500157891
5.3203125,0.1729361587167408,0.11191330523029508
5.32421875,0.08084009541596825,0.4992624939901092
5.328125,0.26816878008835193,-1.0337932758651869
5.33203125,-0.5398596900213074,-0.6724705022541408
5.3359375,-0.5522280135584655,0.5856361090593541
5.33984375,0.9130153769651878,1.0920152857125425
5.34375,0.021279759144048324,0.03608115481321977
5.34765625,0.229715611592015,0.29158442563350095
5.3515625,-0.19859567384930515,-1.1310821040882455
5.35546875,0.4828540390869144,-1.2572174567843644
5.359375,0.36091954424090755,-0.2112711769539125
5.36328125,1.0087560782862308,1.0228552675711806
5.3671875,0.7740856351814022,-0.5909923815771776
5.37109375,0.8295387427659688,-0.4462896767761847
5.375,1.227544496492179,-0.8074309678277826
5.37890625,0.6986130815779359,0.13892774233485303
5.3828125,-1.2642272167462945,1.5909298673986103
5.38671875,0.778175446606245,0.36452357008582653
5.390625,0.0023707336642186175,0.6363435427286106
5.39453125,-1.1323769619094852,0.19052201307143968
5.3984375,0.7176431180465047,-0.5870564007155208
5.40234375,-1.0184686122351685,-0.030513731099118806
5.40625,-0.564808410957665,1.2548198636756507
5.41015625,0.13738329433717333,-1.5392214272633022
5.4140625,-0.9945488017779464,0.8097123660159453
5.41796875,0.4574343788702119,0.7386935300777818
5.421875,-0.3571806119952853,0.5241541454697178
5.42578125,-1.020805954070691,-0.8832778311849308
5.4296875,-0.2927716681444489,-1.3903323530700316
5.43359375,-0.4737535871447014,0.5353032498692578
5.4375,-0.544106985713129,-0.4486028304503501
5.44140625,0.6596929126389647,2.092834733371201
5.4453125,-0.9501743178292511,1.4233791633171904
5.44921875,-0.01453036742297391,-0.5850093193149172
5.453125,-0.011808362970635465,0.9182614819628281
5.45703125,0.4866207897510722,-0.08054950508914024
5.4609375,-0.9730465689109893,1.1000769894927591
5.46484375,-0.12899717295387306,-1.5927165362883544
5.46875,-1.1891021415540768,1.534861748541302
5.47265625,0.3790059301246153,0.017095620081272484
5.4765625,-1.4024275054841286,0.3149586994551099
5.48046875,-1.0269440205083378,1.430422933760292
5.484375,-0.3337199017761273,-2.0486264169500057
5.48828125,-0.04581096025502659,-1.3920544579880547
5.4921875,0.2033646529484673,0.4188406042026974
5.49609375,-1.6886347188963604,-1.1386338655166848
5.5,-1.1679202376001827,-1.4176720228771993
5.50390625,-0.3163131488345671,1.9199576855645213
5.5078125,0.32044966288438437,1.0819171639677927
5.51171875,-1.1043019338030426,0.3418529237841695
5.515625,-2.115097732208972,2.4922177766917994
5.51953125,-1.2653301571055366,0.23959451680039837
5.5234375,-1.3615474124090035,0.21437537165073578
5.52734375,-0.6571660296242314,1.0906802115335343
5.53125,0.8016049853746221,0.961594756399304
5.53515625,0.2052484673370886,-0.6802864687328753
5.5390625,-0.09123062988271198,-1.930552300985186
5.54296875,-0.03593293879445121,1.157689136208843
5.546875,1.986477146136535,1.7410594971767677
5.55078125,-0.03197361533446151,-1.8637547168678632
5.5546875,0.2259500648248019,0.49818970596843865
5.55859375,0.2625579795648483,-0.519430457001636
5.5625,-2.319421744685739,-0.7479679557011489
5.56640625,0.5829807612614436,1.4158546630380953
5.5703125,0.24735559530519938,-1.0577891979672607
5.57421875,1.1428035048183447,0.22991842039025298
5.578125,0.8915932037386789,1.1425598594262956
5.58203125,-1.5024270919940526,0.4422744283874108
5.5859375,-0.8742775349743709,0.08267388259606476
5.58984375,1.6441590093334904,2.4144282813375755
5.59375,-0.38813115943785226,0.3513507290921377
5.59765625,0.5868199458045442,0.6902867821236217
5.6015625,0.11787237014125435,0.5266948054019136
5.60546875,0.16999193707342322,1.1370997001639829
5.609375,0.9373376684981608,0.8322392906181997
5.61328125,1.7293900557968072,-0.21800057633266157
5.6171875,0.27200999523057195,-0.835531202923228
5.62109375,-0.40194437625010077,-0.017993113910178864
5.625,1.9211506994373715,0.39840193180345757
5.62890625,-2.1939720417588253,-0.5811398322911263
5.6328125,-0.8636823670730338,0.7015120412414518
5.63671875,0.5275981139931607,-0.1641881926485332
5.640625,-1.0151584044873485,1.1374574069199508
5.64453125,1.335379246750616,1.3522766493662686
5.6484375,1.1314524788345612,-0.6200000054301515
5.65234375,1.4755998374217234,-1.2326767015715994
5.65625,0.5760312568484656,0.8975441206408686
5.66015625,-0.631165316546393,0.621993779935785
5.6640625,1.0342361876660762,-0.09368537086934926
5.66796875,0.7436750460859495,-0.9517860565272331
5.671875,0.5401850068634705,0.39556909551197883
5.67578125,0.8770895623139727,0.2786090915963304
5.6796875,1.0256327889840835,2.683725280601636
5.68359375,1.1770560308505902,0.3137077148382984
5.6875,-0.9364783317401006,1.5633412174640782
5.69140625,-0.6965368118561391,-0.3069677533666763
5.6953125,1.6801575977552223,0.9255322447109859
5.69921875,1.8535791755591327,2.1268050536895724
5.703125,-0.8323061529969265,1.1205330919915768
5.70703125,0.6026264322313294,0.2772682892033945
5.7109375,-1.5211232022191037,1.9921323450279371
5.71484375,-0.5886643461087768,0.2510894771951445
5.71875,0.8066116023020944,-0.16556185237183615
5.72265625,0.9024917789840604,-2.607504921794901
5.7265625,0.7987564798173572,-1.2532577986725741
5.73046875,0.1126896817868189,1.0055806215040322
5.734375,-0.21278486702087118,-0.0023431969192592144
5.73828125,0.15422305352664115,-0.48037473674340003
5.7421875,-1.6913759308118166,-1.3603819370352015
5.74609375,-3.621625108368152,1.7220668659401726
5.75,-0.014927230355879062,-0.17891047927343523
5.75390625,-1.3615540602706397,0.025537667888743915
5.7578125,-0.28536138703384895,1.5432165706012315
5.76171875,0.5294463491264534,-0.6145419905101154
5.765625,-0.835661125407226,-0.2619724123818624
5.76953125,-2.7082801273439805,0.2340064294530409
5.7734375,-1.657998733036504,0.8229235429092078
5.77734375,0.982916056036036,0.19639469120799297
5.78125,0.4770289627363709,0.6975287599452492
5.78515625,1.2937476793587248,-0.4792051201631454
5.7890625,0.6230122511908611,0.8057867069668208
5.79296875,1.0580221159598973,-0.32740332631985863
5.796875,-0.8427307738139163,-1.583101979319909
5.80078125,-0.27472174885654727,1.2831481044152926
5.8046875,-0.8161010372104615,-0.7456071672602039
5.80859375,0.9486392453129557,1.0992195353830323
5.8125,0.38134912110959907,0.012525966477251156
5.81640625,-0.1399773941648611,-2.081192606435814
5.8203125,0.976814355925941,0.11521697657029539
5.82421875,0.3638104798292925,-0.026188609714229254
5.828125,-1.0329085710116315,0.29232813709621125
5.83203125,-0.016559217733028004,-1.0372714437978143
5.8359375,0.6527028076304147,-0.051462360140043836
5.83984375,0.3872767358528203,0.7488944324155895
5.84375,-0.4618443407100647,0.010418729898793264
5.84765625,0.6761659620164605,0.31177865033997054
5.8515625,-0.05742544603950134,0.05829466607851574
5.85546875,-1.6084777391719955,2.176953370671768
5.859375,-0.29381674462904406,0.3505633835318571
5.86328125,0.13816690586236743,-1.84529929098868
5.8671875,-0.3106867727628998,-2.074137294334811
5.87109375,-1.1583177569119978,1.9609725236928437
5.875,-1.9098629524755066,2.909439468720912
5.87890625,0.9034091152294866,-0.3088857880016418
5.8828125,-0.702794764036682,-0.3456873033512158
5.88671875,-0.029824874961058078,-0.9980308765939928
5.890625,-1.3720551677325377,-1.4320235773210754
5.89453125,0.13097849737800074,-3.2513916055150927
5.8984375,1.3491418371469235,1.0938629397005042
5.90234375,1.8597131013774786,0.02508446690693036
5.90625,-1.3383851362119465,-0.25544755811266096
5.91015625,1.4790501602363033,-0.2075887736768293
5.9140625,-0.22420205696087261,-0.08877112169318006
5.91796875,1.6676176741073456,-0.30115821604869786
5.921875,-0.04645680123829364,0.9902788296184845
5.92578125,1.1458355894407266,2.053737809638279
5.9296875,-1.6087762983757175,0.08008703070843012
5.93359375,0.43495054645184944,0.3195185426699144
5.9375,0.6156975025344241,0.6342144976940702
5.94140625,1.5651652549328208,0.1607716290237569
5.9453125,-0.3843091225576336,0.9196950821760119
5.94921875,1.063681314636813,1.0568187302284946
5.953125,-0.2628791475866853,0.6028374441109299
5.95703125,-0.8832059083534624,-0.15116746498378958
5.9609375,-0.44265205045944284,1.4124191689123686
5.96484375,-0.5153239807885355,-1.2912754345332054
5.96875,-0.18390069383326826,-0.3521239801719532
5.97265625,-1.404661105988546,-0.27655531025468283
5.9765625,-0.25349581810894356,-0.4930670265939341
5.98046875,0.2351037171351921,-0.47095009385225517
5.984375,-1.6662968332641752,-0.10479639333691458
5.98828125,-0.07978397844251837,-0.182919946438261
5.9921875,1.0958183530099967,0.08155818758579228
5.99609375,0.5340580414911307,0.9679145219431922
6.0,0.2694256889115808,-0.20057537519505356
6.00390625,0.0186541173455546,1.281982722087208
6.0078125,0.5803425641353084,0.5803806744309364
6.01171875,0.018741067516543853,-0.1124696507216785
6.015625,-0.4863381727086967,-0.6522111054899806
6.01953125,1.1129315018163533,-1.933409117745543
6.0234375,0.0531800052081774,0.32648300631587857
6.02734375,0.42239530393621355,1.1440951345058026
6.03125,-0.0722329363352831,-0.4516025228452122
6.03515625,-1.179119703007716,-0.8617213050826622
6.0390625,-0.2585481344917954,0.07413551548769298
6.04296875,-0.21738188668101247,0.3113595058442007
6.046875,0.5172910344810205,0.20010148559505908
6.05078125,0.9368002522231553,-0.02080322013682545
6.0546875,0.22996885413635743,0.6881484419607052
6.05859375,-0.6316870855765271,-0.7952225851464447
6.0625,0.4256312193679491,-0.5432476272778369
6.06640625,-0.4472800795309093,-0.08150101350449858
6.0703125,-1.3491204468390001,1.1638759585891048
6.07421875,-1.3257011426588285,-0.8461432777574922
6.078125,0.24143717661340233,-0.22661179858054115
6.08203125,2.948234439220037,-0.4148492949664603
6.0859375,0.5848942281062119,-1.4959065365134636
6.08984375,0.38707248424397034,-0.4403197127019429
6.09375,1.1062106875061202,-0.6457806457176098
6.09765625,0.1350867583638234,-0.5083541644659376
6.1015625,-1.1291049915318248,-2.1265337240722397
6.10546875,2.0015228757113497,-1.4928649813984083
6.109375,0.07289093572161906,1.422859331990421
6.11328125,-1.1913051445283998,-1.0754478220404826
6.1171875,-0.20648909339059635,0.38008682650550274
6.12109375,-0.18617646236542013,-0.14768903123740368
6.125,-0.15839537577292745,0.10178928304509653
6.12890625,-1.3467297396396867,0.10269261756434421
6.1328125,0.5207475390973502,-0.48080673520473327
6.13671875,0.3830427442812576,0.6767954996759247
6.140625,0.564816194321331,0.32708680875067936
6.14453125,0.6664286138028456,-0.8668251303447736
6.1484375,-0.3238610999594765,-0.16007801583010764
6.15234375,-0.014221381878572572,0.5574653757710573
6.15625,0.8341057900991202,0.2973646599344068
6.16015625,0.6538192121559107,-0.20957391191117247
6.1640625,0.8615888584236243,-0.7744839560014134
6.16796875,-1.6535775498759513,1.2670860569902223
6.171875,-0.6070979853695875,-0.37873623868470013
6.17578125,0.7280346279694262,1.5204969257388983
6.1796875,-1.111697079776986,-0.7265427739195902
6.18359375,-1.1107106524292452,-0.5435281878586775
6.1875,0.7184534793887625,1.7591138963759694
6.19140625,0.24220714952145744,-0.8887829461945528
6.1953125,0.27075810812590717,0.7626613289857624
6.19921875,-2.4252736885643458,-1.4452117536389508
6.203125,0.6832389720285882,2.2848350167587794
6.20703125,0.8704915085770429,0.5277124689528109
6.2109375,-1.0002962635106012,-0.02887065196794728
6.21484375,0.16971199510430443,-0.43302428676282634
6.21875,1.1751836905036053,2.2964223316020442
6.22265625,-0.37401813496596736,0.2299669643954354
6.2265625,-0.3000260071278859,-1.6808123614674204
6.23046875,-0.9462203229616176,-1.978153551367146
6.234375,1.1000211054158517,0.09644502253298125
6.23828125,1.0730387458668067,1.4205313431952504
6.2421875,-1.1347891089721498,-0.3991649287198163
6.24609375,0.9634026698725288,0.7657788724783051
6.25,0.8035666751860168,-1.2382117270484216
6.25390625,-0.61947573932041,-1.8712797500999816
6.2578125,-0.5877764745081422,0.16186454769951567
6.26171875,1.0432573633465352,0.6801367719734742
6.265625,-0.7533618814551197,0.13989796284570905
6.26953125,0.12695504766301768,1.0208540878005676
6.2734375,1.3334771458798962,-1.1284797723726705
6.27734375,0.024243120773271894,-0.5417412804545726
6.28125,-0.6298458855127685,-0.6658883883118957
6.28515625,-0.31927708630363044,0.1545332453577713
6.2890625,0.9044168769110494,1.2795774065058294
6.29296875,0.23723128185404813,0.4114006958245184
6.296875,-1.4953948497041336,-0.7917205161331987
6.30078125,-1.1559474938455667,-0.46200835283733027
6.3046875,1.4951170989685318,-1.3951336182303717
6.30859375,-1.1658777725710705,0.7551822453984216
6.3125,-1.642764615778315,-0.9652439557645769
6.31640625,0.45662894789773456,-0.20710188708913865
6.3203125,-0.16847331756635925,1.9091973125460855
6.32421875,-1.208355342467997,-2.4680800225266655
6.328125,-1.5475061384763686,0.34322322811580985
6.33203125,-0.7654656533741079,1.4475335243764653
6.3359375,-0.7398676120583799,-0.7522499169877765
6.33984375,-0.6367133411030977,0.1819434063865046
6.34375,-0.4702116174296714,0.13031630740237254
6.34765625,2.075058578982267,-1.5165312544181402
6.3515625,-2.1340161567934444,1.4031493314171315
6.35546875,-0.7035474028918876,-0.7086688991751057
6.359375,0.06961009070197646,-0.9256681706314271
6.36328125,1.436921964162446,-0.8543559468412626
6.3671875,-0.5180371539369486,0.9332121607976619
6.37109375,0.6196371829017211,0.4780485701031662
6.375,0.6464568302999473,1.5977577465791244
6.37890625,-0.2081728482181555,1.1527168128325602
6.3828125,-0.2801595024799366,-1.5328272057489227
6.38671875,-1.1632805466672729,-0.9011781248547924
6.390625,-1.5770856142652938,-0.20557683302928967
6.39453125,2.8336242693588627,0.42259921820104057
6.3984375,1.0696816607467587,-0.4080210793305013
6.40234375,0.516871954707885,0.5197725669511203
6.40625,-0.0053815484540526565,-2.3194680638979777
6.41015625,0.012947668660952363,1.3711402116502398
6.4140625,-0.2459064236825098,0.12155684490897625
6.41796875,-0.3245790730252844,-0.3481393382731593
6.421875,1.4449301242578154,0.049976548196504066
6.42578125,-1.3938226674751837,0.23418171592767045
6.4296875,0.8479844548557093,-0.6306240238680091
6.43359375,0.00590478837709021,1.4646414229355238
6.4375,0.13922225535176208,-1.053500191241078
6.44140625,-1.7598247750179579,0.9573792037467291
6.4453125,1.4473675784047457,1.0490277160648402
6.44921875,-0.3273413478429739,0.11100734579888903
6.453125,0.5956751403303515,1.0118484677646897
6.45703125,1.3767268321880017,1.1221843585721616
6.4609375,0.46792957200884433,0.12046924047367319
6.46484375,-1.0843542456161097,-1.0655222809385354
6.46875,0.20872324573615014,-0.6319763355985174
6.47265625,0.7517094073173389,-0.3274373194245757
6.4765625,-0.2772657938230702,0.9076398303270397
6.48046875,0.30252631281853726,0.1084069267328123
6.484375,-1.1773357556483672,0.39264056997066477
6.48828125,0.3348085241531709,-0.9714456006505132
6.4921875,0.038583819167292165,1.4413923273993279
6.49609375,1.2680506773811713,-0.33937478886141564
6.5,1.068462763071993,-1.9821328580609339
6.50390625,1.061171528476589,-0.19164815344546968
6.5078125,-0.15337028515695178,3.1030117829193915
6.51171875,1.0151654334935447,-0.5956226332328362
6.515625,0.7424908774754934,1.5139063579177126
6.51953125,0.5361257878600263,-0.18743255016089932
6.5234375,1.2477028207849095,0.27148756902224663
6.52734375,0.714686073997484,-1.6808984481258318
6.53125,-1.0284047164583885,-0.35298545277977134
6.53515625,-0.4920442496978443,-0.40156554648085624
6.5390625,-0.12782493196924893,-1.3313534855752742
6.54296875,-0.3072123455869207,1.6728159608464317
6.546875,-0.3617776013122629,0.7579903959755095
6.55078125,-0.9340816468279153,0.10493231063455319
6.5546875,-0.14898607530902105,1.088205932317533
6.55859375,-0.1298653209645921,0.8953271442132884
6.5625,0.9252083839335189,1.1200034056823236
6.56640625,0.5013641368585142,1.248300131601584
6.5703125,0.6821552807644241,-0.5413298534729934
6.57421875,0.31228025797919684,-1.0011313390083632
6.578125,0.5380658853298305,0.31986981408771137
6.58203125,0.7460533419505594,0.9543512856758732
6.5859375,-0.6627261631453208,-0.4925523152594328
6.58984375,-0.825301346256215,-1.580589304248384
6.59375,-0.14157121494316227,1.7080256236510278
6.59765625,-0.28792789817247577,-1.2767868170430006
6.6015625,-0.45719828522033407,-0.9939014816781522
6.60546875,1.2936862592179936,-0.6635567327207628
6.609375,-0.5469768885460532,0.25498135479745904
6.61328125,-0.917548918040855,0.9033343954906258
6.6171875,0.08054976831494277,1.7893731289858466
6.62109375,0.19432338927318016,0.02680973387929896
6.625,1.3005669990986128,-1.0654574911419732
6.62890625,0.0846490534190357,0.10937923947635281
6.6328125,-0.5862172280838784,-0.595489008530477
6.63671875,-0.4363978250706946,-1.8893098402665207
6.640625,1.1493207094247195,0.850435592470885
6.64453125,-1.070320119613097,0.998975181690194
6.6484375,0.8901184702633052,0.13605378367504836
6.65234375,-1.3236086329519265,1.7219049621200075
6.65625,-0.6275271539366988,-1.3016870034980774
6.66015625,-0.989940503540981,0.2268776295451072
6.6640625,1.5594177372648041,-0.7760597888337503
6.66796875,-1.1997018133164543,-0.2016612610517435
6.671875,-0.19802109766614712,-0.13591777900482138
6.67578125,-0.6158453415617482,-0.7138157788387046
6.6796875,-0.33239033813103275,-0.262003061983883
6.68359375,-1.0023602195124655,0.2606109344673682
6.6875,1.0557252888152673,-1.1290370868380135
6.69140625,1.8730707894279948,-0.06920223529535698
6.6953125,0.19089726754155054,-1.0211190345518737
6.69921875,0.39398704634818993,-1.0757661113813846
6.703125,-0.27109653314367993,-0.22081290731191544
6.70703125,-0.7239159868935845,-1.8040206187365422
6.7109375,0.14494407448051505,0.09769286233003911
6.71484375,1.9146181887628977,1.1447756722974942
6.71875,-0.41469753798826126,-0.1824495681648871
6.72265625,-0.882609533105214,0.552023719850879
6.7265625,1.0233640333478833,0.5309488494218357
6.73046875,0.6384998441540825,1.6258558899899236
6.734375,-0.3680848031230766,-0.2085795587864618
6.73828125,0.10621642545233492,1.3115339015949048
6.7421875,-0.27504399084659853,-0.5484934295977254
6.74609375,0.7805953580406785,0.3856692995107619
6.75,-2.2877752876002084,-0.3835719566023207
6.75390625,0.41766314383878117,0.6638552967749533
6.7578125,-1.3780754931440509,0.20743567209938246
6.76171875,1.3955899783164507,0.4248557361485087
6.765625,-1.1793643493293198,0.829187345203384
6.76953125,0.05180536315352662,-0.8813324949865203
6.7734375,0.5005307480114003,-0.3328914610703259
6.77734375,1.9126774444767338,0.1549648419562164
6.78125,0.0771849484103697,-0.029586042741814502
6.78515625,-0.6298248173755288,-1.0224592868748503
6.7890625,0.1687053063902496,-1.1072960530621239
6.79296875,-1.2616397844940634,-0.8739018430010641
6.796875,0.1550034158262624,0.7316468802026017
6.80078125,0.5168866173589343,-0.2549303616170488
6.8046875,-0.5878317350971691,0.43362119470183813
6.80859375,1.493040659502328,-2.454307564917755
6.8125,-0.5738226557776286,2.164124187809815
6.81640625,-0.6152228079668179,1.0155002887566456
6.8203125,1.5236314336228243,-1.1218096086794476
6.82421875,-0.04745751717304771,-0.15379259575719342
6.828125,-0.5703925705430548,1.0691246452457512
6.83203125,0.6794512161442601,-0.7168276178020387
6.8359375,0.01947018847209249,0.33467793294296116
6.83984375,1.6027988011593386,0.7919021377730581
6.84375,-0.4100238493406155,-0.8688927461484559
6.84765625,0.48705262738076777,-0.350290639850049
6.8515625,-0.20534523124093929,1.039861745458724
6.85546875,-1.5759379662765758,-1.6642699149754292
6.859375,-0.1563022585420604,-0.3512923011982594
6.86328125,-1.3255897761440747,-0.9772926981237913
6.8671875,1.8339590024101546,0.20931316796339364
6.87109375,0.4011803561080039,1.7873094166346724
6.875,-0.07982341577136326,-1.245650823256482
6.87890625,0.39221934302277023,0.34995775296705356
6.8828125,1.9160864936789608,1.6477413145603892
6.88671875,0.020793791190179406,-0.2978576793641385
6.890625,2.3499558657585524,0.7497654278679886
6.89453125,-1.656599365793199,1.1744238342265356
6.8984375,0.9274872621979007,0.5630460912296447
6.90234375,0.8728597376853859,0.4457580781987889
6.90625,1.3186587615831125,-0.09938624821133449
6.91015625,-0.5590852727359017,-0.09666585304465988
6.9140625,-1.3653691130195733,0.46302818908729326
6.91796875,-1.3841953752937304,-1.3503738797159253
6.921875,0.11906138622690476,-0.5629163153394346
6.92578125,-1.3259126404781267,-1.1702678056019273
6.9296875,3.0823165380174338,0.383290695721361
6.93359375,0.6274309157539169,-0.2387825821011687
6.9375,-0.085751377941702,-1.021174577453047
6.94140625,-1.058370317365797,1.1058654652516853
6.9453125,-0.3969677449557177,-0.4244048088056943
6.94921875,0.6999783318005013,-0.49069215216662093
6.953125,-1.2175409881231973,1.1376503211373248
6.95703125,0.3551697804168308,-2.1256268775922122
6.9609375,-1.3633134287637994,0.8097744831588816
6.96484375,0.795842354454406,-0.25366989104002496
6.96875,-0.9435915699959182,-0.4324572002049903
6.97265625,0.3552206749381218,-0.609929655811643
6.9765625,1.992303243663537,-0.9420027046983875
6.98046875,-0.20295701642243227,1.35475330393774
6.984375,0.7963220876157905,0.651561384552087
6.98828125,1.4631851184494356,0.0867903662926826
6.9921875,1.8634018747542256,1.4072615695766177
6.99609375,-0.06686868741224489,-0.19264604570937796
7.0,1.8064677990135887,-0.9780729743218592
7.00390625,-0.6185872896562485,-0.611093516894533
7.0078125,1.4314814198699837,0.38716221934329503
7.01171875,-0.7328366339707868,0.8072793327260093
7.015625,-1.0182919568119524,0.45536255389559077
7.01953125,-1.3494163321549693,-0.6115782473599111
7.0234375,0.26222611112253513,-0.45736012502700857
7.02734375,-1.8389594717270565,0.1917242908649459
7.03125,0.9312972891117478,-0.9500283392262233
7.03515625,-0.9738112052515022,0.15624882791653216
7.0390625,-0.5737676015964972,1.2442196954498195
7.04296875,0.2986883232364776,0.18015158316672664
7.046875,1.5893070958274798,-0.6594353064277441
7.05078125,-0.7811801808994825,0.7975500480168469
7.0546875,-0.27860780623146836,-0.6424757863978495
7.05859375,-0.7788934120167483,-1.1956058852719567
7.0625,-0.08187304743418639,1.8477534589548403
7.06640625,0.24954848805699154,1.741393716721061
7.0703125,-1.9346522695584714,0.3994233998101524
7.07421875,-0.8662342802331481,-0.3779799375669574
7.078125,0.9538965001382885,0.4342667119101311
7.08203125,0.7810522276533105,-1.8145780802407845
7.0859375,-0.33040759076459036,0.0962225136135607
7.08984375,-1.176898666030835,-1.2133899291686483
7.09375,-1.5532347635015742,1.3059737032696916
7.09765625,0.23501781138030123,0.597815149077567
7.1015625,1.557748341209166,1.033363302616123
7.10546875,-0.7709291559834699,-0.03349244316884313
7.109375,1.5018090272323488,0.15546277466413055
7.11328125,1.7366350189586406,-0.28080289556480204
7.1171875,2.0230437641699703,-0.3097637398506168
7.12109375,0.5728645439299204,-0.571763349123824
7.125,0.6983237396025811,0.5299962382290956
7.12890625,0.7423157165085682,-0.6518555309942304
7.1328125,0.5184035223641644,-0.005438374179958077
7.13671875,-0.2621817152403649,-0.015591155342357764
7.140625,0.38327612451624166,-0.6653677417362802
7.14453125,-0.6108646968954803,0.5657872861553152
7.1484375,0.11837180558868983,0.8460745768846992
7.15234375,-0.25724321637607106,-1.3312570374029227
7.15625,-0.06667254211525685,-0.36332216865338973
7.16015625,-1.5976232187457122,0.29015103970452244
7.1640625,1.6432762923682933,-0.2805800022232492
7.16796875,-0.9770776733252532,-0.40808956740807456
7.171875,-1.0292352319828766,-0.26482145295567977
7.17578125,-2.0450484143253576,1.1347610916620785
7.1796875,1.2550329469221857,-0.3740943201025941
7.18359375,1.378272398717288,-1.1578688415342646
7.1875,1.2521913484617737,-1.747071712339431
7.19140625,-0.6819179164640929,-1.390743369485037
7.1953125,0.29862227003749436,-0.34617369824251165
7.19921875,0.11758740926523459,1.3815189218442352
7.203125,-2.3169379566937525,-0.5557235398104519
7.20703125,0.4085567091345478,0.9410979496457674
7.2109375,-0.39848998218978954,-0.7295651170819144
7.21484375,-1.6383630933575277,-0.9168409253330329
7.21875,-1.6165580550851846,-0.9105013640609615
7.22265625,0.3872755725745834,2.082968066221921
7.2265625,0.22574852985812008,-0.6191570278448395
7.23046875,0.9831945863243224,-1.344322651811745
7.234375,-0.47178833866047903,-0.630411309447876
7.23828125,-1.2688039063912264,0.21577301604172647
7.2421875,1.1863957950876622,-0.022762723603319227
7.24609375,1.1243849123952137,0.020066773708680992
7.25,0.9921568300838963,1.1367249035515243
7.25390625,-0.5892848200088701,1.5240150690175653
7.2578125,-0.5665340130941764,-0.893804642986666
7.26171875,-0.24764315450603777,0.27546229516605725
7.265625,-0.1712572197229929,0.037383202538239686
7.26953125,-0.1365431918548461,0.2887787553823373
7.2734375,0.8074877971446527,-1.6128781955837028
7.27734375,0.8097785893917064,-0.3739102568219678
7.28125,-1.2265444231909013,-1.0501073904582483
7.28515625,0.08444305124725981,-0.12419686841620185
7.2890625,0.12250398367541622,0.08643539396796043
7.29296875,0.34625571421094414,1.3229852034211695
7.296875,0.2819455048568697,1.5708690301840047
7.30078125,-0.4518419389292635,-0.07466750244097155
7.3046875,-0.1818120658319016,-0.18558085411175063
7.30859375,1.8074874713173998,-1.2647736396435094
7.3125,-0.14558393284694335,0.9770917182610075
7.31640625,0.06697023172880623,-1.4349907412921867
7.3203125,-0.17987010924915922,1.3183528940863474
7.32421875,-1.6596508301503978,0.9718275843725301
7.328125,0.07968197915668407,1.338308103796321
7.33203125,0.33992868816403,-2.074256327536659
7.3359375,-1.2180456415391192,0.1820519235530607
7.33984375,-0.401629189355575,-1.5350784553811425
7.34375,-0.40352949167260266,0.8895946653916017
7.34765625,-0.024120302944003705,-0.617548865162038
7.3515625,0.0920439436289683,-0.6806309320746526
7.35546875,-1.226086130805143,-1.4323717012675845
7.359375,0.7555994978280541,-0.7438469108514273
7.36328125,-0.22823020201047375,-0.3421718325559083
7.3671875,-0.1874836393166493,0.7077408434671644
7.37109375,-0.2895387019716942,0.15566623408248498
7.375,0.7145117141551026,1.2922865036682223
7.37890625,0.4365914114069629,2.642495094159792
7.3828125,0.3657604271868674,0.2493479694041715
7.38671875,-0.7747110435214698,-0.6695603247708456
7.390625,1.0106643469928358,0.6980585954217218
7.39453125,-1.0114984618034073,-0.0002907962452525607
7.3984375,0.38582733237627065,1.4433177059657112
7.40234375,-0.5162618647415642,-1.6537510093865002
7.40625,0.005736177039330923,0.0935843480723382
7.41015625,-0.8106149938583697,0.1971038366768324
7.4140625,-0.10029083107642423,-1.2376870451767603
7.41796875,-0.007193524154715933,0.04519401789647338
7.421875,-2.3919897044005096,1.702363294242362
7.42578125,0.0066675364092048965,-0.5636743726464004
7.4296875,-0.4420591595725633,0.9306958787800658
7.43359375,-0.490620634980563,0.6667841285185617
7.4375,-0.07171144551918705,0.6279360678004975
7.44140625,1.7918962496313973,0.9599208078685031
7.4453125,-0.9662247170536942,0.1866416873837694
7.44921875,0.028436635387444488,0.34546137387517245
7.453125,0.35621247146457796,-2.095269959163743
7.45703125,0.6292374649171185,-0.8781184164126675
7.4609375,0.4322085047563275,-1.2643961328458593
7.46484375,1.1852336611045358,0.10276224112485624
7.46875,-0.41353555619515237,1.8578185765465962
7.47265625,-0.1532780516125469,-0.4812220011821862
7.4765625,-1.060874174853373,0.6617250542659394
7.48046875,-0.3084177055830688,1.1876238268075516
7.484375,1.2213404721388066,-1.1348093097190513
7.48828125,-0.8069423996006831,1.483877091513409
7.4921875,0.5066197770722596,0.9667861987490478
7.49609375,0.7667516525698587,-0.0664812388756549
7.5,0.05269850921823912,0.9917645055692554
7.50390625,-0.8863193330816774,-0.48201514275159496
7.5078125,0.9692961879154463,-0.12795244705818606
7.51171875,0.012169011197056432,0.6300573525028851
7.515625,2.4946701667041533,-1.4871370755053714
7.51953125,0.21506718048162907,-0.33315552210434257
7.5234375,-1.6495504836846722,-1.030280170241509
7.52734375,-1.5096434973618564,-1.449978316303696
7.53125,0.9249536771610831,-0.4028735562850496
7.53515625,0.29339477835517735,0.4298702662693892
7.5390625,-1.1597794774591488,0.3361474825032218
7.54296875,-0.3358656547201025,-1.765360688314539
7.546875,0.22490969043723916,0.08653312901298936
7.55078125,-0.5643073618280539,-0.6734363212791802
7.5546875,0.5746337043140886,0.6455828648685716
7.55859375,0.09279946081687351,-2.013396029995568
7.5625,-0.22025799510525268,1.5177592178979686
7.56640625,-0.28550519429264903,-0.09916547249302318
7.5703125,0.19051201518710623,0.09368635888562592
7.57421875,-0.13574549247883916,-2.030164836590536
7.578125,-0.2229251060482909,-0.2508446819481639
7.58203125,0.6042644238296894,-0.5068905391323206
7.5859375,0.18860286812960844,0.47045808208873957
7.58984375,0.76720807606759,0.15489102924826806
7.59375,-0.6391960364095608,-0.8814514788550994
7.59765625,-0.467180348159128,-0.08800030900054723
7.6015625,-1.3521960187601412,-0.9361213309621722
7.60546875,0.582149193831944,0.7678707886779748
7.609375,-2.3372532662614787,-0.2806953442879067
7.61328125,0.2012253541700146,1.1988292156240328
7.6171875,-0.4885091384725689,0.04544226075848472
7.62109375,0.6633794862976804,1.2025543622978263
7.625,0.1762090595719993,-0.6893104881624026
7.62890625,-0.03843806221806567,0.8275533200339322
7.6328125,0.9889133878482115,-0.8875880467741035
7.63671875,0.03684517988936857,0.18195898273054043
7.640625,1.2502857686396025,-0.31781455771534967
7.64453125,-1.279384221615472,0.6155718330400008
7.6484375,0.8461085623850405,-0.7067484045197399
7.65234375,0.4837902638451724,0.7097621664071369
7.65625,1.0293834230176637,-0.019745108417943816
7.66015625,0.04852133092077894,2.5458817936013203
7.6640625,-0.6456712486838637,-0.6252624722502256
7.66796875,-0.7259461523911837,-0.1587188959157315
7.671875,1.4405856883226713,-2.116762108617337
7.67578125,-0.7721658936577226,-1.1476098348433146
7.6796875,0.295937028512757,-1.191584431604187
7.68359375,1.167989718894504,0.8487037527880991
7.6875,-2.302537615263896,0.40788216497615837
7.69140625,-0.13983022451509572,-0.28072205175785286
7.6953125,0.26109772880383225,-0.005436295688564879
7.69921875,-0.9485280488951389,0.9649025677448368
7.703125,-0.6850823010599681,-1.0454880638011352
7.70703125,-0.21529066392814522,-0.4081337162227443
7.7109375,-0.4854073377456494,-0.6628203849989883
7.71484375,1.4229445548942627,0.12557358707693356
7.71875,0.08745891501706364,0.20848295730891467
7.72265625,-0.38720721488241483,-0.32077047031826245
7.7265625,-0.8939912578918894,0.04690120322050925
7.73046875,-0.5731247160625378,-1.8879515845860435
7.734375,1.1851612897157628,0.8249063102752231
7.73828125,-0.10869531170999633,0.5140685861965992
7.7421875,0.7869936619401015,-0.5656351481183755
7.74609375,1.6818348636774647,-0.39855422004099994
7.75,0.596200710215061,0.7496250733891849
7.75390625,1.8913326863543276,-1.7613778870697023
7.7578125,-0.25942758829180446,-0.6576196522642636
7.76171875,-0.9604686342750588,0.020080372230220345
7.765625,0.2692634775669437,0.7287752758469829
7.76953125,0.5476011612007596,-1.4908424570680614
7.7734375,0.4641656794933288,0.8284451890041243
7.77734375,0.9780494921016694,0.3823252360025176
7.78125,2.0504839951710325,0.4439740277210216
7.78515625,-0.4492869677613771,0.28794844090461047
7.7890625,-0.011171972455953498,-0.43267428379502715
7.79296875,-0.787779304006798,0.7973931683022061
7.796875,1.5981030661646187,1.3565713285659484
7.80078125,1.699086196497333,-0.7582056666302516
7.8046875,-0.471843952127112,-0.10892604951723542
7.80859375,0.43673438007495197,-0.07743036965805325
7.8125,1.218255148563475,-0.1682185035844929
7.81640625,0.3460442446849367,-0.0849499705515366
7.8203125,1.4384923276758694,0.04369338247697258
7.82421875,-0.634549914608962,-0.36975628352424766
7.828125,-0.49552002419569857,0.09730550438056136
7.83203125,0.9294857430092889,0.19049272127187136
7.8359375,0.509431970356589,0.8918958659121143
7.83984375,-1.6579691183919825,0.9935068423504146
7.84375,0.39358994611335796,-0.41568106807684596
7.84765625,1.2634845507041548,0.23525704255305002
7.8515625,-1.464496841967457,0.9141713762026338
7.85546875,-0.3715100351666915,0.06468572101915457
7.859375,-0.6781401122663238,0.3216998775303627
7.86328125,0.6027380966616089,-0.6119343458114845
7.8671875,0.5802113548536215,-1.617297706620485
7.87109375,0.19666134538213187,-0.4600648071297702
7.875,-1.7286136657587952,0.3842647646760329
7.87890625,-0.23559313485725875,0.4242297980362499
7.8828125,1.655810279355229,0.893826609893498
7.88671875,3.1339119354923377,-1.6095042336521928
7.890625,-2.1007072093950794,0.8597146271949396
7.89453125,0.3301865673637459,0.3553225110049504
7.8984375,-0.1360302430895137,0.7401084423143862
7.90234375,-1.3243353199230476,-0.1848901196077766
7.90625,1.1988646246312569,-1.2596711797053644
7.91015625,1.659676352152735,1.9109247954412933
7.9140625,-0.1450932717814931,-2.58534397210762
7.91796875,-0.47904458483693757,-0.14215555386223105
7.921875,-0.7680695418187515,-0.5649233773262697
7.92578125,-0.17680173510656094,-1.5801067662045378
7.9296875,-0.6773969973695285,0.09631606229408932
7.93359375,-0.2735617804597951,1.697582995579085
7.9375,-0.016611377816597838,-0.8313878904522545
7.94140625,2.56645093940834,-0.6463442852516694
7.9453125,-0.41112781757746686,-0.19544279701576714
7.94921875,0.3633465318755999,-0.38075498156145793
7.953125,-0.41971505561444356,-1.1376855369047654
7.95703125,-0.9940851743221396,-0.5480737029322814
7.9609375,1.3926720011945695,0.4875675636111636
7.96484375,-0.5406950726099092,-1.1853398000605542
7.96875,0.12878696734787096,0.9732697371511053
7.97265625,-0.1110404437998054,0.9450670499673469
7.9765625,-1.1277381570629779,-0.7971138928487904
7.98046875,0.7356047593160119,0.9995961699556094
7.984375,-1.6448158852447108,-0.2827955957419403
7.98828125,0.0027867192960250595,0.6649269146752185
7.9921875,-1.4737727652432266,0.7427744582909218
7.99609375,-0.47172899727247924,0.010128624683990955
8.0,0.30344837954838927,0.015476513700898744
8.00390625,-1.8560548939540291,1.0947122447488882
8.0078125,-0.8665887208995737,-0.33722790766762406
8.01171875,0.6588073325157143,-0.8820994559515407
8.015625,-0.9057641861919585,0.4879458462560638
8.01953125,2.163639070615941,-0.5425357815511529
8.0234375,-1.768995422750122,0.8707969434323632
8.02734375,0.20920438065244548,0.4437868906587825
8.03125,-0.16901463387290702,-0.6766396521779406
8.03515625,-1.681674447767466,-0.8748952368940784
8.0390625,1.3664273796963664,-1.0309380191956918
8.04296875,0.2746400794944945,-1.1332268831804233
8.046875,-0.3254248218495183,-0.8332080098349371
8.05078125,-0.16455368186309938,-0.22052229008662733
8.0546875,1.2469846691000859,-0.29544804987386586
8.05859375,-0.22351636735976826,-0.6977213344877754
8.0625,1.0519178190708616,-1.879135750480526
8.06640625,-0.2240619957862104,0.7315113396460943
8.0703125,-0.09175724102415377,-1.596387255249704
8.07421875,0.16750875199201257,0.6888983983503698
8.078125,0.9312409583707707,0.6815994694017763
8.08203125,0.251051086529518,0.3816989443626717
8.0859375,-0.3269937622434507,-0.8518472205474774
8.08984375,-1.7766252722164164,1.6219252365255172
8.09375,1.8123396623339594,1.462548309345987
8.09765625,-0.8052845572545061,-0.8876587442502174
8.1015625,-0.7592676083885012,-0.20577254789223612
8.10546875,0.41378086433977745,-0.1731673486877225
8.109375,0.7143057269359475,-0.1764967014118621
8.11328125,0.1329391455651364,1.29549599852211
8.1171875,-1.5390560167157434,-0.7132344685776392
8.12109375,-0.8853828192832081,-0.9643294103591997
8.125,-0.6525942018725601,0.36586749991256573
8.12890625,-0.4744895340102908,-0.7716271633912931
8.1328125,0.7431552287855101,-0.504245046136497
8.13671875,0.3674816358282461,-0.09086212961783026
8.140625,-1.133628943334706,1.4705183715304762
8.14453125,-0.037793764868319514,0.7049863406790311
8.1484375,0.8138068784230519,0.8274889348079114
8.15234375,-0.47642830900520194,1.2312939529131133
8.15625,-1.9738869908854197,0.5158092769428715
8.16015625,1.2558556333383635,-0.745860672265546
8.1640625,0.3618737666256444,-1.533435280037576
8.16796875,-0.15915227855646222,0.39965232607102696
8.171875,-1.5480941597162583,0.12548977527560468
8.17578125,-0.52155726220613,-1.4694742876638431
8.1796875,-2.8143896339840335,0.8669714010562024
8.18359375,1.4670862477354567,0.6348153926927295
8.1875,-0.5896025299602713,0.6574775008469588
8.19140625,-0.07130840253500176,-0.1795831734078797
8.1953125,-1.20995992815249,-0.806728657307573
8.19921875,-0.6447621366337458,1.0322694433920863
8.203125,-2.432060477511415,0.5578393452525324
8.20703125,1.360220768881594,-0.22381546515846146
8.2109375,-0.26353474496242485,0.386076575955339
8.21484375,0.3136750543823181,-1.8020179369339981
8.21875,0.057866443794561864,-0.6484066906072228
8.22265625,0.1487049292248245,-1.1009795984732529
8.2265625,-0.8989783268418244,-1.570530818123788
8.23046875,1.2033857885119201,0.22178369556504018
8.234375,0.855460388822196,0.7612172189457936
8.23828125,0.15064280795203241,0.5076269175457244
8.2421875,-0.14316780190057332,-0.008410538697024572
8.24609375,1.0222499415711603,-0.9068040268787999
8.25,0.20752939187137093,-2.044612464122883
8.25390625,0.11651895578888605,-0.9272924058922257
8.2578125,-1.0342621600670256,-0.2197769655250784
8.26171875,0.3953419568114446,1.194284466570168
8.265625,1.1814364228475915,1.325841423208213
8.26953125,0.8617406424219087,-1.44113978582917
8.2734375,0.014013493587089813,1.1435399955322303
8.27734375,0.3715830896193835,-1.523599383838765
8.28125,1.5353088309104572,-0.5185318098189036
8.28515625,1.5204865025895737,-1.1120241230762267
8.2890625,1.499455344987589,0.90168969468287
8.29296875,-1.2793738842805071,-0.28160958514528894
8.296875,1.5180183987685003,1.8996009533389968
8.30078125,-0.821512590994017,0.06929986255755356
8.3046875,0.02117845913284418,-0.3119797211607265
8.30859375,-0.0010166553714340495,0.30430906950385794
8.3125,-1.342202109599401,-0.09984933036030275
8.31640625,0.026936515647678388,0.8313946286517371
8.3203125,0.15917810720169617,-0.17706951832478315
8.32421875,1.6299422729542914,0.16946067303485207
8.328125,0.5356437291111814,-0.43801819333820746
8.33203125,-0.06461860141447787,-0.14107590443963514
8.3359375,-1.1768414986467994,1.4599077796959667
8.33984375,0.8017607644657374,-0.36743522687951713
8.34375,-1.5881470155609108,1.085478201106556
8.34765625,-0.7963744757624516,1.1326896794738652
8.3515625,0.27412871689852386,2.2700185313353316
8.35546875,0.9012747459376588,-0.510748230511071
8.359375,0.7276637056380575,0.7286515534544578
8.36328125,0.21177304733388355,-1.1265724034152866
8.3671875,0.03814657230121454,0.8982916830134633
8.37109375,0.6572637370610622,0.5862914541651217
8.375,-0.4370618995202764,0.17581729427068882
8.37890625,0.22819013636609867,0.620997062282239
8.3828125,-1.3110743816720942,1.3270659752802945
8.38671875,0.5410306482485076,-1.9213717837769153
8.390625,0.04378982119417417,0.8535299240366768
8.39453125,0.27971971542747176,-1.2136720917864263
8.3984375,1.506379592064784,1.5909405459470507
8.40234375,0.39039438300791557,0.839701430907612
8.40625,-0.6169065065810706,-0.9774575722704962
8.41015625,0.15406502421918297,1.104078526251817
8.4140625,-0.3756990506440588,-1.4379967941528744
8.41796875,-1.0826025196553346,0.5274872515363138
8.421875,-0.18645809530563348,0.37071377127043786
8.42578125,0.7435563782777357,0.7313851167964455
8.4296875,-0.9556161854024985,-1.6313807429882907
8.43359375,0.5278989890966986,0.3255266306442372
8.4375,0.37000866522325004,0.8065209119618936
8.44140625,1.7565613925885464,1.1816188388924183
8.4453125,-0.08606431610401584,-0.4387265786309817
8.44921875,1.9209775567791914,-2.1543495030664013
8.453125,-0.07339387082134163,0.6355528560668381
8.45703125,-2.2194359736170486,0.7885485161065587
8.4609375,-1.2236589910967193,0.3971136180663785
8.46484375,-1.6877555713079817,0.3968617554670095
8.46875,-0.8897192531030114,0.564183523440125
8.47265625,0.7299844821077155,-2.120605652260791
8.4765625,1.8687856984247815,-0.5625852652199187
8.48046875,-0.9521257783754816,-0.7000626449436922
8.484375,-0.04718798035820033,-0.48272258155463305
8.48828125,0.7560477506628157,0.16462673121029317
8.4921875,-0.3865680468521256,0.4281356084799251
8.49609375,1.6947989918629143,0.719640943541138
8.5,0.37934622908068627,1.250605210031915
8.50390625,0.17563827314092628,0.11444279284104454
8.5078125,1.2926135054670453,-0.1809500073952168
8.51171875,-0.8142565422897498,0.6539441293263705
8.515625,1.4380778181518192,-1.5972228997818834
8.51953125,2.235558517911213,0.31025940866632506
8.5234375,-1.12259211007145,1.2196561784096391
8.52734375,1.531142900923992,-0.8623971200196245
8.53125,1.2767430808432823,-0.12584207672795633
8.53515625,-0.5476646414552019,1.1054502908001085
8.5390625,2.032799916085321,-1.8452965279601004
8.54296875,1.1944281773301841,0.40246127295839224
8.546875,-0.34230892254325945,2.25561547876845
8.55078125,0.6628007693989598,-1.4075078606735856
8.5546875,0.6030655713204065,0.4444057824998854
8.55859375,-1.5659371263684545,0.08660251518256167
8.5625,-0.49616474490991347,-2.184599252931626
8.56640625,2.1614935028503783,0.19374565703661153
8.5703125,-1.4646474164884742,-0.47010352900453173
8.57421875,-0.5555614099262528,0.8726416275814393
8.578125,-2.4937637384968534,-0.506898132862093
8.58203125,0.41352024177106966,0.021903309423543495
8.5859375,1.4615164616925282,1.5822811865222908
8.58984375,-0.7183841850050366,1.4950556616029869
8.59375,2.760750767582679,-0.7189438981595634
8.59765625,-0.3000537142644638,0.6946928160237777
8.6015625,0.7565519064022471,-0.4387555858354111
8.60546875,0.6523859517384244,0.7386440685623399
8.609375,-0.7363282315334548,-0.622530336925839
8.61328125,1.0872176614823108,-0.828643967674478
8.6171875,-0.022881161705462144,0.7334382200201649
8.62109375,0.8935295652414378,0.947404080291251
8.625,-0.28991370624622287,0.8475743378142956
8.62890625,0.4271092599129935,-0.880042932878477
8.6328125,-1.4090165995744772,0.19560220413565102
8.63671875,0.29034442940899197,0.2559384231592653
8.640625,0.5852432521189025,0.11408032672622989
8.64453125,0.42578076996482117,1.3720334197726654
8.6484375,-1.3902059629067118,-0.14557835797534516
8.65234375,0.5279351880459865,-1.0199594105011778
8.65625,0.6432845928505165,-0.6057990326384558
8.66015625,-0.6204574042824937,1.226913243156795
8.6640625,-0.9730983311479271,1.191032790539902
8.66796875,0.14564173233472025,-1.6307127194174973
8.671875,0.01947219256160041,0.2512610134290134
8.67578125,0.1724705276928482,-0.4327110121343748
8.6796875,1.3121807016029572,0.07920889280672518
8.68359375,1.2594096413044005,-0.4149790843018342
8.6875,-0.013539652427950173,0.1940330142751182
8.69140625,-0.9317140538823299,-0.12405131270457807
8.6953125,0.06800062822855332,1.9275445316859112
8.69921875,0.6743856733955519,0.34940757535335276
8.703125,-1.903549071170302,1.2085671885830738
8.70703125,-1.8961191164762794,0.12833699281884145
8.7109375,-0.4685073845805926,-0.23144396811027435
8.71484375,1.6018362428017539,-0.39313997049336097
8.71875,0.1582497936470022,-0.41037864288252074
8.72265625,0.5869035242990124,0.35878328515346425
8.7265625,-0.5296254281463592,0.5090496653173633
8.73046875,-0.8232035251203104,-0.5408797334158838
8.734375,-0.2541379916833184,-0.40922120456973826
8.73828125,-0.820868117737361,-0.6633982365534411
8.7421875,-0.41642390422759107,0.42574431276391306
8.74609375,1.3045047850299591,0.10543729787214204
8.75,-0.6424637900192345,0.2842411864438705
8.75390625,1.7729034038398228,-2.418906129792799
8.7578125,1.0510962654464575,1.2169691315221727
8.76171875,-0.34022847403439493,0.684008660246817
8.765625,-0.288687425642797,-0.986639174160828
8.76953125,-0.28935823090808727,-0.8492921964817327
8.7734375,-0.15033902504128227,0.6108368527619362
8.77734375,-2.080273784782601,1.728332626265233
8.78125,0.7769898927045145,0.22293788637005277
8.78515625,-0.0895286148559778,0.23210420381980743
8.7890625,-0.05401177774897594,0.06917096480437247
8.79296875,0.16236988672304314,0.8624251441974062
8.796875,-0.6227120576725219,-0.5360407875497444
8.80078125,-1.1769264990824226,-0.17210910483463113
8.8046875,-1.5370331516691242,1.4805000848730094
8.80859375,0.17532012513324155,0.2273785465048807
8.8125,-0.9905844765034966,-0.2431071166540284
8.81640625,-0.7142296113648436,-0.2832124228982765
8.8203125,-1.0673630684857263,0.08489149911559354
8.82421875,-0.2382860186471935,-0.2562980172405884
8.828125,-2.070482629613416,0.09210456835089888
8.83203125,1.0385814390600867,-0.9462975419063935
8.8359375,1.175435213762675,-0.4057612718358994
8.83984375,0.29935408869252284,0.274758728608497
8.84375,0.017680836519602786,-1.255806514591828
8.84765625,0.9438938296810823,-0.20719148365129977
8.8515625,-0.3485605294585269,-0.6216819760053914
8.85546875,-0.6979708575144858,-1.0928604811439946
8.859375,0.24121642140638327,0.4948894117948883
8.86328125,-1.249277274036207,1.1394973920173588
8.8671875,-1.1114353125989835,0.10716575398503442
8.87109375,1.0008889838587256,-0.8727885786445919
8.875,0.015308369348588789,-1.305139895770843
8.87890625,1.95289315209212,1.1624148369173042
8.8828125,-1.4207694068961176,-1.2449114727086572
8.88671875,-0.2163288807287331,-0.4687081453819864
8.890625,-0.3566660477488511,0.029871350465095536
8.89453125,0.019697490302535082,1.1995491206496458
8.8984375,-1.1928863477563887,0.5962166509925519
8.90234375,-1.5619799035966346,-0.49710530417997223
8.90625,0.6845462580668643,2.49201963690058
8.91015625,-1.047590180494766,-0.7558990019827905
8.9140625,-0.6171089460179655,-0.5367942122834644
8.91796875,-1.0692164126385422,0.5419829786447712
8.921875,-0.05476092276651977,0.541647151270179
8.92578125,1.621061496098112,-1.386808581767539
8.9296875,-1.34223652503175,-0.300979662838294
8.93359375,-0.9828848686057027,-0.6677316384845526
8.9375,-0.5730937779683901,-0.8730026762929779
8.94140625,2.1519252703250964,1.049061038659707
8.9453125,0.06006855696440817,0.5448549285321789
8.94921875,-0.8012229389648834,0.5330749256959985
8.953125,1.185341417325209,2.0623097675715534
8.95703125,0.483989302482513,0.5618546948335302
8.9609375,0.47711892026027214,0.555773546992766
8.96484375,-0.6639048698008082,0.44023219663718177
8.96875,-2.259955958275418,-0.326740423607439
8.97265625,0.6268425320831287,0.01066968709439372
8.9765625,0.49692701307447473,-0.07634807259698319
8.98046875,0.1343055537023106,1.7710028134529268
8.984375,1.417379945439998,0.5688242770996983
8.98828125,0.9697398395615027,-0.6483152831301922
8.9921875,-0.9365526132742954,1.1764479606051614
8.99609375,1.0667704945796708,-0.8486332040195034
9.0,-0.2121573861501182,-1.2183220482964343
9.00390625,-0.913420680339215,0.04854002332349452
9.0078125,-0.6825207743475903,2.5692477069262365
9.01171875,0.5947275005373599,-0.927919488300652
9.015625,-0.010191269287505057,0.1120929328471388
9.01953125,0.26159663914512576,1.530958212374212
9.0234375,-0.024919741170693756,-0.43387533461154004
9.02734375,-1.6835942072966912,0.45920117883561495
9.03125,-2.561700098576819,1.2666116879688858
9.03515625,0.8390889907729168,-0.31159363244491006
9.0390625,-0.7060247378266427,0.6184031530019936
9.04296875,-0.8070460728354744,-1.1232555980398544
9.046875,0.6641710662073989,-2.1460556167493823
9.05078125,0.7629185400369923,0.10737476814006926
9.0546875,-1.2336076627215644,0.8744257414326466
9.05859375,-0.13139395085898192,-0.07848653297331544
9.0625,0.9750923194743404,0.46997152111809953
9.06640625,-0.8568974745033708,-0.5543112184096974
9.0703125,0.7912699940281738,-0.7655962883312507
9.07421875,1.161926182205983,1.0507076824662451
9.078125,1.535083501640913,-0.0899585434996264
9.08203125,0.15208189843273867,1.2989192344330676
9.0859375,1.5674600569103423,-1.9124053566973906
9.08984375,1.521464992482355,-1.1366914118087064
9.09375,-1.8393118767141117,-0.4434159839278789
9.09765625,-1.1953861188041934,1.4768720254622552
9.1015625,-0.5880782683628367,1.179498960449021
9.10546875,0.16652378448577432,-2.660839235939051
9.109375,-0.37068390712543364,-0.9290226579465218
9.11328125,1.8139247826486198,-1.0661453978848519
9.1171875,0.8480432644727803,-0.4029201812380282
9.12109375,-0.8041723936562933,0.26467897195523904
9.125,-0.12295898830581954,-0.3293713606353415
9.12890625,1.028674191728574,-0.4488070788672
9.1328125,1.0166631607428556,1.4807766645713587
9.13671875,-0.5358003827059292,1.5541133330969186
9.140625,0.12821858639533568,-0.9472009246364312
9.14453125,1.4989407351113058,1.2458858966974584
9.1484375,0.024561677018766565,0.09580361530961007
9.15234375,-0.11082959313782331,-1.5399640950539804
9.15625,-0.5183035162115545,0.5141288859796223
9.16015625,0.8079507875987546,-0.7578422297184385
9.1640625,-0.7919074307640012,1.2969036382746582
9.16796875,0.1096079312749774,-0.39944878557780816
9.171875,-0.3085876973322016,-0.9831150584394441
9.17578125,0.6658106555708957,1.3989155679253056
9.1796875,1.57922645803702,-0.998230735595638
9.18359375,0.567338179501881,0.42208990547561914
9.1875,-1.05227958924612,-1.7479112945871207
9.19140625,0.2928313306673226,1.961037723806648
9.1953125,1.1449909535949092,2.2619627630187096
9.19921875,-2.4563533359324183,-0.15750728110079343
9.203125,0.7771306670179546,0.5085097997960984
9.20703125,-0.9945868266447788,-1.7933003180104994
9.2109375,-0.27555853057352336,0.4369094775031209
9.21484375,0.9994321857043121,-0.0032177474471937898
9.21875,-0.43420696949369797,-0.7365418443101613
9.22265625,0.6526269975582346,-0.7207713094405828
9.2265625,-0.7429050433252575,-0.4123882435589815
9.23046875,-0.46588176608675114,0.07007397006103334
9.234375,-0.5706475386284281,-0.16481764069992377
9.23828125,-0.29385966450068757,1.6390128342411343
9.2421875,0.2099871765122693,0.6518794162917185
9.24609375,-2.3192489284260405,-0.4130450899328161
9.25,0.5020785074194316,0.17257520074392171
9.25390625,-0.6561651703483787,0.9396098839983957
9.2578125,-0.7730680813131281,1.3015702594620582
9.26171875,0.9234813504634752,0.7084048490409871
9.265625,0.15629031378018704,-0.23675743622995538
9.26953125,0.3236573757729785,0.24185294522854284
9.2734375,-0.6284635599251794,0.852652209903138
9.27734375,-1.6209333756296411,-1.3968089135851558
9.28125,2.2762360877799863,0.5854670649754796
9.28515625,0.1263482709970386,0.28294630823211364
9.2890625,0.4357619999148719,0.6159993225573127
9.29296875,-0.029213469331119464,-0.7162567484160092
9.296875,-1.0907627104218356,-0.3554746662130501
9.30078125,1.4647163360448139,0.849499539900009
9.3046875,0.6548882152277987,0.26938457405274285
9.30859375,-1.8339836347451146,0.15694616033459707
9.3125,-0.8718018973903969,0.7489593563014899
9.31640625,-0.8731916308148233,-0.019765924419242485
9.3203125,-1.0693175678220712,0.21101677820050588
9.32421875,-0.6105085386992531,1.3057030025630887
9.328125,1.1608847775900104,-0.12403373129060118
9.33203125,0.45001273443727957,1.3696849416479984
9.3359375,-0.3636579218144093,-1.3247777582054692
9.33984375,-0.7993180463527956,0.09371664705336151
9.34375,0.3004099593288089,0.5864902450402842
9.34765625,0.4126929701432992,-0.5584088872225532
9.3515625,0.5098172033547207,1.3987179047051088
9.35546875,0.25368273689979864,-0.3973370774778334
9.359375,0.41356856360114075,-0.010921333501812009
9.36328125,-0.22188362058824537,0.17754792733587932
9.3671875,0.46733877115865535,0.5838297472945251
9.37109375,-0.8224202170107401,0.5759097812322863
9.375,-0.20932458683009075,0.21019725492242275
9.37890625,0.43436769666328034,0.8338264808217842
9.3828125,-0.2014723439115227,-0.5693550995876838
9.38671875,-0.13781346928322435,-0.7812444966759725
9.390625,-0.9862917106464826,0.6095447041074884
9.39453125,-0.6113802364201916,-0.9951268959714085
9.3984375,-0.020984600015166326,2.126145438693338
9.40234375,-2.5309719352221896,-0.10750422059908304
9.40625,1.2703094573116949,0.35561819211719564
9.41015625,0.8171225343080654,0.7193838209522014
9.4140625,2.1544087919505492,-0.744521984448698
9.41796875,-1.2421404899886408,-0.22223285779619226
9.421875,-0.2518691395657691,0.08122501686329597
9.42578125,-1.3966511869202896,1.1787192726858593
9.4296875,-0.8252864085499905,-0.3815207999120825
9.43359375,0.6243501896393389,0.6290659901703253
9.4375,-0.5220743148260429,0.6956014958509321
9.44140625,0.6300988693102185,-1.4213662757087673
9.4453125,0.6845630728778247,1.6588601716933726
9.44921875,-0.9566470300085654,0.594718909020137
9.453125,0.025764649485949562,2.147924793769043
9.45703125,0.5538197730532286,-0.281814987456264
9.4609375,0.8168301067082423,-0.4338592454565875
9.46484375,-0.43040963919187347,-1.1165041761893182
9.46875,0.5167757247668846,0.21302446532705888
9.47265625,0.1279726357069233,0.5305615512646421
9.4765625,-0.9503686297696802,0.735075374674815
9.48046875,2.6146958956484494,-0.14030529334663142
9.484375,0.732805723894851,1.2395856109405512
9.48828125,-0.25488875616542583,-1.7905755796218188
9.4921875,-1.2534660528619133,-1.166487068863311
9.49609375,0.8145199122806804,0.21429454705079773
9.5,1.254314708245747,0.6331972868352629
9.50390625,-0.6696213998889741,0.9104693033294314
