time,ecg,ppg
0.0,1.4733367155944512,-0.3655384535499491
0.00390625,0.4245387525648701,0.48693409454668074
0.0078125,-1.9508423211341415,1.8787494817978854
0.01171875,0.7319856722579968,0.08931404446473833
0.015625,0.3317291326168516,1.5468114825971018
0.01953125,-0.877230027565003,0.654079658500903
0.0234375,-0.39420033723675335,1.2679393373117094
0.02734375,-0.6795680403064194,-1.6367424200777085
0.03125,0.21676918574118478,-1.0365608430216562
0.03515625,-1.2192740562142996,-0.030515012368341195
0.0390625,-0.006678965107995037,-1.4877856125267415
0.04296875,-1.1499926101270523,0.4517861745441962
0.046875,0.18461675357962676,-0.5532656675264719
0.05078125,-1.052540117360382,-1.1319075325330927
0.0546875,1.417364797763259,1.2071108856801531
0.05859375,0.2828080550920606,0.8169460762551723
0.0625,2.127721609843477,0.4147068360238972
0.06640625,0.11015290195778724,1.3357283738821013
0.0703125,-0.08923980703140293,1.521776577255165
0.07421875,-1.611250046209002,1.0694942078918015
0.078125,-0.4191746599956011,0.7726584902611761
0.08203125,0.5568936995728943,-1.5531536728656348
0.0859375,1.1104278420797506,-0.27521930214352086
0.08984375,0.9891095799085833,-0.07991039090438562
0.09375,0.005592268218083559,-0.5494576323448318
0.09765625,-0.25294273247548343,0.39397563351984216
0.1015625,-1.444600447180089,-0.5369518835658769
0.10546875,-0.08880937727493717,0.07894222361072654
0.109375,-0.4157920341683869,-0.8240443431297341
0.11328125,-0.6722258244264021,1.3617895837869889
0.1171875,-0.2646961493156254,-1.3887151532760593
0.12109375,-0.43727112879496954,0.13505260847645617
0.125,-0.5687809983287143,1.274481660508514
0.12890625,0.5550049457445796,0.7726850160805198
0.1328125,0.26870401508838304,0.3685481509026373
0.13671875,-1.2302097526307996,-0.5883171359566621
0.140625,0.4464408669602319,-0.13854373036028567
0.14453125,0.1609554438612699,-0.13001993009096968
0.1484375,0.0315156324608559,0.06822151574008423
0.15234375,0.9919568196084986,0.7574332066522961
0.15625,-2.490394607291672,0.017087068428611008
0.16015625,-0.10134100632240542,0.01742163054443614
0.1640625,0.8478976604576332,0.30696444267316775
0.16796875,-0.5893714147681165,-0.3082215540034161
0.171875,-0.7378788753631301,0.481898959735175
0.17578125,-0.1632053275323698,0.2609424233209702
0.1796875,0.5440511026068993,0.8665164454705537
0.18359375,0.00673409574655519,-0.4560700360701892
0.1875,2.0016385133436883,-0.8433198791478461
0.19140625,-0.577863474846175,0.3521766027133774
0.1953125,-0.32033082993561673,0.2868337854408957
0.19921875,-0.6294196103454675,-0.5035336735058227
0.203125,0.983707283691582,1.9817248448783888
0.20703125,0.48892542933967226,0.3838301606580615
0.2109375,1.6543402088169628,-0.25491780397309655
0.21484375,2.5523679042433174,0.9111611143351885
0.21875,-1.0592557240959435,-0.3299518778876296
0.22265625,-0.37619518296446913,1.0224230427367276
0.2265625,1.9004039128938224,-1.403430496518065
0.23046875,0.584008437131952,-0.892124369572995
0.234375,0.18997954265034933,0.20307844064296093
0.23828125,-1.9099871794431098,-0.19244307389430965
0.2421875,0.07955209633806785,-1.9650710769070696
0.24609375,-0.8773147774953256,-0.6269374472736945
0.25,-0.6596771312185926,-0.27516125247687867
0.25390625,0.4637215002110968,-0.6293714542435731
0.2578125,0.14990838121462144,-1.2186008772274108
0.26171875,0.4097505120592451,-1.1977637430310133
0.265625,-0.2518111907646866,-0.7932845215613887
0.26953125,-0.587930161265275,-1.1103754556784962
0.2734375,-0.34832942722440463,1.475448933943745
0.27734375,1.2516105472432226,-1.5332673423840246
0.28125,-1.0007449788945033,1.5254492903257335
0.28515625,-1.021757741123272,0.1267367434966116
0.2890625,0.4247169901729525,-0.9245323207086242
0.29296875,0.02416306895078473,0.9024045369940925
0.296875,2.190955232820927,-1.7871812553783775
0.30078125,-0.7320465396951542,-0.79091138891254
0.3046875,-1.5027965092847038,-0.8358236569626036
0.30859375,-0.5320985905324859,0.6146837671682235
0.3125,-0.27654557485534487,0.8851705507029151
0.31640625,-0.4127963235131181,2.159999521639643
0.3203125,-0.6535156679941188,-0.9148302057699097
0.32421875,-0.40173296767612154,1.856868757000706
0.328125,0.5314933327836138,0.8630642005752421
0.33203125,0.6368410156012092,-0.3435926666861507
0.3359375,-0.8886065799293326,-0.21812565018759592
0.33984375,0.4569535660928659,-0.05276418316713034
0.34375,0.37294049921350036,1.1307835021766701
0.34765625,0.5335700862670398,0.6811854129790441
0.3515625,-2.622089491006001,0.459908301009326
0.35546875,-0.2760920464906317,0.7804249359049248
0.359375,0.9440977150264561,2.7359942862124993
0.36328125,-0.7803636225581831,1.9654864906897458
0.3671875,-0.014548750748672581,-0.6027703556904351
0.37109375,-0.004673961046087126,0.506807974973956
0.375,0.29579515987868965,2.28254461039829
0.37890625,0.885587831005189,-0.7928125966680718
0.3828125,0.38456431221618337,0.7046349925573114
0.38671875,0.7656973646437909,1.1037940729406934
0.390625,-0.00947203629087985,0.6560944525824806
0.39453125,-0.743180183498958,-1.6000119323418587
0.3984375,0.9363795965128082,-0.7517919679163765
0.40234375,0.48375964934737675,-0.4381723653617881
0.40625,-1.0688938996155983,0.21260444250953345
0.41015625,-0.02362735136968721,1.8018705568277964
0.4140625,0.4183424178230216,0.23233863796152437
0.41796875,-1.3314383493393507,-0.913627432953275
0.421875,-0.9221574059259,-1.0048933698465874
0.42578125,-1.4670743169577658,0.5172596999321755
0.4296875,-0.4108431402120105,0.5985592611590457
0.43359375,1.2447837627305642,-1.404174700211519
0.4375,-0.5903736219980471,3.2318069865287304
0.44140625,0.04541447043850914,0.0988550705008522
0.4453125,0.5578420678453714,-0.7495202900653015
0.44921875,0.49643423192447084,-0.6697987198607084
0.453125,-0.36454395375601345,1.485642501906888
0.45703125,-0.23886945226948206,-0.3450044336062346
0.4609375,-1.6686931922849029,-0.5342258339095296
0.46484375,0.738988289421612,-0.826886437902257
0.46875,0.4387033522588079,1.577264693221606
0.47265625,0.12596893285138894,0.8039341894804561
0.4765625,0.18228509174537322,0.36413204800183946
0.48046875,-0.33134692389639553,-0.0755500572337718
0.484375,1.2338541692045097,-2.0864973468391805
0.48828125,0.9587600566881479,0.04927112315577889
0.4921875,2.5760458445594847,1.0064672627609184
0.49609375,0.43645988334272123,0.3064236201540573
0.5,-0.13064604360233448,1.0770427529853297
0.50390625,0.9269878150075105,-0.6826917832904269
0.5078125,0.8304465674940181,0.33797276070326854
0.51171875,-2.6205351381485595,1.024504838036845
0.515625,0.5819245792878527,0.7569241501520954
0.51953125,0.4508406163226874,0.48432876770110533
0.5234375,-0.25479393781361864,-0.22190611848238426
0.52734375,-0.21282509850133915,0.2481563368608361
0.53125,-0.8087749477967096,0.0909871716538719
0.53515625,0.4901738399155695,-0.07784217928977656
0.5390625,-0.09759529458867215,-1.5216620962835112
0.54296875,0.8346349707885448,0.737758131173627
0.546875,0.2012484723359982,0.7917228518661206
0.55078125,-0.19623684976877004,-1.0855920162801393
0.5546875,-0.22281800736026505,-1.3031163907742045
0.55859375,0.221188513737631,-0.707172935144407
0.5625,0.8050879147165534,0.7508712501508391
0.56640625,-1.4204910724793822,-1.0011064177886955
0.5703125,1.414011540288933,-0.6453065472804168
0.57421875,-0.21912881834919398,0.5664759043189527
0.578125,0.4466542417191794,-1.5735226584243986
0.58203125,0.913772744198184,1.896694724269609
0.5859375,0.11754251694884375,-0.1056849868576321
0.58984375,-1.4339050241426134,-2.1485539279744197
0.59375,0.2326647207855767,-2.5716655433345705
0.59765625,-0.30938088965524907,0.3680648495412452
0.6015625,-0.04347969318561642,-1.2289991513868337
0.60546875,1.6482581402958383,1.1025736718726797
0.609375,-0.9372807069886924,1.2161173529502245
0.61328125,2.2511287720507203,-0.3410415323601005
0.6171875,-0.5659976455124712,-1.1448478156021138
0.62109375,-0.0893544382358552,-1.3565287256564265
0.625,0.18790389830628706,-0.9440059419667128
0.62890625,-0.13240212171044213,0.2872504442311263
0.6328125,2.0926564338952787,0.7031386464743663
0.63671875,-0.9729390938993743,-0.9557045811243716
0.640625,1.4081610677813265,-1.6306472620298138
0.64453125,-1.3713050590883615,-0.564015582184139
0.6484375,0.15504213048971205,-0.7357682094074618
0.65234375,0.63023985551626,-1.6225315363910329
0.65625,0.5013026886523672,1.90751585468104
0.66015625,-1.9603952307099277,1.4243951706486613
0.6640625,-1.035263766577523,-0.7045542751923992
0.66796875,-0.35981536049255497,0.28258359359195945
0.671875,-0.5301703698820277,-1.9921375615553432
0.67578125,-0.25304397214577184,-1.1180271193545341
0.6796875,-0.7260751020643078,-0.1224824624057212
0.68359375,1.1788729802499989,-1.5851199481162344
0.6875,-0.3862044610848169,-0.7386072542758996
0.69140625,0.5403628896441977,-0.6893273511691914
0.6953125,0.12659679882931454,-1.5521725536624227
0.69921875,0.6908321052622071,-0.3660418237765143
0.703125,1.1447022656953627,-1.5803330654961991
0.70703125,0.3502625797234386,-1.3044079356423492
0.7109375,1.125364708064755,-1.198251307473175
0.71484375,-1.7004607690482996,1.9429757343242076
0.71875,0.7427867127290003,-1.1512479396804451
0.72265625,-0.856067161228365,0.5135837093298858
0.7265625,-0.17766706441323,-1.8669869185596581
0.73046875,0.7919487675453711,1.1375485234534912
0.734375,-1.2976691453177773,-1.4253577120158532
0.73828125,1.9174985364616923,-0.8656448208998989
0.7421875,-0.7041165535618417,-1.1292319966524256
0.74609375,0.4004310195621519,1.4901225263794726
0.75,-0.7017998895524812,0.7811941591932006
0.75390625,-1.6745983082371834,-0.0435751210513313
0.7578125,-0.8087245825518824,-1.8488681589544307
0.76171875,-1.7348949361027513,0.47161768134917903
0.765625,1.6383040370969788,-0.6466275790862277
0.76953125,-0.8846527699538607,0.24303623282096756
0.7734375,-0.25395333086094535,-0.25739113910709216
0.77734375,-0.8368630389218332,-1.3817363522720099
0.78125,0.1617156345895132,-1.0126879105415498
0.78515625,0.012196330964018716,0.9138858687997995
0.7890625,-1.2620657991046915,0.9881916193730936
0.79296875,0.28025674305978093,-1.1599165160565066
0.796875,-0.8435973828190018,-0.23804640896916218
0.80078125,-0.8320550557142853,-0.04134557157007378
0.8046875,1.0346038622340767,0.6153820216316142
0.80859375,-0.6472236612944853,2.1085412388737073
0.8125,-0.33376793703302693,-0.7271537082952566
0.81640625,0.3945811588636913,-0.6253860503042397
0.8203125,-1.3149713839201247,-0.41971965363218505
0.82421875,0.7312085567323545,-0.5922272006640106
0.828125,-0.23685359728018432,1.0639562204805575
0.83203125,-0.43899327462231086,2.421642995155892
0.8359375,2.610087000291404,-0.4626359803176563
0.83984375,-0.5913294193451222,0.2910181536376493
0.84375,0.18894154872115634,-0.003070959492303492
0.84765625,1.637728031392585,1.3328770150155747
0.8515625,2.290965447152738,1.018258340446213
0.85546875,1.2415703647072067,-0.8387219766835038
0.859375,-0.4570810145044983,-0.05024828255362802
0.86328125,0.8629077283479443,-1.7425267743460378
0.8671875,-0.4123947721197307,0.09078440299911301
0.87109375,1.4897001389845117,3.0760445134803125
0.875,-0.47608836795163,0.07471839578861499
0.87890625,-1.1484157312156278,-0.8319417591015755
0.8828125,-1.93878476673872,-0.17461564960629056
0.88671875,0.1737879042725868,-0.11302488388145362
0.890625,-0.1568229642870239,-0.7066184633559224
0.89453125,0.02619161930069064,1.0229157011516623
0.8984375,-0.8907923450834746,-0.28784208526380173
0.90234375,0.41779851894060355,0.997732643805585
0.90625,-0.6293800080284206,0.5752240635019511
0.91015625,-0.3986553496940194,-2.11032301255441
0.9140625,0.28883305063709924,1.0354083221779151
0.91796875,0.5618725460575712,-0.9952059082522643
0.921875,-1.7519274645186753,-0.9277455594534645
0.92578125,-1.217920045767225,1.2015013862077917
0.9296875,-0.04716742335391625,-1.7690170579863198
0.93359375,-0.13423523730798365,0.13481333010622912
0.9375,-0.24980653801865343,1.109101286718604
0.94140625,-0.4961733988727927,0.5837921230685391
0.9453125,0.4394003501393365,1.8559846896960204
0.94921875,-1.221282956212202,-2.039162482804164
0.953125,1.7244497994349859,-1.246336894110234
0.95703125,-0.29657441634037274,0.1398728562505892
0.9609375,-0.25673734728339315,-0.2600396729024947
0.96484375,0.497391969144785,1.3687542537798845
0.96875,1.1505198274743653,-0.1452039735072399
0.97265625,0.30092269617754724,0.941548335751981
0.9765625,-1.6685835730869498,0.16639206532466402
0.98046875,-0.7778510125614643,-0.9150063331044798
0.984375,1.8578932728213617,1.1036264622399434
0.98828125,-0.29075411696230036,-0.38871382973240504
0.9921875,0.5364028175066241,0.5269370147380726
0.99609375,0.9676955228439907,0.6415443709047127
1.0,1.184813810927477,-1.3760633696303408
1.00390625,-1.1285943765641575,-1.4574919558688626
1.0078125,2.0836107012349285,-0.7660454269044052
1.01171875,-0.02763097848859396,0.6074586506997869
1.015625,0.5026450959385258,-1.3954604810317748
1.01953125,0.5984277469170958,-1.360935991242591
1.0234375,0.5555174992679709,-0.6956044342321012
1.02734375,-0.48585093753337666,-1.5309484257181236
1.03125,-1.4634489716047423,0.7425482419333048
1.03515625,1.0556088919112219,0.054109112028743536
1.0390625,1.9142296858392516,-0.9419540200156307
1.04296875,-0.41729812655198323,1.0410887344679953
1.046875,0.46832062171903177,0.3401995840579293
1.05078125,-1.6653392239779892,-0.21133236562250152
1.0546875,0.5489480559897736,-0.7346657194896079
1.05859375,0.8818026738008607,0.7963114317478794
1.0625,-0.9052864394413477,1.5225575977331676
1.06640625,0.9896262733882117,1.498247754999804
1.0703125,-1.204222935697133,1.468898126687744
1.07421875,0.7434175679526843,-1.3527288841970189
1.078125,-0.750167582981971,-0.9845483546931475
1.08203125,0.321285324236198,0.7898946541106839
1.0859375,-1.146754861491477,0.2747896543481016
1.08984375,-0.7885042771237071,0.40062038871932054
1.09375,0.5153448694151862,0.04144285468873652
1.09765625,0.42249706585602353,-0.2829554355100512
1.1015625,-0.4024154362087929,-0.9954560795415739
1.10546875,-0.1993918649723026,-1.9290188349007547
1.109375,-0.056434808217685914,-0.8252731601008308
1.11328125,-0.8886251865916246,-0.41746197999888446
1.1171875,0.7124735156751615,0.43013707290791514
1.12109375,0.3609292817385647,0.3209066802780064
1.125,-1.0352737003340453,-1.2210694927445302
1.12890625,-0.14247686685783897,0.7773215471076399
1.1328125,2.184547965178368,-0.12406770461958626
1.13671875,-0.5184015871185286,-0.013693497543059673
1.140625,0.3524088736500811,0.45395418988306036
1.14453125,-2.1160120033609684,0.40868237987474815
1.1484375,0.5234617280030568,-0.11777001954064084
1.15234375,-0.7104805147521194,0.6167637440171256
1.15625,-2.1072664301330866,-0.9486796597233932
1.16015625,-0.4451821250605398,0.13342107051906832
1.1640625,0.09734081702655771,0.5785272261684141
1.16796875,-0.1267651038392435,0.6364627181469377
1.171875,-0.6599253797000754,1.5768655444058488
1.17578125,0.48128999277689305,0.25496680401491034
1.1796875,0.5623227806361651,1.4829876403604243
1.18359375,-1.240336022390816,-0.5107571064151382
1.1875,-0.569269631997071,-1.3494010583949103
1.19140625,-1.6555775807328192,-1.6349251171534265
1.1953125,-0.5679473721993966,-0.914439061934713
1.19921875,0.6730692581516476,0.41596924155981707
1.203125,-0.4076782793725682,0.947370678302728
1.20703125,-0.4204134673277383,0.9748353100309722
1.2109375,-1.5870419571871184,1.6788413356654965
1.21484375,-0.9080666786119557,0.6426826865447227
1.21875,0.1250047742669433,-1.3863108718496808
1.22265625,-0.6043118275033089,0.09917862374486919
1.2265625,-0.32877459603095055,-0.6132416086546794
1.23046875,-0.9973466119959662,-0.44657433851342315
1.234375,2.1453958372084383,-0.8951569074516641
1.23828125,-0.5863331219370155,1.3603476439310696
1.2421875,1.0656260980831331,-0.07604287249680686
1.24609375,-0.5827858030480384,0.8117660512832525
1.25,0.638332639478356,-0.7680061766207346
1.25390625,-0.24250282175022547,1.0907174649646088
1.2578125,-0.34910877009701086,-1.9733242339017991
1.26171875,0.5126009197232478,-0.5297511852063491
1.265625,-0.4568663777052897,1.814628875966338
1.26953125,0.23483313591489977,0.3633140922788016
1.2734375,0.3360486170346841,-0.589965408369756
1.27734375,-0.02175333100176801,-0.7258841498502275
1.28125,0.34493713577480994,0.49944346765512115
1.28515625,-0.8673546382541388,0.9012659374250307
1.2890625,0.3968898547262069,0.5972737624819381
1.29296875,0.04405220560961618,-0.08177010487018772
1.296875,-1.2678006364981484,-0.4922126674714098
1.30078125,-1.6330240045334112,-3.4433852896359967
1.3046875,0.22095233639798023,-0.9836108012937556
1.30859375,1.3254601312658976,-1.0122239999477856
1.3125,0.9049428586562617,-0.575070021727716
1.31640625,-0.8193235749515675,-0.1814231366280236
1.3203125,0.4060565884574034,0.16874110638130999
1.32421875,0.31908471603253274,-0.8468939194054055
1.328125,0.5970753043226441,-0.17124783445026157
1.33203125,-1.9373957760736031,1.1060884617181843
1.3359375,0.36686683296611017,0.23614227423901174
1.33984375,0.4623616967914487,-0.9669168285075751
1.34375,0.09041185020728544,-1.2667317610889854
1.34765625,-0.2644903425274216,-0.8924191762755008
1.3515625,-0.4383023784337864,0.9150677526569605
1.35546875,1.0056361346560618,0.25012179438550897
1.359375,-0.48085910861797526,0.3060566272659772
1.36328125,-0.15410869830046375,0.9494707509507805
1.3671875,1.572126156792346,-1.137717126487973
1.37109375,-1.0586027230722854,-1.622124217909832
1.375,1.1683752093334816,-0.8697577473576904
1.37890625,1.4421496339419786,0.10203241211860711
1.3828125,-1.0745052176479721,-0.14138958109012154
1.38671875,-0.8097944225977728,-0.7507410852533009
1.390625,-1.8745161455403743,0.3780639254421496
1.39453125,-0.1543609902697465,0.2066605819176815
1.3984375,0.4755664279278838,-0.3091650170520702
1.40234375,-0.03200762639264103,-2.5864930394009806
1.40625,0.3961072144219155,-0.43482893312258847
1.41015625,-0.29000641040217656,-0.06732479711147811
1.4140625,0.5146637985466861,0.7506796334439054
1.41796875,0.1693272227578808,0.6800629813375487
1.421875,0.19776503028973788,1.6765838828493616
1.42578125,-0.020096596605200193,1.2171891268432857
1.4296875,0.7572816861418301,-0.25085623390950973
1.43359375,0.05842409003965389,-2.090724747455766
1.4375,0.5916889099315537,0.20395112954360475
1.44140625,0.1367009002162019,1.6151200648662964
1.4453125,0.5996452214677527,-0.12343413370771433
1.44921875,0.8481211758673391,-0.8778661603598321
1.453125,0.5949090803575806,0.7485338242328202
1.45703125,0.7672328212691302,-0.2120835071853809
1.4609375,0.2762755896144546,-0.22385871036337712
1.46484375,-0.17815329294030297,0.6523409827153761
1.46875,0.6711786765000803,1.1701891440281924
1.47265625,-0.3355001584094218,-1.4263692865669053
1.4765625,-0.3078582523147041,-1.0998587602856138
1.48046875,-0.5135903424116133,-0.6028445502270807
1.484375,0.1670285823386588,-1.4543184550556176
1.48828125,3.1164417728711613,1.7190468832623393
1.4921875,-2.6891701128885317,1.7878764970397376
1.49609375,-1.9125701316038553,0.33897542916873963
1.5,0.30931894119795406,1.7242567743242454
1.50390625,1.976102462047736,-0.8547151155391607
1.5078125,0.12068482802187383,0.004320472722060629
1.51171875,0.28023471146925794,1.538217395816815
1.515625,0.3951969331160223,-2.0099370297805423
1.51953125,-2.908898013601994,0.41872574373303345
1.5234375,-0.2486522306800307,-0.24603716644458326
1.52734375,-1.612133102986306,-1.6839088506017408
1.53125,-0.9696872209315373,1.62216317225662
1.53515625,-1.4421303804178212,1.2212618751652413
1.5390625,1.3981008884914532,0.1220909937826004
1.54296875,1.2894233631669372,0.6175878168271196
1.546875,0.8645229463548312,0.3970605067487555
1.55078125,-0.049367982368676275,-0.6975557268375525
1.5546875,1.0185455367842295,-0.3657725306178118
1.55859375,0.5306165986305602,0.5908128781507166
1.5625,1.7492959988719265,0.2320789511232362
1.56640625,-0.4366756404917535,0.8214212498916149
1.5703125,-1.7091797770915633,0.4092406781512082
1.57421875,0.1578875499207475,-1.1411962809794967
1.578125,-1.603816784058433,1.6649730294880138
1.58203125,-0.4614617869570454,0.074806317646082
1.5859375,1.757590503414444,-1.6230469172370567
1.58984375,-0.24363993731679934,0.23382742155616595
1.59375,-0.706987592933916,0.6125363091040577
1.59765625,0.020412098449316116,2.0197725028345874
1.6015625,-0.6765204389060382,-0.5277080250679153
1.60546875,0.8768838464696995,0.7734148464474208
1.609375,-0.8074475061594705,0.9038416638912881
1.61328125,0.29154968624299316,2.0691303478491236
1.6171875,0.11910149840626946,1.9059123056459737
1.62109375,0.025673111520440814,0.7113466865143881
1.625,-0.5816752299715856,0.5782905087459828
1.62890625,-2.4711589115236627,0.8949135725960381
1.6328125,-1.8216861161458138,0.7338146963311275
1.63671875,-1.5810586769232335,0.18089203136687604
1.640625,0.7240164168836023,0.26997992481245287
1.64453125,-0.519355410432834,-0.1912974878868971
1.6484375,0.08343481280923769,-0.890161503787012
1.65234375,0.6203416146361879,-1.2609528656483127
1.65625,0.8250432485677307,-1.1364498415572701
1.66015625,-1.952429685530859,-1.1395117136360955
1.6640625,-0.281310116720227,1.1283999738668353
1.66796875,-0.4494106800343524,0.7489260016389816
1.671875,-0.07280784295950811,0.47073887882323695
1.67578125,1.5776247387686713,0.19044333117688983
1.6796875,0.12202336648130727,-1.3851725656131142
1.68359375,-1.4301128760914306,-0.2973605137760173
1.6875,0.9339039998713003,0.6373695453177856
1.69140625,-0.11265421602175117,0.243844674452896
1.6953125,-2.5107301065981606,-1.0157758709552047
1.69921875,-0.3769531320801879,-1.341040544188669
1.703125,0.7689166346970138,1.5398257285647734
1.70703125,-0.7679714083622056,0.6536757128283961
1.7109375,-1.487105871182699,-0.6262799882825154
1.71484375,0.25800762113706943,1.0013003987989049
1.71875,-0.4783201875591804,-0.42029772748927907
1.72265625,0.11533565029947972,2.190587120653032
1.7265625,-0.18245236587726005,-0.19481738345779626
1.73046875,-0.47931879706587743,0.22498955259533304
1.734375,-1.4294678685795148,-1.266407662682309
1.73828125,-0.8190833651161025,-0.2843575764837377
1.7421875,1.4325694984007482,-1.1294975127628017
1.74609375,-0.49324965927226405,-1.3983783902065625
1.75,-0.9806840326701187,-0.39592753374298384
1.75390625,0.6997188990139382,0.16755887572834954
1.7578125,-0.6455833465611224,-0.7093208330469996
1.76171875,0.8301565580214946,0.5926476992512854
1.765625,0.00322633020191938,-1.0237973937066347
1.76953125,-0.18575673810739962,0.5095761783705082
1.7734375,-0.8202066284471965,-0.8230805318165851
1.77734375,0.2245674123178928,1.8305154541612956
1.78125,0.7247090758794275,-0.6171188348260124
1.78515625,-1.2376861266331969,-0.9223256172428739
1.7890625,-0.1756227353202878,0.7213504745141734
1.79296875,0.31627190464403543,-0.20649357389695627
1.796875,-0.4077110813961575,1.2169306189901223
1.80078125,-0.3944802039978863,1.1145044599356417
1.8046875,0.08857056142513393,0.1226348664517135
1.80859375,1.2045205292992325,-1.3553941573708652
1.8125,0.7939024061181637,-0.23882383991095896
1.81640625,-0.31767791984694654,1.2254321363105865
1.8203125,-0.9473055576129282,0.4081623625026243
1.82421875,-1.6677178582466523,0.14554091881440834
1.828125,0.9038981724089122,1.3297474567957568
1.83203125,0.13342548939527699,0.24609354890597587
1.8359375,0.009859936195975638,0.22713617979378561
1.83984375,-0.30263894916149187,0.8401148337905358
1.84375,-1.2120725246599309,-0.831124181890058
1.84765625,-0.6068799211914917,0.41057495398364524
1.8515625,0.36952393500133773,0.2625622548767616
1.85546875,0.252774920420595,0.15943975279740655
1.859375,-1.189466604129217,1.1554077290956026
1.86328125,-1.7092953472473744,-0.20711023243199947
1.8671875,0.33661413035281784,-0.5911499397588605
1.87109375,1.129525608784935,1.078075305915715
1.875,0.44048199651153375,0.7588193608061242
1.87890625,0.05913268809035906,-0.8210565074387782
1.8828125,0.30718336150833464,1.800719176644351
1.88671875,0.07260906096748543,-0.41000227947260437
1.890625,-0.20677090117851457,0.6725525210839737
1.89453125,0.07242701572986447,-1.4122952396416146
1.8984375,-0.03197559289916248,1.2383327440744771
1.90234375,0.5662513377284738,0.5867949913099552
1.90625,0.5128637957878698,0.24322883736051695
1.91015625,-0.17525553336320093,1.0721938838683465
1.9140625,1.0850883199457058,-0.5020963359345699
1.91796875,-1.8941712336062375,-0.28437377672472325
1.921875,0.09900297237981324,2.8692010919744493
1.92578125,1.20428811568668,-0.07098706974479915
1.9296875,-1.3611844043372057,0.6534207422456152
1.93359375,-0.9394049510622184,0.42516152736969953
1.9375,-0.9730049769694707,-1.3546831539372426
1.94140625,0.7278511295627641,-0.750860347709676
1.9453125,-0.5938894344356528,-0.22549082504365545
1.94921875,0.6437235346980023,-1.562400181125011
1.953125,-0.43940095790962713,1.742023211198794
1.95703125,-0.4909529908236987,-1.0883484347667935
1.9609375,1.1771104916178436,1.1209271557563278
1.96484375,-2.0534676199742337,0.22663029753474245
1.96875,-0.6238392809975158,-0.6361907495069068
1.97265625,-0.11506067802297437,-0.4164449234103407
1.9765625,0.4985069943828286,0.011960169790244933
1.98046875,0.995270317440516,0.7836280981793917
1.984375,1.474532649026832,-1.2065097658938833
1.98828125,-0.20290679145635082,0.9063293638546236
1.9921875,1.1162072880713136,0.03059148365318637
1.99609375,-0.5192741199150246,-1.0861323634137074
2.0,-0.7938969349948425,-1.1277248980937489
2.00390625,-0.2670473701217885,-0.005760995716338226
2.0078125,-0.24080602393163392,0.3619010730866689
2.01171875,-0.35970821935226904,-0.4378802499532599
2.015625,1.594998623636496,0.6926842578970576
2.01953125,1.3843478636679427,-0.9012750911240334
2.0234375,0.9190169505203218,-0.8307209939585026
2.02734375,0.03385392303603446,0.4564102920544549
2.03125,-1.5396764208123568,-0.2846667292539751
2.03515625,0.5386551508633356,-0.9482981520432003
2.0390625,0.6577816028900211,-0.01553650858236516
2.04296875,-0.5021770232314245,-0.030240921974407833
2.046875,-0.3917877510181295,-0.6615721428177763
2.05078125,-1.3606564154364837,1.2347876413774077
2.0546875,-1.3567061176778021,-0.7754684885815393
2.05859375,-2.332307952666536,-1.9235300173556622
2.0625,-0.6370805328030623,-0.42353404848716003
2.06640625,-0.7691184170863137,-0.46447505473370165
2.0703125,-1.7388194561788193,-0.5091944363140136
2.07421875,1.157235583885019,0.7328528348903002
2.078125,1.560175138057851,-1.4536537466186619
2.08203125,1.9820771219220465,0.20897871966943302
2.0859375,0.23486360368524764,0.8445931812088378
2.08984375,0.3995687707114229,0.2001261481474304
2.09375,0.5938982669504576,0.08021068499797884
2.09765625,-1.3829198438466839,2.083525332554117
2.1015625,-1.6299932938174926,-0.8769406891983156
2.10546875,0.6854642597632925,-0.6410656986166601
2.109375,1.6911993340387634,1.1249421752496978
2.11328125,1.127146295782841,-0.26007793507229215
2.1171875,1.5919381283747094,1.8026608320861564
2.12109375,0.5219663390190558,0.3366120974075164
2.125,-0.8555970501509715,-0.4786914824619529
2.12890625,-0.5608257902243333,1.5090827104181401
2.1328125,-0.7395943573558387,0.24638728918716118
2.13671875,-1.04462653161295,-0.8205299277254164
2.140625,1.630236312260523,0.5219589272220464
2.14453125,1.4784989740632026,0.4084111529392032
2.1484375,-0.44675376436192715,-0.21683560050940948
2.15234375,-0.3670354423357964,-2.0554162340071755
2.15625,0.2837230130632547,0.24060348681167218
2.16015625,0.027453335169102745,0.14831916432934494
2.1640625,-0.973034122395696,-0.8540406243645082
2.16796875,0.5999633294193176,-1.1536842649755725
2.171875,0.5255707306341154,0.8241631613502713
2.17578125,0.10868348117424972,0.4589320824862884
2.1796875,1.310702041404763,-0.06651991647450224
2.18359375,-0.8542211706618793,-1.719953820870068
2.1875,-0.8718806163510702,-1.4354105665625108
2.19140625,-0.5952026261937386,-0.712223023005017
2.1953125,-2.121299231647915,-0.879230217749424
2.19921875,-1.4692486973858156,-0.7756172772412299
2.203125,0.9738958479662211,0.5848689166010537
2.20703125,-0.30382153561769243,-0.5608402633078443
2.2109375,0.674204531601855,0.20928675254470816
2.21484375,-0.7785152087818801,0.884085592874094
2.21875,0.2799347042374662,0.5732903207722183
2.22265625,1.458600679060416,0.34128694384285674
2.2265625,-0.6551603854232336,-0.8390743269519229
2.23046875,-1.9666606894565006,-0.14205320111144426
2.234375,1.315652552716058,1.1786909139023911
2.23828125,1.336133879415542,-0.07719686132812309
2.2421875,-0.40276244898505154,-1.1428070980677922
2.24609375,1.303539231343122,-0.10900525714079103
2.25,-0.297257944744482,-0.25771767943511015
2.25390625,1.277254130834832,0.7308152674907337
2.2578125,0.12543077285152043,-0.228404846527871
2.26171875,0.3561356595434362,0.9746270115180193
2.265625,1.8629584736781792,0.2701446326403974
2.26953125,-0.001211185703186045,-0.723655551416195
2.2734375,1.24242882867115,0.3617032560411518
2.27734375,0.6366838563938143,-0.010174261316392416
2.28125,1.802764332628811,-2.422980480752761
2.28515625,0.1289570180902646,1.4114401848461824
2.2890625,0.25567989620768167,-1.3820028456029518
2.29296875,-0.5382402064569988,2.1606691632785604
2.296875,-3.8451199268401277,-1.637310312611888
2.30078125,-0.7110319186252583,1.106369996362765
2.3046875,-0.6594140211837748,-2.321683550018411
2.30859375,-0.17129148149581175,-0.4183767447812737
2.3125,1.2550564239392257,-1.2296179784649741
2.31640625,-0.7683209384839484,-0.9962227537785503
2.3203125,0.4184150845573472,-1.1950999689375008
2.32421875,-1.246134221429742,-1.5222833129274569
2.328125,-0.15957560761406617,1.1559414142682733
2.33203125,1.2715429157918838,-1.3278988554815163
2.3359375,-1.8534193913968653,-0.37946222390077383
2.33984375,-0.9219261048714443,0.8706680648860868
2.34375,-0.4316494098409328,0.9162526499749759
2.34765625,-0.6268560355407127,2.474976313990251
2.3515625,-0.8316680528467454,0.413976825618657
2.35546875,0.46050739941900193,-1.0507183319297624
2.359375,-0.8740195025233121,-0.25302778300735723
2.36328125,-0.0705140223943967,-1.0478510514335049
2.3671875,0.2837877666762372,-0.5998187456505348
2.37109375,0.8782417050930104,-0.056358715345453676
2.375,2.6455533147594825,-0.49823476445658593
2.37890625,-0.36431851495675066,0.7170725771058839
2.3828125,-1.2695656121095817,0.881714002000542
2.38671875,-1.209740185377491,-0.08740842340208091
2.390625,-0.33124014461600004,1.6539384087166866
2.39453125,1.5513113155430536,-1.605914392218071
2.3984375,-0.45960922286095995,-0.008432761413448987
2.40234375,1.701267747396321,0.5879616015507029
2.40625,2.6507386588005213,-0.747127773511758
2.41015625,0.5591290063431632,0.2734729952615241
2.4140625,0.5245447452450334,0.32939370790319195
2.41796875,1.529672515437677,-0.48082437149201923
2.421875,0.5270583474079206,-1.141513744485079
2.42578125,0.887094300906672,-0.013745654074432801
2.4296875,-0.3304860814637301,-0.6537116726107498
2.43359375,1.0953244922722116,1.5688182368397574
2.4375,-0.165433324897563,-1.4939544276266468
2.44140625,0.99047504955044,-0.12951960947018656
2.4453125,-0.7681998771310063,-1.3553504223971455
2.44921875,0.5237857537023102,0.7503354833185681
2.453125,-0.9780332643298031,-0.6337010853604834
2.45703125,0.5054118604684146,-0.16306204179376416
2.4609375,1.5546125852830388,1.020083908057888
2.46484375,-0.21121412021578892,0.20619488165331626
2.46875,-1.0264063997463961,-1.4007831065908447
2.47265625,0.23976744240595366,-1.6843676270884718
2.4765625,0.9875107790244412,1.0606995523291227
2.48046875,-0.9783075297301719,0.07735063256807768
2.484375,-0.5088942430895105,-0.6569730561233105
2.48828125,0.3252127291353289,1.0653330546067508
2.4921875,0.5274428839756671,0.1425000337466305
2.49609375,0.8470779861931375,-2.153036546500105
2.5,0.7782723311508093,-0.049270398605925095
2.50390625,0.9215404946938248,-0.30696907141597224
2.5078125,1.4352923078652249,0.5226363738521356
2.51171875,-1.0011739844107481,-0.25128014589801906
2.515625,0.5376727110664392,-0.7353915691555447
2.51953125,0.5298268661120384,-0.10605922511078848
2.5234375,-0.3706708409437979,0.02436318232188827
2.52734375,1.6220908479897265,0.6218522457865067
2.53125,0.5032246633193418,-0.8059171378435924
2.53515625,-0.37884992148240404,-0.33755988098063827
2.5390625,-0.6015089007887521,0.8030275338669836
2.54296875,-0.4311683590830624,0.22880483383643965
2.546875,-1.0114941658022074,0.24392018901527313
2.55078125,0.4807692232759279,-1.4623664231426778
2.5546875,0.3155709181694506,-0.24401029811660155
2.55859375,-1.292551174973969,0.5110337627663911
2.5625,-0.545905991290856,-1.8949419464905577
2.56640625,-2.4834267246793393,-1.4707565622090681
2.5703125,0.7605615492193978,-0.2664285023407
2.57421875,0.738104232717088,-0.7818146395487315
2.578125,-1.3620912605786428,0.7623086779213294
2.58203125,-0.47387736177951006,-1.1459684918601356
2.5859375,0.29943086012674325,-1.2351502379724577
2.58984375,-1.1171749937676545,-0.2242678974602244
2.59375,-0.028497719698774914,0.8661102488627844
2.59765625,1.022303227520977,1.2620985704372185
2.6015625,0.6388160500416326,-0.20876627180949633
2.60546875,1.5853758423359123,-0.6498253454754105
2.609375,0.43032926197573895,-1.1482968543601622
2.61328125,-1.4047819103765549,-2.225855671537771
2.6171875,-0.6047411808553772,-0.7344723342234601
2.62109375,0.08759836135242687,-0.30981447884158453
2.625,0.9481218190198548,0.24580401014475844
2.62890625,-0.6752139238167493,-0.6026686496348259
2.6328125,-0.12204818635464569,0.20030133013074403
2.63671875,-0.41074898214050537,-0.23919070888531416
2.640625,1.0699137282980375,0.24571120754492537
2.64453125,-1.5129730451161556,0.5556918691959564
2.6484375,-0.6814449810811474,0.2052894520675291
2.65234375,-1.6197853929108557,1.8188157216936014
2.65625,1.4080172525559316,-1.0724453577103947
2.66015625,-1.7964876836363772,-1.071099383496749
2.6640625,0.32063066909132365,0.37848416379934396
2.66796875,0.9896677785637723,-0.2112022737423693
2.671875,0.6287960371275143,0.3810395584120481
2.67578125,-0.6119356364434475,1.3839667242681832
2.6796875,1.2920980498410268,-0.21706941293107707
2.68359375,1.1900368276012616,-0.5705148306439511
2.6875,-0.8069704371562911,-1.2402328031072796
2.69140625,-0.0709597274310178,0.046736977840549046
2.6953125,2.0643736997699444,-1.347585476699718
2.69921875,0.18920790252047348,1.2637853069010672
2.703125,-0.8849261421329618,0.2616538239208958
2.70703125,0.807875161379912,-1.0494756745233664
2.7109375,0.5214035275095681,-0.134846992546394
2.71484375,-1.4300123558408528,-0.5281246857604981
2.71875,-1.3000031550499425,0.7791777792074962
2.72265625,-1.2891376372071566,-0.9349352191808883
2.7265625,-0.349698002450956,2.7903490842832412
2.73046875,-0.35167650032216785,-0.4179610547028904
2.734375,0.8912584461180231,0.23720780096465394
2.73828125,0.15554158329106912,-0.8076867581784694
2.7421875,1.1080991842764456,-0.27585049442795034
2.74609375,1.5143366474173676,0.6791060157830101
2.75,-2.2096272890203643,0.3771440230435414
2.75390625,-1.0438803311105354,-1.2038783519996359
2.7578125,0.7530394788553587,-0.3792712522573359
2.76171875,-1.1681339007260363,1.5538701229416951
2.765625,-1.0691388657540781,0.3082430877290313
2.76953125,-0.49579215617338546,1.2917914943556799
2.7734375,-0.39122721771087626,0.26864352681255765
2.77734375,0.5745289173072721,-0.7441038491638686
2.78125,-0.16864180835946602,-0.20233213967233585
2.78515625,-1.4468717062770833,-0.20299457107562255
2.7890625,-1.0267458205950653,-0.8558032771530322
2.79296875,0.39835027070227175,-0.42531754861087123
2.796875,0.4397121920239916,-0.755052105258296
2.80078125,1.3496532776405703,-0.9201266016354643
2.8046875,2.3765912506774365,0.4494678060234788
2.80859375,-0.9251239787180152,2.29539686426926
2.8125,-0.46395141127461514,2.4925101421364833
2.81640625,0.254951375991838,1.7617358369981764
2.8203125,-1.3313985702995337,1.4906918114203582
2.82421875,1.8360156711834423,0.39940290397114947
2.828125,1.9301933604530692,0.048613683429614
2.83203125,-0.33447862777151516,0.7945680939092119
2.8359375,-0.6274941871192133,-2.4294765667072857
2.83984375,-0.48931957407275445,-0.9509402016445645
2.84375,-1.8725878777569676,-0.9211770358398231
2.84765625,0.7686099340941699,-0.37640078908826485
2.8515625,0.694742877150547,1.711287802117154
2.85546875,-0.04084706438901185,0.26246035417597297
2.859375,0.021918967940019584,0.03709358407029591
2.86328125,0.6527416666366931,-1.1138986425718862
2.8671875,1.0262457477400229,-0.2353778835114316
2.87109375,1.8589684566326927,0.18242470461249843
2.875,0.805552108587754,-0.9043552998549332
2.87890625,0.9689796144892989,0.0582002834153042
2.8828125,1.5573836934808882,0.5473067995677633
2.88671875,-0.3244803603392358,-2.6534091032018603
2.890625,-1.2815282934094365,0.22196237721982615
2.89453125,-1.2714590779503991,-0.15868812643602273
2.8984375,1.5179569058386742,0.9605989316651421
2.90234375,-0.6519181215694468,-0.7566448574366237
2.90625,-0.7482659452944621,0.8402104225540803
2.91015625,-1.0169982013478782,0.14213789401729113
2.9140625,1.961640802108451,-2.057531211470295
2.91796875,0.6347739583483902,-0.13263167100655654
2.921875,-0.2384723788351181,-0.4583334921013658
2.92578125,1.733246973268212,0.42773566667749163
2.9296875,0.8426847535631719,-0.882560270146551
2.93359375,0.14497586515058955,0.9479539731762449
2.9375,-1.844495140179317,1.2686831389072946
2.94140625,-1.2826993005906702,0.03089186686994694
2.9453125,0.2988192054988211,-0.5037616326615707
2.94921875,1.0828317007483492,0.2312319393368592
2.953125,-1.1045258375207476,0.10064538663189465
2.95703125,-0.7374667146051773,0.03404592993142911
2.9609375,-1.546963989017252,-1.7366046783026237
2.96484375,0.12173611762201146,0.17179134369827195
2.96875,-0.5875634286352616,0.18760939536947355
2.97265625,0.2096499361453296,0.8594215492121016
2.9765625,0.014992001174918534,-1.4436109274464997
2.98046875,-0.5040582275715038,0.49993515794790944
2.984375,-0.8705173653203695,0.1534171786398584
2.98828125,0.5618646713028922,-0.5291834598450099
2.9921875,1.4823103419916048,0.8108500442300168
2.99609375,0.3817207164432618,1.6267373790766413
3.0,0.1080312627851809,-1.5032717415704646
3.00390625,-0.035296951451204525,-1.0814081665316422
3.0078125,-1.0501882862081886,0.7163301507935943
3.01171875,1.1943984899669335,0.33362248623389423
3.015625,1.1095198952058816,-0.13624417741520958
3.01953125,1.620125270336618,-0.8909068604855197
3.0234375,0.27043249882014153,-1.5857456747730274
3.02734375,0.6719889412377161,-1.5617172193501145
3.03125,1.0608710864360957,0.6824349291958508
3.03515625,1.3358766409116591,-0.37745591012497254
3.0390625,-0.9799020583786601,-1.8799868827820367
3.04296875,-0.6069121324962271,-1.5748973006635971
3.046875,-1.1358355755244967,-0.8356798411990036
3.05078125,-0.5956834797548837,-0.20649782360099717
3.0546875,2.367512744464385,0.7312983613029642
3.05859375,-2.4272475169678707,0.2674576019556595
3.0625,0.8645635884692344,1.2541136149810297
3.06640625,-0.3218707586738999,0.11439561184603263
3.0703125,-1.2187816548770796,-1.134069796632983
3.07421875,-1.0072738612623597,-1.7373329823747279
3.078125,-0.6616974775993242,0.588989875550802
3.08203125,-1.0692158647272605,-0.14080548526947007
3.0859375,0.7207702777094959,-0.5147773908833004
3.08984375,-0.38129394105773906,-0.15621651870262582
3.09375,-0.7874923238523296,0.4666518570351393
3.09765625,-1.445478388880699,-1.4899508742509036
3.1015625,0.40728872510386493,-1.4921717543835817
3.10546875,-0.9736192922499115,-2.6333814041342007
3.109375,0.2944717761775404,1.5199555560491325
3.11328125,0.1533566919086248,-0.2740951345330627
3.1171875,1.201247315444642,-0.12672330056872624
3.12109375,-1.2433931688469115,-0.9161359511554661
3.125,0.7929832418833054,-1.7189250726661147
3.12890625,1.3879560337606094,-1.8784058592849662
3.1328125,-1.8310819526390163,0.3689260238933462
3.13671875,1.9883035841014036,0.37422616451556057
3.140625,-0.3878136095517464,0.09291994146522507
3.14453125,1.4753687091634504,0.47159143865532893
3.1484375,0.06814484041296757,-1.0549660044766858
3.15234375,-0.039256014215661605,1.694578154022267
3.15625,-1.0289867748880015,-0.12563343987955622
3.16015625,-1.425755743994941,1.227615433337743
3.1640625,-1.067799359490598,-0.4739939073824552
3.16796875,1.1071157887757515,1.6089790055021334
3.171875,1.238022778442711,0.8195190800676456
3.17578125,-1.734711587820571,-1.5296982949893716
3.1796875,-0.7318360833825848,-1.5974795158803696
3.18359375,-1.4593474101645485,1.0039808853794603
3.1875,0.1583577082454347,0.6191893493583711
3.19140625,0.6331394624117348,0.8559215216392588
3.1953125,2.069212641594482,-0.9341020436100624
3.19921875,-0.2519831094870855,-1.0822090424495125
3.203125,-0.9058205888290781,-0.10087688322471579
3.20703125,-0.17674406501505854,-0.06985719512681351
3.2109375,-0.7121969630818934,0.7689437566821293
3.21484375,-0.39967459998373206,-0.35297516851313593
3.21875,-0.5642838925317183,-0.610241176789382
3.22265625,-0.5472354657892873,0.9187946288218952
3.2265625,0.24426558357491748,0.6151548498831337
3.23046875,-0.8195781962365022,-0.2332846707512822
3.234375,-0.19162927523951673,-1.0540404690184386
3.23828125,-0.5849092521239259,-3.172773430922508
3.2421875,-0.8412260519185991,-0.09760137334958272
3.24609375,-0.11351393086880927,-2.449092141325334
3.25,0.06583876714603054,-1.018412982743571
3.25390625,0.2974890191439,0.4337447556304967
3.2578125,0.6671777155463479,-0.40484351807856467
3.26171875,-0.27323575063480526,1.1066102202404637
3.265625,0.6232227356512403,0.42676535080686234
3.26953125,-0.14662090937255476,0.8422918688618616
3.2734375,1.7749767779660186,-0.2627869178081884
3.27734375,-0.14628793593169498,-0.682786271816548
3.28125,1.9827068848452984,-0.6998194178523605
3.28515625,-0.3896063846248776,0.14070207829868348
3.2890625,0.07344360550969617,-1.939192051714421
3.29296875,-0.42306882601267426,1.739025798729208
3.296875,-0.0031917769324706535,1.7011362884544639
3.30078125,0.456772328090945,-0.4957426629324809
3.3046875,-0.597149460811274,0.17317804636037842
3.30859375,0.20795420595996306,-0.022574535848143666
3.3125,-0.22311397804051358,1.9868020158681203
3.31640625,0.368166301367751,1.9365834963530726
3.3203125,1.0083413714335103,-0.7183869209268566
3.32421875,-0.027347670398980208,-0.5727523955284899
3.328125,0.8800192652979639,-0.05448331372675106
3.33203125,1.843418685105849,-0.6899930898118594
3.3359375,-0.42212533923730416,0.7744064867368784
3.33984375,-0.9827125492687346,0.02903862650700026
3.34375,1.8105057434878244,-2.6296410205518423
3.34765625,-0.8678611242812846,-1.5577263383381161
3.3515625,-0.2822601497154409,0.220808634892355
3.35546875,-0.23310999425622247,0.4060583323691448
3.359375,0.501756694336775,-0.323028405914194
3.36328125,0.5648076039382715,0.5561790624672949
3.3671875,-0.24417095950422196,0.4594214212750751
3.37109375,0.21213223229072448,-0.19296625218454858
3.375,-0.6250076170583193,0.8867811020088702
3.37890625,-0.08013514884041284,2.3657138796241615
3.3828125,-0.7547357877328106,0.46295899333921575
3.38671875,1.26453413849462,-0.16400202648495463
3.390625,-0.2698855683314866,-0.9638319673537081
3.39453125,1.023606404526373,0.5165993379049383
3.3984375,0.6617658220813887,-0.5244758042345509
3.40234375,1.4448171134754102,-0.036715297769135756
3.40625,1.7008366292667416,0.0262183766378691
3.41015625,-1.6146052699600468,0.2622232509082802
3.4140625,0.14824062696166615,-0.8691208415484842
3.41796875,1.1263919765952397,-0.031716323359313126
3.421875,0.4658893147214781,-1.3389998236912526
3.42578125,-1.3067857032179953,-1.1429275124318423
3.4296875,0.4499007846400263,-0.19280921444583293
3.43359375,0.8812588400126778,-0.0544165564771345
3.4375,-0.9366527993815237,2.1463968732307124
3.44140625,0.8182909868656268,0.4983341302418331
3.4453125,-0.5641562694674045,-1.0490139778496903
3.44921875,-1.0132073754089146,0.012068363456787171
3.453125,1.1307999624467533,0.16465245410132198
3.45703125,-0.07829108582148238,-0.5142615853608289
3.4609375,-0.820864007354782,-0.26512030508234696
3.46484375,1.2321931153077532,-1.2348438241450166
3.46875,-0.1252820660872037,1.1828172875179257
3.47265625,0.8420841652318695,-0.21581361370058258
3.4765625,-0.8671662994990059,-1.4417830466706965
3.48046875,0.6820686872879247,-0.03871724333031008
3.484375,0.7003023165570409,0.5524966078862814
3.48828125,-2.0263311544179294,0.11706013300867625
3.4921875,0.7232239744992692,-1.7775745523545488
3.49609375,0.38787116879138445,-0.16838724266371938
3.5,1.0269540301829168,-0.7617042281069948
3.50390625,-1.0449524921150481,0.006350747928469008
3.5078125,-1.9001798762455173,0.6236976436698523
3.51171875,-0.9891626504119423,0.7437177298659153
3.515625,0.06197674895582433,1.0243143956217045
3.51953125,0.7624087525057506,0.6751310674696247
3.5234375,0.2838691810554193,-1.8106782757867557
3.52734375,0.8243333797256309,-1.2642224706643028
3.53125,0.3005327488817448,0.21697664378668696
3.53515625,-0.08947118889609061,-1.2413759349826161
3.5390625,0.5100568383148393,-0.9018113043147314
3.54296875,0.2963874304292681,-0.16203628556901253
3.546875,-0.5247388966078492,0.15453752278078645
3.55078125,0.35167261502763064,-0.1548480295417974
3.5546875,0.7152487952251432,1.5564339909862903
3.55859375,-0.7357482458990096,-0.9994677784211631
3.5625,-0.6790304040264071,-0.000530739358211238
3.56640625,0.5659588384039024,0.7831910382517381
3.5703125,-0.38312163056202225,1.0361327070563013
3.57421875,-1.3292599632174285,-1.527666871577509
3.578125,-2.584168535539907,-0.8295651523820521
3.58203125,2.1710017924194585,-1.0925536415777315
3.5859375,1.2989973987988692,-0.5755881691921875
3.58984375,0.24240586779576695,2.104742153046184
3.59375,0.03167370326427954,-0.3672585056518615
3.59765625,-0.4302471828064351,1.2430427448420003
3.6015625,-1.6678604293410715,0.07537434656100443
3.60546875,-0.5991598781095316,0.7413485756787683
3.609375,0.35011421574537105,-0.2775589322665474
3.61328125,1.325513516664511,0.6435073396492277
3.6171875,-0.9947262460283004,-0.6084411928909573
3.62109375,0.47331270832453415,0.24864582865673304
3.625,0.6857970940406708,0.10341644522745999
3.62890625,2.771373719496347,0.4365260669071533
3.6328125,0.12651211040418003,-0.21070553205147663
3.63671875,0.6710239228046148,1.732294025149044
3.640625,-0.7281913980750726,0.8946453303262983
3.64453125,-0.8628521952138202,-0.7887130626641964
3.6484375,-0.09844065826377096,1.0029054296866708
3.65234375,-0.29825988311171797,0.6283536814010231
3.65625,0.9048512314227033,0.40521274081262365
3.66015625,1.9759666989112519,-0.4406355983376852
3.6640625,-1.9695175549631343,0.5698838575091499
3.66796875,0.09199425349139663,-1.0230693869968899
3.671875,-0.5112359091339821,-0.10550720474050973
3.67578125,0.11567164829165037,1.2571841877712622
3.6796875,1.1519917304626548,-0.2380007201770544
3.68359375,0.627827170043114,-1.455861421750851
3.6875,1.549374236873279,1.0061997369322007
3.69140625,0.4946752320865522,-0.18448956359547286
3.6953125,-0.055954677271426945,1.980743475309652
3.69921875,0.40593882891841365,0.21345492489236836
3.703125,0.9659533752835192,0.15507327769029003
3.70703125,1.4201269706329065,0.8140030207781029
3.7109375,0.3005201103643213,-0.8542589665460218
3.71484375,1.4936017356001885,2.553819566991241
3.71875,1.827526469411033,0.7737702401884374
3.72265625,0.18754335306555664,0.6568322189755843
3.7265625,-0.1971904763807856,0.4329691568077953
3.73046875,-1.3294038967020212,1.4390043323446682
3.734375,0.6636587514718978,-0.1408959330603095
3.73828125,0.097519153504953,-1.1040230745901587
3.7421875,0.7517893475175557,2.6785320996609143
3.74609375,-0.788978875407047,-0.2005954127255598
3.75,0.331082399189186,-0.9690843011552981
3.75390625,1.984588822411521,-2.8542301229394984
3.7578125,-1.1229313554527662,2.6325470181674353
3.76171875,1.9767382981376243,-1.1507158194687586
3.765625,-0.1539239793145313,-0.5999252157131235
3.76953125,-0.22218096566605028,-0.35224856552661044
3.7734375,0.661111850524838,0.045746759599692814
3.77734375,0.5250574259866679,1.0634868943295877
3.78125,-0.8137827782044164,-0.7371311701073464
3.78515625,-1.0548155973223103,-0.6983509670342323
3.7890625,1.1558873764857056,-1.5417521369454104
3.79296875,-1.0373639945828537,-0.709213990341275
3.796875,0.34867385455352873,0.7727668071045037
3.80078125,1.2442077304189916,0.9187923096202779
3.8046875,-1.2922236719746782,-0.29393978354822375
3.80859375,-1.3773325924579811,0.36983098003485093
3.8125,-0.2560485981983991,-0.5206733910856409
3.81640625,0.8718006759011419,1.3666883619323205
3.8203125,0.04543587385494285,-0.8703148710456694
3.82421875,-0.6673433687278323,0.6345902860768631
3.828125,-0.6118240542471767,0.127337762025103
3.83203125,-0.4720627920529007,-2.318089238457686
3.8359375,-0.1253549838257614,0.4838814495557789
3.83984375,0.28614455319786064,0.16164780247763058
3.84375,-0.2967476163418896,1.1193939607094896
3.84765625,-0.30540949782765847,0.4598528206575996
3.8515625,-2.2482744828943653,0.9130209175149383
3.85546875,0.20253920661524885,-0.7029379482529999
3.859375,0.5354460552856709,1.0645193090025353
3.86328125,2.404962311935528,-1.69280858602746
3.8671875,-0.5588029384418411,-0.5447705005682117
3.87109375,-1.2146342902842493,-0.12480084671284151
3.875,-0.7010335861593662,1.4229698874031937
3.87890625,0.23030022448318735,-0.10689590154745045
3.8828125,-0.8372710660319939,-1.150719980164778
3.88671875,2.809889159101871,0.7914397753750382
3.890625,-0.20224771977582726,0.08750412862764753
3.89453125,-0.10635503037714458,-0.6608026584210828
3.8984375,-0.7079203226644726,1.1220641672432996
3.90234375,0.699475444229098,-0.2991636524145189
3.90625,0.04243156663516256,-0.07171188298230574
3.91015625,-0.7774204489450558,0.8345466373404506
3.9140625,1.5208723111874909,0.6592069836879816
3.91796875,-1.0453301897834748,-0.5214323617460325
3.921875,-1.1497092084609541,0.6730693920862494
3.92578125,-0.9116936738881879,-1.738489999626252
3.9296875,-1.1595864922202843,-2.7553060382766303
3.93359375,0.4382812922186307,-1.5360528913231037
3.9375,2.3509901291172315,-1.344013473683471
3.94140625,-0.5293891056922814,0.4228559700824413
3.9453125,-0.8719280210615489,1.9793298260626029
3.94921875,-0.1659580426420216,-0.980492258501351
3.953125,-0.8738840134843463,1.038922754868905
3.95703125,0.4075729458067112,1.1324687081233193
3.9609375,-0.5849648450865069,1.3863264195791398
3.96484375,-1.2978752728107383,0.42058059263320086
3.96875,-0.2133253106670318,1.033898706541448
3.97265625,-0.6886659660994398,-0.5102549595259974
3.9765625,-1.549614046247806,-0.717469215801214
3.98046875,-1.1723401849912654,0.6093828603970146
3.984375,-0.42012942608046105,-0.9481315289083819
3.98828125,-0.8934401292356682,2.041770818477444
3.9921875,0.5528732850221237,0.8012740640059471
3.99609375,-2.007196881510235,-0.3337970916059662
4.0,-0.5989512352587195,-1.6104636775929708
4.00390625,-0.782576173329515,-1.6503439314759005
4.0078125,0.8412239943660395,-0.759893725356308
4.01171875,-1.534784900965817,-0.22365131712013714
4.015625,-0.2846651288559853,0.23563054482912124
4.01953125,0.991866380447328,0.9658053717695998
4.0234375,-0.5895098706483451,0.24994637173071302
4.02734375,0.60221790115976,-1.7432070676057925
4.03125,2.3924900124364163,-0.9572808327932856
4.03515625,-0.30203130338053197,0.6827891900915948
4.0390625,1.4850957110919594,0.951268304322846
4.04296875,-0.4407926030414445,-0.09694928298652894
4.046875,-1.3270752861973942,-0.07606168182950755
4.05078125,-1.0239733010665932,-0.6642254927389422
4.0546875,1.4640684596641687,0.015096238317679816
4.05859375,0.6312060648732791,0.36769171617403046
4.0625,1.3687568797395722,-0.05634718161990747
4.06640625,0.6469035568058025,0.4642486034144471
4.0703125,-0.175384933336376,1.0336328603671416
4.07421875,-1.031572357349201,0.237989745379237
4.078125,1.1495739312948787,-0.6564638914536775
4.08203125,0.584146619916676,0.5375064727969405
4.0859375,1.184599867338431,1.2492735807921551
4.08984375,1.4860356158337813,-0.8988908268677004
4.09375,-0.1637051049253847,-0.7059035305716521
4.09765625,-0.5453074181224903,0.4754388394531414
4.1015625,-1.7577152342653197,-1.105713553766855
4.10546875,0.3109020420093074,0.846730208985977
4.109375,0.20269617469229204,1.539296491284081
4.11328125,-0.26370047583447453,-0.026739794090725914
4.1171875,0.16108668550336436,-0.5125504956776354
4.12109375,-0.6870634726084648,0.8081202925254893
4.125,-1.300985238772745,-0.7423193165985621
4.12890625,-0.5131509493062366,-0.2060223015422723
4.1328125,1.8647120086979496,0.5462200513482087
4.13671875,0.3691993898716823,-1.6583403181025267
4.140625,0.6245807712030473,0.6503083046167537
4.14453125,-1.9578242038007232,-0.2709083951837271
4.1484375,1.1392914820836346,0.08243579814759043
4.15234375,-0.027471634622668977,-0.7906739390467857
4.15625,-1.1891186303064467,-0.5782439778387009
4.16015625,0.6880874067334507,-0.24959284788836522
4.1640625,-0.8198217231613236,-0.940157785461566
4.16796875,-0.5800397923403978,-1.128989159547395
4.171875,0.2632387983038232,0.469588124768525
4.17578125,0.26662753241491377,1.1395413703378605
4.1796875,-1.7512235966771854,-0.9042034820381268
4.18359375,1.0763734857801026,0.8227763681450568
4.1875,-1.4468256982405647,-1.4792468964976806
4.19140625,-0.9945013213768863,-0.7551205950518842
4.1953125,-1.7064481845159687,1.1409904645262292
4.19921875,-0.026735636137192615,1.1710564981849336
4.203125,1.7665904440776454,-1.0599708941779704
4.20703125,-2.289680605698054,0.09262533149929633
4.2109375,1.0156938653122127,0.5420119010138823
4.21484375,-0.8692953482912136,-1.5179681104440648
4.21875,-0.7252730797293914,-0.6472642261075059
4.22265625,2.542759621839395,0.4020391883564126
4.2265625,0.535238628738127,0.6170195274267499
4.23046875,-0.9920546665541293,-1.1380247411229398
4.234375,0.38281882463934824,0.04650255890510109
4.23828125,-0.7759666674889232,-0.7848768191825096
4.2421875,-2.843933398191149,-0.5787995734626887
4.24609375,-1.133076590606108,1.324001159130253
4.25,1.0402281657590973,0.9816173675912434
4.25390625,0.963857084543571,1.5689529517637648
4.2578125,1.046767573083673,0.32047249759960605
4.26171875,0.8524916358837372,-0.6332551860943553
4.265625,-1.6519356734702342,0.5806114589479381
4.26953125,0.9579959633316542,-0.38330202269357616
4.2734375,-0.30327582059740693,0.1953253682465839
4.27734375,-0.8966514496653194,0.4077888544142598
4.28125,0.0426722346143646,-1.6974885929767267
4.28515625,-0.481059699423665,0.02085934563362812
4.2890625,-1.4617784923490726,0.33246411585227326
4.29296875,-0.2521970758726515,-0.44869839714733123
4.296875,-1.2241793304189774,0.8142085033487865
4.30078125,-0.8426481998611434,0.2041450277944708
4.3046875,-0.39909635869309634,0.054744088717128214
4.30859375,1.132268213726402,-1.0167014926085072
4.3125,-0.18894699732148793,-0.0799858961924624
4.31640625,-0.8951236513955091,1.1861739762878492
4.3203125,0.4553543950540939,0.3300333179964006
4.32421875,-1.076769071537316,0.500530832308319
4.328125,1.1003694709840797,-0.7351041014566834
4.33203125,-1.4206205318230063,-0.2699525450030954
4.3359375,-0.9489542228959108,1.884625040544057
4.33984375,0.9756071773148262,1.982099138393519
4.34375,-2.133678713236381,0.3129619814363984
4.34765625,-0.3625625534239436,-0.6480618731760767
4.3515625,-0.19263318049210823,2.135443856396157
4.35546875,0.2355282256186225,0.24353554097688881
4.359375,-0.7622284387777308,0.09474997413572954
4.36328125,0.6938286057931943,-0.46257941574444095
4.3671875,-1.9730596454831104,1.507150320284302
4.37109375,-0.13304665811144856,-0.9736459593934343
4.375,-0.7617353369099576,0.5937691785182482
4.37890625,1.316182066625654,-1.6070974137077803
4.3828125,1.4533786724123725,0.5547580032647706
4.38671875,-1.1596157641608542,-1.2959609543370665
4.390625,-0.562803542861655,0.5189228483476764
4.39453125,-0.6578799574530017,-1.1868494277858468
4.3984375,1.2721380024889648,-1.5195686929470438
4.40234375,0.04376431271853778,-0.07787398204912932
4.40625,1.1728072016968412,-0.39663428795737166
4.41015625,1.8017283330213603,0.2213779606338164
4.4140625,2.273399594262062,-0.023907657529810875
4.41796875,0.19196754027716253,-0.4669034380789847
4.421875,-1.4165590167895246,-1.0238593344675158
4.42578125,0.6049658545109048,-0.4621598704400476
4.4296875,0.4112553728150219,0.18674620036807643
4.43359375,0.017070402391025107,-2.6282555371994114
4.4375,0.2511671569230645,0.498404136738751
4.44140625,-0.7191589974271916,-1.3680287906371338
4.4453125,-1.1569969743029076,-0.3623683966745444
4.44921875,-0.27698630119423556,-0.23870252781941162
4.453125,0.10809506245887125,-1.1819725734484205
4.45703125,0.09835035539065559,-1.6244551030973793
4.4609375,-0.058631633761634216,-1.5728476948299013
4.46484375,0.6419691419572663,1.284217253225493
4.46875,-0.3532213255937821,-0.27357989342821026
4.47265625,-0.9365725556419868,0.1241518694876229
4.4765625,2.065606252183534,-0.5290652623129868
4.48046875,0.6299813886688653,-0.6785452443350416
4.484375,0.6528720114179182,-0.5253089402698919
4.48828125,0.5818760010933871,-1.9891499862561526
4.4921875,-0.11903607987565573,1.6666412756697322
4.49609375,0.3692427884622321,-1.467930536244154
4.5,-0.9415100056423612,0.15505698330690457
4.50390625,0.6092233217916596,0.16310495921385998
4.5078125,-0.02830422941883613,-1.122386433290496
4.51171875,0.3203166413859,-0.4502139811206043
4.515625,0.7538208482589491,0.32154862314786054
4.51953125,0.5516793197127201,-1.2456411386119062
4.5234375,-0.12230802412598821,-1.6962872233517714
4.52734375,0.5008823907222366,1.1756178410372433
4.53125,0.9223829369443922,2.0037447218648237
4.53515625,0.48837239298600277,-0.09453854386122668
4.5390625,-0.3712423873830543,-0.08470280957587184
4.54296875,0.38992355704163806,-0.3954030785972548
4.546875,-0.440794620953637,-0.9542930754977819
4.55078125,-1.6876323509954878,-1.4239091332964624
4.5546875,-1.0763481136910586,-0.31446038637063606
4.55859375,-0.9410990637853428,0.9461375816995968
4.5625,0.008681102423906557,-1.3442762389308442
4.56640625,1.767754984572963,-0.7289139189570305
4.5703125,1.3450715566955416,-1.0559811252397744
4.57421875,0.43016915207742223,-0.4259984997335834
4.578125,-1.0482321097234302,1.628532619325938
4.58203125,-0.7494074312075513,1.3080470286331536
4.5859375,0.6203354039596803,0.0254563338944811
4.58984375,0.23458191182999266,0.3477565405017355
4.59375,0.06336469990010338,-1.2864064610176271
4.59765625,0.712903607712571,-0.0610058928165368
4.6015625,-0.9422330728508655,-0.055109824584391696
4.60546875,-0.03158140052790489,1.9299062114107015
4.609375,-1.7155067525112802,-1.1468210874775742
4.61328125,-0.6797099533380673,-2.1179848866879625
4.6171875,1.1678763769287266,-0.4301169673236119
4.62109375,0.5179929866964318,-0.8110916900336672
4.625,1.6229202106477758,0.6144733321632098
4.62890625,0.5651197959591843,-0.7359033700986984
4.6328125,-0.06446941269956565,-1.21906476061842
4.63671875,1.8409252595791668,0.8107407759431557
4.640625,0.6680949641176397,1.6406107283685334
4.64453125,0.15072021976962194,0.17540271775602861
4.6484375,0.06968605985619745,1.3368010646165205
4.65234375,1.2618086814154477,0.29788598380745956
4.65625,0.03712589749302245,-0.9843480540503787
4.66015625,-0.23369439941663142,-0.4144304691558401
4.6640625,-0.03658415954196016,1.2606744517679012
4.66796875,-0.2129522643970412,0.6440896566303378
4.671875,1.9277289644371955,-0.6944221108109363
4.67578125,2.1177288263696363,0.3805792444070029
4.6796875,-1.4204901880077907,-0.02658897867693656
4.68359375,0.9601847231858766,0.23958521391205315
4.6875,0.195690364726161,0.42824927719468764
4.69140625,-0.994431460637794,0.2618412945388495
4.6953125,1.028311844227775,-0.40371960679124
4.69921875,0.9073219187964252,-0.08132378879007658
4.703125,0.4993200926122942,0.4284004664120711
4.70703125,-0.711560161707426,-0.08640915703374315
4.7109375,-0.6727402098168546,0.9646216982631902
4.71484375,1.4120849265391706,0.1306537868849415
4.71875,1.7414910507037833,-0.14670607777884465
4.72265625,2.1948860077729817,-0.0043552288569135775
4.7265625,1.3541865296029185,-1.2160835598861943
4.73046875,-2.0862490458665186,-1.0212875238251922
4.734375,-0.007995394617027234,-0.48505765116221444
4.73828125,2.0501936400099026,1.36026166653292
4.7421875,0.055304964878774045,0.3992069956769363
4.74609375,-0.2670087170632628,-1.0260936194943706
4.75,-0.24773461553381104,1.4072552756501178
4.75390625,1.2431474830888665,0.13936409817672069
4.7578125,-0.1614937059677277,0.44165112554360764
4.76171875,-0.5978406456255625,-0.8148653605301482
4.765625,1.0845101599315057,0.7068955665297026
4.76953125,-0.13550053264052053,1.1876967165105505
4.7734375,0.20527579748795155,0.5048678698038953
4.77734375,-0.08275631271730961,-0.946079996663823
4.78125,0.5698678844108325,-0.6960325781998211
4.78515625,-1.6758675895395818,-2.7474695550306074
4.7890625,-0.9286827268904824,-0.8439261980849678
4.79296875,-1.4078518610267188,-0.33472388165332356
4.796875,3.1264045602226105,0.18043624416980764
4.80078125,-1.1163165767718473,0.18386595776128437
4.8046875,0.3540994706063425,-0.8882076039937891
4.80859375,0.9905745050658523,-0.616840283816886
4.8125,-0.31260145325858824,-0.9184421743072706
4.81640625,1.1060764568312753,1.3914451166516246
4.8203125,-1.5963272167801823,-0.9701362019921388
4.82421875,0.9791214290502448,1.4365496238740583
4.828125,0.7296988045020268,1.2304953936564331
4.83203125,0.6445706205274485,-1.7370558909483402
4.8359375,0.1954588890827317,0.07040794885864238
4.83984375,-0.6698250391998803,0.9383679151063677
4.84375,0.9867010592690703,-0.6311919087154138
4.84765625,0.5517978981326901,-0.2475123764978484
4.8515625,-1.3608984746781465,1.0292594333955938
4.85546875,-1.748744497771381,1.418868491894493
4.859375,1.950792990953566,0.8790659421035345
4.86328125,-0.5663911860902705,0.23358866171611337
4.8671875,-0.20956368966259178,-1.4426479728756014
4.87109375,-0.021779673841704983,0.4845561681993976
4.875,-1.2008990359285021,-0.4667244198151324
4.87890625,-0.3198766522507853,-0.2478455733431815
4.8828125,-0.21882981789171999,1.0095635191314398
4.88671875,0.18288235668351926,-0.5350022639983599
4.890625,-0.35440724712314237,-0.8358598408327619
4.89453125,-1.7464018361170626,0.22108300569195166
4.8984375,0.3595332544242652,-0.16088009522869365
4.90234375,-1.6271902277004995,-0.08752842136291203
4.90625,0.20690970465354316,-0.3066652704975866
4.91015625,-0.2523798658905668,0.5538940549118329
4.9140625,0.26964307962828904,-1.0457187127418945
4.91796875,-0.2416226412363549,0.05293829994667125
4.921875,-1.9366226685159513,1.5129444941322097
4.92578125,0.40069954667453633,1.1529266472489292
4.9296875,-1.7404366990339044,-0.21785044851913807
4.93359375,-1.0270593756684565,0.10121194171620823
4.9375,-0.9147380347053554,-1.4066340855989656
4.94140625,0.019694346453588907,-0.47803930919041027
4.9453125,-0.05766546348341475,0.32765466856546527
4.94921875,-1.060198261909166,-0.10907407516377801
4.953125,-0.5991549683710901,-0.02008044372197081
4.95703125,-0.09409363398680787,1.2459819523539655
4.9609375,1.3271731875769102,-0.9018030599904403
4.96484375,0.9386477205385447,0.2417032803271865
4.96875,0.3020024507689211,1.6813112408492652
4.97265625,-0.13709849625079623,0.4626073499228645
4.9765625,1.844582906558686,0.08488604375455638
4.98046875,-0.04334021651124053,-0.15769697846660563
4.984375,0.39503446065976167,0.6310770084366908
4.98828125,0.26279242619047044,0.04655175243462667
4.9921875,-1.387072865917111,-0.40371158634613236
4.99609375,-0.11688878359358609,1.981347407545802
5.0,0.2445476065546883,0.5567310759757992
5.00390625,-0.600429631689706,1.8400307961128772
5.0078125,-0.20726472913757818,0.6152837186142092
5.01171875,-0.37305846765838374,0.13866437959783792
5.015625,-0.21415886407757798,-0.44942575970865645
5.01953125,-0.3976419637751019,-2.1089206908782523
5.0234375,0.39449175954755455,0.019260139504577885
5.02734375,1.1631939393333977,-0.834285686151266
5.03125,0.4822979549405182,-0.2878443911190519
5.03515625,-0.21475263824108334,-1.2776919372439757
5.0390625,-1.4554038444395665,-0.7196368344203178
5.04296875,-0.5680456206118306,0.9918206722211772
5.046875,0.4287258577223919,1.0185529125998047
5.05078125,1.973798362968262,0.6163491561158256
5.0546875,0.3248238270689664,0.029988703773970806
5.05859375,-0.5963333342957331,0.02720217452074148
5.0625,0.8426723342069977,0.3831635375270524
5.06640625,-1.0531515310536124,1.346364749090059
5.0703125,-1.1499000882087516,-1.4725534841003054
5.07421875,-0.21384371043157732,-1.2182924644457847
5.078125,0.0702201445026756,-0.32431281872736023
5.08203125,-1.40662242760046,0.45785895033870133
5.0859375,-0.22724627324866223,0.7431977626332158
5.08984375,-0.09942488016344124,-0.8975736684275873
5.09375,-0.3921544141021068,1.1961696112967144
5.09765625,0.21831833221013794,-2.311132199419407
5.1015625,2.150441150858402,1.2976558251383654
5.10546875,-1.3079932947795054,0.8898722697836573
5.109375,0.0227562935415377,1.163604554507739
5.11328125,-0.05982518467880458,0.12888173816523552
5.1171875,-0.026173022651448646,0.7113673126130593
5.12109375,-0.5306994878115114,0.2539147054457317
5.125,-0.7660517154571741,-2.415700535033732
5.12890625,0.028033953098794754,-0.274931656865558
5.1328125,1.213097950752943,-0.10372942612574695
5.13671875,-0.256222244834641,-0.2745642936705738
5.140625,0.2758240838515186,-0.9679534578624026
5.14453125,-0.390040967926229,0.5696817797094681
5.1484375,-1.3107471552908327,-0.8069732545213375
5.15234375,-2.0810684011483622,-0.1402190110929723
5.15625,-1.492147613109485,-0.15764652336518778
5.16015625,-0.1260836674334661,-0.9034021344040521
5.1640625,-0.6746289808622206,-1.5634125750997396
5.16796875,-0.4615585492428593,0.0645073928164233
5.171875,-0.7696108181202413,-0.600361643762535
5.17578125,0.8789014378714824,0.5079251248849002
5.1796875,-1.508745991127561,1.339876189791807
5.18359375,0.529677773273892,1.4271224389699726
5.1875,0.12945828218256936,-0.17503568275279402
5.19140625,-1.4678653974592337,0.6913653047042981
5.1953125,0.44471978574907484,0.38606674979817673
5.19921875,-0.8442137195286076,-0.9137133464647621
5.203125,-0.16041961951232322,0.9483234378755767
5.20703125,-0.8806552388587507,0.00639373303923264
5.2109375,1.2178708945056427,-0.2273980040997564
5.21484375,-0.6163669312842055,0.4146747936517105
5.21875,0.8306730685564756,0.8411516905715252
5.22265625,-0.39736942333228725,0.1635963044241025
5.2265625,1.1463954429288727,-0.7117110569268073
5.23046875,-0.36498394063251555,2.4577391370575175
5.234375,-1.9711725767871506,0.10858147797001358
5.23828125,0.6307160163895327,-0.22112813089158892
5.2421875,-0.007866103058642542,-0.12184098470885789
5.24609375,-0.965236107579145,0.07209675318907949
5.25,0.42883469701730076,-0.08382144096246001
5.25390625,-0.02985198704344908,-0.4540370472623444
5.2578125,-2.661006148918902,-0.1479155555553155
5.26171875,0.647652081975283,1.184517371351304
5.265625,-0.8963358333893394,0.18665957241044598
5.26953125,1.4008999506877595,-1.3599363263520283
5.2734375,0.08268414217881481,0.051205627917359144
5.27734375,-0.6064775882677463,-0.21750437096174222
5.28125,-0.10455208985970475,-0.27341926149934004
5.28515625,0.5154286420860921,0.19125218521876597
5.2890625,0.3213545772998936,-1.1179299506194889
5.29296875,-1.3399734942172417,0.5487966528312708
5.296875,0.17422418002421358,-0.1295417960989571
5.30078125,-1.523060410609346,-0.3239103842878499
5.3046875,-2.086067318101052,-0.44506364573968116
5.30859375,-0.36817392039579133,0.09244887471541062
5.3125,-0.13018783144350057,-0.48723282145264374
5.31640625,0.518911782411031,-1.4498840713855874
5.3203125,-0.006578067451776838,0.5275426786914902
5.32421875,-1.5045885505229697,0.0546992257459744
5.328125,0.6360360185800389,0.8583947144955806
5.33203125,-0.8571874303022559,-0.20611517437591476
5.3359375,1.1114589462102828,0.012597735328899209
5.33984375,0.9127766118627124,0.3617540765863552
5.34375,-2.4215929705142774,0.4335390187788509
5.34765625,-1.9328615118096932,0.40897310198708225
5.3515625,-1.1852655311738671,0.4123377917028481
5.35546875,-0.47342106482548957,0.5644572276988123
5.359375,-0.2832782393322587,0.8151058103763532
5.36328125,0.9198311662257518,-0.17067989621653498
5.3671875,0.3126525588214939,-0.004299671454242176
5.37109375,0.7836371552263945,0.3789201413819473
5.375,-0.34502921797172903,-0.5121407702230633
5.37890625,0.6176965224298214,-0.07158922534537202
5.3828125,-0.9656382737219849,0.7089035970637253
5.38671875,-0.9598212825375942,-0.3478863208524782
5.390625,-1.182654645861981,0.5172016161474142
5.39453125,-0.42515334928111986,0.25933078578104535
5.3984375,0.23507538455378552,-0.36252405166495116
5.40234375,-0.30812286168953024,0.09636023333236413
5.40625,0.4203149483647825,-0.02001128758091822
5.41015625,0.0020546922713639794,0.8545692563064964
5.4140625,-1.1283204039880548,1.0227806341929218
5.41796875,-0.49949272227537905,0.8527748484233675
5.421875,-0.01732701292993511,-0.3826492450913756
5.42578125,-0.014221995588268208,1.2074043357735842
5.4296875,0.13969342628481327,-0.08347035208798465
5.43359375,1.2764491033293504,1.0160321464006443
5.4375,0.22112948883352396,1.13182760374716
5.44140625,0.2344043428495937,0.18456950247306053
5.4453125,-0.9430882278631316,1.402243631041078
5.44921875,0.3393307259336005,-0.4591504414216473
5.453125,0.06949827680772362,0.44822081935631575
5.45703125,0.6615003856267792,-0.6761108999594561
5.4609375,0.36725725813305304,-0.5470256662613644
5.46484375,0.7118148417415338,-0.3087421866052364
5.46875,-0.08661442110726732,-2.203942463904724
5.47265625,-0.8947877195739157,1.9072959576725423
5.4765625,0.5541174042371403,0.8966374762487862
5.48046875,0.823359575420935,1.7923347155698315
5.484375,-0.6001247176188444,0.6205282184251419
5.48828125,-0.10532321164824117,-1.5380396487975885
5.4921875,0.2383310920821095,-0.6325787497150267
5.49609375,-0.9868861998473992,1.3446564474181286
5.5,-2.3543802827781075,-0.5075268931276061
5.50390625,-1.6525802536698448,0.645494826001867
5.5078125,0.43096538469676254,-0.044016882388367116
5.51171875,-0.08491923538640511,-1.2763976188270114
5.515625,-0.6972025308774437,0.19475580946783747
5.51953125,0.747616120978275,-1.443961307602699
5.5234375,1.6554567399769078,0.14011595694632195
5.52734375,-1.2270304356945305,-1.473785526057762
5.53125,-0.060678762798257915,0.24514125837020753
5.53515625,1.3080568763281033,-1.748793229797702
5.5390625,2.6951322813510115,0.3426484628210342
5.54296875,0.7986822641916529,1.8087479479687727
5.546875,0.14947000127718182,-0.5355992445410646
5.55078125,-0.2963812999541982,-1.274309747110261
5.5546875,-0.9197664045688598,-1.1789706686115842
5.55859375,0.1060922080789513,-0.055259900259382086
5.5625,0.12958058545853712,-1.2507822496430507
5.56640625,1.2344274927838261,1.5079482179167327
5.5703125,-1.0318389175878042,-1.2357989969604926
5.57421875,0.5647657929150972,1.5926881950270764
5.578125,0.5602314000793451,-1.547951097548232
5.58203125,-0.14448068440927608,0.44066552818103494
5.5859375,0.31909839350897207,-0.40526335370329497
5.58984375,0.359299432060778,-1.2158772616229785
5.59375,-0.7493329988986163,0.26838327791973826
5.59765625,-2.7497515486055355,-0.944552939864656
5.6015625,0.3482568959842214,1.7204999398337666
5.60546875,-0.5199255066537137,0.29227867246352984
5.609375,-0.7890795804799431,-1.4678351896747277
5.61328125,-1.1356041630038647,1.0434834777161586
5.6171875,-0.527302581854721,0.12252536747402046
5.62109375,-0.770484168445923,-1.4766341565924255
5.625,0.6303773864943122,0.4126147507181414
5.62890625,1.259914707908036,0.5591534439356257
5.6328125,1.2250020429640927,-0.4422417280650088
5.63671875,-0.611906848602569,0.6672532414188135
5.640625,-0.49571182640692846,-0.1828932608231279
5.64453125,1.2786404865182717,-1.9364322881784346
5.6484375,-0.6161614929735952,0.08983634461677915
5.65234375,-1.0500519798972847,-1.2503579092318657
5.65625,0.3333667813249719,0.8465728992639626
5.66015625,-1.0746521221687608,-0.23119529816998732
5.6640625,-0.15904450697414704,0.5999600976478149
5.66796875,0.04388544594707971,1.3222844977661066
5.671875,0.06160381457863312,0.18660462014559764
5.67578125,-1.1271342076518245,0.07608801495725938
5.6796875,0.035560472770531336,0.11330037165254327
5.68359375,-1.6228430697469391,0.5036717864933068
5.6875,-1.121931850088056,0.0485915320647953
5.69140625,-1.346817807123309,-1.7763253188248551
5.6953125,0.4916103128533861,-0.5297696099693568
5.69921875,-0.48440984288077304,0.8550160167731236
5.703125,-0.21061593045989369,1.42213044243978
5.70703125,-0.3846177280534989,-0.7165400583093143
5.7109375,1.4593396142763615,0.26706724488619005
5.71484375,-1.5586241549971058,0.5049373854612564
5.71875,-2.6788708604787437,-0.31053778472736265
5.72265625,0.1324235828075589,0.16203911020432316
5.7265625,0.4818567304208768,0.6066610689458821
5.73046875,0.9082871989843766,0.3283817173946121
5.734375,-1.510564615162108,0.9505706652062171
5.73828125,0.9788025688011142,-0.2134583465999482
5.7421875,-0.07537900959096375,0.3537952754836266
5.74609375,0.5998864392384519,0.7860182826042035
5.75,0.019611040603787554,0.12277655822485718
5.75390625,-0.7216083308043928,0.6292212643382646
5.7578125,-0.4513160459602637,-0.11626297386766006
5.76171875,0.22504363001004754,0.019134593360553336
5.765625,-0.26181679686144443,0.4237447383854927
5.76953125,-0.6345648376860564,-1.5599993148491433
5.7734375,-0.6924231682705009,1.5171315504886012
5.77734375,-0.37061190723679655,0.13694928431074224
5.78125,-0.34922213875706193,0.4805612933783331
5.78515625,-0.457228616143055,0.00041480313788904127
5.7890625,0.44996104745504956,1.309638102090173
5.79296875,-0.6813778519458341,-0.025112524487350938
5.796875,-0.24371044316575594,0.5322082891039566
5.80078125,-0.4866215420574313,-0.696942531288109
5.8046875,-1.5808730450380293,-0.3404660902653835
5.80859375,0.3886805990855822,-0.7702115594186524
5.8125,0.463280374187249,0.1752148554852886
5.81640625,0.5670101990023627,0.057016116838351165
5.8203125,-0.14157758438513865,-0.34403641611219155
5.82421875,0.7191361995459117,-0.4699467098754599
5.828125,-0.8183637535314991,0.7017694687732813
5.83203125,0.3773400154126274,1.1746156481845962
5.8359375,-1.5568967292255762,-0.5100451512847339
5.83984375,1.5553496192874143,-1.6329303011175291
5.84375,0.2329402521260913,-0.015415746575154527
5.84765625,-1.597196374872541,0.8763354120847243
5.8515625,0.49406701108801127,-0.17771265987183124
5.85546875,-1.2896859117248705,-0.6125386606580904
5.859375,-1.2421384501387607,-0.48419353558324674
5.86328125,0.5491172001199941,-0.8025055612084344
5.8671875,1.0213574192970574,0.126460990819543
5.87109375,0.7146396935803518,-0.4556784423035711
5.875,-0.9364201388773429,-0.2269081577741989
5.87890625,0.9725713197775454,1.2888396960029056
5.8828125,-0.5792600012222281,0.19419334764654483
5.88671875,-0.4028903091340865,-0.4269372880872013
5.890625,-0.082090019056095,-0.07246935808092186
5.89453125,-1.27400214807298,-1.2357393004033974
5.8984375,0.6927927674521687,0.46856008245330266
5.90234375,-2.5407709793469264,-2.213655591741784
5.90625,0.050820860663592204,-0.78773406668198
5.91015625,0.9003732213053703,-1.2778901885734044
5.9140625,0.17184637569414682,0.05822818079332211
5.91796875,2.3884677968822974,-0.14553695062805402
5.921875,1.8779884064551702,0.025889637725344607
5.92578125,-1.6846573534664213,1.3117770785055214
5.9296875,1.6822768007385083,-0.17560255545690553
5.93359375,-1.691821889092273,1.056983203694847
5.9375,2.433946682703092,-0.04790184275529957
5.94140625,-0.5524883611725269,0.38186744965961367
5.9453125,-0.3955903039929107,0.6426645466046013
5.94921875,0.9794455453612487,1.0763110830853326
5.953125,0.8252261183625609,0.40811380554254495
5.95703125,1.0963246477530844,0.43144987606619456
5.9609375,-0.047210694797750044,-0.368368854613389
5.96484375,-0.19714220574771607,1.4259729810553161
5.96875,0.8641837259910211,0.3446385081978821
5.97265625,-0.19628180515206137,1.6329669894226786
5.9765625,0.2895461085929919,0.06246885761341241
5.98046875,-0.12743426323124224,1.166525325544173
5.984375,-0.38884848789018167,0.9114467927084596
5.98828125,-1.794722382149846,0.4871095903313419
5.9921875,-1.6190839731743774,-0.5607386690905889
5.99609375,-2.0565994127595193,0.20752921053107878
6.0,-0.05425628114956927,0.22539050816578798
6.00390625,-0.8388246545089109,-0.30917856735904004
6.0078125,-0.6753563441906699,0.9992385067477633
6.01171875,-0.36384100762617105,-0.7866319204526048
6.015625,-0.2587984028448964,-0.9880817352424711
6.01953125,0.8420009370502575,-0.2797336623809285
6.0234375,-1.2811390150284163,-0.7844001740451816
6.02734375,1.7915817772067475,0.5503719140795457
6.03125,-0.3254301324960275,1.3239743445148089
6.03515625,-0.9386427891570231,-0.2984831610696708
6.0390625,1.1043187469380524,-1.4089018408855003
6.04296875,-0.15139573478929375,2.970722542208892
6.046875,0.5200680489027892,0.3932634170404095
6.05078125,0.08013106660198985,-1.5229450459238538
6.0546875,0.6296855131533772,-0.6826679786720148
6.05859375,-0.4498277654022819,-0.6920227567206576
6.0625,-0.21109461498337773,0.43080018498485273
6.06640625,0.6964615221980452,0.20354502362120977
6.0703125,0.45914390654305315,-1.1221502177947722
6.07421875,-0.38708735945949535,-0.16250836045609673
6.078125,0.3368144607084721,-0.18970460199013128
6.08203125,-0.13923736763400665,-0.2722212292041791
6.0859375,-0.10076004264170486,1.0810454939917058
6.08984375,-0.46126616529110553,-1.2302938000343788
6.09375,0.5158030345450603,1.6463482858966494
6.09765625,0.2334913131753845,-2.0957139655628465
6.1015625,0.31752293749407895,1.2389386800760496
6.10546875,0.1252381178255562,-0.7865487029385799
6.109375,-1.9945191942751255,-0.5874431084901085
6.11328125,1.053893769832998,-0.08779178604221034
6.1171875,-0.1205503916590309,0.70330867043371
6.12109375,0.5338814478414234,-0.001882570892815855
6.125,0.6026810140756683,0.07566761185757531
6.12890625,0.18792476521736293,0.894787798939507
6.1328125,-0.5629969756829082,2.4602215640774063
6.13671875,-0.0036065050215475735,1.1451987649603275
6.140625,-1.905362641236755,-1.621368003999383
6.14453125,-0.9418906410911839,1.227279201342845
6.1484375,0.9056207039738179,0.049371868635586534
6.15234375,-0.2208900736264966,-1.0311773681520062
6.15625,1.7894411198768014,0.8024922056569087
6.16015625,0.23554105526437802,-0.5597689856992495
6.1640625,-0.511436795236043,-0.7336546865203551
6.16796875,-0.9387847156086296,-1.788178044089684
6.171875,-0.9780314704366796,-0.7164530367368388
6.17578125,0.2804467407618651,1.2751890227293374
6.1796875,-1.2165590760296976,-0.6322232947590096
6.18359375,-1.478036765647757,1.895212527268963
6.1875,-0.37001480055421404,0.5599889119352943
6.19140625,-0.2148292907220638,1.2746470592187737
6.1953125,0.4168639746363645,0.7996765163212337
6.19921875,0.2307318707044352,-0.3693523569032743
6.203125,-0.5580297111172793,0.3622929227662228
6.20703125,-0.8099703583665749,-1.1956309119444195
6.2109375,-0.011534463418578252,0.25206497668295064
6.21484375,0.5038705171996097,-0.08152961369979683
6.21875,0.7720285721447968,-0.36991479629234886
6.22265625,0.702802580462978,0.5994472523432175
6.2265625,0.31278137594557853,-0.23717326786389195
6.23046875,0.6601204336405724,1.7754742681181277
6.234375,-0.5484089509391779,1.135302107164049
6.23828125,-0.21406612204968475,-0.3919391501702942
6.2421875,0.8615369373522772,-0.9330501444782426
6.24609375,-0.7786828828544362,-2.1718535435537336
6.25,-0.16795477646221094,0.21405045063261383
6.25390625,1.1224055054622388,0.8388265712844901
6.2578125,-0.16967156521233884,0.2739667648734537
6.26171875,0.3572039388080573,-0.428899964673315
6.265625,-1.6618659040509027,-0.8793406803614463
6.26953125,1.1638766200629236,1.8467606021992329
6.2734375,-1.4951226101687856,-1.4429484751174084
6.27734375,0.911842610000475,-1.1064448175559622
6.28125,-1.5064918024704497,0.9116050666180155
6.28515625,0.18110317666628042,0.8005800693148712
6.2890625,-0.08236555796000146,0.8960415582357207
6.29296875,-0.2195729268745203,0.5228451976890847
6.296875,-0.6671614485764334,-0.10694796740593575
6.30078125,0.69322075449726,0.8632456705728978
6.3046875,-0.08532394261912835,-1.5783077331334459
6.30859375,1.4217046983527042,-0.6841830487142081
6.3125,-0.573530136456533,-0.2763178959892962
6.31640625,0.8805295356081907,-0.29421933934250705
6.3203125,-0.06597613984878856,-0.13587810196894554
6.32421875,0.3910618887154739,0.14467246762654237
6.328125,0.7374930584542027,-1.3443538895330467
6.33203125,1.9094355864256296,1.2579382476790277
6.3359375,1.4026054182303287,-1.1695844902954038
6.33984375,0.32035620423860955,-1.0769453333061976
6.34375,0.6073771598403515,0.38031761815574155
6.34765625,0.6246436864869773,3.9916363527603207
6.3515625,1.3084481751538635,-0.46354862701594923
6.35546875,-0.7155744435926998,1.0366089588883547
6.359375,-0.7663841950945062,0.6603329668102015
6.36328125,0.013563803926599767,-0.13010477044574653
6.3671875,2.0534080593583783,0.15211927362891284
6.37109375,-1.0013765578653224,0.4102219061387181
6.375,-0.8428583018239543,0.06290928868597208
6.37890625,0.6935177452329108,1.2121031916777045
6.3828125,0.7340448289245053,-0.040234130580088796
6.38671875,0.44819805721081246,-0.21521203853649906
6.390625,0.08942625780365726,1.0174716682868419
6.39453125,-0.290590206488592,-0.8645646785184686
6.3984375,-0.7886349470499702,-0.6302824763371336
6.40234375,0.9490242254581847,-1.037261790966801
6.40625,-0.1435175673577603,-1.2358536368215387
6.41015625,1.588643956174453,-0.01265522970885994
6.4140625,-0.1778793267295521,-0.4601409431224731
6.41796875,0.11685724115128104,-1.6517700237104382
6.421875,0.007645307667022591,-1.006164589113354
6.42578125,0.9739678249387484,-0.5662462584813924
6.4296875,0.6456057844835791,0.7628378230226985
6.43359375,0.1479507939045663,0.5891446294321033
6.4375,-0.5310810994939793,1.5547110421621493
6.44140625,-0.8410360068998504,-1.1322568696378863
6.4453125,0.2323130805851175,-0.22428591430906544
6.44921875,0.5652986310761762,-1.0543341158674773
6.453125,0.7340159912755764,0.9950011721257151
6.45703125,1.1364381799987895,-0.1363303333629444
6.4609375,1.6211585031304432,-1.0122224520243472
6.46484375,-0.43411165724911416,1.3350414218117646
6.46875,0.052237441045033396,0.3227292514470359
6.47265625,0.9817026106200968,0.14953364444918063
6.4765625,-0.4483095059716325,-1.4122645217251721
6.48046875,-1.8351334867223776,0.697472426210339
6.484375,0.6888079676465947,2.425832575334131
6.48828125,-1.2660781854529908,0.7327485441596288
6.4921875,-0.29947246155118645,0.3254272028521795
6.49609375,0.47008925636421994,-0.8092454129136275
6.5,-0.3754035809101502,0.8039201855201072
6.50390625,0.7911643011285951,-1.0947778114206925
6.5078125,1.6318930484185237,-1.3910056365094454
6.51171875,1.260974727456152,0.1332937114654522
6.515625,1.00446177514188,-0.6523424453730974
6.51953125,-0.5039882717655118,-1.170713452471082
6.5234375,1.0742947054382013,0.1534890704529914
6.52734375,0.40616723772811725,1.302415647904858
6.53125,0.6360099692617894,1.5197580981256484
6.53515625,-1.3946590793057447,-0.5642530473010271
6.5390625,0.09803247637551134,0.26910551904802554
6.54296875,1.0416868516442126,1.7648604947665363
6.546875,-1.9324076544793005,0.5775444574585424
6.55078125,0.4422542782427578,-0.3364411602696948
6.5546875,-0.08436656531335272,-0.6160426343489694
6.55859375,-0.28233858501023923,-1.1163774873571461
6.5625,0.16566033103272107,-0.42495497109190894
6.56640625,0.3204708004120974,0.4793987463420075
6.5703125,1.9337257404860995,1.1231505206572114
6.57421875,-2.794168470076648,0.8058327847011794
6.578125,0.20538358374919544,0.2625966332464282
6.58203125,1.5205847507446821,0.12678674358585149
6.5859375,1.7751342441981952,-0.5963027532927941
6.58984375,1.5361192748380152,-0.492383529027581
6.59375,0.6529642215414112,0.5601463684069444
6.59765625,1.001633531294656,-0.3935611070378798
6.6015625,-1.0451350037316816,-1.1087667699257395
6.60546875,1.1868807331036533,0.8177281184258172
6.609375,-0.5004678236853681,0.3624002125599097
6.61328125,1.4765900097755191,0.7089936294459787
6.6171875,1.7297268708348799,-1.5678859741343052
6.62109375,-0.6197724923071061,0.6334578942300484
6.625,-0.26546158506788,0.8719849053223377
6.62890625,0.2720440562610179,-0.3461449879252799
6.6328125,-0.6966758291877718,1.5317341349581692
6.63671875,1.0487203357409616,0.2949434910820891
6.640625,-0.06822350649465572,-0.5300098101994147
6.64453125,-1.9506226630251875,0.6199900576657487
6.6484375,-0.24472408276897606,-0.5153984391378035
6.65234375,0.04027956559287351,0.6898320539488305
6.65625,0.9867595966430598,1.4716429880448116
6.66015625,1.1920805597251924,1.8377976466411101
6.6640625,1.604835034454222,-0.3129657360510219
6.66796875,0.642620792643322,-0.21533318954497183
6.671875,1.6792525428697256,-1.2676531389201315
6.67578125,0.3665640523150536,0.9982960682381913
6.6796875,0.4130327954704776,-0.5492374375516267
6.68359375,2.498278765379773,-0.0961721704530491
6.6875,1.1675380396465915,-1.6025583078323005
6.69140625,0.9599120680106139,-1.0409082196879826
6.6953125,-1.326756827150672,0.23281190104307808
6.69921875,-0.17455996615739952,-0.09554098753251955
6.703125,1.326696536455472,-0.38670080622980063
6.70703125,0.06532920583212985,-1.7446370859244618
6.7109375,0.22436970635420678,-0.15694516366542383
6.71484375,0.34776878934165795,-0.709510207939929
6.71875,1.189912523184859,0.7268372513704521
6.72265625,0.899076958076332,-2.5477812628992735
6.7265625,-1.5083782871579914,-1.3170485737482736
6.73046875,1.6469220665805955,0.9685399970365276
6.734375,0.18266694525333102,-0.44715169307373676
6.73828125,-0.48697630388524826,-1.1085754152189484
6.7421875,-1.1686266614853849,0.17721022963579477
6.74609375,-0.08847495089381918,-0.3605237170646614
6.75,0.547163775566138,-1.4985667120079291
6.75390625,-0.3775826798047886,0.9209787850927438
6.7578125,0.04865568539571051,-1.6654757737432433
6.76171875,-0.8989578419539039,0.5781190904080201
6.765625,-0.21862811277884503,-1.1294805814705942
6.76953125,-3.452357078559015,-0.11559746882603206
6.7734375,0.6701167390026899,1.6373818545282703
6.77734375,-0.2268575505962704,0.30936534040963964
6.78125,0.7067708225013847,0.5747990797365526
6.78515625,0.910602993796226,-0.6182080006767764
6.7890625,2.2903902828818388,-0.3295074413033336
6.79296875,-0.38501480802490246,-0.5235751319258491
6.796875,-0.17225847673635658,0.48990473398127093
6.80078125,0.682042527695339,-0.06608999452979872
6.8046875,-0.699399789355626,-0.8683458602561752
6.80859375,0.3126785845996893,0.4653827538190405
6.8125,-1.8318783487361143,-0.8943227849221531
6.81640625,0.6582104050972462,-0.2727548868992105
6.8203125,0.2440788272797133,1.0342225208171032
6.82421875,0.08056339568483185,-0.32245465594656514
6.828125,0.5932208753587538,0.6246391324266428
6.83203125,-0.6028073326169976,0.259604559959689
6.8359375,1.2076504012637985,-0.034782654200876534
6.83984375,2.6492270480191134,0.24423278880841326
6.84375,-1.9270865068181424,0.6583656433254463
6.84765625,0.5798713159701802,-0.19889435938245328
6.8515625,0.8951377863048761,-0.41595618269851153
6.85546875,-0.503547828197549,1.0078823704988868
6.859375,-0.3072138853123207,-0.6690191014672723
6.86328125,-0.0949595101527831,0.4890664579757337
6.8671875,1.1846340758863534,-1.0199002633464151
6.87109375,0.12374235912194188,-2.4674639472831017
6.875,0.6616159851089216,-1.3226888545484297
6.87890625,-0.44571349555696466,-1.3899388854663894
6.8828125,-1.747214963049119,-2.4701393481494707
6.88671875,1.1094354828849966,-0.0917210047336256
6.890625,1.2183418980372531,-1.883341107854653
6.89453125,-1.1379688196050433,0.41806977331576795
6.8984375,-0.6196898686433951,-0.3380602870548111
6.90234375,-1.4206624744437226,1.9531378987728947
6.90625,-1.8471113561763661,-0.4395582734870147
6.91015625,1.117611577312261,-1.0762707898990027
6.9140625,0.10627530896977098,-1.2835099755494852
6.91796875,-0.5987656848080917,0.7337901123964732
6.921875,-1.307804563932158,-2.1867544212829064
6.92578125,-0.47158213866907717,-2.6190472209911686
6.9296875,0.04411147277208378,-1.1636729093164624
6.93359375,-0.8665017998038248,1.5477520818197081
6.9375,0.8022612716783958,1.1926203142615965
6.94140625,-1.1075631057517192,0.8652055526224595
6.9453125,-0.9982754891091448,0.7896257621529219
6.94921875,-0.5739835764245743,0.23665992987497095
6.953125,1.7179245416031856,-1.9045121736983437
6.95703125,1.9207256878016385,-0.14966995787709064
6.9609375,1.3143355468617925,0.48117471096481496
6.96484375,-0.6533548451065218,1.4343776914667532
6.96875,0.6072205140629379,-0.8219321037782886
6.97265625,2.058046020480307,-2.1063510652734774
6.9765625,-1.1049768305665548,0.2783576603587831
6.98046875,-0.23403871584114158,-0.22137269312857039
6.984375,1.6833993805107101,-1.5064363850610305
6.98828125,0.45367755615655214,0.049198411269743066
6.9921875,0.5515381538917701,1.4207760516376782
6.99609375,-0.08979840718751331,0.25822289252302444
7.0,-0.7334386624876439,0.2071785198386191
7.00390625,-0.4889221817367886,0.9060313863494056
7.0078125,0.8837940556861086,1.620711026076094
7.01171875,-1.0159477211440513,-1.1443952517484992
7.015625,1.1383502325486117,1.343920512381886
7.01953125,1.7203380851123165,1.2343805081421126
7.0234375,0.09091785487237013,-0.41791976318888063
7.02734375,0.23553233046905828,-0.1028284825695128
7.03125,0.32408590797341846,-1.8464790258179722
7.03515625,-0.40940590369209157,0.45632593584693265
7.0390625,-2.6925814311605936,-0.9799840924850696
7.04296875,0.27097434052092,0.29765195172757936
7.046875,-1.5274152977977773,-1.0272064623089985
7.05078125,0.20161959600509763,0.28155652221676103
7.0546875,0.8164191759777905,0.4120416188933297
7.05859375,0.39732920840781133,-0.3329122682527473
7.0625,-0.44484036994705195,-1.1070007956804997
7.06640625,-0.8067310437479692,-0.4304649906916331
7.0703125,-0.2797057615241113,-0.350741677901748
7.07421875,-1.5576364388519996,0.4672508817357949
7.078125,-0.05690137516722642,0.9885721809505641
7.08203125,0.17430818472498952,-0.4565555506844037
7.0859375,-0.39296550568441246,-0.4681652251614328
7.08984375,0.12554442471035435,-0.08873893719114122
7.09375,-0.35869581554593466,1.4311687230299277
7.09765625,-1.5610344593659562,1.313337990996111
7.1015625,0.42648309033570675,0.3522099127149777
7.10546875,0.03156881245970226,0.549359349876151
7.109375,-0.2669290409020577,1.285022263906164
7.11328125,0.2193467575235097,-0.6369472249031067
7.1171875,-0.9610819012482088,-1.0366851049228498
7.12109375,0.03253345746774522,2.016226836484925
7.125,0.4410273674691999,-0.20030495585651942
7.12890625,1.859189479375698,-0.39487682255957396
7.1328125,1.7715804901178513,-1.5944298160173322
7.13671875,-1.819399169203362,1.1583089305167544
7.140625,0.6408189943029315,-0.8075034826628462
7.14453125,-0.22479135278754042,2.3774256056392216
7.1484375,0.7601464695590312,-0.46129646709065997
7.15234375,0.8295288856612911,-2.666633760008426
7.15625,1.1711534871064466,-0.06278088916027066
7.16015625,3.895031053548445,3.0139819954675375
7.1640625,-1.145498488179674,0.7017447989556299
7.16796875,-0.5603391761279977,-0.18765405271896976
7.171875,2.2863098814546046,0.49594564387717677
7.17578125,0.8310500471791711,-0.06739892243654996
7.1796875,-0.1410639325225602,0.44966139658255405
7.18359375,0.46467398602733917,0.3272970591569036
7.1875,1.5267009584700488,1.3470257183464736
7.19140625,0.1338999718479398,0.3524687760500087
7.1953125,-0.5779154929548809,-0.4647488927708082
7.19921875,1.542755467557271,-0.11643953080799702
7.203125,-0.5608597662185172,0.4143545417346185
7.20703125,1.8336039680687852,-0.16731705029832541
7.2109375,-1.3987688526672775,-1.1140129949530502
7.21484375,-0.11635055507092049,1.2355516660286197
7.21875,-0.36373476165267893,0.7768312145145446
7.22265625,1.5992361452866684,0.35437217280186994
7.2265625,-0.45603485028557894,0.013235681074982228
7.23046875,1.1401747739345365,-0.9508239650198823
7.234375,-1.2833096399909367,0.952518926957572
7.23828125,-0.4698877338406472,-1.3266077709132313
7.2421875,-1.6608749499208113,0.4103146637018357
7.24609375,-0.24259299147904995,0.28332431081324044
7.25,0.9239449368838925,-0.3411536339086843
7.25390625,0.016432311336175953,-0.3507669316435721
7.2578125,0.9075455676147908,-0.17726745698342963
7.26171875,0.6663664929490767,-1.3191012556633235
7.265625,-0.5529403758007574,-0.26516896178528376
7.26953125,0.29625158325923867,-1.207193069925666
7.2734375,-0.08322989190910854,0.5813964591473157
7.27734375,-1.5424966964538456,-0.3427153751736955
7.28125,0.5568529700507499,0.5004184060171258
7.28515625,0.3890777382753737,1.1811038571233992
7.2890625,0.6008464936373752,-0.5817677936375396
7.29296875,-2.9748748903805167,0.7196696439963327
7.296875,0.11390264870274135,-1.5404727950385593
7.30078125,-0.030202642113520816,0.07227618386276116
7.3046875,0.1976806023292425,0.6553399477395343
7.30859375,1.4594816361549547,1.877089706452548
7.3125,-1.186203108723663,-1.5145724917082448
7.31640625,-0.7323658230344134,0.07282106489382281
7.3203125,0.6882062097341411,1.4810851275085521
7.32421875,-1.2064891768599764,-0.3385179470032144
7.328125,0.3352437152571364,-1.78025953899356
7.33203125,-1.473736533375778,-1.5584586915664216
7.3359375,1.0868902062639474,0.36719390990508427
7.33984375,-0.2161551858407009,-0.9731706469259805
7.34375,-1.9629670217260144,-0.9437113026611013
7.34765625,0.5053397179280945,0.14056668245740067
7.3515625,0.7635218208329206,-0.07815928736524584
7.35546875,-1.0750369333728833,-0.12185122620958051
7.359375,1.3440601875553435,0.3971436962172503
7.36328125,0.8337837972229378,3.1356386945302104
7.3671875,-2.572764982051637,0.6044579601339831
7.37109375,-1.71970967996599,-0.9018257106264418
7.375,-1.4437818033501408,-0.28214564748901816
7.37890625,0.8793534949475458,0.6589424212398689
7.3828125,0.6176497432509575,0.6923492278299694
7.38671875,1.587356919223947,0.5481962806436874
7.390625,-0.5311755847985238,-1.3952576168375863
7.39453125,0.4057905283550446,0.08260629740935813
7.3984375,-1.3037042043349778,-0.6884480368158198
7.40234375,0.975098495723405,0.96085861206424
7.40625,0.1827506977567486,-0.2077770533437024
7.41015625,-1.506428628066174,0.9574128585212149
7.4140625,0.5398093542169693,1.0493700110748079
7.41796875,0.18943635911069895,-0.9709006617375799
7.421875,1.3691015552307,-0.6299086338013835
7.42578125,-0.07035585196393729,-1.1868723928052503
7.4296875,-0.9248090596544725,1.2758662561632175
7.43359375,-0.7016129021440244,0.8828953142937829
7.4375,0.44037640200638095,-0.07528304491332508
7.44140625,-2.0601580311192222,0.5976508323795057
7.4453125,0.7006592270798219,0.4834127251809933
7.44921875,-1.4387728007139755,-0.697486990738192
7.453125,1.2672778370526991,1.6526756161963558
7.45703125,-1.978478811370277,1.9232695178187138
7.4609375,0.23162658237489783,-0.6322422576232151
7.46484375,0.3462167062957294,-0.6305113316806884
7.46875,-1.2645408932420612,0.4604318113078902
7.47265625,-1.0244832021850687,-0.3317577536160953
7.4765625,1.4000954889726345,0.4010189959248051
7.48046875,0.3251981830446086,0.268120261291918
7.484375,0.1643716328952589,-0.4860123088528504
7.48828125,0.17264471710108475,-0.14337745579314615
7.4921875,-1.1231219890218622,0.8421284849219152
7.49609375,0.9580804532972652,0.3709255004785472
7.5,0.12313933145935091,-0.2985773046569213
7.50390625,0.3089808660362956,1.2855636332573277
7.5078125,-0.7874441725705646,1.2493151724258684
7.51171875,0.620271025581514,-0.6255660355985947
7.515625,1.234602256422347,-0.24509594226190526
7.51953125,1.8520296448989013,1.1577546208578045
7.5234375,-0.4667858198496609,-1.4824042100930839
7.52734375,-0.9663905800624887,-0.4731192455489394
7.53125,-1.0197476691057914,-0.10692486276638968
7.53515625,-0.6379273322275736,-0.7907483382347641
7.5390625,0.22691519941103774,0.3415632580743527
7.54296875,0.8734160724962684,1.0005946384439626
7.546875,0.04940963770175799,-0.3029334766630433
7.55078125,-0.8030218950507122,0.5199323652212714
7.5546875,-0.41906397087689573,1.3325854446291177
7.55859375,0.7048565584648816,1.0970294625681525
7.5625,-0.6029135471780817,-0.4931699297398693
7.56640625,0.5691635269915543,-0.14785499612070696
7.5703125,-0.37496015795906107,0.3731801879677924
7.57421875,-1.2225841984894479,0.33544932154137813
7.578125,0.5467325166667153,0.4238700474577196
7.58203125,0.017286798737335064,0.6037938319607897
7.5859375,0.8796875137508883,-1.881155284320595
7.58984375,1.0465971119954751,0.4908873117493735
7.59375,1.2111099605975564,-1.393114981832087
7.59765625,-0.8436236825884869,-0.656385544619134
7.6015625,-0.756979350330027,0.7287637738975892
7.60546875,0.6686423090499778,2.2282401256568733
7.609375,-0.8528406895517189,2.052010585283555
7.61328125,1.652012492451905,-0.09347094473793575
7.6171875,-0.6227840820139358,0.9166465013131628
7.62109375,1.7119934321487302,-0.5791680198813994
7.625,-1.3549372786173113,0.1213722660621763
7.62890625,-0.40314613147397166,-1.1155542027654313
7.6328125,-1.0591326479390721,-0.2833089914382323
7.63671875,-0.27368296855427343,0.8287716784364819
7.640625,-0.1459668117529001,0.47151310650799694
7.64453125,-0.9470965015865902,-0.4087214034733073
7.6484375,1.7421450924560895,-1.2763539514965738
7.65234375,1.3705782735312642,-1.1062370841148423
7.65625,-0.34314852523473094,0.27823837363057125
7.66015625,0.5654906024527703,1.4438837298115608
7.6640625,-0.5191404522644499,0.08660823473705687
7.66796875,-0.7884600468507597,0.41864022609963947
7.671875,0.8658525330303877,-0.7027942567394279
7.67578125,0.016379609229111962,0.27115905886559294
7.6796875,0.3269535398417625,-1.0055175650626016
7.68359375,-0.13799131273320622,0.08387216123937474
7.6875,0.013050701685271794,0.17774653649706715
7.69140625,-0.1295621064336427,0.2524864481336702
7.6953125,-0.15128887384483883,0.06594416292837064
7.69921875,0.5396287232032666,0.60885461886144
7.703125,0.33995517255357516,0.4586860664973898
7.70703125,-1.1043670292737808,-1.3642029220273864
7.7109375,0.061420881683879304,-0.9930264374988509
7.71484375,1.5465793187454102,-0.013170418698701917
7.71875,0.45096724942126337,0.8993343920784229
7.72265625,-0.5173108705074041,-1.5203869950343538
7.7265625,-0.3162067261658091,0.9686013717042156
7.73046875,0.4771355874488851,0.04693719308526935
7.734375,0.8915078085212197,-1.7066354085128597
7.73828125,0.18610527298634114,-0.8911822537930109
7.7421875,0.9672995892667636,1.0412559808672395
7.74609375,2.0764607143702936,0.1716373461113283
7.75,-3.5303141458290295,-0.3760629819714399
7.75390625,-0.8237353735062551,0.981336294978403
7.7578125,-1.2295326359735124,-0.3954285449972736
7.76171875,0.26279252289471805,1.4971458251157033
7.765625,-0.2941285814677006,-1.8126666537804943
7.76953125,0.3655563310021099,-0.35215907240110184
7.7734375,-1.4680361127247556,0.3757937691627024
7.77734375,0.9712825231639921,0.6234188994749543
7.78125,0.8383630952338953,-0.09590493126334712
7.78515625,0.5017978732534112,0.8042442961981818
7.7890625,-2.8953438896571413,-0.6534456225923906
7.79296875,0.6403320999664612,-0.5226518968833851
7.796875,1.5052796041227794,1.9821435167470667
7.80078125,1.114705761198958,0.27741630887080154
7.8046875,-2.4027509795110706,-1.16664689622213
7.80859375,-0.6059954320381238,0.3914450277132633
7.8125,-1.460375233588602,0.0787789794615497
7.81640625,-0.5777350140896041,0.25907746545827526
7.8203125,0.38317116065022466,-0.9476304628112614
7.82421875,-0.3475682825357325,1.9195010441460032
7.828125,1.1585550711073276,0.6869081330991219
7.83203125,0.8685828575951408,-0.41725631288024756
7.8359375,0.19071916995330532,-0.87981054696131
7.83984375,-1.5715353043385822,0.766648217862614
7.84375,1.525019154127306,-1.606965528937036
7.84765625,1.5704118943870713,-0.3786826332327739
7.8515625,-2.2854071984330893,-0.9643986754835131
7.85546875,0.8563180686495366,-0.507319243906206
7.859375,-1.9623231860799282,-0.3562768792803561
7.86328125,-0.2277547995831641,2.3045520965489157
7.8671875,-0.21886316880443826,-1.6084106393453343
7.87109375,1.1801013737599513,-0.7631300991615803
7.875,-0.9310003076810486,-0.07895855291478267
7.87890625,-0.479495983203728,-0.5153977775947296
7.8828125,0.25448938139651606,-1.0767951453265445
7.88671875,0.33414631015628243,-0.7479598774420647
7.890625,-0.42203614197649536,-1.417183172348237
7.89453125,0.7957015316427942,0.18708602754494924
7.8984375,1.1313589571753797,0.6907553221449656
7.90234375,0.8934972103712205,-0.09488902922331448
7.90625,-0.7153154294339604,0.666778209668312
7.91015625,-0.47476291415769195,1.2319240532200992
7.9140625,-2.3394990376794444,0.5137452520174356
7.91796875,0.8994637433949748,-0.14551189376520912
7.921875,2.0296887229586273,1.3786157844836686
7.92578125,-1.8308055482653176,0.049969584277147615
7.9296875,-1.708505540359668,2.4103421859905088
7.93359375,-0.1633172520025585,-0.5657451770838852
7.9375,-1.8056986653290628,1.8988900242902904
7.94140625,-0.06990689710434446,-0.4150287225323672
7.9453125,-0.44303727610673455,0.08220346704591083
7.94921875,0.8368767755681663,-2.636477139836283
7.953125,-0.5443855625349027,1.682009528054874
7.95703125,-0.156806873679256,0.7547240807750583
7.9609375,-1.7173234513564117,1.3731837210621611
7.96484375,0.17896375034512746,-0.830442517315466
7.96875,0.2483469673320108,-1.1356537183478608
7.97265625,0.615782063802638,1.5220708355951413
7.9765625,0.10484867499016169,-0.2552203694294804
7.98046875,0.5632128664428848,-0.04358861102546879
7.984375,1.3908931244257718,-1.3170616303951406
7.98828125,0.6030449362161818,-0.8632588380494824
7.9921875,0.2521958463707838,0.2331150246034261
7.99609375,0.9462465279806895,0.6697704595165025
8.0,-0.551857628390528,-0.44007437672299715
8.00390625,0.06213725778911556,-1.6764854034455363
8.0078125,-0.7688655318484536,-1.4993118832990706
8.01171875,0.21479075473128742,-0.3845773653809715
8.015625,0.06905147102946864,-0.052053782380949196
8.01953125,-0.2460229027282988,-0.05600837347707141
8.0234375,-0.5061469222836579,0.28198614404202854
8.02734375,2.139737884488323,-0.7147310653494833
8.03125,0.019484344965939468,-0.18076108715768993
8.03515625,-0.7836726697503996,-1.5445513479766255
8.0390625,0.4292601032398639,0.6624452491389056
8.04296875,0.13369177941528326,-0.11467332367940906
8.046875,-0.5359313115063551,0.0032665111924695812
8.05078125,-1.523458534235581,-0.1641983418530543
8.0546875,-1.793033996702455,0.08225494168905086
8.05859375,-0.47469788720938744,-0.7101032494367822
8.0625,-0.204101374882257,-0.1378904236162056
8.06640625,0.8297260721710565,-1.3050352341730735
8.0703125,1.0478679083243907,-0.869548050093913
8.07421875,1.3142470126425596,-1.0105945134366983
8.078125,0.7112945718572901,0.5347557715970522
8.08203125,-0.7936834613335966,-1.5548272627274977
8.0859375,-0.5827883844816583,-0.9700137513734013
8.08984375,-0.48777893106271253,-0.06640208638445892
8.09375,-0.5666474999784572,-0.530337247564863
8.09765625,-1.616778221361809,0.6000688180433822
8.1015625,0.13560098530424075,-0.3692441234741885
8.10546875,0.9528322897839492,-0.34738084811565256
8.109375,-1.6932627289404376,-1.4775868455176382
8.11328125,-1.649117324819027,0.2798643173224783
8.1171875,0.6705311690350868,-1.2940159082819929
8.12109375,0.490059826633681,0.054364491736405215
8.125,-0.17024306341563278,0.4450095852909177
8.12890625,-1.020477783460638,1.617346833302837
8.1328125,0.12555954620307827,0.04848617661888805
8.13671875,0.5367916549803153,-0.690180935654753
8.140625,1.3155328873234535,-1.4313292198629337
8.14453125,1.2220878519372382,-0.6073431291514975
8.1484375,-0.1927247551105836,0.6715161683736535
8.15234375,-0.9188722290493664,1.499756186368325
8.15625,0.2167707635355532,0.9506649391340928
8.16015625,-1.1108200897358238,-0.44160878441450824
8.1640625,1.5237287967196356,-0.0963581470230497
8.16796875,0.12460750748343181,1.6635398479873964
8.171875,0.5997362582681766,0.2700687520386924
8.17578125,0.565540287272286,0.6856117758908982
8.1796875,-0.2854639731613705,0.3242226106624769
8.18359375,-1.6549210493042907,0.9702327847879358
8.1875,0.5280384095394766,-0.6852854557662478
8.19140625,2.4073155332731297,1.0397556281808888
8.1953125,0.026316610430021845,-1.2352489480498687
8.19921875,-1.0529691295533032,-0.32903485863862103
8.203125,-0.5701413091400027,-0.027497889523216083
8.20703125,-0.15216248463272578,-1.2601201873046195
8.2109375,0.8253246224276135,0.49405887362762957
8.21484375,-0.1254949689101012,-1.1263130325235902
8.21875,1.0111130380353528,-1.7266909278323725
8.22265625,0.9179408796429466,1.1030002263745549
8.2265625,0.46908088913792273,0.37793936806204137
8.23046875,0.6787507217439687,-0.2077481365150077
8.234375,-2.2263741234402703,0.0504583510514378
8.23828125,-0.16049265402915935,0.32229829502846363
8.2421875,-0.5513901055585194,0.9630659051872607
8.24609375,0.05734453326339969,-0.4429640000446585
8.25,-0.7111026730002189,-0.26338105009163887
8.25390625,-0.16507281135486077,0.41301696230808854
8.2578125,-0.7033737281663268,1.2879605834375727
8.26171875,1.198504366973959,0.042801951898739234
8.265625,-0.24794969925105179,0.4373570588139986
8.26953125,-1.3214889897438393,1.9048678500785368
8.2734375,0.05863238925987694,-1.634799389882262
8.27734375,0.43876429595748156,1.1603237110826865
8.28125,0.1818506871711403,0.7192416126593755
8.28515625,-0.6714471437257236,1.6392234019871836
8.2890625,0.3326710180881503,2.431686848894633
8.29296875,-0.20524378661228712,-0.5313859185122167
8.296875,0.5688422899411093,2.136737803727998
8.30078125,1.1012811960845998,-0.17186242237375401
8.3046875,-1.2347826644052584,-1.1432742272563834
8.30859375,0.9660846884502741,-1.0157307661140311
8.3125,1.8498374540263016,-0.9987013517969656
8.31640625,-1.7982200548330274,2.000820570252676
8.3203125,-0.8134784027890104,-1.0913599031582226
8.32421875,0.5769254691300102,-0.6406716076774192
8.328125,-0.31827622509254155,1.8478446415507697
8.33203125,2.636879029463791,-0.12472161351197725
8.3359375,0.4042014578829379,1.3137192374073363
8.33984375,-0.23182680542687764,-1.5146530383520893
8.34375,-0.8088371993848634,1.494514817713365
8.34765625,-1.9801092137160643,-1.477967923932323
8.3515625,-0.6807702039513407,1.8039690354678408
8.35546875,0.23497778024350868,-0.7350810846438945
8.359375,0.8558618543844526,-1.8623198366961087
8.36328125,0.44405045112920716,0.9099587208751592
8.3671875,1.0138071829820274,-0.3503077020058066
8.37109375,0.057097551054024184,-0.3308039589141207
8.375,-0.11929796959585245,1.23110164997372
8.37890625,0.47319221489057217,-0.7671860950146537
8.3828125,-0.6772001974257518,-0.5049128257150369
8.38671875,0.6326275502988595,0.34851557182591936
8.390625,-0.041297068491495045,-0.43153394491990626
8.39453125,0.11303315332610923,0.8814692963596069
8.3984375,-1.086668627105876,-0.6049099057823838
8.40234375,0.349997097478185,-1.4226337084302871
8.40625,-0.11316575330969213,-0.25609855709941565
8.41015625,-1.6175276191518948,-0.5741570121106283
8.4140625,-0.31997085739308667,0.6509118042371717
8.41796875,1.3526218087555952,-0.36750881606047886
8.421875,-0.9471295959726475,-0.4034166803754512
8.42578125,-0.5515401656716821,0.4539118592671352
8.4296875,0.08905525563721654,-0.0266185408644726
8.43359375,0.3170335498642896,-0.8458708237208202
8.4375,-0.04663349523964398,-1.100200039068604
8.44140625,0.9491034074720299,-0.34669207998999974
8.4453125,-1.1065553321663928,0.8889952012209287
8.44921875,-1.0127625549943344,-0.7413446256456833
8.453125,-2.252697324855267,1.8257899227414591
8.45703125,-0.32512548762929383,-0.08107869801770963
8.4609375,-0.3122152492017798,-0.32709622151098794
8.46484375,-0.09781141846150362,0.6200507438808424
8.46875,-0.97473218445857,-0.7688946820904217
8.47265625,-0.815984681668112,0.7130911581424816
8.4765625,-0.201479596530648,1.3096991597074894
8.48046875,-1.3524622453028692,1.5684631763524142
8.484375,-0.43181061921687186,-1.2739155129061748
8.48828125,-0.7646827590432911,0.05739014263381198
8.4921875,0.32588803505291747,0.9298288269189082
8.49609375,0.3193372181884368,-0.4093760010774179
8.5,0.5864652812305665,-0.5271690614427528
8.50390625,-0.5478477174953333,0.7551576567151536
8.5078125,0.33942212801113886,0.5939447078211283
8.51171875,1.085814707801484,0.5908605565121764
8.515625,1.3234432360105246,0.3871493813661406
8.51953125,-0.029093563597595653,0.6984379390205631
8.5234375,-0.7589002597277961,0.7909107606184589
8.52734375,-1.0353324536641626,0.14812404157573836
8.53125,-0.9197875127771089,0.14655280067285234
8.53515625,0.13768670121419885,0.03852618396952639
8.5390625,1.2331509782143075,-0.41898737871894187
8.54296875,1.4571763248872198,0.8759456472988132
8.546875,0.37650900010031635,0.674340078004574
8.55078125,0.6205398109220939,-0.17455184698187387
8.5546875,1.8747448220287595,-1.1797354977588879
8.55859375,1.981073088710171,0.3544497214392708
8.5625,1.04018586164319,0.4719750796323296
8.56640625,1.0685847243588664,-0.006472346077901759
8.5703125,0.256097928556088,-1.1946972875854514
8.57421875,0.0012780645478156418,-0.06551617999066255
8.578125,-0.6339463943738166,2.020200006155093
8.58203125,1.727656237261485,-0.4301744058186464
8.5859375,0.48846364321274954,-1.9177785096720041
8.58984375,0.9931476601827812,-1.2682534456151704
8.59375,-0.9866064312774699,1.1514015112822042
8.59765625,-1.181359832852209,-0.04454729418384756
8.6015625,0.9755922931301348,-1.1713597911232438
8.60546875,0.2642852407995571,-0.9271064699775472
8.609375,0.46633997118881415,0.3496169325420124
8.61328125,0.8678504819888518,0.8963642036407873
8.6171875,-0.5928435980579408,-2.6009266080027906
8.62109375,0.07116719458213787,-0.6081286776202719
8.625,0.15738637044563847,-2.5388530056793015
8.62890625,-0.1562950848942447,1.1064260705614848
8.6328125,-0.45156125448639717,-0.33042931325623487
8.63671875,1.5322777945662946,-0.3419648572283676
8.640625,0.9588222526974721,1.390225070262515
8.64453125,1.3580815914430344,-1.4118658172763476
8.6484375,-0.6604212487961321,-1.1513295724170798
8.65234375,0.15345320223873885,0.6380866578294637
8.65625,-0.683847679494734,0.42355388166596114
8.66015625,-0.651951984090953,0.3097340625007274
8.6640625,-1.0864296022839048,-0.4288498576684688
8.66796875,0.7289834927310606,0.29964219470462516
8.671875,-1.2767110855648274,0.8566262047108493
8.67578125,-0.5101349870728684,-0.17535016223905942
8.6796875,-1.3848098845888304,0.7269265172908681
8.68359375,-0.35144434713749295,1.345856316283321
8.6875,0.4984284442263095,-0.8121688575827792
8.69140625,1.0121136471676422,-1.2174886226003798
8.6953125,-0.254617127354194,-1.5423828959177515
8.69921875,0.4186047989137774,-0.21149751874696635
8.703125,1.2233574997391146,-1.828797847372854
8.70703125,-0.5178728475851552,0.02721425043754333
8.7109375,-0.47021687624465297,1.461218523646377
8.71484375,-0.32656135677626213,1.223226459839733
8.71875,0.8849476324268486,-0.6150488023873953
8.72265625,0.5697227262577917,-0.2167887959946834
8.7265625,1.39148744103231,0.09547286790828101
8.73046875,0.6773179054665331,0.6046626746084699
8.734375,1.3279034844158637,-1.045530790629312
8.73828125,-0.5080460883976755,-0.4061461551991866
8.7421875,-0.505618862809154,0.6099898994113165
8.74609375,-0.5986299712389904,0.8322959380315683
8.75,-1.0956052284143243,-1.6702469747049993
8.75390625,-0.36589592342312593,0.2120266395023754
8.7578125,0.39993780673127244,-0.19918822116394327
8.76171875,-0.07993343703460935,0.6143505773783139
8.765625,-0.5080386563871101,-0.9800321776258436
8.76953125,-0.9434909713206666,0.19816813086720644
8.7734375,0.23114905774364755,-0.8669990001244778
8.77734375,0.7880216315108708,0.09494330781673735
8.78125,0.854763548508627,1.2741854988752532
8.78515625,0.2594095716356861,-0.3956047334358565
8.7890625,-2.38928869909094,1.499290165649844
8.79296875,0.1659879039632544,-0.09610809986019829
8.796875,0.7919641060537475,-0.040985938681590214
8.80078125,0.8484327404452324,-1.2651705714917523
8.8046875,0.2546428210124689,0.2621706075096767
8.80859375,-0.11149966024142803,-0.3477332217846095
8.8125,-0.6989608621284824,-0.9620160639309374
8.81640625,-1.0632357549901692,0.11781613819249813
8.8203125,1.0281043185043708,-0.887731792690628
8.82421875,0.40672517749587483,0.29886147849001193
8.828125,-0.42894621789492754,0.08235602075810532
8.83203125,0.2116894027819045,0.2315318448282412
8.8359375,0.18145023931733478,-0.7978048169854215
8.83984375,-0.31842769393428494,0.05293119283947826
8.84375,-0.8286594726128276,-1.472720373318304
8.84765625,-0.45787551182584957,0.45358982746287474
8.8515625,-0.9427081012426088,-0.7319452950405879
8.85546875,0.06061718901108594,0.7286722110504771
8.859375,1.2897432281926238,1.304390713385767
8.86328125,1.46122388154437,-0.054462362831461414
8.8671875,-1.7255531572569873,-1.2373249182194617
8.87109375,-0.16482069338301886,0.6639012598535721
8.875,0.37705692485100073,-0.3219446443058965
8.87890625,1.6553728152433864,1.7482838938278524
8.8828125,-0.34585225592091445,-1.0221438497455562
8.88671875,-1.309268354771411,0.8014482202791889
8.890625,-0.1661010583379556,-1.2822216224540834
8.89453125,-0.5849007736818518,0.48878977665876283
8.8984375,0.710315671251235,0.8684153878850112
8.90234375,-0.4348402270188794,1.823760489846988
8.90625,0.6117414041606146,0.38849076636820395
8.91015625,-0.8859120468512253,0.3783323391910839
8.9140625,1.0314319135905219,0.041589113402027485
8.91796875,-0.6084316876376876,0.9127537235560339
8.921875,0.664767686097283,0.3032797274424437
8.92578125,0.5490864149482966,-0.5484340575203798
8.9296875,0.42419464560547565,1.1680931426621641
8.93359375,1.1331571317487912,-1.1480086554743925
8.9375,1.0465119845873048,-0.35366912686273905
8.94140625,1.6762324587520452,-1.1122360267419056
8.9453125,-1.1293960912120475,1.7773044875363342
8.94921875,-1.87721570422006,-0.9986681944543977
8.953125,-0.9523445002285326,-1.1073689004049025
8.95703125,0.5822238302418032,-0.8673513089889192
8.9609375,-1.0461243632955288,-1.392944291370569
8.96484375,-0.9966249701077503,0.7418905981204654
8.96875,-0.9462043657435248,0.07302700103930104
8.97265625,-1.9968293284180105,-1.6706678500958265
8.9765625,0.015826578841404735,2.6153317972999557
8.98046875,-0.9896400310330216,1.2766964498503928
8.984375,-2.348713670124339,0.5172259378455932
8.98828125,0.21641009876046235,0.6466720018681249
8.9921875,-0.4099745803140526,-0.9927751071933903
8.99609375,-0.22775280218855506,0.07868816056361988
9.0,-0.37880074047610274,-1.5093586384822029
9.00390625,0.017920695350917944,-0.6655717362040293
9.0078125,-0.9065395670735183,0.7444152837605724
9.01171875,0.6700703379878046,0.6305151230185972
9.015625,0.5015380317914895,0.8624387733279848
9.01953125,-0.481960583336676,1.2039526807078171
9.0234375,-0.782200961178287,-0.8485400308420733
9.02734375,-1.3427162817500422,-1.662030858288111
9.03125,0.7648700825348888,0.801707819588559
9.03515625,-0.330420512511317,0.3896859683664221
9.0390625,-0.3878050648863944,-0.4010106509477494
9.04296875,0.03248832118432017,0.9685765444410543
9.046875,-0.3234921170765286,-1.0536335419183682
9.05078125,-0.047318817727626736,-1.0769699050222716
9.0546875,-0.3571845982450629,1.463551398430981
9.05859375,-0.2754040227338422,0.5264534381033846
9.0625,-1.5537194560098369,-1.1362735657646588
9.06640625,-1.2851814638984147,1.5672278661819488
9.0703125,-0.7628365296265898,-0.45542913449403744
9.07421875,0.7556954134653984,-0.22148401691917718
9.078125,1.3449121319371733,-0.3972849730410083
9.08203125,-0.7417482044395416,0.8722081393330269
9.0859375,-1.136369215576439,1.3577189763209634
9.08984375,-1.3465680140111678,0.9108511230595402
9.09375,-0.10972595659675975,-0.6591207460378214
9.09765625,0.9823130190262066,0.5702984171300978
9.1015625,0.7118325321273812,0.6746389515687761
9.10546875,-0.30022694444930625,-1.23153956686387
9.109375,-0.42507047308014073,-0.5320191720530137
9.11328125,2.1345850677242364,-0.5123059373711346
9.1171875,0.38759354578518807,-0.8654779546493427
9.12109375,0.2152794078785626,0.21775398671775006
9.125,-0.08261564134408923,-0.09832415731720363
9.12890625,1.710667863945184,-0.020971280915958256
9.1328125,0.4210585077154877,-1.8031650005298638
9.13671875,1.2440692982045873,-0.9238421223673429
9.140625,0.7230077563883679,0.38150891646932544
9.14453125,0.8449898309759402,1.1374195554089628
9.1484375,2.060839698387648,-0.1557607924109481
9.15234375,-0.4104430439851098,-0.9374818628605476
9.15625,-0.06727158177842674,-0.9713816759760673
9.16015625,-0.06793628370064735,0.5102115431908975
9.1640625,0.6241674468376943,0.41450108121260304
9.16796875,1.3243717380685762,-0.65655546951799
9.171875,1.227435511604674,-0.7560193377673472
9.17578125,1.0860573396812647,1.3295214113423734
9.1796875,-0.8490791952560707,0.4525712595751762
9.18359375,-0.9434971304033203,-0.6657679656262468
9.1875,1.2192507948051232,0.03258441704400859
9.19140625,0.8794941862838339,0.14751033393235807
9.1953125,1.7928340120011093,0.3596021492962256
9.19921875,0.7838016603252601,-0.2993748701423236
9.203125,0.7392912843323745,0.680575101417081
9.20703125,1.641287294142248,0.8052830294817709
9.2109375,0.7872141178505024,-0.7976486346806392
9.21484375,-2.3056150006111538,0.5598006680663514
9.21875,-0.0064064232906828516,-0.07702567239619872
9.22265625,-1.2954249066902632,0.45231977048671784
9.2265625,-1.3134766400164901,0.7031222611643067
9.23046875,0.9261744892677898,-0.4725519937057632
9.234375,-0.7685826618363957,-0.37576735513248555
9.23828125,-0.3957396799186727,0.8226212282323834
9.2421875,-0.3157120466839347,-0.8485578417783595
9.24609375,1.4492427964564776,1.500014073904991
9.25,0.07805723480752691,0.7485494217581115
9.25390625,-0.9705247489062304,-0.3232404923478261
9.2578125,-0.3985549284931293,0.09050876408148842
9.26171875,1.4979763476719619,-0.184127983083598
9.265625,0.872389367037078,0.9034342182131474
9.26953125,-0.40680161965902517,0.43155187326549604
9.2734375,-0.7937539477666455,0.5167029672553408
9.27734375,-0.7757857625432305,0.29003081462175023
9.28125,-1.3297386807760483,1.009509555589496
9.28515625,-0.40920437066863985,-0.2965566023722699
9.2890625,-0.9463229315567758,-0.8082265429030756
9.29296875,-1.442403101202016,-1.1252105396678234
9.296875,-0.2401443589086767,-0.27011351211784834
9.30078125,2.5437956501096517,1.1709541897108846
9.3046875,-0.329531219572229,-0.10670052854834151
9.30859375,0.0472704426817671,-0.7684539618549664
9.3125,1.9283323929876368,-0.5158463525210613
9.31640625,1.3573902497816843,1.0138834332724513
9.3203125,-1.4735200088334997,1.0419983974670728
9.32421875,1.2413174964491946,-0.10133316606230951
9.328125,-2.489238933075305,-0.39553787079892677
9.33203125,-0.5240682151579882,-0.006044210529264099
9.3359375,-0.15733060350539035,-0.020734483167100016
9.33984375,0.0946567893825799,-0.8961288151136326
9.34375,-2.28181069027312,-0.8781853296153813
9.34765625,-1.350021225757012,1.4034117705843858
9.3515625,0.32999641140325653,-0.6910977059254673
9.35546875,0.9887518979581631,0.757689241139427
9.359375,1.1120356677110226,1.2874341977580959
9.36328125,-0.5495526874022463,-1.6125776039717117
9.3671875,-0.29927479861074724,-0.3304769310335984
9.37109375,0.7642046225555359,0.555203436635804
9.375,0.5881064860364046,0.17520651925735453
9.37890625,1.0803121950118477,2.5852762472265534
9.3828125,-0.4626419379934161,-0.11858943403073259
9.38671875,-0.09397436052733563,2.181466189853906
9.390625,-0.18409933110010246,-1.1383576405611684
9.39453125,1.1190238489672455,0.5345749823252726
9.3984375,-0.578641409500525,0.5822124565341971
9.40234375,1.8676528975335724,-0.2316718328903402
9.40625,0.28346968343738616,-0.5989604564578518
9.41015625,0.01295286956426782,0.40998248103374574
9.4140625,1.527183217871565,-0.0951780060614351
9.41796875,-0.8379638032184022,-1.3127630056547168
9.421875,-1.3110757414020267,-1.8267224700055138
9.42578125,0.31949954571947353,-0.004370878391420469
9.4296875,0.8141638569714741,0.5142331775667193
9.43359375,-1.2971976575482937,-0.2787834556545229
9.4375,-1.8385347684319802,0.5523755469125711
9.44140625,-0.3315073444876803,-0.4728158858151085
9.4453125,-0.4679498270387382,-0.7433435803973452
9.44921875,0.32762255200931134,1.1073363287069298
9.453125,-2.151649993171986,-1.0233211640556394
9.45703125,1.1628934095893952,0.4259029579535095
9.4609375,0.9355718769376024,0.29329229193595135
9.46484375,1.787813332811623,-0.16773153888153144
9.46875,-1.7503296283429004,0.7707879801293628
9.47265625,0.5287125449979921,0.5793569938492322
9.4765625,-0.3392314775844737,-1.284450115320738
9.48046875,0.54213991193787,1.423780962046337
9.484375,-0.8282502724134325,-0.3349776010632843
9.48828125,1.5240738286256086,0.3597007905794584
9.4921875,0.4927766945331473,-0.48675619090419214
9.49609375,-1.2088527064762724,-0.6243890319287119
9.5,-0.0807767180254815,-0.054449993606564696
9.50390625,0.6361228555019337,-1.575987079427029
