time,ecg,ppg
0.0,1.1922203039340622,-0.9901744363318217
0.00390625,-0.7275040798082216,-0.8672512318416722
0.0078125,1.0085833761810379,-0.1071636892743249
0.01171875,-1.5056029715418677,0.20812392072294278
0.015625,-0.9810114526190304,-0.22996498668580576
0.01953125,-0.14349955723951277,-0.7198147954179357
0.0234375,-0.9381883637819752,-0.46264763356303407
0.02734375,-0.979718630862833,-1.4929865959558934
0.03125,-0.5392685716714962,0.2789325362277654
0.03515625,0.5635859658990534,0.9851242823463404
0.0390625,-0.7194718046660871,-0.9849724127014752
0.04296875,0.6384086340064671,-0.6107622819032156
0.046875,-0.34891218054335954,1.0407810548932184
0.05078125,-0.15878201609979142,-0.6137699927530458
0.0546875,-0.1261354109091843,0.4363420922963106
0.05859375,-1.1366532122720459,0.8544605200728161
0.0625,0.6896791399605054,1.5147203812526064
0.06640625,0.2747957128116482,0.6941977142255423
0.0703125,-0.2751429859056388,0.34949538706093497
0.07421875,-0.08743498909323255,-0.04282996397030696
0.078125,0.8773160518960978,-1.0826356882682755
0.08203125,-0.10178941507759795,0.3933165937410178
0.0859375,0.4906596621904083,-0.7689199241203415
0.08984375,-1.2196168737233222,0.8289407576237604
0.09375,0.2504431822586117,-0.6637079005131312
0.09765625,-0.5772683821594774,3.225626070630051
0.1015625,0.647982259135756,0.4287948383901685
0.10546875,-0.2448897798062025,-0.5571394820372894
0.109375,0.13695443344764854,-0.20328118543954357
0.11328125,-0.36792324293320694,0.14193638242338733
0.1171875,0.6078818041214163,1.1929041247999002
0.12109375,0.03678590842048847,-0.5056583609726794
0.125,-0.3984845982166948,1.3032872043038686
0.12890625,-0.34999484490740734,-1.3433090797072536
0.1328125,0.7207161795203252,1.003772374671465
0.13671875,-0.06353675971272267,-2.9573521823397457
0.140625,-1.4202263347896635,0.016283707840369015
0.14453125,-1.6696972732514561,-0.04488811796485582
0.1484375,-1.1779556128826691,0.6838309942555434
0.15234375,1.0779506613066399,-1.658294376926663
0.15625,-0.06543896447025152,0.090576383048823
0.16015625,-1.2038670487310754,0.3054079897426677
0.1640625,0.5806103089414046,-0.6718416628873527
0.16796875,-2.181375012984676,0.8563834977949452
0.171875,-0.37178185808808595,-1.5945943033586603
0.17578125,0.5037755398070466,-0.8981437424135958
0.1796875,0.5813995931586025,1.4354432094727905
0.18359375,-1.0909588686983756,0.3798648422479049
0.1875,-2.3175812406106053,-0.010123260747181012
0.19140625,-0.6165411638014441,-1.8128641163624628
0.1953125,0.9053595094886887,-0.5431859564511469
0.19921875,-1.0013256936409693,-0.1998732189584688
0.203125,-1.303723483324152,0.2904232997348327
0.20703125,0.2852945953222502,0.7937372804809968
0.2109375,-1.8781404522611889,0.9994091967559297
0.21484375,-0.0619761774831564,0.4971156023917636
0.21875,0.2612543507468708,-0.020308229750111678
0.22265625,2.1971790863107636,0.22445724710210938
0.2265625,0.3104520162102893,-0.6653498454344283
0.23046875,2.1948850031423226,-1.2533535451052893
0.234375,0.8439161620692006,0.43336751845977206
0.23828125,-0.33755716518678675,-0.3340986279117652
0.2421875,-0.3734533736155933,0.01789352601732497
0.24609375,0.2620490221181959,-0.7111995596063088
0.25,0.5756625443805358,-0.0660028051653394
0.25390625,-0.02013415321655614,-1.657167776104167
0.2578125,-0.3112097169071119,0.0018884315128820434
0.26171875,-0.5596590424532141,-0.8429324458055858
0.265625,0.7472073111438513,0.26484424309492516
0.26953125,-0.7474721675001282,-0.7474997989739463
0.2734375,-1.1001261122399966,-0.7420374786346278
0.27734375,0.6052423247276807,-1.0558144407732235
0.28125,-0.08674808816863049,-0.8445214366140182
0.28515625,0.7581530112364152,-0.8565170636087908
0.2890625,-0.16903696722571546,-1.3297474434894687
0.29296875,0.30306498002875004,-0.7187446257703263
0.296875,-0.7290059336704172,-0.2189996831573617
0.30078125,-0.13901628380050876,0.379637011452766
0.3046875,1.0460695209165316,-0.6773940596572011
0.30859375,0.5518936101915655,-1.0640777378714947
0.3125,0.5932043203892788,-0.012603123220654247
0.31640625,0.1769551951100245,-0.4781501448806212
0.3203125,-0.8944426702507849,-0.7645275185930663
0.32421875,-1.3216552058494884,0.3574457027561803
0.328125,1.1610369556790918,0.6945632149395548
0.33203125,1.3410533689646333,-0.49153652114812985
0.3359375,-1.3642612270515835,1.1078262176672864
0.33984375,1.759794089307378,1.6175037961030554
0.34375,0.4077886367608014,0.2970324582807422
0.34765625,1.4790439503183792,-1.9901610038764275
0.3515625,0.3919232123587845,0.5591646426773773
0.35546875,0.733581707668399,0.5560999836671896
0.359375,3.7000040765096096,0.9000063387909013
0.36328125,-0.24946865325614304,-1.1499443110481649
0.3671875,2.4890662415583384,-0.33239485366847654
0.37109375,0.7947622432152338,-1.7898941975804408
0.375,-0.692084733507892,-0.6038916836563403
0.37890625,-1.0817420131125495,1.3614552913843596
0.3828125,0.01565869305902613,0.4109398407524533
0.38671875,0.43309918848012957,-0.6090196785722978
0.390625,-0.5638169238850451,-0.7035906841719597
0.39453125,-0.573847235773017,0.5441220034209039
0.3984375,-0.5312810504331791,0.36472633739440286
0.40234375,-0.9422490965313688,0.2901993979842175
0.40625,1.4784167760285214,-0.8843918644586032
0.41015625,0.32821129732815674,-0.44016346994605554
0.4140625,1.2271291383957539,0.9766075776319181
0.41796875,0.07827198837830808,-1.3322346810818049
0.421875,0.3502241545753106,0.7681792589912075
0.42578125,0.33191308599713326,0.5632658107655547
0.4296875,0.2054044473525704,0.5572770397207744
0.43359375,1.8994205718509694,2.1546041787438184
0.4375,0.6566025441830745,-0.11468750672653379
0.44140625,0.46702289518042767,0.014683352905392725
0.4453125,-0.4076154791197681,-0.9158932757945426
0.44921875,0.3353028916914361,-0.8592148367824424
0.453125,1.5191390220028844,0.011900461447920861
0.45703125,0.12473899350420191,0.7752036193247512
0.4609375,-0.4341288627714625,-0.7833229917493721
0.46484375,-0.3654055426627436,1.362178898218823
0.46875,1.034204992600643,-0.10584674534488674
0.47265625,-0.08547530017133227,0.3753941600844387
0.4765625,0.9969406210796455,0.07074263048005594
0.48046875,-0.023522070527889048,-2.059323690991651
0.484375,-0.7263528524105478,-1.4410350821081084
0.48828125,0.9192321285029188,0.8744195060437339
0.4921875,-0.8464447131335523,1.6430433739948933
0.49609375,2.386870248311875,0.8787779019902829
0.5,0.32205617604538644,-0.4366892852712158
0.50390625,-0.7264190094052418,0.845889271061169
0.5078125,0.1301945308590242,1.013585838902031
0.51171875,-0.24848244307109085,-0.060535469213838254
0.515625,0.4944505124394306,0.335359879933003
0.51953125,-0.960679044046132,0.7493621308726025
0.5234375,-0.14270384061455563,0.5063685697321135
0.52734375,-1.518151038128498,1.8694002574432562
0.53125,-0.5731295139222313,2.451650480583127
0.53515625,1.3807690996326887,-0.8290903114127408
0.5390625,-0.2204447397412584,-0.2851742332639284
0.54296875,0.36929850229729355,-2.0854021364509028
0.546875,-0.48702763066544175,0.41700302480730367
0.55078125,0.1308696486375373,0.1590651136176553
0.5546875,0.9783863693444369,1.6790292271609126
0.55859375,0.7427553307877951,-0.8232246055497231
0.5625,-0.8090776837497309,-1.1517621131768945
0.56640625,1.098122211022911,1.3968681482542653
0.5703125,1.5561294889283346,1.7485228169149831
0.57421875,0.5460862640928085,1.626112823154681
0.578125,-0.01113898770764654,2.3809166348515673
0.58203125,0.8568469403241488,0.6394115327957223
0.5859375,-0.1591002466343319,-1.5814331807331166
0.58984375,0.0333238803247134,0.8941325488988625
0.59375,0.9365570920536473,-1.4914332089145588
0.59765625,-0.9692428178728435,1.0860931350551544
0.6015625,-0.2827384004099603,-1.1604507639145878
0.60546875,0.12889983405693048,1.094010295489859
0.609375,1.2624343678070964,0.03707628039759245
0.61328125,1.6610808092769012,-0.9219526398684916
0.6171875,0.9085825081986961,-0.19342320014068418
0.62109375,0.6859072090676622,1.1766708538050166
0.625,0.8701317955337475,-0.6274942875514371
0.62890625,0.2670519207318407,-1.2153780753686032
0.6328125,-0.21326459360635056,-1.1499497653191448
0.63671875,1.6917390580242506,-1.40084169204759
0.640625,1.6577897025358301,-1.8605736899957759
0.64453125,-1.3217421147824857,-1.608700345444925
0.6484375,1.26467475947491,2.6311587376568966
0.65234375,-0.2339303720506341,-1.2906182921108118
0.65625,0.9103158993782298,-0.7023699374607365
0.66015625,-0.6602934855895995,0.1171151437801767
0.6640625,-1.5861421002827587,-0.9945572538971358
0.66796875,1.2892345784110055,0.6640040097453606
0.671875,1.1477956978293782,-1.2240499725814171
0.67578125,-1.754524136661101,-0.47665495490224224
0.6796875,1.1641813105815726,-0.08901190014545786
0.68359375,-1.665608928686326,-1.0690096419397104
0.6875,0.603142492373984,0.004490011023526571
0.69140625,1.1650606273744741,-0.28392562202185584
0.6953125,-1.7545292090598608,-0.3402485141270079
0.69921875,-0.009574484885486388,1.0727085943748058
0.703125,-0.13233058480658427,-2.1345689991827275
0.70703125,-0.21067436345250343,-0.23054505413149023
0.7109375,-1.3285428966023756,0.0015459157423837896
0.71484375,-0.618016803337919,1.175100100167348
0.71875,-1.5668164228034682,0.11291878231722231
0.72265625,1.7044498338914418,0.19234703063628739
0.7265625,-0.38899466615223294,0.4164710863240236
0.73046875,0.7668496091113061,1.3336247984605614
0.734375,1.4441347662171662,0.49889612350033574
0.73828125,-0.12932674772975689,0.3390678205031013
0.7421875,0.1873874202116707,-0.987769890560222
0.74609375,1.7513782558823092,1.9462254788163524
0.75,0.5612112711318734,2.2494181190363403
0.75390625,-1.3041578848308075,-0.7125091674165347
0.7578125,-0.6573111242522873,0.9305886728895184
0.76171875,-1.584849464659163,0.08460914249341439
0.765625,-0.8705875946219493,1.4947192149826671
0.76953125,-0.9247069605369376,1.6329179096406432
0.7734375,-0.07755241114497995,0.2557264237140963
0.77734375,-0.7645983089272811,0.22035374366965912
0.78125,0.1843931627793431,-0.23514684281502787
0.78515625,0.8749076646715012,0.7789381015139437
0.7890625,0.201927540950609,-1.4527027766553635
0.79296875,-0.3013296067252413,-1.2478503322192807
0.796875,-0.8469694020364821,0.8997138791142546
0.80078125,-0.7753153255668652,-1.5877037445647548
0.8046875,0.6117859717525412,0.21125855439158425
0.80859375,-1.053530364383752,0.2622197623855266
0.8125,2.3412241355131016,-0.5852919138562859
0.81640625,0.08768218745794534,-0.1581482192961689
0.8203125,-0.06147039048188036,-0.9700293992337136
0.82421875,0.48581095081177034,0.7700869724486848
0.828125,-1.900548398180962,0.338681059107632
0.83203125,-0.6620764402954303,1.554745137037199
0.8359375,-0.13865151855329644,0.6351784306266166
0.83984375,-0.1414452210556132,-0.9866410894996605
0.84375,-0.8935323571822975,-0.5619076542174495
0.84765625,-1.4487311429722414,-0.2237645082272586
0.8515625,-1.0902466020999362,0.9961420227821101
0.85546875,1.3264089919394615,-0.9775058965875038
0.859375,0.36050459102730764,1.4648728238293156
0.86328125,-0.825516201075745,0.345564843608962
0.8671875,-0.3078191762444317,-1.2871465151299095
0.87109375,1.6750413319976842,0.01687301500088347
0.875,1.3226719985705726,-0.35238929404186914
0.87890625,0.0911213241729683,-1.1553799737734756
0.8828125,0.1793526749158923,1.4021015997456843
0.88671875,0.2395205068810401,1.6806600679627197
0.890625,0.10162708444729691,-2.633328384702022
0.89453125,-0.10910638492382095,-2.215317436506691
0.8984375,-1.2595420660782128,-0.6599057302348555
0.90234375,0.5062862309683427,0.7455964058810408
0.90625,0.20850748297429625,0.5426443672245022
0.91015625,2.0142072178757773,-0.8257790171343194
0.9140625,-0.7474679391663351,-1.540829908699604
0.91796875,0.07708116720460031,-0.664163860586908
0.921875,-0.07853695582023212,2.3789658784105425
0.92578125,-1.2920720008072835,1.12553004355765
0.9296875,0.11948943804722413,-0.05638599591157553
0.93359375,0.4905070568403003,0.4401262533021656
0.9375,0.04814394332083869,0.468719480963791
0.94140625,-1.0269453816810385,-1.5350295841631068
0.9453125,0.7253206419999798,1.4743029191249621
0.94921875,0.18138351239808784,-0.8988884405495482
0.953125,-0.4372585512558005,0.2048715704536019
0.95703125,-0.5256536457370323,0.9507343863941096
0.9609375,-0.7642146105368081,0.029806175505506308
0.96484375,0.8808647578658837,-0.6192654790449487
0.96875,1.481520221707468,1.1510435232610272
0.97265625,-0.7644408733476259,0.07955058320374785
0.9765625,0.02759488543428878,0.46295459188968524
0.98046875,0.8545587794629822,-0.8049451933110577
0.984375,0.8807900393619879,-0.15497789139366477
0.98828125,-1.0035103354509356,0.6638911661274789
0.9921875,-2.3646796184926426,-0.001390178204720098
0.99609375,-0.4734250756731543,1.6772368684420011
1.0,-1.8375482052655392,0.6854649214202369
1.00390625,-0.13242878403960107,-0.7451726816955065
1.0078125,0.3820465363271914,-0.7929642520977443
1.01171875,1.5568386930667701,0.0367682628103106
1.015625,-1.3288479522017982,0.47033785376241183
1.01953125,-0.48062694321525423,0.01646474924044875
1.0234375,-0.33245213507191435,-1.2259882349522926
1.02734375,0.13328743740551086,1.022778408097627
1.03125,0.4891152365481301,0.8186665758521022
1.03515625,-0.9914043483785476,0.39577014129273885
1.0390625,-0.26700368109860917,0.6990357673999175
1.04296875,-1.4331622300004294,1.091747857495706
1.046875,-1.9346902803579695,-0.1182848546460583
1.05078125,0.407525253211741,0.23065110087558358
1.0546875,-0.11889768108558971,-1.0942392194132886
1.05859375,0.03495317635490776,-0.49112747536846457
1.0625,0.6818376872267693,-1.210710417403207
1.06640625,0.6023697024672416,-1.2945303089850313
1.0703125,-0.04898928427394429,0.8592255355033347
1.07421875,1.7101710199777858,1.5429909491322917
1.078125,0.5175154613522551,-1.614494727844417
1.08203125,-1.2378046417861812,-0.08036007943922234
1.0859375,1.6827865212314774,-1.0936804936555167
1.08984375,-0.6150247253084044,0.9898691218014181
1.09375,-0.016631650547638824,1.6151503073768985
1.09765625,1.249148050404948,-0.9333237824884312
1.1015625,-0.5577610896553564,0.2665043651020722
1.10546875,0.24574996676670188,-1.032635121596349
1.109375,-0.03973695984154299,0.08159405827862978
1.11328125,1.9430758733292512,-0.10725124498816516
1.1171875,-0.3006026051773405,-1.431067319392103
1.12109375,-0.694201657424979,-1.5532770813532857
1.125,-0.7701414700700667,1.2443223390260931
1.12890625,-0.948396751097861,-0.4245222149951957
1.1328125,0.5972953189462489,-0.8049454709148873
1.13671875,0.5550328330615544,1.1470341008003975
1.140625,0.6658118954226817,-0.3593117212902465
1.14453125,1.2217545660473,0.416090494283844
1.1484375,-2.8386228416721457,-0.05411047722855013
1.15234375,1.0005606404188923,-0.8105813944919996
1.15625,-1.1425040413014003,-0.7440042435516327
1.16015625,0.8804713644033368,-1.4619297568304337
1.1640625,0.16680297309704198,-0.4035845849366564
1.16796875,-1.1947095668063485,2.6192712591443534
1.171875,0.42807438186562197,-0.5715569536365706
1.17578125,0.06038375377632771,-2.1794710523867207
1.1796875,-0.09673100030326542,0.5866669384892889
1.18359375,-0.9295045854678538,0.4084783093380499
1.1875,-0.11961603935539332,1.2055529586116578
1.19140625,1.741344518431082,-0.18381429526700652
1.1953125,0.8875152363098205,-0.4980010029104064
1.19921875,0.22171938724302523,0.024864558129112396
1.203125,0.5339879951078128,0.3364456186751761
1.20703125,-0.6093123039933703,1.8100530815688067
1.2109375,-0.4987593523144203,0.21655951219790776
1.21484375,-0.28625765313296314,-0.09236264128303828
1.21875,-1.0322829591950289,-1.075186077243055
1.22265625,0.5424034151664787,-2.17878561349904
1.2265625,-1.2709229595491054,0.27014813825478123
1.23046875,-0.5805492244312106,0.684255617768002
1.234375,-0.16382858062521105,-0.16368491915934552
1.23828125,1.9114395546738752,1.6858626212430685
1.2421875,-0.5975426803678681,0.12356980278149261
1.24609375,-0.5231690261167109,0.6734926589820639
1.25,-0.3045683022577122,0.8646192323343073
1.25390625,2.4678952631347446,-0.3111358478981404
1.2578125,-0.695470234340326,0.19083147328743014
1.26171875,0.9079146609898784,0.5623165867431887
1.265625,0.5611189879758436,-0.4490803966103956
1.26953125,-0.4057042247950897,-0.5339589844017123
1.2734375,-0.9387505356639991,0.9388603414075842
1.27734375,0.0210009299407149,-0.3770716766235215
1.28125,-0.11977720842570111,-1.1593338472040398
1.28515625,0.4475102585566122,0.15591163167985123
1.2890625,2.6876344243107586,-1.3975760765464469
1.29296875,-0.634319599841684,-2.278302739804742
1.296875,0.7793842477121403,-0.8734647201507564
1.30078125,0.2207259622569813,0.8352673091779655
1.3046875,0.8272642465181951,-0.43524614919512206
1.30859375,-0.5604752100289476,-0.4426115892425328
1.3125,-1.464331945399895,-1.2464364427270058
1.31640625,0.7515485205658277,-0.311157178064946
1.3203125,2.0007412174236645,-0.25232176609626283
1.32421875,-0.34880774645009976,0.2883698043684594
1.328125,0.674723026191873,-0.07389388811173787
1.33203125,1.1736320924179466,-0.9130531620951631
1.3359375,-0.6528848273671088,-0.10194378148425821
1.33984375,-0.7626812775800906,-0.08633590720236371
1.34375,-1.0342134688922606,-0.7907139715543308
1.34765625,0.5442748102007657,1.9550833313166889
1.3515625,1.2728145715780614,1.1833417863977853
1.35546875,1.0017774781972408,-0.6816089565950892
1.359375,1.5607508652506785,0.3466686917882023
1.36328125,-0.1664694262018286,-0.5737873181060957
1.3671875,-0.5085035356565837,-1.759692999605124
1.37109375,-0.7740102977864842,1.5204210505064784
1.375,0.18331105370177556,-0.38131865417267
1.37890625,-0.04937046274905425,0.6628811736591611
1.3828125,0.8377743502821849,-0.3358605482965358
1.38671875,2.328122746763571,-1.039881031442626
1.390625,-1.6513721190644797,-0.6176611759105213
1.39453125,1.8305999103090667,-0.2304703787269303
1.3984375,-0.6789467190342751,-0.8049571861109589
1.40234375,-0.15983934377096817,-0.029744650407885223
1.40625,-0.5971534324991379,1.1549884850173486
1.41015625,-0.86247299276012,-0.35599635278013425
1.4140625,-0.455734411758595,-0.18065716964832543
1.41796875,-0.27183480330972415,0.9076910503216779
1.421875,0.8052768230299274,-0.6545148264271645
1.42578125,-0.6387107393913398,-0.7735900632492428
1.4296875,2.428824163722208,0.28190184418245096
1.43359375,-1.2082603949478703,0.5248326800568495
1.4375,-1.9574047057465924,1.0331293658388145
1.44140625,0.48950792846800123,2.1441400356967417
1.4453125,0.46614632271884887,0.948539940904589
1.44921875,-0.5125915628063799,0.44999147821452795
1.453125,0.7253435216640267,2.076262727480947
1.45703125,1.7517172270401193,0.6981604478843271
1.4609375,-1.0775305193466835,1.3024267717947335
1.46484375,-0.5475688043198691,-0.056314063890133007
1.46875,0.546251200873232,2.0584078402016206
1.47265625,0.7877714440063706,-0.09634098950783124
1.4765625,-0.11522275130039275,0.2903992255087934
1.48046875,0.14981612458406518,1.2867712011427477
1.484375,-0.4925697604460286,-0.22921974706850082
1.48828125,0.417136191538916,0.09992230340930672
1.4921875,-0.7244810546444478,0.5433512817280511
1.49609375,0.6512697619550875,-1.3819836714335416
1.5,0.4922923540225765,-0.37443753156004705
1.50390625,-0.188902703073689,-0.203499208728314
1.5078125,1.780920555690267,-0.33020819715251765
1.51171875,-0.849742695489174,-0.729916603431524
1.515625,-1.8193783601155582,-2.3132464124711887
1.51953125,0.13761989817747247,0.1307047843690028
1.5234375,-0.04683241670261959,-0.9201357552159483
1.52734375,-0.39278662460632796,-0.4509003759734636
1.53125,1.3956504998361106,-0.35623295026113866
1.53515625,0.9004436786141545,-1.0568577811142639
1.5390625,2.0990626179956444,0.8627390720314003
1.54296875,-0.34938041004094655,-2.82668971632153
1.546875,-0.5389672193025437,1.5464884441357556
1.55078125,-0.6535578120686847,-0.022909105903798507
1.5546875,1.092375009880341,-1.3651291746898366
1.55859375,0.607060635679288,0.04177238826593641
1.5625,0.5053838296016256,-0.1405962608623411
1.56640625,-0.8001399435522758,-1.107337299484916
1.5703125,2.5410259627256284,0.5632725309687042
1.57421875,0.33741134237174303,0.3165938088927406
1.578125,-0.41811766943713446,1.1704873992079958
1.58203125,-0.1647436705184389,-0.4307464522065451
1.5859375,-0.7027484448876038,0.14580379357328307
1.58984375,0.06854364255985271,1.4350366095872948
1.59375,-0.26860227005380244,1.2021368818148408
1.59765625,1.1177449277405123,-0.31869757527430626
1.6015625,1.3359863686610283,-1.0284658567443619
1.60546875,1.0824163328548468,-2.254125075875741
1.609375,0.07434708629348945,0.07068266970728106
1.61328125,-1.1199179666607777,0.4694736925741004
1.6171875,-1.4297417335560256,-0.4772393585607157
1.62109375,1.0492517098438228,1.2038151721127242
1.625,0.3157493372118162,-1.3950186012272916
1.62890625,1.2960538307059446,0.06545960333278857
1.6328125,-1.5039264945589121,1.128907836956167
1.63671875,-0.02621708044504599,0.7194387657480764
1.640625,1.1127989975908552,-0.2404751158076118
1.64453125,-0.5464097325815902,1.0474555409868593
1.6484375,-0.6357665231135854,-0.22480367686050695
1.65234375,-1.5335179418896685,1.8024925495644477
1.65625,1.7524849913246705,0.663689912845997
1.66015625,-0.6760838382054555,0.33593595463335807
1.6640625,0.429921240732854,1.902429540364414
1.66796875,0.02205823575768343,2.1430071509375064
1.671875,1.451280231017591,-0.17312038659015783
1.67578125,-0.947141446270177,0.950994090973837
1.6796875,-1.091372670877141,0.26511949570304894
1.68359375,0.29286490527880155,-0.8625870656710938
1.6875,-1.341096368416582,1.061495597309419
1.69140625,0.4147067430210638,-0.3519840939717574
1.6953125,-0.4857474747882068,-2.1261120999866554
1.69921875,-0.38439119478530637,-0.6512914383799391
1.703125,-0.7831345295260451,-0.19731226534040622
1.70703125,-1.0968506334885304,-1.1013470535055838
1.7109375,0.8626277097504662,-1.0116705027048756
1.71484375,-1.0519605921038275,-0.6913875675689436
1.71875,-0.6199746306038683,0.4364697343442553
1.72265625,1.6275074000086702,-1.6990204292626894
1.7265625,-1.0352624300519453,0.02497801645171697
1.73046875,0.6177833933911462,-0.18836741033886656
1.734375,0.18933491025683172,0.04495245209078763
1.73828125,-0.9637832967737766,-0.7543291607745806
1.7421875,0.8079676339067099,0.5608598083481583
1.74609375,0.8995591505641778,0.9342508484450296
1.75,-0.1763690061582474,-1.2583455408113866
1.75390625,-0.45576235573267154,-0.17289083057074858
1.7578125,1.6278412720354765,-0.643194886178299
1.76171875,-1.3022871889634489,0.48147603366495173
1.765625,1.1159405442911816,-1.0542249352793462
1.76953125,-0.939191955610982,1.8530055377255816
1.7734375,0.6333088784745041,-1.1826501692439062
1.77734375,-1.6191895474284332,-1.098825682915135
1.78125,-1.5845106586683764,0.012035233612989383
1.78515625,0.800162046882101,0.12088737505529454
1.7890625,0.2325680536091643,-0.6128140393814537
1.79296875,1.497882663053883,0.31773661041162277
1.796875,-1.473730495364935,0.9098003292546444
1.80078125,-0.8067193725213332,-0.13451720948609844
1.8046875,1.3931813788978693,0.9355164350389139
1.80859375,0.35274548114861864,0.8589898100515745
1.8125,1.2435355417855372,1.3376360707704291
1.81640625,-2.457369911951399,0.7669334988898135
1.8203125,1.7632027491422317,0.7819227266281001
1.82421875,0.054234941107673955,-0.49661464745810596
1.828125,0.5489406098057169,0.1707330648329822
1.83203125,-0.752434435093427,0.6793062932860748
1.8359375,0.03842829904267368,0.3291317559553833
1.83984375,-1.1566082901268988,0.42859077616371904
1.84375,-0.2526875088126562,1.5273094063394004
1.84765625,1.27797461018307,1.1034517016774819
1.8515625,0.514148186064125,0.5115389128462792
1.85546875,-0.1794421121771475,-0.3764692939804629
1.859375,-0.6686429621553561,-0.06000650451703048
1.86328125,-0.721889048588286,0.436940281023862
1.8671875,0.6811802717251915,1.1697355686676685
1.87109375,-1.6526813208296829,-0.2917541741982575
1.875,-1.1301914585023456,-0.3068845416413468
1.87890625,-1.244138309818764,-2.1581256588672426
1.8828125,-1.9876413952318581,-0.48784164345488873
1.88671875,1.6444850837145129,-0.22865213994422312
1.890625,0.8762911618336184,-0.8799196004506966
1.89453125,1.6645646428703542,0.5583899702444913
1.8984375,0.21196702105044427,2.409858515019184
1.90234375,0.4986699219869529,-0.17276070539882182
1.90625,-0.025916846342227594,0.23836467315981297
1.91015625,-0.43025871340721233,-1.3117001118812168
1.9140625,0.4312788228271639,0.1755452162368616
1.91796875,-2.149899694842438,-0.07094382360843125
1.921875,-2.2885923051541295,-1.233057055246571
1.92578125,0.839110411468809,-0.40303388120909606
1.9296875,-0.44572843666464634,-0.2589509622311007
1.93359375,1.3582093537321795,-1.276491609956093
1.9375,-0.8235606713711436,-1.1434780160022677
1.94140625,-0.6348583400629286,-0.14835863605968932
1.9453125,-0.7979012749413431,-1.4153777702636297
1.94921875,0.18348925513542266,-0.9118788955526738
1.953125,-0.7716775161801471,0.2392637889937549
1.95703125,-0.37606171693389184,0.27504288414502887
1.9609375,-2.113057935386884,0.46910799361801647
1.96484375,-0.929511440858103,1.0921601890311452
1.96875,0.9790891977509756,0.49145327725246785
1.97265625,-1.734652336333298,-0.7707266805912558
1.9765625,0.16091995600568468,-0.40512360784082996
1.98046875,1.302514776707502,0.012199762072146613
1.984375,-0.3034554662174616,-1.1123151633113173
1.98828125,-1.5499010508431228,0.7377748564388836
1.9921875,1.0695648165389477,0.9394528287481018
1.99609375,-0.40679103591052473,0.9455170133632054
2.0,1.8836631533295385,0.06536729404110116
2.00390625,0.12873908772090212,0.3049797897006745
2.0078125,-0.08826486553149107,-0.07823317415377211
2.01171875,0.8912442648369078,0.9134212856441476
2.015625,-0.013016920086448261,0.43599214816329546
2.01953125,-1.0223048218342983,-1.0303364286807517
2.0234375,-0.6457692273805753,0.20789020031378438
2.02734375,-0.23912732445988302,1.5900958811699826
2.03125,0.8719523315551414,0.2963856408497109
2.03515625,-0.2722885611345387,1.5961858460610852
2.0390625,0.920493402518629,-0.3775474565523265
2.04296875,-0.9532614373800187,0.04687983346279861
2.046875,-0.1682365540706015,0.5712027327244066
2.05078125,0.03486291542891868,0.27926294170284977
2.0546875,-0.435714057553334,1.9696024471027085
2.05859375,0.2579017291114437,-1.4894369569317676
2.0625,-2.4277317071028857,-1.6581049311527432
2.06640625,0.8917711346150613,0.7560284268103867
2.0703125,0.05620589187380807,1.2463171510564583
2.07421875,-1.1937288483933108,-0.5397409259499443
2.078125,-0.10128213983615256,0.3713196436527865
2.08203125,0.0779572302040622,0.23526326382468948
2.0859375,-0.3787186341308719,-1.120732384814477
2.08984375,-0.7620931424670282,2.0729283997393404
2.09375,-1.0162119932461713,0.42548959460282665
2.09765625,-0.7474734072935341,-0.8204491203785319
2.1015625,1.2628831405078993,0.4131478879202361
2.10546875,2.4744470382978445,-0.7728854910188204
2.109375,-2.6242983894264267,-0.0190360596468286
2.11328125,-0.994288001753212,-0.3996741443516522
2.1171875,-0.72128880253425,-1.4891348210055098
2.12109375,-0.21772130332631615,-0.9992909464514038
2.125,0.17475589224558102,0.19082768231641212
2.12890625,1.579796352775231,1.0583138674051986
2.1328125,0.46491284878632133,-0.16370901322588394
2.13671875,0.966557623136523,-0.7280953401920206
2.140625,1.6571286888139052,1.505132499675512
2.14453125,-0.7497628804608748,0.9784982783686024
2.1484375,-0.6399076235241445,-1.049664636561133
2.15234375,-0.594063321801455,-1.4120226276001935
2.15625,0.8380575821613437,-0.16380818262470004
2.16015625,1.1059319522232958,-0.002924796087693284
2.1640625,-1.1007409959318726,-0.2788838413616735
2.16796875,1.3181557458286124,-0.2407907159221519
2.171875,-0.7144126498857737,-0.8861412566214394
2.17578125,-1.7982361057532326,0.675489879077578
2.1796875,2.60684267921107,0.5387725704466746
2.18359375,0.013977730096181258,0.19716548967219896
2.1875,-0.11295096280113139,1.74327840479653
2.19140625,0.5053805107115594,0.8433761258413514
2.1953125,-1.2700021936418655,0.4271280328236827
2.19921875,0.7319060214579081,0.40972304577231133
2.203125,0.24528034764704712,-1.228872026402102
2.20703125,-0.195398779297067,1.2023586636190293
2.2109375,-0.3805598459114,-0.21304242129682524
2.21484375,0.7699533176332283,0.14943601414901322
2.21875,-1.1008795100303377,-0.4821668137328887
2.22265625,0.09264838345765035,0.8951880227685584
2.2265625,-0.5619079108572443,0.3977346858842996
2.23046875,0.09399547386918222,0.505567720593921
2.234375,-1.3743317426491204,0.8600666198851034
2.23828125,1.7137959381811068,0.24348094081641639
2.2421875,-0.6626096963407909,-0.30085549512577614
2.24609375,-0.7704976296259991,1.315678249611514
2.25,-2.0620938228617023,-0.11019949057932786
2.25390625,-0.5478764006215835,-0.727138634294284
2.2578125,-0.21627382701821893,1.2975832252900212
2.26171875,-0.34636631822636493,0.21819468813437679
2.265625,-1.1902367580619604,-0.5652738041188062
2.26953125,0.444048380343853,0.8918770468024606
2.2734375,0.5937641975124682,-0.6115050583096177
2.27734375,0.40972379848353163,0.6306295184041985
2.28125,1.2629191797166883,0.1447278368736799
2.28515625,0.34700814410790476,2.060722523173046
2.2890625,0.599516778412074,-0.16812062923620846
2.29296875,-1.4579169329080868,1.4779705139707373
2.296875,-0.5491060238381337,0.8833312050718644
2.30078125,0.8443396548596955,1.302342171600585
2.3046875,1.1835333916961417,-1.93002315596451
2.30859375,0.18887325096837185,0.8188493621253108
2.3125,0.6513165901249861,-1.2141417570674558
2.31640625,2.650325049042841,-0.5452505396109106
2.3203125,0.14305288996089013,-0.14820591913571413
2.32421875,0.28465461688306193,0.6209901116053536
2.328125,0.7056013392887585,1.1391645279523799
2.33203125,-0.3157849718600304,0.3775472106692072
2.3359375,-0.43185108365672775,0.4804495435514067
2.33984375,-0.07491136397815003,-0.1976709071013047
2.34375,-0.6373664520998388,1.0585760635080081
2.34765625,0.7049088371393997,-0.3920872893306486
2.3515625,-0.9749181785258718,0.5056630561358612
2.35546875,-1.3739340499167847,0.034946717125358816
2.359375,0.7212851886533259,-0.7961921852056575
2.36328125,-1.4367390870069336,-1.0272694202101746
2.3671875,-1.2110841428664856,0.4019384955223883
2.37109375,0.25197475311447015,-0.21656698096574334
2.375,3.083118474623411,-0.3508286646634769
2.37890625,-0.7915481852825622,1.1559235069141236
2.3828125,-0.19944632206933088,0.5754592339808202
2.38671875,-0.9783988198495581,-0.26321537894728686
2.390625,0.3958196627906111,1.3608465814789665
2.39453125,0.21510667521934534,0.5584210726188503
2.3984375,1.970592251300518,-1.1463044646609077
2.40234375,1.5360032594536779,0.3572276016822859
2.40625,1.6280761358804077,0.007738764889600749
2.41015625,-0.24198903774443214,-0.43439600367905584
2.4140625,-1.3772543270293762,0.8058749881894353
2.41796875,-0.05273469250098936,-0.593068768693554
2.421875,-0.889569543230307,-0.2167568958254601
2.42578125,0.2508899073474954,1.1127664918905604
2.4296875,-0.5825520556394214,0.9303755855603878
2.43359375,1.4508317941268212,0.03166208261441979
2.4375,-1.0594623482213545,-0.2237014179577727
2.44140625,-1.141478816814088,-0.632678028522133
2.4453125,1.8788751391907395,0.5142223620367943
2.44921875,-0.45163988105689373,0.9057013860960915
2.453125,-0.8900257829240025,-0.39173490324388344
2.45703125,1.0607904814545064,0.6082424547109558
2.4609375,0.17259389367771932,0.9497235510531055
2.46484375,0.13976148062763954,-0.008081397275794043
2.46875,0.9499628360482498,0.5703853007812962
2.47265625,-0.09008675143805735,1.305572142338512
2.4765625,-1.2064163370698546,0.17341825733528496
2.48046875,0.6164651602242751,-0.2939841518923365
2.484375,0.4345720678106596,0.2898002768906534
2.48828125,0.10286015419431985,-0.5987481559775987
2.4921875,-1.113934229463235,1.555091300263017
2.49609375,-1.4615093917948356,1.5245258551237668
2.5,-2.12770963268526,-1.0497738180041885
2.50390625,0.6006510950904415,1.9062142724388345
2.5078125,-2.0298579525611595,1.9888576416464354
2.51171875,0.035157204867547566,-1.8432083714415168
2.515625,1.1679291419154108,-1.2377130590239858
2.51953125,-1.5609669537531445,-0.613838203420519
2.5234375,0.3684604247389981,-0.07060382687599312
2.52734375,-0.4649558885004663,-0.43997052561590455
2.53125,0.1443385952617347,1.899334777727796
2.53515625,-1.7575438797752356,-0.8177213844792303
2.5390625,1.0712077747770619,1.2006195683604703
2.54296875,-0.8595025151053528,-0.6058167604236339
2.546875,0.19328222224750008,-0.46502241465405786
2.55078125,1.0397017943468219,-0.20916180868384648
2.5546875,1.5180458137137296,-0.12573306928135033
2.55859375,1.2263758911580767,1.1176968844121467
2.5625,-1.8336131728639031,-1.6467819230821463
2.56640625,0.4221101228344094,-0.24891903924126985
2.5703125,0.8401896464853845,0.24775742715214333
2.57421875,0.8033404559359709,-0.08363626934349261
2.578125,0.4592464853290278,0.7316422852619913
2.58203125,-1.7123652105768072,0.21271774471018917
2.5859375,-1.2492272271224518,1.4024056832655876
2.58984375,0.7006047124204323,0.2950993892908244
2.59375,0.6327609993800085,-0.8503575138290034
2.59765625,-0.9512213809587917,-0.3075058161447289
2.6015625,-1.6796445130593394,0.7540573671773847
2.60546875,1.982900505238146,1.0768777558345324
2.609375,-1.0403724121671156,0.46565321356268197
2.61328125,0.6130771025134003,-0.5240009222661418
2.6171875,0.3019641758367431,1.8148491879865616
2.62109375,0.7677714250482292,-0.7061367285811117
2.625,-1.2576919102123973,0.10868169483409015
2.62890625,-0.05484007117992539,-0.49274229568286154
2.6328125,1.4385032846512154,-1.6499590779137379
2.63671875,2.3230684066190967,0.7720569656571029
2.640625,-0.6002932491341724,2.05638741940674
2.64453125,-0.577819485712482,-0.524721341588633
2.6484375,0.027605459271300894,1.0285144143345715
2.65234375,0.18708326842686074,-0.527524077817516
2.65625,-0.21166354927553213,0.7226956593063654
2.66015625,0.09421635985365244,1.245634847674619
2.6640625,-0.1989958529509682,1.2090356283557562
2.66796875,1.3616769418633035,-0.2434942375250167
2.671875,-0.8474378001853575,-0.2038357594507953
2.67578125,0.27074893386686827,-0.8719710810732838
2.6796875,0.33488695785640205,1.1285860103457894
2.68359375,-0.8059721248901671,-0.6230438513660005
2.6875,-1.1025412812443018,2.0779472089229207
2.69140625,-0.4371379549062813,0.11737130530496807
2.6953125,-1.4392596735959464,0.7176360352090966
2.69921875,-0.5605459251515129,-1.0270199601900694
2.703125,1.0952156983067063,0.2450132254867164
2.70703125,0.09464127838517697,-0.4576514593769273
2.7109375,2.502305704502599,0.9811183583834099
2.71484375,0.4950153656606847,2.5618933303674605
2.71875,-0.43192596998899974,-1.8548799234228477
2.72265625,0.9847029282282592,0.9895140871579852
2.7265625,1.0194156601364066,-1.118052439591783
2.73046875,0.5308072903668768,1.2239173719176024
2.734375,0.9900418355255297,-0.32756610858490365
2.73828125,1.6511592829286597,0.12003558412873841
2.7421875,0.2756108491350469,-1.1194622526689708
2.74609375,0.11473386005261867,-1.501813294546898
2.75,1.63955810159429,0.5525772917229329
2.75390625,0.30174413185312104,-0.376773886863165
2.7578125,0.511362136269304,-0.48006044938603293
2.76171875,1.520207423696238,0.8100247337298303
2.765625,-1.553394681763184,-1.347975036053673
2.76953125,-0.7841063989932303,0.5660841850683063
2.7734375,1.5756389450528607,1.3214316234993049
2.77734375,0.6378381621594581,1.6842668324386485
2.78125,-0.1681744410349952,2.3982646883349443
2.78515625,0.13979180068063746,-2.123799797901911
2.7890625,-0.7805879771902935,0.5325069544143343
2.79296875,-0.958550075528305,-0.6427822150197897
2.796875,1.3044509189294227,1.1872174165391058
2.80078125,0.486083974660704,0.590067066312396
2.8046875,0.7254555278439702,-0.013179530789837822
2.80859375,-0.30413573483224454,0.4775979497622869
2.8125,0.2957559921584639,-0.13380169365757472
2.81640625,-0.27095714283758676,-1.2750562194026314
2.8203125,0.5795000097523745,1.360639683303822
2.82421875,0.40392866235346436,0.12255396147791982
2.828125,1.5946041047951345,-1.5721511846903966
2.83203125,0.35004070661170156,0.42483571843378276
2.8359375,-0.8183249689478983,0.46480475570289137
2.83984375,0.39855369379452876,0.2590883232289575
2.84375,0.6290533368132415,0.8725124586560012
2.84765625,-0.5897667334084442,-0.035624919223126834
2.8515625,0.8210331544323229,-0.4913044633547511
2.85546875,-0.8961641307382604,-0.115905891653629
2.859375,-1.5118634556043566,0.22697051721874942
2.86328125,-0.5625170275531477,-1.3575414041158933
2.8671875,0.3412031781559579,0.5300365604027261
2.87109375,1.6541766387912114,-0.2838682475048208
2.875,0.13754794894931469,0.1418181457571099
2.87890625,-0.02260024637881469,0.25004939569124984
2.8828125,1.149883385525853,-0.2249538436691311
2.88671875,0.5824511943368563,-0.047203839632083286
2.890625,0.4674044296576677,0.19699981306712538
2.89453125,-0.48474788640786964,-0.07284323008384357
2.8984375,0.5840202252808798,1.230482270996445
2.90234375,-0.30696626116309417,-0.01784083012182679
2.90625,0.08448788487620582,-0.6195846288530821
2.91015625,-0.04390778804251639,1.4894488232897558
2.9140625,-0.13219384613100707,-0.3539064338496286
2.91796875,-1.08048974882847,-0.08727019528328032
2.921875,-0.3227067990627532,0.29386681643257306
2.92578125,-1.7407018996163803,0.3876353209909215
2.9296875,-1.322984447645221,0.5152965137911392
2.93359375,-0.1152110396088251,-1.107520967423323
2.9375,-2.430452159825076,-0.06314667826222471
2.94140625,0.7394389927536588,-1.533557131045399
2.9453125,0.7685386887609021,-0.6154885813608386
2.94921875,-1.0442279297832093,0.36098032913282263
2.953125,-1.0560122816109907,-1.880350691624321
2.95703125,0.20574719318908866,-0.6634422697949728
2.9609375,0.008986326239363011,-1.226065372648685
2.96484375,-1.1312006800592553,1.4565682561582889
2.96875,-2.6889589925018305,-0.02449394965696128
2.97265625,-0.8310173068709514,0.2227401793628149
2.9765625,1.5953905383733575,0.3275060090255425
2.98046875,1.1630399325021779,1.116434369416631
2.984375,-0.5541848744546072,1.6040227118358747
2.98828125,2.0439969459379483,0.3002458790288977
2.9921875,-0.0940580596545452,-0.4036512320325849
2.99609375,0.1170891089263316,1.3127597926075636
3.0,-0.8539340993405605,-0.030330571540339264
3.00390625,1.4079684272216537,-0.7963667603127197
3.0078125,-0.05807316429988966,-0.06420244684049482
3.01171875,0.5928522150733405,0.5767120289221949
3.015625,-0.8139562194567141,0.9908576062458162
3.01953125,0.25073419129738916,0.844894074936795
3.0234375,1.3937367176473738,-0.14604026322173996
3.02734375,0.2933062269553916,-0.14069823417090355
3.03125,1.0695501256586346,-0.5658537860280987
3.03515625,-0.14169818592216107,0.06594589287296253
3.0390625,0.21734206388413235,-0.9905242779402349
3.04296875,-0.35138096946485115,0.950157085741106
3.046875,1.408914732070103,0.8743411435694864
3.05078125,-0.24005481510073634,0.735861634579912
3.0546875,-1.217096192596585,-0.994004851640447
3.05859375,-0.025823415796287802,-0.824205885333452
3.0625,-0.9455962337931082,1.2525563612011434
3.06640625,0.037612566494249565,0.29544024346786185
3.0703125,-0.02993786907770899,-0.39365222411549006
3.07421875,0.990211445908443,-1.668975735210774
3.078125,-1.3799005355557232,0.4388006685342236
3.08203125,-0.8703175823615646,0.25065419325237204
3.0859375,-0.26275260603771805,-0.8429375451747838
3.08984375,1.6414036329434276,-0.7619654310625353
3.09375,1.1086134670703052,-0.436015090721062
3.09765625,0.7790861659137783,-0.5204944227670049
3.1015625,-2.0283003820627123,1.332814996278941
3.10546875,0.26892115449067916,-0.09466485400854456
3.109375,0.25997239035152125,1.0014751242655897
3.11328125,-0.28667526672460564,0.2123812108394663
3.1171875,0.0861764774461036,1.0554953837204706
3.12109375,-0.28150039293167756,0.6428780769204242
3.125,-0.8535545060325185,0.5292809861817134
3.12890625,0.07473572367717404,1.1254118474091677
3.1328125,-0.028747601634557553,-0.8513576909657959
3.13671875,0.7994005103670527,-0.21832851713802306
3.140625,-0.10878045242677419,0.36313034224079416
3.14453125,-1.3133243347359174,0.2777728169197051
3.1484375,-0.14839229963229408,1.1589260478455234
3.15234375,1.2372815446158634,2.7283448526290273
3.15625,-0.500602651253511,0.7577000366940722
3.16015625,-2.6529703298204454,0.20507004689542194
3.1640625,-0.15951998025428984,-0.15647612480221262
3.16796875,0.2699096976284865,0.13583382237440303
3.171875,0.7301045074182083,-0.9929870951408643
3.17578125,0.9286769690948439,1.8292297582625912
3.1796875,-0.436578020437654,-0.522956094573295
3.18359375,0.17862418060394,0.2801383465941419
3.1875,2.373372286258402,1.1876921028029606
3.19140625,0.9267805185647277,-0.20242197806566248
3.1953125,-0.12276453172108673,1.6352244249580838
3.19921875,-0.24164400123645174,-0.019102169460319576
3.203125,3.0837906566765927,0.19253414546884032
3.20703125,-0.8783347260437203,1.9267154949411935
3.2109375,1.6671583643771168,-0.7853514893757741
3.21484375,0.373371593122849,0.181700153614551
3.21875,1.48507262172539,1.7628997395584507
3.22265625,-1.2760489041449716,0.5787535722764134
3.2265625,1.0978401863023985,-0.6270533022666634
3.23046875,-0.7956524371055108,0.11563952871432667
3.234375,-0.18547070060997456,0.3205067940422514
3.23828125,-2.138856167842382,-0.4529674723322787
3.2421875,-0.9112202270413409,-1.3336876631488204
3.24609375,1.4060779181519774,-1.5160460771130393
3.25,-0.2986394895805636,0.12601058855287442
3.25390625,-1.8748964457394426,1.2300677864579788
3.2578125,1.8858132410388637,1.6834523024815813
3.26171875,-0.9289750454255676,0.46857422826569145
3.265625,0.1336419103322577,0.27360859088959016
3.26953125,0.7887466021789538,-0.7918615390861059
3.2734375,-0.2835834591318477,-1.1914245050135683
3.27734375,-0.10854196299324095,0.21909869878957253
3.28125,-0.04772277714256862,2.0362420948292996
3.28515625,0.9668076089657386,0.34710612037209154
3.2890625,0.5503414869649795,-1.5978730316901655
3.29296875,1.4347168162127861,0.8123270818850871
3.296875,1.73807948260461,1.008416731265889
3.30078125,0.6071860131243453,-0.6083016129491906
3.3046875,-0.8359379876876928,0.15891019137507348
3.30859375,-0.33538192584754817,0.04889368359546801
3.3125,-0.7842840303433342,1.4968140969052035
3.31640625,-1.1459910582454318,0.33819356355726
3.3203125,-0.07821692404628236,-1.0547400191434018
3.32421875,-0.09169210879187889,-0.8133587136505719
3.328125,0.4786220825026574,-0.7168681509815643
3.33203125,-0.20819189663188453,-0.44066269810639663
3.3359375,-2.126472951909179,-1.0877192253291113
3.33984375,-0.16376288594257046,0.8705349775331608
3.34375,0.36123817351163695,0.4487445586192636
3.34765625,0.1412632670874522,0.0832986485874484
3.3515625,-2.0686077069234146,-0.5955677145612912
3.35546875,-1.0215035339833665,0.5544132599392716
3.359375,0.2899648101366471,1.5089623985431124
3.36328125,0.8916444172598673,-0.4345763320716851
3.3671875,-0.2971812226051088,0.02701408731393876
3.37109375,-0.41249416519332727,0.39244967717256457
3.375,-0.0045142480440512845,-0.5546597884321609
3.37890625,0.2057927690791496,0.9383130144254772
3.3828125,0.025258483276299946,-0.08369731727554301
3.38671875,-1.3024498961418554,-1.7632541926520064
3.390625,-0.6152407869449841,-0.1512534447121255
3.39453125,-1.0497679235114585,0.4022169889661366
3.3984375,-1.1848648486078388,0.3083485748937407
3.40234375,0.09096175174810467,-1.4697294601434285
3.40625,-0.22676397154576208,0.10862889445761771
3.41015625,-1.362071793997202,1.2380957392851424
3.4140625,-1.709404289924712,0.4397371698180717
3.41796875,0.23397094381588177,-0.8546920419709204
3.421875,-0.37015902948951124,-1.2799615612779134
3.42578125,0.7902575290391998,-0.7928704689080756
3.4296875,-0.47735227256721735,-1.4510076291768166
3.43359375,1.1038860709160625,-1.3366323356485392
3.4375,0.23562217606436323,1.6021243669957699
3.44140625,1.423606372865277,-0.34874061516577937
3.4453125,-0.2865456974377283,-1.0908670360711379
3.44921875,0.10375587479390053,-0.8758952242513317
3.453125,1.031087067222054,1.0198511977960265
3.45703125,-0.5278720100897393,0.24586915403909718
3.4609375,-1.0755362233540693,-0.42924618060475433
3.46484375,-0.3880208604650501,0.7168244537855596
3.46875,0.43109357090720135,-0.39744841839616735
3.47265625,0.26154286570009183,-1.1671902207445068
3.4765625,-0.9103396025870949,-0.5603227258193886
3.48046875,-0.1529865506968578,-1.7608101835660182
3.484375,-0.10302476841700808,0.9420903766219865
3.48828125,-0.7435078167992109,-1.4179664937851824
3.4921875,-0.5839840758098307,-1.5771127067762176
3.49609375,-0.6433744564674513,-0.542656248460627
3.5,0.4364114356264897,0.2171914797307658
3.50390625,0.11282243535677179,1.243517911054592
3.5078125,0.614861819667078,-0.24222263036272895
3.51171875,1.1945016961138364,0.5343160515230106
3.515625,0.01311540020125005,0.024770351234533642
3.51953125,-0.23552192911569478,-1.4618840566224542
3.5234375,-1.7013103104350242,-0.8847334193414813
3.52734375,-0.18583637411340265,-1.386875237059711
3.53125,-1.2281253872261935,-1.1778959384121106
3.53515625,1.3237785998672975,0.09519868453389906
3.5390625,-0.05358213227249781,-0.5948011669049443
3.54296875,0.23098652753937873,1.6725756604316533
3.546875,0.030096480763538203,-0.3264797600890825
3.55078125,-1.061768936118111,0.2662681698666278
3.5546875,-0.9643380988341825,-0.8787803553251168
3.55859375,0.5211778251865782,0.25196633021922793
3.5625,0.6641467951213573,0.3828153551093149
3.56640625,0.09775690200277908,0.19152038514787773
3.5703125,-0.48291401336334333,-1.2554875326893098
3.57421875,-0.12449057518134017,0.39933100217586937
3.578125,2.3489907238762444,-2.196844772764594
3.58203125,-1.2481185727295483,1.6579448785468995
3.5859375,0.924301769761753,-0.15606808309295173
3.58984375,1.5902351585722179,-0.06066287527101805
3.59375,-1.4013399411236702,2.174015592115922
3.59765625,0.1865935302528267,-0.27426625728067777
3.6015625,0.9040009112893174,0.2213835403177786
3.60546875,-0.33504018659171614,-1.0877909649424387
3.609375,-0.8181694018759565,0.6306493802159043
3.61328125,0.11558002232396135,-1.0192167966134167
3.6171875,-2.730879836004734,-0.7730481622022402
3.62109375,1.7456016229392495,-1.1453494765699903
3.625,0.6432661906010704,-0.021803383300820444
3.62890625,0.476999174929513,0.3176836018555858
3.6328125,-0.12585379600133975,0.46945492656356536
3.63671875,0.39404795913350804,0.005228088532570778
3.640625,1.0272028117143686,0.9228177910365337
3.64453125,-1.1777549630565236,1.6757618578867737
3.6484375,0.23259951513132995,0.7091702969813481
3.65234375,-0.3019419186887358,0.4597197559298234
3.65625,0.517924402669388,-0.8975159017187935
3.66015625,-0.435502058141442,-1.1209050474231133
3.6640625,-0.23855747076551662,1.7024851628636792
3.66796875,-0.7177203904404115,0.38015948787786363
3.671875,-0.2022012435888097,0.5787098955512064
3.67578125,0.6680929207305076,-0.3763601465566166
3.6796875,-0.6023770319989933,0.6273866399913751
3.68359375,0.6644625687289782,0.12994340052212985
3.6875,1.2775650647010226,1.152757241332056
3.69140625,1.0345459974569218,0.6296899933898116
3.6953125,-1.7061436658151157,-0.555610475961979
3.69921875,0.1454986159041738,0.48980174295640655
3.703125,-2.0630899962787836,-0.38302529904451615
3.70703125,1.0571494065666347,-0.04763211198920983
3.7109375,-1.05311716385769,-0.6882578777220045
3.71484375,-0.40290125576481217,1.0559078878638826
3.71875,-1.6121121715340232,0.8318619986735368
3.72265625,0.8174288597787805,-0.6983720051343801
3.7265625,0.32575819581326654,-0.5555140827236036
3.73046875,0.008630874842846687,-0.5615693381194492
3.734375,-0.10365862972309568,-1.9923913940429638
3.73828125,2.1107847406559843,0.14799688479527834
3.7421875,0.5021390900264531,-0.7231982341369847
3.74609375,-1.9160518929495653,0.07708002705942073
3.75,1.7744618928615212,-0.791036592006801
3.75390625,-1.4956713383216906,1.3438673148397562
3.7578125,0.9222742042887611,-0.22118375344175625
3.76171875,-0.15829255142864834,-1.2758060704418075
3.765625,0.5371310688411365,0.5614322971062607
3.76953125,-0.5752665631882287,-0.48311372988899737
3.7734375,0.9318250574244249,1.9846823880921867
3.77734375,-0.0667061981589575,0.874567029243918
3.78125,0.5375538495433567,-2.8361963868032904
3.78515625,-0.5891553663097892,-0.3925799724758249
3.7890625,1.5937327173120976,-0.91620109475994
3.79296875,-2.0041156206015156,-1.4872008352364556
3.796875,-0.012399608429139904,-1.0083163552062946
3.80078125,-0.30046842682899944,0.9974845166207229
3.8046875,-0.3371873504265187,0.33571458920706965
3.80859375,-0.8263269538522834,-0.6614501273320692
3.8125,-0.042317442205029296,-0.8817790511299923
3.81640625,0.6445154911840205,0.1720192574019778
3.8203125,1.1471142091844173,0.6270240886286617
3.82421875,-0.3118538525798466,-1.047184780574505
3.828125,-0.3471085444040928,-0.24724329939376813
3.83203125,0.2892812370280921,0.43046337445911614
3.8359375,0.27218206666284056,-0.8781089969860701
3.83984375,-0.5262631771442937,-0.7993447701188802
3.84375,2.1392506262985695,-0.6139384485636742
3.84765625,-1.0514688415712492,-1.7677643034977588
3.8515625,-0.6072179966836068,-0.7352806988825692
3.85546875,-0.8729941122215216,0.712737527082517
3.859375,0.848683823097928,-2.3654783215686
3.86328125,1.752433961110735,-0.3456772448008744
3.8671875,1.1875165293430041,2.0822810870914576
3.87109375,1.3420041983453417,1.0164255793855428
3.875,-0.7913703254202912,0.3015496159852843
3.87890625,0.2499772748148619,-1.3438528961108676
3.8828125,0.2613549692756197,-1.4701183868635668
3.88671875,0.40110466474326906,-0.0768340546616221
3.890625,-0.5425513722564719,0.17932904669531038
3.89453125,-2.6297570127132945,0.7152596675381233
3.8984375,-1.0811654899114345,-0.5071505068709162
3.90234375,-0.28350190508341255,0.001927942690188586
3.90625,-0.973084287812672,0.21482116625308154
3.91015625,0.16354863026581296,1.882645557886451
3.9140625,-0.3617557044717178,-0.3589366095734106
3.91796875,-0.37303666156190174,0.4302622443205344
3.921875,-1.6777524973612412,-0.4640401421114066
3.92578125,0.2746515558294203,1.24916952019725
3.9296875,-0.5158726190396047,2.688514827058232
3.93359375,-0.2846750476378409,-0.3960488597049058
3.9375,0.2506242103365648,0.37509423069440573
3.94140625,0.5948013546346882,1.3939299839938668
3.9453125,-0.328341615975974,0.7596866246100982
3.94921875,0.1905492842162013,-1.8078343294659884
3.953125,0.17334984979991327,0.48197279827385864
3.95703125,-0.584641067638465,-0.1035661261278365
3.9609375,0.3418412186160754,0.8696211729318454
3.96484375,-0.5317431275856973,0.11208034986663307
3.96875,-0.947089418040568,1.5709020360344126
3.97265625,-0.9349938854946236,0.009375182455861402
3.9765625,0.17831811393017277,-0.7587843151553874
3.98046875,-0.1076928744550093,-0.3059431050051993
3.984375,0.9496197617843389,-1.0437303068579555
3.98828125,1.016698558351974,-0.7785238349357928
3.9921875,-0.9042378759405167,-1.1883525254355827
3.99609375,-0.8897582631926926,0.3653713998597962
4.0,1.274824291710651,1.5339826826095142
4.00390625,-2.5167252934688995,-0.6390148097724823
4.0078125,-0.8159879587872481,-0.5931034049252434
4.01171875,0.88615969966326,0.2966161735408552
4.015625,-0.8161450606217301,1.8475444300453463
4.01953125,-0.6050616386040859,2.0271119573000353
4.0234375,0.14859351211888666,-0.1651842355253034
4.02734375,-0.7528682168961139,0.45396278839878923
4.03125,0.2702345368943581,-3.10770965440684
4.03515625,-0.27805954876069583,-0.6028365031859014
4.0390625,1.9239901071706498,0.10551995896301342
4.04296875,3.4348921565004344,-1.227747294861303
4.046875,0.6188825184865256,0.6568719186844438
4.05078125,-0.4601996733060379,0.39125617143288444
4.0546875,-0.6235220603844757,-1.366366883782919
4.05859375,-0.2084294339886323,-0.7159770344328551
4.0625,-0.2871880745775349,1.4009156433645353
4.06640625,-0.6723437152674802,0.1638133895660914
4.0703125,0.6316615947674507,0.09245384232339227
4.07421875,-0.006058464005737404,-0.14735709298156732
4.078125,0.6638753276463794,1.4317486665658032
4.08203125,0.7260320768872669,-2.277195420655269
4.0859375,-0.45781230743932244,-0.9902355169617126
4.08984375,0.9216617506770186,-1.1432575932748081
4.09375,-0.5540009822064914,-0.9793165676146416
4.09765625,-0.7007812672767374,1.631057672207414
4.1015625,0.3488130758097179,-0.4846794477581893
4.10546875,0.6564584144094199,-0.3395970814355679
4.109375,-0.46307419192305366,0.7009728487937303
4.11328125,-0.8488580266956527,0.9157367225684117
4.1171875,1.4335789327950814,-0.7320184081445091
4.12109375,0.5440547735362631,0.8709062596263624
4.125,-0.20569587028207345,0.12434922940562408
4.12890625,0.182104482483981,0.6052471452176206
4.1328125,1.9705743745990714,-0.8544616388391179
4.13671875,0.3603333447613811,-1.2664469952020594
4.140625,-1.2460142409890844,-0.25696931708728615
4.14453125,0.4310308218784212,0.09980768876886158
4.1484375,0.3693811219899649,-0.1095664128399211
4.15234375,-0.28665942295888536,-0.3968822907636051
4.15625,0.006955182215739142,2.325984465359647
4.16015625,0.4659565740749543,-0.2017499558013586
4.1640625,0.09606839991273847,-0.9741272084729047
4.16796875,1.2321275535650076,-0.8674344868534601
4.171875,-0.4189051146499632,1.3021740492333025
4.17578125,-0.41354526592300783,-0.25300886694193986
4.1796875,-1.1048575559718525,-1.2065082328497094
4.18359375,-0.34498116033313636,1.1422009331275917
4.1875,0.0231686298259448,-0.6772497633236714
4.19140625,0.7720658528649843,0.6530012992930786
4.1953125,-1.3067887685766024,1.8183830112957846
4.19921875,-0.8080657749456746,-0.10159821459427319
4.203125,-0.4553480848621405,-1.3657006545603858
4.20703125,2.3575227888364476,0.9508514863178497
4.2109375,1.3447236808582457,-1.0396121293618095
4.21484375,0.011803237696008273,0.18603661381772063
4.21875,0.9348433798092068,0.5129617301933161
4.22265625,-0.7646973171624348,-1.0910418427583297
4.2265625,-1.1463491863732507,1.239095877379433
4.23046875,0.2406084661284935,1.3926005509645092
4.234375,-1.2957636206564196,0.4652381037862047
4.23828125,-0.7454550638121175,0.9326186807133026
4.2421875,-1.1578554157158634,-1.0668664925231155
4.24609375,-2.6020408859535116,0.6809627197711438
4.25,-0.7431330292619952,0.1142081328617356
4.25390625,-0.08436881547002736,-0.024714929832083933
4.2578125,-1.0370381352803555,0.5703051490055916
4.26171875,-1.478347738234537,-0.545337761151415
4.265625,-1.334595012153487,-1.2144579033461385
4.26953125,-0.8340541823864294,0.9851512842915523
4.2734375,0.579348445958226,-0.1131333960541541
4.27734375,-0.526631208606227,0.11017936396178488
4.28125,1.343388070670632,0.9113534773570158
4.28515625,-0.0025916358701478914,-0.15094569882001832
4.2890625,-0.05116532056549293,-1.6597433160922541
4.29296875,0.7324223988812493,0.8142333632500416
4.296875,-1.1503098199929949,2.2925995863261894
4.30078125,1.9618898388254944,0.27967425278850067
4.3046875,2.0142652106718684,1.5676391611692753
4.30859375,-1.2205707315151533,-2.029383724489274
4.3125,0.4892387779911182,1.6961891982881072
4.31640625,2.6608577353453846,2.4451416490888627
4.3203125,-0.8948696506040972,0.48715478118837663
4.32421875,1.1500598268908933,-0.384497638827027
4.328125,1.1510391642110511,1.4745107080002842
4.33203125,0.37857355222961114,-0.025239068626888194
4.3359375,-1.915531748852844,1.5405358730187237
4.33984375,0.9726168855088105,-1.1442697065386442
4.34375,-0.4701066005330241,-0.6835521061635089
4.34765625,1.183388530052022,-0.11568409343191549
4.3515625,0.5049455391361576,0.6499240009673524
4.35546875,0.4016518812714739,0.32308342187966377
4.359375,0.03353859100333416,-0.008950256889662415
4.36328125,-1.217074618103647,1.1755934441312674
4.3671875,-0.9095239814904772,0.5460646471798921
4.37109375,-1.5129348307538293,-0.29858166674448944
4.375,0.07548533477233606,1.4607796532996253
4.37890625,1.4245173656580254,-1.0047676277927498
4.3828125,1.4622866997961288,-0.28945341758720544
4.38671875,0.6500476853764607,-1.632232654744184
4.390625,0.8820596077135116,-0.016943907047409456
4.39453125,0.5799772618216037,0.9720542355803286
4.3984375,0.965738068314879,-1.668947400940265
4.40234375,-0.9011536932482497,-1.0642178769928268
4.40625,-2.022610823711684,-0.5273950977836694
4.41015625,-1.4392134754222967,-0.06132984246591345
4.4140625,0.14178152155209298,0.9291034691965687
4.41796875,1.608810288852578,-1.0901480263427872
4.421875,0.12524112984509075,0.06553318742129169
4.42578125,-0.49222676834581863,0.24547810309499307
4.4296875,0.8791552516954305,-0.20495343505043226
4.43359375,1.06532758769659,-1.2776801355374923
4.4375,-0.17486846244699264,-0.6633213769815027
4.44140625,-0.6989341100226625,-1.3008820675898811
4.4453125,-1.8017136237079665,0.5495808874337121
4.44921875,-0.2805119509915038,-0.9086931771612436
4.453125,0.035349936574104096,-1.7419946151094259
4.45703125,-0.9569751475727986,-0.26829509998774903
4.4609375,-0.3611702536609815,-0.7713109783323923
4.46484375,-0.3230528044245457,-0.6662257910402601
4.46875,1.0982772911860952,0.14204467328522113
4.47265625,-1.4668540073758298,0.8379508364708823
4.4765625,-0.4006058462513402,0.21170268419235835
4.48046875,0.44160074568186647,0.4596314902029991
4.484375,0.13501280184255632,0.1470156979205842
4.48828125,0.10584036535909469,-0.2186051033173029
4.4921875,0.11276886972885712,-0.23077578297812051
4.49609375,-0.6864281729468651,0.276457196390526
4.5,1.0251229593693336,0.17480653414559613
4.50390625,0.1697582381802587,1.2430747169270024
4.5078125,2.1685852614641727,-0.05579362093490633
4.51171875,-0.018248223546884264,1.6130576423102923
4.515625,1.6640029293647984,-1.2458399964016904
4.51953125,-0.02690465369055905,-0.4643687440842185
4.5234375,1.9328166826235,-0.8375029434232248
4.52734375,-0.007660086008544727,-0.6721856451778818
4.53125,0.11402154610327812,-1.808851856798748
4.53515625,1.4744774263757705,-0.3505089917481807
4.5390625,-0.01257548303760827,-0.3850598930750689
4.54296875,0.2525186919318891,-0.6163296599994432
4.546875,0.1574287605040637,-0.2905528959935593
4.55078125,0.046218953631198614,-0.8009289701305573
4.5546875,1.4910056498840658,0.14017808655172762
4.55859375,-0.07388402592471868,0.03901111069543944
4.5625,0.3583757143380238,0.2894274830796669
4.56640625,0.5274075385737802,0.06920041212879707
4.5703125,0.2799158805050328,-1.5129211157412703
4.57421875,0.26419786690606695,-1.1902948907787438
4.578125,2.1747166701190648,0.30520190419912374
4.58203125,0.39538659116841807,0.6344576620367136
4.5859375,1.7722008911246194,0.21802636487186877
4.58984375,-0.3320351204189736,-0.31594287504490487
4.59375,0.8124131064827024,-0.5330308227232896
4.59765625,0.7314811693291273,0.7374651090962359
4.6015625,-0.0899700360846168,0.5001481532791459
4.60546875,2.739746558322651,0.9817641851651705
4.609375,-2.5544555771836452,-1.384499670793792
4.61328125,0.2929558364382322,-0.7502669227109248
4.6171875,-0.14508554975048718,-0.12459260559336764
4.62109375,0.700458670669317,2.285350965070484
4.625,0.860519745815422,-0.3314640918284389
4.62890625,0.5944931349730367,0.9286014631253743
4.6328125,-0.2682740356676291,0.8088481376174329
4.63671875,0.0488969729841985,0.8252949832513418
4.640625,1.5957563264762145,1.1734946757004168
4.64453125,-0.8379101300206505,-0.769637611551063
4.6484375,0.21939028036558447,-0.5504730562817194
4.65234375,-2.3026168428154548,-0.6586045379521175
4.65625,0.5111781839002064,0.57102643738671
4.66015625,-0.9452105650570073,-0.3829669942700242
4.6640625,-1.7023126536694557,-0.7143329446749677
4.66796875,1.159962769554784,-1.5069934471613189
4.671875,0.5865976728665415,0.4343789960569952
4.67578125,1.1088424558067447,-0.4920430732576753
4.6796875,-0.7981019235998819,0.08902665636801511
4.68359375,1.3249399564745798,-1.1088247660769224
4.6875,2.0346754930845754,1.69190722040321
4.69140625,-0.4344190510216742,-0.7693018784474788
4.6953125,0.8254396140721828,1.4206345207586915
4.69921875,1.2244992376138375,-0.06948308357527298
4.703125,-0.7885090441230139,-0.20316918400991588
4.70703125,1.0253403816351834,1.1450912283141355
4.7109375,1.259237702118174,-0.5551958296108205
4.71484375,-0.3407316113478062,-0.3630527628776219
4.71875,-0.08405810750302317,0.25166554105701827
4.72265625,-0.5166897597465225,-1.3687584993725739
4.7265625,-1.0404678754410661,-1.5099256660550182
4.73046875,-0.05957277105251069,-0.5032058654359488
4.734375,0.2491624426443996,-0.0329470327043945
4.73828125,-0.29373623096840634,-1.2923081427444023
4.7421875,-1.791101639399165,0.545336185640419
4.74609375,-2.4230394451211796,0.9022914966620416
4.75,0.654997589591503,-1.8531267250116827
4.75390625,1.4331470391860226,-0.7190307376488733
4.7578125,0.35597145759740373,-0.6314103055589761
4.76171875,-0.2372772763821759,-0.7526462989288417
4.765625,-1.4035764610257682,1.513158570430048
4.76953125,0.18593444023881925,0.9653921119270636
4.7734375,2.0487632317320887,-0.40987835798931294
4.77734375,-0.6474350742587994,0.3766381392526917
4.78125,0.06659291129596251,-0.3182965210351863
4.78515625,0.1520703583084573,-0.5717339833647157
4.7890625,-0.5584200196676089,1.7196476300965493
4.79296875,-1.006159385438357,1.2680356098891628
4.796875,1.2835661831839007,-1.2107059796034274
4.80078125,-1.150288291116098,0.2538324137446136
4.8046875,-0.04393107687553462,1.84241377808248
4.80859375,0.6627739254217341,-1.6218790607203817
4.8125,-0.8684646555671005,-1.1238510886098958
4.81640625,1.1330310719950356,0.8190103105383622
4.8203125,-0.3193897081640854,-1.6282544456082098
4.82421875,0.3759024823873307,-0.2807930466987797
4.828125,-0.41438394133354584,0.13739237866607593
4.83203125,-0.002517855762982161,0.1336785077081874
4.8359375,-0.8887715155211279,0.9290488642643059
4.83984375,-0.08661714257744914,-0.2968579887440266
4.84375,-0.8753145548672903,-0.2688569674515846
4.84765625,0.12913076095741727,-0.9374035281364678
4.8515625,1.0225135356407231,0.999945112878662
4.85546875,-2.0508210530746265,-2.003165104529755
4.859375,0.7596094857824144,-0.9118117216971978
4.86328125,-0.6841738838015516,-0.2301429819820943
4.8671875,0.3322497877723408,1.2283226662005449
4.87109375,1.9194704293224152,0.13046787346148492
4.875,1.5099945053751487,-0.8051628027626497
4.87890625,0.5899307635839611,-1.3822726006491197
4.8828125,1.6240830565653916,0.6122124129809374
4.88671875,-0.3963296636366728,0.8310639887596941
4.890625,-1.5015486851255968,-1.3141804799388817
4.89453125,0.7276310372141207,0.6167676980763374
4.8984375,-1.7140182682266971,0.13027418275127794
4.90234375,0.257692567123553,-0.027466241769583892
4.90625,-0.12101476152514318,0.5752816718689647
4.91015625,-0.6507604110510979,-0.7041009985984656
4.9140625,-0.8000003982039706,0.0014773981040486005
4.91796875,1.6835768589705522,-0.34156778406724764
4.921875,-1.8092904355758104,0.9226612511871253
4.92578125,0.23867040489903638,-0.5692721450740904
4.9296875,-1.2885993497776842,-0.25200951246689135
4.93359375,-0.4235394074284471,1.3248492007263855
4.9375,1.435142501366275,0.22604951363228462
4.94140625,-0.6396032220341825,1.0640949482896733
4.9453125,-0.6854555821032818,0.5272717023264876
4.94921875,-0.7792875916529127,1.2645324679089893
4.953125,0.9580368468798677,-0.6440976846006214
4.95703125,0.3459176183234515,-1.5457142256999692
4.9609375,0.0016417944149554739,-0.34666623844128697
4.96484375,0.32257258506748565,-0.833937889141073
4.96875,0.2705694805819901,-0.5234110987015788
4.97265625,-0.27915449024587907,0.1892322149283919
4.9765625,0.9776816758699833,0.2071400088636691
4.98046875,0.5391976386459182,1.4670217927568572
4.984375,-1.205613047499199,0.4099807436324181
4.98828125,-0.14950076211404237,-0.17009456701599115
4.9921875,-0.46672769088658705,3.0242432146999367
4.99609375,-0.7617051296872894,0.7969153073546891
5.0,0.8924735640084719,-0.9233071682235262
5.00390625,0.07649825917893378,-0.8271915524462242
5.0078125,-0.9519265331219406,0.4928667288072333
5.01171875,1.1757149753605576,-0.40143896606638335
5.015625,1.5404063941892352,1.2082598035908256
5.01953125,0.5474833047285789,0.9239658579324512
5.0234375,1.0077030942084824,0.5955678243172807
5.02734375,-1.7956381372248946,-1.3488994992155587
5.03125,-0.29019482971038246,-2.309732786677973
5.03515625,0.9852729196016367,0.036962283318863344
5.0390625,1.2123362540245706,-0.3443349945881988
5.04296875,1.6163567801357488,-1.558688908843923
5.046875,-0.835506586177914,1.3648253683283522
5.05078125,1.3227953021420324,-2.161624676720967
5.0546875,0.969203788731479,1.1783356659914321
5.05859375,-0.1956967228890882,1.1263066278375895
5.0625,-0.2082555344286357,0.037067064603117206
5.06640625,-0.7894050717484762,1.1880735020103297
5.0703125,-0.07774696417512089,-0.6670666127545999
5.07421875,-0.0008661565239891906,2.1852321907419063
5.078125,0.7714517993198298,0.6661654346165344
5.08203125,-0.639437542310624,-1.359006871870703
5.0859375,-0.2183108013760679,0.05915129986036158
5.08984375,-0.13868125649745433,-0.6615585703651051
5.09375,0.07936088515989723,0.3951318764704208
5.09765625,0.43190684002703955,-1.3020745918863248
5.1015625,-0.973658413405973,0.18135582760942842
5.10546875,0.4008587296508578,0.20350473583719403
5.109375,1.1814843599134717,-0.11089793330427393
5.11328125,-0.6366172893416366,-0.9256127545596563
5.1171875,-0.5469694700363815,-1.5203501135135535
5.12109375,0.40987471533850317,-0.2926738790980351
5.125,1.108267444428557,-0.6689175299423611
5.12890625,1.760520385628795,-0.43766330430340805
5.1328125,0.8336387396154276,-0.056730914546147294
5.13671875,-0.18520699748622288,1.126399266782131
5.140625,0.7117107268942949,0.003521193248448144
5.14453125,-1.2017041956430614,-0.579071805698228
5.1484375,-0.9529122850960154,-1.825228764050028
5.15234375,0.46997436443129065,0.5575396870955684
5.15625,-0.6902636405026553,-0.5667914952948114
5.16015625,-1.4696319412250722,-1.5766199706151411
5.1640625,0.36907966082786353,1.056763897913342
5.16796875,0.20993797365867436,1.413732537908974
5.171875,1.5812199801596578,0.7227208980921741
5.17578125,0.4546810746351865,0.29956550531694404
5.1796875,-0.8914372201342454,-0.0628820250313939
5.18359375,0.1483739876871663,0.007164854812365731
5.1875,0.1510302777133928,0.3629774550124479
5.19140625,-0.28622919600222013,-1.2285254056624089
5.1953125,0.1445492916903725,-1.414656734399215
5.19921875,-0.9012557995599706,-0.5917637799104322
5.203125,-0.29175721393805565,0.7066236114418996
5.20703125,-1.6363181552886024,-0.6319594120522146
5.2109375,0.06440112754124881,-0.8341036960878382
5.21484375,-0.39630982443665835,-0.32053453928190173
5.21875,2.094770112302196,0.9669581141707074
5.22265625,-1.6385395497709898,0.6890591022752673
5.2265625,0.5104371598693741,0.7856261250032893
5.23046875,0.4169862214444515,0.4315652643356409
5.234375,-0.7047299955940571,-0.5750824793465782
5.23828125,-0.9583630886050712,0.2978289851728792
5.2421875,-0.6340519650082561,-0.07268814418386559
5.24609375,-0.4552462038792749,-0.5214152859922402
5.25,-0.43862298730740823,-0.473498493388962
5.25390625,0.4247862607945345,0.23246869641702494
5.2578125,-0.43925749979347656,0.07160176284632652
5.26171875,-0.6264309438505835,-1.5234643400034982
5.265625,1.07195920150757,1.1267336838311837
5.26953125,1.0228803374858804,0.4263428115983024
5.2734375,-0.38238184395240815,-0.1908094840226941
5.27734375,-0.34330028676507485,-0.4877560756748282
5.28125,-0.4274132889057129,0.7581568974406994
5.28515625,-1.1758668211272862,1.054599957644088
5.2890625,0.5843893984265534,0.5367899023017477
5.29296875,0.9562694844318835,-0.4028204070312212
5.296875,-0.2603960796216331,0.1925423554390433
5.30078125,-1.4314556911003518,-1.6423645214472113
5.3046875,0.6323955582931835,0.8456751877845472
5.30859375,1.2162413872457,0.7150154823379761
5.3125,0.29758308563558283,1.4230622790622698
5.31640625,1.0237225069017497,-0.6203070877657156
5.3203125,-1.188357181114676,-0.36766903712924837
5.32421875,0.8005491926529533,-0.35153284852868316
5.328125,0.6297864911882798,-1.526731234311715
5.33203125,-0.5038362393386491,0.43837720226078963
5.3359375,-1.1565122740093357,1.5823790589624471
5.33984375,-1.1325183338263696,2.333172225738506
5.34375,0.8020418799884026,-0.6584732443249925
5.34765625,-1.2116790546227345,0.6641058130503894
5.3515625,-0.7909181353878452,-0.21262311617047253
5.35546875,-0.35586915723089785,0.2920613965423656
5.359375,0.919959558251756,-0.6268433759544498
5.36328125,-1.520467281898838,0.05766307431511126
5.3671875,-0.5341740357864868,1.8703218892018338
5.37109375,2.0910412371455047,1.3438132405628713
5.375,1.37678250680449,0.5794461056735147
5.37890625,0.3531039399012836,0.5298024481700929
5.3828125,-0.94830451365545,0.9283756583828195
5.38671875,-1.3937453955850507,0.07073475704613709
5.390625,1.6527082225622491,-0.4215658843434567
5.39453125,-1.054888748916531,0.8553485587295511
5.3984375,-1.2814611268828904,1.7591532477556746
5.40234375,0.06957810666489113,-0.30450847447401214
5.40625,-1.39756477470308,0.591514401064696
5.41015625,0.6140736803137686,-0.31015752306288785
5.4140625,2.5407131196868624,-2.0232712825341497
5.41796875,-0.8212567263518451,0.7659519106725526
5.421875,1.93601858579978,-1.5943650275828527
5.42578125,1.4755268059024196,0.5629782406045108
5.4296875,2.6428236676692243,-0.6621141788975554
5.43359375,-0.008299398158165662,-0.2651095499278471
5.4375,-0.26422187896971927,0.9614450898000353
5.44140625,-1.6533703731636642,-1.892870163012865
5.4453125,-0.7579950063702366,-0.7464544559752616
5.44921875,0.7784973001105892,-0.8620962454413803
5.453125,0.29136402922673416,1.0141057284447919
5.45703125,0.8166354851441967,-0.05072063172182925
5.4609375,1.9968014455719723,1.498018314554024
5.46484375,0.24132238916557988,1.190549310818146
5.46875,-0.01168953275328998,0.15610719092095587
5.47265625,0.48704522633025216,-0.21338502321843492
5.4765625,-0.09070558824068199,-0.743900271213904
5.48046875,-0.04570801334665683,-0.003305890597184829
5.484375,0.05496916626368223,-0.8180281547106624
5.48828125,0.865840945481495,-0.8269435611047906
5.4921875,1.4106953120038332,-1.7206675118771533
5.49609375,-0.88429691949646,-0.2747901975136009
5.5,-1.0739174964802662,0.3157077465517392
5.50390625,-0.45694025611131184,0.0024976065049143585
5.5078125,-0.1559140765192144,2.851517055779606
5.51171875,0.5917701339528139,2.1043444064932553
5.515625,-0.7016734547636018,-0.10179038492816178
5.51953125,0.18910302291022776,-0.22618213733908568
5.5234375,-1.1547534140965534,-1.418612255027949
5.52734375,-1.0257238497926955,-0.2839727550160875
5.53125,-1.2976506489862027,-1.0047559499475514
5.53515625,1.4431234189079918,-0.8292131093667722
5.5390625,-1.0791816581273903,-1.644373438521503
5.54296875,0.712605034272052,-0.3818718614777371
5.546875,0.4881815335050183,0.32754512375151523
5.55078125,-1.1539038249301616,0.39167966658620024
5.5546875,0.22143285376837532,-2.2648034179372156
5.55859375,0.3483327751937957,-0.21208918265602908
5.5625,2.3909257825856844,-0.5187125123228519
5.56640625,-1.0525783045708426,0.21984033641465756
5.5703125,-0.1706689676257487,1.0977454626795464
5.57421875,-1.4230706426253028,-0.32613778171038477
5.578125,1.0123416802880936,-1.203863852103613
5.58203125,1.9332825435119896,0.7244114947281679
5.5859375,0.04182569063015547,1.493048289841813
5.58984375,0.8687783655315205,-1.759898153874579
5.59375,-0.7418481786012423,-1.1632066717678278
5.59765625,0.0389783324042575,1.7131642313393387
5.6015625,-0.44510035901119915,0.8389750317115556
5.60546875,-1.2059204841406879,0.3460089707201939
5.609375,-0.042854482362202975,1.8946743798613714
5.61328125,1.746557679953457,0.05288867169342859
5.6171875,-1.2000072505652033,-2.031863077497149
5.62109375,-0.8210526414753122,-1.4527223748006646
5.625,-0.16076075498315365,-0.41725542212536304
5.62890625,-1.2398020955877318,2.9795664250917104
5.6328125,-0.2624713412628084,1.7059997584696722
5.63671875,-0.40112447011675445,1.7429429260175962
5.640625,0.07369751215483684,-0.41756359350936284
5.64453125,-0.8971135642751541,-0.35556504011721735
5.6484375,-0.1478656365641082,0.05128039555089049
5.65234375,-0.5845523955433474,1.8569465974629031
5.65625,0.2952645912114139,0.0874880300355003
5.66015625,-0.47632641580825097,0.6928240298569052
5.6640625,1.1042392500450757,-0.6204996102706328
5.66796875,0.21751876647950602,-0.8996822835691549
5.671875,0.4391928934907283,0.20455649651526173
5.67578125,1.070249875454698,-0.30719586965549683
5.6796875,0.22730012178449305,0.23408576484850643
5.68359375,0.763254332437147,-0.8746885995617225
5.6875,-0.3117316592057895,1.6121889650112327
5.69140625,0.7032184771938568,0.5398658847646299
5.6953125,0.20822191644784968,-0.6927802777592329
5.69921875,0.30644425519197005,-0.5858781160116158
5.703125,-0.1581365061231581,-0.9527535552762638
5.70703125,0.13582386603684973,-0.30548309400750506
5.7109375,-0.2474218815462862,1.2487868148988814
5.71484375,-1.2626823731741936,-0.8784403133528693
5.71875,-0.8902276579674305,0.843437872662371
5.72265625,-0.42915458807260104,-0.5408941029109435
5.7265625,-1.7901160869118629,-0.44164019417295186
5.73046875,-0.4713582080778832,0.904548204716886
5.734375,-0.223399583428929,-1.341026283454375
5.73828125,0.06456880621930601,1.719619627902582
5.7421875,0.5530080208494017,0.27563480542444624
5.74609375,-0.8495746469462223,0.9522677378332383
5.75,-0.29989441414450757,0.9318001542617464
5.75390625,-0.7985668755231964,0.24081495579506493
5.7578125,0.909322863566532,-1.7859817218641298
5.76171875,-0.06794178239200521,-0.5397182823585452
5.765625,0.6053833509717877,-1.6778907070449667
5.76953125,-1.603741738800334,-0.1250240230056229
5.7734375,1.499349448341799,-0.6409745640719307
5.77734375,-0.9145226001096809,0.7598652600645192
5.78125,1.4330810135103882,1.1873708498770987
5.78515625,-0.5343431918933969,-1.001509322173373
5.7890625,1.4861562589100097,0.703885965729117
5.79296875,0.5096169717558295,-0.48586127601315166
5.796875,-0.03130850324565154,-0.7292090552281328
5.80078125,0.39109408600688317,-1.677118582737674
5.8046875,-0.806909944657499,0.12867745750530019
5.80859375,-0.5452278854735534,0.7545786494199134
5.8125,-0.03347816035190129,0.15595147645527035
5.81640625,0.24658353935507293,0.6700896339910359
5.8203125,-0.5018959697523862,2.29501885500564
5.82421875,-0.17076526895683344,-0.5103472008311125
5.828125,0.47323445868067726,-0.43419712283295175
5.83203125,0.5391811294528522,-0.10150497859197807
5.8359375,-0.642001789914136,-0.3840249753701468
5.83984375,-1.59818494453277,0.4779755210763757
5.84375,0.036296319550415464,0.736139681756152
5.84765625,-0.44092115137314225,-2.343547349252518
5.8515625,-0.48953550288238534,1.5416101003363079
5.85546875,0.12815625375633444,0.6409551905332426
5.859375,-1.6382179004017245,-1.7758523151599082
5.86328125,-0.25975912178709115,0.14322037215264916
5.8671875,-2.6993835817379717,0.05392378252116512
5.87109375,0.5699347758625347,-0.813349479253404
5.875,0.5844970237318452,-0.5038274656394427
5.87890625,0.5772094044744582,-0.3936889418143695
5.8828125,0.19620629992247882,1.1516410012558662
5.88671875,-0.8866464333229298,-0.5939494317705272
5.890625,-0.06606764413114284,-0.44821865355721624
5.89453125,1.4913380535794085,-1.6539285603260672
5.8984375,1.2502884329440977,0.9064388202984355
5.90234375,0.5297329552664227,0.6129668559651248
5.90625,1.4185172927967247,-0.7152966025974621
5.91015625,1.0369577895662936,-1.481523690049467
5.9140625,-0.2494634302794623,0.4908483169300421
5.91796875,-0.12142555171658037,-2.175534141880464
5.921875,0.2356977757123857,0.42378910499723726
5.92578125,-0.17471359960793803,0.5101684418278055
5.9296875,1.05846033032189,0.2448013262606469
5.93359375,0.9546735158697952,0.19358548794835637
5.9375,0.451754031120094,0.5657771880709511
5.94140625,1.3921511958312003,-1.3423322136101976
5.9453125,-0.3889572074174699,-1.5960551915301977
5.94921875,-0.8969067229137813,1.5119253810737578
5.953125,-0.39704175071957676,-1.0031070775018893
5.95703125,0.7867959643395082,-0.757938748715283
5.9609375,0.009579974376016324,-1.1837597353497737
5.96484375,-0.2613947446458979,0.6409887427663165
5.96875,-1.4996455302616232,0.9344123636833048
5.97265625,1.1124632826801597,0.39069886712638885
5.9765625,1.398068334075731,1.217835202717152
5.98046875,-0.2994346344989536,-1.6683412061238396
5.984375,0.0044542544485138055,1.033726249018001
5.98828125,-1.0455848271153059,1.6107692285012116
5.9921875,-0.05042948290899763,-0.6528498738517231
5.99609375,-1.5396196036080374,-0.7246180784688984
6.0,1.7261339536858367,-0.10948782163799045
6.00390625,-1.3706687340176011,-1.2347187008380536
6.0078125,0.17810561708890188,0.467687797922284
6.01171875,-1.3075544753500463,0.12516914450962233
6.015625,2.9902214450307847,-0.5743238474596595
6.01953125,0.42209158738194585,0.05616411816707958
6.0234375,1.4823099820200916,-0.841481568263933
6.02734375,-1.0463932423166917,-0.5064695020801573
6.03125,0.293923436456848,-1.0242707326584237
6.03515625,1.0097742978765605,0.35410877363955734
6.0390625,1.153138293169303,0.8069346948381432
6.04296875,-0.4481918861766345,1.6569050280190551
6.046875,-0.0310189038950541,-1.625352527181888
6.05078125,-0.4381760509892845,0.1636609200393571
6.0546875,-1.0798558712434811,0.767732941351015
6.05859375,-1.4011424892083295,-0.5492693310725242
6.0625,0.5610116856568136,1.706707524825643
6.06640625,-0.7016310377343355,-0.9540258202504586
6.0703125,-2.385013160484736,-0.19971003011959998
6.07421875,-1.6463191699429949,0.7201128577543245
6.078125,0.5656157888765324,-1.3990613847710245
6.08203125,-0.7877233935328315,2.4441929726167495
6.0859375,-1.0906723599250685,-0.30460139406133313
6.08984375,-0.937397031173378,-0.5202671704396173
6.09375,-1.2765588712417582,0.12040864313188487
6.09765625,0.3912497534118163,0.5457217613538069
6.1015625,-0.5975198328526691,-0.4802312665015485
6.10546875,-1.9174714317184784,-0.1239134787490362
6.109375,-1.9560557361058868,0.07667208056444215
6.11328125,-0.8481151860771624,-0.5960194968123903
6.1171875,0.2593739809833395,-0.6164892167217138
6.12109375,-0.4096050009657894,2.4963698488462405
6.125,0.1304128333439972,1.4809495309653218
6.12890625,-0.39519347178230424,-0.23127643314634136
6.1328125,0.5746447355000629,0.8143922714842445
6.13671875,-0.6621329409209789,-0.1412050527732798
6.140625,1.213379442349973,-1.2409117059328518
6.14453125,-0.19971797646623585,-1.1240936365705807
6.1484375,-1.0175768545167851,-0.8897310713796422
6.15234375,-0.38474397391280396,0.23316077571948784
6.15625,0.18306754390885305,-0.7901716930919607
6.16015625,0.07443772242089923,0.9046637860370182
6.1640625,-0.38336363739598345,-0.19557799284578345
6.16796875,-1.4278030352585254,-0.06130088915550606
6.171875,-0.48439362316229545,0.5732355720287823
6.17578125,1.9648211207536672,0.39125985908467154
6.1796875,-0.5862995434556189,-1.002996514465331
6.18359375,-0.2833825166973476,0.9512562951480985
6.1875,1.6845920757349906,0.7072055080633456
6.19140625,-0.39052668041314953,1.3159606027892905
6.1953125,0.6173612075955495,-0.4625509082089797
6.19921875,-1.4754771460794922,-1.5783312598974868
6.203125,2.4471600639784463,0.2933980701827731
6.20703125,-2.230579942432768,-0.4259491031470985
6.2109375,0.16306902500852385,-0.5859161678584939
6.21484375,1.1086552570288977,1.8011756335795357
6.21875,-0.02547235413412575,-0.11358555633360094
6.22265625,0.635076308268645,2.6016655158934796
6.2265625,0.4562129294047624,0.3856959880689837
6.23046875,0.13834389859187607,1.7614836340582143
6.234375,-0.5104718112746102,0.3248241006442627
6.23828125,0.6058783251876996,-0.9196953915081705
6.2421875,0.930209322131111,-1.435445512188347
6.24609375,-0.06841349512215063,-1.9775216066488241
6.25,0.7972188686369469,-1.4542326370286642
6.25390625,-1.6309679177683345,-0.08309221766900556
6.2578125,-0.11652419573444817,-0.3926666283176222
6.26171875,-0.6458614520541912,1.5478946188826073
6.265625,0.05575295526702555,-0.37677173178106194
6.26953125,-1.756571157594829,0.18776006670747977
6.2734375,0.7364155657951883,0.38959592366468077
6.27734375,0.1812276530296365,-1.824417912304465
6.28125,0.30348652902055917,0.8838206584844007
6.28515625,0.25060276701265843,1.6791791780818477
6.2890625,-1.2967252096321193,-0.7594656867105681
6.29296875,0.4826059296999464,-0.41249170153311276
6.296875,1.0716738928752438,1.348536594509681
6.30078125,-1.7284562429545154,-0.4146363714741633
6.3046875,0.594742028466201,-1.454390567248185
6.30859375,-1.4463608885917199,-0.5292868395130075
6.3125,0.22091471511548844,0.1275102715034122
6.31640625,-0.20394465079771174,-0.05247187915725766
6.3203125,-0.1911433882766866,-0.428815958226585
6.32421875,0.24005552030969282,0.5328144122432977
6.328125,1.466004656733712,-0.3412988543658432
6.33203125,-0.763158439717905,1.7957074774809565
6.3359375,0.6243034614727702,0.8299364700704569
6.33984375,2.3926726623147583,1.9484535015445086
6.34375,1.016333352694844,-0.2228695377144593
6.34765625,1.7082310844612294,1.7193552163861991
6.3515625,-0.7201349189472397,0.5023451472345103
6.35546875,1.305932879970189,0.8317193496707476
6.359375,0.8358014632443475,-0.17148760575225364
6.36328125,0.79952139541911,0.2361761932601959
6.3671875,1.0231627842715734,-0.005366155803337935
6.37109375,0.5485029821286228,0.11121795736031462
6.375,-0.392988972902126,-0.008345841836603732
6.37890625,1.0301054725786574,1.891285175538057
6.3828125,0.27019297888214655,1.669203871557413
6.38671875,-0.7160366972136232,1.514349506939099
6.390625,-0.3656084654887882,-0.4871666034075909
6.39453125,-1.2892111817041811,-1.2944639893584131
6.3984375,1.5891174114604716,-0.31513682985916325
6.40234375,0.03219903160604842,0.32545097630298525
6.40625,0.016334258490876333,0.05845715573729854
6.41015625,-0.9377034174262416,0.005345798174779428
6.4140625,-0.3002469943803844,-0.8288293087737887
6.41796875,0.47629811610779044,0.852658748561878
6.421875,0.09595330053580013,1.1460325279059833
6.42578125,-0.34591069445127426,0.21236320236838416
6.4296875,-0.40645543549996194,0.6062108634735865
6.43359375,0.5793822491614399,-1.1717857843498274
6.4375,1.3657775264679726,-0.2573804239209302
6.44140625,0.12806243373562873,1.5789983929376563
6.4453125,-0.0432581120372703,0.06147495223256392
6.44921875,2.6216459162064627,-0.028154096377936255
6.453125,0.8701485734153122,-0.7236258890359686
6.45703125,-0.22262208627807764,-0.02795019906251203
6.4609375,1.205919700628047,1.3216655155135641
6.46484375,0.7096186672535357,0.07848394392570446
6.46875,0.17486995811339756,-0.6706710937766656
6.47265625,1.1188620580031055,-0.6517289556108338
6.4765625,-0.12221576051627998,0.6105691406067231
6.48046875,-0.7346975144600751,-0.11869622243815578
6.484375,-0.018716374120520667,0.06326372676351508
6.48828125,0.025344910364701087,-0.6613982479284037
6.4921875,-0.7102669506128588,-1.5092952046840415
6.49609375,-0.4752977182779643,0.5998812090972273
6.5,0.3841149170206592,1.1922927035778947
6.50390625,1.6679304359372875,0.9453550809537613
6.5078125,0.5916284987731262,2.6773047328584836
6.51171875,0.04685077549404935,-1.6897589107179776
6.515625,-0.6882703681011102,0.2843761043009687
6.51953125,-1.080463780716374,-1.0651927323331425
6.5234375,-0.45682205786576985,-0.9749067781396966
6.52734375,-0.9485695037085908,0.7435944463121498
6.53125,1.0402042261588216,0.1962330748765696
6.53515625,-1.5315461409713897,-2.1801078671412704
6.5390625,-1.4101852073270877,0.6268872090370471
6.54296875,0.5725005455894532,-0.5283642587694053
6.546875,0.6315285664138571,-0.4307090266683297
6.55078125,0.35736904721436363,-0.6036596971740396
6.5546875,0.7161786525227505,0.8708064888683668
6.55859375,0.2669666459158921,0.4763000467299204
6.5625,0.8054446031816282,1.3023582381024936
6.56640625,-1.5392216112248334,0.779169725323347
6.5703125,-0.6228469116146034,-2.168840445700756
6.57421875,-0.9902815408257619,0.8064913985048292
6.578125,-0.1416201277586321,0.9115951794428375
6.58203125,1.5247346116777365,-0.46300512373920255
6.5859375,2.4559297239062947,0.44980811739087456
6.58984375,1.05431418154266,-0.7723523793816938
6.59375,2.2032646145272685,-0.3055513244116201
6.59765625,0.8459195197320061,-0.04454147772214152
6.6015625,-1.4451470924357703,-0.6208589760887131
6.60546875,1.771555401891956,0.3588351839971639
6.609375,1.185172116322847,0.2992927962993312
6.61328125,2.645758271256749,-1.4959910247871602
6.6171875,0.12488123094825623,0.551164601762627
6.62109375,-0.07303376410012298,-0.41473805419223586
6.625,-0.49913723923163617,0.5602155477816968
6.62890625,-0.214857885364357,-0.3765399745625669
6.6328125,0.3282878033304366,1.444071786282963
6.63671875,-2.146352429873711,-0.06595026300453216
6.640625,0.07677230716871829,1.0048167554275405
6.64453125,1.3934122601482992,0.15548920114832174
6.6484375,0.5482378681112727,0.8382919791119562
6.65234375,-1.9632457578439255,0.7945075044563601
6.65625,0.28221146469572683,-1.643374711744701
6.66015625,0.4682328307295203,-0.8677331742856492
6.6640625,1.4514507087651358,0.04815547105809247
6.66796875,-0.6913460132840683,-0.08012264978731061
6.671875,-0.5325714640541477,-0.3019461493323243
6.67578125,1.3269392890108511,-0.8033696677988976
6.6796875,-1.7584510394386386,0.9946255722834895
6.68359375,-0.17727408004947007,1.2964581125563117
6.6875,-0.10769186384567027,0.08211363760712571
6.69140625,-0.10295041145734145,0.6564051949086771
6.6953125,1.185321540476389,-0.3927764043385985
6.69921875,-0.49895331971650764,1.1091344535376888
6.703125,-0.6401995316620497,-0.2426816676467429
6.70703125,2.7123006529238993,-0.4031641315951465
6.7109375,0.5740471505040403,0.28390107368568934
6.71484375,-0.3100452146486411,-0.4332633581341684
6.71875,-0.12569979580058366,-0.043924852629915044
6.72265625,1.4662719528383161,0.3078271226779994
6.7265625,-0.2546181348013682,0.1462657737225004
6.73046875,-1.0654100561984412,-0.0237962976530091
6.734375,0.0879074473335457,-0.16214656755738682
6.73828125,-0.3796663782262796,0.2801783290396813
6.7421875,0.031996606294207655,-0.7949377036554696
6.74609375,-0.14269117701907663,1.1023706671102487
6.75,1.9297705324971264,-0.894853637381668
6.75390625,-0.15746424998927347,-1.5034500050270356
6.7578125,0.41730966767240063,0.0901777769823584
6.76171875,-1.0731112878689415,0.3674798177192352
6.765625,-0.27881323347794795,0.3548882840397057
6.76953125,-0.9008361911523254,0.246583928140502
6.7734375,1.5487435650832484,0.14664137458815693
6.77734375,0.9983799246394682,-1.816594231321034
6.78125,0.6607816556861308,-1.3857550752495096
6.78515625,-1.6095646468562064,1.9816097350030115
6.7890625,-0.820212350297189,-1.8340392719604544
6.79296875,-0.8886720106760937,-1.038352664569276
6.796875,0.19531229040301304,0.4449223845769878
6.80078125,-0.7706309955851915,-2.0303837455584564
6.8046875,0.7515536503191456,-1.1590444165005709
6.80859375,-0.8242767715520917,0.8937165519748832
6.8125,0.05303329517560432,-0.2633586990527715
6.81640625,2.360261475339527,-0.9044919472028158
6.8203125,0.26159406208859426,-0.9368937382898441
6.82421875,-0.3687739684321399,-1.4389424436561613
6.828125,0.9212742619338546,0.5882856351282265
6.83203125,0.7797743529343211,0.7998574630525422
6.8359375,0.3394091002134407,0.8440973037559769
6.83984375,0.5641723355380946,-0.13830169843482817
6.84375,1.440673567486363,-0.8811106692009365
6.84765625,1.7117413288261694,0.33895357201755033
6.8515625,0.6739618805842146,0.667343222285938
6.85546875,1.4255041844259575,2.149756503658512
6.859375,0.2115804060521015,-1.0891341561992398
6.86328125,0.806100101684151,-0.5630649258167346
6.8671875,0.06368915415188217,-0.9915895238605337
6.87109375,-0.7154023948026595,0.5699997442683358
6.875,0.9361066789912508,-0.9901736152193407
6.87890625,-1.0766142879545024,0.7256989624969228
6.8828125,-0.11036543008545986,-1.2677097254618952
6.88671875,0.24236397533004583,-1.5064410004274067
6.890625,1.14725434433837,0.22217879885593694
6.89453125,0.3633123469908006,0.5106006676629732
6.8984375,-1.506007682111971,0.6656211709705777
6.90234375,1.4339573747654493,0.0928424841894541
6.90625,-1.417869732419132,-0.6622087439372673
6.91015625,-0.6893676181682633,-0.9068086184155498
6.9140625,-0.3773913024517834,-1.82520721022362
6.91796875,-0.20134981205475946,-1.597716125638753
6.921875,-1.3183143763379923,1.0852928578458125
6.92578125,-0.4765212289168662,0.020533237485636017
6.9296875,0.6929893930694702,1.0558311609665931
6.93359375,0.5762645678172709,-0.9281002198025814
6.9375,1.7987822210721653,0.25762248509916225
6.94140625,0.8700715165748104,1.6538665499291767
6.9453125,-0.910776381498963,-0.4424365161307851
6.94921875,-0.6312838835001066,-0.49100592481104627
6.953125,-0.11140991056783305,-0.5317793721317732
6.95703125,0.014577312230164409,1.6919524968876505
6.9609375,0.8741298148788449,0.7960913223904111
6.96484375,-0.4594969665302202,1.0923703896467731
6.96875,0.05506962480810711,-0.8125505966872877
6.97265625,-1.0118010558860753,0.5732306314828397
6.9765625,-0.39835210227729473,0.03405216848207767
6.98046875,0.06678922601633733,-1.9406291171989563
6.984375,1.382861213117418,1.9496930636675893
6.98828125,-0.3124421516208895,0.03882149764508494
6.9921875,-0.7559843439243724,0.2522250615731943
6.99609375,-0.6333010421904673,-0.6215615947751085
7.0,2.674670571494919,0.6096884588526919
7.00390625,-0.6102946807315213,-1.677990320479056
7.0078125,1.8134441697851547,-0.894141381911243
7.01171875,-0.05671698294619422,0.33107778175657515
7.015625,0.7965299783381874,0.23899902765343514
7.01953125,-2.5353040989452054,-0.39562502496065327
7.0234375,1.005648512162056,-0.9928695875591754
7.02734375,-0.7953456440227763,0.9169387976930462
7.03125,-1.1713673165426595,0.28294149664565477
7.03515625,0.22392015890999967,0.8593728796231989
7.0390625,-0.7517528575656011,-1.6005747284487803
7.04296875,1.0836428241873657,-1.4396787485496059
7.046875,-0.494008496885467,-0.04780615510101962
7.05078125,-0.533543290992369,-0.818014060676286
7.0546875,-0.30753356365926804,0.4142320356018609
7.05859375,0.733234311582006,-0.7770071789290919
7.0625,0.08721380662628819,-0.6622989093118404
7.06640625,1.210977746147198,-3.6110143594014374
7.0703125,0.7761604182448322,-0.5169385291407201
7.07421875,-0.48124976658001056,-1.4767901366169331
7.078125,0.4613174118276518,0.06766750853502064
7.08203125,0.11699908228941697,0.260617663614606
7.0859375,1.8107562863259765,0.017957126248006067
7.08984375,2.538989124834136,0.632672901098827
7.09375,-1.102621357684029,-0.03228815151519916
7.09765625,-0.20067764493848153,-0.2121504060912969
7.1015625,1.1509166994944928,0.538867808644079
7.10546875,2.7036874747280737,1.3839639241457824
7.109375,0.20093235916037214,0.6103941421317979
7.11328125,0.7700309653500413,-1.7915732760537015
7.1171875,0.24696185555092356,-0.42980692202579934
7.12109375,-0.3826598988645571,0.4675416216479524
7.125,-0.33689086461642037,-0.8642004896173977
7.12890625,-1.2605210445602202,-0.011470998936090642
7.1328125,0.7544699569127135,1.185438707219742
7.13671875,-0.15728338749624637,-1.0373466883868976
7.140625,-0.3139640531457321,-0.28921986732798277
7.14453125,1.0026400862050926,0.23062324628196756
7.1484375,-0.48778182907470774,0.007625734297680243
7.15234375,0.7254459302345688,1.8420661378706904
7.15625,-0.18063264183167055,0.053480325855535936
7.16015625,-1.2002783928633742,-0.7895283698321501
7.1640625,-0.5691162379258685,0.4922485221163727
7.16796875,-1.0532210471325563,1.4339747045903695
7.171875,-0.11777164611916603,-0.684709818648095
7.17578125,-0.18552823662965875,-0.2537316699976381
7.1796875,0.95580620592668,-1.0173258607141433
7.18359375,0.17374071642800804,-0.0832433164367961
7.1875,-0.3756126417630552,0.021804887941063684
7.19140625,1.1501177059408272,-1.150633964535614
7.1953125,-0.8335336097934959,-0.9058535009041524
7.19921875,-0.4738558350193548,0.7681159985583811
7.203125,0.1903241106279136,-0.5541693145521582
7.20703125,1.8154814026952137,0.25384877991212557
7.2109375,1.1366435516135147,-0.9921785802950135
7.21484375,1.1237501965191248,0.5517545820904138
7.21875,0.48052882636663574,0.7530512513254634
7.22265625,-1.1067696329266545,0.1541785235892165
7.2265625,-1.124503372349557,-1.70864423918558
7.23046875,0.043984850167631054,0.26215250815091873
7.234375,-0.20433154338241313,0.7849644151106804
7.23828125,1.0774851095651108,0.8329076759073765
7.2421875,0.019254383332513957,0.9408856247910952
7.24609375,-2.1481534326138703,-1.4240644390608086
7.25,0.5723139416778684,-2.811436137427555
7.25390625,-0.4755837141965202,-0.3975181393848366
7.2578125,1.4211288825341657,0.46422018055447356
7.26171875,2.9124338974158803,-0.8204882959275291
7.265625,1.910995490969649,-0.5115685649135026
7.26953125,-1.786368495845427,0.43975645140615244
7.2734375,-0.9046197414840845,-0.7314076123993719
7.27734375,-0.7814241379973175,0.4261930267518515
7.28125,2.1062255668782703,-1.7687226551444162
7.28515625,-1.0642964174578435,0.5907246437795085
7.2890625,1.8772254630600602,1.0423201857250877
7.29296875,0.32320604956436316,-0.7745956380266864
7.296875,-1.3680032399459028,-0.335461894753475
7.30078125,1.1867370695187163,-0.5343265509790589
7.3046875,0.1716074133044298,-0.3112290732131306
7.30859375,2.4259209248112974,0.3521770382702052
7.3125,-0.586246401732813,-0.2926058240553903
7.31640625,1.3954190414059695,-0.3031075195511426
7.3203125,0.8306197258131428,-0.3575434927400854
7.32421875,-1.39621755133766,-0.6750935398345019
7.328125,0.13365983957786676,-0.07763789737933219
7.33203125,-0.13468469503623381,-0.6963075810529386
7.3359375,0.6498743011729133,-0.5954650321423456
7.33984375,0.841432563721114,2.4241993717403623
7.34375,0.1270278799239178,-0.37667510262159704
7.34765625,2.0403637253170848,0.8362702269924538
7.3515625,-0.7306493791290622,-0.4320746431150957
7.35546875,1.0288166957205223,-0.6223722993108306
7.359375,0.6436395711969443,-1.1539156176949177
7.36328125,-2.092970839185828,1.1583277648041461
7.3671875,0.25282056283318394,-0.05552532806819553
7.37109375,-1.7596567824689895,-1.4717950956954977
7.375,-0.0619064633538882,0.06948653911426365
7.37890625,-1.5524239167592773,-0.9516005962737403
7.3828125,0.9547102558799115,-0.6607539598175508
7.38671875,-1.4106319387071122,0.6434237401411352
7.390625,-0.5964860942773763,0.48560927000587617
7.39453125,0.04952024909043205,1.0599413122604464
7.3984375,1.2412382888979063,-2.459825188064519
7.40234375,1.3955846517578292,-0.2922557543051089
7.40625,-0.4313451573216642,0.4706656795229503
7.41015625,-0.6414459908033012,0.13414570204900853
7.4140625,1.7280472422018622,-0.022906429963151842
7.41796875,-2.6734889723699133,0.3678687484750773
7.421875,0.039471393992723945,1.94470495273474
7.42578125,0.7135582671682923,0.25206264558513863
7.4296875,-0.13975962744339418,-0.01540067965772497
7.43359375,-0.30607791737775264,0.48548307054144824
7.4375,0.020349702885434813,-0.536066634470567
7.44140625,-1.2251340587403814,1.1720746923012253
7.4453125,-0.5242394897902325,0.5492205339952908
7.44921875,-0.30308855154439573,-0.19074492175179739
7.453125,1.0578039310550402,2.324342300685814
7.45703125,1.0994945637485323,0.8633120864885593
7.4609375,1.0761370725485693,-0.5734515524861911
7.46484375,-0.017797972767556493,-2.4885189698543044
7.46875,-0.265119856900763,-2.494378331523535
7.47265625,-0.879078130673389,-0.6318271959025286
7.4765625,0.049232141468194615,-0.53742032708396
7.48046875,0.10231259227097092,0.10835508069045259
7.484375,1.65585508641462,-1.5166609603755339
7.48828125,0.42612420630480885,-1.400589743100678
7.4921875,0.6847014358925873,1.4302015067228127
7.49609375,0.7074743759380443,-1.888421456019905
7.5,-0.0018983092732945037,0.8436204442188573
7.50390625,-1.3751724223260577,1.1684035680675815
7.5078125,0.5202029510274324,0.4383931083075015
7.51171875,-1.7797700372759637,0.6758520452098435
7.515625,-0.6563407917433487,-0.5004048720265637
7.51953125,0.39716894405401215,-0.5641530300875285
7.5234375,0.14939694399336784,0.9278485010684646
7.52734375,-0.05789689183550415,0.5324531181258083
7.53125,-0.6494132395949483,-1.0525615561634163
7.53515625,0.9517474439231648,1.218062225181762
7.5390625,0.7535600852622404,0.9588038637645572
7.54296875,-0.6841293554665206,-0.2292571277766103
7.546875,0.16093280635230908,-0.7412784945509145
7.55078125,1.390255946690359,1.0033387274335945
7.5546875,0.6694983564142294,-0.8247836707181073
7.55859375,0.14046372638797072,-1.8953226710996207
7.5625,-0.780569520991235,-0.641501835023889
7.56640625,-0.033179046509744306,-1.4093102890417957
7.5703125,-0.7975741587991166,0.17578391840183671
7.57421875,-0.6181996283910108,0.03662613579258985
7.578125,-0.43370344554385737,0.541448485560828
7.58203125,0.31523510212880573,0.3261526359686647
7.5859375,-0.9963821601730809,-0.46848671735927155
7.58984375,1.4027028241397614,-0.17145436157334484
7.59375,-1.7811910436465561,-1.7670943952440619
7.59765625,0.6437239586264296,-0.6213384925323315
7.6015625,-0.7457096124832108,0.549003384136728
7.60546875,-1.2468379852021638,0.6133749212349463
7.609375,-0.7798807442459149,-0.7950377408919884
7.61328125,-1.333040323991007,1.3680657464373511
7.6171875,0.4004555008784378,0.7593525910664296
7.62109375,0.2472072507556671,-2.6300088633259158
7.625,-0.25852441435613743,0.5225916178798629
7.62890625,1.0861775390827162,-0.9106476072608158
7.6328125,0.2592741108626233,1.1107452493427683
7.63671875,0.1889239216802192,0.4365732711758378
7.640625,0.48257119657576564,-0.9461478955915325
7.64453125,-0.41059819603853476,0.8648311969763455
7.6484375,-0.5451512085752375,-0.9362524985567771
7.65234375,0.39901701915339943,0.5427796532003495
7.65625,0.3591688712072603,-0.8036645497831116
7.66015625,-0.5427039250773491,0.44722371503820646
7.6640625,-0.7089017168916691,-0.4295873838507949
7.66796875,0.23466987281170784,-1.110544739427989
7.671875,-0.3268074030946317,-0.8835166343582902
7.67578125,1.1063549027576243,0.28575306637356573
7.6796875,-0.3301134831895802,-0.37974829814362693
7.68359375,-0.7179892115509591,0.7518270943898078
7.6875,-0.9564019013800272,-1.005429881847949
7.69140625,1.1209323921201333,0.6427232951402208
7.6953125,0.7616916768411215,-0.7298622769204963
7.69921875,-0.22856105784307434,0.16375647833870352
7.703125,-0.9671321526292023,0.573309411341387
7.70703125,-0.3012558465606896,0.1825010095648686
7.7109375,1.776711850717338,-1.264245515867093
7.71484375,-1.6363935197704054,-0.0008810741917897766
7.71875,0.736198534346308,-0.6371654548094631
7.72265625,0.8686642742129135,1.337396247563412
7.7265625,-1.68396952077549,-0.7610679061587405
7.73046875,-0.5493902658509776,-1.2228153749679822
7.734375,-1.3258517326322885,-0.3040406704209318
7.73828125,-1.5578567184706198,1.065596538343243
7.7421875,-0.29024292512079375,0.56665413439039
7.74609375,0.6346395112882066,-1.1531827186081485
7.75,0.18394463249667084,-0.7259223726466018
7.75390625,-0.14911540315148616,-0.011153219824338992
7.7578125,-0.8488412662153335,-0.14180907335516285
7.76171875,-0.37393492724499733,-0.31099442156048507
7.765625,1.195967665042035,-0.7026719555726106
7.76953125,-0.8331401618513444,-0.12621804709822057
7.7734375,1.0918727714022518,-0.5856779162012995
7.77734375,0.4947948224703322,-1.9227770359077412
7.78125,0.3544298278947591,0.9786572323525726
7.78515625,1.1082480279290436,0.6662850527373522
7.7890625,1.0794747237562452,1.089544771772974
7.79296875,1.3771723541896357,1.9044964920577567
7.796875,1.4832979150947416,0.3784178677723072
7.80078125,-0.49878122308962347,0.8832774654784991
7.8046875,-0.6084391054956249,-0.3729705919374879
7.80859375,-0.6679437561741823,-0.5691312583839678
7.8125,0.6258712518623495,0.8079570391271808
7.81640625,1.0111413152400648,-1.8390278977075118
7.8203125,0.28202874130156563,1.0570375569909538
7.82421875,1.8608361381860332,-0.6448117358590177
7.828125,1.9150667728211423,0.8335485909822583
7.83203125,-0.977500137094246,2.219320905655994
7.8359375,-1.1368523945638616,1.6955752477103028
7.83984375,-0.11502086912167071,1.3520957032366328
7.84375,-0.18001305714695576,-0.3858156779634602
7.84765625,1.278556036843468,0.24780410401549435
7.8515625,-1.2829964211316984,0.5168651240873853
7.85546875,-0.1659796576200034,-0.48098674466804486
7.859375,2.449183295915245,-1.6777485584546161
7.86328125,0.5598469164219487,0.23695233848316152
7.8671875,-0.2634592305552857,-1.9063009039839278
7.87109375,0.851495745511017,-1.116928163328218
7.875,0.9234520751597363,1.1346888484844853
7.87890625,-0.030958271085135176,0.18948070195845823
7.8828125,0.5616600114160301,0.8861053754084199
7.88671875,-0.6077706161327624,-0.3695428012903794
7.890625,1.3141746503782583,-1.0522021478187995
7.89453125,0.1871748307578844,-0.18590127124798594
7.8984375,-0.03961823107518713,0.8643649420710352
7.90234375,-1.6354400772633966,-0.491874946391503
7.90625,0.8702780678087864,1.1721647199851732
7.91015625,-0.4671950326241612,-1.0048067545078823
7.9140625,0.49138796226309756,-0.6783145421552992
7.91796875,-1.9970236191584576,0.16588072366699821
7.921875,-2.217097426767208,1.0457299485923712
7.92578125,-0.12722954213389215,1.4466782283232746
7.9296875,-1.6816651836802288,1.2764606941697587
7.93359375,-0.6910034622949697,-0.3218013318354852
7.9375,-0.9121267086087534,1.6404027518854891
7.94140625,0.16369922292935943,-0.43978934172711315
7.9453125,-0.36431668734987643,-0.5131939725592218
7.94921875,-1.3837097077356124,2.0900738139107284
7.953125,0.0037458877411506958,-1.288868854099556
7.95703125,1.0454587171854668,1.3710715862280616
7.9609375,0.6934230601693108,1.195219450138471
7.96484375,0.569531885046855,0.9031513727510818
7.96875,2.292230637726619,3.420254013242523
7.97265625,-1.2501710704208797,-1.3003692337186867
7.9765625,-0.9133907221591674,0.36800611576124825
7.98046875,0.6619252858616197,-1.061050399235901
7.984375,-0.4416565011638857,-0.30630560867500584
7.98828125,-0.5403334661095421,0.6097549068626186
7.9921875,-2.9769596148357844,-0.521859020806153
7.99609375,-0.12978573347573255,0.30921116303589513
8.0,-0.46002114931993615,-0.042065503917790965
8.00390625,-0.43014760529771406,0.8707252091624584
8.0078125,-0.7496264108479609,0.8483591576438689
8.01171875,-1.3208024644802212,-0.6375040995252766
8.015625,-0.04303598234625245,-0.31054304551798384
8.01953125,-1.5970871329119176,0.9968159925715168
8.0234375,0.028655779846041216,1.064725382001859
8.02734375,-1.0203348824230487,-0.4676856558446597
8.03125,-0.532149188198765,0.0882870299120359
8.03515625,1.1527779755882968,0.5969612046065041
8.0390625,1.5541973822505886,-0.08009852632573156
8.04296875,-1.3935741444701935,-1.7238879816301844
8.046875,0.4692478137319553,2.280957157764755
8.05078125,-0.4060357170277052,-0.2182868995309313
8.0546875,0.7921148454439316,-0.40193691923337066
8.05859375,-0.12477551982236189,1.5048075256929174
8.0625,-0.15594054391113477,0.2669202332996673
8.06640625,-0.6322465244953387,-1.1541674418225567
8.0703125,0.9019573923506791,-0.4819718076283105
8.07421875,-0.6507865065076712,-0.7151690292922291
8.078125,-0.17452756948669576,-1.5697626588787117
8.08203125,0.9294415884457387,0.17295826670440195
8.0859375,-0.8122755154084174,-1.2914440019868338
8.08984375,-0.32648671909200444,0.16181314890113405
8.09375,-0.4430663166335465,-1.3438331327978381
8.09765625,-0.3181593672729463,1.351176357830471
8.1015625,0.5925691702667111,1.307452944643533
8.10546875,0.5458126424507493,0.2438259783480361
8.109375,0.16180403277575967,-0.39476386959918636
8.11328125,-0.796564407849546,-0.5201382396153923
8.1171875,0.37602576306753555,0.48870227699577307
8.12109375,0.7457054985206436,-0.5364095862857412
8.125,-0.07402261380372503,0.6926265255281777
8.12890625,-1.1592485162054418,2.427096316999533
8.1328125,0.6345806008806166,-1.1124286683908962
8.13671875,-0.4480068951030148,-1.2510942034772385
8.140625,-0.529355882402706,-0.22293468504441508
8.14453125,-0.8814963084191302,0.2820692596386773
8.1484375,0.16022797260161925,-0.7719684018347723
8.15234375,-0.10754046058697547,-0.6220880337883795
8.15625,0.21751938019516318,0.2612048168765417
8.16015625,0.9513703875250392,-0.2897218017332757
8.1640625,-0.2764972166454895,-2.548258677752595
8.16796875,1.3238943928245275,0.7898053841123509
8.171875,-0.5192076148822805,-0.30311937300955616
8.17578125,0.128048463752705,1.9759603584856746
8.1796875,0.7047307033109285,0.6337183750061218
8.18359375,0.24219904784599275,-0.6068289523226086
8.1875,0.37697051196954234,0.8432800344224458
8.19140625,-0.3303674741890751,0.6294131981530047
8.1953125,-0.5920392912038827,-0.6080603372922526
8.19921875,-0.031065134303778913,0.4685446247681858
8.203125,-0.4699039096547574,1.069048493933302
8.20703125,-0.8311329975701685,-1.2958104249756943
8.2109375,-0.472941531188876,0.7967909950803278
8.21484375,0.42125934901747236,0.14029454667451335
8.21875,-0.7705913063869053,-0.2749957953002023
8.22265625,0.8189631145735432,0.1895037480321868
8.2265625,-0.7669114886182903,-0.24868572831865146
8.23046875,-1.3992269921901843,-0.5506168568157016
8.234375,0.6455072164971437,-0.18306287781494085
8.23828125,1.0766156813975722,1.5909335033968568
8.2421875,-0.38176971756624034,1.6403120235154547
8.24609375,-2.096603810641567,-0.6500192302322741
8.25,-0.8895531051609014,0.18456204531036133
8.25390625,-1.148986810339747,-0.28330810194145223
8.2578125,-0.08273664438242133,-1.6411557379343409
8.26171875,0.3104794794242405,0.6514887701403566
8.265625,-0.7524134260939,0.6185641424361531
8.26953125,2.094947890939369,-0.938096445523297
8.2734375,-0.28549708023460096,-0.09717059355051046
8.27734375,1.6937243562440512,-0.7109234931242002
8.28125,-1.8101319800891247,-0.18914073340583687
8.28515625,0.21783796464748703,-0.8045616026140251
8.2890625,-0.6407613875780755,-0.015799712727611746
8.29296875,0.9023544407926851,0.9970184459309669
8.296875,-0.7204270862770947,1.5091977569226562
8.30078125,-2.112357214775672,-0.23722373433288665
8.3046875,-1.7476899157352876,-0.13497978418582302
8.30859375,1.126154989003976,-0.8827419453445201
8.3125,-0.06895022891208816,0.37763109378724924
8.31640625,-1.541881748954152,1.1096029784686254
8.3203125,0.7090171867362515,-1.5452493003233656
8.32421875,-1.4801429854695916,1.592008650360021
8.328125,0.550214261010315,1.745377364448018
8.33203125,-0.5568131456752264,-1.4723310034026575
8.3359375,0.39042955136858204,-1.0211721652656105
8.33984375,0.5953689926922316,1.1520663635346495
8.34375,-2.496864629295299,0.1913005864768633
8.34765625,0.13484945119625552,-1.032315507990823
8.3515625,-0.5668832115082932,-0.8060896583728178
8.35546875,-1.360519095197846,0.7176763889042002
8.359375,-0.7034161051692399,-1.8180891047196777
8.36328125,0.589594339667852,-0.9841943043254225
8.3671875,-0.8977433509062832,0.7620226065473543
8.37109375,-0.37657920407318435,-1.4041753529136825
8.375,-0.4624197588367838,0.5474032100033156
8.37890625,0.7133959551373292,1.6525215488445473
8.3828125,0.7154163035788431,0.5425369182223081
8.38671875,0.8998539545427655,-1.1110262015581416
8.390625,-0.45889714572922524,-1.3895950135805242
8.39453125,-1.3553989526761296,0.3804958934170039
8.3984375,-1.0911769150948756,1.1391504914194104
8.40234375,-4.011043113524063,0.043476395716168195
8.40625,-0.7431414630712146,0.1231530307656136
8.41015625,0.5659684084430957,0.3354821814655323
8.4140625,-0.30554240847516856,1.3241821325216294
8.41796875,-0.48684241318997307,-1.2720925403184333
8.421875,0.14115764227967828,-0.5208851905789664
8.42578125,-0.17600839502802507,-1.4083018445577369
8.4296875,-1.8159075648352325,0.551593864261081
8.43359375,0.28624513632822257,-0.06826246067987958
8.4375,-0.14312723363227312,-2.5396334397762916
8.44140625,0.1250317935656548,-0.8355478412880121
8.4453125,0.4263034542754292,0.66901326653473
8.44921875,0.9055866751094073,-1.1280572878059234
8.453125,0.006588171927763994,1.3790537882042506
8.45703125,-0.9437958847258634,0.7048112979576747
8.4609375,0.7885150093719577,0.10357308358781525
8.46484375,0.3470801321146096,-0.07652665594012056
8.46875,0.882688501434751,-0.9573545429599201
8.47265625,1.1908610820576297,-0.214303184951583
8.4765625,-1.6088064438891838,1.01509806823333
8.48046875,0.2024484840841289,0.380823762187748
8.484375,-0.5961383352633718,0.7413022201219903
8.48828125,0.08548262266441127,0.13868359434332667
8.4921875,-1.9647326459744647,2.105888498795119
8.49609375,1.5425000185001654,1.5577840092200983
8.5,-0.25485123777127555,-1.2239812800548793
8.50390625,-0.26449322839376216,-0.854168157309217
8.5078125,0.05090550990548378,-1.5981485186900284
8.51171875,-1.3854596095473437,-0.10385760171757556
8.515625,0.7812592896525187,-1.8466559548423231
8.51953125,1.0022017460821941,-0.12257135425464638
8.5234375,0.831671402991916,-0.062306581532811975
8.52734375,-0.5509392513889303,-0.3991182455873244
8.53125,-0.014439174160979286,1.2447568603797465
8.53515625,0.5372922669794973,0.21446450755754642
8.5390625,0.3444959208167715,-1.4111227814492024
8.54296875,-0.08071069745766389,-1.0919436180687008
8.546875,1.027054786458554,-1.3969580326770672
8.55078125,-1.0386253269623964,0.6462332457701219
8.5546875,1.3319742152068952,0.20173622379167724
8.55859375,0.607418395598412,0.9569623320717825
8.5625,-0.3009550966479801,0.7070584641220049
8.56640625,-0.2033194744958225,0.29902227062026754
8.5703125,-0.7085951221864223,-1.0567623329743574
8.57421875,1.6716074146072248,0.16953529873959958
8.578125,-1.1982125956204193,0.9278769860852921
8.58203125,-0.3997631296330993,0.847273475864446
8.5859375,0.31907100736961747,-0.7496181048151545
8.58984375,0.4864503480633843,1.217659880672115
8.59375,0.15116330471238648,-0.06248536428429421
8.59765625,-0.9481333182630312,-0.2814666928682012
8.6015625,-0.53499771362361,0.7988020567205709
8.60546875,0.11497259920584443,1.056079769062628
8.609375,-1.4350070953659044,-1.107083871420435
8.61328125,-0.4696776009536135,-0.7076988269415957
8.6171875,1.4591975941347326,0.17011966102732984
8.62109375,-2.1027654486528147,1.0010302826836635
8.625,-0.4934465607929215,0.9358595644900058
8.62890625,0.023420422531190546,-0.8363374912452773
8.6328125,-0.7070836811032635,-0.2630287133332895
8.63671875,-2.004785628129976,-1.1915667097662992
8.640625,-0.12659587494451333,0.1623342140827009
8.64453125,-0.3953546155242085,-0.015786431771858695
8.6484375,0.23921007085060692,1.1162064578201487
8.65234375,1.767234928622195,0.5736537046085345
8.65625,1.5658079102076021,1.557292701749915
8.66015625,-0.09792804321813087,0.11149869134088027
8.6640625,0.10898843411428857,1.6469596423852646
8.66796875,0.27063618275482004,-1.2146116235153768
8.671875,0.3640970697045215,-0.4936153295623209
8.67578125,0.47451654756954204,0.6610326085653969
8.6796875,-1.417366715902323,0.14956477845027122
8.68359375,-0.758135284274016,2.4615947472082307
8.6875,0.5814512341837328,0.8129392439913286
8.69140625,1.36164323369735,-0.48296676538231553
8.6953125,-0.15119706223569682,0.5461832557952638
8.69921875,0.9180996718927732,0.44332474781462117
8.703125,-0.6111736355593055,-0.9390052662261085
8.70703125,-1.1347857092416802,-0.12249497500145003
8.7109375,-1.963952738599543,0.34001009326792797
8.71484375,-0.25846961413258385,0.10432830958217924
8.71875,-0.7445609846249167,0.04031734671737308
8.72265625,-0.28684744833453585,-0.5346758654067314
8.7265625,0.6524962644924449,0.055799366775932585
8.73046875,-0.43177653536356264,0.8348248212272482
8.734375,0.8204434069173052,-0.8734861626313158
8.73828125,-0.7927586435476118,1.1187401446271499
8.7421875,2.518228950290254,1.2898686760771785
8.74609375,0.9738866896603243,-0.815938710711874
8.75,-0.5168948115951922,-1.3719311924757334
8.75390625,-0.5234667318173455,0.08814384911291834
8.7578125,0.7830612044488,1.2842032190539003
8.76171875,-0.09629503353516937,-1.3680644428760766
8.765625,-0.09673191710842177,-0.4993285519588057
8.76953125,-0.6221310166892601,-1.1698191023173967
8.7734375,0.49884968652062306,0.7799230734441722
8.77734375,0.6819778642920395,1.012663809503936
8.78125,-1.1409439424313614,-0.7350270257768541
8.78515625,1.4769958813801352,0.2720823509112932
8.7890625,-0.2067430222717099,-0.06753065848597987
8.79296875,-1.150458968706129,-0.9618931698215609
8.796875,0.5381915397961297,-0.16273945634027617
8.80078125,1.926106144328815,1.4688393844029706
8.8046875,-0.9063264587538893,-0.6765967550342442
8.80859375,3.104983561089956,0.21670021743541037
8.8125,0.6450040659933245,0.41546370589221854
8.81640625,0.5156599651202163,0.7062911334135344
8.8203125,0.19235321328515656,0.028598265885179556
8.82421875,-1.3706262466457853,-0.9711166677646148
8.828125,-0.4856324016808368,-0.38854497483751665
8.83203125,-0.7915622214051019,0.07131758170132924
8.8359375,-1.7379645023548072,-0.544742130124351
8.83984375,0.5860815626442087,0.607883230254397
8.84375,0.6183064872169384,-0.3953814096903614
8.84765625,0.2774939283307573,-0.8671408262275799
8.8515625,0.03820256255817101,0.07107542804654939
8.85546875,-0.6279465216432908,-0.7428180149952248
8.859375,-0.4733964125118338,-0.39985509972915145
8.86328125,-1.167024115623085,-2.3815577029087023
8.8671875,-1.6241910298670355,-2.7282389706912253
8.87109375,-0.23060080361458424,0.9653308575663088
8.875,1.012028499976719,-0.42245485012856593
8.87890625,-1.1159276033173084,-1.3855732321118381
8.8828125,-1.4535451788476212,1.4831442183920338
8.88671875,1.0007932140923008,0.555467871723244
8.890625,0.8324619010967967,-1.1282411978263704
8.89453125,-2.0718004353528467,0.31690932193565957
8.8984375,-0.022059229798959565,0.5840245095391138
8.90234375,-0.03900848969195388,1.1848442113854039
8.90625,0.2344738320181541,1.3798538004253647
8.91015625,0.6028341617021219,-1.2549531944192456
8.9140625,-1.9271455629745082,-0.3664565265855962
8.91796875,0.7588720417986533,1.0118685756075148
8.921875,0.14324037378064472,0.029293282538457945
8.92578125,0.8192154948777312,1.1797640036346266
8.9296875,-0.19794957974232677,0.07668201431670357
8.93359375,0.06315465070528652,-0.3664649402092024
8.9375,0.4837509241326474,-1.2842912013604197
8.94140625,-0.4222391073040506,-0.44104231331169763
8.9453125,-0.958506787946864,0.6794458401522602
8.94921875,-1.1658324497749488,0.6982022869057269
8.953125,-1.9269578967603989,0.013777384407282848
8.95703125,0.6178194188624526,0.586928225914567
8.9609375,-0.19026445519930257,0.7272536020550685
8.96484375,-0.8201689353670543,-1.1819551442949665
8.96875,0.23954297763162932,-0.4696442868273533
8.97265625,-0.10174334171709172,-0.5041059130264449
8.9765625,-0.1261793217758628,1.4831007798322366
8.98046875,0.22123971892555863,1.5669580398647884
8.984375,-0.3464668223462085,-0.7628116990750258
8.98828125,0.18822798612806577,-0.35108875519203103
8.9921875,0.20692643744169742,1.9665745972884396
8.99609375,0.4438059438320598,0.4670033065786431
9.0,-0.31113101835980045,0.7363236051698758
9.00390625,-0.1673254362588886,3.0782724926746297
9.0078125,-0.01909414661360812,1.7778262916760421
9.01171875,-0.8923623545613242,-1.1345533647763761
9.015625,1.3750573842981297,-1.116915662592977
9.01953125,-0.8467755394432169,-0.9745585778918011
9.0234375,-1.902945314419967,0.5447748336227801
9.02734375,0.21158561078777693,1.408839555539133
9.03125,0.4693019238725508,1.2444882425201194
9.03515625,0.6926837657215157,-1.9813224083201095
9.0390625,-0.703536739775665,1.0527961491136613
9.04296875,0.9743804491578771,-0.7398544696493411
9.046875,-0.9427696124690841,-0.05307027730596858
9.05078125,-0.07469374857963214,0.09463258594810663
9.0546875,-0.2696955990231135,0.7475151053773148
9.05859375,0.28176232354925523,-1.5519027242014927
9.0625,0.9184674900551745,-1.2176862879782755
9.06640625,1.0128217023350363,-2.70348122559108
9.0703125,0.3434479447960026,0.3540518912259374
9.07421875,-1.8339730385912736,-0.2400199737680043
9.078125,0.16310000773959307,1.7918112140036917
9.08203125,1.0015270664369633,0.41699301545922557
9.0859375,-0.2511648731192535,-0.8586030586686945
9.08984375,0.31952117000404257,-0.25317971267199635
9.09375,-1.231589454861968,-2.4862648132373613
9.09765625,1.7419013457428743,0.39599886307908955
9.1015625,1.0858922385476613,-0.14177050787290185
9.10546875,-0.478150834848608,1.0110568383067353
9.109375,0.3552751725470308,-0.5784119119390045
9.11328125,1.2772211165573057,-1.0151941833409284
9.1171875,-0.49744765975306027,0.2521757205105927
9.12109375,0.5529435633631421,0.6531322008032875
9.125,-1.1119615716057054,-0.7446159771681612
9.12890625,-0.36747248750515843,-0.6605545470819341
9.1328125,-0.4104338209675321,-0.4899237018116693
9.13671875,0.10345951765015178,-0.43038926028417096
9.140625,-0.030964657517409545,-0.9550099848297281
9.14453125,2.2481435210923717,-0.20675529165623147
9.1484375,-1.0462257355814164,-0.051567643389430665
9.15234375,-1.634804305363262,-0.9245185157852833
9.15625,0.7517010754428883,-0.5422746198216133
9.16015625,0.9916067304209675,-0.8861197749633655
9.1640625,-0.8759317089227964,0.39838108446812903
9.16796875,0.021104135459965805,1.646098316112056
9.171875,-0.004416758572918717,-0.01404518688865104
9.17578125,-1.4876071654227896,0.9377278309503859
9.1796875,0.6339382113974644,0.04193713337390529
9.18359375,-1.0167231252451978,0.20614411281413686
9.1875,0.2149739274315347,-0.30967683141496694
9.19140625,-0.44689289256578457,-0.7812937616204679
9.1953125,-0.10984433279304151,-0.08982067032759543
9.19921875,0.8674849724449252,-0.05304995957991593
9.203125,-0.012889251274556405,0.5886711540253489
9.20703125,1.4737174969595201,-0.6010722872136626
9.2109375,1.263097469409308,1.2456342457395
9.21484375,-0.815879472951605,-1.0917929123884742
9.21875,-0.09525097427487372,-0.2787277550708836
9.22265625,-0.05648340978701702,1.4729624354579203
9.2265625,-1.8598655341995622,0.11391929409271266
9.23046875,1.1292659104710097,0.19442392544956463
9.234375,-1.2291064018048985,-0.9516280295382857
9.23828125,0.24369422073870864,0.20456934583905503
9.2421875,0.09511503434821023,0.04989207451551919
9.24609375,-2.5893686604984247,-0.8366753581218284
9.25,-1.1837347558796587,1.4125100136028783
9.25390625,0.6051295614833004,0.3447128627849068
9.2578125,-1.0923430940427383,0.4889229354150482
9.26171875,-0.278697493405529,-0.2289763494439326
9.265625,0.8163172275713348,-0.09413704235631368
9.26953125,-0.8516532769337979,-0.7413464276177897
9.2734375,-0.5832097495856197,1.8645722428188038
9.27734375,-0.43632250049398225,-0.586629003574581
9.28125,-0.11470508170674326,0.4082231081797593
9.28515625,0.4496550056153218,0.5891770994851557
9.2890625,-0.3168215794277573,2.084768314045298
9.29296875,-0.25500517884284973,0.5989299665499342
9.296875,-0.9945748975540841,0.28886872629755367
9.30078125,0.4899768139570982,-1.1758458285691453
9.3046875,-0.07789571405187312,1.4980037028467665
9.30859375,-0.5490537564453801,0.815294349684525
9.3125,0.24883557053751462,-0.517595255508677
9.31640625,-0.8520319194895248,0.14701377551993794
9.3203125,-0.526962534947629,1.204688032161758
9.32421875,0.5873462668091192,-1.0261572718105896
9.328125,0.8979136343505015,-0.5263555043549544
9.33203125,-0.9615126471405101,-0.17125109073269523
9.3359375,0.3835546279232943,-1.1236448823346645
9.33984375,0.7759800743556652,0.11712705038837576
9.34375,-0.8790517146389287,-0.7405604885463847
9.34765625,-1.2353837278076787,-0.26814938473481714
9.3515625,-1.194882399819265,1.0940321242429147
9.35546875,-1.046499989105549,0.08704313548630588
9.359375,0.6121452943897918,-0.6676042058960279
9.36328125,2.2978692353612207,0.9376162074664753
9.3671875,0.15386027104124347,-0.4670004099638228
9.37109375,-0.36908481254340636,2.1355502508026465
9.375,-0.6205654960689989,0.1769344296466501
9.37890625,-0.359175942401834,-1.5278124442928838
9.3828125,0.6873722431935347,1.078409507687605
9.38671875,-1.4106508500745076,0.6269986436052329
9.390625,-0.4669533631596924,1.1676826453890523
9.39453125,-1.030222024364998,-0.9210122597689068
9.3984375,0.6430598046341373,1.012412166162726
9.40234375,0.31296410083920423,1.6079490354824706
9.40625,0.680324569077081,-1.3012308637487042
9.41015625,-0.5579703122421634,-1.0840333242507556
9.4140625,0.24734889306511906,-0.17243362730282585
9.41796875,-0.47073663219606604,-0.309761342875706
9.421875,-0.2955732229861345,-0.45518913216836077
9.42578125,-0.528162105452281,2.0085860812148644
9.4296875,0.244130661693189,1.319924799628662
9.43359375,-1.5589973449753411,0.7674701348129086
9.4375,-0.1819055145952767,0.7695432984912232
9.44140625,0.017115577901590767,-0.5309752806314136
9.4453125,-1.5082655251581554,1.5068397813586225
9.44921875,0.6677098148257881,1.4095959425986078
9.453125,0.49614649522412285,0.10875506420627173
9.45703125,-0.5911722145837178,0.8887790151638427
9.4609375,-0.9825651750361699,0.26171612510383124
9.46484375,0.43136389910563566,0.5433990629991574
9.46875,-0.26033889429513185,-1.6584912302264454
9.47265625,-0.863584191640399,0.3022486493889764
9.4765625,0.5967774394950239,-0.00806193249837549
9.48046875,-0.157893905250862,0.3590795534350427
9.484375,1.1097864788656098,-0.25142770384257807
9.48828125,1.5365128244022088,1.2974952848754877
9.4921875,0.4203770944655312,-1.5578013166182405
9.49609375,0.25571289004476133,0.5778753396481568
9.5,0.2433240442493525,-0.48484797753688386
9.50390625,0.5144902220012905,0.36998190200972453
9.5078125,-0.49142282897485884,-0.10068902977351381
