time,ecg,ppg
0.0,0.22295498382253906,-0.8142181077395557
0.00390625,-1.2206886408759619,-0.2060488238490658
0.0078125,0.27675364529796725,0.661819055374952
0.01171875,-0.11198608734107404,-0.40567959151493055
0.015625,-0.6549920187217306,-2.776631272833054
0.01953125,0.9337266097319751,-1.7342921758332674
0.0234375,1.0277869531766017,-1.2011154546415241
0.02734375,-0.9844216248632585,2.2867049200953207
0.03125,0.12814707495062663,-0.15810172152867605
0.03515625,-0.4896777629297317,-0.2022874202734081
0.0390625,1.6886769641474497,0.5103648854786862
0.04296875,0.16528366105443026,0.9882443069334782
0.046875,0.46441158758066337,-0.8134761908531599
0.05078125,2.181046066233129,-0.650419266465227
0.0546875,-0.5573755225371243,0.8971036183171995
0.05859375,-1.4233859005749858,0.17909480555906632
0.0625,-0.23010894853835245,0.446382847868993
0.06640625,0.38029471692036837,0.07875192077325507
0.0703125,-0.8591263623420277,-3.483994445979812
0.07421875,0.1353709150531345,1.0627498229843368
0.078125,0.9493165113139092,2.0083960349189107
0.08203125,1.2740984408392373,-0.7881660952142595
0.0859375,-0.05328364274206803,1.3568028428246917
0.08984375,-1.830756896433768,-0.49741344004268556
0.09375,-1.0109870610663272,-2.4057226070051136
0.09765625,2.57910049246704,0.22339935042383616
0.1015625,-0.6252070510536876,-0.4984505280802065
0.10546875,-1.2400005721471454,-0.46678585716564924
0.109375,0.8919058148019378,0.26574541664677215
0.11328125,0.6251861082961226,-0.017044026602393448
0.1171875,0.21785532792287723,0.4760686640699212
0.12109375,0.0769953469051459,0.7238423040296047
0.125,-0.2573483870852745,0.778409848901606
0.12890625,-0.36410348261282155,0.02647531524890947
0.1328125,1.2827659819779453,-0.7473590243714637
0.13671875,2.1977855491198155,0.9086667183655109
0.140625,-2.4020655295227145,0.6706923727260119
0.14453125,-1.055093168939729,0.36320196596055426
0.1484375,1.8515621432300504,0.4996723829477795
0.15234375,1.2095617458216554,-1.0566998037335804
0.15625,1.833642909832548,0.2353866169510915
0.16015625,0.484531747320871,0.002545844164040533
0.1640625,-0.6517597499811398,-2.476118704407991
0.16796875,-0.12679912340062818,-1.663453636836052
0.171875,-1.0522008424706262,-1.9884486123023446
0.17578125,-0.47107946972619374,-2.838117904335013
0.1796875,-0.2980966275350032,-0.07030395913399727
0.18359375,-1.340789508692586,-0.36485879254457915
0.1875,-0.8411714495710545,0.9216895484903043
0.19140625,0.2614473143673848,-0.6574323074606608
0.1953125,-0.732771833231208,0.3010198189337942
0.19921875,1.5286372302275697,0.8789557305615225
0.203125,0.10755743437014459,-0.7442194479265595
0.20703125,-1.0046615442755205,-0.9078583018253339
0.2109375,-1.3668569574076292,0.5393048613561735
0.21484375,-1.472379320785021,-1.6448855046134838
0.21875,1.1982280329474195,0.6061532046112245
0.22265625,-1.661185782585393,1.0483026117719954
0.2265625,0.6142422833425888,-1.203642325320248
0.23046875,1.0492922883125142,0.7865497955171015
0.234375,0.9517314962059391,-0.06593174616166941
0.23828125,0.5858307790931329,-0.6389568829856207
0.2421875,-2.445886483816107,-1.800116052002111
0.24609375,1.1426351524208394,-0.4906486174605365
0.25,1.145710150311386,-1.1044687936930309
0.25390625,0.1745927002951887,0.10935381887814032
0.2578125,-0.18550279571012934,0.24486627324367177
0.26171875,0.12646684710139347,1.3521883756538635
0.265625,0.3673537711739169,0.4407420248497223
0.26953125,0.27980512530280255,-0.6652870727476127
0.2734375,-0.9944610144251281,-0.9147373361700297
0.27734375,0.7147754303377697,0.7408262919819899
0.28125,0.37826625239486306,0.6051914912125709
0.28515625,0.47011285987552637,0.380016211341552
0.2890625,1.3053930020698183,0.022014488194089514
0.29296875,-0.7038207960002407,-0.8670633323940566
0.296875,-0.1499355845858077,1.242546860322954
0.30078125,0.9261799454841448,-0.5182926180502566
0.3046875,-1.4392139883231085,1.2779053605637882
0.30859375,-0.730161471966875,-0.006491232604659635
0.3125,-0.1591829096172721,0.3951409004163387
0.31640625,0.29416891732498024,2.127654307370557
0.3203125,-0.5434754060754904,0.6697696792494364
0.32421875,-0.3501344550604304,-0.813403040091416
0.328125,-0.8824644070996827,-0.31158344230619556
0.33203125,-1.1847708413737754,1.7884168747302964
0.3359375,0.08288737565105443,1.4391994546572804
0.33984375,-0.7517647477968726,0.09412368221436329
0.34375,0.519763539071873,0.7910350404936938
0.34765625,0.08739501987525973,-0.3469238170040497
0.3515625,-0.1159093920648858,0.6004456259478086
0.35546875,-0.7446136568019864,0.04666546405148415
0.359375,0.03365232602440226,1.1786452471486164
0.36328125,-2.1344498144055386,-0.3856766339016384
0.3671875,-1.4059049140127078,-0.04588335060657086
0.37109375,1.4738808083769712,0.6729164873148915
0.375,-0.09665498304171521,-0.6670916673288994
0.37890625,-0.7289644273554143,0.7410617863916102
0.3828125,-0.880443634582372,0.6846785723987198
0.38671875,-1.0979394005368037,-0.3562632699380806
0.390625,0.6386536028417972,0.5336728101783098
0.39453125,-1.3678296310169533,-1.4683999232736822
0.3984375,0.2035530329922552,0.07487712865197149
0.40234375,0.0854906812649267,0.2693707033110053
0.40625,-0.9522976844223684,-1.1753902496886326
0.41015625,0.34451729180559554,-0.12010144146994559
0.4140625,1.9210207884233494,-0.34229378401760013
0.41796875,-0.6144267573229192,0.9183317169393126
0.421875,0.24757128005757362,-1.21367723145216
0.42578125,-0.8998929952330574,-1.210061538331195
0.4296875,0.47505041931449826,2.2464994723597562
0.43359375,1.5737437026815375,0.10559064237440408
0.4375,1.973409152056173,-0.148086986376462
0.44140625,-1.1108425686165126,-0.19650121660594927
0.4453125,0.8495327455319924,0.4496356468689083
0.44921875,-0.41835884669375434,-2.0691253378774324
0.453125,0.9334195807618907,1.2245965090031419
0.45703125,0.12198907534496192,0.7951497038741594
0.4609375,-0.02782986244898046,0.023084885894505792
0.46484375,1.5345676249338482,-1.5662330290586677
0.46875,-0.3026131085550097,0.5925076849853209
0.47265625,-0.22433010800873399,-0.7125886565878401
0.4765625,0.2524193279009085,0.669851520537448
0.48046875,-0.24645165757601223,-1.424750442286516
0.484375,0.9742293038076347,0.7648421094551023
0.48828125,-0.7068348164183,-0.3806834286372996
0.4921875,-0.21391758732029192,-0.07198670465584898
0.49609375,0.9249578548335895,1.053927312435832
0.5,1.1132454464590655,-1.2850093129142253
0.50390625,-0.07359553517032344,1.756913989715362
0.5078125,0.08974549265261098,0.8167931866005268
0.51171875,-1.3660093084983163,-1.7955255406629378
0.515625,0.13406287987766632,0.11025109881961866
0.51953125,-1.9038045744457852,0.6342085537009028
0.5234375,-1.2586962059277844,-0.18923190706878154
0.52734375,0.5173139355727643,1.316964372832899
0.53125,-1.3862410299586072,-0.3139716555896739
0.53515625,1.770595699539086,-0.11921120597316692
0.5390625,0.1324739261675618,1.8035396532014283
0.54296875,1.8914841476431026,0.13409593982318155
0.546875,0.3667751046805443,2.0014112960560384
0.55078125,1.2934757963868273,2.83908561760883
0.5546875,0.33998662107629657,0.07806386929083704
0.55859375,-1.786688573307807,-0.6526278015202069
0.5625,1.8136574005780426,0.6613518570151652
0.56640625,-0.24923238760287414,-0.1886881221862914
0.5703125,-1.3924017659339505,3.8265030670161146
0.57421875,-0.21177891586006178,0.22206396266778367
0.578125,1.1692195725369094,-0.7272371358737149
0.58203125,0.19706932973068048,-0.7398393484393944
0.5859375,-1.8798028900834534,-0.4273529369102967
0.58984375,0.8571600528728064,0.14188150621899984
0.59375,-0.48402853786950895,-1.4589125647006806
0.59765625,-0.1415707608877559,-0.6648976614344707
0.6015625,-1.7152115029693584,-0.21443858649512007
0.60546875,-0.7984523359991572,-0.42380603897390146
0.609375,0.306834660195322,1.1025210049930525
0.61328125,-0.47165048092370104,-1.156717160025408
0.6171875,-0.7563756301531809,-1.6738046829262907
0.62109375,0.5725980563748216,-0.4343884265442355
0.625,0.22803357413995326,-0.7961450704124862
0.62890625,0.39007587695838847,-1.0954500621428898
0.6328125,-0.837940040153291,-0.15818428212312768
0.63671875,-1.3295813455626277,0.5603924479255122
0.640625,-0.3281202200054598,-0.1343095208733658
0.64453125,1.2390544177433813,1.8340297193993396
0.6484375,-2.4320055869369304,0.19533792618945334
0.65234375,0.7326237627308682,0.28337155829866045
0.65625,1.3735828944351365,0.6903030832637677
0.66015625,-0.45946267464573715,-0.2517148063084825
0.6640625,1.7045940678675757,-2.0949812952397093
0.66796875,0.6564523224116077,-0.878243452324252
0.671875,-0.5057857977075358,-0.7641634201492067
0.67578125,-0.6190110071605882,-0.21606814211470343
0.6796875,-0.7471841014920813,-0.7679501715104678
0.68359375,-0.5844544414430396,-0.3140269990946526
0.6875,0.008742629260878295,1.3860548069363563
0.69140625,2.2789382064295145,0.13234566752463214
0.6953125,-0.8598986283843684,0.3548952796949693
0.69921875,-0.09472775903362145,0.31437777420942664
0.703125,0.8657021442490483,1.6955287838521163
0.70703125,0.19865580545550715,-0.2527907632359113
0.7109375,-0.5040338965878814,-0.684901695851441
0.71484375,-1.443715761170099,0.7523083391700783
0.71875,-0.32722045995830423,-0.01438717485958343
0.72265625,-0.011793105744595175,-0.3675117273092739
0.7265625,0.1602698185870286,-1.6025051136829485
0.73046875,-1.0657533279553255,-0.04708464317440875
0.734375,0.5413235315797091,0.5205328072549177
0.73828125,1.475374219334242,0.8510911707136467
0.7421875,-1.0192646766080176,-1.696915225149485
0.74609375,-1.755307686327748,-2.0672024540938607
0.75,-1.562270711812943,-0.03819845212166675
0.75390625,1.139468969206926,-0.2740773206645431
0.7578125,1.8343633344107197,-0.5927715237934303
0.76171875,0.4531204741037807,0.3565355436318928
0.765625,0.6642771868373641,1.3369998245317662
0.76953125,0.501293912410905,-0.09435699825266683
0.7734375,0.06211539095002994,-0.17499710712338606
0.77734375,-1.1131054897385166,-0.7629023583400245
0.78125,-0.5367384636330254,-0.016315298143777343
0.78515625,-0.8676724857242317,-0.5398053988860785
0.7890625,-0.26870136139411493,-1.8169632684716421
0.79296875,-0.5980074192639776,-0.6485376638307107
0.796875,0.9535031083530685,0.7135533380344268
0.80078125,-1.1233966131030166,-1.607085500422487
0.8046875,-0.2524797151999413,1.0514754087785982
0.80859375,1.0255437660590085,0.9694762236012989
0.8125,0.5246909879231542,-1.556743749738767
0.81640625,-0.6824066833336148,0.07610679650524665
0.8203125,0.17150387599438105,0.7244266345781677
0.82421875,-0.9538936218942651,-2.8434335641339388
0.828125,-0.24825879813612234,-0.13357563611587098
0.83203125,1.1394456945653186,0.6942974801045579
0.8359375,-0.26434568575759165,0.7582548903851082
0.83984375,0.10457473293715265,0.717488005650829
0.84375,-1.2738688836831802,-2.001105730829097
0.84765625,-1.0773596730623949,1.5116548050987815
0.8515625,-1.3622357078749128,-0.8751528140080729
0.85546875,-0.359614795451501,-0.8415581952316871
0.859375,0.41935252758982533,-0.2183785110976518
0.86328125,0.6592264193072307,-0.43387064198450126
0.8671875,0.4254552731779286,0.37042053297423755
0.87109375,-0.46043539012749696,-1.0091031605776126
0.875,-0.3302083198571543,0.6776034602117396
0.87890625,-0.05768239312913246,1.2154518776526704
0.8828125,-0.9905338038799026,1.6313921089482697
0.88671875,1.4223925986863468,-0.6915066754707988
0.890625,-1.9331550452869815,0.6061697031109385
0.89453125,0.07169030326002049,1.3999788162642246
0.8984375,-1.0711328538251739,-0.788178306473464
0.90234375,-0.5791436153992966,-1.4423824746003249
0.90625,-1.0423716538377907,0.5754881391206458
0.91015625,0.7776967865656507,0.7345942525481066
0.9140625,1.8234415784726463,-1.5356575248172482
0.91796875,-1.0350163845723113,-1.225813045343528
0.921875,-0.44416698386073056,-0.49088750049226504
0.92578125,-0.1924807464566461,0.48692726473120646
0.9296875,-1.5320750484841954,-1.5930344570832216
0.93359375,-1.8423539974687644,2.5298075321586913
0.9375,0.5120836864492148,-0.07575983977659485
0.94140625,-1.7129447218709024,1.1579447846709994
0.9453125,1.6356540446960115,0.006476942440289963
0.94921875,-0.9640764586779199,-1.3797619623059203
0.953125,1.1237740178583604,-0.1834803315554539
0.95703125,0.5835624591102964,-0.9775108163749093
0.9609375,-1.1028078709278506,1.1136385705346696
0.96484375,2.384558179281317,1.0771638201984046
0.96875,-2.7899312096051405,1.774844541748646
0.97265625,0.4952189681719701,-0.21072219624028724
0.9765625,0.5163363113269749,-1.083555359780521
0.98046875,-0.3064707567493141,0.7347028815275496
0.984375,-0.4740688930641381,-0.9612576455751021
0.98828125,1.4144168649065358,-0.18497034624160466
0.9921875,-0.4385134324624431,1.5456129501179778
0.99609375,-0.7231545793391612,-1.2187890229493608
1.0,-1.1744278327498292,0.6370589445183961
1.00390625,0.04149988956588946,-0.7780444546176052
1.0078125,0.6113571714801669,0.481874474245984
1.01171875,0.5293099549681586,-0.943718559357538
1.015625,-0.8622240862523778,-2.459224192032712
1.01953125,-2.1050466720684105,-0.872044341705405
1.0234375,0.3628478053672174,0.3183595213483394
1.02734375,-0.4977007715489541,-0.5437289527410657
1.03125,-0.6248345333878131,0.765480362855916
1.03515625,-0.6846908891390012,-0.31086957104808266
1.0390625,-0.19479094136596825,0.6614451825395302
1.04296875,-0.07332556696841522,-0.48679211457331395
1.046875,-1.338122558631194,-0.3963450020083466
1.05078125,-0.18626297044198126,-2.0050544231793035
1.0546875,0.9629657317400844,-0.11708339397173378
1.05859375,-0.5894177608817451,0.28204358341465025
1.0625,0.6075790567172984,1.006186486751377
1.06640625,-0.6370459354968498,-0.07285572584347877
1.0703125,-0.6147823915338798,-0.3583069239825141
1.07421875,0.23749561771904815,-0.2249177728277199
1.078125,-0.5134658294530166,0.456744102221394
1.08203125,-1.4185682051074828,0.4065730193434227
1.0859375,1.5558023633485367,-0.1283217914682774
1.08984375,-0.8254313406123124,-1.0103185708620686
1.09375,-0.7530018979546872,0.5846796026356519
1.09765625,0.9029123034283496,0.26720649987691275
1.1015625,-1.5667287294808536,-1.4768846752277651
1.10546875,-0.4665909599343927,-0.6093143195608178
1.109375,0.635645225606891,-0.038733386370546304
1.11328125,0.7394602870130236,0.3488910448935158
1.1171875,0.02509543207871065,0.3695048293938385
1.12109375,0.037571553410811635,1.2002595542405705
1.125,-0.5432151735208884,1.0893166839972492
1.12890625,0.6700071639394051,-0.5351335110741305
1.1328125,-0.17320240246869015,0.29833074653733893
1.13671875,1.0294796456678033,-0.6770634478420481
1.140625,-1.3506185438137386,-0.20368160452753112
1.14453125,-0.6757454033939088,-0.4302563584722903
1.1484375,0.3395192083066658,0.13012705458842677
1.15234375,0.07244446567043555,-0.47830698359366014
1.15625,0.6636664896555274,-0.12482734169149255
1.16015625,-0.08234877024785128,0.21195323198918106
1.1640625,0.07135925340791835,0.12206515553620124
1.16796875,0.7486998711600965,0.33777043730867146
1.171875,-0.4726821270391577,0.023014287634446153
1.17578125,1.5639220563769352,0.43667576710411826
1.1796875,0.7969835945846638,0.7524340202298632
1.18359375,0.5400880624293429,0.9070448561514411
1.1875,-1.327645557426251,0.7743183686571151
1.19140625,0.6731606754212847,0.5464573021548234
1.1953125,-0.020903932982713178,0.9827531552680479
1.19921875,-1.49949116877716,1.1134021727589145
1.203125,1.1010919328988837,0.22832559199796523
1.20703125,-1.6142780875540785,0.2934088621937832
1.2109375,-1.166477447556411,-0.30327301652178484
1.21484375,0.16978941001075,-0.42184801120183696
1.21875,-1.3606981784992311,-1.6237338939952721
1.22265625,-1.2700791636767377,1.1849360868013286
1.2265625,-1.1380889718416891,0.688256791133447
1.23046875,0.2842289747758151,-0.004235221369418176
1.234375,-0.7129405076377634,0.36742501181934756
1.23828125,0.8820937369304365,-0.08188272102766443
1.2421875,-0.7706084068403773,1.0592992422917642
1.24609375,0.17773225700974676,-1.138993668609274
1.25,-2.7802004151900794,-0.7350220388618659
1.25390625,-1.1677386080946541,1.0937230534784188
1.2578125,-0.07849494060312684,1.193428725136125
1.26171875,0.025637082579170044,-0.551738119013262
1.265625,0.953077628142949,1.5810845212000273
1.26953125,-0.354741038764251,1.0471330215638448
1.2734375,-0.4334077062929456,-2.4975451159675015
1.27734375,0.3477400889601478,-1.6998820159343597
1.28125,1.929886137539274,-0.041154016992765274
1.28515625,0.4816006333809482,-1.3757166192759915
1.2890625,0.5358872550846574,1.3101318861844566
1.29296875,-1.5769446068586852,0.09190020656756215
1.296875,0.7684662267716692,0.2145322589633672
1.30078125,-1.4389558477963014,0.8098626591830163
1.3046875,-0.12536370028323682,1.196309580726909
1.30859375,-1.1453376878746768,-0.7728542622464207
1.3125,-2.004667555153869,0.326915882994242
1.31640625,-1.0193307829547351,-0.7257578737004796
1.3203125,0.9902979772265325,-0.7883898501710609
1.32421875,-0.732684399270525,-2.3466668963528137
1.328125,0.6025257434954158,-0.4677034450338604
1.33203125,-0.7622361790904107,0.4297789532944735
1.3359375,1.4816148250102879,-0.9157780781785803
1.33984375,-2.2232218434254376,0.38689187329670544
1.34375,-0.5541032767831694,0.9673976319342538
1.34765625,-1.0010434494845575,-1.8620791761501483
1.3515625,-1.313289766667707,-0.3468822070941136
1.35546875,-1.3384525189634038,0.9639682161079518
1.359375,-1.006692947800293,-1.2073894478309994
1.36328125,-0.009408899897301046,-1.7640170215571829
1.3671875,-0.8333660651858273,-0.18498295110487017
1.37109375,-0.29921796492175123,0.3372208034246684
1.375,-0.7655952565957963,-0.2541236040466162
1.37890625,1.421298689119763,-2.0805853479338854
1.3828125,1.3050120657866915,1.0355127488113578
1.38671875,0.32609110666449204,-0.6305043853179315
1.390625,0.20436087408438006,-0.7365706929836198
1.39453125,0.9135639910299068,1.134842976235452
1.3984375,-0.9715737004095621,0.16793162220840202
1.40234375,0.7339165215590835,-1.6167862394775536
1.40625,-2.032637981287208,0.4758973276837643
1.41015625,2.2724483988017483,-0.3158665267766107
1.4140625,-1.3399508300170135,-0.2865628506268154
1.41796875,-0.6332813229043516,-0.7921505546722678
1.421875,-1.0437299801405149,0.20000779915473704
1.42578125,0.9408204524658895,-0.41442620165521377
1.4296875,0.6224882508699336,-0.2040850573164767
1.43359375,2.0913649363022913,-2.1607308333638633
1.4375,-0.7959913038274501,0.13913250285462817
1.44140625,0.29784925266897533,1.6376002709598947
1.4453125,0.06283796871341357,0.9185753091349749
1.44921875,0.5826807288851266,0.7051409671453374
1.453125,-0.037526304059712794,-0.2409535588316564
1.45703125,-0.4054780890837309,-0.5358277854477622
1.4609375,-0.030114506458978212,0.9305598058400484
1.46484375,-1.028893083081346,-1.1384740768553434
1.46875,1.0064563025921283,0.14362015394944375
1.47265625,0.6294325597709058,0.9559894944565995
1.4765625,1.7202814032323284,-1.431418774256335
1.48046875,1.6939880063248707,0.2361547329384664
1.484375,0.5102969575753061,0.8215131525960833
1.48828125,-0.10977686878077512,-0.49895263840045634
1.4921875,0.1866892516945037,1.4873449920055346
1.49609375,0.8669070078199054,2.1222937131643804
1.5,-0.4768425690136247,0.24849371741854812
1.50390625,0.9441647060773998,-1.475583410915924
1.5078125,-0.4403016642133884,-1.6479635429509452
1.51171875,1.5606843738302554,1.3033737632814935
1.515625,0.8730151910889786,0.8725064245015258
1.51953125,0.5646303442472198,-0.3483845505256091
1.5234375,-0.3682195509156358,-0.5899000169989319
1.52734375,1.7540769270487135,0.015205545130331047
1.53125,-1.8389675369721816,-1.0425753645001523
1.53515625,0.4721963627072352,0.5041206369821575
1.5390625,-1.795285453037046,0.6971905878424376
1.54296875,-0.5153606344992148,-2.479841549993812
1.546875,-0.10829036359897846,1.9817734029962335
1.55078125,0.28054240796340124,0.1922993460059607
1.5546875,-0.4798468468431327,-1.0987583901040059
1.55859375,-1.0664912392000458,-1.2387067127418636
1.5625,0.13757501340640238,2.5041069319629736
1.56640625,-1.1201778309319061,0.34409754397196063
1.5703125,-0.47048230481387626,0.16742455649302082
1.57421875,0.07413246141229499,1.0487044415281845
1.578125,-1.5083082983584888,-1.4875011038441253
1.58203125,0.23520652653854968,1.0612882497173814
1.5859375,0.7543291102572993,-0.8988973880671202
1.58984375,-0.8120393021470238,0.942955616917396
1.59375,-0.06844756423292536,-0.7231432728430292
1.59765625,-0.7060935980666369,1.653526730968725
1.6015625,0.12489823404150044,0.7497686877634996
1.60546875,-0.5726389523223818,0.49529862660610885
1.609375,-0.8277729361135016,0.6203756726980448
1.61328125,1.2490924543918223,1.7466801555443476
1.6171875,-0.3413708161924205,0.13148646825640886
1.62109375,-1.243271436047613,0.08871506896313444
1.625,-0.6783855063339556,-0.10795382084761737
1.62890625,-0.19630937385377428,-1.4257900441023834
1.6328125,0.26137967723663236,-0.6674404476140151
1.63671875,-1.5057105890969769,-0.08066844121590795
1.640625,1.4308319888327472,-0.7947883813338031
1.64453125,-0.23839546634556003,0.5805699389749045
1.6484375,-2.1503854848931807,-0.06898408326680916
1.65234375,-2.6143069743898706,1.051246719758625
1.65625,0.617343123893967,1.4431104824727832
1.66015625,-0.38527277304727603,0.891393978024892
1.6640625,-1.5959589105941556,-1.1020289574995221
1.66796875,-1.1659213602644867,-1.7785793997816606
1.671875,-0.21854419316798399,0.3202314620694514
1.67578125,-0.5423496213753495,0.24221491579599982
1.6796875,-0.9795507562540774,-1.0197060575603945
1.68359375,0.28670802300714315,0.3301685653052538
1.6875,-0.23326330441152368,1.6029420990951657
1.69140625,1.4820009983587876,0.38903805615643544
1.6953125,0.7922219950193171,-0.4631221016081673
1.69921875,1.2138355748599652,-0.6119570791172152
1.703125,1.6215507220602885,1.4760155281986425
1.70703125,-0.11999906389736432,-0.15923403733044114
1.7109375,-0.7044570566127568,-0.14136628249106648
1.71484375,-2.145914488928217,0.3350062801365746
1.71875,0.4081694672195307,0.2525457436565842
1.72265625,0.9109761111356122,-1.2505189931564082
1.7265625,0.08635376713135383,1.575426086684326
1.73046875,0.5149226452587624,-0.857461975455263
1.734375,0.17591858416874948,-0.08617752447249696
1.73828125,0.24231250395005072,0.478904583596271
1.7421875,-0.01505740776478217,-1.381933298420312
1.74609375,-1.9703759785437596,0.3574830205683183
1.75,-0.8687189461862591,2.3560636299855795
1.75390625,0.5045622388541503,-0.6572289503104772
1.7578125,0.5533930022311471,-3.036548378355928
1.76171875,1.5355898508514831,-0.6073836092011669
1.765625,0.28211723745472517,0.3294283794149756
1.76953125,-0.8567397002302455,-1.7831956422993716
1.7734375,-0.7403760246788686,0.02430088485882847
1.77734375,0.38989569856517636,-0.17373628623419668
1.78125,0.5440448963948875,0.26905240789933715
1.78515625,-1.3709697280611413,-0.7916418998929822
1.7890625,-0.8428126402026335,0.5185025395647505
1.79296875,1.5342615204954058,0.5928086888900584
1.796875,1.4374219400584398,-0.04665128569660138
1.80078125,0.8711285934873616,0.4505648066439441
1.8046875,2.385482219237186,0.26022222261989736
1.80859375,-1.6746680245160905,-0.9287424534562
1.8125,-0.30234481467092367,0.16684068377673797
1.81640625,1.573517935305712,-0.4604733086323851
1.8203125,0.24627803427058953,0.7437323043935837
1.82421875,-0.7552351026078795,0.4266844811646156
1.828125,-1.36339930645124,1.3317352382964633
1.83203125,2.8199514326800603,2.6438528250084716
1.8359375,-1.0128179132432436,0.13085205479607517
1.83984375,0.1520926643571928,0.9839158120186066
1.84375,-0.32451795821591956,-0.22633787325383573
1.84765625,-0.7221913114216844,0.3380120252725817
1.8515625,-0.15570340587882983,0.42854692141322165
1.85546875,0.313531626418122,0.005355110444383099
1.859375,0.13970306552549686,0.017896019042907454
1.86328125,-1.703627442783304,-0.8330842613670973
1.8671875,0.014590086277953076,1.4211320677790593
1.87109375,0.17589231902472754,-0.05098952117330651
1.875,0.5930067349279418,-0.806748244023535
1.87890625,-0.7382629775692049,-1.8432571444463368
1.8828125,1.531234653461371,0.3242585130981267
1.88671875,-0.002171534507180092,0.3650870808537815
1.890625,-0.09099351163337363,2.453058630670515
1.89453125,-0.21237540620403755,-0.024955247812727472
1.8984375,-1.346323877038312,-0.9187806927873592
1.90234375,0.10284186642759109,0.18273530731634996
1.90625,-0.6398933278831092,1.0477622090842593
1.91015625,0.6373197884690451,-0.1733414637166648
1.9140625,-1.2028032637039983,-0.4360684994966487
1.91796875,-0.706122427803418,1.6884763352926928
1.921875,-0.7798530669380256,-0.5623007059063874
1.92578125,0.38149636682528437,0.24580078894144053
1.9296875,-1.1814549436208766,-0.597194198915296
1.93359375,-0.6906871420054705,0.5182000721026596
1.9375,0.6742915643352446,0.04231662984396713
1.94140625,0.5069704165847616,-1.1652238248079336
1.9453125,0.7251590349413013,-0.4945897480077009
1.94921875,2.9163403089712503,-0.5781525362419543
1.953125,-0.4142274872751938,-0.3905722411129761
1.95703125,1.1848189017462296,2.647285242119992
1.9609375,-0.2129340292624686,0.36645356991158934
1.96484375,-0.33817889853938427,0.5601018724040234
1.96875,1.0289822892996843,-1.114237473252957
1.97265625,0.49953087492240617,0.40849661004496274
1.9765625,-0.2725747997451404,-0.07896881425619406
1.98046875,-1.5396205035003152,1.097139191545875
1.984375,-0.7691646190297531,-0.637473137804581
1.98828125,0.1899757240738219,-0.9630039772471567
1.9921875,0.9517215073179572,0.8574365774462468
1.99609375,0.3807447211294866,-1.0163996319062216
2.0,1.3257842138851015,-0.8604724990401273
2.00390625,-0.34796361776410617,-2.072069384999101
2.0078125,-1.8221092228430742,-0.22974310824544608
2.01171875,-1.2659218199140891,-1.3542376262907192
2.015625,-1.0948393769965725,-0.14088153643464466
2.01953125,0.8180298998303087,-0.7347531563169238
2.0234375,-0.48126130946147966,-1.1917531755909476
2.02734375,-0.4318316974852315,-0.19782694010740037
2.03125,-0.10043867161236936,-1.1027667519011195
2.03515625,-0.978366634829838,-0.5581388982821218
2.0390625,-1.1044543538145193,-2.07421378119484
2.04296875,-1.304401904197844,-0.6833309136104526
2.046875,0.5155588413072724,-0.0601787090056396
2.05078125,-0.11888141524124532,0.0749964347009178
2.0546875,-0.3251577985743442,0.5307459164651089
2.05859375,-0.7081570556936668,0.3039216678320642
2.0625,-1.6467496795052354,-0.24303921973773115
2.06640625,-0.8947143703946601,0.25338941248934543
2.0703125,0.1646977359007373,-0.7812993704410922
2.07421875,-0.6109533816449808,-0.18373426233984755
2.078125,-0.7806031428319637,-0.4443479550955068
2.08203125,-0.677597382496266,0.5736713695150638
2.0859375,-0.8293654498000981,-0.0492348668112355
2.08984375,-0.34953191750117013,-0.059553405642060346
2.09375,-0.34436783826067013,0.28807109899351985
2.09765625,0.578507419391776,-1.439108512669957
2.1015625,1.56653766028041,-0.2534143151061161
2.10546875,-0.6837245071582976,-0.12151705710350946
2.109375,-1.7489223454178995,-0.10182342434150116
2.11328125,-0.35509040930472363,1.675853080869187
2.1171875,-1.9527807959686077,-0.6918975842450472
2.12109375,-1.6705791770939602,-0.9879341317342369
2.125,0.7769972321909613,0.7073573601308
2.12890625,1.2880451921486393,0.7963168665090515
2.1328125,-0.36702117304106846,-0.7044661246252455
2.13671875,-0.3161936497971899,0.06476279696931932
2.140625,-0.5974350325238927,1.4688925230498635
2.14453125,-1.1191239883205875,-2.241372095232149
2.1484375,-0.7952789351617002,-1.1882337846487825
2.15234375,-0.5298766234516773,1.6144667341385632
2.15625,3.0820201359655655,-0.9856756074135682
2.16015625,-0.9629497557122324,-1.169927681159746
2.1640625,-0.5849634119858167,0.8665212731275216
2.16796875,-1.5630036666158496,-1.3539939967842582
2.171875,1.005299441935063,-0.2661392646806336
2.17578125,0.9517630245076786,1.2835590611975525
2.1796875,1.1974120530069992,-0.46228181587290174
2.18359375,0.07315120692782728,-0.797123973747363
2.1875,0.7908575826796769,-0.5361445994614343
2.19140625,1.1426767847645791,-0.43851018780322604
2.1953125,-2.0443353312469363,-0.7433321332523098
2.19921875,-0.17628601923511417,-1.3087859351499402
2.203125,-0.34800152590355193,-0.6760817209222649
2.20703125,-0.9965984336661002,0.18103660820180348
2.2109375,2.0558282350574464,1.1952586225879325
2.21484375,-1.5564331883312696,-1.2976556392346716
2.21875,0.16006039612358636,0.8877400892527327
2.22265625,0.7186136590807166,0.11423111782740102
2.2265625,-0.05596322327744645,-0.9181842004582397
2.23046875,0.0486383626254387,0.5540111618468299
2.234375,-1.6439922251448862,-0.048327285852220916
2.23828125,0.3231701703756313,0.07626022900150574
2.2421875,-3.1544394299039396,0.27450674444795203
2.24609375,-0.32039747875464925,0.54614480468182
2.25,0.08053392288249757,1.7891729740313904
2.25390625,-1.9085964601221443,-0.10597179275299454
2.2578125,-0.35779099306959844,0.460327272333579
2.26171875,0.6399090013935046,-0.9636548897000535
2.265625,-0.4003867352296072,0.3544162954655382
2.26953125,0.47843127770510097,0.9609734389340108
2.2734375,0.4112084902399902,0.5661966383222079
2.27734375,-0.3245602385687151,1.1531804542506265
2.28125,-0.33760475881609225,0.5066087483312411
2.28515625,-1.3119295429319142,-0.37657091741311094
2.2890625,0.9907990303945906,0.9837026854285037
2.29296875,0.02957826061913394,-0.9925954941403747
2.296875,-0.19834093643263623,-1.3638152923264502
2.30078125,1.0254681859400359,-0.4183215873878954
2.3046875,0.46978855940143494,-0.3829814740096911
2.30859375,-1.5696614701329605,1.144470556511588
2.3125,1.6150318090652975,1.5175169137465327
2.31640625,-0.7721247854994968,-0.9711219949549613
2.3203125,1.5620998021541739,1.1565470412619718
2.32421875,0.47807816121106517,-0.9580315528464706
2.328125,0.5364804731346234,-0.39042592960470274
2.33203125,-0.8611461239631192,2.3565950851802993
2.3359375,1.787216902756116,-0.0996208760501853
2.33984375,2.1559242401810215,0.8295630614028093
2.34375,1.0346469430623013,-2.046430720790907
2.34765625,-0.34401321647340266,-0.5266312988511148
2.3515625,0.11988194227037936,0.16267534798347372
2.35546875,0.7860338639002142,0.9680094055454759
2.359375,0.6473746366353599,1.396189461711692
2.36328125,-0.41573255102289813,-0.13656743447904365
2.3671875,-0.3913368267557444,-0.4799476296456606
2.37109375,-0.5422387748357046,-0.39228068983264913
2.375,-2.806831217422602,0.12694515092464562
2.37890625,0.1548808058617162,-0.7269901136085852
2.3828125,0.47964464601691875,-0.6374346612468526
2.38671875,-0.25480302344033723,-1.473230089462072
2.390625,-0.017233983999175185,-0.9134802842679529
2.39453125,1.2763076460865843,0.47321870905987534
2.3984375,-0.06753040837158285,-1.291190848819703
2.40234375,-0.7974828220734728,-0.07629962400236602
2.40625,0.2332355444850383,1.1612359367197607
2.41015625,-0.4039104404002958,-1.8538157210270196
2.4140625,1.1280564618058209,0.8538022397123786
2.41796875,-0.22310079398691332,-0.16108815857441655
2.421875,1.206089937825341,-0.7182543722813286
2.42578125,-0.9294824295626392,-0.8156281680615194
2.4296875,-0.16784249410176244,-1.1126603233598438
2.43359375,-0.6680928152443985,0.35584248410109875
2.4375,0.47529417448773953,-0.5112161693562423
2.44140625,-0.47747399635028814,0.9492031808360266
2.4453125,0.041800343490774675,0.131010244634928
2.44921875,1.2264374671892078,-0.1272446120769082
2.453125,-0.23635888258627624,-1.376818101574908
2.45703125,-1.0212614288719175,0.37134895092139786
2.4609375,0.4485464464834689,2.2634917457598793
2.46484375,-2.1656701993797656,-0.9638234635667169
2.46875,-0.8945907089291599,-0.22665789905644013
2.47265625,0.9225654317312132,-0.16383744814232812
2.4765625,-0.9183734433817429,1.1781949065159723
2.48046875,2.7907760298987054,-1.5083173502673395
2.484375,-0.8893847946660894,-1.1420431757281648
2.48828125,-0.10801533942224821,1.1253547018393932
2.4921875,0.21359652933319634,0.0038816943830287604
2.49609375,0.9040102091172681,0.4311318771349547
2.5,0.3823511579410667,-1.139896684894909
2.50390625,-0.5122837318396329,0.7743719797997672
2.5078125,0.20543482632097423,0.4276987331131475
2.51171875,0.15018007829092622,-0.48351682182686384
2.515625,-0.17094701738648854,-0.5714224820709736
2.51953125,1.6020129645981749,0.7014042468436567
2.5234375,-0.7920068156797723,-1.4069662998533952
2.52734375,0.0334305760402992,0.09928125531420437
2.53125,0.45888421022649434,-2.051819930867472
2.53515625,-1.1322453198955738,0.026621649758860458
2.5390625,1.1887553202966152,1.5071251649499289
2.54296875,-0.9203915190246229,-0.5841609739411698
2.546875,-1.1212555260873072,-2.4554553579022396
2.55078125,-1.3315642033784179,0.8505770594092907
2.5546875,-0.8960050904101103,1.120177687420806
2.55859375,1.0245058978761283,-0.205019869648182
2.5625,1.8751475051043853,-0.41201618510183674
2.56640625,-1.5557510666177345,0.2941845298736779
2.5703125,-0.7336752458725685,0.7956414122004152
2.57421875,-0.3910479354683327,-0.9817583307870184
2.578125,-0.43367946658183504,-0.31870469849077493
2.58203125,0.6800219726134598,1.6337151644123096
2.5859375,1.0389707870659937,0.6552323798349698
2.58984375,0.7460198539654311,-0.5442709227754957
2.59375,0.6058297932634003,-0.4281057532235941
2.59765625,2.005405071031238,0.6465778561384696
2.6015625,0.9552946663957316,0.20328034227169586
2.60546875,-0.0497184397652312,-0.5008117385443908
2.609375,0.7224825507307501,-1.4764243675395488
2.61328125,0.08436206503103802,-1.059706766988647
2.6171875,-2.1273862991548715,-1.0266276417866191
2.62109375,0.0127130874465151,-1.027263176544528
2.625,-0.5096433803200154,-2.3437567157368107
2.62890625,1.5220720837337112,-0.27011942326797783
2.6328125,1.6616984795630123,-1.1572654433882943
2.63671875,1.2700128944330096,-0.24068737522267647
2.640625,-1.1755782104034842,0.4979784325855394
2.64453125,1.2745905990621116,1.757032875545653
2.6484375,0.26821080661110813,1.8427290121119495
2.65234375,1.5142388753798455,-0.4301427647999348
2.65625,-1.3944702153771011,-0.9721600674208815
2.66015625,-0.38278076027289665,1.129275913953076
2.6640625,1.7749289726139053,-0.9768839008544052
2.66796875,-0.03715798752123758,1.0842510522394244
2.671875,-0.7625111291431166,0.4524022453930558
2.67578125,0.6204292271893415,0.9263521994727085
2.6796875,-0.7330259922157152,-0.6670073809097101
2.68359375,-1.5236165485592563,-1.1155173560078062
2.6875,-1.252507488930494,1.1170810956338924
2.69140625,1.9313188085619941,0.8571946466969108
2.6953125,-0.40601614741320474,-1.380605602932872
2.69921875,0.46135871789340066,0.6434883687008199
2.703125,-1.0427880465654602,-0.6186630850096406
2.70703125,1.2936182947844208,-0.8471048290433472
2.7109375,0.7946867073588834,-0.34341748971064556
2.71484375,0.34026456394021215,0.933961689983194
2.71875,-0.06622044923703022,0.4351161009901603
2.72265625,0.34052450777511845,0.09630038804207533
2.7265625,-0.30010698776427003,0.9960755468279421
2.73046875,1.28047884930163,0.2202126328428207
2.734375,-0.292092431892171,0.5876631511798015
2.73828125,0.35632021410053893,-1.2543752091960385
2.7421875,0.5669190536744606,0.21876834108694013
2.74609375,-1.857820660011591,-0.35120296620293456
2.75,0.2685678092405564,0.9943066659587781
2.75390625,0.036868843011555213,0.7375311913094014
2.7578125,1.1834561616817632,-0.009958379619780014
2.76171875,-0.041776129068129476,2.323313069710573
2.765625,1.0403990575375421,1.1689045810283516
2.76953125,0.4535962264541,-0.6689305397758838
2.7734375,-0.11246653022813903,-2.311254111265044
2.77734375,1.865350412782042,-0.1002944566948767
2.78125,0.15365305930817455,-1.3906602086180797
2.78515625,0.7399318404107602,1.1115975288572706
2.7890625,0.08022895373929148,0.011253018581587648
2.79296875,-1.032613097050816,0.011611069028955739
2.796875,0.44056798517639506,0.5511936838300793
2.80078125,0.5490370591754005,0.5360273087384158
2.8046875,-0.7584220819452766,-1.1722621574726857
2.80859375,0.04545075135396158,0.26509830697447784
2.8125,-0.535920094212596,-1.2344455405719157
2.81640625,0.7375699510617875,-0.9888311558075732
2.8203125,0.6022111144881377,-1.1335711328869604
2.82421875,-0.48204082568518536,2.2486296316798655
2.828125,-0.8623651529281104,-1.4609045563131517
2.83203125,0.7934596841764668,-0.26730100482832897
2.8359375,-0.653860640034371,0.7612256248178738
2.83984375,0.0322589689473466,1.1517842365929012
2.84375,0.2494775846566979,0.09301655588534898
2.84765625,-2.225252191286614,0.6720835254780434
2.8515625,-2.319519767699568,0.4580071362222285
2.85546875,-0.2351400833790058,-0.9533491373115717
2.859375,-1.670194592085045,0.38822834744088575
2.86328125,-0.9126779370006702,1.4152557830616321
2.8671875,1.0091523732516887,-1.3295375350479706
2.87109375,-0.7490598253968406,0.5216061320298918
2.875,1.2332548730079416,0.41825224163608915
2.87890625,-0.7339778618918529,0.993232728542654
2.8828125,1.4900716245132646,-0.504916627784285
2.88671875,0.5354363943942829,-0.9119321514670751
2.890625,0.604214472730017,-1.5801155698266294
2.89453125,0.036529290330456356,-1.5968992546682528
2.8984375,0.48460171614478625,-1.3406961377176119
2.90234375,-1.306864816900602,-0.3422611333789369
2.90625,1.2155876691012117,0.7467333174588232
2.91015625,-0.4743007606575499,-0.3830655384522718
2.9140625,1.58321772978135,0.43640148901145714
2.91796875,1.0682739029076762,1.4523587675788476
2.921875,-0.015344766391380537,-0.006275016114391011
2.92578125,0.6103925167754871,-0.2923290024657021
2.9296875,-0.11291656024492097,0.9102092443762537
2.93359375,-0.6022949918786437,-1.3404512158359447
2.9375,-0.31810288477630816,-0.5319426296344038
2.94140625,0.2603187893274236,-1.3616207989662186
2.9453125,0.9757316420275005,1.6503383455605334
2.94921875,0.9164023520614388,0.03263817757971347
2.953125,0.3387157885528745,-0.5555800596372928
2.95703125,1.3991067448668888,-0.22666551899622336
2.9609375,0.06970496823318799,0.04996356810251185
2.96484375,0.5510333128282534,-0.31054287041437567
2.96875,0.2692272105287593,-1.1620677917087199
2.97265625,1.828683500448746,0.23344133138772438
2.9765625,-1.8614699518598667,-0.9082928899983496
2.98046875,0.5267564407225748,0.3187089441678543
2.984375,0.6447527958747564,-0.5990334125839963
2.98828125,1.8474079006365545,0.2920718025869765
2.9921875,0.3261889231616146,0.03742841735289487
2.99609375,-1.0704561795479148,-0.44334966873588477
3.0,0.11189614580679981,0.22047556628984252
3.00390625,-1.9766024327024945,-1.0299316438482409
3.0078125,-0.21690763560467607,0.9077462917630891
3.01171875,-1.1284246762895442,0.2374606077942202
3.015625,0.007396044485122655,0.7591816092286368
3.01953125,1.35656852294593,0.854794700592628
3.0234375,0.5497652814586559,1.4060205231251743
3.02734375,1.577479567363951,-1.1583877751602334
3.03125,1.3037751936122897,1.3986229702473325
3.03515625,-0.11146300122895653,0.5068358442275064
3.0390625,-0.18194186732226106,0.16054497382984462
3.04296875,0.5516520467336286,0.06430477225636448
3.046875,-0.2570002797561553,0.21217208055401152
3.05078125,0.7451226131097088,1.8577150110673297
3.0546875,-0.7363408239376158,-0.3774941085929511
3.05859375,-0.43693720690895876,1.0693057537832
3.0625,-0.8420610653644557,-1.0795767806252357
3.06640625,0.08251316806515704,2.1934783966247786
3.0703125,-0.5774497802768255,-0.29402153117666247
3.07421875,2.677526650538402,2.2190763984861586
3.078125,-0.058282002748803755,-1.1547469496330147
3.08203125,-1.7843923781270128,-1.316403858158595
3.0859375,2.052288279972208,0.5770347504248942
3.08984375,-1.4519040626143636,1.346863187040526
3.09375,0.35150944460133643,0.24742745754930226
3.09765625,-1.8011598503608126,0.2793351791612563
3.1015625,-1.6170581579945102,-1.4653352534916124
3.10546875,-0.3370460011044014,-0.3299327609757474
3.109375,0.48396340796933146,0.005529583037401155
3.11328125,-1.6583562817513424,-1.323156462833192
3.1171875,0.007658111581682548,-1.4990696232481395
3.12109375,0.05430399739689311,0.8084846315547569
3.125,-0.13648345197407247,-0.14799750123715283
3.12890625,2.824409810158656,0.2699954319128902
3.1328125,0.6620614848218831,-0.019447467716221394
3.13671875,-2.469349611817544,-0.6027571942415171
3.140625,0.4620619388937991,-0.2676562799660305
3.14453125,-0.002101464494008648,-0.7690707160722235
3.1484375,0.7247827429803343,-1.31870948039544
3.15234375,0.3352137614843027,1.0862783873646413
3.15625,-1.8695683825437333,1.1270685028097143
3.16015625,-0.8742626849304896,-0.41715620351950133
3.1640625,0.1269506638648502,-0.7773426062159116
3.16796875,-0.3372636789250716,0.07401742438170929
3.171875,-0.61465693786523,0.4859160864912223
3.17578125,-0.2795187978160782,1.605867392979925
3.1796875,-0.27157676480211695,-0.051968366848472065
3.18359375,0.7757119390445644,1.3482712914563346
3.1875,0.5361250887637569,-0.5221938439515434
3.19140625,-0.5421010162636037,1.399167719805239
3.1953125,0.74753307940521,-2.076102513572827
3.19921875,0.058254998113209014,0.052350683373050697
3.203125,0.16425191711851725,0.09141652355555575
3.20703125,0.685415218433616,-0.6184993522720188
3.2109375,0.1694991441606099,1.8890841547759378
3.21484375,0.008587806909915287,0.9272571386631129
3.21875,-0.5642175479464366,0.2812982376856728
3.22265625,-0.9584918688151204,0.04044715167954056
3.2265625,0.34121303649309775,-0.857463885487826
3.23046875,-0.7939979793299743,0.35765372115321836
3.234375,-0.7108557019884463,1.5150556926913639
3.23828125,1.251630702183326,0.08895597913192314
3.2421875,-0.5927759583115966,-2.546190230033786
3.24609375,-0.5624528768580215,-0.6161849370858052
3.25,-0.43063608065475933,1.5157308160653835
3.25390625,0.5680703722181994,-0.6283008346719339
3.2578125,-0.3893574325128309,-0.09254885561366068
3.26171875,-1.58596054866059,-0.6324216106994389
3.265625,0.7502931083404387,0.712788087445247
3.26953125,-1.353214334749012,0.1922666428875562
3.2734375,-0.18011509871945214,0.4448903187284043
3.27734375,-0.2009458682250655,1.4096002052579508
3.28125,-0.25777802549419376,0.7890387386648252
3.28515625,-0.5445638803368837,-0.3661919296026909
3.2890625,0.21854234246166054,-1.1753857374021655
3.29296875,0.23859780946099068,-0.5495889925027682
3.296875,-2.1218619664161693,1.442740595293356
3.30078125,0.11725786086404713,0.42804792253924606
3.3046875,-0.6173653679536479,0.8111669279871914
3.30859375,-0.6299795149407997,-0.21401034253662804
3.3125,-0.8183723452245247,-0.33502834134723714
3.31640625,-2.6001786016020505,0.5420571779437713
3.3203125,1.256133312959055,-0.10917497081022548
3.32421875,0.864588497480772,1.843693878924665
3.328125,-0.9089575186410565,-0.3014702505315563
3.33203125,1.6887498814886641,-1.0208385593329323
3.3359375,0.3340070958248099,-0.3890500466978178
3.33984375,-0.20808994486055873,0.5086560534303348
3.34375,-0.36496151913781055,-0.7683798110417118
3.34765625,1.3855206912027491,-1.3547602909162284
3.3515625,0.405041161979942,-0.4054048235397311
3.35546875,0.552962988122471,-1.2571587357846798
3.359375,-0.03930895651931587,0.45207817478695567
3.36328125,0.5595453181466428,-0.6455435906833608
3.3671875,1.307665387679386,-0.09184998839597588
3.37109375,1.0613953227122415,-2.12779929289974
3.375,-1.0237266131702278,-0.15034892047957518
3.37890625,0.5147167095258144,1.32568609168602
3.3828125,0.6299330380099774,-0.6202925553865973
3.38671875,-0.7153284249249479,-1.7620487636256295
3.390625,0.9960344403662434,-1.1007184531520247
3.39453125,-0.48021456691007536,0.8403807334122249
3.3984375,0.03278527933362275,-0.6516521996847984
3.40234375,-0.2625692233799051,-0.12189032112850473
3.40625,1.9570179184181962,-0.7803232251790609
3.41015625,-0.006420024500391989,0.28831538210232954
3.4140625,-0.3287397097253853,0.2586925746324236
3.41796875,-1.7406509121986604,1.056682737920517
3.421875,-0.8719842394859612,0.3986007512217244
3.42578125,-0.4277325980771189,1.8501468076933123
3.4296875,0.03923312576411057,0.8475247664077917
3.43359375,0.3013757135392939,-0.4563579296101961
3.4375,-0.32998942895724115,0.7179071439081569
3.44140625,1.4191850980759106,1.6741549819873018
3.4453125,0.939620333464176,1.931515914442543
3.44921875,-0.27651476972728867,1.364721646605291
3.453125,-0.6691222696455428,-1.8518148540137331
3.45703125,-1.4134356401222332,-0.9137247243623466
3.4609375,-0.6138694658468486,0.001222276336909824
3.46484375,-0.39607836165131605,1.171190164440941
3.46875,0.4229334186534334,0.9571928942576178
3.47265625,1.3927244942445207,-0.32201418064346365
3.4765625,0.2608415076136661,1.4190816485884077
3.48046875,-0.19820406144732217,-0.02253250246191971
3.484375,-0.08582126565362043,0.08915376894527764
3.48828125,-0.8916373244855973,-1.631005477795559
3.4921875,-0.6938527213098933,-0.5545386967932695
3.49609375,-0.8919014798488184,0.3012745995010446
3.5,-1.6003599679728526,0.7225977365873743
3.50390625,-0.2713909754719237,-1.1290476081123335
3.5078125,0.11167250372468482,-0.5185295945696549
3.51171875,0.12376608884080209,1.4146019687293356
3.515625,1.0130168275409002,0.56166562460448
3.51953125,-0.8952016452247198,-0.6597210729211782
3.5234375,0.2041471057150884,-2.080509150530443
3.52734375,-2.6445168118824065,0.02614922169127798
3.53125,-0.3345811976157078,1.4225615161065515
3.53515625,-0.9858320422646917,0.13769285180547183
3.5390625,-1.2130141308737734,0.6820042792542601
3.54296875,-1.464532324989,-0.3465894809035598
3.546875,-0.044765398257241434,-0.9679356186779355
3.55078125,0.24862751458749227,0.08309434226508469
3.5546875,1.0440802658216581,0.10547087052158644
3.55859375,-1.1394781049422336,-0.8018993109727643
3.5625,0.881871627303899,0.8208640282842432
3.56640625,0.26951149694963145,1.0469641634008198
3.5703125,0.01611678084538412,-0.07640267190131496
3.57421875,-2.523999163286193,0.4183847147290656
3.578125,0.7681405577195602,0.6012327601156422
3.58203125,0.7026366174539841,0.533724361761103
3.5859375,0.5755576453447462,0.07841483008374123
3.58984375,-1.8438221384023326,0.7416310150484688
3.59375,0.44787012893301736,-0.19763864971606582
3.59765625,0.40039628045051834,1.3305081105242293
3.6015625,0.2826158796503464,-1.4606297031283795
3.60546875,-0.9658598641099704,1.36358877437281
3.609375,-2.347661104707252,1.1933913949630783
3.61328125,0.5263610482238674,-0.8279544990744193
3.6171875,-0.7361114012441519,-0.17615171994734516
3.62109375,2.3918751577824424,-0.692137184764862
3.625,1.112316783270896,-0.9636216535624869
3.62890625,-1.2387657973713877,-1.4707991331208536
3.6328125,0.31689843319397965,-0.9633284511466241
3.63671875,-0.9101359211546223,-0.5240902361485803
3.640625,-0.09400389759013877,-1.7356795860145657
3.64453125,0.28049831474916354,0.08689640777777016
3.6484375,2.0996720577129144,-1.1420716806701838
3.65234375,-0.17711040773501896,-1.0149317025063673
3.65625,-0.1076385534365227,-1.5233714857717127
3.66015625,1.402259175335009,-0.16097446126459564
3.6640625,-0.35735957849078703,0.8345573168518938
3.66796875,-0.6066299344278318,-1.0603232233604063
3.671875,-2.4198168335570913,2.174633224887116
3.67578125,0.9374278709576652,-0.23766316019116757
3.6796875,-0.16808764632510306,0.6124723339210878
3.68359375,0.6273320528499764,1.5206420517291022
3.6875,1.0092888006457221,-1.6618030521792424
3.69140625,0.08817878259253005,0.06981351003661483
3.6953125,-0.567529468879676,0.10782628552191786
3.69921875,0.5058961085004459,-1.959268591906765
3.703125,0.3275101141202822,-0.27275529640204155
3.70703125,-0.8109738801912311,-1.0734018249782886
3.7109375,1.1713428244189092,-0.20606569322587373
3.71484375,1.0864791468562531,1.0105710201867475
3.71875,1.2867067221361705,1.2927355686387865
3.72265625,1.7244337241181809,1.12813365479729
3.7265625,-0.5141811358643225,-1.620811695774914
3.73046875,-0.04832404143966269,-0.7814693836553621
3.734375,0.0627836643948021,-2.0820643179521703
3.73828125,0.7794241555046791,-1.2067178655852775
3.7421875,-0.5045109301999114,-0.9917447163299614
3.74609375,0.7604464209622644,0.3502349815563253
3.75,-1.0753845743977244,0.3641139094638813
3.75390625,-1.2274172669013792,0.27743195462290077
3.7578125,0.8464174052076151,-0.6461380349287799
3.76171875,0.7427191551403182,0.7993929004051948
3.765625,0.2315592455645123,-0.22473016322039518
3.76953125,0.9712468804816525,0.05871995796232962
3.7734375,0.7655072330572786,0.6469127647034533
3.77734375,0.4031804887224273,0.6513585356890185
3.78125,-0.6869588999165497,0.12490815126597427
3.78515625,0.780722736741126,0.06584775930432692
3.7890625,-0.2759376734548904,0.041831818931861046
3.79296875,-0.8294485228281067,-1.204303476848699
3.796875,-1.1303095935502525,-0.9745342224816569
3.80078125,-0.5184269226473862,0.5348667408933547
3.8046875,0.2098158403127672,-0.844381338118169
3.80859375,-1.4481417319503411,-0.5135886538016494
3.8125,-0.006749218697278805,0.08314147053809696
3.81640625,-0.8460257396834286,0.1700801416423454
3.8203125,0.8976856549100782,0.8241605264599764
3.82421875,0.8976841706538468,-0.5820434428902141
3.828125,0.3956905725206633,0.5314557169410012
3.83203125,-0.29738440540387845,1.0110446434626155
3.8359375,-0.23606264210546501,-2.1997972514628596
3.83984375,-0.2947006063842897,0.8236483609364091
3.84375,0.8343929910907206,0.7199121286659721
3.84765625,-0.38415079937363594,0.36872323482217495
3.8515625,-0.8441990684401783,-0.8516696627936071
3.85546875,-0.4494799513096414,2.835599856440591
3.859375,0.5289726341986407,1.070325024580211
3.86328125,0.5327808495764125,-1.667497427179723
3.8671875,0.3084734068604186,1.0625642752020201
3.87109375,0.5631342572731282,2.4317205142063294
3.875,-2.6028852656712664,0.6311044095609938
3.87890625,0.7920136356978763,1.2894499582815795
3.8828125,-0.025924379429076307,0.12110119358022581
3.88671875,-1.3031116681039023,0.5458849486770376
3.890625,1.3227762434502417,1.6507138246576527
3.89453125,-1.0010344263277244,0.7199924210401281
3.8984375,0.5080395655804788,0.20805197952263563
3.90234375,0.6477565140484389,-0.14250624936906126
3.90625,0.8391569414149652,-0.46754624957530594
3.91015625,2.4843343112620135,-2.1028340063799758
3.9140625,0.9156738666236488,-2.2324910473490482
3.91796875,2.27338406874029,-0.8265055958575419
3.921875,1.191713752755381,-1.0403172710248723
3.92578125,-1.0504234587176169,0.9098248098910213
3.9296875,2.1390973074898385,-0.26314441465615585
3.93359375,-0.7465009357484907,1.015565549877762
3.9375,2.7416582200087762,-1.8018165007105307
3.94140625,0.5967483091715022,-1.3145027144197468
3.9453125,0.12939538470248577,-0.5575503414196293
3.94921875,-2.243757920041819,-0.9549305342409994
3.953125,-1.102669829095373,-0.9384733100718885
3.95703125,-0.36802390465647067,-0.36613567085339593
3.9609375,-0.44775188643164365,0.2535092598516817
3.96484375,-0.11131022307447343,0.5556474109818886
3.96875,-1.6470818835952643,0.7039493957192041
3.97265625,1.7995620980699931,0.13423375414236385
3.9765625,-1.4636171507250555,0.14767277530043094
3.98046875,-1.209080333762902,0.6063972273325584
3.984375,-0.680036487115142,-1.0390843039973232
3.98828125,0.10186130990714524,1.093763447103291
3.9921875,1.5596456534153489,0.2795030682773478
3.99609375,-0.6511145229363188,0.44186974686433284
4.0,0.2772022159574679,-1.4525343899777385
4.00390625,0.6574467246563459,0.6642243301728488
4.0078125,0.4575082963880691,0.6645266954187325
4.01171875,0.6641345496389727,-1.5087559823076702
4.015625,0.4713575105290916,-1.617542018601273
4.01953125,0.1281776708732869,-0.8453245688394846
4.0234375,-0.07520676430808054,-0.8355396639464387
4.02734375,1.2218413479033723,-0.31409722217599184
4.03125,0.12973293963477073,0.2563942487543441
4.03515625,0.9083181696833481,-0.4772592732634457
4.0390625,0.40504688571842973,-0.17917745329026052
4.04296875,1.5068854680154913,-0.8586048425737127
4.046875,-0.0011230879593252068,-1.3698990151377772
4.05078125,-1.627528955351468,0.06136456736924067
4.0546875,1.8441661050279505,-0.7036659420606908
4.05859375,0.9202161235227753,0.9240903136603863
4.0625,-1.4615766336955067,1.1435590470337005
4.06640625,-0.7112845713225895,-1.3306257819032272
4.0703125,-0.741266553681841,-0.774482839148484
4.07421875,2.313215255653343,0.41050889281931674
4.078125,-1.482459702876958,-0.3845384554652088
4.08203125,-0.3191336772164612,-0.03291593879800125
4.0859375,-0.5704271265038782,1.119257807904759
4.08984375,0.09313920366942204,0.36006480993493495
4.09375,-1.1122493346740834,1.5849864486472336
4.09765625,0.30420996108250825,0.05040371516628248
4.1015625,0.9463429808189353,-0.45047022710461976
4.10546875,0.709293402470264,0.3034385334552409
4.109375,0.07911769763023517,-0.6615617135993728
4.11328125,-0.2031250417343218,-0.5487681326378628
4.1171875,-1.7642219328517137,-0.7897622435643117
4.12109375,-0.1276835110342496,0.7116090988055102
4.125,-0.04479216577244094,-0.3822763562135795
4.12890625,0.7293097704107011,0.5978744728832653
4.1328125,0.06921422893512486,1.3057601853274878
4.13671875,0.5513349576547382,0.7115046093619295
4.140625,-0.24277134110954351,-0.9340521609465317
4.14453125,-1.0300730643717542,-0.07193478495430711
4.1484375,0.7770791961209828,0.32354417059285473
4.15234375,0.18171560305709464,1.3648794791822154
4.15625,-0.3985729440768784,0.40271381998683425
4.16015625,1.251159215233896,-0.9091160058500863
4.1640625,-1.516684176480884,-1.670911189716351
4.16796875,-0.13689677071044704,-0.7404127919150355
4.171875,0.06392362938160029,-0.7938448466916678
4.17578125,2.1875857123217033,0.7628242885314465
4.1796875,-0.577330301819217,0.7988404838603916
4.18359375,0.33931289360163797,0.9865457367616173
4.1875,0.7608950225356401,-0.8582926096066243
4.19140625,1.9687724749119855,-0.7308010311105071
4.1953125,-1.41316008435047,0.18185772882155027
4.19921875,-0.6582747619828839,-1.4866444659295426
4.203125,-1.6813107494854198,0.45258344861111177
4.20703125,1.436965344100554,-0.3333212659420681
4.2109375,1.2159404088826147,-0.9827105423331259
4.21484375,-0.2869634733706538,1.8996749098916126
4.21875,1.2864287432797983,1.0906142022216896
4.22265625,0.15148520556947775,0.8934007462920152
4.2265625,0.19985209263063763,0.2381597658616299
4.23046875,0.3011642495625428,0.6719323092764791
4.234375,-0.3451555846053625,-0.4193767244500716
4.23828125,0.07085041746201019,-1.2230359323813562
4.2421875,-0.7781661264507681,-1.191188514374274
4.24609375,-0.36419459785445846,-0.14071054314420262
4.25,-0.06410954786284226,-0.01401423243192473
4.25390625,0.17274908274050296,0.3834417627863706
4.2578125,0.18693100987545688,-0.6956416271258
4.26171875,-1.1400674938889486,2.0712862452641545
4.265625,0.4952398946283832,-0.24073292397924143
4.26953125,-0.467516475908594,0.9615539952678592
4.2734375,0.6207280559661243,1.0524609824963578
4.27734375,-0.2651900804513305,1.251775418046273
4.28125,2.175450411675127,0.3431712036962645
4.28515625,-0.9458336410067892,-0.9510013399231017
4.2890625,-2.183404787576276,0.275408469819124
4.29296875,-0.02472060551772655,-0.0898940144372352
4.296875,-0.30697910371969556,-0.5757017727252967
4.30078125,-1.1819096106012743,-0.9411375082449968
4.3046875,-2.34247442663793,-1.9616378629444717
4.30859375,1.0718193675958836,0.2724793505218943
4.3125,1.4116198779330942,-1.1942195499473842
4.31640625,-0.5592371970447857,0.3167247707231862
4.3203125,-0.7759916399345882,1.3707847092632706
4.32421875,-0.19491889891332598,-1.1984101755802623
4.328125,-0.10855970621784147,-1.021879476406603
4.33203125,-0.032914333979054355,-0.7067999936291665
4.3359375,-0.6967191931016778,-0.38684661364642553
4.33984375,-0.9853870472359726,-0.21958143525864032
4.34375,0.6952377205055646,-1.1280945438277437
4.34765625,-2.3207661615347144,-1.5165326539772532
4.3515625,-1.4710608377535423,0.2227853190021432
4.35546875,0.1881590700288968,0.0649886634427291
4.359375,0.16013308081616026,-0.5424585993340931
4.36328125,-1.0898592444237283,-0.9737736205374858
4.3671875,-0.16798258151989706,1.4778904354417042
4.37109375,-0.5589349515747959,0.4317287863759879
4.375,-1.0732123220264889,0.08959854551010318
4.37890625,0.07044260272929709,-2.627540253325173
4.3828125,-1.0399108534525454,0.9605336422321156
4.38671875,-2.2514414987885814,-0.08950728605683718
4.390625,-1.1964846434936214,0.6681195898243468
4.39453125,0.005933771440731416,0.1911256034871343
4.3984375,0.6735204415812269,0.9067340982740631
4.40234375,-0.47687261977184214,-0.30577830626217045
4.40625,-1.497101539116689,0.06358716273635638
4.41015625,1.3357743380156086,0.5727928513418687
4.4140625,0.3591817062122968,1.1810335897571123
4.41796875,1.7349534804244324,1.3961032190524092
4.421875,0.19768341599768907,-0.4164654257121562
4.42578125,0.6404121264548165,0.8867342620859411
4.4296875,1.283803360929778,0.7421448745037047
4.43359375,1.358644009641439,-0.9183985127462512
4.4375,-0.08915774270091942,0.5564375015557685
4.44140625,-0.4430670225953537,-0.7391854468567683
4.4453125,-0.04322128765728414,-0.2617759760507591
4.44921875,0.7323764028177195,1.3208846571201514
4.453125,-0.13457926220159716,-0.6115877322109687
4.45703125,1.0456304563440295,-0.36032037562703
4.4609375,-1.117637462481415,0.4124491612276888
4.46484375,0.89950733483634,-1.4825163917469577
4.46875,0.2429627220732837,1.0660579520384112
4.47265625,0.7059891266813876,-0.038088604996032435
4.4765625,-0.15289127829427124,-1.972491155602512
4.48046875,1.6228883627623838,-1.2322409487321322
4.484375,-0.8255285225710249,1.412388031985489
4.48828125,-0.43655705251093574,-0.950669908630691
4.4921875,0.1314144076610361,-0.5234799934805637
4.49609375,-1.1718757195610157,-1.358431927056774
4.5,0.31843221194002597,0.415378652853601
4.50390625,0.24046679086973596,-0.8797082069077452
4.5078125,0.3913688153413309,0.29634457783708384
4.51171875,-0.031066283718986634,-0.8136661145439714
4.515625,0.2893287231692346,0.004563160276783404
4.51953125,1.021489768853032,0.18113754095757775
4.5234375,-1.710538737794293,0.31326026808584057
4.52734375,-0.49437338515052004,0.4182891543977788
4.53125,0.3641785437283289,0.2540970524508379
4.53515625,0.049229054324385804,0.2196680586016041
4.5390625,-0.5575131610237426,0.3836570105708459
4.54296875,0.13936183320878232,-0.45817506625893345
4.546875,0.8995421863521323,2.2275537492814914
4.55078125,-0.7636846047566347,-0.024772861384648927
4.5546875,0.7753804942072318,0.6085662231142701
4.55859375,0.6081996058435108,0.18734252948236066
4.5625,-2.155972707342859,-0.8729930474453192
4.56640625,0.33372902443721675,-1.2131661342226654
4.5703125,-0.035554266222550285,-0.419369588172116
4.57421875,-0.7752565117559255,-0.08155587619273426
4.578125,2.0079972740070917,0.06810097338000812
4.58203125,0.25338651784568045,0.2900543940172427
4.5859375,0.6127327909600208,-0.8888880035443067
4.58984375,0.2698195495659228,1.1592965257170897
4.59375,0.21617392907494004,-0.5065735529140235
4.59765625,1.5744209009804526,-0.6475895742656471
4.6015625,-1.2621967085815882,0.3852425338879374
4.60546875,-0.3310150938575641,-0.14560871901945188
4.609375,-0.7484674162183554,-0.5244420493641505
4.61328125,1.2790098125915208,-0.8606421411969076
4.6171875,0.45843197523449625,0.13450143096349082
4.62109375,0.873266209524955,0.4303298687901525
4.625,1.3861327007941624,1.119205763455951
4.62890625,-0.483670814672482,-0.799097640099519
4.6328125,-0.44843440339335966,-0.27811733924654386
4.63671875,-0.2875639633934806,0.4489935161181579
4.640625,0.02341778652305175,-1.751584716581224
4.64453125,0.4476759436598918,0.46745642463657905
4.6484375,-1.4354574350499862,-1.9599664782185744
4.65234375,1.6502321510980011,-1.0974730054797
4.65625,-0.4366880249876482,-0.39603240694541336
4.66015625,2.1098515917760152,0.9184546893681377
4.6640625,-0.5648009830118594,0.9495284990367034
4.66796875,2.396290779952753,0.3313900363941406
4.671875,-0.0926380899338031,-1.7792526551190277
4.67578125,0.17063533939323763,-0.9035531200634587
4.6796875,-0.5220830774910741,-1.1892844436913734
4.68359375,0.01718727818522861,0.7050926064485675
4.6875,-0.7712247801801212,-0.6402380096900525
4.69140625,1.1400695626194535,1.236924547831021
4.6953125,1.4383404258713919,0.2677455850747987
4.69921875,-1.1434499706457673,0.6740129176213273
4.703125,0.6238625988836224,0.35488426383527155
4.70703125,0.3857043851108767,0.3358076348601274
4.7109375,0.87406089658792,-0.6231593572068046
4.71484375,-0.38128674140157,-1.8439064201086335
4.71875,-2.061351574286429,-0.49678543657828084
4.72265625,-1.8301151963458957,2.155368649024105
4.7265625,-0.3235913904640511,-0.7250309440963476
4.73046875,-0.20493726025384823,0.8415826625664041
4.734375,1.437284197075952,-0.26746200624295763
4.73828125,0.3330054955966309,-1.3861004615012373
4.7421875,-0.1556532347961165,-0.0197877448837838
4.74609375,1.0967820123626917,-0.1811672125948703
4.75,0.39489318961607955,-0.585284386575846
4.75390625,0.33255186316085944,0.17035733128843095
4.7578125,2.6178761987232835,0.9491443746529582
4.76171875,0.49615445035644573,0.4340897241599475
4.765625,0.20263892770877617,-2.170947053062398
4.76953125,-0.26748140641009105,0.43746457522246684
4.7734375,-0.6281549062534099,0.8454525556664086
4.77734375,-0.012409632645409532,0.49284415518459923
4.78125,-0.5590384153710898,-1.1089396917685161
4.78515625,0.992107500247121,-0.5086424468139689
4.7890625,-0.24112503594200282,1.4674482658937902
4.79296875,0.7986193636207214,0.914987453846337
4.796875,1.0164893110348439,-0.4146791615220154
4.80078125,-0.0726439473500425,1.1433528551981091
4.8046875,-0.4854207794377623,1.3694511599297459
4.80859375,-0.9105265014487167,-0.676302219134304
4.8125,-1.3523090472535468,0.9419117956166689
4.81640625,-0.8785620489172222,0.3189348785221253
4.8203125,-0.5861024662806789,-0.014000504957175468
4.82421875,-0.20198399247995147,0.5699936002445596
4.828125,1.778074241980303,0.08011323340134231
4.83203125,1.5089417205126046,0.8047163401858384
4.8359375,-0.20470386312766808,0.38364162995814666
4.83984375,0.7834201114819835,0.5168323319574466
4.84375,-0.9329390866126032,1.340330179728196
4.84765625,0.6633531081595185,-0.5504057544346017
4.8515625,-0.22786252017271175,-0.620793885725052
4.85546875,-1.5455838584960382,0.7973262872555257
4.859375,1.7147076012989062,-1.6496111794225738
4.86328125,-0.8356305548539416,-0.309667901828077
4.8671875,-1.1011847322240282,1.3902247775450864
4.87109375,-1.2951832690827272,0.2652919511468701
4.875,-0.9484247139743005,-0.3331249241030457
4.87890625,1.3296748907741769,1.2914817391832478
4.8828125,-1.4556396984525124,-0.46711496517094614
4.88671875,1.9164190494352624,-0.38868014297602516
4.890625,1.432790249013077,-0.764297870309863
4.89453125,-0.928656990932671,-0.4506448027002469
4.8984375,1.0291012144556266,-0.15377482745502374
4.90234375,-0.20124385444553955,-0.223470596561625
4.90625,1.7993932132814356,-0.9704151677591596
4.91015625,0.5216487485522104,-0.759334272925213
4.9140625,-2.163437313900054,-0.20503242228571608
4.91796875,-0.5224108737283955,-0.47961681600504047
4.921875,-0.18890625926137505,0.6175055873385259
4.92578125,-0.1672254214603396,0.5993401664232749
4.9296875,-0.4919835653644447,-0.5247811950457997
4.93359375,1.8054706721226226,-0.9332762666226525
4.9375,1.0072161753800972,-1.376668534617057
4.94140625,-0.2736444877561225,0.15155819051458083
4.9453125,2.5006563301167604,0.08589717054480435
4.94921875,-1.3652216659735203,-1.2689438740370584
4.953125,1.5907926295351538,-0.1344692304918994
4.95703125,0.741207989429292,2.36094485658822
4.9609375,-1.2950533082592532,-0.8208627076768764
4.96484375,-1.6713990831878036,0.11264676679778203
4.96875,-1.3491170654835547,0.08300257410147449
4.97265625,0.6807921557009935,1.4593694347675406
4.9765625,0.42989156886294094,-0.37166939144060634
4.98046875,-0.4152242197925374,0.3861636475877668
4.984375,0.45028873960111093,-1.8616762021917654
4.98828125,0.6057989383120944,-0.5524073239594517
4.9921875,-2.2812711198953104,-2.6283728372198003
4.99609375,0.630848980676763,-1.9106861233041237
5.0,2.432871382168589,-2.1663849699780653
5.00390625,1.2670243092245617,-0.6491066312764954
5.0078125,1.9053768318845743,-0.9946389019857265
5.01171875,-0.041327323932533286,-1.2599075900291807
5.015625,-0.030304906475568806,-1.0270967899495425
5.01953125,-1.3010693113530218,-0.11223123174145613
5.0234375,0.7406627671198183,0.7408674777179282
5.02734375,0.6913860557748687,-0.12081036816803593
5.03125,-0.06273227179364264,1.4139411555317078
5.03515625,-0.6459426555413947,1.5649190069895693
5.0390625,0.315467926766467,0.5079264293562255
5.04296875,0.09294817245945734,-0.2151018365925449
5.046875,2.215800239159966,-0.055804279259743135
5.05078125,-1.389562890732221,-0.687615529106563
5.0546875,-2.2099932608618458,-0.2546431546138919
5.05859375,-1.9644089724302,1.638816227182068
5.0625,-0.5608242715513038,1.6543494833657348
5.06640625,-1.0037406417958854,1.234491101580762
5.0703125,-0.180075676823471,0.3765169967738124
5.07421875,-0.20598756791317224,0.16759113270299902
5.078125,0.7980262644355961,0.19889556244335385
5.08203125,0.0027514637469995174,2.0223750283178688
5.0859375,-0.4743424659555826,0.19531464629319095
5.08984375,0.07425534601153698,-1.6584840505796454
5.09375,-0.13117902399472756,0.5548247852388744
5.09765625,-1.1357688889173496,-1.5860250443074182
5.1015625,0.7201475032233479,0.20127300021687933
5.10546875,-0.30763610030493727,1.5356534944111424
5.109375,-0.4983867229534918,-1.5792957171741553
5.11328125,1.8696230078952312,0.530569881798038
5.1171875,-0.5771490945710832,0.6808294470954422
5.12109375,0.7188328619372315,-1.550772447020737
5.125,-0.41867201304065654,-1.4255782805950779
5.12890625,0.7573962500888377,-0.65599936790476
5.1328125,-0.680931084744373,0.7566728955116157
5.13671875,-0.22409041425811177,-0.22545112274345033
5.140625,0.6297205513276771,-1.2936672932949362
5.14453125,-1.4820652917442456,0.5753097938108869
5.1484375,-1.0011720342354864,1.5124444715471344
5.15234375,-0.7573956172837488,2.0227715311130683
5.15625,-0.7105319120451937,0.41012600370081953
5.16015625,-0.9514494730099612,-0.9715381502401509
5.1640625,0.35345260945174156,-0.8596858808499221
5.16796875,1.2453812896349774,2.3419844851810656
5.171875,0.2763275057664433,0.2844943115440969
5.17578125,-1.0373160242536166,-0.6209440010668112
5.1796875,-0.22820536494492286,0.8047703873855263
5.18359375,1.12446380183121,0.0410568548125974
5.1875,0.39371634886443585,-0.8204423820966794
5.19140625,1.0650576304579082,1.2656295026518312
5.1953125,0.1344516207885268,-0.9222988334256526
5.19921875,-0.4796002550025214,0.02558781244695438
5.203125,-1.1204137741065774,-2.449223933668292
5.20703125,1.4828795429595742,-1.0409742024140187
5.2109375,0.40157575994203826,-0.03721685689910516
5.21484375,-1.0702542635377552,1.1301165584575326
5.21875,0.5521854506178651,1.204132358001057
5.22265625,-0.6191129257351459,-0.32303591092887796
5.2265625,-0.9448921689796639,-0.1864399089464366
5.23046875,-1.1595033297518607,-0.8894350209241001
5.234375,0.6072032587648293,-0.35899287489297893
5.23828125,2.1177792811020515,0.6747394089475927
5.2421875,2.194875732064976,-0.6128867120755781
5.24609375,0.7131139229336878,-0.06387061670132707
5.25,0.9576511357005723,0.988432864065447
5.25390625,-1.0045292786637119,1.2367759457929626
5.2578125,-0.3797322767377366,-0.20836029414984603
5.26171875,-1.479224534946735,-0.476283216800958
5.265625,-0.2493905277269677,-1.315402778168912
5.26953125,0.5520733701003318,-0.9201498061854829
5.2734375,-0.43496847988442733,-1.1881293862601878
5.27734375,-1.2436869795911816,0.2304235119041299
5.28125,-0.4412778256138592,0.4563275978518415
5.28515625,0.6944352695781555,-0.07360859311915048
5.2890625,-0.8517765799997503,1.1020319087649
5.29296875,0.18772513095258345,-1.0854349712310998
5.296875,0.45045718748739844,0.6354853766637802
5.30078125,0.687698059563805,-0.922927440187869
5.3046875,0.6094142001052997,0.8165365026851101
5.30859375,-0.8534830985242672,0.45246028197607807
5.3125,0.46543198078783354,0.36571196031143377
5.31640625,1.4031162429398194,-1.3716414115488413
5.3203125,-0.6933237903916224,1.136539194992933
5.32421875,-0.30611570621514933,0.20238567962565762
5.328125,-0.7603813581281503,0.18467637025676736
5.33203125,-0.8189832492881715,1.3260907885092916
5.3359375,1.1237655040034817,-1.0230712883066382
5.33984375,-0.9188086119501702,-0.6813332462219048
5.34375,0.052438671130560804,0.41015835830480574
5.34765625,1.0574129242826416,1.3919527458603127
5.3515625,-1.1614081426182485,-1.5617269857598441
5.35546875,-0.5171225664774788,-1.9371534582615395
5.359375,0.06252939804575781,1.160524075913398
5.36328125,0.7759104376581452,0.8353832606264875
5.3671875,0.7374115663188874,2.433311478376637
5.37109375,-0.5583244591347618,0.630823152700774
5.375,1.125932568059075,-0.6440535073100758
5.37890625,0.14490471561289975,-0.7258985839191872
5.3828125,0.4743654535977979,-1.5234743878081876
5.38671875,0.516853275645214,0.82700090572522
5.390625,-0.2129326151362308,-0.2677016995895676
5.39453125,0.7775295481680493,1.4336730657790662
5.3984375,0.18350448934692418,-0.6379614077895837
5.40234375,0.8440894980772471,-0.2886155690691127
5.40625,-0.03718820070937233,-0.655726567675013
5.41015625,-1.0944659084773891,0.8139276297365764
5.4140625,-1.9238788922820362,-0.05799077080079234
5.41796875,-1.242681170778834,1.0514561694391957
5.421875,-0.9418795692518334,0.955992764424467
5.42578125,-0.9081697301206254,1.083894978842946
5.4296875,0.1878881055456693,1.810980697475158
5.43359375,0.45509131356709803,0.8096018105315683
5.4375,-0.056554641840132175,-0.5596993127381896
5.44140625,-1.1952600181420185,-0.5214677305928679
5.4453125,-1.2878554872865184,0.7093182273277593
5.44921875,0.40883781502021943,-0.41096773923588387
5.453125,-1.5127472742893053,-0.5830051556625853
5.45703125,1.5725984852785555,0.6963902563800203
5.4609375,1.609298584573966,0.09649427216816098
5.46484375,0.6224482849993788,0.42331118736967244
5.46875,0.9329493580610061,-1.4870612484320511
5.47265625,1.5397747999447084,-0.410869311219357
5.4765625,-0.07229769224243203,0.5082713032638173
5.48046875,-2.3968833814375943,0.38117138303173587
5.484375,0.48685496607526446,-0.14953432079119794
5.48828125,-1.4934667245518567,1.1899946760474247
5.4921875,0.19068173830562862,-1.1409089577992761
5.49609375,-0.9711468894776417,0.3159196434584007
5.5,2.9701923518857067,-0.9770767947536895
5.50390625,-0.6662917887138048,-2.1209427514393355
5.5078125,-0.9146962027905317,0.6678223446767657
5.51171875,0.5384787096995752,0.12733537561297947
5.515625,0.04341567743503767,-1.6493084498707473
5.51953125,-0.18989558516024496,-0.43261792042927383
5.5234375,-0.7394194626464163,-0.3151135139747369
5.52734375,-0.027378374894594666,-0.874691211444213
5.53125,-0.6821287213599344,1.0880866446289246
5.53515625,0.8217162475082284,-1.3906846559837778
5.5390625,-0.27060958685290754,1.4518022451449937
5.54296875,0.4665383600155723,-0.8256774907044392
5.546875,0.17083148082359656,0.6117380511361173
5.55078125,-0.1127547652379352,0.002825558827952519
5.5546875,-1.4803536632080228,0.7782746814717909
5.55859375,-2.6587209649931736,-0.6850088861866761
5.5625,1.4447583247574922,0.10916746591731245
5.56640625,-1.533146202844219,-1.1103108679228393
5.5703125,0.1521183654847786,0.6263128841489616
5.57421875,0.815621849235007,-0.47373418282928553
5.578125,-0.6091303304200484,-0.6600943209851732
5.58203125,-0.017519850033265755,-0.3619196363369823
5.5859375,-0.9869252532915225,0.0004318048715111553
5.58984375,-1.6521048234086968,0.7345789892138407
5.59375,0.7984901800115379,-0.2682310988798313
5.59765625,1.439052044448767,0.9247940094676218
5.6015625,0.4841073826427756,0.7005203599716666
5.60546875,0.018917875877572203,0.7265320958820412
5.609375,0.8758630158459749,0.2752155097446268
5.61328125,0.045325726505344645,0.6439232800923139
5.6171875,0.18971977612889057,1.189482612058503
5.62109375,-0.7451260136147594,0.42717555536203156
5.625,0.2464508704462,-0.882979062474604
5.62890625,0.8657199067668817,-0.7977186395792305
5.6328125,-0.5170347723737205,0.02886481719127454
5.63671875,-0.4078143545605108,-1.843972246581191
5.640625,0.7006812507844192,0.4687752827412014
5.64453125,-0.9696252329961254,-0.6821873395041739
5.6484375,1.6890708084495059,-2.4515893841141176
5.65234375,-0.06785463729300832,-0.12490381190375087
5.65625,0.011057712616453119,-1.3017360070981394
5.66015625,0.9531489132753758,0.07890023087393645
5.6640625,1.0511024636050654,-0.41519742315894625
5.66796875,0.7428011556420716,0.3696245616715589
5.671875,0.944648222646764,0.9031661051812694
5.67578125,0.2631834024067065,0.2746700854881517
5.6796875,-1.120421532313907,0.2857597981559679
5.68359375,-0.8996783255055039,1.5800483330958142
5.6875,-0.39005358646519295,2.007475193697199
5.69140625,0.28240827812985264,0.4808380092632171
5.6953125,1.1209249703577047,-1.5964152585222013
5.69921875,-1.6043152775244283,-0.4124853229124462
5.703125,-0.5901645598314433,-0.8083131661017423
5.70703125,-2.309698540029765,1.029769896572133
5.7109375,-0.7627611691757188,1.2232473427910806
5.71484375,-0.36645909068357113,-0.520413068732751
5.71875,-0.7909026496111529,1.355373027000928
5.72265625,0.3263888510365858,-0.38075609658633275
5.7265625,-0.11640403497268864,-0.8515895718229464
5.73046875,0.5370040530020114,0.3190462595094226
5.734375,1.1379629079033164,-0.13120301539110535
5.73828125,0.44379269654669506,0.7777179694410121
5.7421875,-0.6537236888824568,0.7213203316724905
5.74609375,0.7476687651254494,0.37788702388814427
5.75,0.5570942524186042,0.14494256061836946
5.75390625,-0.42876687215377035,0.108192397930143
5.7578125,0.09577125700679957,-1.5598700449756344
5.76171875,0.06835746708171406,0.5091548678256903
5.765625,-1.021934181439582,1.1767733686144668
5.76953125,0.023828145738651774,1.2385764442092775
5.7734375,-0.9992541057784949,-0.8113954160844863
5.77734375,2.2987599781616757,1.5236785854918649
5.78125,0.39839510673051043,-0.09239668317289454
5.78515625,-0.2989930024205577,0.23236953706222116
5.7890625,-0.832905307555912,0.037986685042692245
5.79296875,0.14673812900369565,0.6038329702893678
5.796875,1.1519402179066853,0.3034320246380007
5.80078125,-0.054800517107952654,-1.6850043988290615
5.8046875,-1.2414579728833814,-0.43740638372214286
5.80859375,0.8847696306761988,0.4193969537018308
5.8125,-0.6267009631537565,0.0274771778431078
5.81640625,-0.022626609961372595,-0.19856275799472314
5.8203125,1.0204121128577905,-1.1827556614348524
5.82421875,0.9153425652810725,1.3082984457552373
5.828125,0.13652504346154498,0.21072982185024614
5.83203125,0.9307182552160961,0.18526411852233224
5.8359375,0.6347518176976413,-0.9736844899617203
5.83984375,0.4023244666796536,0.9476587602135517
5.84375,-0.7831886651285572,0.187722319409885
5.84765625,-0.6808762231169402,-0.2786266270063292
5.8515625,1.0311679131276934,-0.4426216753109536
5.85546875,-2.828378190096778,0.8442943375294414
5.859375,-1.0012680697616665,-0.15403862749555816
5.86328125,-0.5245176867884215,-0.3351903700322788
5.8671875,-0.14492006486076006,0.2644084772862516
5.87109375,0.8282833252082032,0.261970875972173
5.875,0.7963021506931949,-0.624025617618263
5.87890625,-0.562623845528767,0.8120630464564543
5.8828125,-0.5142192996493528,0.17175358276774727
5.88671875,-0.5227347199225946,-0.5119581017017051
5.890625,-1.1494509139506859,-0.05286149529129551
5.89453125,-0.5551612177863416,1.3301908476943949
5.8984375,-0.342323144100797,-0.5514891782357256
5.90234375,-0.5470924441062393,1.7351451263658833
5.90625,0.9611115163984939,-0.5607789777730167
5.91015625,0.014492118237768211,0.10331385173115618
5.9140625,-0.18209713070316538,-1.6817915118885447
5.91796875,1.2526912309636036,0.8225234451998605
5.921875,1.4946779374976567,-0.4482771449896096
5.92578125,0.7544784451069217,1.1619668758505306
5.9296875,-1.4006406468826988,0.5417346417852689
5.93359375,2.324721351268314,-1.6222821013601978
5.9375,-0.3585009240829409,0.03212269363578846
5.94140625,-0.7780861048429288,0.925096955848042
5.9453125,-0.4871230159070996,0.3396969217196671
5.94921875,0.3091613352939693,-1.7455315468940458
5.953125,0.20293586003110997,1.1741122937612845
5.95703125,0.005788878575643926,0.583629397456565
5.9609375,0.7809639347599089,0.27589819882204275
5.96484375,0.9461959009727693,1.6050443107379166
5.96875,1.1434523653006734,-1.283996336984011
5.97265625,-0.43730340357095726,-0.8548732217114322
5.9765625,-0.536463936159197,0.46513741471530784
5.98046875,0.503872667258087,-0.09865108158659813
5.984375,-0.4748546999021369,-0.9189307668044117
5.98828125,-1.0756758771451045,1.4335179453229308
5.9921875,-0.48472421182587644,-0.5277226461739325
5.99609375,-0.398405992677903,-0.5320753397981909
6.0,0.66776803603759,-1.6814796382318435
6.00390625,1.1687672146134356,0.7528134423898158
6.0078125,0.6914310087209538,0.7124238867992198
6.01171875,1.820351922393122,-1.5602054866298496
6.015625,0.9076264997545781,-0.30999274201878607
6.01953125,-0.9022270691775238,-0.783609553274779
6.0234375,-1.3978221683952208,0.16536588686817097
6.02734375,0.1651696580253061,0.3274802467198211
6.03125,1.244224349450226,0.16844848636127774
6.03515625,-1.4218190325905982,-0.5102430535863964
6.0390625,0.15290418990533794,-2.1777520579842418
6.04296875,0.09490384473948352,0.18955117842704117
6.046875,0.9677116355777394,2.1168108719363783
6.05078125,0.01862939636353555,0.8496428808370227
6.0546875,1.105396527073378,0.6466839926887223
6.05859375,1.1939680429380763,1.8205325866247057
6.0625,0.18084792754017953,-0.26330870679663715
6.06640625,-2.1725541870657024,-1.3757100560821205
6.0703125,0.21089203525516836,1.102976243929966
6.07421875,0.3445843013677749,-1.153357350511646
6.078125,0.2985048272356904,-0.6211803550358082
6.08203125,-1.20984208488416,0.23627922686975655
6.0859375,-1.128101043193877,-1.2659673394336786
6.08984375,-0.6711360006052863,1.195803358965053
6.09375,0.9740867973586933,1.5115600554391762
6.09765625,0.188463480946806,2.1845332802449673
6.1015625,0.972712666515944,-2.1236747512825076
6.10546875,-0.5320363263673127,-1.552270620967384
6.109375,-0.4716808358682412,1.4583771817616735
6.11328125,-1.3840444829910554,0.8504645751469383
6.1171875,0.14356718176356287,1.967974054505636
6.12109375,0.5049001040021043,0.2807634382130601
6.125,-0.609573248813845,-0.17190239269673688
6.12890625,1.1923790061911526,-0.22140848742735078
6.1328125,-1.534664117239553,-0.473871120736896
6.13671875,-0.10025527867233965,1.2807661392379472
6.140625,2.164932822568037,0.4664580411148327
6.14453125,-1.5029429375450476,-0.8926077685417854
6.1484375,-0.15002041402999655,0.7706195710204893
6.15234375,-0.7170625272856797,-2.2995310946078487
6.15625,0.5276862582347541,0.006702259733063319
6.16015625,-0.39755274266958807,1.3193800036131795
6.1640625,-1.8822896373158902,-0.6290959763521518
6.16796875,-0.3601793060630899,1.3611734124057426
6.171875,1.7231257356487946,1.0598990152448247
6.17578125,1.613422520522944,0.7095400643190534
6.1796875,0.5406001920065029,0.11821105115784199
6.18359375,-0.4770849182953838,-1.4199546743730136
6.1875,-0.029095544767048807,-1.1899463928192666
6.19140625,-0.14897838109380368,-0.1833267319995185
6.1953125,-0.7720887097723858,-1.5585076864269107
6.19921875,-0.4291965068702836,1.8658680102667273
6.203125,0.4399542859932064,-1.0846229548847042
6.20703125,1.3071206995410007,-0.3271699200869554
6.2109375,0.7873904433495232,1.0755794110062529
6.21484375,0.28734224701398015,1.264129313833562
6.21875,-0.025352717925562204,0.06531999755361888
6.22265625,0.37474593919892013,1.2838250429589524
6.2265625,0.8799298875789575,0.08105321076702017
6.23046875,1.3559440453028409,2.451555487271974
6.234375,-0.7981421495392446,-0.8638478718628763
6.23828125,0.35856426833440996,-1.0360562761169814
6.2421875,-1.6908496398735864,-0.007925460323383138
6.24609375,0.905050366759682,-0.39086010008458144
6.25,0.1421721852695169,-1.7206409312912174
6.25390625,0.026779900665067805,0.6799027675770029
6.2578125,-0.5901583204213158,-1.8020467183473217
6.26171875,-0.5472063374018574,0.42454660314829407
6.265625,0.9918772372662434,0.5197384417377826
6.26953125,-0.6728632937813495,-0.2026773460872547
6.2734375,0.33641747522846327,1.3588629153425171
6.27734375,-0.8353985387847193,-0.01969088596248235
6.28125,-0.34636378878212665,1.6486428227269183
6.28515625,0.5472084785421835,0.9280131757014054
6.2890625,0.2578813661552202,0.1850031337970622
6.29296875,-1.3644484129693706,1.1298647142593237
6.296875,0.7773570595502156,-0.7045482511185448
6.30078125,1.7020363842206192,-0.6504663795020886
6.3046875,0.3229435722656084,0.050518711642786235
6.30859375,-0.15353708728867474,-0.9956860860446693
6.3125,-0.9034573623209798,-1.1073054444139363
6.31640625,1.1360847839307486,1.1687386418392638
6.3203125,0.7378181986306819,0.5117718751700239
6.32421875,0.8419710445419684,2.4996013889182844
6.328125,-0.3446997941107586,-0.4812004958637498
6.33203125,-0.3104107313022652,0.44285591112366196
6.3359375,0.4985094950987125,-0.34655523936692195
6.33984375,-0.185652622325286,-0.7903444820975851
6.34375,-1.4367290422157224,-1.8823590444717757
6.34765625,0.9668423635423625,0.23217646465601685
6.3515625,-0.006736990036994111,0.595487548149286
6.35546875,0.7910693827718482,-0.041092295420038054
6.359375,-0.3947361171672849,-0.14276306723901458
6.36328125,-0.714413333431147,-1.3283786853812567
6.3671875,2.3205269677895406,-2.2735975036070513
6.37109375,0.26110818398995106,-0.36683965663421664
6.375,0.5666874954201352,-1.03501198434409
6.37890625,0.36554501847914994,0.014445310518585611
6.3828125,-0.11951405822626623,-0.1884052687833173
6.38671875,-1.0285906624953483,0.005204353185317263
6.390625,-0.010980308119637187,0.8773700325985687
6.39453125,-0.0865317252694266,0.6088924573050383
6.3984375,1.2200625761541561,-0.8882432202997993
6.40234375,-1.384622420037802,-0.3783836831499385
6.40625,-0.5158915144012319,-2.140504271168948
6.41015625,1.539732263624878,0.9327268477415627
6.4140625,0.5698236277376046,-0.1848339877675781
6.41796875,-1.495119617668486,0.07931171698277088
6.421875,0.5058145097395295,0.46971943531493837
6.42578125,0.363360526128098,0.018429342590741297
6.4296875,-0.13315191836361548,-1.391508657529766
6.43359375,0.2692289737437015,-0.7864460729399897
6.4375,-1.4374690558689045,-0.6980941464665578
6.44140625,0.393030666393659,0.5932659093357776
6.4453125,1.4075513954943175,-0.936868996737661
6.44921875,0.6548627575111637,-0.14568005830423578
6.453125,-1.0752780803607993,-0.3278686198452336
6.45703125,0.8367990021716292,0.8774731491545054
6.4609375,-0.9808834691467159,-2.3784715480476977
6.46484375,0.4369023838396963,-0.775395473320966
6.46875,2.863291097633962,0.325334393302452
6.47265625,-0.7007183580483428,-0.5584426437707086
6.4765625,0.3773200579032581,0.28618665199738796
6.48046875,0.12569369309984507,1.5925290447590355
6.484375,-0.8911334833165921,1.8516149964428104
6.48828125,0.28983034781299516,-0.012744641090467248
6.4921875,-1.7182110176271834,-0.14255786820867233
6.49609375,0.451143274295744,-0.6394149252688109
6.5,-0.42358468357725626,0.3080207809885301
6.50390625,0.01511245050554112,-0.5906292275167843
6.5078125,-0.5695698499527592,0.02818526735237821
6.51171875,0.4101414895087224,1.1098214948509972
6.515625,-0.6699422772145637,1.2661246225961615
6.51953125,0.6220264643184577,1.1379180508511197
6.5234375,0.11103123398869781,0.33784717196582853
6.52734375,-1.0130108173132275,0.9339053713669032
6.53125,-0.5184858767845093,-0.709110103113532
6.53515625,-1.2048987894446457,-1.3494687999497137
6.5390625,0.20903002350631636,0.24102308642346046
6.54296875,0.9558628445731696,0.06283080022267555
6.546875,0.23581653217840579,-0.03550982074932847
6.55078125,0.7448874125663665,0.3613908653076908
6.5546875,0.20170382482041976,1.0220320115251578
6.55859375,-0.1779929789305395,-1.8896107749027105
6.5625,-0.6424208528532281,-0.16930394522545938
6.56640625,-0.6074476579685297,1.0372286788438219
6.5703125,-0.22679647311635104,1.72019368143842
6.57421875,0.6608740644413352,0.4097354850662194
6.578125,-0.6427473711785022,-1.7136535559470043
6.58203125,1.0990665249834368,-0.47897040985677214
6.5859375,-2.0265402521721443,-0.3240194884634371
6.58984375,-0.3149345319478814,-0.21864831544337357
6.59375,-1.2606794285187892,-0.4992628904710437
6.59765625,1.925252255577005,2.2383374868441743
6.6015625,0.836874361212793,2.0736031796565952
6.60546875,-0.5520078781575117,-0.6017594256544622
6.609375,1.1177602825925956,0.2681500710408605
6.61328125,-0.8138704059995503,-1.09943314145685
6.6171875,-0.8499445838545806,-1.0276109237417486
6.62109375,1.682817804225848,0.6121515890265757
6.625,0.05993053273556378,-1.8617149435188698
6.62890625,-1.4055824848060634,-2.1326928737973736
6.6328125,-0.30522436260775127,-0.49447307465751966
6.63671875,1.0150712373728794,0.46239408011246746
6.640625,-0.10241659377999567,0.94931133815452
6.64453125,-0.7930973846162864,0.05250555556304585
6.6484375,1.2435830753679709,-1.1684771784634607
6.65234375,-1.3390340298898955,0.423775566444821
6.65625,-1.4006887001863186,0.14919293821076418
6.66015625,0.7063573595590943,-0.08461258250501782
6.6640625,-0.31351792884908625,0.05213481187751086
6.66796875,0.5564692243149477,-1.4535127260287586
6.671875,-0.5557632139753099,-0.7711540419322649
6.67578125,-0.9025876664072109,-0.646556123280441
6.6796875,-0.2564207863132091,1.1490674240592462
6.68359375,-0.006751789095346819,-1.322693364564576
6.6875,-0.7415708311449115,1.1577137238861188
6.69140625,0.5306347212193979,-0.3776565497405757
6.6953125,0.3113332506188373,-1.8408157548202726
6.69921875,1.6793973592911626,-0.17342160280910857
6.703125,0.4938065080448433,0.15820827305137375
6.70703125,-1.0437423240234633,0.7852880011390067
6.7109375,0.177543708464837,-0.523519685785194
6.71484375,2.261287769090969,0.9331038052909479
6.71875,3.2665576537097003,0.22003921262833057
6.72265625,-0.6676329471072018,0.29843462909373925
6.7265625,-0.2154812260222701,-1.2177378366842806
6.73046875,-1.193276816760493,-0.8496588417360257
6.734375,0.6306665821543052,1.9937071359899528
6.73828125,0.015187215023006318,0.21492066557599693
6.7421875,-0.11274162518673103,-0.9765794478178897
6.74609375,1.3347688291931683,-0.2504036272829838
6.75,0.13334199508973338,0.19892051843462527
6.75390625,1.3166168719948361,-0.2095535789763175
6.7578125,-1.05884310687535,-0.2734684165782129
6.76171875,1.4959570238660704,1.0519883290637362
6.765625,0.24988206955421716,-1.5361620422209985
6.76953125,-1.8435570300851296,0.6540080548783123
6.7734375,0.29691309391056936,2.4971428689936146
6.77734375,-0.9258621946352745,0.295178805523719
6.78125,-0.26462095965931454,0.1866516937522839
6.78515625,-0.15851456108167633,0.6469378963054648
6.7890625,0.6011901897030792,-0.9089065161271733
6.79296875,0.5971987310023115,0.45771667515806325
6.796875,1.1158561131942295,-0.9512213278689263
6.80078125,-0.4687826163855172,-0.21709958313912123
6.8046875,-0.8865592433426284,1.5915551348022265
6.80859375,0.06773154977096457,-1.0107663717173032
6.8125,0.10683392932149494,-1.1563540699503685
6.81640625,-0.6886307921909917,-2.0267927474570984
6.8203125,1.8594299919554051,-0.9941670263183628
6.82421875,0.2055338971301415,-0.09425300197528116
6.828125,-0.3006502440529834,1.379727280573543
6.83203125,0.302063036029858,0.3165818385040748
6.8359375,-0.3664719948078671,1.464293691536207
6.83984375,0.21088283548985365,0.3488286462985679
6.84375,0.4999928346203962,0.7017868763365805
6.84765625,0.9932804301807919,1.715030066885389
6.8515625,0.11716542574858087,-0.1899928593336793
6.85546875,-1.2499394838745546,0.7344427003542638
6.859375,-0.0005971498562884642,-0.46481503690388876
6.86328125,-0.3976485118959159,-0.4942350513219986
6.8671875,-0.687470067443502,0.347472040246238
6.87109375,-1.042752406236127,-1.2482079644749113
6.875,0.6388879011283553,-0.33479027085816127
6.87890625,-0.38100911211073885,-0.027931791855044383
6.8828125,1.0447906659276653,-0.5092844662328776
6.88671875,-0.6953629615942972,-0.5668884962499978
6.890625,2.51635904154694,0.9489978409763034
6.89453125,0.5218642505868824,-1.3239689614556678
6.8984375,0.09918842096158434,0.05549643568650493
6.90234375,-0.588484320678478,0.685210987586616
6.90625,1.0735724313500359,1.5892528204276901
6.91015625,0.0919904091625688,-0.17412154682887457
6.9140625,-0.11145207258410217,0.8153118600575937
6.91796875,2.409656640923025,0.8115414135016193
6.921875,0.3733646751303552,-1.0202726068030215
6.92578125,0.12256934369309574,0.11225961372204982
6.9296875,0.48208756478633885,0.5921762899219961
6.93359375,-0.8147938128201803,0.057762065850234225
6.9375,0.3606453497389118,2.4752963155599352
6.94140625,0.3745090535783024,-1.691369312249737
6.9453125,0.42050993705478795,0.08160142966488819
6.94921875,-0.030260036938209434,0.622950141342147
6.953125,-0.37317177785492467,-1.2289208815663988
6.95703125,-0.5622299249495412,0.1967473732410183
6.9609375,-0.28558790595712713,-1.105306341494899
6.96484375,1.8840011405840382,0.5942172499832896
6.96875,0.36080605479657596,0.1177502281536542
6.97265625,0.8116229192304265,0.04432795599823553
6.9765625,1.8047051196182982,0.8603737052293442
6.98046875,0.7984591438462135,-1.4224466078168405
6.984375,-1.3429352429751988,0.40539646388005873
6.98828125,-1.365544394134184,-1.6311246878192014
6.9921875,-1.766625553420558,0.690917922487411
6.99609375,-0.989890098216352,-1.5750423846046204
7.0,-1.1544135128360187,0.9136116133959413
7.00390625,1.723746892090287,0.11734743310723789
7.0078125,-1.1442179189828918,-0.5147888968754557
7.01171875,0.3260599528416394,-1.9606592820207434
7.015625,-0.6613035036756822,-0.4519258386719326
7.01953125,-0.5684429422915388,-0.8304482376780694
7.0234375,-0.4568011895313491,-1.693977359252287
7.02734375,2.0744788904012186,-2.3164408128432843
7.03125,-0.7440767397044675,-1.033831511081
7.03515625,0.13818456490220568,-1.8680288294923142
7.0390625,-0.9829718813542573,0.8726374932675061
7.04296875,-0.21089199275489592,-0.48357284683574037
7.046875,-0.6970076353527931,1.0406699329070876
7.05078125,0.7921835362333689,0.9301839291034987
7.0546875,1.698354659751365,-0.22550306766634257
7.05859375,0.05273850110689866,-0.40084944872530665
7.0625,-0.27225896181956943,1.3115770632828232
7.06640625,0.525721595801467,-0.9882203634350365
7.0703125,-0.6441167713826872,-1.4015701757826835
7.07421875,-0.7354313347334648,-0.09540028277748253
7.078125,-1.1185687057866531,-0.32565760659170495
7.08203125,0.5061214268844727,-0.20648371700284324
7.0859375,-0.5647438724154086,0.2999965104722574
7.08984375,1.250632225414799,0.4236704125519706
7.09375,-1.1639159269956274,-0.2663760382676819
7.09765625,-0.06735932621910246,0.26816609585593854
7.1015625,0.5940037290646416,1.1181895498495082
7.10546875,-0.19728955123960296,-0.4904516522987893
7.109375,0.05522347201013406,-0.19375593088458742
7.11328125,-0.1107766088200732,-1.4544676674073347
7.1171875,1.317387722611842,-1.2967580769917315
7.12109375,0.35838247647043475,-2.478290640392109
7.125,-0.6233822272354306,-0.17360711375531448
7.12890625,0.37717519693489193,-0.873575311017063
7.1328125,1.2495487569333086,-0.05550657646703976
7.13671875,-0.5657668692062461,-0.347833441197632
7.140625,0.43336661910075497,0.2956465468736345
7.14453125,1.1405927982481467,-1.046316827636465
7.1484375,0.6737919457448693,1.886095392104101
7.15234375,-0.5838813820754518,2.024179073625284
7.15625,1.5012406612929037,-0.5764709018232476
7.16015625,0.6043731407807981,-1.0716728065336842
7.1640625,-0.6267271002678655,-0.18140932572435883
7.16796875,-1.4163200148766137,-0.47208254474612915
7.171875,0.7114704280129045,0.7376859439854869
7.17578125,0.06804897618996039,-2.478441544561935
7.1796875,-1.2517741911972338,-0.8637793411340808
7.18359375,0.025429309610838453,-0.9221372128644673
7.1875,0.02076170353363119,0.6542589740233947
7.19140625,-0.15769812513113254,-1.6938134303911387
7.1953125,0.5126486045209803,0.010549705475621734
7.19921875,-0.633252383685251,-0.3005646493714252
7.203125,-0.06642614954146496,-1.8621960344337334
7.20703125,-2.025384479287389,0.9913870584035303
7.2109375,-0.3087772620831113,1.9143457513893267
7.21484375,0.49014516605597175,-0.48319156027075766
7.21875,-0.03874815360118004,-0.7078668512024505
7.22265625,-0.11140933639793134,-1.3885495694484877
7.2265625,0.8916813372395754,0.48722733294550413
7.23046875,0.22079112933665404,-1.2056931588654975
7.234375,1.1100200695311668,1.3364516900411458
7.23828125,-2.4212322346070043,-0.4931038138325328
7.2421875,0.23306954371432057,1.2040489420251714
7.24609375,0.9322574229999003,0.7663822999608861
7.25,-0.37011638538994174,0.6476653169241311
7.25390625,-0.32356717498855125,-0.8988830354921166
7.2578125,-1.5674056195265225,1.158360806420442
7.26171875,-0.36640757580516237,-0.10268444578013114
7.265625,0.6574776127864408,1.0915154431593321
7.26953125,-1.1668992102293272,0.09955834905451931
7.2734375,0.28333178068187337,-0.44646666483988257
7.27734375,-1.0405177497704818,-1.0791698206193459
7.28125,0.5528702354415804,-0.12398755386206566
7.28515625,0.41342238871734427,0.8882502878512929
7.2890625,-0.8918766749155127,-0.8271722391183753
7.29296875,1.295013707158303,0.6802162982044389
7.296875,0.7807930217849773,-1.3344353239621742
7.30078125,-0.5096728663796302,-0.18260360563189168
7.3046875,2.036456197652313,0.8713958110928587
7.30859375,-0.6665296780965533,0.43782809455056315
7.3125,1.1065177546594278,0.002338489244585274
7.31640625,-2.218301050782672,-0.38763763513376176
7.3203125,0.9648214138498666,1.5200343132874699
7.32421875,-0.8978824229707909,-1.5858175546504953
7.328125,1.3827428399967394,-1.7822456532890363
7.33203125,0.9187336903036852,0.6063062919865259
7.3359375,-0.8812367958640807,-1.7183403491980467
7.33984375,0.18552973194843356,-0.9391332258759263
7.34375,-0.32642189297471214,-0.2391245642136824
7.34765625,-0.3433615923492494,0.192035648597904
7.3515625,0.798040708524741,-0.12549410684646023
7.35546875,-0.5918365234643475,0.13045894919779574
7.359375,-0.5520862528096234,-0.18700316232499278
7.36328125,-1.3723625456085706,1.5321396963205423
7.3671875,-0.7220406200911667,-0.04507198261898894
7.37109375,-0.4895671577957596,0.21740122383899407
7.375,0.5541857053043355,2.5560540253399564
7.37890625,-0.20812732899556732,-1.0313135712118922
7.3828125,-0.1475976808308657,0.4432355510034551
7.38671875,0.557049766907433,1.3049359847284454
7.390625,0.6859113042830001,-0.6241093794532788
7.39453125,-1.3901883615505015,0.7629465360508576
7.3984375,-0.6047555661636412,-0.21977786359039186
7.40234375,-0.29696204787225844,-1.0551348251574328
7.40625,-0.7603905668909771,-1.8053756298938737
7.41015625,1.0129632177404142,-1.0886858258488594
7.4140625,-0.043233342689154006,0.8921180204861435
7.41796875,-0.24086844517997388,-2.395417435445376
7.421875,-1.6381552837386286,-0.3330547504511319
7.42578125,-0.8801939535606041,-0.8168290718953912
7.4296875,1.2975785710265968,-0.21938674183430074
7.43359375,0.4550725316302307,-1.0435057577218192
7.4375,1.3418589704866875,1.5703999709635101
7.44140625,0.15577292766345102,-0.16192465016042543
7.4453125,2.428903344104827,0.40785324626887987
7.44921875,-1.7822357220096572,-1.012133330732548
7.453125,0.20139721498942414,1.4399041979309672
7.45703125,-0.9129110222883073,-0.7362986550805465
7.4609375,0.5059510070691569,0.676675391412306
7.46484375,-0.5177982965010111,-1.4168982772070533
7.46875,-0.8133078412953149,0.3922267270548234
7.47265625,-0.8664133757694805,-1.4922674035542094
7.4765625,-0.23928649792409762,-1.7351255536709893
7.48046875,-1.7432498739071103,-0.15297109773392908
7.484375,2.1517208749115455,-0.013973704160621282
7.48828125,-0.23970305653261925,-1.5722644542903814
7.4921875,-0.633229202375757,-0.45438093989984263
7.49609375,-1.2425854269874237,-0.08185775759637011
7.5,0.8395350178844336,0.5696729804249726
7.50390625,0.5443615830248509,-0.8689313206983856
7.5078125,1.174319376192614,-0.5849626652707849
7.51171875,-0.1836288315776199,1.2083831968678516
7.515625,-0.8790037137939811,-0.25374343912561503
7.51953125,0.9217196904982732,0.8502015729931105
7.5234375,-0.45851833502507816,1.1623234703542555
7.52734375,0.500423892110004,-0.2792606008215399
7.53125,-1.3625315388373231,-0.23286366946895998
7.53515625,-0.9787514986379277,0.0666570879356547
7.5390625,1.8247648077698955,-1.1310680594302485
7.54296875,-0.40845098097651494,0.5740687383198911
7.546875,1.7903170120245089,-0.7185029311082568
7.55078125,-0.6201340182668765,-0.12606726244978506
7.5546875,0.040344182379160425,-2.3628727350553933
7.55859375,0.7867992738830787,-0.9628667025617315
7.5625,0.6656072096936014,-1.5744666970981747
7.56640625,0.3079295295006142,-0.8738019468960946
7.5703125,0.39563789560379753,-0.5686747676270476
7.57421875,0.8772811556629374,-0.6076797010616496
7.578125,-0.2654039843020838,1.0531800460218164
7.58203125,-1.1582656980675012,-1.4519397022081009
7.5859375,0.15767258663129263,-0.40697425019271455
7.58984375,-2.189149683320072,-0.8058606316678908
7.59375,0.6038910623844786,-1.2096671067429403
7.59765625,0.6135692120649366,0.8192188151828371
7.6015625,0.5628668406213688,-1.1753620965832503
7.60546875,0.011862913529788325,-0.8594815352423971
7.609375,0.02603594361302077,1.276805953529076
7.61328125,0.8466585383851383,-1.064413098283395
7.6171875,0.8346908507666938,-1.144327319545219
7.62109375,-0.4543272975707543,0.2988093369641869
7.625,-0.6688470719802339,2.07771391928744
7.62890625,-0.20614850909825316,-0.5948815814106414
7.6328125,1.0793801076693523,0.7887372575716145
7.63671875,-0.03832849599321075,0.011964901538033482
7.640625,-1.2777144515814773,-1.9991790564871914
7.64453125,0.5308862168323637,-0.48401794733279035
7.6484375,-1.8610650083220042,-0.38934323084330635
7.65234375,0.29676878107371724,0.13755780386921831
7.65625,-0.19099735308688043,-0.5057113993108102
7.66015625,1.302754617111707,-2.1295974821409844
7.6640625,0.5439496361399991,0.025421658258233372
7.66796875,1.015763929055134,0.30371768643369695
7.671875,1.382452114611729,-0.33766690453149173
7.67578125,2.102937660124975,-0.6189557179263896
7.6796875,0.9707115256281403,-0.43381318890173404
7.68359375,1.3618938456913243,0.3453335665145432
7.6875,0.31328461769478094,-0.9257443758957999
7.69140625,-1.3966619123295778,0.21799264323910175
7.6953125,-2.165642161861979,-0.972196018695026
7.69921875,-0.9066907796442549,-0.3328414512491594
7.703125,1.2988549436804269,0.16881935645344745
7.70703125,-0.20451170174588082,-1.002156054479723
7.7109375,1.5623584297912685,-0.827831203080356
7.71484375,1.6814129980526353,-1.0347835463745505
7.71875,0.5807643094082072,-0.45773540111655514
7.72265625,1.359645663752665,-0.807803004544595
7.7265625,-2.2383729167872524,0.9105202760243434
7.73046875,-0.8567119304806848,-0.04632980470962215
7.734375,0.7902112022314718,-0.8363965724456085
7.73828125,-0.8124555079243309,-0.38403645559325045
7.7421875,-0.3766704497174467,-0.5601546408213864
7.74609375,-1.1827361423328937,-1.3047932976441214
7.75,-1.0160456997418539,1.2993842387832577
7.75390625,-1.076715799028727,-0.6543251566908033
7.7578125,1.7765543733812128,-1.1647063343483601
7.76171875,-1.0501287750689705,1.4678184028153658
7.765625,0.9907933581466684,-0.6444035166420529
7.76953125,-0.5158014508625275,-1.3856384915862832
7.7734375,-0.36702575287133193,-1.2625056084338986
7.77734375,0.2505618478645276,1.5273396688032856
7.78125,-0.30694159290957723,-0.47795140166507843
7.78515625,-0.2101665201199651,0.012880492739179239
7.7890625,-0.72359723203267,0.6218019259465464
7.79296875,-0.6655333407077078,0.6462685590378922
7.796875,0.38521541290511074,-0.4872484149668311
7.80078125,-0.5659845508041599,0.12626271213682985
7.8046875,0.632236581678821,0.6497490533221183
7.80859375,0.41399075229077087,0.0300956514725299
7.8125,-1.0453963109863467,-1.7200929539365606
7.81640625,0.55301462713526,-0.5064091098141801
7.8203125,-1.0313411492490159,0.9376279675443141
7.82421875,-1.3045239753009377,1.737630401060932
7.828125,0.14248174731382116,0.008823088757901642
7.83203125,0.5018633931167055,-0.25557330284421825
7.8359375,1.3570994534999565,-1.752023542497829
7.83984375,-0.3579667521711125,-0.6044618834680924
7.84375,-0.3820682707268765,0.5460258824727109
7.84765625,-0.07775268887635553,-0.07606268175153401
7.8515625,0.793301402744035,0.7954479914983265
7.85546875,-0.0397650368653997,0.4645526355431794
7.859375,-1.5654592874633781,-1.2025971326582063
7.86328125,-0.46709035852411607,-0.41363127374513925
7.8671875,0.4276759333311986,-1.0834032237985054
7.87109375,0.1267428116094414,-1.5520538338386647
7.875,-1.183245642371139,0.5168820838954705
7.87890625,1.7906646380880669,0.003100217199502557
7.8828125,-1.1364086131119802,0.7306308043852958
7.88671875,0.7062120573324955,-1.772335094056697
7.890625,-0.1370375556629917,-0.8225423693289033
7.89453125,-1.0684125999944118,-0.432288366344421
7.8984375,-0.45193083124851163,0.3911541623137197
7.90234375,0.39730144446839416,1.3369346017179562
7.90625,-1.5795103064402927,0.42964374016671425
7.91015625,1.9460971156153533,-0.17451511360528593
7.9140625,-1.2751916411724222,1.6582700658017393
7.91796875,1.9304988131869274,0.37767948883208985
7.921875,0.5184680627646328,0.8498876022099239
7.92578125,0.05429971318591203,-1.3678623420712321
7.9296875,0.0757234509083012,-0.6004337807541197
7.93359375,1.4034275628798232,0.30769891727818655
7.9375,-0.28832229729459996,1.0011970498907614
7.94140625,0.1292818238066127,0.12612056942849817
7.9453125,1.9327507446669763,0.6206885032897377
7.94921875,-0.13290441798175906,-0.8670509602847302
7.953125,-0.4198371085963913,-0.5589904758757464
7.95703125,0.5498046752883682,0.49461436107916124
7.9609375,0.11869011847616923,-0.5544908808440658
7.96484375,-0.890754680344025,0.8333401185491971
7.96875,0.7347974780960868,-1.0068418926497962
7.97265625,1.1666879919850397,-0.6519578544810839
7.9765625,-0.47715794063278244,2.15542219019939
7.98046875,-2.041065313718883,-0.9802400486191453
7.984375,1.0708726063079383,1.2526820660181728
7.98828125,-0.7906979540185056,-2.5019555893640897
7.9921875,1.2522400346827134,1.760387451893066
7.99609375,-0.6212369712933217,0.14028834864298312
8.0,-0.03502498885563226,-1.5157914535241854
8.00390625,-0.3399920617797741,-0.14830277739138567
8.0078125,-0.5788135203951431,-0.13935525697942547
8.01171875,-0.20978200082151152,-0.14647752206665446
8.015625,-0.575130671002788,-1.0316885873844637
8.01953125,-0.4694525872271277,-0.9298185749661712
8.0234375,-0.5442072159841904,0.5574192780444572
8.02734375,-1.0228026180664596,-0.7971464958068631
8.03125,-2.2938299714411103,-1.0712367401513476
8.03515625,-0.43221342144844727,1.1168863370931816
8.0390625,0.794449302829218,0.9396632921671099
8.04296875,-2.0060283132095518,-1.0855034532139973
8.046875,-0.22174715165891076,-0.007933171783117436
8.05078125,1.337932675410917,1.217109099452616
8.0546875,-0.6920474434978727,-0.2595766864840347
8.05859375,-0.4298981449115944,-1.0950059546222817
8.0625,0.8913735095128003,-0.8716246587284088
8.06640625,0.45808680014882924,0.3567014507015789
8.0703125,-0.4898181826638316,0.35454531764105535
8.07421875,-0.38536596356444025,-0.7870800647701796
8.078125,-1.7310505842209698,-0.5592669681005106
8.08203125,-0.37397701738246997,0.4169906468212685
8.0859375,-1.9578877294909585,1.4158197067778504
8.08984375,-0.49493589292853213,1.7946004639950937
8.09375,1.3943418496765225,0.5825677899241439
8.09765625,-1.0056771171167238,0.3934651691341997
8.1015625,-0.0770114033158142,0.8290588156222886
8.10546875,1.3450305066952986,0.6367717497140077
8.109375,-2.2780588968326985,0.9658271947312427
8.11328125,0.11941039547672162,-1.4932638484807708
8.1171875,-0.2438889284950584,0.22472423555182028
8.12109375,1.249635173036091,1.2934616313846694
8.125,-1.8478821624897808,-0.18381167777135946
8.12890625,-1.0287154869804531,-0.849817556303423
8.1328125,0.13675636257141574,-1.6359402807352736
8.13671875,0.7057307757024961,-0.059480055423791714
8.140625,-1.6601678233341932,0.8498014329573867
8.14453125,1.2082490688447045,-0.3595873227267906
8.1484375,-0.34627164058252624,0.6057417183052716
8.15234375,1.238243427008301,0.8869176585983701
8.15625,-0.2749433955191984,-0.6969256728022962
8.16015625,0.6677757734132848,2.273079041723271
8.1640625,2.589767763780983,1.3965861484564972
8.16796875,-0.2834785739205,1.2241839703160848
8.171875,0.6360002525386356,-0.5833162468210915
8.17578125,-0.01584532517895007,-1.4551435548177223
8.1796875,-1.0680349685634456,1.0088265996967072
8.18359375,-1.396891061305401,0.1443899312191183
8.1875,-0.35687292092745077,-1.5790495743886028
8.19140625,-0.1416105654702633,1.9636658520716508
8.1953125,-0.8828406662301439,-1.2091636347258214
8.19921875,0.5080620764728472,1.328855460805024
8.203125,0.23433283594018955,-0.5018813137953931
8.20703125,0.08952371653744838,-1.9900402496970526
8.2109375,-0.4718569270315606,0.07305498832474926
8.21484375,-0.8628651533739438,-0.42706516405613426
8.21875,-0.5388960992051611,0.846950947373458
8.22265625,-0.5019281457722151,-0.4908891025685363
8.2265625,-0.7010999462891019,-0.06637056359934623
8.23046875,0.7757370324275122,-1.5595147574149333
8.234375,-0.0835332682579162,-1.2163686411147308
8.23828125,0.3208199155005367,-0.8648913209163397
8.2421875,0.10869453881824193,-0.5599304420226007
8.24609375,0.5985224632668573,-0.8002967936451099
8.25,1.8028095761334364,1.0158942271289053
8.25390625,1.7733192914469713,1.1336927447422807
8.2578125,0.8668954597198206,0.9413041322711684
8.26171875,-0.45394285291565417,-0.8039473190843057
8.265625,-1.8528230263036476,-0.6669009069983445
8.26953125,-0.11779988414724575,-1.4976826935144982
8.2734375,2.699946389577208,0.4520054765999065
8.27734375,-0.3358417008654676,1.5518334625432872
8.28125,0.2739368826679777,-1.6826835194927774
8.28515625,-0.3838971358813979,-0.5816392655240678
8.2890625,-0.5716741366574571,-0.7189511158708527
8.29296875,0.7939074849847281,-1.048333931246594
8.296875,-2.0234560272326347,0.9490544874063479
8.30078125,-0.6562036066748906,0.06608397101833938
8.3046875,0.33491532368075133,0.015511364329460047
8.30859375,-0.5831832571590397,-0.08958628145112928
8.3125,0.4411333273439676,-0.2658197744851884
8.31640625,0.17530064845094115,-0.3091992010742812
8.3203125,-0.5264502409471775,-0.24675448029239463
8.32421875,-1.536571990664543,0.2709809531695766
8.328125,-1.7704731484071525,1.596297284313449
8.33203125,1.1695892729100597,0.018880697420829796
8.3359375,-0.0051180204623361165,0.4134870224503084
8.33984375,0.5857947708743637,-0.07656020392059877
8.34375,-0.49674137471254304,0.8334907835344881
8.34765625,1.0689427153050002,-1.1334956897945851
8.3515625,0.7198913235027039,-0.3411030178321442
8.35546875,1.3433265120582707,-0.6538026380805012
8.359375,-2.3605046033511417,0.6451514897823023
8.36328125,-1.214696356134397,0.1486210768814019
8.3671875,1.4018150194505747,0.48720110901597846
8.37109375,0.10682877936032498,0.5550975274504091
8.375,-1.0975865616225418,0.9652325695905364
8.37890625,0.21258320399612254,-0.6850601423847759
8.3828125,-1.477365014327413,-0.08113276760051433
8.38671875,0.03336157068106598,0.20926823071314607
8.390625,-1.8088959064431502,-0.4771562298367354
8.39453125,1.1557301541973104,-0.1719786647842064
8.3984375,0.4884676687123022,1.4223918340787156
8.40234375,-1.1015058535728033,-0.041947911834457424
8.40625,-0.3949034997934223,0.25733054017575624
8.41015625,0.5767403653688085,0.22541571327027254
8.4140625,-0.08428661950802833,0.7223913331877153
8.41796875,0.5590363185305289,-0.7454590524440371
8.421875,0.7829695811132016,-0.7597685243302544
8.42578125,1.0690271444901875,3.423659273341729
8.4296875,-1.076211057018059,0.3158068927996749
8.43359375,-0.4566997143414017,-0.07671608763644847
8.4375,0.49871051758886176,-0.27124482846394354
8.44140625,-1.3689111252801816,-0.9646150938905594
8.4453125,-0.2818281571438463,-0.32810039271126723
8.44921875,-0.8495823190637656,-0.5760845731494028
8.453125,-0.9598865769430904,2.2305211562159832
8.45703125,0.07494918734630213,0.7825949202572313
8.4609375,-0.39088723287366084,-0.33207024232418675
8.46484375,0.9274368605880063,0.38778843514618355
8.46875,0.6119656220223918,1.051654190217314
8.47265625,-1.107336172000474,-0.7172081060826917
8.4765625,-1.381720447392365,-0.07331456949056002
8.48046875,-0.3981378862122127,0.7261164887594156
8.484375,0.6856019376978616,1.133534633334094
8.48828125,0.07562834855635708,0.4188042838203872
8.4921875,0.3369294675451822,-0.8141775424188267
8.49609375,-0.7365267273166395,-0.4380554102393488
8.5,0.8348782059447154,-1.0004876491299461
8.50390625,-0.36150094070016153,1.1588700899842461
8.5078125,0.5088977483393731,1.0741509778360558
8.51171875,0.7499310481204069,0.2769680466419446
8.515625,0.4272069152328028,-0.346323706220857
8.51953125,-0.9402489021641902,-0.22029811814972858
8.5234375,0.536364017434399,-1.5327513536019632
8.52734375,1.084718567667946,2.3196956230110994
8.53125,-1.879613615204876,0.6548552445084487
8.53515625,-0.16189836015073084,-0.8554938886621032
8.5390625,-1.1403251497666922,0.03632089097878729
8.54296875,-0.10447281621048435,-0.9651501920289891
8.546875,-0.6383977328822011,-1.0532024570503782
8.55078125,0.6138283200947542,-0.7336707102547283
8.5546875,-1.2581011410970335,0.8213562486101152
8.55859375,-1.045302062348471,-0.7351058849104425
8.5625,0.39450699674591716,0.3766955253453124
8.56640625,-1.8611508152592393,-1.4978378991318282
8.5703125,1.7746912833380248,-0.061654532467255545
8.57421875,-0.1074575255882597,-1.2068497159059737
8.578125,0.09502977944453825,0.7961583041539718
8.58203125,0.8993904041479436,-0.16892264731120374
8.5859375,1.5460917754589123,-0.04482761607008527
8.58984375,-1.9026799366260625,-0.022738056028629723
8.59375,-0.17911466506939966,-0.1984860510260069
8.59765625,0.49947850976911284,0.4907358340265616
8.6015625,-1.2007700421396668,0.28934271792722094
8.60546875,1.091351219232472,0.3301349545357198
8.609375,1.429185596258847,-0.9950682870393134
8.61328125,-0.13300104529906273,-0.9910052730785296
8.6171875,-0.5149511506915422,1.135217120192796
8.62109375,0.35661068672893387,2.3714580549686373
8.625,0.07256776276066884,1.3282780635430294
8.62890625,0.9407451436943571,-0.5197470968026847
8.6328125,0.3116674286462471,0.89951275275351
8.63671875,1.7463149122384665,-1.6557953498279592
8.640625,0.34975369769463804,1.3750687585306527
8.64453125,-1.2963134806399628,0.41892745215048155
8.6484375,-0.6131870883209058,0.11353561227919987
8.65234375,0.775775450218477,0.25454956756518166
8.65625,1.0423629518497182,0.11295897566587507
8.66015625,-0.10180530706919799,0.9977866111394087
8.6640625,-0.45887346528769873,-1.5068884170640948
8.66796875,-0.4717212287624338,0.8764404142911996
8.671875,0.7180988254246887,-1.0065609022726818
8.67578125,-1.5690706962114658,-0.9465910850182612
8.6796875,-0.013817671848535811,1.1173330741604688
8.68359375,-2.2128154567026406,-0.9812578810770384
8.6875,1.588599016680258,-1.1627352164335198
8.69140625,-1.6560579738582386,2.462514689627934
8.6953125,-0.3056629405642429,1.6756710487990079
8.69921875,1.0399983123823295,-0.8236140425633759
8.703125,0.27806154965231084,-0.5235474319534402
8.70703125,0.5514875477336812,0.2008369926397782
8.7109375,0.4625306948825231,0.047751783144832395
8.71484375,-0.5661703839043456,-0.11311973705079066
8.71875,0.43454464479011984,-0.857640476493573
8.72265625,-0.8012340172311107,-1.1414784797960538
8.7265625,-1.222115345302872,-1.582678313521866
8.73046875,0.7921809453613249,0.4022408900711753
8.734375,1.1966439716008603,-0.3927838809680691
8.73828125,-0.6491632432486408,-1.6229249985008996
8.7421875,0.7240970548830817,-1.0583189921890017
8.74609375,-0.15090872995745422,-0.2988170836154349
8.75,-0.7032658136248013,1.6082699122622615
8.75390625,0.3889427261112027,-0.5107019579541449
8.7578125,-0.29665916561551575,0.29043961081328884
8.76171875,0.5889700721490471,-1.559878768314595
8.765625,-0.4129164306810817,0.7823400114636231
8.76953125,-1.3042003676635583,0.036575552701252026
8.7734375,0.08816591653866986,-0.1341940018588522
8.77734375,-0.9670840062422282,-0.29253194130868576
8.78125,1.0438948843759448,0.5889924230920272
8.78515625,-0.13521505190381705,0.1617373941318787
8.7890625,0.7488652800544982,2.2499069629859183
8.79296875,1.2970021633466806,-0.0305213974554933
8.796875,-0.16365557621886037,1.405263815608043
8.80078125,-1.006370562110589,-1.3645374832704982
8.8046875,1.1229557962323617,-1.0330056745436849
8.80859375,-1.623384629081158,0.8079297302803835
8.8125,-1.3494576372632128,0.6512592011049514
8.81640625,-1.179905493065451,-0.8859923360829028
8.8203125,-1.4143881776605756,1.0962151116593946
8.82421875,-0.06154145762312039,-0.34040860697266717
8.828125,0.26580785271716206,0.7056319425476814
8.83203125,-0.06285603073386034,-0.5157846529146305
8.8359375,0.41905236598063367,-0.27057134428209223
8.83984375,-0.6199694094222785,-0.180663741018996
8.84375,0.4984496052529346,0.28413913921668543
8.84765625,-2.178035283218273,-0.8574773023139142
8.8515625,0.1443404151583527,1.2478027376094871
8.85546875,0.7939257986926188,1.3032499996998772
8.859375,0.4792851339985809,0.4339846253743662
8.86328125,-0.2058764575783211,0.6285281103391337
8.8671875,0.23811448265188698,-1.134581050818281
8.87109375,-1.3978399246106321,-0.797420776320453
8.875,0.394973185194106,-1.6097756785357331
8.87890625,-1.1575641413866882,-0.0027117513964924145
8.8828125,1.737468130863146,-1.1076701617050724
8.88671875,0.024306965615108637,0.2687147475324029
8.890625,-0.31844912988636004,-0.278827136835869
8.89453125,-1.5215903056657756,0.41048058166110624
8.8984375,-0.17148944280235265,-0.6658267866795006
8.90234375,-0.902224174620639,0.2848049630634524
8.90625,-0.09540112508171693,-0.1782495580712128
8.91015625,-1.8807164498641953,0.3959257045015883
8.9140625,0.48126143800789306,-0.5309180982597148
8.91796875,-0.5197726120933748,0.5286054510868284
8.921875,-0.3426560688598829,1.0322047322002978
8.92578125,1.4201637288871998,-1.0808615485167825
8.9296875,0.8144026185213062,0.2924058966550218
8.93359375,1.2717812485936524,-0.171065021536299
8.9375,-0.5612136729846406,-1.2862832953104832
8.94140625,1.3146138591131311,0.8358075012399893
8.9453125,0.5478570122966515,0.7617582229400491
8.94921875,0.28843185959400064,1.9900502618936755
8.953125,-0.022158199305074174,-0.5518639520937306
8.95703125,0.8208336750719499,-0.6196682703972459
8.9609375,2.306935422449947,-0.8857406863547551
8.96484375,-1.9744356166368358,0.06784126822085032
8.96875,-1.2809042344119728,-1.009082780761638
8.97265625,-1.5226724156008682,-1.3994846264314895
8.9765625,-0.8300530689787613,-0.41081428288726934
8.98046875,0.18238382954036414,0.485786784245945
8.984375,-0.6705717948084663,-0.46058761586195723
8.98828125,0.2035451302545718,1.3886184318437682
8.9921875,1.0090088226243095,0.16790231034539307
8.99609375,0.4714035734995,0.5340458930496653
9.0,-0.2498221843668929,-0.408071268993055
9.00390625,0.5364568415449819,-1.8503888118505627
9.0078125,0.4501691147820824,-1.6428095296924214
9.01171875,-0.5454255123343263,-1.540087654529711
9.015625,1.440782528312016,-1.2555961308137968
9.01953125,-0.82925606104658,0.6943969152378758
9.0234375,-0.4152173704252273,0.14250199298872734
9.02734375,0.018178896494674628,0.33933446645796417
9.03125,-1.6666095092499082,-0.06180629383724604
9.03515625,-1.2461195082782608,0.0637792973252905
9.0390625,0.21137774828877615,-0.625810447564245
9.04296875,-2.062054710956727,-0.5595574891855751
9.046875,0.972512311778377,-0.8524440868707918
9.05078125,-0.5941076480948142,-0.8659093059564125
9.0546875,-0.5123776827486904,1.6554447130939034
9.05859375,-0.44953886753391953,-0.14015278753560087
9.0625,0.8039299262444063,0.12941499767358253
9.06640625,-0.3624502070855571,-0.3639645334882042
9.0703125,0.16298219212269596,0.24796064515840968
9.07421875,0.7009281632424913,1.0961464564609107
9.078125,-1.071948606107233,-1.5917880155591357
9.08203125,0.029951872475059437,0.9161593829050009
9.0859375,0.325072237049097,-0.14720032873257036
9.08984375,-0.07381943766402346,0.40999423365102394
9.09375,0.4415387196663601,-1.0821151410553485
9.09765625,-0.13275012943974068,-0.8025723418993865
9.1015625,-1.8332304039755556,0.25495375077592947
9.10546875,-0.09514716803173419,-1.0090378326617797
9.109375,1.3980014981871733,-0.7213590209497669
9.11328125,-0.24156752593404238,1.4082849374904574
9.1171875,0.23446988048091585,0.9063641703548254
9.12109375,-0.939207564046644,-0.1022278025640102
9.125,0.6208236444922367,-0.7340947719177151
9.12890625,0.1481951985654477,0.3955643153637664
9.1328125,-0.21894233168869906,-0.7636667200288757
9.13671875,-1.38691626028694,0.21705188071117282
9.140625,0.6969841709036163,-1.3420455555922688
9.14453125,0.4606963512424465,-0.060311537908684806
9.1484375,-0.1951093774032307,-1.100806803310333
9.15234375,-0.4495776941089529,1.1128843980228602
9.15625,0.2936824855818377,-0.5246774965709554
9.16015625,0.5277969792193407,1.187317684947536
9.1640625,0.8708257443392169,-0.5672046011727292
9.16796875,-0.15054287240854847,-1.283949963022226
9.171875,-1.049041962387398,0.8764344267504451
9.17578125,-0.6436336469289606,-1.674255348025484
9.1796875,0.8668479562607464,-0.41977726293009376
9.18359375,-1.4749635378461705,1.3465166741258432
9.1875,0.21395978944856203,1.4028031230924154
9.19140625,-0.8563675160349238,-0.2862678702606549
9.1953125,0.9723012109909314,-0.6877255670143718
9.19921875,0.14530151458804738,0.6149760945698831
9.203125,0.33750120454422794,-0.000996365497613819
9.20703125,0.2673936594110266,-0.42540344163048704
9.2109375,-1.8044143344146018,1.5709841376841347
9.21484375,-0.2743147597274275,2.3376833329527327
9.21875,-0.19480662657248993,-1.4275298015239295
9.22265625,0.7751476369472091,-0.7058540511240313
9.2265625,-0.0784571177632489,0.05516215706902991
9.23046875,-0.43183895918034215,0.4442056584529014
9.234375,-0.11790754715566537,0.12246240696703393
9.23828125,-1.4200234803975809,0.7905939022478581
9.2421875,-0.8409768872578771,0.5517163901526122
9.24609375,-1.4228395711089616,-0.3336738079756401
9.25,0.1299322941968506,-0.7004576999404363
9.25390625,-0.7455041996622896,-0.017823639728899058
9.2578125,1.3502164756503103,1.421891701535126
9.26171875,1.4273513754099418,1.7313566596634187
9.265625,-1.658298696302281,-1.3666695035522727
9.26953125,-0.8509868872781765,1.3017719309464257
9.2734375,-1.5968359200978532,-0.005587448041861419
9.27734375,0.9700337079610121,0.7878628038182206
9.28125,2.497945407222976,-0.9829365267054967
9.28515625,-0.8723130708444494,-0.05307473587288432
9.2890625,0.17751191767410068,-0.6383440883617365
9.29296875,-2.1223039667526207,-1.13979997352091
9.296875,0.7091145177134606,-0.2651839936053117
9.30078125,0.027311569239758544,0.3862646484527098
9.3046875,0.17570659610406658,1.2017700417725417
9.30859375,-0.10118941240110355,0.1627774926748738
9.3125,-0.46692688307223673,0.12953853558143424
9.31640625,-1.0471635820504546,-0.19937699657965474
9.3203125,0.3604298954393263,-0.6451253431196939
9.32421875,0.3477882189982677,-2.6332855457121087
9.328125,0.14317330986529012,-0.21163733662641637
9.33203125,-0.481171393605972,0.36155644502352086
9.3359375,-1.4923148369221966,0.41955420063035265
9.33984375,1.9559769381717247,-0.23331932152418042
9.34375,-0.48813355800916686,-1.0473006056886525
9.34765625,0.31406554810480264,0.7394410323038896
9.3515625,-1.2993193886268974,-2.010499530394667
9.35546875,-2.1624959434601214,-0.5395829290303844
9.359375,0.24846114813603334,0.04913822596116556
9.36328125,-0.8728135247973026,-1.370404893009195
9.3671875,0.8307936864028518,0.08957024650124505
9.37109375,0.35681703928273084,-0.010280022086548293
9.375,-0.2550501337088253,1.0256989698140002
9.37890625,-0.1631498987562291,0.697304240542466
9.3828125,-0.9339644400850726,-0.4806730675877278
9.38671875,-0.5748925453865138,1.8245203384855244
9.390625,0.7588167143541249,0.003482163110755208
9.39453125,-0.6823541702341371,0.8315477586584733
9.3984375,-0.5840123707694367,-1.2253522610270202
9.40234375,0.6833692768003417,0.014495776295892169
9.40625,0.9611874633023361,0.4356464131291863
9.41015625,-1.224543929052555,0.5648072633051299
9.4140625,1.1394977169921316,0.6073909090016125
9.41796875,0.4536798730650998,0.1263601373569561
9.421875,1.3781196900336277,-0.3105024283418984
9.42578125,0.6229764933684786,-0.5175570134891514
9.4296875,-0.2599167340800993,1.6211449333033352
9.43359375,0.6321088559866526,-0.6757592220468955
9.4375,1.2528840014737184,-1.1513219493009155
9.44140625,1.0875195203719075,-1.271067787684902
9.4453125,-0.670887970036498,-0.7722514333483558
9.44921875,-0.9532569429088039,0.4046191778843224
9.453125,-1.5000862316630796,0.2675214320516504
9.45703125,0.8099599546309629,0.3579274666305308
9.4609375,0.8474866083588124,-0.6811443924513904
9.46484375,-0.03565032508713083,0.2567450828410432
9.46875,-1.3315787817501765,1.2450053210937468
9.47265625,1.143583828951352,-1.2457897831382014
9.4765625,0.06866158683168501,1.732089916077039
9.48046875,-0.11405863272188756,1.0089357257906146
9.484375,0.9039653190073738,-1.578961068060522
9.48828125,1.8318541608942023,0.8285898664460782
9.4921875,0.29052105705293624,-0.9367187098482938
9.49609375,-0.20490890641208875,-0.011567741251377129
9.5,0.38287228721266975,0.7409783938809701
9.50390625,0.8743289754139956,1.852819203121791
