time,ecg,ppg
0.0,1.4297710444571663,0.8465428356411986
0.00390625,-0.05864140636005601,0.5574431730328496
0.0078125,-0.2848678997590135,0.632672528264169
0.01171875,-0.04874641212858126,0.3356894054642098
0.015625,-1.3251623394363203,-0.10251396196761675
0.01953125,-0.11591404293765631,-2.1562399398335024
0.0234375,-1.2674081709199805,2.0107906135027163
0.02734375,-1.90894883947265,0.6040181006719693
0.03125,-1.1997176164526842,0.2905084331897039
0.03515625,0.5017948835699313,-0.17062647077042045
0.0390625,1.3359254677624202,0.0859140153969669
0.04296875,0.850078737903316,1.2000093828302596
0.046875,-1.240949169180523,0.019966990147526474
0.05078125,-0.5868392373677103,-0.9439204189484237
0.0546875,0.28711021360190153,0.580725654827417
0.05859375,-0.3666653462150237,-0.8753560228920135
0.0625,0.14091758930301002,-1.0641618141875184
0.06640625,-2.4344346934637873,2.2408422552482206
0.0703125,-0.5894333048970292,0.8735322169025403
0.07421875,-1.8560701711906544,-1.2748346001588986
0.078125,-0.7953266045438725,-0.08676138880714726
0.08203125,0.7765456707439173,-0.22735366935930326
0.0859375,1.63090308559561,-0.6068648037734176
0.08984375,-2.3913464112889096,0.7902808621355217
0.09375,-0.515562980087212,-0.07103229832350488
0.09765625,0.055922282385859286,0.003965291003789979
0.1015625,0.3472074230641034,0.9283179978187357
0.10546875,-0.7882238461773824,0.23665781760849844
0.109375,0.3346955211455971,1.0928800731952544
0.11328125,0.6831433103155695,0.6490321834899754
0.1171875,0.35521722277387013,0.15764767859196568
0.12109375,0.288249465573228,0.9881690609820905
0.125,0.7933308299357343,-0.8398195830321814
0.12890625,-0.18679265938874454,-1.2238714419968535
0.1328125,1.6519775068717146,-0.2553096519665334
0.13671875,1.1713933824132328,1.1131197679779836
0.140625,0.1295717523266655,2.2863915726837596
0.14453125,1.3829688867405376,0.14623172604321863
0.1484375,-0.9497616238013711,-1.3256381525873266
0.15234375,0.2130041325410678,1.4337417284224998
0.15625,-1.787328715771529,0.30247055130567263
0.16015625,1.2570192164197147,-0.4823010202530413
0.1640625,-0.016777143822301114,-0.7240025988107417
0.16796875,-0.2740351264941725,-0.4044885822920069
0.171875,-1.9548853302150118,-1.8462381867633488
0.17578125,0.3765541496000632,0.4876273174607284
0.1796875,-0.7806376271773103,-4.0404751543076385
0.18359375,-0.5886386577107906,1.1055419896108694
0.1875,-0.5921817604870031,1.527816733595828
0.19140625,-0.2861631465467661,-0.2795436439626432
0.1953125,1.3301774572357135,1.9353151576769687
0.19921875,0.6726856159504215,-0.15833956957431672
0.203125,-0.6483566372363294,-1.3456595673025844
0.20703125,0.9457750492483427,2.3272410882745955
0.2109375,-1.1424344067152477,-0.030128543293472948
0.21484375,0.20241066621894716,-2.29091546626473
0.21875,-0.304851995899679,-0.7475093708608096
0.22265625,-2.0802174691402615,-0.5727417926029282
0.2265625,1.1366183978552604,0.2470785478410711
0.23046875,0.9263257959974764,-0.7985090689862326
0.234375,-1.0185342528402348,-0.2659281415323368
0.23828125,1.4986089169164467,0.44310764395596686
0.2421875,1.003672948013685,-0.0041856989175747435
0.24609375,0.6917623019633483,-0.6997536724799814
0.25,1.789214013286676,0.14273217576569636
0.25390625,1.2278908717830845,0.2692640767639829
0.2578125,-0.8110870243651696,-0.2648119561793019
0.26171875,1.1918484807922434,-3.1067074029799704
0.265625,0.7055269878434062,2.009419172661241
0.26953125,-1.4116523176471247,1.5462778399004724
0.2734375,-0.17508981345868777,-1.0720090606143458
0.27734375,0.48323491418375636,2.0858294108394597
0.28125,-0.16187693016308208,0.16090545891459815
0.28515625,0.1313668331762508,0.17991770665936271
0.2890625,2.8080229573245226,0.6978669160634081
0.29296875,0.08781369986437271,-0.12966011877802316
0.296875,-0.8690608122432126,-0.8701300232601202
0.30078125,-0.08695932334924578,-2.789358812290057
0.3046875,0.8036418723236454,-1.3450217925860228
0.30859375,1.856018050861091,-1.0435754938880257
0.3125,1.2345306673423502,0.03630995039681629
0.31640625,-1.147315395237977,-0.09031056378940541
0.3203125,0.5670266478623339,-1.8289712011117172
0.32421875,-0.7379703125361403,-2.7511883037210647
0.328125,-0.9033513548733699,0.7705841003753028
0.33203125,1.6760451494629907,2.843836141263604
0.3359375,-1.4649197148896993,0.5876430358684723
0.33984375,1.2612735238049364,2.2379145078809093
0.34375,-0.17930339792428787,0.4632728172744138
0.34765625,0.3840567242001876,-1.5320756247710359
0.3515625,-0.033827238524449695,1.803272681877341
0.35546875,1.2051493232053063,0.18262314368014632
0.359375,1.05430786250647,0.29307938757869384
0.36328125,0.056769737851509086,-0.8805745644733372
0.3671875,-0.47435157925570476,0.4841524737084884
0.37109375,0.44293556609408274,0.8170405889140422
0.375,-0.11666205783134762,-1.3586355658884943
0.37890625,-0.4792004560238804,-0.7146990240868739
0.3828125,0.27870517953384677,-1.0850699029554796
0.38671875,0.05376622408528074,0.1410496797993771
0.390625,0.15623311425132294,0.15648686937084708
0.39453125,1.1628567794158537,0.010817737741990617
0.3984375,0.9067705676368362,-0.8200156456867529
0.40234375,-1.3876477896015227,-0.185472928548034
0.40625,0.8694760106815532,0.11242908586405642
0.41015625,0.586104000996833,-1.613700801927983
0.4140625,0.6368619920759025,-0.4323852375284177
0.41796875,-0.10598523392344938,0.9881983981108274
0.421875,0.18855487260756373,0.3021033354304743
0.42578125,1.4744488215700624,-1.2486374854375673
0.4296875,1.0299301875597995,-0.21905548782991133
0.43359375,0.2597793697960622,-1.212590535119855
0.4375,-0.4636678248745793,-0.28669153612784004
0.44140625,-0.32944538583289795,-1.141509096310346
0.4453125,-1.5458683247403884,-0.11817569776813831
0.44921875,1.0710173693708211,-0.9734659809999612
0.453125,0.984154357825928,-1.0872116476652565
0.45703125,-0.5878377834354035,0.4618582099152282
0.4609375,-0.04431520240190156,0.7512443316467569
0.46484375,0.10030682149894045,1.7219477303384754
0.46875,0.8836006205781517,1.3153331590534456
0.47265625,1.63425719430838,0.7131612512821082
0.4765625,-0.40835978876191564,0.36416636087376875
0.48046875,0.9590015903170831,1.5430614514360235
0.484375,0.2982064513327942,0.621137325981661
0.48828125,-1.1785771434870662,-1.1138408727807165
0.4921875,-1.570129710551539,0.381269756659301
0.49609375,0.11015011371823603,-0.9253002353696375
0.5,0.9602403641508801,1.6246514476204947
0.50390625,0.6575223218455938,2.01733716516031
0.5078125,0.21318209362021284,0.6815575089459611
0.51171875,-0.22111481744846923,-0.6941336779276545
0.515625,0.08625538009976529,-1.1631477963140087
0.51953125,-0.09514383171906665,-0.5711079243099342
0.5234375,-0.8230828729473527,0.43097871245771535
0.52734375,-1.0855766769852768,0.9795889358937884
0.53125,0.5907905987999128,0.3669549231771346
0.53515625,-1.774047388906124,-1.1972164799631833
0.5390625,-0.736040414943182,1.1167071541497022
0.54296875,1.4664134357204874,0.1941888725832272
0.546875,-1.3696560353031955,0.07214412226282872
0.55078125,-0.3684866474475858,0.8358147885252984
0.5546875,-0.08224909616151128,-0.08874818270655298
0.55859375,-0.4001692384686367,0.23395045795420488
0.5625,0.895685718788891,0.6512984787281787
0.56640625,0.9776711334811024,1.9562487957525656
0.5703125,-0.5854365780550624,1.5963306526520007
0.57421875,-1.578484377976943,0.17501407447283995
0.578125,2.3083815610795813,-0.15180937119290397
0.58203125,-1.7114042874949358,-0.22662056333258324
0.5859375,-0.45694735218265176,1.6900316641534054
0.58984375,1.075910866874546,-1.1911927871951309
0.59375,1.3064373664510642,0.6450910549188711
0.59765625,-1.414444931600827,0.10923782609711279
0.6015625,-0.5630622379261168,-1.5181997462186012
0.60546875,-0.6443595605886064,0.12561331500739964
0.609375,-0.39113067025818904,1.561665990947028
0.61328125,0.8166776915442325,-1.4921967979684199
0.6171875,1.0276637421648573,1.9399004001642939
0.62109375,0.43337870081607544,1.940979577728837
0.625,0.17597324628031272,-0.43698109091453263
0.62890625,-0.018230529365924963,-1.8012895811281393
0.6328125,-0.4473453313800587,-0.1790454369372677
0.63671875,-0.9879076580374496,1.465290261593764
0.640625,0.28888129164349663,0.6886449504735506
0.64453125,0.06982227834394622,-1.418471730844208
0.6484375,-0.3456398134671576,0.9206902639568891
0.65234375,1.057461686513819,-0.07226632064901091
0.65625,0.13928570058761988,-0.280306853316545
0.66015625,-0.16824369132328204,1.4344541844858412
0.6640625,0.38590718620824965,-0.2554924090663702
0.66796875,-0.27155037028208007,-0.4087748330320689
0.671875,0.17497306542242863,1.438866936970789
0.67578125,-0.02936262866713954,-0.04299352585742123
0.6796875,-0.23074476955087178,0.4611223761350027
0.68359375,-0.3984696094285533,0.6161416220926825
0.6875,-1.8717266010014169,0.11630067180375278
0.69140625,0.5967359379204477,-1.1813275502079903
0.6953125,2.1376439851037023,-0.656720289961023
0.69921875,0.9687241528427999,0.7640819672990812
0.703125,-0.3073477103452406,0.0604388782924639
0.70703125,-0.21146339785280543,-0.09002579009670494
0.7109375,-0.2999686273296091,-1.2709258334713631
0.71484375,1.0822306469160086,-0.03553502057526856
0.71875,0.03878893192660901,0.4088513935796261
0.72265625,-1.39369046843645,-1.156087640297956
0.7265625,-0.5008125010391066,0.5263631707382372
0.73046875,-0.6963934486080022,-1.2314909263549267
0.734375,-1.3309316042631232,-0.6555782411873251
0.73828125,-1.1855549301017725,-0.35876324008303523
0.7421875,-1.2825857426640226,1.4730541979100022
0.74609375,-2.161035090299736,0.6792103283588535
0.75,-0.35884996157992977,-2.3219726768728406
0.75390625,-1.9012615295845303,-0.010508313925971853
0.7578125,0.605548512655667,0.0763575062082079
0.76171875,1.270548577458745,-0.15386664817607532
0.765625,-0.3978065105626194,1.0607153409065821
0.76953125,0.894684863429094,0.33568828134152573
0.7734375,1.3303521833275906,-0.8131547009918861
0.77734375,-0.4672877341166982,-0.47686011281290835
0.78125,0.44221742874109543,0.18898169581357774
0.78515625,0.1942172258200225,-1.788698294852902
0.7890625,-0.2703028653233041,-2.084143730134365
0.79296875,0.9209292963311909,-0.1249345797479907
0.796875,2.7956715199213606,0.26559734871787744
0.80078125,-0.8740716762171378,-0.8869509378580457
0.8046875,-0.7550454473957411,-0.46006688762688447
0.80859375,1.1655416454186722,-0.993937128072746
0.8125,0.5522223517330885,-1.4145934721506839
0.81640625,0.03505852811865935,0.47705893206275113
0.8203125,0.5882745491223832,-0.8838291141127806
0.82421875,-0.28507244247602487,0.5443267022158487
0.828125,-0.41604338306569655,1.6452327100586674
0.83203125,0.45784777369352475,-0.012797464352319968
0.8359375,0.6199050631462419,-0.28628310701625254
0.83984375,0.10264773742692568,1.3746551689580233
0.84375,1.225670921633543,-2.4815104668129098
0.84765625,-1.020019226912126,1.4871209062259856
0.8515625,0.6791828532035847,1.8303467887715736
0.85546875,-0.20323194939857073,-0.37579930449706245
0.859375,-1.6164381989527805,0.9371597225923907
0.86328125,0.2168073693997999,-1.226364390422358
0.8671875,1.105647503083398,0.33880932602382036
0.87109375,1.1980487890090872,1.1733162813040272
0.875,-0.13114762999881924,0.726401742471963
0.87890625,-1.2239414823796309,-0.9246340770924565
0.8828125,-0.03678933943378079,-0.7182801304238172
0.88671875,-1.085586687018157,0.5861436919815493
0.890625,1.917751139530489,0.8945891912659911
0.89453125,-1.651970061545295,0.5307760108828707
0.8984375,1.2258632243805492,1.3694040875819329
0.90234375,-1.0097171190029968,-1.2688889436664337
0.90625,-0.7927712235228286,-0.222794676564977
0.91015625,-0.5082783414086486,-0.6861628670623887
0.9140625,1.5330301612481356,1.7274016338790164
0.91796875,0.3483008677117633,-0.4777825249169293
0.921875,0.9689503428187267,-0.06018574996124953
0.92578125,-2.556599057393612,0.011186251417887006
0.9296875,1.5142150265017538,0.566566060269978
0.93359375,-0.19570277329921915,0.2308961040455445
0.9375,-0.205870713683845,0.4755156386849535
0.94140625,0.9370673548256554,-1.4448536289671294
0.9453125,-1.588322033760031,1.9672035357128084
0.94921875,-0.7071355687396214,0.8716834773181619
0.953125,0.5362163225504907,-1.539297535332462
0.95703125,0.5582668066411512,-1.6039888653910699
0.9609375,-2.0557843046197912,-0.6201255378953858
0.96484375,-0.8776231744847985,1.5896756773493745
0.96875,0.24330260726268316,-0.8754768695739924
0.97265625,-0.831356629663458,-0.6662718184950318
0.9765625,0.39593985628005196,0.09812207522549218
0.98046875,0.28126046901519924,0.45427162567079193
0.984375,0.4161421780390946,-0.2681737061838872
0.98828125,-0.8106977455253642,-0.03968051241187848
0.9921875,-1.0561175014005546,1.5609449052920386
0.99609375,0.991163292077704,0.08788617731444036
1.0,2.203861195755937,0.3731795160408521
1.00390625,0.6244531988039003,-0.7797434388588477
1.0078125,1.0346825741171206,-1.5612005540296765
1.01171875,-0.5186352166050054,0.8062009391205169
1.015625,1.8274663036184613,-0.6417611045023106
1.01953125,1.442077337732549,-0.04141681576192893
1.0234375,0.499408170201703,1.449831303466887
1.02734375,-0.5489920313563814,0.49497017125266823
1.03125,1.6777080074041477,0.4116426751660393
1.03515625,1.0656391122056388,2.1811093392214453
1.0390625,-0.27277308775771575,1.5331556991763722
1.04296875,-0.3977367763241997,1.328355345055819
1.046875,-0.4198572260831463,-0.5495735832980834
1.05078125,1.163599993203734,-0.2304728906810887
1.0546875,0.2120478749163989,-0.20860263723310524
1.05859375,-0.8838108924554264,-0.9989153774380104
1.0625,0.5054171886389469,-1.2185499404678026
1.06640625,0.5108561681633735,-0.48891759336507357
1.0703125,0.13021892102485894,-1.2606687670911643
1.07421875,0.5962153608299521,-0.8415611444302704
1.078125,1.9652674775899155,0.49532895956181694
1.08203125,0.43209763005504515,0.6607117349645848
1.0859375,-0.3404398530334691,-1.0811400809847116
1.08984375,0.5128081093772959,-1.5229834682117696
1.09375,1.1165143509155324,-0.4902060334157834
1.09765625,-0.7605022351595031,0.4754577913983292
1.1015625,-0.5858977226431261,0.5648457752883952
1.10546875,-0.5256622648961385,-0.8305087767359671
1.109375,0.2832574291504758,0.7308817920215159
1.11328125,0.9134329736887,-1.9790914148049479
1.1171875,1.869695934484177,0.07069836484250848
1.12109375,1.0994411246730615,-1.5243697021269669
1.125,-0.027509371886183052,-1.586666784160573
1.12890625,-0.8810793115127785,-0.17641573804605437
1.1328125,-0.2315652773903525,1.2210606739616428
1.13671875,-0.20699824552756324,-1.5469121493067208
1.140625,1.3611904256031808,0.12662915908983294
1.14453125,0.1129057318090941,-0.005920390384014864
1.1484375,-1.4949089035944438,2.146593185346771
1.15234375,0.13163805354991595,-0.9663962311204755
1.15625,0.6737943307855285,1.1294892109916403
1.16015625,3.43123617022592,1.3302731557232823
1.1640625,-1.438663815534556,1.0619010134152223
1.16796875,0.7649834757651754,1.022770451755046
1.171875,-2.2288211197778356,-0.9292938461627782
1.17578125,-1.0526590137947394,-0.3919430383989918
1.1796875,-1.815613611236064,0.8549261004801697
1.18359375,-2.7003723740049366,-0.7938827810309322
1.1875,0.8120237417851861,-0.683209590853213
1.19140625,0.7007835180272957,-0.7547614180090438
1.1953125,-0.11530320508632523,-0.29894280096433185
1.19921875,1.322907873955989,0.5520445929515211
1.203125,0.3887071191039318,-0.4370497463969532
1.20703125,0.5455418465733609,-1.8909193565091824
1.2109375,-0.43802337318852663,-0.9626974324812666
1.21484375,-0.03156801037582161,-0.02399755717114917
1.21875,1.1806960513114115,1.3604333674429172
1.22265625,1.5362003074671287,-0.0035487075859193594
1.2265625,1.5864498423834785,1.0983116341086312
1.23046875,-0.6438997416445026,0.25541375623930646
1.234375,-0.022072374388611538,0.4259948578086102
1.23828125,0.08511107965344848,-0.3762592015729393
1.2421875,1.3228104079966982,1.512751925264288
1.24609375,-0.35193840469300086,0.639644939942113
1.25,1.1946890340659424,0.14064800249590084
1.25390625,-0.8470433330631508,-0.6759081205042696
1.2578125,-0.35670805421406465,0.4260360082854559
1.26171875,0.7176253078334388,-0.43803476707988237
1.265625,1.8739825051327128,0.3758704337809485
1.26953125,0.288954544824626,-0.4816360603869204
1.2734375,-0.4495012870941666,-1.5352618066149777
1.27734375,-1.123523991964379,-0.8899207733930294
1.28125,-1.4836702719274824,-0.2807509438996819
1.28515625,0.1372112118231631,-1.508058362185171
1.2890625,-1.1632742323425185,-0.15353286767091998
1.29296875,-1.4281886810655822,-0.9979572144050177
1.296875,1.3203055032412407,2.7349832206031652
1.30078125,-0.8490528863352156,-0.398771017836666
1.3046875,0.1355219446910164,-0.13198535922667826
1.30859375,0.47196962645464496,-1.9826762092555745
1.3125,0.47291113123561157,-0.4861450751521174
1.31640625,0.5002902610647416,1.0332737927164117
1.3203125,-0.1948069245964724,-1.956416315376077
1.32421875,0.03834087519036214,0.7522108608008938
1.328125,-0.17260199825636566,1.4282393358953034
1.33203125,0.27208182912319273,-1.5340974136901426
1.3359375,-1.0373064881459084,0.23168161642853485
1.33984375,-1.6461058371654833,-0.32289350546323364
1.34375,-0.7709329268471716,-0.15937240159429045
1.34765625,-0.6966262248652466,0.02396204696083327
1.3515625,-0.6586993450157649,0.19872855065680323
1.35546875,-2.0219839405047915,-1.3783393531854253
1.359375,-0.5545618228874472,1.228081757631805
1.36328125,-0.13581316368530252,1.5252326659579822
1.3671875,-0.5574505368837841,0.3590755256281695
1.37109375,0.9139491885843729,0.8066413873113408
1.375,0.20331908111149175,1.0262295860418391
1.37890625,1.1968901561186531,0.4773022952815659
1.3828125,1.0549602843157173,0.12324911557425233
1.38671875,0.32726781628464374,-1.1162862276718946
1.390625,1.5449066050134754,1.1783548261274062
1.39453125,0.34675326914992266,-0.29331687863132827
1.3984375,-0.15154711329205675,0.5234764561005035
1.40234375,-0.8808630844364305,0.7345468441722679
1.40625,0.5039915402307567,-1.9535547291607882
1.41015625,0.8492706471043912,-0.36645915575435356
1.4140625,1.4390948474367504,-2.84492739324091
1.41796875,1.0793222776250342,-0.015456727245123675
1.421875,0.07657531982496002,1.273557912860917
1.42578125,-0.4454118485209988,0.21232893240353692
1.4296875,-2.0193282355860434,-0.09168172609695052
1.43359375,1.9407213665636478,1.8657789641970555
1.4375,-0.08862720687225562,-0.06449446438373226
1.44140625,-0.7303158183880847,0.12877231240132858
1.4453125,0.26607095096746547,-1.9467278825981043
1.44921875,0.9599598441170851,-0.445603210709665
1.453125,-0.3862266717781235,0.25047131668227596
1.45703125,-1.0151620322227972,-0.41805215050177785
1.4609375,0.18727184074949207,1.247403192453429
1.46484375,-1.873471508581659,-1.2803796206179747
1.46875,-0.895779115099446,0.9059827448309425
1.47265625,-0.83419246136855,1.8394855048652219
1.4765625,1.412568123917282,0.599058225462055
1.48046875,-0.04218158642603527,0.041384307118751955
1.484375,0.14274275319521962,-1.0657868404680402
1.48828125,-0.3338439153071213,-1.6570251782973577
1.4921875,0.994945478346231,-1.596149640515152
1.49609375,-0.04451198000960971,0.9722545901822183
1.5,0.32392418773374004,-0.5308644726355718
1.50390625,-0.7959252539591843,0.4054473103784135
1.5078125,0.10964333279698606,2.1993168033314436
1.51171875,-0.20355013638060154,0.2832193663111992
1.515625,0.5465684910799911,-0.9800689726418654
1.51953125,0.5280321806818536,0.6793300534820582
1.5234375,-0.48686703980919593,-0.2565697958661583
1.52734375,0.725977050106103,0.41570803719265315
1.53125,-0.32449347159829633,-1.7724862559781842
1.53515625,0.3442475020635842,-1.396024215885107
1.5390625,-0.3967242697995891,0.1714919033997408
1.54296875,-0.8852693733756675,1.3781433974455919
1.546875,-1.4448895872305914,-0.6564633726455736
1.55078125,0.9487583119529949,-0.3341284287287302
1.5546875,0.7409414628741909,-1.3494329654121475
1.55859375,0.3678967054637674,1.7575000905347615
1.5625,0.2508840137906396,0.23337099863210906
1.56640625,1.6702452180152663,0.928234940717223
1.5703125,1.1895017581686507,0.06612169092711213
1.57421875,-1.0949724302506076,-1.6012533507133675
1.578125,-1.324244881758647,0.5937715197908292
1.58203125,-0.5292272663361716,1.4756454209554495
1.5859375,0.33937948319710654,1.397967598007375
1.58984375,1.16527189281531,0.03173451836846168
1.59375,-0.1280322097262706,-0.43052729510021276
1.59765625,-1.1737428586436587,0.4425552587380425
1.6015625,-0.6298033664260797,-0.40104953811992067
1.60546875,-0.03878401481206016,-0.2797884023601919
1.609375,-1.127485171234464,-0.9064635733484567
1.61328125,-2.6589540501095628,1.809105601311328
1.6171875,0.7518995091748346,0.6435965038199776
1.62109375,0.37430760849281763,-1.8798517942555915
1.625,1.213725216574216,0.8839699824864382
1.62890625,1.7098654622354783,-1.0662894172695552
1.6328125,0.3201381475854462,-0.4346720526350741
1.63671875,-2.065637191733661,0.2796533806026713
1.640625,1.747651412911385,-0.6939949717237084
1.64453125,0.7005165838556495,1.0514425732499235
1.6484375,2.1563335500337275,1.132039151122237
1.65234375,0.11727415640447701,0.6881562932450177
1.65625,-0.11971028383869935,-1.487829835504765
1.66015625,-0.3282928435574568,-0.0685552880915966
1.6640625,0.6279700082125962,1.6466022936255
1.66796875,1.3669348057997264,0.3768771179381125
1.671875,0.7808028408320473,-1.5891714498415206
1.67578125,0.13412966992328246,-0.23956080102352986
1.6796875,1.1028658405017078,0.7628482595589071
1.68359375,-0.16524665064688845,-0.8123172187009717
1.6875,0.3349623333167465,0.33256828179053227
1.69140625,0.5011906845594666,1.5373326695247829
1.6953125,1.4070645529252666,-0.0029024367302073377
1.69921875,1.838573057919002,0.3210392637645251
1.703125,-0.3367143455201185,2.0098184919848037
1.70703125,-0.29867144590616784,-0.15852030021258462
1.7109375,-0.11327666478309899,-0.21659697198539288
1.71484375,-1.050091830817799,0.32154356355307756
1.71875,-0.25841873020900846,-0.0036509837997228643
1.72265625,-0.37192428998493887,0.32472851733952407
1.7265625,-0.4822789394488231,0.07157145427076886
1.73046875,-0.7017422056288393,0.2902266257048069
1.734375,0.8494855623142267,1.2939824560615765
1.73828125,3.3062426581649147,0.3776677750488687
1.7421875,0.1417310258737803,-0.22420791387217182
1.74609375,-0.030956012853525262,-1.0625722740232115
1.75,1.4754347334516333,0.6791997574571829
1.75390625,-0.6787107049302298,-1.219404366396515
1.7578125,0.027106527833319582,0.11069346283561443
1.76171875,1.5271763976229866,-1.003476209294552
1.765625,2.2987078865357162,1.1531535736772587
1.76953125,-0.5777458708781853,-0.13351889104758793
1.7734375,-1.1129103403417389,-1.8088403930562211
1.77734375,-0.6486417348494886,1.1944242435111092
1.78125,0.9420723929493637,-0.8716901915514845
1.78515625,-0.2820611595417119,-1.1274350679256147
1.7890625,-0.8048945808474666,-2.7859088653352786
1.79296875,0.548506304424267,-0.3382562620938291
1.796875,-0.549514984588759,-0.37901851571352463
1.80078125,0.9888659259047542,-0.7818081987725192
1.8046875,2.153129950890406,-0.21301748128535444
1.80859375,1.0505759626460631,-0.46721615291852286
1.8125,-0.03994663585187135,-0.8283680230687294
1.81640625,0.5845580017264945,-0.7769899070594557
1.8203125,0.1927548808214436,1.4617920746547701
1.82421875,-1.2728345948151236,1.0673286333687264
1.828125,-1.3739290839808238,-0.3124646857355856
1.83203125,2.6043803570198225,0.007871339374550788
1.8359375,0.46135313864863065,-0.03196606304285329
1.83984375,-1.120498522684165,-0.9448154959557148
1.84375,0.7019143207485038,0.02791192059772933
1.84765625,-0.1955808002484545,1.7058471940358315
1.8515625,0.6095279166334376,-1.7529333403902105
1.85546875,0.9000580508020045,1.2990198222169724
1.859375,0.9400311951275413,0.7219416374367117
1.86328125,-1.2774927200885642,0.03436096424513308
1.8671875,0.8061089981807795,-0.005023495962968434
1.87109375,0.3426255300213735,-0.06410663086338485
1.875,2.1305664208335724,0.8153534678548838
1.87890625,-0.15410793626375682,0.3147496222786457
1.8828125,-0.5116406606155182,0.2632535621241092
1.88671875,1.6349217178941942,1.1795989512355338
1.890625,0.4308374216389977,0.5355020773898709
1.89453125,-0.6963286298762897,0.282661792083699
1.8984375,1.473925378952899,-0.48606552652343316
1.90234375,0.4083601258550798,1.5191998955152228
1.90625,0.1316663138617452,0.05612234702050085
1.91015625,1.493131677546825,-0.6936350572473279
1.9140625,-0.3144306834208563,0.8701028770035742
1.91796875,0.3669418251181619,0.1616092395678999
1.921875,-1.4246850713467802,-1.4204086942847591
1.92578125,-0.3418093774512063,0.6189311390792287
1.9296875,-0.29628041017035295,-0.46438082251170815
1.93359375,-0.5679894153370801,2.1977070375550416
1.9375,-0.0964805831165153,-0.2474458345948458
1.94140625,-1.4527453825340342,1.0520968113478222
1.9453125,-0.3251174180866694,-0.8562648967135319
1.94921875,-0.99529502976838,1.0534109075441895
1.953125,1.3307851732577203,-0.07404490634576803
1.95703125,1.613637996302127,1.5959755070124075
1.9609375,1.2596635961365708,-0.6532123154655116
1.96484375,-2.1129242582817067,0.43587412166232054
1.96875,0.4512397231830366,2.035493484494021
1.97265625,1.2630868654088885,-0.08905255404900998
1.9765625,-0.5829894784216154,0.17526054727802406
1.98046875,0.46497941596236836,-0.9347392831419652
1.984375,0.006157087324164125,0.667742771306503
1.98828125,0.9219821924724347,0.3853360644907334
1.9921875,1.4060075210042116,-0.28433362737354323
1.99609375,-1.0218269646957419,-0.8228168093406989
2.0,-2.0227931395135235,0.23226947837978223
2.00390625,-0.09048445364147711,1.2351280455091211
2.0078125,-1.1270688358762824,-0.475501826303357
2.01171875,2.40377883360488,0.7347439566371502
2.015625,1.6179739287108583,0.5205228449309968
2.01953125,-1.2876379481243239,-0.9071329728907704
2.0234375,-0.26370746708384374,0.39184648706712893
2.02734375,-1.068140614115104,-0.6240274114657983
2.03125,0.5274831612256948,0.28409332589554187
2.03515625,-0.9266246593239044,-1.5116488039766445
2.0390625,-0.25234771059109795,0.7622499171218778
2.04296875,0.3895824649111405,-0.5220221232179721
2.046875,-1.3411172491208656,1.342792819826806
2.05078125,-0.5700804005954968,-0.6961415993219368
2.0546875,1.2016438326853625,-0.7318214778933331
2.05859375,0.44253113797550003,0.5578294869536852
2.0625,1.046368656407288,0.1591628188313313
2.06640625,-1.3217226853765736,0.19928147832736876
2.0703125,1.2295654203663893,-0.5044221578304803
2.07421875,0.4029334136106499,-1.6709719144213608
2.078125,-1.0890302871297328,-0.14870105105585268
2.08203125,0.49144014740239245,0.6730884626178053
2.0859375,-1.1707776439668094,0.8599748320549663
2.08984375,-1.4859593337160246,0.7172559316623743
2.09375,-0.30468385650096147,0.6094376210161335
2.09765625,0.13109237175783522,-1.0482345638016124
2.1015625,-0.12978449527664154,-0.5905881213945327
2.10546875,-0.3728746684332272,-0.8040583719749776
2.109375,0.6372506243194032,-0.2725665743618775
2.11328125,-1.4105621699844137,-0.4576566020578873
2.1171875,0.3592286791452446,0.1864960782714469
2.12109375,0.9516715744517092,-0.784004927065182
2.125,-0.6694095595588845,-0.2773924145456183
2.12890625,-1.3243103232280145,0.27508197037077775
2.1328125,-0.006787151207572025,1.0966012220252421
2.13671875,1.816539871435756,-0.6952117967054452
2.140625,0.3550713314829437,-0.8100135746578941
2.14453125,-1.661727246845867,-1.3126601536823852
2.1484375,0.8784090456514113,-0.4480836679085874
2.15234375,1.0561471946345125,1.0473614210415958
2.15625,1.2349409422526658,0.3453894873133777
2.16015625,0.49134968403588797,0.6833105632207747
2.1640625,1.5316131767058219,-0.06397169206656393
2.16796875,-0.10563436307487083,0.6210254507491657
2.171875,-0.6652443337985651,1.5083191766926232
2.17578125,-0.5702459310006472,0.6296053223752613
2.1796875,2.6178392784860964,0.359191575885995
2.18359375,1.6575170174889897,-2.174407137240817
2.1875,1.1293072164452085,1.5370527575647983
2.19140625,1.0526356633966722,-0.03181452228526416
2.1953125,-0.31479531867284827,1.1695686903154285
2.19921875,1.5677343550528686,0.286318508053775
2.203125,-0.09126979401943953,-0.20356238453641556
2.20703125,0.07614169348876189,0.14810736059452267
2.2109375,1.1166490884965836,1.309032338575623
2.21484375,-0.26052815992871753,0.6894214258300334
2.21875,1.876159081968726,1.0112778151799342
2.22265625,0.09620341069374735,-1.1406867357378572
2.2265625,1.0624062617138297,0.13339391076557444
2.23046875,-0.982131812430194,-1.1875224853997925
2.234375,-0.3823729162749938,0.40502721728864505
2.23828125,-0.5749592399956819,1.4836907818526484
2.2421875,0.20472268414794867,0.9076728825750477
2.24609375,-0.2539884135425518,0.6680919527117004
2.25,-1.024820849955005,-0.09600197538526374
2.25390625,1.0354005761145493,0.5659241024218736
2.2578125,-0.8809185816150467,-0.021425946381044655
2.26171875,-0.1844018524960514,0.5007250598958431
2.265625,-0.31880950810800823,0.19348529221229163
2.26953125,-1.127559535920198,0.5598806743873237
2.2734375,-0.08008143659366193,-1.6478151785387687
2.27734375,-1.1074385811885152,1.228987491130404
2.28125,-0.19399775679227682,-0.6255549694366673
2.28515625,0.13934853805354416,0.12199189626347791
2.2890625,-0.0909474387930552,0.3957224554852167
2.29296875,0.5300134550544153,0.39920611055597294
2.296875,0.37910613314734676,-0.9489151126935208
2.30078125,-0.003025166911232169,-0.6588183248250791
2.3046875,0.007781217899701118,0.07861320996658115
2.30859375,-0.34053797297848754,-0.8989098068587977
2.3125,0.799833930230488,-0.5300608143046712
2.31640625,-1.4124149420588206,-2.6836593024650437
2.3203125,-0.4940778353876364,-0.4160269079863155
2.32421875,-0.41719053578503856,0.4633802569825005
2.328125,-0.5314956596611109,-1.3737743942757663
2.33203125,-0.5144478749346659,1.153039415240128
2.3359375,-0.314275245449219,-0.6448089251848365
2.33984375,-0.19890175515773484,0.1426511013695989
2.34375,0.28567284864382225,0.3228556101319667
2.34765625,0.813138988908522,-1.0103979079376706
2.3515625,0.7856076759279359,-0.1364640142451682
2.35546875,0.5063555118966412,0.5740481930538475
2.359375,-0.4531217889109947,3.043203619125701
2.36328125,-0.9838627837726154,1.952191504650764
2.3671875,-1.6578625416658201,-0.8643092417680159
2.37109375,-0.5459683135860933,-0.2760352825958113
2.375,-0.49725924485878614,-0.3118647960225146
2.37890625,-0.4716750082167341,0.5491047915865919
2.3828125,0.933405850757326,-0.5395243054277727
2.38671875,0.2667996307465121,-0.7846193660888932
2.390625,0.09150456131395021,-1.2056433475201525
2.39453125,0.9221037085571658,-1.107893114043574
2.3984375,0.3077792940255607,-0.6776248444048463
2.40234375,-0.8054197404932839,-0.029093925828571208
2.40625,-0.6844275702620194,-0.49597841447021956
2.41015625,-0.429625289405581,-0.6477530442382483
2.4140625,0.03159869557472622,2.1956847905538095
2.41796875,-0.5052964731074042,-0.06754108989949958
2.421875,-0.012418175236650368,0.1520058915534912
2.42578125,-0.4397856983733601,1.3645954411342076
2.4296875,-0.5665602506997071,-0.8911612770468027
2.43359375,-1.5474376937283354,-1.3022614435237516
2.4375,0.2893955611661759,-0.8455602364857611
2.44140625,-1.1343128648022633,-0.7976133007950693
2.4453125,0.6726797370255173,0.5049104363648975
2.44921875,-0.05321035418138287,0.20702078034369298
2.453125,0.9616702878725072,-0.4047002493652765
2.45703125,-0.8904642836167455,-0.7748983666333453
2.4609375,-0.8223242733124784,-0.49210986433738085
2.46484375,0.524026337605549,0.6479746325155661
2.46875,1.1345619685688346,0.4370406293211968
2.47265625,0.6780601873145272,0.21195360744739106
2.4765625,1.62532284296398,0.04255938531915631
2.48046875,-0.35669859506592916,-0.4100859116887978
2.484375,-0.7479283789561304,0.4760563135272732
2.48828125,-0.5965373443249512,-0.3798108794563504
2.4921875,0.6260150711239846,-0.17519148170242363
2.49609375,1.1064699629977959,-0.4810297052155102
2.5,-1.0279026573732242,-0.08056964531023421
2.50390625,-0.6804348459994728,0.6312040868519635
2.5078125,-0.08347657231054242,-0.6380100585962927
2.51171875,-0.3433384314519909,-0.6674461264613696
2.515625,1.0815296881569392,-0.9167974493928084
2.51953125,0.30785122807267296,0.0037191398642690237
2.5234375,0.011148607990840232,0.15939764307411217
2.52734375,-2.51234680683467,1.2305522616176843
2.53125,-0.36051840347814,2.738273269211366
2.53515625,-0.15033359559369747,1.0476124865222505
2.5390625,0.30995383171588037,0.5910282711039314
2.54296875,-0.7538377137762559,1.1476310411033186
2.546875,-0.7916695564303531,-0.8183215669058099
2.55078125,0.27407027733592426,-0.48523831029448444
2.5546875,1.8217204281268797,-1.1366219655851273
2.55859375,1.5505842099690745,0.7937328224254905
2.5625,-0.3138901488962265,1.8666161761553826
2.56640625,0.30336003330420935,-0.8258494222576395
2.5703125,-0.1884668161169816,0.6247712556500039
2.57421875,0.7715918499623218,0.5356930033972551
2.578125,-1.521714029842004,-1.202041149861122
2.58203125,0.5551921798572137,-0.03153675106770056
2.5859375,-0.635986371576298,0.9157556299703224
2.58984375,-0.30914253400807706,-0.41146038788349437
2.59375,-0.43888046795476643,-2.644983229865975
2.59765625,-0.41050796677603174,-2.1834752581869825
2.6015625,-1.094535148579891,-0.6487183730464418
2.60546875,0.306640623805797,-0.8561622438982522
2.609375,-0.9555573030237431,0.1505773249254524
2.61328125,-0.11656562680089878,-0.2700485022961657
2.6171875,0.2781518330022973,-0.9690934095815793
2.62109375,-0.3998546590505567,-1.2059672241338095
2.625,1.9202462922726515,1.5890887822068784
2.62890625,0.6020299739968548,-0.5499840631511488
2.6328125,-0.5989546491064516,0.5525757393667908
2.63671875,0.5563619589432609,-0.6183082761862542
2.640625,0.04002163444333338,1.0719161664026058
2.64453125,1.843852579099077,0.6586554532797914
2.6484375,-0.3237581585366354,0.8668668391123305
2.65234375,0.36771627089719294,-0.40751972825318733
2.65625,-1.4046305393497325,0.5375075386475856
2.66015625,-1.5652681284701497,-1.5535357531069558
2.6640625,0.7849475847323841,-0.44286959886853583
2.66796875,-0.4995425344216993,-1.0650948873626314
2.671875,-0.11347892554013855,-0.19312707670518686
2.67578125,-0.4104768974420747,0.2879260038177747
2.6796875,-0.3131012460658419,-1.9680284312037886
2.68359375,0.0009591589415203635,0.04505760539480918
2.6875,-0.2828011571689122,1.174400693343656
2.69140625,-0.5640807775850306,-1.5307458431329686
2.6953125,-1.0198761148004782,-0.02199534599735827
2.69921875,0.788703970039939,0.5464310140633852
2.703125,0.12176988709183342,0.14189700127663768
2.70703125,0.684514495039861,-1.58713653128027
2.7109375,-1.7578170565015152,-0.14159590305296413
2.71484375,2.3283366357874504,0.27853713036309585
2.71875,-0.702200080270631,0.6946531656255855
2.72265625,-0.012901914655413453,-0.2875114775002553
2.7265625,-0.4817280361168537,-0.4491669140612325
2.73046875,1.3032618726633096,1.0398396171428415
2.734375,-0.37486273373891527,-1.2020008874821178
2.73828125,-0.09159913671511845,1.044919673680523
2.7421875,1.2132371567621165,-0.2576777732898749
2.74609375,0.1707831974518108,-1.0694686000685896
2.75,-0.9727630092894956,0.2557892820929576
2.75390625,0.4721286574955617,-0.8932860989308767
2.7578125,0.5841893980209379,0.07598987907822048
2.76171875,-1.378305648887295,0.08157248321441438
2.765625,1.459420043968337,-1.8399663704364244
2.76953125,0.12429103173546727,1.040083943115692
2.7734375,-0.6590626201515475,-0.41809608635374484
2.77734375,0.8285101743209201,0.0327426965216319
2.78125,1.7456803894273631,-0.13120307000263878
2.78515625,0.8028589996957771,-0.39573221382915946
2.7890625,1.4614141981255613,1.5421607605242038
2.79296875,-0.28021032088827375,-0.9324973548007868
2.796875,-0.6434207234568103,-1.6023247617459389
2.80078125,-0.5087874629441219,-0.7995112675847558
2.8046875,0.9182043124579424,0.29410440339713084
2.80859375,-1.1718948708448484,-0.4838623134527449
2.8125,1.089356517870537,-0.3254019297278785
2.81640625,-0.7829321070328267,-0.6942074868564156
2.8203125,0.3634675771491091,-0.9181367150857451
2.82421875,-0.1110769359315638,1.256465985847033
2.828125,-0.3033686251650595,-1.9909933015438008
2.83203125,-0.22840357582362017,-0.4403107870573448
2.8359375,0.022146463744495862,0.6023784140233492
2.83984375,1.3905701386356464,-0.022658229992626573
2.84375,-0.918759351986291,-0.4474393480735709
2.84765625,-2.178863050032334,0.3747770279188628
2.8515625,-1.042115448000369,-2.2628541368864696
2.85546875,-0.057560504004945355,0.24428151722625988
2.859375,1.1140697432389788,0.578003872010447
2.86328125,0.4105569728338702,1.1241372263688512
2.8671875,-0.12282880054064468,-1.4974173277033198
2.87109375,0.58503398816289,1.9086406250475445
2.875,-0.5052234595923949,-2.3041236151635274
2.87890625,-1.1443696964399552,1.0332317513445122
2.8828125,-1.2778247744743303,0.785321094865607
2.88671875,0.19001317620310476,0.367969952904013
2.890625,0.3659916264918267,0.26746364853458215
2.89453125,0.5426631072859027,-0.8998012493136476
2.8984375,-1.726840614065442,0.8434106452685681
2.90234375,-0.8578628036997298,-0.28599554179193243
2.90625,1.390539459975016,1.2825682912833944
2.91015625,-1.2766279919188752,-0.20530235596030016
2.9140625,0.2373399077555789,1.300639972446118
2.91796875,-0.11273990701007078,-0.9645160210811019
2.921875,1.53974264171032,0.7187638450480753
2.92578125,-1.326810914352346,-0.4442770281689116
2.9296875,-0.8869388719812421,-0.8229852811097645
2.93359375,-0.38394648210615934,0.36632723185293686
2.9375,-0.16141065908792654,0.0679039284800066
2.94140625,0.8008250607178383,1.0573299964717908
2.9453125,-0.8117356892395017,0.3125475062768171
2.94921875,0.13327555177891032,2.9147798892075905
2.953125,-0.46434932740799034,-0.19023755975392131
2.95703125,-0.3266150489091634,-1.0050478064691297
2.9609375,1.0681369502441533,-0.29014727184016453
2.96484375,2.106038382726139,2.0353528038312656
2.96875,1.0033754401004389,0.9768463484936623
2.97265625,-0.3422443953421747,-0.29060996665072236
2.9765625,0.2835535765385015,0.1086843102628081
2.98046875,0.024596882321678497,0.4917179580874382
2.984375,-1.032595871448954,-0.6849094772001344
2.98828125,-2.0583109331333644,0.31853700843498084
2.9921875,0.08745301293006189,-0.05975607146708011
2.99609375,-1.3917838243020324,0.8268085757913632
3.0,0.4746293425526347,0.9509935214901318
3.00390625,0.15731380912996035,-0.24655342982296927
3.0078125,-1.5792500527177633,-0.3090376146011803
3.01171875,0.608801930865859,0.6722318630665876
3.015625,-1.955512135771179,0.17097708441303067
3.01953125,0.049349770346643174,-1.6752656118784675
3.0234375,0.15771863171856806,0.9122675968718763
3.02734375,-0.45265402538352756,0.26446100219790786
3.03125,-0.0863853076383688,-1.8103868211743057
3.03515625,-0.9306372047148472,-0.7140102146627981
3.0390625,2.077192184854118,0.172452013162844
3.04296875,1.4974716711401417,-1.6059946881421587
3.046875,0.9498824591428755,-0.19827802653827142
3.05078125,-1.4748033381401426,1.9825158138892878
3.0546875,-0.1401519390117461,0.32655086452544824
3.05859375,0.16980133091958974,-1.7311957160792422
3.0625,0.7747673520127789,1.6941196037655555
3.06640625,1.424642503817073,1.1257422827912715
3.0703125,1.479800360698564,0.07686447195492778
3.07421875,-0.8729637512628903,1.195076453973057
3.078125,0.3110824599902484,1.3273733518806854
3.08203125,-0.6153754361942766,-1.8068094136312023
3.0859375,-0.5788063993881623,-0.6208748612737114
3.08984375,-0.26693856400168153,0.5644351431759107
3.09375,-0.09608527393069981,1.2494846262640287
3.09765625,-1.0297696623203403,-1.3306739951763376
3.1015625,-1.4228114287320432,0.39285165298475994
3.10546875,-0.38276485403733795,0.30009982557961407
3.109375,1.1862406752027168,0.4534921448925089
3.11328125,-1.5888960972294877,-0.7494256199569534
3.1171875,0.5969580939257645,-0.06271586471395182
3.12109375,0.03363037424063668,0.24248674294942482
3.125,0.10819923099403334,-0.6781469322851725
3.12890625,-1.5050963576840335,-0.7138234752723396
3.1328125,-0.49141639891629973,-1.374013271428382
3.13671875,1.5395854489697318,0.5471207360949073
3.140625,-0.6010628581653419,-1.0261532768193722
3.14453125,-0.7465270712003022,0.012020677124226501
3.1484375,1.0137405829554316,-2.5233990848999235
3.15234375,0.8627828443608796,0.09142507166662064
3.15625,0.7258876763915404,0.21108368280171058
3.16015625,-0.0968186910431213,-1.8280297346952052
3.1640625,1.5477756111186083,1.0686543388222893
3.16796875,0.4309897586058289,0.4072020087944158
3.171875,-1.66667558560976,0.5508938886835523
3.17578125,-0.16952240455855883,-0.5628998423474135
3.1796875,-0.8710903565224954,0.6944103767479727
3.18359375,1.7972066250718017,0.30231726057505903
3.1875,-1.6482029838379753,-0.7595420205954274
3.19140625,0.2136838550621338,-1.20177340718085
3.1953125,-1.0027579076473767,-1.9360754812291936
3.19921875,-0.4110311917267871,0.7469516009599474
3.203125,-2.6796040944053856,0.022995135950636392
3.20703125,-1.5190118818705391,-0.6147050918306567
3.2109375,0.8677852104963503,-0.5227535144383121
3.21484375,1.0852054606931134,-1.5674692400313184
3.21875,1.252385028057479,0.39403414370159545
3.22265625,-0.6683963952743953,0.05634476167775745
3.2265625,0.5534508929451721,0.1795830266556018
3.23046875,0.22262308462171906,0.09302875654410467
3.234375,-0.8528718756657473,-0.6853396059598728
3.23828125,0.03846878671338889,2.058725679857037
3.2421875,-0.9415572374477077,0.5566159779463826
3.24609375,-0.32542179042904884,0.17348289099466171
3.25,-0.9702564970663223,-0.16722990267997237
3.25390625,0.346764864371809,0.33960508062493616
3.2578125,0.06829914112602391,-0.027122849461464586
3.26171875,-0.3362875712546184,0.6666989936023074
3.265625,-1.5363417285612233,2.279270376777551
3.26953125,0.8042928881260625,0.009012208654949411
3.2734375,1.3592215388590345,-1.2931921400000805
3.27734375,0.2080125073527844,-1.277824675625702
3.28125,0.31479541475120687,0.2953042407478819
3.28515625,-0.37766764035087513,0.024545646838092433
3.2890625,0.289476296707415,-1.5846304759725758
3.29296875,0.9716570049999921,0.4607702384822254
3.296875,-1.1891736808623725,-0.5148425810701459
3.30078125,0.647340762292189,-0.04610696886040897
3.3046875,0.07956441900723382,1.2715199152081733
3.30859375,-0.6823787967324666,-0.9191044956873329
3.3125,0.012949113188003212,0.10184068605962834
3.31640625,1.5222590460704652,-2.0287357084075026
3.3203125,-0.5328589592362378,1.349613447374241
3.32421875,-2.23982329568707,-0.116007414062546
3.328125,-0.939450815783744,0.6078564647972307
3.33203125,1.0841009955208027,0.6829140971532826
3.3359375,0.6662883970365079,-0.508849757788572
3.33984375,0.5925743705596087,2.622302747183258
3.34375,1.5703829273033352,1.4550314048421562
3.34765625,-0.9956429909923467,-2.054555795994746
3.3515625,1.499485992445597,0.5989980344987258
3.35546875,1.4291106234515738,-1.599705651960704
3.359375,-1.3087844883430935,-0.20129810431286593
3.36328125,0.46497370853605285,-0.040676795988526686
3.3671875,0.8698091784835894,-2.3876483602484826
3.37109375,1.2617668393516335,-0.14431729541368876
3.375,-0.711963639448851,0.4760499844659842
3.37890625,0.40467941222582016,0.7677152840790484
3.3828125,0.31907587508776614,-1.3741329873994903
3.38671875,-1.64865084645534,-0.35241985961609706
3.390625,-0.24468160147624837,-0.5035391027672661
3.39453125,0.22382896372646877,-0.6531833599312478
3.3984375,-1.3592404646534053,-0.09064132587893228
3.40234375,0.7756509877041475,-0.34637803308701137
3.40625,-0.21533398343777924,2.15997458390515
3.41015625,0.915985142966709,1.4703290376197151
3.4140625,-0.40168096573283835,-0.3272772494906111
3.41796875,-0.6207659775141255,-0.1995679559861085
3.421875,-1.6599740977433088,-0.5876665649261601
3.42578125,-1.4854941817465972,-0.7124541270809641
3.4296875,0.5628685156796983,2.6491831104517503
3.43359375,-0.1791298049991003,0.3991501331229941
3.4375,-0.38837285637218394,-0.7424987199898182
3.44140625,-1.288448617216998,-0.5148348801050828
3.4453125,-0.857268517388759,-0.16593446798496037
3.44921875,1.8413644562252136,0.8868944752366434
3.453125,-0.3583688682611495,-0.49589905688948316
3.45703125,-1.6426981434976318,-1.1304958104229776
3.4609375,0.9615019489198608,-0.16987440134706827
3.46484375,-0.4902504476240457,-1.2963402696023898
3.46875,0.3854253149054369,0.891170065003227
3.47265625,-0.3075508535649735,-0.5939006871279204
3.4765625,-1.2073815441001352,-1.4653610345797068
3.48046875,0.5837605302234047,-0.07594767908554372
3.484375,-0.8274466794020269,1.1901211362247848
3.48828125,-0.8121509371243657,-0.1595737289593321
3.4921875,-1.3250452300064222,-0.991865760412268
3.49609375,0.3987157894146486,0.11475233224779137
3.5,-1.5473771756733654,-2.2548366106767816
3.50390625,0.6271122364786431,0.023833697623054016
3.5078125,-2.3612529369397652,-1.1183855241767295
3.51171875,0.3862283228155325,-1.0545038727541347
3.515625,-0.5834634593806084,-0.06903716645167254
3.51953125,-0.667415599278447,1.5916931541105774
3.5234375,-0.7417717419449459,1.7948557638418818
3.52734375,-0.7410233258141725,0.6568107203239718
3.53125,0.2404667410592339,-0.49727947828826685
3.53515625,-0.15373937224630396,0.5725927767828187
3.5390625,-0.10908036942327616,0.5859230987233182
3.54296875,-0.013543213343788146,-0.1627851895696332
3.546875,1.116401685955279,1.2505737580904681
3.55078125,0.695362940324533,-0.19101588370131736
3.5546875,-1.0830272521900401,0.9361838533206993
3.55859375,-0.2584462055259771,-0.9407740367683053
3.5625,-0.9162824060725495,-0.6454675311864033
3.56640625,0.5001438674339262,-1.4341621438591645
3.5703125,0.13099603734336593,-0.8627410620951553
3.57421875,-0.007985417906457175,-0.6272936826563877
3.578125,-0.5782212404796969,-1.3983157141855886
3.58203125,-1.0665040197722735,-0.421172617157792
3.5859375,-0.01222659496933262,-0.3499020589074684
3.58984375,-1.4165670724470263,0.6785749591637206
3.59375,-2.202971366631131,-2.044179841745415
3.59765625,1.0333874695176692,0.310446079973632
3.6015625,1.6472486273634235,0.04173335684730012
3.60546875,0.38639908077867724,-0.0641230438492996
3.609375,0.598498291288324,-0.7668677670196207
3.61328125,-0.2980045008378254,0.04217857819106642
3.6171875,0.0918403157219668,1.1654859160353144
3.62109375,0.7096016110057947,-0.5639896886219876
3.625,-1.476805721976625,1.10892448073282
3.62890625,1.792880581102697,0.34143139146220236
3.6328125,-0.033688552395882435,0.31031398293090967
3.63671875,0.5505830729632466,-1.348225013438223
3.640625,0.31516183353153915,0.031084869976672366
3.64453125,-2.4094554443092897,-0.5477372254280983
3.6484375,0.5267599196132405,-1.8637817892818656
3.65234375,0.9686450336307416,0.42087108225007747
3.65625,-0.16765132233970453,-0.16807281250641062
3.66015625,0.10229866180783637,-1.243197949026285
3.6640625,-1.2341525282158718,-2.5309783400696326
3.66796875,-0.14986350031298312,0.0788844187085011
3.671875,-2.0360105068199426,1.9119694241091505
3.67578125,-0.43852918133372604,0.9269810188797605
3.6796875,-0.705521952886142,0.5705043975383522
3.68359375,1.8985092513709518,0.1542770177757605
3.6875,-1.507836726772697,0.7022568364012488
3.69140625,0.5873408179886559,-0.003227703765017371
3.6953125,-0.19245245151948429,-1.8029477226792643
3.69921875,-1.5198272390507856,2.3219860953798004
3.703125,0.3380321547390061,-0.5342902501088255
3.70703125,-1.074161159886849,0.32451248860309606
3.7109375,-1.5396591348472641,-1.3867188101412213
3.71484375,-0.4666660592024918,-0.13884397692932987
3.71875,-0.04368583509758296,-1.9149456805314489
3.72265625,-0.687278455977746,-1.3478147171474024
3.7265625,0.30366958966452634,0.31966939172020975
3.73046875,1.9316410149127252,-0.6505544514315752
3.734375,-0.2446289940763255,-1.768421353247419
3.73828125,-0.645059351671909,2.802568357172397
3.7421875,0.027082973635855406,0.14761615261976344
3.74609375,-0.013243056914005239,-0.06120287278501303
3.75,-2.0601382852773362,1.0170908787334747
3.75390625,0.44642431100131025,0.09602669747655974
3.7578125,0.14480019857928852,0.4770138487844941
3.76171875,0.045266504193374864,-0.5727727405050975
3.765625,0.35958829097961,2.2506132072990988
3.76953125,-1.4803573774072099,1.5704654839453713
3.7734375,0.5239193114460706,-0.08757001232915353
3.77734375,0.19407371660911618,-0.5823968570457563
3.78125,0.6289972270900612,-2.1744232458305954
3.78515625,0.6168456329758674,-1.145113429083471
3.7890625,1.3041653067912562,-0.3077364005629373
3.79296875,-0.8148150073262072,-0.7104031909042702
3.796875,-0.04595976658843293,-0.32090212450379263
3.80078125,0.8707773778270759,0.40918198970399755
3.8046875,-0.35979817911283385,0.266366243349789
3.80859375,-0.24645917251484606,0.5391300087588083
3.8125,0.35990173901518296,2.2735427676937316
3.81640625,-0.30909022533108915,-1.0039507972162318
3.8203125,1.2741397038893563,0.612672209956452
3.82421875,-0.3077607106704094,1.0013597115525892
3.828125,-0.54750338914139,1.9173970475152575
3.83203125,-0.31990082287357685,0.5913269385340996
3.8359375,2.000206030015901,-0.6058411206376578
3.83984375,-0.8669867317466928,0.15382921743241937
3.84375,-0.8424269567777124,1.5112619200676758
3.84765625,-0.8889368328596752,0.04155526685405602
3.8515625,0.12205128278916254,-0.2283699754999296
3.85546875,0.06071718443974412,2.4518856926265737
3.859375,2.106230018410675,0.17415394463050535
3.86328125,1.115563071666192,1.1296963028141223
3.8671875,0.6437119735574477,0.18724354506005503
3.87109375,1.2951840315521375,-1.584299727667646
3.875,0.9157768139451662,-2.1035227318816436
3.87890625,-0.5292073054275079,0.6558668891062797
3.8828125,1.0192107630541474,-1.258352346095616
3.88671875,0.18276402940963102,0.10837607340039361
3.890625,0.2707582920665668,0.09200836361196167
3.89453125,-0.16793588594191786,-0.01047186944669987
3.8984375,-0.8933092262025613,-0.9456190744560443
3.90234375,-0.02912291342179209,-0.19481859290904216
3.90625,0.4781031236131511,-1.163585509827648
3.91015625,-1.163826330679127,1.2841201556373119
3.9140625,0.30647013664245804,-0.7168024197636547
3.91796875,-0.9783900544891718,1.5433106952206403
3.921875,0.13318326285792137,0.9450000430267195
3.92578125,0.32740943665765654,-1.2321751569281947
3.9296875,-0.28259935658653296,-0.5471225722307718
3.93359375,0.060327642569081685,-1.8057900116202852
3.9375,-0.457717070957823,-0.8932302408451904
3.94140625,0.5146143515501678,0.7957401373788713
3.9453125,-0.7016012589857576,-0.4753843987441343
3.94921875,-0.9012384030994565,-1.1595298463209085
3.953125,0.7467879963108429,-0.12484931221277215
3.95703125,1.4762144832369948,-0.4870203297247346
3.9609375,-0.6531094431328184,0.2029286984528914
3.96484375,-0.2863002365091487,0.5170323853643186
3.96875,0.926910237512537,1.2080521561960125
3.97265625,0.014087899974439445,0.3697145161133398
3.9765625,0.7336929835173527,-0.626910831975887
3.98046875,0.6173192423365572,-0.6496346270015722
3.984375,-2.321059254766779,-0.11582887910950829
3.98828125,-1.5111156021423353,0.32128535334370184
3.9921875,-0.33935236403200136,-0.1899653885922168
3.99609375,-0.6605367941040771,0.6764523505850367
4.0,-0.6163136150506279,-2.3404901060142294
4.00390625,-0.7726985165682818,1.0902715483444834
4.0078125,-0.18319630786023625,-0.3023529734003687
4.01171875,-0.7625669265000468,1.3739029713024535
4.015625,0.4428033405366114,0.19249066910235563
4.01953125,-0.9290706813829119,0.06966133197355888
4.0234375,-0.24551556914124628,-1.7023417398194147
4.02734375,-0.12873107874716946,-1.137462560446989
4.03125,1.091441329702077,0.3382422669498309
4.03515625,1.2890140414169395,0.8302668410288557
4.0390625,0.9461061892107818,-0.6641867373754551
4.04296875,1.0055011079644238,1.0419736753981406
4.046875,-0.14672251699831773,1.2019821256027117
4.05078125,-0.047240262969469905,-0.837591634590092
4.0546875,-0.6228021603481206,1.0995071044900038
4.05859375,-0.5636655227471474,0.1311467487574939
4.0625,1.2932013846500179,2.138409755065392
4.06640625,-0.7981633475338066,0.6838858432249899
4.0703125,-1.5488285506081798,2.1571980557584602
4.07421875,-1.220724813125734,-0.6546504828408916
4.078125,-1.4771737464007704,0.5586532803586874
4.08203125,-1.1557052294765,-0.32827397391418733
4.0859375,-0.8569394487285295,0.14463860093182535
4.08984375,-0.27919050247401483,1.134876025534376
4.09375,-1.0437401841559855,1.147762669029301
4.09765625,0.016105815276953137,-0.7946188183494717
4.1015625,-0.20745072776627244,-0.5614044201212648
4.10546875,0.6673066096919889,1.8179980945239111
4.109375,1.3677292597617041,-0.878436258405551
4.11328125,-0.969909701191752,-0.33006382663603273
4.1171875,-1.5908427981865867,-0.8229138172579042
4.12109375,-1.082995826388246,-2.109492685323682
4.125,0.7849011019818525,-1.0344386006108313
4.12890625,0.4497403107139254,-0.11525789620722438
4.1328125,0.9159162664557936,0.7105379407291121
4.13671875,1.4341546561117644,0.0021397428283639777
4.140625,-0.06720967969769277,-0.5542310345332301
4.14453125,1.1900457495725316,-0.07728248576994855
4.1484375,0.5649377909763443,-0.38965906565669517
4.15234375,0.7627130114437088,0.7656436930737502
4.15625,0.9324651030567184,-0.7500972755459934
4.16015625,-0.8052589888769696,1.0829472229364907
4.1640625,1.3373297182055257,0.34907983847262375
4.16796875,1.0885557430028812,-1.0526792969930148
4.171875,0.6854046756246214,0.7727548137531624
4.17578125,-2.1107469676741064,1.255626377572637
4.1796875,0.2849918450529335,-0.8831221040435164
4.18359375,-0.10739690800320867,-0.6979474368274324
4.1875,-0.6159053418679614,-0.2954197389299313
4.19140625,-1.5973822270509337,0.07822667445455797
4.1953125,-0.6498939974800402,0.1583897750714596
4.19921875,-1.0530795758304172,0.5732921447901083
4.203125,0.5094725938580416,2.0758671929759176
4.20703125,0.4507080862779059,-0.3657585080543434
4.2109375,0.36524626031288643,0.17267082990450497
4.21484375,-0.42054045736236445,0.5920319278100934
4.21875,-0.8482119812104084,0.5483305449953437
4.22265625,-0.7737468241818986,0.07688623769797524
4.2265625,-0.876465076290377,-0.997164649123105
4.23046875,1.5867583298274055,0.07538965537688448
4.234375,-0.16022839194243438,-0.6157110660137268
4.23828125,-0.3557817259404675,-0.06754846693794964
4.2421875,0.6915795302508448,-0.7009371971308707
4.24609375,1.7560088863228773,1.0618858042759756
4.25,-0.46240757320691717,0.6971458902576289
4.25390625,1.1499259680201528,-0.6669702249161236
4.2578125,0.35222926092619444,1.2166080605954375
4.26171875,-1.0522659904798288,1.889103809348959
4.265625,-0.40774565070772417,-1.0355676733379768
4.26953125,-0.9509680597691019,0.7124096851775291
4.2734375,-0.6447170959958016,0.1659558178008994
4.27734375,-0.7050616076277119,0.20285122285645557
4.28125,0.12912885643060076,1.7174534016271985
4.28515625,-0.5389628140453077,0.18051187812379568
4.2890625,-1.3669160564622211,1.4505077624693221
4.29296875,-1.8772359599594728,0.46361972124962064
4.296875,-1.4816715888416647,0.4906670072356072
4.30078125,2.0899459318335682,0.600872899657155
4.3046875,0.9370132052532364,0.44971828822583276
4.30859375,-0.08545138555886703,0.1269969769032397
4.3125,-0.4570678461298603,1.177111559020715
4.31640625,1.1079195859714113,0.2355160217292829
4.3203125,1.8837642292675087,0.04218548531782111
4.32421875,-0.8009269809345316,2.265600166916211
4.328125,-0.9912838102182027,1.405587788429615
4.33203125,-1.4140315109582102,0.2808191063796067
4.3359375,-1.181955322682961,-0.2281080424371388
4.33984375,1.328029129221718,-1.4861863383080096
4.34375,0.7132223405834169,0.827518375866811
4.34765625,-0.04628242962109117,0.7322948743514539
4.3515625,0.7498793924311613,0.2670841246274353
4.35546875,1.1618523094684707,0.35674414072242866
4.359375,-0.5457124541194259,0.3631500800569672
4.36328125,0.1958612970560072,-1.0590801725287324
4.3671875,-0.5456728601096076,0.9673163092273219
4.37109375,-2.699797169492186,0.583360926728402
4.375,0.15497929719517375,0.39504458252718966
4.37890625,-0.7254472942431501,-0.7627274829884361
4.3828125,-1.8520319300310122,-0.881905533974273
4.38671875,0.6479948687320051,0.8603892468720888
4.390625,0.900397341663851,0.226138759116313
4.39453125,0.342658452101244,2.066309314110427
4.3984375,-0.08073198764661085,0.5369193331799714
4.40234375,-0.8218384871442537,-0.6757534314618007
4.40625,-0.08812646041752889,-1.0039171712084007
4.41015625,1.1314191045871085,-1.21077824164315
4.4140625,1.0745057956102877,0.24978755606059722
4.41796875,-0.6786850983039755,0.7249822212085003
4.421875,1.5364480996504442,-0.40581097887409023
4.42578125,0.14937520241763727,-0.8700910736883789
4.4296875,-1.3447113428507507,0.3324871106882954
4.43359375,1.8675907417130169,-0.5155322508853393
4.4375,-0.18150348825450088,-0.3233105902851764
4.44140625,1.355689819378267,-1.5155687000498665
4.4453125,0.6480540519104776,-0.6359801416860916
4.44921875,-0.4389192695789762,-0.5015769966033538
4.453125,0.022391926688657863,-0.11469897729157803
4.45703125,-0.17335639220584287,-0.4711441631486306
4.4609375,0.06971199736857096,2.028543678855586
4.46484375,-0.09884409289723503,-2.324167065503178
4.46875,-1.1575767159832564,-1.0800922705900422
4.47265625,1.0309427526675086,-1.0511793254912332
4.4765625,0.31688069660843754,0.6330999524777452
4.48046875,1.8792374055754064,-0.10193855483692962
4.484375,-0.0003775198638917772,-0.30156462065658685
4.48828125,-0.16408833454689398,1.7950455217629302
4.4921875,-1.3595326836321946,-0.30451687867625865
4.49609375,-1.0211848991461905,-0.36586784502639474
4.5,1.7751972160781795,-0.7375702991339176
4.50390625,-0.06453116021962475,1.4114952151349285
4.5078125,1.5184502895048089,1.3407158414074298
4.51171875,-0.3641464790583663,-2.6661691396325207
4.515625,-0.045067812318727446,-0.622910121640259
4.51953125,-1.8390141337489956,-0.04850195187353915
4.5234375,-1.2982499643738883,0.6054344030002359
4.52734375,-0.4647290940247156,-2.5702969002300176
4.53125,-0.5437886587788944,0.5675566796433893
4.53515625,-0.4638171603380856,3.340729515945967
4.5390625,1.3534280570510173,-0.7608597954932806
4.54296875,-0.15251375779833398,0.31565236940984315
4.546875,-1.232567079689069,-1.4718847907259427
4.55078125,-0.29057595354983723,1.0235782454860685
4.5546875,-1.045966849681132,0.25880710955549824
4.55859375,1.1073420302628008,-1.0003616262954134
4.5625,1.2576481498932728,0.7155317526496051
4.56640625,0.469412032889023,1.2733376052493826
4.5703125,-0.9705047307115499,0.6193746815284986
4.57421875,-1.12288453582498,1.007966667645086
4.578125,-0.9295755417743926,1.44083347372639
4.58203125,-1.302054460293383,-1.054033145243442
4.5859375,-0.04501786060689525,-0.20878946583768954
4.58984375,1.5863257113516342,0.7848429084405243
4.59375,0.5267485320118205,-1.0957438031683697
4.59765625,-1.1649427029684007,0.16792153687524902
4.6015625,0.273614440592791,0.1964523804855796
4.60546875,1.3106168732445145,-1.1890327846336084
4.609375,-0.823905893385457,-0.9204158244570496
4.61328125,0.4081525088179673,-1.1194747012838688
4.6171875,1.1671111597519765,0.9014130194686675
4.62109375,-0.8511837769913768,0.6388147230126934
4.625,-0.17036207210175128,0.006936168570063593
4.62890625,0.9275957953449867,-1.010480088480156
4.6328125,-0.8610130767911295,1.7926628709610741
4.63671875,0.16213316046161005,0.7085044463861743
4.640625,-0.2134902683809614,-0.9010009105874295
4.64453125,-1.3722563749505885,0.25058343406442657
4.6484375,0.12014672142279316,0.40115147579772775
4.65234375,0.41085426588164575,0.7606256519698418
4.65625,0.7651602038317737,-0.6800080961195423
4.66015625,0.030874868425788123,0.5746884277280306
4.6640625,0.22807049209233538,0.6079732020757325
4.66796875,-0.22936519743964928,1.4001723987460573
4.671875,-0.5485368993620092,-0.8351895694707383
4.67578125,0.7492084007854901,-1.536842400454736
4.6796875,0.5102896705773632,-2.0561214910931875
4.68359375,0.8428350902700876,-1.384301436159684
4.6875,-1.500841879109303,2.4489624187163344
4.69140625,0.7013036835783365,-1.62982809659726
4.6953125,-0.5425327088582848,-0.6776740208214376
4.69921875,-0.6682960641323631,1.5840155037479373
4.703125,1.7179000906346331,-1.2642591841864848
4.70703125,0.42194195129011747,0.007966772915177578
4.7109375,0.18495165114000828,-0.09935191953007838
4.71484375,0.9440384289709984,-1.099161033073694
4.71875,-1.3725509044550774,-0.7789720343363286
4.72265625,-0.28768743385422596,-0.7860835942729307
4.7265625,1.0261740488290056,-0.709858737172554
4.73046875,0.051195364508962476,1.1261407044576786
4.734375,-0.5136573633609091,-1.4227269353316523
4.73828125,0.2723829521380709,0.43915215642993277
4.7421875,-0.9193589832084954,0.36245373795142927
4.74609375,-0.2866252417983018,0.8410162563449387
4.75,0.3620414260666633,-0.9991282829696964
4.75390625,-0.11347905658533736,-1.381442258073209
4.7578125,-0.8374185435198884,-1.9514271104250807
4.76171875,1.75712575426511,0.9433460139328657
4.765625,2.458214852318492,0.1418925446108634
4.76953125,0.34258240177472654,0.27526546654926703
4.7734375,-1.2435657269399634,-0.2803839686952803
4.77734375,1.369221644182583,-0.514504766876545
4.78125,-1.0100432983917607,0.6023715662481698
4.78515625,0.42930095267898005,0.15982096593527595
4.7890625,0.13457074136680053,0.4830394324800635
4.79296875,-2.248019554051058,-1.0542781136324422
4.796875,0.8282259212395562,-0.241481786197067
4.80078125,0.5654073982956869,-0.5804967916303954
4.8046875,-0.05091686363779865,0.1598882985838426
4.80859375,0.7763204648383634,-0.12338705850224695
4.8125,0.04513198835496136,-1.7118208291785153
4.81640625,-1.6836154784400004,1.1463347416734766
4.8203125,-1.2100715030512934,-0.3945259879275435
4.82421875,1.280260839870833,0.20870230320682445
4.828125,1.2968752777924422,-0.4049537483440673
4.83203125,-0.6358287534387826,-0.755700410122194
4.8359375,-1.7695423878611516,0.4447131211577172
4.83984375,-0.5361642365541176,1.4474686075073875
4.84375,-0.6114145632322946,1.736251998183299
4.84765625,1.4614701251238333,-1.0683025697531054
4.8515625,0.8286542630325738,0.3425550291871655
4.85546875,0.17466560013808116,-0.1165337161061488
4.859375,-0.4563120602639669,-0.23524821683640754
4.86328125,-0.4516639764936973,-0.6653035023083397
4.8671875,-1.107260957408359,-1.1748782571339793
4.87109375,-0.3092747063423158,1.1275703305130935
4.875,-0.7691688396650822,-0.738464555376159
4.87890625,-0.187323154250066,-0.7521044382123154
4.8828125,0.6607801591477621,-2.090646745799873
4.88671875,0.31025430818487726,-1.0007625107609412
4.890625,0.2157744486154901,1.19577816083958
4.89453125,-1.06167090194952,0.2255317922152138
4.8984375,-0.5848085892860806,-0.07347279868884707
4.90234375,0.24298627482669422,1.191295399584897
4.90625,-0.3852239841509527,-0.2999524918852093
4.91015625,-0.38153737991150394,1.999367442983681
4.9140625,1.3326351013769913,-1.1996143415777656
4.91796875,1.679123603247312,-0.9508046747898068
4.921875,-0.6478523101557534,1.0412423511429996
4.92578125,0.03613308448045004,-0.5484068105882618
4.9296875,-1.102555861509173,-2.0335956345113497
4.93359375,-0.7738817695143702,-1.065828850591121
4.9375,-1.3458086586196043,0.016708020806171304
4.94140625,0.05940327183647454,-1.000383446163241
4.9453125,-0.1187165426215503,0.7565143026748071
4.94921875,1.3293729116866133,1.7658080406521135
4.953125,-0.5006753727010033,1.3991544357007897
4.95703125,-0.4841665891750121,0.3609290352490779
4.9609375,-0.49854943851718975,-2.0163940494914883
4.96484375,0.08366044306048176,0.6481885561861795
4.96875,2.601785814092436,0.5547126577991465
4.97265625,0.29673495062439337,-0.5846777137216038
4.9765625,0.09035630312308711,0.5065487578205796
4.98046875,0.8842397589758021,-0.7016893224709998
4.984375,1.1112053575094982,1.4637446453718204
4.98828125,0.7126604981724122,1.165430998090503
4.9921875,-0.997256442289013,0.12378344527384957
4.99609375,-1.1919006588322667,0.4849756149168283
5.0,0.9009352555834673,0.16090083092700894
5.00390625,-0.49617085796863575,-1.4575898262142788
5.0078125,0.5108131804251882,1.1977101333781761
5.01171875,-1.1556803148268497,2.0753193707301842
5.015625,-0.872025707076876,-1.3566355393525893
5.01953125,0.17052337315084756,-2.393574605763339
5.0234375,0.5295483840166982,-1.1083823847021381
5.02734375,-0.48542383508419296,0.002442057861847462
5.03125,-0.5517841457852916,-1.3668589998768932
5.03515625,0.08174141445659129,0.2149303160974471
5.0390625,0.2361368760061004,-1.6294891379984275
5.04296875,-0.16364206742922505,0.7018611174171632
5.046875,0.7683913243405786,0.5297099563922356
5.05078125,0.48470451096048117,0.29768901891957666
5.0546875,-1.1562692662156036,0.18638318210581942
5.05859375,-0.5957125922744153,1.2776352852819273
5.0625,-0.14626713545103692,2.2941729513930937
5.06640625,-1.7747450445828297,-0.7669887841145375
5.0703125,0.6816099295771314,-1.3452971254326194
5.07421875,0.3414156670762577,1.698386384795851
5.078125,-1.8906106975076098,-0.60654384089543
5.08203125,-1.7726135801048943,0.3034222819856334
5.0859375,-0.966390316816017,1.6041097112866862
5.08984375,-0.9688762141979411,0.661166483858333
5.09375,0.4551319856285615,-0.4789217888113869
5.09765625,-1.5172541462111173,-0.20425801556452527
5.1015625,0.9675325333572099,2.090789239058984
5.10546875,-0.724304116445164,-1.464386112621817
5.109375,0.06927575666613597,1.25330400544884
5.11328125,-0.17132738378860396,0.573351000025351
5.1171875,-0.06144105657359147,0.07013336615750285
5.12109375,1.4926578495479843,0.19666517160869212
5.125,-0.6794208801533664,2.141014554933798
5.12890625,-1.0660867263796285,1.133183494581182
5.1328125,-0.001396288661150627,0.9527075741461274
5.13671875,0.953320136511531,-0.582669878223292
5.140625,-1.028016405772711,-0.7530895984367233
5.14453125,-0.4444799473733507,-0.5592184932498785
5.1484375,2.284605903738551,0.662068033685516
5.15234375,-0.08878016047816745,0.6845945040816065
5.15625,1.6214737870063565,0.4717773439053931
5.16015625,0.2803769022432762,1.1385530703001843
5.1640625,1.0591770803396732,0.7822185941142091
5.16796875,-0.9391698246462142,-2.3832034164104297
5.171875,-0.3012171311009564,-0.26196457894578673
5.17578125,0.36938867123998853,-0.866610295120416
5.1796875,0.020567786392888844,0.033695484303579236
5.18359375,3.283862466484912,0.2696121017983796
5.1875,0.7449567642500959,-0.26515062329037553
5.19140625,0.444128824101562,-0.1969481484814824
5.1953125,-0.2650408677875512,-1.7141467416081797
5.19921875,1.19686841018257,0.4908215742977893
5.203125,-0.44784751668540745,-1.5996460303407984
5.20703125,1.8154720831650444,-0.29916946414551776
5.2109375,3.1344839781939724,-0.2605094113728876
5.21484375,-0.8532696909588158,-0.6888694942159067
5.21875,0.9194644578241701,-1.4037054432815002
5.22265625,1.5950295726674675,0.5700208118438052
5.2265625,0.7237127487695433,-0.3303824508744363
5.23046875,1.3023130496785396,0.625545264889803
5.234375,-0.1278433493048627,-1.5715804772271562
5.23828125,-0.8370726814483471,2.109252553156083
5.2421875,0.7903732869103295,0.2016662547930747
5.24609375,1.8079079342337663,0.07900360549861687
5.25,0.6806625057907141,1.452442998269584
5.25390625,1.6540243411688802,-0.004514306610193306
5.2578125,-2.1896645565778488,1.2587953933333147
5.26171875,-0.7656253281664819,0.0008502561941721875
5.265625,0.3029999748764728,0.12035229981367493
5.26953125,-0.5031890057193898,-1.8000103135615304
5.2734375,0.14951720324643245,0.4017689349229354
5.27734375,-0.5137645265130981,2.4055146482370127
5.28125,1.0127482768651732,1.6737524834993134
5.28515625,-0.13873159355020162,0.011000815164411884
5.2890625,-0.9545914576247387,0.3790289564680569
5.29296875,1.264008112035885,0.761875075297672
5.296875,-0.06407999425532421,0.5203373705786466
5.30078125,-1.8571612586252038,-0.5323519626329937
5.3046875,1.201426513027753,-1.1095317844481118
5.30859375,-0.19456438853755761,0.40717466640687944
5.3125,-1.575512205324492,1.7922355386709832
5.31640625,1.0814830387686034,-1.0752791587387687
5.3203125,1.5495497014934416,0.006121705581592913
5.32421875,-0.9798766025003243,-2.220339344567098
5.328125,-2.2353583395135113,-1.6498686295026137
5.33203125,0.018151622851795154,-0.4328063036632324
5.3359375,1.1678994991628933,-0.8451795758746664
5.33984375,-1.8195602133102113,1.060081316151509
5.34375,-0.5119509855104192,-0.551855909038427
5.34765625,-0.5705282417788886,-0.7191575697540885
5.3515625,0.0666820109516436,-0.8829221120180204
5.35546875,0.45210430625381304,0.31973051553700027
5.359375,1.7752740223173347,-0.506171852723693
5.36328125,-0.24634921974828838,-0.9884193355261583
5.3671875,1.1984324723230637,0.7014497169226435
5.37109375,-1.4357999290816095,0.0805946125268339
5.375,0.2567155725336344,-0.9432146858804212
5.37890625,0.7188290669020228,0.6922517357304592
5.3828125,0.46929210114906444,0.9121736444019225
5.38671875,-0.24833316928051005,0.2182673213916044
5.390625,0.972739119862362,0.06230280467776632
5.39453125,-1.818370407700648,-0.883460738632647
5.3984375,1.0618038490410524,-0.7206072776328796
5.40234375,0.46159965127315145,-1.6675449973471985
5.40625,-0.4384127363715613,0.4601426766009592
5.41015625,0.2468284309333278,0.7653704206333727
5.4140625,-0.03869039023675267,-0.7266281804659639
5.41796875,-0.9993105767554364,0.49101622635846015
5.421875,1.6419532747392291,0.3422650823269338
5.42578125,0.7515838291067889,1.076613094705992
5.4296875,0.7727852932053516,0.8680889199043532
5.43359375,1.7531204768470137,0.11588826499460593
5.4375,1.1798324054030795,0.4565944888244888
5.44140625,0.986553465764646,1.3243450922945919
5.4453125,-1.1957512936801877,0.3441462833740765
5.44921875,-0.32907413198600455,-0.22720499436915922
5.453125,2.431575655591972,0.49892819426978435
5.45703125,0.47824549569079317,-0.5221210875925406
5.4609375,0.07668792855466643,0.2561521161797128
5.46484375,-0.13489167089585766,-0.2517398048234824
5.46875,0.45563753496092335,-1.4205714026827758
5.47265625,-1.4773571054966321,-0.6686407100051359
5.4765625,1.0709328698064138,0.9942196265071
5.48046875,-0.09158221867108295,-0.1448780525193931
5.484375,-1.0702118434414702,-0.726142661472069
5.48828125,-1.0422559014621031,-0.030125912192965596
5.4921875,1.9358229527175896,1.5869742733323824
5.49609375,0.1965316603506885,-0.05447104792625407
5.5,0.727640229668239,2.1028295191382713
5.50390625,0.48640189209995244,0.49241798078240073
5.5078125,-1.6217938814407675,-0.8333425839814012
5.51171875,0.005461090911688225,1.4693185084061486
5.515625,0.390079353638519,-1.690891207834266
5.51953125,1.456346959678527,-0.2809366305945307
5.5234375,-0.6988953750409845,0.23210200230694278
5.52734375,0.2583903832349709,-2.001760715572786
5.53125,-1.8874997605669224,1.7223307372619672
5.53515625,-0.11928506634919735,1.6743796977277265
5.5390625,-0.018116104585682254,-0.618571150381186
5.54296875,-0.2856371778907248,2.2104789763165775
5.546875,-2.037203369660619,-1.97962415756973
5.55078125,-0.7444619212503257,1.4878699451895416
5.5546875,-0.5892477687646294,-0.8174880134335122
5.55859375,-0.16704573336769266,-0.8176303311072806
5.5625,1.0412270107060801,0.24284244740243763
5.56640625,-1.236040872320952,0.7585982685365316
5.5703125,1.489327273391734,-0.07306155663149827
5.57421875,0.9532437955211189,0.5453921822530796
5.578125,0.9294467296956254,1.3276063115058037
5.58203125,1.0425550253921578,0.2782912509868801
5.5859375,0.8061387257682631,0.010353453020611117
5.58984375,-1.6800822632811416,1.2660769663120264
5.59375,-1.1276448841861992,-0.10893569674053966
5.59765625,-0.7938078326137971,0.22386416214318014
5.6015625,0.44802807612763396,-0.500079112013807
5.60546875,1.2584694946141948,1.9096273590346622
5.609375,-1.9184800850784642,0.5114839558029195
5.61328125,-1.6834993520187413,-0.9867964826211688
5.6171875,0.09333617988113331,-1.0188723836269968
5.62109375,0.13423491263271242,0.3059724745450435
5.625,0.6658480786902217,0.2623599078476787
5.62890625,-0.03836333474330357,-0.07920865868103014
5.6328125,0.8484546374298333,-0.1906732077190457
5.63671875,-0.8047405031856281,-1.2902669270170564
5.640625,-1.242540847268313,-0.30847501694034923
5.64453125,-0.1924401959338449,-1.365357907179534
5.6484375,1.4066437417527213,0.20020648884239545
5.65234375,0.7046028307427886,0.831044779586737
5.65625,0.13798163172469446,0.14425177542170273
5.66015625,0.0335249254818201,0.3596700034853947
5.6640625,-1.5146306261040274,-1.8974400154317574
5.66796875,-0.8684446338559125,0.9900675264790474
5.671875,0.8357822352430974,2.879810879789374
5.67578125,-0.1897675683765999,0.9215895490707108
5.6796875,-1.0810353943160853,-1.654936380046215
5.68359375,0.8607600935075614,0.011687821651854578
5.6875,-0.930724493454435,-0.7234519200945745
5.69140625,-0.17817197767015497,0.22501875377077968
5.6953125,-0.9868507299726659,1.6669667466571956
5.69921875,1.1354344163775234,0.17141180899454078
5.703125,0.6429026674784323,-0.8119413517514753
5.70703125,-0.8026194926212507,0.2647386273715369
5.7109375,0.9095034246684094,0.534586826742204
5.71484375,-0.5036327115794663,-0.16388032620451284
5.71875,-0.19745229154134708,-0.33808141494752486
5.72265625,-0.8078971752288701,0.6824527481515058
5.7265625,-0.6062570017963621,0.14324032208000848
5.73046875,0.817837208066841,0.2372596648441701
5.734375,-1.4787052548598099,0.8192386215735162
5.73828125,-0.7235812773669378,0.13319121997671565
5.7421875,0.2633393511338775,-0.44455964578220597
5.74609375,0.9109061869341951,-0.6590483046958668
5.75,-0.22316138310351954,-0.8234868168735799
5.75390625,-0.4399361041005752,-0.18312596027937203
5.7578125,0.009408495398310289,0.7407499513249657
5.76171875,-1.6529557747366685,2.135163164128634
5.765625,0.6191245040021599,-0.5355104337801504
5.76953125,-2.456950026312658,-1.0169286182963875
5.7734375,1.2391041860667187,0.7453954386238868
5.77734375,-0.27960581104254645,0.8914189546890098
5.78125,-1.0305262182111017,0.7296978177061862
5.78515625,1.5568754449032332,-0.4937229455664635
5.7890625,0.17570310394200603,1.646953479355924
5.79296875,1.979770385318825,-1.4967174940060968
5.796875,-0.9301708294785939,1.082023499200693
5.80078125,0.6378180295080231,-1.5296669747600409
5.8046875,1.3976877243198438,-1.5367043439498909
5.80859375,0.2813095481968476,0.7078124132853378
5.8125,-2.098451128582454,0.011453585297834641
5.81640625,1.2614833669496872,-1.9266743841172316
5.8203125,0.6631353398603321,0.2578597588241377
5.82421875,-1.4515928827833013,-0.08570310723312251
5.828125,-0.172849688926104,-0.23652722381008787
5.83203125,1.4594361750143185,-0.14883193563207472
5.8359375,-0.44141967678715477,0.8400970284421616
5.83984375,0.21756739330803337,-0.12853470162649247
5.84375,-0.16912667217382404,-0.4358197998428357
5.84765625,-1.9035767662960106,0.5388183039594143
5.8515625,0.5313889995373263,-0.43940217525250913
5.85546875,0.5706808461833969,-1.2954451740929225
5.859375,-0.20228391406646049,-1.793178164999034
5.86328125,-0.2587219117402434,0.4833911413494532
5.8671875,1.2540962755047462,-0.3127400835084157
5.87109375,0.3430540174769275,-1.6494114098883914
5.875,0.2169711426013668,-1.3036903831759887
5.87890625,-1.6612979856585652,-1.2904885116826545
5.8828125,1.7866875722073903,0.4486759874207981
5.88671875,0.6469116390204266,1.6268137674945258
5.890625,-0.5724857490064635,1.5912519570522379
5.89453125,-0.1706884908917822,0.3742460001346052
5.8984375,-0.7880644433773663,0.3942083895107948
5.90234375,-1.9728603376595613,-0.17317071867551528
5.90625,1.3477049997368793,1.556661676938057
5.91015625,1.2489242921528048,0.028601273085622558
5.9140625,-0.6530357873993717,-0.25168350803530815
5.91796875,0.8352312237605233,0.5725859531774404
5.921875,-1.065248628466719,0.4968739367962785
5.92578125,0.7708880356969754,-0.14126270474617822
5.9296875,0.37240489802762017,0.31497728403215336
5.93359375,1.4264014662222602,1.0450595006106265
5.9375,-0.38926251939603396,0.8498287538676634
5.94140625,0.2581004528661455,-0.5190996601386835
5.9453125,-1.7373503690517211,0.759365463758988
5.94921875,-1.3904378330553895,0.12406284163908818
5.953125,-1.340115702517017,-1.8147657847040106
5.95703125,1.295616518017511,-0.19860978849402508
5.9609375,-1.580515064491015,0.863970999308128
5.96484375,0.3814725670894884,0.4282705153880914
5.96875,-0.27457394267623675,1.7396897577302957
5.97265625,-0.8590223188188286,1.295593540626765
5.9765625,-2.464433169478035,-1.5291818577834606
5.98046875,0.7364565802345661,1.0530388620164994
5.984375,0.37029171501732594,-0.21768459997134673
5.98828125,-1.0629992003096709,1.557358558407033
5.9921875,0.5635021937590482,1.477726885838983
5.99609375,0.8396787089991614,-0.7553729359319873
6.0,-0.5415814060406924,0.9063264330243107
6.00390625,-2.572878273896094,0.8555116264583355
6.0078125,-0.8160720390507232,-0.9223176696757641
6.01171875,0.5100490284646904,-0.9627167887981432
6.015625,0.3738312834721181,-1.2362088284598396
6.01953125,-0.4142919170717801,-0.8603546764941232
6.0234375,0.053862131505152656,0.7095526553237983
6.02734375,0.6958313752752198,1.697991729326196
6.03125,2.2230141828187673,2.0017163544095937
6.03515625,-1.2593786539979615,0.7525848091391013
6.0390625,1.2132659453796182,0.5166170710987217
6.04296875,0.43936055556686215,-1.4198591388211823
6.046875,-1.3859263909258392,1.327519992720488
6.05078125,-0.6675558089691612,-0.527290394545553
6.0546875,0.295490321948691,0.13624532611108392
6.05859375,0.48826242620845256,-0.3052463118124111
6.0625,1.4877858909956412,0.5692843913211209
6.06640625,-0.7063417015015949,1.4553111030947872
6.0703125,-0.5374511646515447,1.2098234421328855
6.07421875,0.2448863779089707,0.2691413849795542
6.078125,-0.4123380443371943,0.4784943528584856
6.08203125,-0.1004569329824221,0.08217474418345372
6.0859375,0.6042352179980421,0.5343287903133542
6.08984375,0.8780253393881896,-0.6209209918602506
6.09375,0.5181343433948086,-1.3730531467710385
6.09765625,-0.022481549018907462,0.22765724341650267
6.1015625,-0.126151709949379,0.22669118192005194
6.10546875,1.1883163556247494,-0.30498815755110265
6.109375,0.6924087552592241,-1.3046774389070943
6.11328125,0.8942981033524623,-0.005291421012502604
6.1171875,0.3519980878609072,-0.8720199736569081
6.12109375,-0.32690831554048166,-0.2625434765596069
6.125,-0.14592302488180442,-0.4333942953993521
6.12890625,0.5629963692871721,0.5228366788957164
6.1328125,0.6320246784314385,0.7639882183472866
6.13671875,-0.5823275324329137,-0.647795034546822
6.140625,0.5594885320136591,0.8485661141985172
6.14453125,0.22448956473192222,-1.1200410586628275
6.1484375,0.12956896995774436,0.3059342910410512
6.15234375,-0.4015766992149721,0.376416743240408
6.15625,0.46178327283664294,-0.4384895292934381
6.16015625,-0.9848357263182242,2.3849154499233536
6.1640625,1.0679766764753458,-0.1490179437473136
6.16796875,-0.6944674154379857,0.5157803685518788
6.171875,1.0582577071288088,0.42728926618888574
6.17578125,-0.9740787653271432,0.1783176428653787
6.1796875,0.014162169147517157,0.16016180595157414
6.18359375,-1.025083613835723,-0.8112725301057699
6.1875,0.01876749081650689,-1.1688064769607676
6.19140625,0.1461564277213726,-0.7603235029255738
6.1953125,1.0557493784228162,1.7605055136659533
6.19921875,1.9257180079476364,1.7257261216027735
6.203125,0.8988129677384822,1.274140398863219
6.20703125,-1.2882053240710607,0.13037300640985952
6.2109375,-1.3759817489002635,-0.22108904227479345
6.21484375,0.9329544529763173,-0.3908901740809439
6.21875,-0.5819265923413165,-0.4460692293698008
6.22265625,-0.6494128616565107,-0.6747091792323388
6.2265625,1.054849098281839,0.7460391746665256
6.23046875,2.0062442897435706,-0.18497618033819813
6.234375,-0.7960754934613689,-1.6911149473472322
6.23828125,0.2890248346417131,-0.8056700521946167
6.2421875,-1.593510995188169,0.15036656786478916
6.24609375,0.19401211117135558,0.049424395022826965
6.25,0.5775830367605095,-0.780846873536228
6.25390625,-1.009518566444839,-0.6120774505240623
6.2578125,0.6515319257223798,1.4001188544694854
6.26171875,-0.005414290248522231,-0.048383485380685244
6.265625,0.24345113829984244,1.3802696245645814
6.26953125,0.1320433933101022,0.4397314741158858
6.2734375,0.04960240813861193,1.3324384140936112
6.27734375,-0.3901855191338413,-1.0457904503514461
6.28125,0.35075409758739495,-0.15838203261611436
6.28515625,0.5884514241662987,0.021378475153138874
6.2890625,-2.694171185290557,0.6220940673158554
6.29296875,-0.8844453719722871,0.30621688539979103
6.296875,-0.843652963629239,1.0170867384659317
6.30078125,0.05921137273864874,-0.9191623509409372
6.3046875,0.05634282477604863,0.9265626885332177
6.30859375,-0.05215018218898642,-0.6166619683630878
6.3125,-0.21561067778699738,-0.3253982818678273
6.31640625,0.46987785530637505,0.8812920944035793
6.3203125,-0.022400311335329715,0.1698699342982943
6.32421875,1.1055850628020298,-0.8993062042628487
6.328125,0.4164846540925426,0.5207493448490386
6.33203125,0.2737910203584142,1.019968687308943
6.3359375,-0.4380601188882148,-1.748012066405001
6.33984375,0.30548722467750883,0.14714618317369715
6.34375,0.46532510628653706,0.5096663998684228
6.34765625,-1.5898498223119237,-0.33354456436369745
6.3515625,-1.7894608744855094,0.3970613332007763
6.35546875,1.4609872298707054,0.5791023288445576
6.359375,-1.6866216203939153,0.39395530962777636
6.36328125,0.31347315180602064,0.15699451919016108
6.3671875,-1.162965798689754,-0.45041145880358985
6.37109375,-1.4489737709006076,-1.1264106770511775
6.375,0.09734971658593808,-0.14122831761874396
6.37890625,-2.060645461877207,-1.1783208985459288
6.3828125,1.2436285255429889,-2.118615197731349
6.38671875,1.188439320824675,-0.08455642804701895
6.390625,0.7902473583702819,-1.1162142917311464
6.39453125,-0.8683679487680317,-0.19001286499057465
6.3984375,0.8148799310442139,2.4897504841246243
6.40234375,-1.3454030457004793,-0.8337179270404071
6.40625,-0.7877502329511357,-0.5946430178963433
6.41015625,-0.15879776062728898,1.233848922644872
6.4140625,0.5644831469298772,-0.9822136457228312
6.41796875,-1.4614231756664122,0.062367504906284024
6.421875,0.15695406916090338,-0.9707656071183411
6.42578125,-1.0599843826365565,1.478928177164983
6.4296875,-0.08109552906431092,1.2376363753439787
6.43359375,-0.7221072281042684,-0.5977044988294814
6.4375,0.08224819815778442,0.9389639100872921
6.44140625,-0.6315696566131912,2.1363339306855726
6.4453125,-0.7193137282121478,1.9529411929406775
6.44921875,1.1939484674803615,-0.8442296762929936
6.453125,0.27847777771791615,1.9171291548505238
6.45703125,0.5401378772530033,-0.33756015839443526
6.4609375,-0.6745789346900889,-0.11443285203017732
6.46484375,0.02854122344546193,0.33346033341359343
6.46875,1.5541109700000424,-0.41110990958179283
6.47265625,-0.8309721143710574,0.45975447852137763
6.4765625,-0.14354115729532274,-0.17733015934469148
6.48046875,0.08385501992404083,-1.6375427920063956
6.484375,-0.33980387196216916,-1.040976087282495
6.48828125,0.7050060999950993,0.3726295945254335
6.4921875,-0.5019591474670856,-0.9536788706246867
6.49609375,-0.9521994884979899,0.4945625530785279
6.5,-0.587358774298466,-0.5049864985828914
6.50390625,-1.246364059076577,-0.08881611318068723
6.5078125,-0.5411854263440415,-0.9933678450213539
6.51171875,0.009478490266517597,-1.15417826574131
6.515625,0.9414686160338498,-0.8281789431796781
6.51953125,-0.6659117249314088,-1.9520038486877351
6.5234375,-0.10443669820337076,0.32934563283172297
6.52734375,-1.5083320033144034,-0.0723893011242653
6.53125,0.7149420365865322,-0.8907383247485186
6.53515625,0.06475208599460867,-0.1338795273281398
6.5390625,0.4808325640309615,-0.788318669270668
6.54296875,0.23190723817617426,0.42568768836795
6.546875,0.8009584793527881,1.2187003217377608
6.55078125,-0.5227955398392836,0.5948886519936737
6.5546875,0.13337758794219357,-0.3928428283726175
6.55859375,-0.6757254786142609,0.8645774558512387
6.5625,-1.3058052755879044,-2.2622198528110293
6.56640625,0.10807578745707647,-1.2609988566255792
6.5703125,0.2666073728920625,2.0420163481866513
6.57421875,0.9510503210133092,0.5275949146862847
6.578125,-0.4709431138992029,-0.7494374658653148
6.58203125,-0.9120973360460981,-0.4299977820180853
6.5859375,-0.5720603832149149,-0.2924635582657598
6.58984375,-0.4425950715615227,-0.30603937150457045
6.59375,1.209847213417456,0.6536604430606637
6.59765625,1.3819305644769349,-0.29642904993089036
6.6015625,0.24289588856688463,-0.8543748659356174
6.60546875,-0.13008763201488532,-1.2820902293634044
6.609375,-1.4883254026326964,0.961870001119885
6.61328125,0.4348646876924134,-3.135238808062627
6.6171875,-1.474730437923084,0.3470555560532055
6.62109375,0.5521113285969118,0.2506085641698585
6.625,-2.114625408823334,1.9477422869774474
6.62890625,-0.13273680680149588,-0.1574115669449758
6.6328125,-0.09316410998951519,-0.9801874827329462
6.63671875,-1.8033183394151155,-0.24691846334046635
6.640625,0.14410207992824892,-0.8880419697491081
6.64453125,1.2701415771950002,-0.253224452970019
6.6484375,0.42085003814478017,-0.03086035598996969
6.65234375,-0.9888308844371301,-1.5187424336645885
6.65625,-0.9489143936142811,0.8920215866200419
6.66015625,-1.4393522706440602,-1.00929163368295
6.6640625,2.1478572875763033,-1.1363419030699144
6.66796875,-2.0443772407602756,0.9388266394116258
6.671875,0.5607331125899423,-0.2855903215771178
6.67578125,-0.12398612342645335,-0.2509614294828997
6.6796875,-0.6195278178752306,-1.4538254068074794
6.68359375,-0.8890496583955283,0.3949177701159973
6.6875,-0.09800518639457652,0.08374497793142727
6.69140625,-1.8737106526186564,0.7322918325967386
6.6953125,1.224751870600182,-2.3504246141237766
6.69921875,0.7062389779801697,0.2948849778233046
6.703125,1.289714182943681,0.9461500800150022
6.70703125,0.8464500550770245,0.04869466781112032
6.7109375,1.1947574675628048,-0.39588604462809523
6.71484375,-0.9159638372361839,-0.38903926463410854
6.71875,0.3154459557559354,0.1143553137049183
6.72265625,0.1127544339891801,2.455383783693268
6.7265625,-0.7545616774438386,1.1602508203260216
6.73046875,0.20986198121149988,0.866715017795607
6.734375,0.48805837316313805,0.6907144354864674
6.73828125,-0.4575037523978126,-1.1906320681859894
6.7421875,-0.18288862354546323,-0.5234250278056033
6.74609375,-0.15464998465291643,0.24730422933844204
6.75,-0.7977586669089948,-0.4498026007943807
6.75390625,1.0998566800315666,-0.2559372931813977
6.7578125,-0.060339409594787605,1.1423087277172561
6.76171875,-0.7605757373024218,1.0608969928348797
6.765625,1.0212491683176752,0.5578949032471696
6.76953125,1.4061306127916176,-0.35574831096194376
6.7734375,-0.08187722674455883,-0.6218234914870258
6.77734375,1.1093516939762094,-0.5977726001485474
6.78125,0.421520254505916,-1.0570394539649945
6.78515625,-2.4560111660017756,0.5075653717520527
6.7890625,0.9393133801943998,-1.4746159401461796
6.79296875,-0.21073023488576903,2.207005486739318
6.796875,0.3085509767626406,0.44140372550735024
6.80078125,0.530223297815555,1.2518079074764015
6.8046875,-0.1916428110341172,1.8730802665970223
6.80859375,-1.9056754201629844,-1.6317860894748952
6.8125,0.8186250977336506,1.2073018805924647
6.81640625,-1.1387492127900316,0.7604090334474365
6.8203125,1.0374454189082625,-0.9099646433073779
6.82421875,-0.9802158744389973,-1.983518548569421
6.828125,-0.00800762898649247,0.5979143038665128
6.83203125,0.30053660944909644,-0.7601721929646613
6.8359375,1.0928919622562205,-0.8030024659319736
6.83984375,2.3742230987803965,0.8985777122637916
6.84375,0.8626231894377442,1.0472465694036603
6.84765625,-0.4161627110357279,0.6938032894650901
6.8515625,1.1383770783588647,0.6980447175029767
6.85546875,-0.1848681291563613,-0.48775480519757536
6.859375,-0.5859729364191752,-1.3314318625311325
6.86328125,-2.192477926855423,0.21573694264684817
6.8671875,-1.7418139725626907,1.971953413222446
6.87109375,0.3120183682800623,-1.27608021997989
6.875,-0.7791192601970388,-0.6758679834782153
6.87890625,1.5833692808874973,-0.01866572040842236
6.8828125,-0.47897856610392686,0.3377541939658432
6.88671875,-2.510749625070413,1.0373724321685551
6.890625,1.8537877587158302,0.0807766524440857
6.89453125,-2.3591062691066718,0.33126304036616877
6.8984375,0.7561654914697231,0.6322408016682457
6.90234375,-0.3584766955030504,1.0240842748608983
6.90625,-1.7824412414734871,-0.9196635277821401
6.91015625,-0.026607980163018078,-0.8604670156633892
6.9140625,-0.6153399673415981,-2.048226991485365
6.91796875,0.16700894155267054,-1.0266207290444562
6.921875,0.913012926503034,-0.9176519603745397
6.92578125,-1.5945935861730718,-0.09779781128679328
6.9296875,-0.6897164382126043,-0.049306587079135794
6.93359375,-0.11014684470775918,-1.7238328292550436
6.9375,0.4836662938742308,1.264563696311135
6.94140625,-1.9730528381472907,0.49427383196769614
6.9453125,1.4134462057570671,1.5115507467565577
6.94921875,0.7176814644436855,0.255099437292859
6.953125,1.671039614580802,-1.0918986314104409
6.95703125,0.4339816900204699,-1.3731654581107446
6.9609375,1.2740841782311505,0.8635967221346248
6.96484375,-0.009699453327234427,0.6508410570059768
6.96875,-1.0991823988767835,-0.0862748834925362
6.97265625,1.9292043605554223,-1.1557832351054529
6.9765625,-0.20122745047883997,0.8047535557205237
6.98046875,-0.31125367723587094,-1.8974660614745456
6.984375,-0.11735967344411656,0.16147209083753467
6.98828125,-0.3112364377223414,-0.934710297665598
6.9921875,0.5459749928284953,0.915913384827002
6.99609375,-1.2064654957185168,-0.2430706426535451
7.0,0.0734303209339474,0.2558715752509086
7.00390625,2.1671787719292723,-1.0145273904465126
7.0078125,0.9333423469470713,-0.7300181016624048
7.01171875,0.1682797305554727,-0.0655809968685451
7.015625,-0.34593255566100817,1.1116820526144227
7.01953125,-1.102750927680775,-0.7857550450212522
7.0234375,-0.006402324793344315,-0.5858734977139672
7.02734375,0.014853695468553104,0.9181365788330864
7.03125,-1.233456878866761,0.5892542598725576
7.03515625,0.12474651641536028,1.1609758310762706
7.0390625,-1.9087327059952164,1.1136361238759775
7.04296875,-2.9202439835825684,0.5731162963341774
7.046875,0.8895265249877682,-0.6956663956292298
7.05078125,-2.2349503074719568,-1.1431948780210028
7.0546875,-0.8206518518906292,1.7874472323049273
7.05859375,1.262151971214446,-0.5940608964056463
7.0625,-1.205119235688755,-0.5320001123494035
7.06640625,-0.06803682484427924,-0.1768167323753299
7.0703125,-1.2640390065968636,-0.41851338490351503
7.07421875,-0.058525209148124854,-0.910700088760891
7.078125,0.5076666911968464,0.09204860737354993
7.08203125,0.27958124619998126,1.0038794410535767
7.0859375,-0.3531236688238344,-0.2818266664186946
7.08984375,0.3844167598146708,0.816440784396582
7.09375,0.5495633571522627,0.7295726249488961
7.09765625,-0.0853686172047773,0.16280991061756261
7.1015625,-0.8207253640718546,0.3111058853375556
7.10546875,0.4655830188333418,-0.16214724042131362
7.109375,1.3151163986303922,0.48321714763352763
7.11328125,-1.2198424455970565,-1.001611900301891
7.1171875,-0.6866038978929685,-0.6115999067662317
7.12109375,0.6232683081247008,0.779011712284918
7.125,0.19921012948604672,0.11014494906395787
7.12890625,-0.930785837045319,-1.7857899850472483
7.1328125,1.1232629232790485,-0.826031745924313
7.13671875,0.9227603307341867,-0.10235519021945934
7.140625,0.894562961307145,0.6534219358206488
7.14453125,0.20884883048971384,-0.15229894232943847
7.1484375,-0.3518193402577548,-0.91350012780232
7.15234375,-0.29274009906855986,-0.7764251562282438
7.15625,-1.2324066038120147,-1.3177701552803265
7.16015625,-0.5252114594480745,-0.04540854921934916
7.1640625,0.8687677922697306,1.6951033948080731
7.16796875,1.4092559019944146,1.7986906204284006
7.171875,1.509383564557759,-0.6938500138169225
7.17578125,-0.10352320281642914,-0.25643699394469366
7.1796875,-0.3362895861099551,-0.24467760213574308
7.18359375,1.0601494337012471,-0.8918447468787973
7.1875,0.2268876040657736,1.1171645951513178
7.19140625,-0.8413673761990805,0.9871036808716588
7.1953125,-0.02653220368492172,-0.3387921588476968
7.19921875,0.13907958672876966,-0.2074496263266592
7.203125,-0.11505098611368526,0.21939698965887125
7.20703125,-0.2458519989150062,-0.4568915629185485
7.2109375,0.264020430993147,2.774694040842926
7.21484375,-1.9013414111262568,-0.14019084328394363
7.21875,1.5139264279466758,0.42920056842763266
7.22265625,-1.6703206076587276,0.979390163908032
7.2265625,0.7240028895731696,-0.0945111380046904
7.23046875,-1.0905705184724157,1.206229888177661
7.234375,1.290477988240938,2.0894918083133436
7.23828125,-1.5544714113149825,-1.636416487509341
7.2421875,-0.23278437515496878,-0.40161251051393404
7.24609375,0.7401289990732123,1.3217324124456058
7.25,1.2840362734604664,0.4905692784630451
7.25390625,-0.5191116628331282,-1.8674874523557359
7.2578125,-0.6301668458548791,-0.8976723629429144
7.26171875,0.18512974523685985,-1.0049908340888343
7.265625,-2.1386471467355133,1.1412990876764604
7.26953125,0.47716311093947694,0.16722980427861917
7.2734375,-0.8418318902449243,1.421386082858005
7.27734375,0.19135608287949077,-1.328234844068685
7.28125,0.3568251412282258,-0.13591474113741406
7.28515625,0.3065779439584639,-1.163199912121764
7.2890625,0.1422634100451073,-1.6045501042511492
7.29296875,-1.4759477739875597,0.3339603315766323
7.296875,0.23821087797963192,-0.13582154833069374
7.30078125,-0.5395685355103745,-0.3854681518350416
7.3046875,-0.03698064788591607,-0.43693546557744056
7.30859375,-0.5124981226089576,-0.7726017051434741
7.3125,0.00427932198538888,-2.059728454870973
7.31640625,-2.2296778982521492,2.461911563350092
7.3203125,0.6087359055714902,0.7266328331746857
7.32421875,-0.7414460745471326,1.549034931499389
7.328125,2.10574361608167,-1.5537179261729628
7.33203125,0.6556772298340807,-0.8654517870708965
7.3359375,0.3712266441356642,0.4810404987972151
7.33984375,-0.9852366644657359,-1.2381185225381044
7.34375,0.6488525746687775,0.1474408088307537
7.34765625,1.9501414274998317,-0.7922938721344196
7.3515625,-0.08013626882589774,0.13252978892441847
7.35546875,-0.27007428081987217,1.006439424709812
7.359375,1.275972207193849,-0.5128316793319385
7.36328125,-0.18475458582573012,-0.8239732905310171
7.3671875,0.6117200603116886,0.8370688907395006
7.37109375,-0.2364264649356722,-0.11105883692152521
7.375,-2.1118127517867786,-0.6784450069264533
7.37890625,-0.9750657260043185,0.3756070950637301
7.3828125,0.26755962295599456,-0.6513775510898955
7.38671875,-0.06601274528865826,-0.17325843840891308
7.390625,-0.7669484566368915,0.3231222867170104
7.39453125,-0.20033146538296012,-0.2458708689906658
7.3984375,0.7664898903855112,-0.2832147121804304
7.40234375,0.5356082455293866,0.4986444015954534
7.40625,-0.7445642869834108,3.128490147094038
7.41015625,0.87223216082767,-0.1728465847698207
7.4140625,0.05535451640628759,0.7901487173026869
7.41796875,1.074007676067338,-0.2323342536989037
7.421875,1.0478291681936251,-0.3314520036132619
7.42578125,0.48426835549499586,1.0492697593445763
7.4296875,-1.0247968670032335,-1.538216881860265
7.43359375,0.47700089351196956,0.1815823937141927
7.4375,-0.09776166041984394,0.4302567322063521
7.44140625,-1.2555374580439793,-0.45539359740584123
7.4453125,1.0903570624769814,-1.0709422055630593
7.44921875,0.7789419778340101,-0.4165344997407582
7.453125,1.4335395464459735,-0.6006008789720595
7.45703125,0.761659049382884,-2.054806926249374
7.4609375,0.9392783066627429,1.2811605702101647
7.46484375,1.0503459718806405,-0.6818364553615764
7.46875,0.16597225181678882,0.7994993729991375
7.47265625,0.40355256327436756,2.532348269961145
7.4765625,-1.135069801178645,2.8461179169722124
7.48046875,1.2622527501358962,-0.7239978638040816
7.484375,2.1519519475033695,0.523393177202848
7.48828125,0.09830216189564958,-1.0395263532596153
7.4921875,0.7752132620078082,-1.0052684911153513
7.49609375,-2.109268321352847,-1.0451510035047227
7.5,-1.4095616529163038,1.0634665379674153
7.50390625,0.22081761348367454,1.4605942491220225
7.5078125,-0.902133644125756,-0.11954005007001023
7.51171875,-0.15442817286836164,0.2126648159350118
7.515625,1.2520193307144802,-0.024964455948752042
7.51953125,-1.9094769079734073,-0.859865776405986
7.5234375,2.5345047028718874,0.7476042511512656
7.52734375,0.9499565545489229,-0.8935015157429489
7.53125,2.1103570546386448,-0.9579163074405309
7.53515625,0.011172658741901344,0.9060240251420507
7.5390625,-0.032789007600634225,-1.0156190102466547
7.54296875,0.3058988688588587,-0.5668557385898281
7.546875,0.5189086784893399,0.6105919252507482
7.55078125,-0.13850192254672863,0.6945457346951551
7.5546875,2.0685410950423164,0.4641020182390302
7.55859375,-2.2609484676237113,0.24148716754770636
7.5625,1.1495335907391564,2.3268065164936877
7.56640625,-0.5854937004988323,2.102640113096181
7.5703125,0.8859968973542062,-1.3659269770409062
7.57421875,1.7004767551966027,-1.255692876359421
7.578125,0.7556549135669418,-0.1524391945964003
7.58203125,0.4992800161720872,-0.47849584089689173
7.5859375,-1.226934887042097,-0.16829262066555156
7.58984375,1.9298515922713806,0.426017135031945
7.59375,1.018680914884047,0.13125736814437033
7.59765625,-0.5992530582910213,1.5330273709151634
7.6015625,0.23245111278986483,-0.8051637958445305
7.60546875,-0.5349009546360788,0.8869705445318169
7.609375,-1.2130232728374306,0.15773285963556227
7.61328125,-0.7258303432505226,-0.5973830362892613
7.6171875,0.5222179786077561,-1.1760261374354521
7.62109375,1.6415885115245503,-0.5020180551333819
7.625,0.28861808466748046,-0.15567652523594344
7.62890625,1.061546541888703,0.9575635873727704
7.6328125,-0.8262579580131358,-0.556667438043973
7.63671875,-0.4873213388203976,-0.5456787160328509
7.640625,1.509108813529146,-0.4748306282564881
7.64453125,1.7790735716126356,-0.29477890869211243
7.6484375,-1.7097985525925572,2.1957107699314786
7.65234375,-0.06705321280145765,0.44801284864275476
7.65625,0.8293838243533788,-0.12235186978585764
7.66015625,1.3154303701470667,0.9249488840301099
7.6640625,0.04668060659228768,-0.46415936058281804
7.66796875,1.7406768874115324,-0.7569774986803115
7.671875,-1.0944423289024567,-0.27908851346882463
7.67578125,-0.5091730636830399,-0.9563730677463896
7.6796875,-1.4985371274700166,0.6049239564279942
7.68359375,0.1892650452197987,1.3049384322950386
7.6875,-0.22044017259738516,0.5540987939430063
7.69140625,-1.27759487756294,-2.9974794773416122
7.6953125,0.33924396585883754,-1.624007059726218
7.69921875,-0.10977956804457871,1.61753026303711
7.703125,-0.06956540961314608,-0.5560101127264668
7.70703125,0.7536187910586514,-0.9116789806453354
7.7109375,0.4011994530318158,0.22839193124148843
7.71484375,0.7888567705868932,0.2665866752674235
7.71875,-0.8154676173842186,1.174521335568682
7.72265625,1.4503725056417498,0.6069553635550552
7.7265625,0.2892536623476184,-0.18343996689642433
7.73046875,0.18923485218626973,0.4474935835772901
7.734375,0.20366970025791667,0.9942302072303597
7.73828125,-0.4363784783605644,0.8155737714739298
7.7421875,0.8183018137156175,-0.5466991079025277
7.74609375,-0.38118240353026933,-1.0386276118230724
7.75,-0.8900333571901928,-2.0618497782854694
7.75390625,-0.4262364813603113,1.045770160881196
7.7578125,0.8697841853352586,-0.5189396011775483
7.76171875,-0.44471303784929633,-0.39122799628516475
7.765625,0.5804049086674836,0.8898307449342437
7.76953125,0.7502178257434275,-1.0948702671085804
7.7734375,0.7992630658865325,1.2067943422431242
7.77734375,-0.5095699080157813,-0.40380252530411814
7.78125,0.3704376930219655,0.8341852296715303
7.78515625,-0.41934878625353966,0.856159058476637
7.7890625,0.6383276283110227,0.08458820990695688
7.79296875,1.2307287951435049,-1.5837465884925352
7.796875,-1.4778710588550084,1.4243240942923887
7.80078125,-1.6287117979287513,0.15545475862521632
7.8046875,0.3514790951785088,0.09323403970779222
7.80859375,-1.3257180751502313,0.6835967849210136
7.8125,-0.2208230270158485,-1.674751248534085
7.81640625,0.9921077259775765,-0.4835426162705189
7.8203125,-0.26254742121518626,-0.7041327206975522
7.82421875,2.1418303015683837,0.9367127008175445
7.828125,-0.6257762907649473,-0.5922838955634465
7.83203125,0.8498432009173207,0.7113680034747223
7.8359375,-1.2217652679502502,-1.0856125468014304
7.83984375,1.1488806457829666,-0.21211729008243815
7.84375,-0.5246945191379581,-0.7165111443774315
7.84765625,-1.258133509863502,-0.30671063769088175
7.8515625,0.7458190710348963,-0.6547247582415829
7.85546875,1.5365319712436512,1.445806501152008
7.859375,-0.41136078526338465,-0.5634384162763353
7.86328125,-0.9835164991500406,-2.2269503023931034
7.8671875,-1.281973662481411,1.7979253911501745
7.87109375,-0.06577555597376526,0.17172053859076197
7.875,0.4203197275959427,1.465048074440122
7.87890625,0.8732315324576226,-0.2685292604434065
7.8828125,-0.3111958052135058,-0.6007939528992865
7.88671875,0.34711520219398684,0.14094803021615962
7.890625,-0.9037142747293905,0.3396183998629873
7.89453125,-0.3264001986198553,0.0746075027768912
7.8984375,-0.18797183276373242,0.8138856482857925
7.90234375,0.8836902645836862,0.7534165148098765
7.90625,0.1967941001492783,0.7072411407222376
7.91015625,-0.21821391295034304,-0.0847744250288286
7.9140625,-1.4948882207449838,0.5816984147394084
7.91796875,0.13521491204315692,-1.6666435282848757
7.921875,0.14566191088730146,-0.01374056649898558
7.92578125,-2.207229518947158,-0.688635083422601
7.9296875,-0.535683459187331,0.3480520339004426
7.93359375,-1.6109110609340485,0.7553852495770992
7.9375,0.9689485417676149,-0.03125376936594636
7.94140625,-0.16391628435447692,-1.1549891750989583
7.9453125,0.12455323848698312,-0.1692903299079949
7.94921875,-0.8304054511480944,-1.0949861196024662
7.953125,-0.6294052237496718,-2.0497129247769807
7.95703125,-0.309486209697889,-1.0574732489193
7.9609375,-2.027321835411634,-0.893609289355212
7.96484375,0.5233957841137613,-1.005814248001746
7.96875,1.0757901293853127,-0.37338761190528547
7.97265625,2.2510767474423568,-0.5919714003463531
7.9765625,1.2057828602355054,-1.2228675199691648
7.98046875,-0.008571150405128371,0.4941872655325381
7.984375,1.0457694838012377,-0.5182170818441416
7.98828125,-2.142275029319648,-0.22804012220445152
7.9921875,-0.03647083777767083,0.5331627026119241
7.99609375,1.2329053140220694,1.2120194390391565
8.0,0.5590366535747656,-0.6804998250687804
8.00390625,-0.8299527909192674,-0.1405446440430259
8.0078125,0.3584788901224587,0.6969315109295195
8.01171875,1.144320013486382,-1.2482199876465356
8.015625,0.7439606096945067,-1.927088736182532
8.01953125,-0.3608183243429557,-2.9158689032054665
8.0234375,0.585180370188602,0.3542286264200175
8.02734375,-1.1301900906472107,1.5899041819674011
8.03125,0.2746428471932649,-0.11257445647849645
8.03515625,-0.44204305606051003,-1.538414429811065
8.0390625,-1.0989876762533566,0.16669156220857362
8.04296875,0.7479078369825768,-0.29527940922530627
8.046875,-1.2927659598490828,-1.4003992274994723
8.05078125,-1.3236677459434094,1.4875321204607392
8.0546875,-0.4398592821743148,-0.5841580323401583
8.05859375,0.4350066005982041,-0.18669300127086388
8.0625,0.259211095944523,0.626741241495974
8.06640625,0.7857855832794506,0.7148357908537815
8.0703125,0.6504918308656327,-0.7887738112087683
8.07421875,1.0926617666763419,1.1856737751883935
8.078125,0.22376712033357027,0.37012517745482043
8.08203125,-1.1707097463326737,-0.21980265026452833
8.0859375,0.40960992218161324,0.6400186392028419
8.08984375,1.341072801632889,-0.9044588268743318
8.09375,-0.590279975958868,-1.0046003741879834
8.09765625,-0.4681008007276324,0.7038403595396575
8.1015625,-1.1679046191397469,-1.6178757078144925
8.10546875,-0.07168555232293862,-0.6193790387749855
8.109375,-0.36467549854033193,-1.2736726318043392
8.11328125,-0.5664367311707191,1.6772648618104253
8.1171875,-0.20216733567832768,0.7929869253419979
8.12109375,-0.7634107082447225,-0.7741607038039628
8.125,-0.6785685870445343,0.01526913111757398
8.12890625,-0.9349671544002295,0.014111896942768352
8.1328125,-0.10110955011149761,-1.0129270319549333
8.13671875,-1.0669010098891696,-1.4907571122891885
8.140625,0.5718056684854473,0.9403375870007992
8.14453125,2.383874519865657,-1.053584082663566
8.1484375,-0.022836801610114636,1.5479487175794002
8.15234375,-0.038152616595227166,0.45479314332316934
8.15625,-1.0201148065502672,-0.08811706983320536
8.16015625,-0.47277208354499634,-0.6369762175939828
8.1640625,-0.7618002536570262,0.5412210419359094
8.16796875,1.5605143305054756,0.940964615004221
8.171875,0.08665627505619355,-0.09288880832216523
8.17578125,1.9024219388440204,1.4480332891085785
8.1796875,-0.4766904717339791,0.8404006010270185
8.18359375,1.3198202903282867,1.0590946177000589
8.1875,0.225466351859025,-1.2037831900328275
8.19140625,-0.2779629182238303,0.5085389030476642
8.1953125,0.9344173463982479,-0.5225968762188398
8.19921875,0.09259010274221988,0.7836204977868138
8.203125,0.10503635170227907,1.231673272191586
8.20703125,-1.1919626674353672,-1.2976182643006082
8.2109375,0.9550710813926515,0.1791157860902415
8.21484375,1.950795621721414,1.2880127586683594
8.21875,1.4125238584648248,-1.4016130702171266
8.22265625,0.8426217459810923,-0.28065250457954827
8.2265625,-0.15818987426299969,0.8284729176683675
8.23046875,-1.5156766277249036,1.870364032544262
8.234375,0.4804804079230324,-0.5707413997044011
8.23828125,0.7988473010353074,0.4230182853840694
8.2421875,0.22433362814379423,-0.8509800175177042
8.24609375,1.1443706605607644,-0.5482695191712242
8.25,-2.26735045038611,1.2545214534932636
8.25390625,0.5807885232690279,0.5870717789185143
8.2578125,1.008384614360869,-0.2177650550270527
8.26171875,-1.1019957653188002,0.31529338797894657
8.265625,1.3264058005785044,1.5387996259601187
8.26953125,-1.0664426014739603,0.8727632018989402
8.2734375,-0.21321432962372538,0.37958850414570877
8.27734375,0.7368516964317112,-0.672921018219045
8.28125,-0.2691182871710997,1.053327835499907
8.28515625,1.5617741748415521,0.7780920486280501
8.2890625,-1.7651828244490733,0.7705234156167463
8.29296875,-0.7696662101863426,-1.3273294409315217
8.296875,-0.021143061230626512,-0.12957730984269333
8.30078125,-0.529847418952542,-0.25080152692581176
8.3046875,-0.12881060253120916,0.9077524736364366
8.30859375,0.4420006247794326,1.0905690698117612
8.3125,0.07814294267352632,0.9300160764898758
8.31640625,0.6299184834629465,0.33705082750229415
8.3203125,-0.2285572849494126,1.021857900264558
8.32421875,-0.32898714375515475,-0.4866709756686612
8.328125,-0.6871765196739362,2.6813521957445925
8.33203125,-0.1890236523693833,-0.5721046144603945
8.3359375,1.3839258566474861,-1.8374583269590223
8.33984375,2.5633093528632753,-0.058347523829076486
8.34375,-0.24738560372707377,-0.5186930200478179
8.34765625,1.1674950474796155,0.6086728831463968
8.3515625,0.048959773601899625,-2.3853520117477984
8.35546875,-0.7442258325576228,0.3680720968435069
8.359375,0.5461210462730564,-0.23315426292817854
8.36328125,-1.4409369868023931,1.4079225691224349
8.3671875,-1.5286348897585758,-1.174172452834424
8.37109375,-0.3885626891452251,0.4028034248691355
8.375,-0.8148048937942262,0.15112882604979497
8.37890625,0.5325043088111509,-0.8131700312850473
8.3828125,-0.0587117931654964,-0.7421423814930045
8.38671875,-0.5669726743646,0.6052260521459186
8.390625,0.7088292149049253,-0.5152823488189734
8.39453125,0.5567822831224589,0.20978836544220988
8.3984375,-0.7344574237858483,1.0934211626655994
8.40234375,-1.6084753850674067,-0.47170868218235756
8.40625,-0.6450849563830846,-1.068810327943979
8.41015625,-1.3442525132257803,-0.0174246837709439
8.4140625,-0.5224439006744319,0.15202298975039527
8.41796875,1.2097759874996248,-2.1502674204156182
8.421875,0.029808833563313087,-0.1936365083340838
8.42578125,-0.012760224311154755,0.08714541697912961
8.4296875,1.5271443133510383,-1.1923344304957757
8.43359375,-0.022037199199556334,0.394818567714064
8.4375,-0.6703497670019433,0.5958560515128453
8.44140625,-0.5565276063846883,2.118906921437781
8.4453125,0.021826715560336718,0.06997101725915936
8.44921875,1.3033122238348491,1.5275585148412594
8.453125,0.5599388237782581,0.647191936736255
8.45703125,-0.3423030161202192,0.028845424146116547
8.4609375,-0.047233473964952886,-0.33746992367843776
8.46484375,0.38705790112686633,0.9628565274689137
8.46875,-0.08329617039814248,1.9524674003518756
8.47265625,0.6791567506858159,-1.230899000314003
8.4765625,1.096536619255057,2.250698444316075
8.48046875,-1.2529226198710648,0.4900866565583872
8.484375,2.2273008692115024,-0.08181290025365541
8.48828125,0.24817381915707235,-0.3559719831128967
8.4921875,0.9522683594404546,0.8746782119233312
8.49609375,-0.334660568709822,1.0606006932792786
8.5,-0.8435286210524049,-0.18868907224302048
8.50390625,0.9907641596053486,-0.29715236420319013
8.5078125,-1.2460204837116469,0.5461855743160732
8.51171875,-1.0732050610555852,0.1891540067480045
8.515625,0.03478424524753081,-0.011852705683666483
8.51953125,-0.7424506103344412,-0.9298091555582536
8.5234375,-0.3951333883310555,0.3555847190685724
8.52734375,-0.6377691386622885,-0.04691564199884801
8.53125,-0.4418613671229499,-1.0825241039410172
8.53515625,-0.6903660711597558,-1.008405012644506
8.5390625,-0.480015342457763,0.4767348885671567
8.54296875,0.889232137280814,0.04044290818313558
8.546875,-1.4217160831061042,0.7392104555306023
8.55078125,-1.0511767682055313,-0.3117851237989579
8.5546875,1.4472592611927688,1.6783654256197555
8.55859375,-0.5987166631641512,-0.8294534784196016
8.5625,-0.09793336241709158,-0.817829145384794
8.56640625,1.8066589146396264,-0.1079154459142141
8.5703125,-1.2187904658788442,0.49874089608216754
8.57421875,-1.1243595764274452,-1.3191313267456979
8.578125,0.040764776212768944,0.9614489485313696
8.58203125,0.37637260980044607,0.3151404716889428
8.5859375,-0.9696757833232572,-1.6796904622468847
8.58984375,0.4961109722671882,-0.47501395704689825
8.59375,-0.3064898865267864,1.4870084261434404
8.59765625,2.4045777091930285,-1.9892968603093628
8.6015625,0.5465532022771428,1.5709872174791668
8.60546875,1.4898310213563286,0.9868679997091209
8.609375,1.4011177067428937,0.4078201311345734
8.61328125,-1.3906907322528033,0.764355645892597
8.6171875,0.31056026590099367,1.5526664545054532
8.62109375,0.4224431429988489,-1.800456441272722
8.625,-0.18709422984977686,-0.512186131279953
8.62890625,0.13388285208424827,1.7957264544999545
8.6328125,0.4989037456916598,0.04358417891745662
8.63671875,2.8468877574951152,-1.6669462405624036
8.640625,0.2439790582083602,-0.4712419080107221
8.64453125,0.34191898607848975,-0.5875897299959725
8.6484375,0.35272441668729704,1.382954809359907
8.65234375,1.022291255072977,1.260704025981509
8.65625,0.46523469264512396,-0.906436828774234
8.66015625,0.28977662000439464,1.197177385996436
8.6640625,-1.0039601370811935,-1.7132968470161407
8.66796875,-1.3507341632819556,-0.7452220762715922
8.671875,-0.6150942826721706,-0.231245523732206
8.67578125,-0.06028551616621605,0.47208602284125034
8.6796875,0.9770674182054615,-1.4654259060551338
8.68359375,-0.4691590251525033,2.453037655987356
8.6875,-2.307712653169566,1.057088019541526
8.69140625,-0.5240941466903981,1.7773112859465752
8.6953125,-0.3500504409966986,2.019619105802856
8.69921875,1.6469060495779757,-1.0886119282281852
8.703125,0.20575104384824783,-0.5546985274709063
8.70703125,1.5668692360003798,0.36268812222226193
8.7109375,0.9520369823894591,-2.1296389912795095
8.71484375,-0.4976646133872189,-0.40830912998469365
8.71875,-0.29784819170589516,0.13079870191854467
8.72265625,-0.05398295297878088,-1.3011103263560244
8.7265625,0.8020816376222544,-2.1094870895614592
8.73046875,0.9880008536693822,-1.0966814520528942
8.734375,-1.8581606955191212,-2.2975337446762256
8.73828125,1.5712894634122592,-0.9562820202421023
8.7421875,0.40162908466653924,2.477944091041015
8.74609375,-0.2185717370713775,-1.238434409169677
8.75,1.5234133770355163,0.2586768240561462
8.75390625,-0.15952906009850829,1.4066910726931374
8.7578125,-0.08091338599234131,0.9075232469725876
8.76171875,1.7789174415909739,-0.6115852686169413
8.765625,2.390045835089639,-0.27398949549160023
8.76953125,-1.16147893102738,-0.45194889283383877
8.7734375,1.0498522772695256,0.11199092274623647
8.77734375,1.8181038645447658,-0.05123883753429657
8.78125,0.3762191403755538,-2.365682829377617
8.78515625,-2.1011296570385043,-0.24358260496444176
8.7890625,-0.4732288438220884,1.0635299255249713
8.79296875,-0.26379392817702985,-0.44840296828550585
8.796875,0.2521055265353945,-1.2524099448757064
8.80078125,0.5959270010151946,-0.9157476360471494
8.8046875,-0.5020121627455814,1.1283996062613524
8.80859375,-0.43320368600532616,0.7165956307796238
8.8125,-1.7329671456039055,0.27905819416336125
8.81640625,0.8155917661720054,2.888170213515625
8.8203125,0.24387288771645374,0.30261093016749346
8.82421875,0.04942904561261713,0.5915529023120787
8.828125,0.7934739984393927,-1.525359311387141
8.83203125,-0.30031957211888705,0.30126708313197714
8.8359375,-1.0309380405057087,-1.0979279053967865
8.83984375,-1.370524010287308,-0.2995115357002678
8.84375,-0.27419952244801077,-1.2882167864569134
8.84765625,0.8051214658562379,0.28657452308832554
8.8515625,-2.406061126589086,0.36811035913400714
8.85546875,0.27619721955818677,-0.33257852552820083
8.859375,0.6215777371918724,-0.7510334546393643
8.86328125,-0.8429981474670702,1.638661341412047
8.8671875,-0.17188066505464536,0.825583320448558
8.87109375,1.31085106392275,0.38981246620088494
8.875,0.7768174030049101,0.9248066208584211
8.87890625,0.1720011426071082,1.5172983323938345
8.8828125,0.5361831084326248,-1.975755058939121
8.88671875,-0.4732098349348476,0.4286777377781479
8.890625,-0.04627996669116494,2.932336469234667
8.89453125,-0.4483125911175769,0.7893481116026876
8.8984375,-0.4256005416297407,1.2785803486826395
8.90234375,-0.7711568965524979,-1.074500545507056
8.90625,0.7481229136282578,-0.21781253371059284
8.91015625,0.8935989673255452,-0.9774907578655085
8.9140625,1.1599720821574795,-0.6836976178259595
8.91796875,-0.8886970133929254,0.9623146875550279
8.921875,0.2673494183430041,-0.9747370315684252
8.92578125,-0.3420638892412607,1.3876788948574115
8.9296875,0.4636810038067719,-0.30069967819575155
8.93359375,0.5393678135099529,-2.5371228725330934
8.9375,-0.0038484462135730886,0.5154092310687388
8.94140625,-1.1189499305403232,-0.5492878763155611
8.9453125,-1.9089646868523826,1.7194999453390252
8.94921875,-0.15637373862705353,0.16109037860909076
8.953125,-0.29797851195207053,0.6493685094911007
8.95703125,0.5902868180391742,0.3398828433700405
8.9609375,0.39489441052634217,0.3154065040843669
8.96484375,0.5363615929425113,-1.2406918465018717
8.96875,-0.32632270791655255,-0.17837385763380179
8.97265625,0.8857490770666395,-0.40941270532561175
8.9765625,1.195874636035247,-0.5457469122286338
8.98046875,-0.783375265099945,1.6207171233473838
8.984375,1.3311457401976712,-1.0651386247372945
8.98828125,-1.7245936416968022,0.39667120561489977
8.9921875,-0.3000256827374746,-0.5244923337643154
8.99609375,-0.329528839243199,0.3129992844134304
9.0,-0.01917627728369574,0.17785772184258533
9.00390625,0.8091751802542542,-0.19684016149497569
9.0078125,0.34213856764499156,-0.43632616910803407
9.01171875,-0.282035583901375,-0.8370743203356119
9.015625,1.1330339217636134,0.3635150707793251
9.01953125,-1.3174692577739455,0.7834531454598288
9.0234375,-0.8593022123441652,-1.645444155646105
9.02734375,-1.0235020509654624,1.3566325826614027
9.03125,0.6691434223500572,-1.0528955641982556
9.03515625,-0.2911833203310528,-0.36753394823076235
9.0390625,-0.7486650478973425,1.1398006560357157
9.04296875,1.3065383014460197,2.3768251416353183
9.046875,1.566472266700345,2.6504560567749724
9.05078125,0.3101004342326483,-0.024957458623167103
9.0546875,0.6243706454018007,-0.6307259368768092
9.05859375,-1.317966012402676,0.8735056517598823
9.0625,-0.08312411870143936,2.8723250841618313
9.06640625,0.10853210243450095,-0.08800652992246165
9.0703125,1.7359633068155027,0.1833576118429587
9.07421875,2.4126632910542782,-0.23576488026767575
9.078125,-0.5818930124033513,1.1824069481436053
9.08203125,0.3841108897875437,0.7327433839319961
9.0859375,1.6696643076354494,-0.11171797608169651
9.08984375,0.5405868414546082,0.9444411421652287
9.09375,-1.2040727988174182,-0.893448596206324
9.09765625,-0.9151960912049278,0.05450267462468945
9.1015625,-1.3904942204290835,-2.036881020003143
9.10546875,0.5033910262107567,0.49832560857262426
9.109375,-0.8432285494089314,0.45227478862904646
9.11328125,0.1731186679515526,-0.6454427851414543
9.1171875,-0.5936422674617219,-0.21593143803071116
9.12109375,0.32088491242344985,0.5009106313317943
9.125,0.08340634882265914,-0.7024416126242881
9.12890625,-2.7184073371882698,0.23762125341995513
9.1328125,0.43246517837061405,-0.1788904417950285
9.13671875,1.7122960366944397,0.5330167181235682
9.140625,-0.13534183765074626,-0.6401016170057544
9.14453125,-0.16936320108464434,1.3309705822931306
9.1484375,0.09824914241021374,-0.18443093357294876
9.15234375,-0.7766921086128732,1.3342395566051914
9.15625,0.3804829133368432,-0.054838358795336065
9.16015625,-0.6432735403666562,-0.34207512726259104
9.1640625,0.2697507798297316,-1.1724930728192338
9.16796875,0.017983630550637206,1.919233270322069
9.171875,0.45612022523484286,0.22260688316197008
9.17578125,-0.6806877861738335,0.29537689517226795
9.1796875,-1.4873420054244164,0.43271617431343457
9.18359375,-0.745468111045399,0.42582336963829287
9.1875,0.358045641836092,0.3932250468569619
9.19140625,-1.3917572979874282,-0.11376702350338536
9.1953125,-0.7490526317644453,-0.3633435902714041
9.19921875,0.7213882670547223,-0.3498700918934876
9.203125,-0.9647149715953609,-0.46587477616142703
9.20703125,0.13894530527367938,-0.8313959570780611
9.2109375,-0.28189921391393513,-0.42828556528775585
9.21484375,0.32852289186304223,0.3507694714670924
9.21875,-0.20526886663532312,-0.05043967716728774
9.22265625,-0.21297782348279054,0.6670362920133365
9.2265625,1.1339636425267396,0.49849082153194596
9.23046875,0.4734962358451299,-2.0510396917687013
9.234375,-0.45521620347611713,-1.63630138884593
9.23828125,1.5899515492472223,-0.5034913958496138
9.2421875,0.7019053448833401,1.226900417475322
9.24609375,-1.7187175714111274,0.2936922510808048
9.25,-0.3115913177337155,0.7354510751802275
9.25390625,0.03160945454271025,0.9107669821499169
9.2578125,-1.4664835863755181,-1.265201112045435
9.26171875,-0.27277122243916874,2.5691725641505476
9.265625,0.10567217974721994,0.7410005534685943
9.26953125,1.9818108971435304,-0.13446450557669937
9.2734375,-1.6616298751511975,1.580409289578574
9.27734375,1.3212728611784919,1.2470070279192882
9.28125,-0.0885993671650458,1.5992257210305862
9.28515625,-0.3065896824726261,1.6571621467407578
9.2890625,-0.6462780125365468,-0.8702617139975574
9.29296875,-1.0178366587166783,-2.547294573181143
9.296875,-0.42072224353631066,-0.04932013930038588
9.30078125,-1.3539547445091278,-0.8769415837289578
9.3046875,-1.780911528828503,-0.4064593667835995
9.30859375,-0.1087202383503,-0.8239474146700675
9.3125,-0.07563301099728485,-0.36440531887093147
9.31640625,0.7578558397429759,2.4116676094744403
9.3203125,-0.5758397317006,0.5473929397732293
9.32421875,0.5668463164925966,0.2509402851733892
9.328125,0.8900490820618213,0.6258324555835312
9.33203125,0.310161949411133,1.4392266542688632
9.3359375,0.6134439705498766,0.8110643611624804
9.33984375,0.2522836829480883,0.2071417886689264
9.34375,1.405575230898721,0.4038218794045025
9.34765625,-1.3611790872249683,0.4176577570642479
9.3515625,0.9329790541237157,0.6416188839127906
9.35546875,-1.0533546826122806,-0.8631465780793366
9.359375,0.20637298474533305,0.04847285061455707
9.36328125,-1.6568313694264156,-0.7984017223382576
9.3671875,3.8036954026742738,-0.8116824519544342
9.37109375,-0.44762616819413464,-0.21320981288527605
9.375,-0.8238372623540742,-1.0075067102571664
9.37890625,-0.3896198080271514,1.2577947005885715
9.3828125,0.6273086249073228,0.42566278187816176
9.38671875,0.17333258151200606,-0.61819713021468
9.390625,0.6527824333231811,1.5731481759988977
9.39453125,1.5966418309052943,3.1040247857577326
9.3984375,-0.38381905259893057,0.9730096250242456
9.40234375,-0.6932915060233472,-1.8214073283871395
9.40625,-0.2960419770703528,-0.3645959779268173
9.41015625,0.049616959837904526,0.31706613789134175
9.4140625,0.7168136984383222,-0.18268496407665263
9.41796875,-0.2269405527658716,0.4188865527746469
9.421875,0.9085454475488672,0.14324947731431079
9.42578125,-1.3390264005509114,-0.9610971185988297
9.4296875,0.514306654614347,-0.05367937044992266
9.43359375,-0.928508501846076,0.07770394340296514
9.4375,-0.9916161888555378,0.20751927957856564
9.44140625,-1.111078281194454,-0.15798086263498692
9.4453125,-0.3878997861432041,-0.6126127586686179
9.44921875,0.539158405018648,0.5108193013406516
9.453125,1.2825488483201777,-1.8519937084404394
9.45703125,-0.7282039341288443,0.8001868708231312
9.4609375,-0.45040360581199224,1.0198491354294217
9.46484375,-0.4724222388610291,-0.16848996449786846
9.46875,-1.7724766575735933,0.4091819344096419
9.47265625,-0.9430173715183593,-0.4473699356415364
9.4765625,1.5298767124029153,-0.21836945154349394
9.48046875,0.03774431595510925,-0.6843303230513141
9.484375,0.4605173485127022,1.8821850102443944
9.48828125,-0.30210376839812453,0.5806032599669829
9.4921875,-1.2719005460923538,-0.5296442141102462
9.49609375,1.7398624762897377,-0.7849964261849901
9.5,0.18112977639715916,-0.9400673821954135
9.50390625,-0.1620324705356673,-0.8306287971808647
9.5078125,-1.3676778995062704,1.4653039101478
9.51171875,0.7479663810554488,0.5305753502663018
