time,ecg,ppg
0.0,-1.4284759993416092,0.682652653707782
0.00390625,-0.9965812399340374,0.014230696719153755
0.0078125,-0.3999537507348425,-3.7621036803856214
0.01171875,-0.07039884349313331,1.85572023613549
0.015625,-0.4239944308219624,1.9594876190536155
0.01953125,-0.0982668804996574,0.9272944365669623
0.0234375,0.4913352058272026,1.5480144127366446
0.02734375,-0.6814220568475761,0.11001111272629213
0.03125,-0.23080799348332173,-0.6112857446334135
0.03515625,0.3962725670677067,1.5193410500640874
0.0390625,0.7304936793492461,-0.42037928801765484
0.04296875,-0.15999216765182656,-1.945664040820807
0.046875,-0.029648660585098605,0.48444954264891427
0.05078125,-0.39672738596051277,0.1560586272605238
0.0546875,-0.6970677622813911,-0.6766385609116997
0.05859375,1.40302063638219,-1.5979568219530667
0.0625,1.1826646989838658,-1.270354128397598
0.06640625,-0.20008887590144794,-0.5635080604957104
0.0703125,0.7507602918396051,0.6626057226390701
0.07421875,0.9205541793760461,1.9561724695901603
0.078125,-1.2803500506537866,-0.3004235881824
0.08203125,-0.3207555625849859,-2.3650753370332573
0.0859375,-2.1193107468669523,0.546398804479091
0.08984375,-1.3032248681290057,-2.0904099700482153
0.09375,-1.3495683773347886,0.2582702818022747
0.09765625,-0.2802024443509918,-1.085999199386852
0.1015625,0.19630575539649855,0.2323746747614472
0.10546875,-0.5271125438286031,-1.4747328924643852
0.109375,1.551848427097723,-0.6247023610013366
0.11328125,-0.3758511451596004,0.4953492578493378
0.1171875,-0.6209309547901497,-0.2023308842458656
0.12109375,0.5199898400121071,-0.6127619817351239
0.125,1.0531182162551231,0.1472840230365978
0.12890625,-1.8088652555044578,0.44164403960113896
0.1328125,-0.3173041505078103,-0.019298739646084258
0.13671875,-0.7573513509943073,1.4729155206502842
0.140625,0.04023974491782804,-1.2603169208960174
0.14453125,-1.9445307307041724,-4.253489060070082
0.1484375,0.4787974640308866,-2.075583735364206
0.15234375,0.10201066348927865,-1.5434269137644019
0.15625,-1.732735586204329,-1.0530873056683545
0.16015625,-1.3691195575597166,-1.0905609509587737
0.1640625,0.11693006057723816,0.5025368208987067
0.16796875,-0.2706616360982442,0.40503629765768834
0.171875,1.476804749144183,-0.9572674099843319
0.17578125,-0.9126289384432853,0.772850815948313
0.1796875,0.5567834179155725,0.7674021558284589
0.18359375,0.05094870257802715,-0.4058545689444736
0.1875,0.4143231742935026,-0.08558990136703594
0.19140625,0.4023200082402183,-1.106856830825262
0.1953125,-0.4091420423812351,1.1249890705728218
0.19921875,0.8301734062392133,-1.9781847898610978
0.203125,-0.5732752081275048,0.3203105900461813
0.20703125,1.698071267136523,0.32753301535990714
0.2109375,1.5495603982531994,1.005468204204241
0.21484375,0.12272787745404141,0.3942105688642778
0.21875,-0.49518554589697567,0.5607510487961569
0.22265625,1.5656543030518926,0.6556312221380706
0.2265625,0.3101442885496103,-1.8324728580832028
0.23046875,-0.9013215195011676,-1.066937539713323
0.234375,1.060558126852035,-0.7651345129429798
0.23828125,0.779782704473709,0.7118951639472006
0.2421875,-1.6365639487826937,0.358230945919395
0.24609375,-1.043268479485953,0.7630342260319477
0.25,0.24860164444588892,1.3491192239720478
0.25390625,-1.3305153971760149,0.5951927006460869
0.2578125,0.13380652096128345,0.5836515550725394
0.26171875,-0.3369885467339933,0.7146666190440315
0.265625,-1.35479500438614,-0.537804865733807
0.26953125,0.014971485986538866,-1.216881410489339
0.2734375,-0.18870134432449553,-0.1522414466471915
0.27734375,1.002916457142442,1.077405774345865
0.28125,-0.49483638498163723,-1.7495467913663092
0.28515625,0.45573020647834367,-1.094769168933764
0.2890625,1.463288088915132,0.326370750351635
0.29296875,-0.7186764842112154,-0.3744031115187663
0.296875,0.6232436430927563,-0.4547226298694161
0.30078125,0.375408991861937,0.7185024016858177
0.3046875,0.38991478689280734,1.091537416500504
0.30859375,-0.6389643070153253,1.1555106593878999
0.3125,0.22999423774961217,-0.21866204240097023
0.31640625,1.0641375274268718,0.6866769000529978
0.3203125,0.10228605812288685,-0.9241304488112717
0.32421875,-0.07789328471476022,0.09620356182186945
0.328125,1.488674690250084,-0.28207114259577964
0.33203125,-0.17946013459505267,1.662911876897718
0.3359375,0.8775169225594677,0.2433927836548549
0.33984375,0.9827507128768662,-1.272005048962165
0.34375,-1.3946759692225599,1.3114581532511131
0.34765625,0.15777969409664802,-1.3564951408384178
0.3515625,-0.5037313014800561,0.020171839457911737
0.35546875,1.503214624596366,0.06868309215662484
0.359375,-1.5430935070029608,-0.021310332090242714
0.36328125,0.6212769242148577,-0.7931660635249709
0.3671875,-1.5631512746757272,0.13964502924649844
0.37109375,1.1254639989430768,-2.742107824061087
0.375,1.0140248754280503,0.31531263894830125
0.37890625,-0.7219975786722421,1.621215605102873
0.3828125,-0.042357439808036794,-0.9263835336269509
0.38671875,0.9242820050976068,0.7025901449107245
0.390625,-2.5680600948726253,0.30143954293431613
0.39453125,-1.5602539771052348,0.47218372648444323
0.3984375,-2.188718215420178,-0.5834279583963892
0.40234375,-1.616468958946187,0.12714521182332825
0.40625,1.1668529922620694,-0.22280901286170157
0.41015625,1.15183812423838,-0.2973978910305541
0.4140625,0.5695918782861792,0.9534812174637921
0.41796875,0.5697932724369801,-1.1834232249038648
0.421875,1.0065216684841678,-0.01830704196451213
0.42578125,0.1211091970796382,-0.09826456855876804
0.4296875,0.07727283654829678,1.2166437086518709
0.43359375,1.2629190034917754,1.1051273060369486
0.4375,0.8499794146803323,0.5674794063238273
0.44140625,-2.087329786470427,0.6007356535018888
0.4453125,-0.5998689443192062,-0.4172198915155885
0.44921875,-0.31027984672107795,-0.44259912560836945
0.453125,1.2999892842567133,0.9749075406239002
0.45703125,-0.2169124970050441,1.759277484357218
0.4609375,-0.5473785934815564,-1.2716633618106217
0.46484375,0.1842380020744839,-0.026581432641985994
0.46875,-0.13454294855730278,-0.14992192749757263
0.47265625,-1.0002938586622845,0.26839818145996924
0.4765625,-0.4733518572081096,0.2629555337581252
0.48046875,0.2945750994840622,1.2514579952944616
0.484375,-0.13629539353300454,-0.18128973707068494
0.48828125,-1.6391644237989171,-1.8155978358473426
0.4921875,0.3980001297209157,-1.810192802389194
0.49609375,-1.1420926374692548,-0.5311651008079403
0.5,-1.2066648316054398,-1.0067138953200685
0.50390625,-0.40340710273440117,0.7577241386698553
0.5078125,1.3340287885529611,-0.885493956009866
0.51171875,-1.951272626128246,-1.091604823345406
0.515625,-0.5045426518025555,-0.3240060960770624
0.51953125,-0.12923883417277923,0.19148679272642832
0.5234375,-0.2870069830381469,-0.07748328403740581
0.52734375,2.239785838064429,1.3612769006240244
0.53125,1.9168941699259032,-2.2221789226624598
0.53515625,-0.9373833863461315,-0.40186723863862134
0.5390625,0.38739530993903887,-0.4279642216284767
0.54296875,-1.4489594509976038,0.6072160325680535
0.546875,-1.0334861006559959,1.2691806388786164
0.55078125,1.4149684894113241,1.1289685665991545
0.5546875,1.3252739743564121,-1.6346174788644057
0.55859375,1.1590296805718123,-0.6377883785199738
0.5625,0.22881176026980624,1.3644873875507784
0.56640625,2.1425134760588356,-0.09233098722132618
0.5703125,-1.3290608466354967,0.860871534264342
0.57421875,-0.033246632575665805,1.8834086131846832
0.578125,-0.6289155088956737,-1.0883926134536481
0.58203125,0.1100738246613784,-0.9031389583351164
0.5859375,0.8151609440585765,1.6985482719579905
0.58984375,-0.06569772403711531,-0.6540546779846602
0.59375,-1.4805525648691633,0.9598866292021369
0.59765625,0.3124480385011093,-1.1103081638165426
0.6015625,-0.16026377042138532,-0.9041177863854466
0.60546875,2.0140793595677122,-1.5753265627373605
0.609375,-1.4806621978158998,0.47164146000338586
0.61328125,0.5376533684570531,1.4409736863464702
0.6171875,2.3889902780415,1.5243695715041596
0.62109375,0.2331983718629528,-1.1850833307836357
0.625,-1.859776419193157,-0.2589169199129019
0.62890625,0.5818620543081395,-0.2534325351825641
0.6328125,-0.09642307164237435,1.0232613124315666
0.63671875,1.195610627514863,-1.593046974161857
0.640625,0.31545875101379134,0.37324824927275324
0.64453125,-2.079548217285976,0.29383522959179637
0.6484375,-0.0428808672676114,0.149641585645288
0.65234375,-0.9823442309445598,-0.9124520531115641
0.65625,0.011490908863496177,-0.4321060790467353
0.66015625,1.1273360374465498,0.12329556480665202
0.6640625,-0.13124720790246572,0.6896769337498027
0.66796875,1.3956377563799147,0.4827862861954673
0.671875,-0.4602745644466293,-0.4380415453507226
0.67578125,-0.8006348126292613,-0.8596099656150616
0.6796875,-0.43746935900227224,-0.2559159665990287
0.68359375,-1.1199772282148555,-1.4897155851955064
0.6875,0.8320218599117396,1.408208364241564
0.69140625,-1.2582507397808023,-0.12118078241181798
0.6953125,0.0217582303076084,0.1383261290121802
0.69921875,-1.081595873076372,0.41037090387060615
0.703125,-0.11650172467356862,-0.20004760388647366
0.70703125,0.4651343585447874,1.7440255119339203
0.7109375,-2.5569113805230215,0.13066727935102346
0.71484375,1.1935926310693896,-1.0953733689322525
0.71875,-0.8188672187933195,-0.8129349350426679
0.72265625,0.10372789268861168,0.21460351058220173
0.7265625,-1.0986638836638227,0.8912381691966365
0.73046875,-0.7380842720714872,-0.34176383216934575
0.734375,-0.03489483018193842,0.13201389762841748
0.73828125,1.7308353395652232,-0.11202909247975064
0.7421875,0.18338904204378398,-1.0405783706406548
0.74609375,-0.9528787398237508,1.3489251874148085
0.75,-1.4323166546727726,-0.16943730493467904
0.75390625,-0.6341929206214879,0.41427935799330573
0.7578125,0.36480000705990223,-0.944574573398067
0.76171875,-0.5408019600559087,1.0150212055063013
0.765625,-0.5537994832342636,-1.992442407626794
0.76953125,-0.7730260009207317,0.009817732032883173
0.7734375,0.46847338832547586,-0.7132463953308842
0.77734375,-0.11624905792895454,0.7476217244019172
0.78125,-1.1198555435202417,-0.23752224821814794
0.78515625,-0.39108586489541697,-0.9801137907170108
0.7890625,1.2283736470264062,-1.5283688130931512
0.79296875,-0.1088896143496243,-0.18113488428760602
0.796875,-2.1186786631553867,0.019257287956063997
0.80078125,-0.025553178296682463,0.2159188634230987
0.8046875,-0.2444032080585737,0.12944440373841218
0.80859375,0.07247710552347793,-1.600632143834916
0.8125,-1.2168960651968197,1.023801642074533
0.81640625,0.3606504509160453,-1.5150804521121064
0.8203125,-1.0167482883507883,1.4908741201831446
0.82421875,1.025627328679268,-0.824631191643173
0.828125,-0.931065907240367,-1.1834718621325007
0.83203125,0.12131467127918559,-0.4598992817765078
0.8359375,-0.4760351278950337,-1.7449343715445254
0.83984375,0.6135148327655904,0.9950092648896421
0.84375,-0.3495321261646677,1.0130268756057734
0.84765625,0.059822981812597695,0.6285852270198371
0.8515625,0.6445821321016046,1.6242714753101253
0.85546875,0.599615105247583,1.1076958393897183
0.859375,-0.5996056505062144,2.446990902632359
0.86328125,-0.1782180145837465,-1.1156010590966925
0.8671875,-0.7506408467777812,0.0964001912264493
0.87109375,1.1484390176825385,-0.5561245566474817
0.875,1.7375955974564181,-0.23459294702534367
0.87890625,0.8750513144366916,-1.4650407624163564
0.8828125,0.017057204804338796,-0.35712702852027395
0.88671875,-0.47962723925746875,0.14114085238960702
0.890625,-0.207975906540516,-0.8587260224177159
0.89453125,0.08480759651861587,0.049055734119105625
0.8984375,-0.790508374861473,1.502756901101204
0.90234375,-0.7114143206027002,1.0564163825947792
0.90625,0.2992196664027327,0.44874912475806944
0.91015625,0.4616923019444966,0.7962479518617673
0.9140625,1.0232885165702115,-0.22779296461907694
0.91796875,-1.7483923935078436,-0.730960080200727
0.921875,0.1609385912731828,-0.09804321745729007
0.92578125,0.025610244030832934,0.47733040937858395
0.9296875,1.7212940234841687,-0.960493616910527
0.93359375,0.5218972154378898,-0.11557150669459984
0.9375,0.09203689597641865,1.0351379007673553
0.94140625,0.058362248022713115,0.7452452951440679
0.9453125,1.5907701606709497,1.3265872026444911
0.94921875,1.7457056093776278,0.8392542070062866
0.953125,1.014501048124911,-0.6073515150209594
0.95703125,-0.003429900998344668,0.8409842111909976
0.9609375,-0.15894181898837806,-1.4427404415618625
0.96484375,0.2810256009778176,-0.04091470524767933
0.96875,1.1086546530984613,-0.781042640991072
0.97265625,-0.8241121619731306,1.5465210316437168
0.9765625,0.82679166461301,0.5009075542629776
0.98046875,1.1727384774142902,-1.1500299702046826
0.984375,0.37602766506908986,-2.2541012062392025
0.98828125,0.334453503820851,-0.47704332338113575
0.9921875,-1.28580232814471,0.25319703079089473
0.99609375,-0.051289132289681766,0.15996782322988912
1.0,-1.0404067016441474,-0.5584954992888499
1.00390625,-0.6255209328515747,-0.6149088238178846
1.0078125,-0.7307850747020636,-0.5905228128451221
1.01171875,0.6904519890872454,0.21852463929902335
1.015625,-1.1205118646209749,1.5430743202660795
1.01953125,1.7727615423708272,-0.5842384824878649
1.0234375,1.361704615607134,-0.5439447481794085
1.02734375,-0.08937412792879137,-0.609703697533054
1.03125,-1.8764474335468857,0.23300744650528296
1.03515625,-1.447169999648935,0.2717096532126164
1.0390625,1.986534172241252,-0.03192950115962552
1.04296875,0.24027067155505757,0.0694168886385932
1.046875,-0.37550173868135345,1.260416216797978
1.05078125,-0.9074878735608728,0.36227541064924196
1.0546875,2.2345348984260447,-0.770211319668571
1.05859375,0.15669272393526687,-0.40506295568099004
1.0625,0.7272340588112508,2.149930798615181
1.06640625,0.9755497514542836,0.03666282055157787
1.0703125,1.2466183353519382,-0.00011335971923809013
1.07421875,2.027449186085965,0.5714958243718578
1.078125,0.7974106183875757,1.694079209663297
1.08203125,-1.5087797931467093,1.2841404414215427
1.0859375,0.7883363131897895,-0.1650006185867684
1.08984375,-1.2002944291069702,-0.8487759346024091
1.09375,-0.6451122001352424,-1.5709629902749451
1.09765625,1.032415689400234,-0.7123359022517151
1.1015625,0.8672912297911024,-1.7760884134524442
1.10546875,-0.4500265965260737,0.47825908095244635
1.109375,-1.4472860102298455,-1.4078982622672092
1.11328125,-0.4410844056406721,0.6692516293157443
1.1171875,1.7426088467063696,1.0580416821960659
1.12109375,1.3645047437602473,0.2965449828288486
1.125,0.8938874231630454,-1.6537389366105129
1.12890625,-0.8237040734083257,0.7486712045405638
1.1328125,1.7064505937971004,1.6084052363713381
1.13671875,-2.4245526767237333,0.4169121179751409
1.140625,-2.017276584560413,1.2248098845229702
1.14453125,-1.0534635413861193,1.9002959750966948
1.1484375,0.17824474714377508,-2.502123367001232
1.15234375,-0.10599083410525363,-1.021549214721123
1.15625,-1.7467932780670234,0.10489483419465072
1.16015625,-1.0662167102538123,1.4666300998645592
1.1640625,0.44417954093303336,1.6213632911315121
1.16796875,0.3091116452197496,-0.9841250418515364
1.171875,0.04553455666389193,0.05610140958898336
1.17578125,0.5507702134870632,-1.0505245264435266
1.1796875,-0.6421250631593688,0.38980923106014936
1.18359375,-1.3997650712518304,-0.9065740050005029
1.1875,-0.190825254534432,-0.07014737740037569
1.19140625,-1.3415345624939286,-1.2347571622286173
1.1953125,-0.5962435083639319,0.3198525968003205
1.19921875,0.7394980534666514,1.011631691159572
1.203125,0.0696256189836728,-0.03259380535745899
1.20703125,-0.6293424269818443,-1.1449647596394332
1.2109375,-0.1565060173647206,-0.05494257324400601
1.21484375,0.35849252384480457,-0.7531877538660084
1.21875,0.5803623717520812,-0.6438121286210909
1.22265625,0.7344408480892263,-0.6024912106398511
1.2265625,-1.1395403786681286,-0.12181988456117478
1.23046875,1.3297833809375632,-0.5230524349410138
1.234375,-0.44026698076245097,-1.981639703793803
1.23828125,0.4316077357554779,1.5918249494222427
1.2421875,2.983291929621963,-0.5367815413088558
1.24609375,-1.6359223017852849,-0.538363718565497
1.25,1.0290075755791688,0.17901729619930018
1.25390625,-0.18858054923398618,0.7315284996411292
1.2578125,0.5500548139634092,-0.6689093291426664
1.26171875,-3.290863973861976,-0.8195066179166726
1.265625,-0.05647965530025959,1.345717011412425
1.26953125,-1.4979339789780748,0.08898345677201612
1.2734375,0.21495310718501232,0.12061964921464532
1.27734375,-0.9170748334577697,-0.494007420854065
1.28125,0.5693838365120882,2.823274794545476
1.28515625,0.99922898086825,1.9717205094374362
1.2890625,0.3539473197677731,-0.46855500275857326
1.29296875,2.120417035528226,0.4359690281562395
1.296875,-0.052965283459884244,0.9495841044304223
1.30078125,0.1684157540010272,-0.2886740509571082
1.3046875,0.9351577844740953,-0.5422680507054011
1.30859375,0.9844696217461978,0.9456901088041066
1.3125,-0.19224893067696366,0.7894417295228441
1.31640625,-0.8976993983684276,-2.407267124938155
1.3203125,0.21918509321254215,-1.1077786420405176
1.32421875,1.2042974463580924,0.4239192171782908
1.328125,0.13803835710540996,0.6823473770224373
1.33203125,0.6661184458700108,1.7336497025621522
1.3359375,-0.525523581949246,2.1565664033991867
1.33984375,0.3881837431671977,1.359851691180018
1.34375,-1.3081119227158022,-0.04198447783321111
1.34765625,-0.03444150418269628,0.4744211526663426
1.3515625,-0.03722828619807822,-0.4568657983425138
1.35546875,-0.5879233907988247,0.45522259267814935
1.359375,-2.5154984710561763,0.44764942359336757
1.36328125,1.0063457482441753,0.3354099497370745
1.3671875,1.6692079601553416,0.6272469264393595
1.37109375,-0.7483101702338163,1.3849986457452443
1.375,-0.25396129220527935,-0.5780752465803681
1.37890625,0.6972165622259275,-0.4535176767886486
1.3828125,0.9866825200168485,-0.856127695146633
1.38671875,0.7801457340467215,-0.14537893660784915
1.390625,1.8380537364777378,-1.585354062392572
1.39453125,-0.20044185363507175,2.063348069563678
1.3984375,0.6746329350744178,0.8038751205444463
1.40234375,0.7348695207117294,0.7918180717799561
1.40625,0.9050372298012948,0.4685580272498514
1.41015625,0.534041138748566,-0.4482630648297762
1.4140625,-0.1777266396130315,0.897843470986323
1.41796875,0.7288398764263572,0.07832022690833422
1.421875,0.28570279884081307,-1.0417837396354164
1.42578125,0.24525157276909065,-0.47085727794045423
1.4296875,-3.12050190969616,0.13101228507323076
1.43359375,-0.4061539181885585,0.4295323091637839
1.4375,0.8206028900878664,-0.7397100215517316
1.44140625,-0.7942463715094554,-1.2845133281332848
1.4453125,0.2925950518585493,0.349848285218018
1.44921875,-2.039669175888483,1.1855893103220505
1.453125,0.8947732572953013,-1.3750584554745346
1.45703125,-0.23218580113408624,-0.18442338162013608
1.4609375,-0.2943035938603387,-1.8592769392302346
1.46484375,-0.6965189309537182,-0.4690269537545519
1.46875,1.3115479112309287,0.23554390625817426
1.47265625,0.34313995574741507,1.5380192566677224
1.4765625,0.17537570976066053,-1.2385406923054707
1.48046875,-1.201266602785685,-0.4132577129220181
1.484375,2.084535536396264,-0.8466397976502321
1.48828125,-0.24694979790415628,0.8071393752126466
1.4921875,-1.3403378508022161,0.37138515501646413
1.49609375,1.2146808422303568,0.813844773944082
1.5,-0.22334000355756314,-0.6759009813310738
1.50390625,-0.04752524347633478,-1.1234742789960375
1.5078125,0.45567695608199804,-2.1486103284213978
1.51171875,0.557748125662338,-0.5942182523859822
1.515625,1.1055859513359139,-0.24277473058807955
1.51953125,0.451950528928512,-0.5031093518307586
1.5234375,0.6324630820567706,1.8248857512511103
1.52734375,-0.3493489145287932,-0.30536704482109045
1.53125,1.0237219841974259,-0.2978933320203248
1.53515625,1.2436862784912968,-0.22164648746779417
1.5390625,0.5146522158622647,0.3911377086706741
1.54296875,-0.5593847511533456,-0.537893486226287
1.546875,0.3235264004621414,-1.5557297912900112
1.55078125,-0.35858875987114885,-1.5597757147031497
1.5546875,-0.9555444733811344,0.17569607943098728
1.55859375,-1.8175343908029427,0.6921124353528535
1.5625,-0.22811620518946785,-0.5110585806856359
1.56640625,1.438351384077034,-0.4259114022436815
1.5703125,0.41049516777522527,-0.47019136095169556
1.57421875,1.4537956930310632,0.6149294427999319
1.578125,0.33650140149308155,-0.715556802268635
1.58203125,0.8439261663997969,2.3350749132599757
1.5859375,-0.6357331566575132,-1.2524654152565964
1.58984375,-1.1633581093232233,1.8576291481386968
1.59375,-0.8168433195365152,-0.6090911374896822
1.59765625,-0.5383232427275492,1.3356408615594075
1.6015625,0.9505247828984714,-0.8649342348997636
1.60546875,-1.2061790246616586,-0.2911366586686693
1.609375,1.1469597661288857,-0.13796688807104304
1.61328125,-0.9788213708467981,-0.6124851698456499
1.6171875,-0.42978952279482335,0.9341363242842389
1.62109375,1.3090595441104877,-0.5421332779438242
1.625,-1.2552960976475849,0.6182377360819454
1.62890625,1.3890527696957993,-2.2828566741271863
1.6328125,1.2544586112500558,0.5469252489204465
1.63671875,0.7596159348564158,-0.03429457690070352
1.640625,-0.5749884308342766,-1.6583660654874175
1.64453125,-0.1335631774220865,-0.7458498462779796
1.6484375,-0.20647575069492244,-0.21851622512274196
1.65234375,-0.23230761494857927,1.6606882001805428
1.65625,-0.2322277240631408,-1.2700080759086951
1.66015625,-1.553195039365164,-0.6584685721601456
1.6640625,0.20264947556962568,1.0674863835181372
1.66796875,-1.136342120287205,0.7690856960863883
1.671875,0.9128531250941577,0.900523241370369
1.67578125,0.19623489879374542,0.7616016002314185
1.6796875,-0.6469712667105917,-1.4272683528559205
1.68359375,0.545392829038703,-0.27818244939831865
1.6875,0.01853953323316502,-1.7418545238959138
1.69140625,-0.5444072535244815,0.7616556087752742
1.6953125,0.47706443758774764,0.2582439480744897
1.69921875,-1.3781305662608523,-1.103853665000478
1.703125,-0.02150352784304307,1.355976292155948
1.70703125,0.04934949247624455,-0.9277691163232941
1.7109375,1.7894854968868221,1.9147509225773125
1.71484375,-1.9064992785018429,0.7231819876671899
1.71875,0.8260109618756669,0.3867113508061797
1.72265625,0.09113133138563169,0.3476204504006106
1.7265625,-0.2360984587196081,0.193541408603119
1.73046875,1.3421581682852974,-1.3077860248375206
1.734375,0.0690445831271892,-0.8716073782153315
1.73828125,-1.3981783127985994,0.6938695907968678
1.7421875,0.9865799062121104,1.1452329711912983
1.74609375,2.096148180870142,0.7090639058730586
1.75,-0.8728767277203403,0.5237294843211561
1.75390625,-1.3198324167754296,-0.9392936520456083
1.7578125,-0.8243358757278103,1.9858154405904354
1.76171875,0.7779417558252858,0.4573011635874905
1.765625,-0.7599749489716999,1.7199189016633916
1.76953125,1.0646429949895009,-0.7509226900226013
1.7734375,-0.30857099791587844,-0.5194113990565946
1.77734375,0.6737774127257351,0.507932076572636
1.78125,0.4535481859129693,0.18362385519083838
1.78515625,-0.7569762443622863,-0.8795886202970806
1.7890625,1.2663319653583205,1.1261332695965534
1.79296875,0.6149685249359649,0.33998464864469363
1.796875,-1.1531797054669928,-0.6923890063139301
1.80078125,0.26963041601585447,-0.28683143171020453
1.8046875,-0.12623346093430132,1.0578986668137387
1.80859375,-0.46033022887302155,0.24781078163197703
1.8125,-2.191624651055624,-0.10466985047021571
1.81640625,-1.712612899382154,-0.028482951058687218
1.8203125,1.58969669829126,-0.3559913618564433
1.82421875,-0.1360365770536609,-0.37405199207465106
1.828125,1.37643397213232,-1.3304866652136393
1.83203125,-0.12885723325261408,-0.48108252761894565
1.8359375,1.8024798212730404,-0.26859872106731836
1.83984375,-1.6874597094262695,1.2484953115778092
1.84375,-0.5420446039336575,-0.21808824038500937
1.84765625,0.12505423334115043,1.461370310965001
1.8515625,2.616625107707971,1.1225761498515703
1.85546875,-0.08753297664715766,1.9563685053519928
1.859375,-0.5584838282036814,-0.5812895905823964
1.86328125,-1.398890133515316,0.8822284743961968
1.8671875,-0.041621875809269855,-0.23060954603198633
1.87109375,1.3479472899627265,-0.6875212319135845
1.875,-0.6048748528680485,-1.3458304011477145
1.87890625,-0.1754368839210942,-0.21133013425018135
1.8828125,-1.0927715157723064,-0.10111133204657118
1.88671875,-0.8902739449201977,-0.2514099319146587
1.890625,0.81748468329124,1.291920739424431
1.89453125,0.05611501591076283,-1.4729330186907548
1.8984375,-0.21277720787854915,0.31430514241573126
1.90234375,0.13870461175955673,0.7066752336046183
1.90625,0.759282993884832,-0.6422127050033594
1.91015625,0.5495871847128257,0.19940267720630106
1.9140625,-2.8095642452428145,-0.037979926004246524
1.91796875,-0.07955209452819248,-0.6814042974675567
1.921875,-0.9135970745493683,0.5635538847061264
1.92578125,-1.1889914609283891,0.054002485326585886
1.9296875,-1.6481486305583533,-0.8569445090417066
1.93359375,1.0829926034283615,-0.5291374969349963
1.9375,-0.6535699656963083,0.5413527221043176
1.94140625,0.07948550111008396,0.7303464314820708
1.9453125,0.05319276981213403,-0.44502898342984654
1.94921875,-0.43809866759587857,-0.5933706302113496
1.953125,0.17700327131443508,0.7312024688127027
1.95703125,-2.084085586183228,0.8309834094559541
1.9609375,0.06377193348437216,-1.5661648886024266
1.96484375,1.3970218368278613,-0.057808234473777476
1.96875,0.02009075928005522,0.07180379238744634
1.97265625,1.1416391885975554,0.5603794968245653
1.9765625,1.27704593227177,-0.7379513927096719
1.98046875,-0.03075299942846507,-0.9616557007510484
1.984375,1.174152664327387,-0.48618805006205096
1.98828125,-0.979478681732072,0.4949108676032648
1.9921875,-1.5567479600938068,1.9738349873768612
1.99609375,0.423686883977254,-1.061087987800199
2.0,1.7143587555983617,-0.2888247714173602
2.00390625,-0.9098359354605933,0.3625042875103095
2.0078125,-1.6289736412378033,0.16320703899350392
2.01171875,0.41821391252221335,0.8660343172243171
2.015625,0.493436228106157,-1.4616466725204929
2.01953125,2.240186030579206,-0.5425651325354696
2.0234375,-0.5724862721871602,-0.8840573898143991
2.02734375,0.3726687742723395,-0.33141159820380817
2.03125,-0.5370975645425282,0.6800559576495945
2.03515625,-0.5901888049545264,-0.903202697603035
2.0390625,2.1922803240557647,0.6172314153736708
2.04296875,0.33781769269803413,0.17208320531254337
2.046875,0.5312854833772317,-0.4602410144320461
2.05078125,-0.970205476442946,-2.211235111786915
2.0546875,0.1569614803715528,0.8482244592609642
2.05859375,0.2323170987758198,0.07613899167273377
2.0625,-0.8385297745584996,-0.8347526767052649
2.06640625,0.8785403674447271,-2.3171305557160173
2.0703125,-0.5792090976294489,-0.024660257523768717
2.07421875,0.5370094308819063,-1.484081637813305
2.078125,0.2569978201244523,0.1249008018273482
2.08203125,-0.4852505470922356,-1.738206861984924
2.0859375,1.1576860721912332,-0.6110011091492565
2.08984375,0.7648729726069113,0.023312857862237073
2.09375,0.4869320031639139,-0.7937115711508372
2.09765625,0.4644300348390882,-1.203143075881264
2.1015625,-0.2678758094815387,-0.8461389552263888
2.10546875,0.3172690033337964,0.619644902735649
2.109375,-1.5260769399373273,-1.4751535432116254
2.11328125,1.2700284776833144,0.1347938205315379
2.1171875,0.19676491530598245,-0.9020284356370042
2.12109375,0.3960084265778391,-0.42593044273848224
2.125,0.4332655003170925,-1.4546052849705926
2.12890625,-1.5777277225371549,-0.9993173702574994
2.1328125,0.15188462320880125,-0.07674633542591798
2.13671875,1.4508294425872992,1.4446805382791066
2.140625,0.8316644525426408,0.27646382763930516
2.14453125,0.7393165442487871,0.6920307291659998
2.1484375,-0.2883582763034735,-2.1337015859187423
2.15234375,0.8106526908271274,-1.1573843463961533
2.15625,0.7210748996727099,-1.4393582084771444
2.16015625,-0.7860180717518238,0.6741188756128843
2.1640625,-0.018481911614544738,0.22339908378032935
2.16796875,-0.47889832325338116,1.306785633971993
2.171875,0.6334523517502909,0.5805604485500608
2.17578125,-0.8229251090752076,-1.521572688946225
2.1796875,-0.6654065906327128,0.519387095836329
2.18359375,0.7793537215455062,1.5799556338846583
2.1875,1.2633863088470227,-0.06419837860050685
2.19140625,-0.6723946376268027,1.530869626849562
2.1953125,-0.2952401692801256,-0.9811956119417026
2.19921875,0.1557179741965844,-1.7871732606544215
2.203125,-0.7329147662499794,-0.03579119329005927
2.20703125,1.6810282416065632,-1.250641493116124
2.2109375,0.802644923265153,1.806524404830252
2.21484375,-1.389356939893702,1.0965683762195677
2.21875,-0.7650445360204149,1.469129838164958
2.22265625,-0.1604645605844212,-0.2223185668511128
2.2265625,1.1334670519088303,0.12030439925739975
2.23046875,-0.4675518337297693,0.7450539597615078
2.234375,2.193206888934017,-1.2398538025279562
2.23828125,-0.5922605959258211,1.4620556659949455
2.2421875,1.4370931290982027,0.018325367669783398
2.24609375,0.4212092283926308,0.0942557051298458
2.25,1.746184186540396,1.7230309375724036
2.25390625,-0.9058087750093485,0.8923910807266267
2.2578125,0.7774352884771273,1.0010843779033722
2.26171875,0.9160864956036308,2.1672303175954664
2.265625,-2.554818580486699,0.5548598310579199
2.26953125,1.5088460107792312,0.4944825542391097
2.2734375,0.00033119537948748023,-1.333675477928217
2.27734375,-0.008223407788001692,1.3077094908143052
2.28125,-1.408381631898724,-0.6645161744965795
2.28515625,-0.045568996149150935,0.35298417503790097
2.2890625,-0.03839165555688741,1.529320869933037
2.29296875,0.8248745414917639,0.4311703218394613
2.296875,0.18596850611172508,-2.1627097222445006
2.30078125,0.5321074475579683,0.2755204724918417
2.3046875,-0.1485373381987994,-0.6791136095210067
2.30859375,-0.4590141771045641,-0.8742588337283423
2.3125,-0.18064663143683063,0.6112728716044801
2.31640625,-1.0700630823460455,-0.1783880360105683
2.3203125,-1.8053143129442897,0.7866256341930257
2.32421875,0.10065852503355266,0.582086093466002
2.328125,-0.13407131528258082,0.4731728349236255
2.33203125,-0.07566440070375877,0.893932281004688
2.3359375,-0.26583027393905995,-1.6799620758821723
2.33984375,-0.8758669296822077,0.9202250952607867
2.34375,0.7158665310993245,-0.29789315887165085
2.34765625,1.047965969084698,0.14215290861573243
2.3515625,0.4409554418422198,-0.9836562080491512
2.35546875,0.9396350311401762,0.46872098463746187
2.359375,-1.0032107567221995,0.9742303140825704
2.36328125,-0.6525198835367938,-1.4887462701557386
2.3671875,-0.5609542469795226,1.189537059724315
2.37109375,0.04315092501730265,0.4953331958297108
2.375,0.40522000586037865,-0.44584546145976856
2.37890625,-1.365727218411799,0.44164316401631876
2.3828125,-0.819597892599264,-2.3937940200196186
2.38671875,-1.081315360463957,-0.9978835680504994
2.390625,-1.0317065263836267,0.12512635473538772
2.39453125,0.7208162557824643,0.22726921367377165
2.3984375,0.26272386921081453,0.15236948833461245
2.40234375,-1.2221201339297996,0.7366446499962792
2.40625,0.7060312215587966,0.3125871583699562
2.41015625,1.4260198351041138,-0.4094581580239395
2.4140625,2.092352890241243,-1.0465367790391016
2.41796875,0.12262646102375148,-0.9597174967646127
2.421875,-1.7753910400071171,-0.6541228359811526
2.42578125,-0.08036693865720887,-0.5304767583488899
2.4296875,0.06175622229586039,-0.3542113537067373
2.43359375,2.5429560969900638,-0.9808093829423764
2.4375,-0.7869215599090006,1.2637400294679082
2.44140625,-1.2747722234785315,0.7719945532299386
2.4453125,1.9229795361189936,1.2228635569464625
2.44921875,-1.383967255777822,-1.0766728440470308
2.453125,-1.629782406273296,0.5987121165702042
2.45703125,1.3189261145401454,-0.7191705741838567
2.4609375,0.7307885461232039,0.1666154231715781
2.46484375,-0.006223630455853624,-0.35295218702929704
2.46875,0.597936206784514,-0.31136753670179307
2.47265625,-0.20459748633753294,-0.2400544404985989
2.4765625,0.6309552679602201,-0.1676252955254959
2.48046875,-0.20357598851477193,-0.29431975640119007
2.484375,0.6686665611839415,0.5743749784975626
2.48828125,0.2003442736279067,0.7780070675907101
2.4921875,-0.662914272957821,1.0640425265124125
2.49609375,0.007255473078572537,0.24335919572340473
2.5,-1.5049834726698004,-1.2450090207567837
2.50390625,-2.818395913571661,-0.9494703208523605
2.5078125,0.0988899834313317,-1.843467217339927
2.51171875,-0.8437424015082522,1.140078480795854
2.515625,0.1359044825666276,-1.8971980029366036
2.51953125,0.6480519571392007,-0.41620722368883134
2.5234375,-1.551429993483762,-0.014006146600852002
2.52734375,0.27038666368175185,2.0673816765088233
2.53125,0.5133496796506853,0.2634437184974574
2.53515625,-0.7673747488387918,1.3965412047527792
2.5390625,-0.004492232255249712,-0.25889364915088264
2.54296875,0.8545797709217761,1.2454977039344315
2.546875,-0.43589794900330997,0.3757723565972418
2.55078125,-0.638397188001411,1.3819919079687184
2.5546875,-2.024189043796651,0.2583042845360259
2.55859375,1.2974877850201327,0.9565130548240727
2.5625,-0.4101038356192563,0.04556822978067455
2.56640625,0.1293126970376189,-0.1462762338983329
2.5703125,-0.7206071916070319,0.266364718586657
2.57421875,0.8708052572318393,0.5028244702286991
2.578125,1.3713470646584818,1.164823450492711
2.58203125,0.0214910470521331,0.13734535331275563
2.5859375,-0.12686611653435148,0.518938019062937
2.58984375,-0.33470035759237227,-0.831630368358937
2.59375,-1.3581497397664735,-0.03599841960131688
2.59765625,0.9265287457346812,-1.2080654722117234
2.6015625,1.0268797642268965,-0.5347533067888697
2.60546875,1.187926583688278,-0.4097208773332711
2.609375,-1.4213391267692475,-1.0512881338456825
2.61328125,-0.34016378964502436,0.4071763710741059
2.6171875,1.3216085184204227,0.4708379237757684
2.62109375,1.2433575547331013,0.09601175433289996
2.625,2.3264874620470044,0.6340943967423045
2.62890625,-0.05792002765590562,-1.6853444182997925
2.6328125,0.3574322126305085,0.48203307682044005
2.63671875,0.7649597013717728,0.8678277435179013
2.640625,1.115920667142341,-0.24828763452774416
2.64453125,-0.3020727614266035,-0.3435375030639339
2.6484375,1.9619785866583888,-0.5919269073363006
2.65234375,0.8690345624275021,1.4328947912330672
2.65625,-0.5005223814604775,0.4211780895913743
2.66015625,0.035704921681848766,-1.5598099975635709
2.6640625,-1.1964070446146067,0.08820975818295827
2.66796875,0.008968780263874439,-0.263593968907493
2.671875,-0.7969149384975613,0.6105230044396136
2.67578125,-1.9470454621181201,0.9131385926958121
2.6796875,-0.38652727132276105,0.4771992608133721
2.68359375,-0.937616338947611,1.523175235434136
2.6875,-2.227671289629439,1.4575984048437758
2.69140625,0.09658275545206442,-0.707908823572926
2.6953125,-0.05333798083863645,1.2396197852962065
2.69921875,0.7933807003483009,-1.2881084579401796
2.703125,0.04635978235622029,0.6800817388482158
2.70703125,0.2142464716654787,-0.519435488988043
2.7109375,-0.423839062529269,0.20547215683242986
2.71484375,-0.3616232348053478,-0.4324457950521619
2.71875,-0.26854821919275546,0.124773088177952
2.72265625,0.294133860502341,0.39562592133450736
2.7265625,1.3347704893773118,1.0035297801832166
2.73046875,0.8941383888260873,-0.8836720231536546
2.734375,-0.21541961421905909,0.15582042684188624
2.73828125,1.3031096200074086,-2.717047228069089
2.7421875,-0.5011859592019307,0.7163867927113763
2.74609375,0.7936411601299416,-0.18057822940689153
2.75,0.29817444200785925,-0.18505022732416182
2.75390625,-0.5058038953507316,-1.1605178619105558
2.7578125,0.1695262963098895,0.8443875246037611
2.76171875,-0.8692662520085402,-1.002117355795153
2.765625,-1.5274995229560182,1.58732526945735
2.76953125,-1.6391972162343986,-0.2789153645902897
2.7734375,-0.9249962347930412,0.1563497219820132
2.77734375,0.12554185875005874,0.8641879631824371
2.78125,0.8194055303762269,0.22478251386442386
2.78515625,1.8570538889451662,0.23592741585307236
2.7890625,0.901474490230639,0.02927616370013789
2.79296875,0.633868765470347,0.6638113133165523
2.796875,1.1791404142859852,-0.1773098510357695
2.80078125,0.04008051115501432,1.169460749895804
2.8046875,0.6922387493156305,0.12314781371066119
2.80859375,-1.6828083895299728,0.5571031680339756
2.8125,-0.884319908358877,0.6802834955119281
2.81640625,0.8871807667533418,-0.3855433099383379
2.8203125,0.5564802558509109,0.9492289021633402
2.82421875,-1.269683619359883,-0.2655101873150163
2.828125,-0.2477004224875908,0.46537405694971257
2.83203125,-0.5282794477385011,1.605430037823253
2.8359375,1.769820860894765,1.1138932113399174
2.83984375,0.2497709111143197,-0.49379191705249953
2.84375,1.05438113747776,-0.004089945623202239
2.84765625,0.6670818807089951,-0.8458824968185168
2.8515625,-0.3869854929527545,-1.1518798300648048
2.85546875,-1.1178333377631056,-0.32366106937144784
2.859375,-0.36354046521863154,-1.5782149966954608
2.86328125,0.7494487289939235,1.1743909166894528
2.8671875,0.9717210565880028,0.036590671901385034
2.87109375,2.0323123125044438,-1.6505731643171826
2.875,-1.5239368968371225,-0.02238397376085319
2.87890625,0.6692104190206348,0.5340252444723071
2.8828125,-0.7130878434498192,0.04103499573372594
2.88671875,0.7732472742240281,-0.8185524890908114
2.890625,0.9651700192470607,0.5672855405937174
2.89453125,0.7650338639548363,0.8596295537461457
2.8984375,-0.5797448747063486,-0.2986944524023607
2.90234375,0.18667459570018596,-0.48007528957951673
2.90625,0.6822416413721585,0.19231619980823128
2.91015625,-1.4671537739287193,-0.5365314375981027
2.9140625,1.110649547027354,-0.6577452404558555
2.91796875,2.1324817428440253,0.7462022591524207
2.921875,0.055100942001200914,1.461376872918363
2.92578125,0.598656332500828,2.289543010994781
2.9296875,0.975461549564949,0.22829160252853908
2.93359375,-2.24248833929936,-0.24512079075291165
2.9375,0.6507956560375033,-1.7111127449983874
2.94140625,-0.7465361306017373,0.9405886021586528
2.9453125,-0.6979288642524368,-1.404106574224573
2.94921875,0.051023888263162405,1.1404106945492911
2.953125,-1.0874033513086083,1.0764474760133307
2.95703125,0.826771804181651,-0.099725636072768
2.9609375,0.5442156737510812,1.4923645397265304
2.96484375,-0.6695523084101922,1.0071107505492056
2.96875,0.05491061900300212,-0.19675973609213732
2.97265625,0.41219871440098865,-1.751812847476739
2.9765625,-1.455702206938158,-0.7327841210929212
2.98046875,0.6090557221405253,-1.2177400075797495
2.984375,0.5899356981014349,0.021734242213358203
2.98828125,0.4554049650253911,1.489361546085529
2.9921875,-0.746566166043992,1.9178977891696947
2.99609375,0.34293209804097813,0.015017270793809667
3.0,-0.39362418502405416,-0.8031632378899698
3.00390625,-0.3415215153050227,-0.30940679547703365
3.0078125,-0.17203849434981788,0.6696184149738106
3.01171875,-1.6084978420122678,2.6318999015588327
3.015625,1.3026717232202376,-0.48604924245448194
3.01953125,0.5264914526199466,1.0530096755726885
3.0234375,1.2195623816459025,0.36148277604136664
3.02734375,0.8447794617903884,-0.33636582504257506
3.03125,0.09501104781715769,-2.206627224036277
3.03515625,-0.31246779756711485,0.39896746191888555
3.0390625,-0.05542137653392294,0.4226531048367607
3.04296875,0.7952501141337005,0.29791710438248353
3.046875,-0.1487933129521197,-1.0176762320509927
3.05078125,1.457392166330734,0.22331865787209756
3.0546875,0.688366787760856,0.5207518997886504
3.05859375,-0.6493460006351742,0.6328202733749527
3.0625,-0.986567695836018,-0.6396643961004597
3.06640625,-0.16699568448867697,0.5621636091066617
3.0703125,-1.242326274637352,0.4652202554537261
3.07421875,-1.0209161014413188,0.6550100444296026
3.078125,1.1069606763732027,-0.5712086221969868
3.08203125,-1.725333095168373,1.5306152874608348
3.0859375,-0.374126727702339,-1.2511250618487229
3.08984375,-1.400669344175532,1.0988613033534422
3.09375,-1.4909807300353293,-0.5806803610220587
3.09765625,-0.5272022996545047,1.0793204974107902
3.1015625,0.33236906448688786,-0.24507503766935693
3.10546875,-0.891042604846201,1.3979935520027627
3.109375,-1.2788877072648084,2.42036793700405
3.11328125,1.0534302105243376,0.9084503309639914
3.1171875,0.4322333861844559,-0.7889498230687856
3.12109375,0.3077321071566674,0.46031226055767466
3.125,-1.3856101330907098,-2.0070034415183695
3.12890625,0.10672112304358353,-0.7717266181686095
3.1328125,-1.4396640257319466,0.2645739711664371
3.13671875,0.36928488982355606,-1.3598419009011489
3.140625,1.5998778641182698,0.2294720627497842
3.14453125,-0.1667884916884348,-1.405005628273956
3.1484375,1.087237582667274,0.42362256018873395
3.15234375,-1.7453295554571793,0.6376108698051214
3.15625,-0.9587749248369659,0.4755259734501773
3.16015625,0.3341504082263223,1.2307031137077602
3.1640625,-0.8276980452604801,-0.4228720979655616
3.16796875,-0.23622174995269285,-1.3863393650626834
3.171875,-0.5893486915789213,-0.26514669519221273
3.17578125,-0.0009554632120997116,1.0594725170161388
3.1796875,1.8063925788931354,-0.7030290192803526
3.18359375,-0.2804740761424577,1.8335430137248467
3.1875,-0.8467745565061381,0.6218484212650814
3.19140625,-0.9655135921867187,-1.6408299204740568
3.1953125,1.048480008296059,-0.4725131769978573
3.19921875,-0.12371477491367747,0.15798830657072488
3.203125,-0.03927365490044151,0.530073094737565
3.20703125,2.038446298375443,0.5768024731414692
3.2109375,1.511366403035009,-0.6880938482165935
3.21484375,0.9738686827980401,0.04024315773646716
3.21875,0.9599365150512496,1.2253842389801946
3.22265625,-3.007288493323491,3.093609586119947
3.2265625,0.6368347283900084,0.4194492661936816
3.23046875,0.032598814142537944,1.176091458127802
3.234375,0.7341296757151731,-0.1805129640709882
3.23828125,-0.7879670425197706,-0.29099768512806795
3.2421875,-1.4155439350627408,0.6087168209045836
3.24609375,0.4396523531883069,-0.555363323543614
3.25,-0.49361314633205383,2.9184260577398944
3.25390625,-0.023478043837046794,-1.581737336169298
3.2578125,-0.19886597338186696,-0.08743392549288251
3.26171875,-0.4795013584096486,0.29684677336829746
3.265625,0.8145221091879565,-1.8836482542142972
3.26953125,1.1648923358566332,0.736038691708474
3.2734375,-1.0787359996313497,1.3810250419258865
3.27734375,-0.15592854534100622,-0.6072508326243355
3.28125,-1.746697230561326,0.6834787018939986
3.28515625,0.24566251453115193,-1.29652036016434
3.2890625,-0.705220868314094,-2.424567824773216
3.29296875,-0.11460764530152631,-0.6802397063352124
3.296875,0.7001802852666056,0.0016673141476579864
3.30078125,0.4409505662371072,0.08150590279505543
3.3046875,1.8901661857001448,1.8896385805818006
3.30859375,-0.5363244890378553,-3.9543380683874485
3.3125,-0.1378820153985495,0.9560434858115526
3.31640625,0.09813221790153638,1.22250992829627
3.3203125,-0.5537276838897743,0.9953709351513014
3.32421875,0.9083836299219334,0.04994024525153545
3.328125,1.4370946364805053,0.013924266174288163
3.33203125,1.4704509436355795,-1.42113524142261
3.3359375,1.2281267153459468,-0.8262383397055542
3.33984375,0.7808383305352092,0.2978217926794731
3.34375,-1.926877956604434,-0.4972099134034241
3.34765625,-0.0011537057877677888,1.545331077503561
3.3515625,1.0279013964215071,0.5775177631635505
3.35546875,-1.7090975938261168,0.24840674574049657
3.359375,0.6400610296121004,0.47689969076077904
3.36328125,0.04846499527966376,-1.1038919418166064
3.3671875,-0.605959853583458,0.8765217173594751
3.37109375,-0.6553360769259453,0.9085907901923993
3.375,0.5458662232845126,-0.5490020518456731
3.37890625,1.4458522353876755,-1.9042278416095173
3.3828125,-0.877934948322264,0.27671545872130743
3.38671875,0.8058003093746713,0.21183387532208345
3.390625,-0.6176210553470314,0.004879601148880474
3.39453125,0.3259893925953,-0.5603767328431406
3.3984375,-1.3098972185361637,-0.9237716085451967
3.40234375,0.6757251853036996,0.25575549450468243
3.40625,1.6031833658078227,-1.5214914573874838
3.41015625,-3.5371327242662236,0.22138715808261314
3.4140625,-0.7817547382149984,-0.41590807077637504
3.41796875,1.1162431556179782,-0.5291466896384289
3.421875,-2.3052063427163327,-1.2838896005430314
3.42578125,0.007631242722959938,-0.4376296155821979
3.4296875,0.44336625927152623,2.662074792778135
3.43359375,-0.9172615482747437,0.11142976472587741
3.4375,-1.6404591347342765,-0.44497418185484877
3.44140625,-0.5103952921003282,1.1685107360436189
3.4453125,1.0392538670251212,-0.7716277993615486
3.44921875,-0.6950399303142624,-0.23190707004725006
3.453125,0.38425687466315456,-0.830222220831038
3.45703125,-0.8495852251202732,-0.08446507163170616
3.4609375,-0.6270052773258044,-0.26102352569209397
3.46484375,-0.3504918557855711,1.1341373124305012
3.46875,-0.230710623574151,-0.9238320309175296
3.47265625,-0.155025071097667,0.4596069602616039
3.4765625,-0.5439420687189647,0.805388143205515
3.48046875,-0.01422938626235467,-1.2735544304292172
3.484375,-0.2866890626606506,-0.38094293617839237
3.48828125,-0.07746467785822114,-0.2048180402654159
3.4921875,2.4316357609981334,-1.3284323938271048
3.49609375,0.32694085016076674,-0.12284882600505674
3.5,-0.4010552026962795,0.7153141607991748
3.50390625,-1.3561954234696418,0.07493238884557728
3.5078125,-0.8120079704450454,-0.8399942634317158
3.51171875,0.9749824794906734,0.30461421600889943
3.515625,-0.6061764980114709,0.26947665725411823
3.51953125,-0.10110866181269708,-1.5099214272341832
3.5234375,-0.7724981970188397,-2.83824260343841
3.52734375,-0.5090106794435495,-0.2246962111049042
3.53125,0.2894581860033917,-3.212144853966071
3.53515625,-0.8206634692568733,-0.8736256209524123
3.5390625,-0.6305174334037722,-1.3580744917164753
3.54296875,-2.6392448011998844,0.6266555789743293
3.546875,-0.10937174425933062,-1.0491243733033053
3.55078125,-0.06664006742258208,0.6366104188110808
3.5546875,0.6978972900610999,-1.561052299584955
3.55859375,0.22750594291832826,-0.023996514088700804
3.5625,-0.3779007747200758,0.6620327842277614
3.56640625,0.04331739112399282,-0.6355503509075953
3.5703125,-1.9487327466188398,-1.1032703172621423
3.57421875,0.12006049431307554,0.5781216007500815
3.578125,-0.651987933404518,-0.5318061033761977
3.58203125,0.9140491831967057,-1.0940725929050579
3.5859375,1.134096873303578,-0.1555992435019384
3.58984375,-1.8063152805608902,-0.504370087792458
3.59375,-1.2858212737405974,1.068294523018743
3.59765625,0.3932870095294785,-0.49130499896341306
3.6015625,-0.4372682997963365,-0.41801061605404166
3.60546875,0.37989129685184697,0.33077026626941236
3.609375,-0.5681274756565539,-0.5597190738762289
3.61328125,0.11924713984871639,-0.6075573592694115
3.6171875,-0.32389450817069004,-1.2904314656545464
3.62109375,-0.2727673685718324,-1.3063651213846033
3.625,1.2889444579414862,-0.42137560788894013
3.62890625,0.9514723066946102,-1.065871983990046
3.6328125,1.1123518181791414,-0.9608585919349595
3.63671875,0.12513374687283782,-0.09802464631243565
3.640625,0.13444545796927257,2.0248097347704266
3.64453125,0.48990735760737725,-1.8800132073474425
3.6484375,0.09323092371704447,1.4627675244165346
3.65234375,1.8559033786862287,0.8264218560215137
3.65625,-1.9288282184332883,0.2651436622229099
3.66015625,-0.42030486296224084,1.4891538761922118
3.6640625,1.1429999775478117,1.8017920276057395
3.66796875,-1.2544541577744237,1.3521857036210068
3.671875,0.9596149266238186,1.5554517836553055
3.67578125,-0.38303838474404356,1.117373040243395
3.6796875,1.896697749329543,-0.20943089324504033
3.68359375,-1.3162975577646738,-0.8067570737150289
3.6875,-0.4628864627969354,-0.2363252926855937
3.69140625,-1.4390696301021955,-0.7007304860201045
3.6953125,-1.0780985113074169,-0.8434763713455902
3.69921875,-0.9770487870762569,-0.10906024037424591
3.703125,0.6466568964003102,-0.6809253607184504
3.70703125,-0.32400773608896577,-0.8729050908952385
3.7109375,0.07185246315662103,-1.764147809008866
3.71484375,1.1162226598254796,0.10298607724675005
3.71875,-0.4157901998708094,-0.12657516560780901
3.72265625,-0.028536624056066856,0.34073901171354604
3.7265625,0.16410023037219396,0.3576057717934139
3.73046875,0.8952923187866505,-0.34409946520841234
3.734375,1.4335651025241936,0.25676570562620676
3.73828125,0.4806912409892907,0.7766663792165535
3.7421875,-1.27184178787619,-0.5652665243925633
3.74609375,-0.4942861585621091,-0.7523939834347452
3.75,0.21078758616193788,0.609119151330499
3.75390625,0.7813939929962818,0.6222675780127815
3.7578125,0.39422235356608715,1.542534893512076
3.76171875,-1.1822100875745658,-0.11284681042324084
3.765625,0.5821072998918106,-0.41186733969544875
3.76953125,-0.3684060030124804,0.7907649152665183
3.7734375,1.0594830695861956,-1.730577295009819
3.77734375,-0.22874030514963764,-0.7528880664397707
3.78125,-0.26914858506331446,-0.721783710408379
3.78515625,0.1279782719275765,0.0849150556566676
3.7890625,-0.10891351399541155,-0.4349460954471602
3.79296875,0.5699272252162656,-3.0069369910595665
3.796875,-1.789630112972188,-0.6415059409336711
3.80078125,2.8521548605822873,-0.061592255426731655
3.8046875,-0.39571353574929463,-1.66164147186962
3.80859375,-2.3628678653763955,-0.22557574759555096
3.8125,-0.5016805786389065,-0.5413505761036086
3.81640625,0.5703591106815262,0.7442816768559882
3.8203125,-1.3234542522045138,-0.10921624059176832
3.82421875,-0.6123172234211239,0.24300669513233486
3.828125,-0.6572087941537849,0.8474683937257447
3.83203125,-0.2064082074352856,-1.3831323559522988
3.8359375,0.17761398658243102,-0.18937820323075258
3.83984375,-0.9942307850256267,1.0919294988039892
3.84375,-0.43502775825509366,0.48372737823011
3.84765625,0.9218308192566838,-1.4908599450759268
3.8515625,0.05310061664461707,-0.6228336567165449
3.85546875,-0.2019869775578299,-0.7454118889049148
3.859375,-1.3989624230986117,-1.2898354767189373
3.86328125,0.639736498015355,-1.0078898844650521
3.8671875,0.4265099913101245,-0.3836381635674012
3.87109375,-0.280923445388997,0.9476022075708493
3.875,-0.10117987063905363,0.8737577124183262
3.87890625,-0.3671071783100531,0.6688284729370494
3.8828125,0.6703725526608648,1.0254587338934218
3.88671875,-1.2790448204363025,-0.12827289480111298
3.890625,2.163085353152452,-1.1161851120666126
3.89453125,1.004361780667238,-0.44302739534071023
3.8984375,-1.516520322348249,0.3447650992607864
3.90234375,-1.2616818521722875,0.6587208024847817
3.90625,-1.9280779169504376,0.4493714111035467
3.91015625,-0.11417025048550367,-1.2438838191966857
3.9140625,-1.2843350011734003,0.42281924631889023
3.91796875,1.444591305201331,1.7524300856494759
3.921875,-1.3998830418573747,-1.4075988348252704
3.92578125,1.6462486035065818,-1.3624126743511082
3.9296875,1.0748986692489206,-0.5926273332405673
3.93359375,-0.2110012084253321,1.2353415956644889
3.9375,-0.029587466090084086,0.18869227077060025
3.94140625,-1.3318838050726887,-0.11692023064282023
3.9453125,-1.4134043268019905,0.461854224101624
3.94921875,1.3758598587708435,-1.0409434281127872
3.953125,2.3247948432459293,1.3763640894462033
3.95703125,0.10230795942824149,2.4051853104282443
3.9609375,0.3780217552051496,0.40530799498182624
3.96484375,-0.23837205258195762,0.9863477428270762
3.96875,0.19931059378549615,0.850254962370539
3.97265625,-0.02712859499713868,-0.8677198712517584
3.9765625,-1.0115856410819617,-0.8305520718593241
3.98046875,1.8837330223936861,-1.7831134212100965
3.984375,-0.09822418893565399,-0.3090389468395733
3.98828125,-0.5132252744634976,1.3862519567887344
3.9921875,0.3310024486920635,-0.6059990965487234
3.99609375,2.1997828425787507,1.2027761962579417
4.0,-0.6571703001911148,0.8567779592800173
4.00390625,-1.0649748033468267,0.3617991848765006
4.0078125,2.283797368074054,0.42400524926987404
4.01171875,0.1661647818083978,-0.05597385658180302
4.015625,-0.1536195358425626,-0.8548929790023694
4.01953125,1.1372249788159665,0.8402326280800102
4.0234375,0.7830913055513339,0.28258334188344725
4.02734375,-0.11612253506005724,1.2069754387400708
4.03125,-0.00015838555597639812,1.1437926056990728
4.03515625,-0.4873947801115431,0.9334827631116266
4.0390625,1.2706921269269007,0.049374091041909006
4.04296875,0.13511227580043714,-0.6819671755094853
4.046875,-0.43540503320817864,1.5830825064300056
4.05078125,-0.5992427094352186,1.5093846485015432
4.0546875,-0.5558648824316484,0.049707132085302155
4.05859375,-1.6320325124696629,0.32064941287848503
4.0625,-0.549481706815108,-2.430353622261628
4.06640625,-2.025227649341423,-1.023686715522128
4.0703125,-0.5516392449697279,-0.32075480972126796
4.07421875,0.27928474629498307,-0.08093853828518789
4.078125,0.6074541203925923,-0.2951782775333314
4.08203125,0.9217185562494421,2.1222213720919507
4.0859375,0.3975508281253332,-1.3551984174639484
4.08984375,0.21502467912727843,0.7988077237480541
4.09375,0.5785649233445725,1.5359790937141173
4.09765625,-0.8707285252456823,-0.16486434873404252
4.1015625,0.30974895321422513,1.46565373903294
4.10546875,-0.6542741229406753,0.44551684511783723
4.109375,1.9527345228386384,-0.7165402486397993
4.11328125,0.04074214968954619,0.2887206905486655
4.1171875,-0.2562728683749697,0.7840894670397769
4.12109375,2.1838852184818265,-0.7590445280268081
4.125,-0.056135991633770074,-1.5694999423535094
4.12890625,1.3198867451216407,-0.7897249182786913
4.1328125,2.6368710579553336,-0.001913990041629451
4.13671875,-0.5588082921198627,-0.350616458703379
4.140625,-0.07585864256822969,1.1533580946751325
4.14453125,-0.7935323005287992,1.3120939481526743
4.1484375,1.4158999107711305,1.6836077973858958
4.15234375,0.23790502292662807,-0.9561268449321391
4.15625,1.6306334238976046,-0.458817917940601
4.16015625,-0.9646747824947732,1.1016200963357807
4.1640625,0.45689909211448165,-0.6183678152091104
4.16796875,-1.4244804907462374,-2.4210390295067437
4.171875,0.06490610873522132,-0.19665296831208853
4.17578125,-1.7330508993621343,-0.8245916531243466
4.1796875,0.2053549161583735,1.400358623838484
4.18359375,-0.1207598528417581,-2.0301534546450593
4.1875,-1.037146471303387,1.1487520117773735
4.19140625,-0.31807334820765043,-0.6439624527143493
4.1953125,-0.5340579838319238,-1.6436470216079584
4.19921875,0.294374190843544,0.09727743168075835
4.203125,1.68489399944482,0.4650648432524138
4.20703125,-0.6398603582649438,0.8541400638453723
4.2109375,-1.3972994166171697,-0.08859757849895125
4.21484375,0.12356456179526473,-0.9144373082913582
4.21875,-0.5486521470468367,0.4342081432978597
4.22265625,-0.014484256125026298,0.4490013270230666
4.2265625,-1.981126731666783,-0.3077500135417393
4.23046875,-1.3347011976768282,-0.18114391429919643
4.234375,-0.6983646208269195,0.9574223128268348
4.23828125,1.9695669019756892,0.6663613735611894
4.2421875,1.1803405673252911,-2.22623482289445
4.24609375,1.0340567604889885,-1.1911576119526057
4.25,0.30538611923061076,1.0026115940139488
4.25390625,1.4013306153763532,0.6720916425510525
4.2578125,-0.6830896928668514,-0.018999250642946768
4.26171875,-0.3396201567908032,2.1581904329657178
4.265625,0.4713616003098084,-0.4500235739229432
4.26953125,-0.019168731785432366,0.29350419211198486
4.2734375,-0.9247429984871359,-1.1098635829351662
4.27734375,-1.6514728734018511,-0.13944804854279047
4.28125,0.26215240028075343,-1.5801484689785372
4.28515625,-1.008015551360908,0.47067790891082284
4.2890625,0.6981099292745694,-0.6512814129497994
4.29296875,1.5691821494276985,1.9866234691994311
4.296875,-1.7235434173641084,-0.9798742599033934
4.30078125,0.758729916276865,-0.6478562123931482
4.3046875,-0.1451887468037161,-0.754553864902763
4.30859375,-0.540135282187835,-0.49439401709761416
4.3125,0.5854725494932763,1.8008496978031379
4.31640625,0.10330650528896287,2.184028086615039
4.3203125,-1.522633175652053,1.6062564772910344
4.32421875,-2.085952776693589,0.9572285862336399
4.328125,0.9425755323048705,-0.7952200430805291
4.33203125,0.5673830003606334,-1.2288189654176263
4.3359375,-0.7057197812137388,-0.5198566014490694
4.33984375,-1.0335821241265082,0.2838223019765895
4.34375,0.3300074316885325,-0.9015684434422172
4.34765625,0.7794367587102834,-0.6541827302738094
4.3515625,-0.5357573433538696,-1.2008007010189612
4.35546875,-1.9285445946193642,-2.1901033676600115
4.359375,1.4620921599872974,-0.5313036377924868
4.36328125,0.016583715104645052,2.024809105434244
4.3671875,-0.13909454228967746,0.41307906960483637
4.37109375,0.9056088056812068,0.9241698141014364
4.375,0.0995386295461407,1.2942209995022076
4.37890625,-1.0656859262299576,2.9519130543190792
4.3828125,0.46491535219282343,0.461792935158472
4.38671875,0.6287931098215119,-0.4644021062065511
4.390625,0.5281374327202989,0.3980855486257748
4.39453125,0.891292390093776,0.4496963186702261
4.3984375,0.504025325203333,0.4052448611134319
4.40234375,-0.2898099008225716,-0.7210570136991642
4.40625,-2.558622365762682,0.6956343295919191
4.41015625,-0.18389395247722942,-2.6513452595601334
4.4140625,0.0711649525615643,0.3434015988961901
4.41796875,-0.5625535840485355,0.6613290290983821
4.421875,-1.1558661098925054,-0.13777215275388968
4.42578125,0.10940961211350662,0.49629363338580257
4.4296875,0.4529385554992032,1.0914966437255935
4.43359375,0.46187947488728,0.4089417862423543
4.4375,0.5314480838394017,0.4004782395543021
4.44140625,2.035157506963511,-0.8659918465261089
4.4453125,-0.1923996367722238,-1.7533803691589198
4.44921875,0.7849874942244399,0.3393555000609303
4.453125,-0.6823224592986615,0.5553037767969253
4.45703125,0.819997693894494,-0.36058691111348684
4.4609375,0.14031457769919098,0.29211962399837393
4.46484375,-0.649723547268943,-1.9171461369882015
4.46875,1.8007455221011968,0.8210937640838991
4.47265625,-3.0412082858100886,0.12618232423644632
4.4765625,1.5597922459718738,0.5408995878683905
4.48046875,0.27218906274615556,-1.6060563203541836
4.484375,0.5118470025578954,0.40724979313849125
4.48828125,0.34044690278399786,0.5741118345867231
4.4921875,-1.3460453949637434,-0.48880372074705447
4.49609375,-1.9905375919063175,0.1639567742201552
4.5,-0.9666826383745133,1.9467120660149013
4.50390625,0.18263886422734954,-0.4198145283415501
4.5078125,-0.4012362697048876,-0.20497383812900266
4.51171875,-0.6087844682231845,0.8822957343041775
4.515625,0.6013937878800176,0.7914553435331776
4.51953125,-1.5791016824680946,-2.313221689790967
4.5234375,-1.5797494415480506,-0.17425018409090978
4.52734375,-0.059800736835426506,-1.517203754256356
4.53125,-0.4642591914824314,-0.3263514277986492
4.53515625,-0.4058446271732208,0.3871410586456801
4.5390625,-0.9332099375248231,-0.570405634857171
4.54296875,-0.2330214887609934,0.4786547002961098
4.546875,-0.31637620572410263,0.8460125976094666
4.55078125,0.9550003926640752,0.14518590359948158
4.5546875,1.0261530714597336,1.640125866399038
4.55859375,-0.696749297420596,-0.4482604732359284
4.5625,-0.5898171629314866,0.32161686285949465
4.56640625,-0.07994655900116561,0.41352821663664563
4.5703125,-1.7624381048354705,-0.7629824278268813
4.57421875,-0.3744721523589076,-0.029990674071746055
4.578125,0.16222497790223256,0.8300863114217719
4.58203125,-0.082694765082873,-0.9393267568835694
4.5859375,0.21148572350628303,-0.5060650365948445
4.58984375,1.0101934073119687,1.1988833645358559
4.59375,-0.0326843365340983,1.3057082391236319
4.59765625,-1.6271984365238532,2.0170415993626167
4.6015625,-0.15469370757942058,0.10867750695961946
4.60546875,-0.9340405498563026,0.5737255398709895
4.609375,0.43608159801919966,-1.1376570642881771
4.61328125,1.7418348067159752,-0.005507712441997558
4.6171875,1.1679079854263894,1.1825519582555393
4.62109375,-1.698330984135559,-0.15283322421624898
4.625,-0.035492471559281646,-0.08154740006336905
4.62890625,-0.958797400373391,-2.4245734844042297
4.6328125,0.1633769097737999,0.26059732125672136
4.63671875,-0.740560632195974,-0.537817049272016
4.640625,-0.13705262084814074,2.1964823356859062
4.64453125,-0.6622348387716118,0.32869160070885045
4.6484375,0.9115331317396964,0.9113801546376062
4.65234375,0.8365089457921344,-0.08014874969087615
4.65625,-0.33374586640940657,0.3489067456544416
4.66015625,1.261530019495683,1.386953224732481
4.6640625,0.18227438529739917,0.33512255189203405
4.66796875,0.19683196864339972,0.4939528423555208
4.671875,-1.786365536763892,0.641667853705242
4.67578125,-0.18796095545794017,0.09859250217689146
4.6796875,1.3333529914340094,-0.15407108745536374
4.68359375,0.2987842874452752,-0.23627481927323388
4.6875,-0.5761721663684866,-0.255720942801169
4.69140625,0.8868129555160613,0.5667611045030745
4.6953125,-0.111880431776649,-0.2640906897048231
4.69921875,-0.22107758719107284,-0.08992399284358074
4.703125,1.5793009719156905,-0.7866244719346234
4.70703125,1.3919606482343212,-0.6672432120968147
4.7109375,-0.7097558436594471,-2.0102165546104156
4.71484375,-2.0522731961538576,0.7176770675458579
4.71875,0.18615869836355936,-2.1079835451763844
4.72265625,0.051957961695667416,-0.6621858316829666
4.7265625,-0.741217135144743,1.318094817301609
4.73046875,0.46684531668917056,-0.6348882091137785
4.734375,-0.890851063496189,-0.7430528919484783
4.73828125,0.6932124402800626,-0.7435165052414472
4.7421875,0.11295383934940445,0.45181747241837034
4.74609375,0.5010321029137608,0.6908163418355643
4.75,-1.03835082196565,0.9729787488111201
4.75390625,1.4995878893228152,-1.4301180650478291
4.7578125,-0.3138518319313868,-0.44540398181518515
4.76171875,-0.7572250928601989,-0.1249026532641946
4.765625,-0.8722811642259387,-0.6775584396499463
4.76953125,-1.3100282888678958,1.376369445577955
4.7734375,-0.6458580292708637,-0.01245506127365008
4.77734375,-0.5359778585954567,0.7773618438187001
4.78125,-0.605032520561689,2.3842296557034817
4.78515625,-1.2543463815293998,0.7143178538175124
4.7890625,-2.0838622318156053,-0.5742407500831012
4.79296875,-0.584274164151038,0.5158677314812441
4.796875,-0.9834149668309042,-0.33709433555856344
4.80078125,0.4625956687911121,-1.1826399278415196
4.8046875,-1.1301729529333056,-0.12552984868344297
4.80859375,0.3179606762941115,1.7896040445309027
4.8125,-1.6616220678022677,-0.6115278170991865
4.81640625,-2.0594833369219714,0.33895150260332413
4.8203125,-0.6277511797469641,0.05573178621593603
4.82421875,-0.4912349543469289,1.0757486326695587
4.828125,0.3031610226066178,-1.077897434730599
4.83203125,-0.3614536525240816,-0.5314428058943949
4.8359375,0.7785112814655384,-1.7548023023319221
4.83984375,-1.2745844241574216,-1.2947790136404302
4.84375,-1.351334052967257,-0.9080844731959105
4.84765625,-0.690803466286595,-1.8604706704296174
4.8515625,0.4296826083462738,-1.6933384236842521
4.85546875,0.3438168715237517,-0.6014907958791766
4.859375,-0.8987633728434823,-0.4542786933221988
4.86328125,0.024427079034115184,-1.8759839797058064
4.8671875,-0.32773531381569193,0.4777248053200874
4.87109375,-0.3254377033925851,2.212685705335928
4.875,-0.7223219870331244,0.09692191998029806
4.87890625,-0.27084035170304815,-0.1635288153606539
4.8828125,1.0873203898372144,1.235622559660589
4.88671875,0.1400072046265088,-1.2141750308311883
4.890625,0.1289835701303768,0.37087947687467016
4.89453125,0.0807803265358708,1.2878662557171494
4.8984375,0.04678993775632371,-0.9586452322881452
4.90234375,-0.06838168730667511,-0.3165146763507414
4.90625,-1.3387186110206255,0.21840561862628488
4.91015625,0.15532259790081918,-0.12806965498031317
4.9140625,0.19236739116263266,1.0790969535424795
4.91796875,1.1316828294826715,0.14957042839955415
4.921875,-0.927656230737961,-1.4478833817096983
4.92578125,0.8075129650709422,0.20925798217262057
4.9296875,-0.15654161747860001,2.769389838312931
4.93359375,2.3003689550425115,1.4200311455833032
4.9375,-0.6197459898999185,-0.8340896593233376
4.94140625,-1.6258401201624255,0.32565157334019357
4.9453125,0.2785874581661649,2.729445731989415
4.94921875,0.6215246161599827,0.23952450490764401
4.953125,1.005441915144916,-1.6027776572339458
4.95703125,-0.7892010558726059,-0.8330391413395499
4.9609375,0.0900351201926152,-0.15228675232390607
4.96484375,-0.9100485302569287,0.2564086983817833
4.96875,0.14904215660056677,1.6129381842871848
4.97265625,0.2836668995549692,-1.7398804824676901
4.9765625,0.446978189355267,0.32675355619332835
4.98046875,0.5888953071153191,1.1332997353009595
4.984375,1.2984464620512925,-1.1755967199852506
4.98828125,0.13711227968722123,-1.176252347830709
4.9921875,0.7671179626793592,0.27636891369465144
4.99609375,0.8602999250949137,-1.790075176653175
5.0,-0.24937945293601252,-0.8618897870321796
5.00390625,1.7954805633885562,1.547233990995707
5.0078125,0.34394514034458507,-1.7884401210621752
5.01171875,-0.18317642655922975,0.15901769748271402
5.015625,-0.20788311400025342,2.164771779034859
5.01953125,1.1130125619485296,0.5638073455049574
5.0234375,1.1474045716304269,-1.0913800284374588
5.02734375,-0.39583360118589483,1.0527350567268536
5.03125,-1.8089905426892026,1.0290238004626981
5.03515625,-0.09912850880915075,1.1251817313009755
5.0390625,-1.4062794063251538,-0.1328949623220845
5.04296875,-1.7279270448635096,1.6402520474843398
5.046875,-0.8295907159851279,-0.2200623141679453
5.05078125,-0.9538129374610602,1.4998581230010977
5.0546875,-0.6854988706785177,0.009538307507857818
5.05859375,0.6120544925589687,1.523053119734847
5.0625,0.7677966200387695,-1.1093780029187783
5.06640625,-0.3035591149015058,-0.7878640307253422
5.0703125,1.1831436535733506,0.6583096534362955
5.07421875,0.7703866772535163,-0.6334261404768943
5.078125,1.8191551948175888,-1.1943407306708644
5.08203125,0.25826520779045986,0.4069391029677108
5.0859375,-0.6814669035847275,-0.07412293868382329
5.08984375,-0.8960742650236084,0.5358732652571572
5.09375,0.9039320621934929,-0.7903441032650679
5.09765625,0.25455693431975895,0.6195197672012029
5.1015625,0.3465175422545964,0.919111268789781
5.10546875,2.5624682561601286,-0.7653335699968512
5.109375,-1.0967437716182817,0.6177605459472754
5.11328125,-0.11938348865183379,0.5204945944036649
5.1171875,-0.273416900996729,-0.8937479794759686
5.12109375,-0.3056550398878165,1.139410343562234
5.125,-1.1897648850591072,-0.01155680526297834
5.12890625,-1.8246143819683864,-0.8086143847020911
5.1328125,-0.06602223080503639,-0.43604154594572175
5.13671875,-0.16002075305074115,-1.0204207290517313
5.140625,-0.1724530337825453,0.731028817678974
5.14453125,-0.14679922153534067,0.09367193363792296
5.1484375,-0.7887625262414653,-0.01654386694668487
5.15234375,0.9964993280641737,-0.3366497059084742
5.15625,-0.29356685002781086,1.0731791305754694
5.16015625,-0.1570278250031412,0.7615286914611482
5.1640625,-0.765155479410258,-0.40297211206138706
5.16796875,-1.0683999308158842,-0.39615346173203997
5.171875,0.7366161177240399,1.3594360707560291
5.17578125,0.6112326398522168,-0.2743584664429667
5.1796875,1.2071660876637844,1.5840791382557962
5.18359375,-0.5910841886876421,-0.8590049966533845
5.1875,-1.2140763441084843,0.23662780699374455
5.19140625,-0.7352963568016362,-0.08372241239384168
5.1953125,1.2297594433824257,-0.49586999526522335
5.19921875,1.9913826344564312,0.7625141675818877
5.203125,-0.11983090352342429,0.1380564446536204
5.20703125,0.8721978736568511,-0.4152171705131173
5.2109375,1.9010939587542084,-1.2854442828825745
5.21484375,0.23284214589946892,-1.0539939282572626
5.21875,2.851370463645288,0.1167846141778056
5.22265625,0.43413239705711143,1.0924473099486622
5.2265625,-0.2697253097575719,0.28828665834420153
5.23046875,-0.7531116398967348,-0.07753899353191332
5.234375,0.25573637090173107,1.6456943537039437
5.23828125,1.7335508223822618,0.8444803988169773
5.2421875,-0.19842134830252717,-0.4345660370200471
5.24609375,2.2535458002823026,0.7107399197828308
5.25,-0.9649212840118051,-1.2017888511205184
5.25390625,0.9979773877026907,-0.08621080981038612
5.2578125,1.387173722800205,-0.9159870980765292
5.26171875,1.6546002378732414,-0.6064437806665427
5.265625,-0.04821508118429901,0.7642371266715269
5.26953125,-2.41592660754257,0.9877342156143252
5.2734375,1.0395296507548146,-0.11125723019920646
5.27734375,1.0073617645215474,1.7098340434405765
5.28125,-0.5497390732486634,-1.5260785375536026
5.28515625,0.8659247316306943,1.2214175638695137
5.2890625,-0.2845503526861297,-0.8963910859236406
5.29296875,-0.041750086670199915,-1.724315259021442
5.296875,0.16110777880830784,0.2964296015328434
5.30078125,-1.609647040867171,2.12770071301442
5.3046875,-0.9356779207755708,-1.6421891750486883
5.30859375,-0.889048573821181,1.473774435322239
5.3125,-1.339117948925636,0.10652898319035997
5.31640625,1.0313129937089205,0.4892048995706832
5.3203125,1.3501064841147516,-0.868775069366125
5.32421875,0.061701952921527366,0.9259398850643026
5.328125,1.2357523617462622,-0.015293697126631233
5.33203125,-1.1700575549394927,1.2706757564774693
5.3359375,-0.8868362685216669,0.9633128782065093
5.33984375,-1.2959728433015576,0.046198526620877145
5.34375,-0.43671482584906735,0.5716859161247897
5.34765625,0.7590890731927367,-1.4646503184139885
5.3515625,0.9721670812873515,0.6381909532448898
5.35546875,0.36541841788188806,1.1725301762745466
5.359375,0.34989168401343934,0.48400436697762056
5.36328125,0.1546408949380254,0.3833907289428674
5.3671875,2.1189549962122953,-0.9130691462146234
5.37109375,-0.34101597168475567,1.1271228069806494
5.375,-0.20575180457286243,0.1369244388950567
5.37890625,1.0878297035971243,0.6405314583445981
5.3828125,0.2964341853822044,1.447870106701622
5.38671875,1.2275860906325837,-0.6616634959264166
5.390625,-0.17233253320136338,0.019445152550098346
5.39453125,1.2909534236191411,1.4283585078178607
5.3984375,-0.32217549816187324,1.532219248267328
5.40234375,0.5943079083456757,2.3492624682228946
5.40625,-0.9250093914978759,-0.8428893458185142
5.41015625,-1.2683967723346123,-0.05960545197989781
5.4140625,1.2904842784895398,-0.4631808007800063
5.41796875,0.3221895565020044,0.28282135166109734
5.421875,1.1531850288504972,0.4196121605209315
5.42578125,-0.9216544518298455,-2.5100933721029515
5.4296875,1.0254319960930307,-1.1550262380992573
5.43359375,-1.218131411093382,-0.5377915998617717
5.4375,1.4835439615819863,0.3821032700496662
5.44140625,-0.8852555668120116,-1.8972785158393022
5.4453125,0.13915082737495338,0.09498314961955949
5.44921875,0.11759386115378448,0.9319233986823395
5.453125,-1.1823369420570702,0.6543450227277317
5.45703125,1.2858949594436575,1.2029093126769816
5.4609375,-0.003848622458067101,1.047315669657751
5.46484375,2.1981465375901315,0.2615111785810233
5.46875,-1.4926093776429132,1.3699675698222733
5.47265625,-1.052001648454021,2.497034531249205
5.4765625,2.496942637869845,0.5724055345703295
5.48046875,2.0150759052050584,-0.18676330296092708
5.484375,-1.7488796399868258,-1.6739142786317167
5.48828125,-0.19807284676835205,-0.49776362891514264
5.4921875,0.43203820265376347,-0.8368098126049566
5.49609375,0.11519401858260335,-1.0096938196816452
5.5,0.3095703126971957,-1.0285914718711606
5.50390625,-0.27420343147143883,-0.6413209710529406
5.5078125,-0.2603887938926151,-0.22594844364612715
5.51171875,-0.2326581373985222,0.6928487551419732
5.515625,0.30743117919841356,1.6525083498190645
5.51953125,-0.7128864852848257,-0.7375519551138915
5.5234375,-0.7284068582419817,0.35276755554896044
5.52734375,-0.6536072630854718,-0.4591650009499445
5.53125,-0.2566751752361544,-1.9292778406639735
5.53515625,0.683955981487174,1.3583199568660398
5.5390625,0.40009625030727497,0.7449510150542746
5.54296875,0.5235945662921608,-0.08127840063873495
5.546875,0.740415461875981,-0.7593286006203782
5.55078125,0.42757142482662364,-0.6224188799382162
5.5546875,-0.8703023762765791,1.3494631424316317
5.55859375,0.3480606954194915,-1.4637421332186007
5.5625,0.8520403786135813,-0.8369819417812487
5.56640625,-1.0505384363234829,0.37727802006057043
5.5703125,0.011897138250887502,-0.5056818135362899
5.57421875,1.2218992219220872,-0.7381325962521664
5.578125,0.2049062367892248,-0.1658370956778143
5.58203125,0.03768912801301774,-0.4885953340898279
5.5859375,-0.28631281489121724,1.6111910107657648
5.58984375,1.259164259483514,-0.4568750942251611
5.59375,-0.6854307179440223,-0.9758745403432849
5.59765625,-1.141840163876346,-1.0083198898786643
5.6015625,-0.41317408806051803,0.3533537169308385
5.60546875,1.0488331197507073,1.681479102376962
5.609375,0.82297670365072,0.8227854108245645
5.61328125,-0.8556839535273403,0.6821276511400626
5.6171875,-0.18550180679786182,0.824884720143734
5.62109375,0.026287805859787575,2.0519421890969705
5.625,2.348487923375951,-0.31246821132197405
5.62890625,-1.8085059663195868,0.3857871088793308
5.6328125,-0.19800373331684698,1.071011535592247
5.63671875,-0.8951786590455,2.3428262520950014
5.640625,0.9750961964826816,-1.762306309521514
5.64453125,-0.782621649355256,0.7786902907393034
5.6484375,-0.058913103900105145,0.9611485812652852
5.65234375,0.4704499215213257,-1.2001231064940063
5.65625,-0.8605181453073634,-1.9655154330717675
5.66015625,-0.21913460911731356,0.5473140028042357
5.6640625,-1.9600754729218108,-1.166222213475316
5.66796875,2.5367566980853895,0.6998023448392381
5.671875,-0.18049404786873907,-0.8439405544141719
5.67578125,1.1440528615960528,-0.23016824512977604
5.6796875,-3.0428095320356796,-0.06745628287753962
5.68359375,0.9259984269417757,0.38590317260958007
5.6875,-0.31438112587952105,-1.425537414390903
5.69140625,0.3627131905215912,0.8794122018808227
5.6953125,1.0990781169675221,-0.4934330084158964
5.69921875,-0.6761936979563183,-0.3297110605872769
5.703125,-0.1893110117098165,-0.9157769102785552
5.70703125,-2.557160608893782,-0.10033475221614692
5.7109375,-1.3984807545178415,0.7849367279739234
5.71484375,0.8142306187253617,1.2971107846484162
5.71875,-1.0903364256288413,1.5790645358573463
5.72265625,0.6781848579364861,-1.0549377780996398
5.7265625,-0.8870946357087821,-1.4759725231923224
5.73046875,1.6394120943475325,-0.48179203687219513
5.734375,0.9604692508310275,1.890055077115857
5.73828125,0.18426909235283073,0.4043677490192269
5.7421875,0.642427859909759,0.07076204569279022
5.74609375,0.895002713214291,-0.27481340364497336
5.75,0.221229387688588,-0.3219455607288194
5.75390625,0.12216999534976794,-0.9574307503871099
5.7578125,2.001247961699344,0.8604354627318455
5.76171875,-0.6740973922226247,-0.6074330890963705
5.765625,-0.32845030075169224,0.17214354027072268
5.76953125,0.9766334989965781,0.39184011639812827
5.7734375,-1.1189438113322399,-2.1640013101967566
5.77734375,0.01998386879188829,0.4771010002985981
5.78125,0.34875862267938046,-0.4864258677163904
5.78515625,-0.42514314738079456,-1.1479448239060484
5.7890625,0.9559697459488616,-0.10509914824912799
5.79296875,-0.8106316014926686,-0.8810443847513242
5.796875,-0.8905337809411716,-0.3183427891758409
5.80078125,1.031954011460716,-1.4769917711353373
5.8046875,-1.4419165211183562,2.452397305221079
5.80859375,0.07061231372838113,1.9338282913933402
5.8125,-0.3838071342731417,0.9471685157583285
5.81640625,1.157937355818499,-1.1216103590195357
5.8203125,-0.5579007573601278,0.5329954986955703
5.82421875,-1.1290476276307364,0.625645075370134
5.828125,-1.8255250573295874,-0.4767773029021709
5.83203125,0.43152605072695116,-0.23079619739754623
5.8359375,0.3875721648533634,0.5101005594236299
5.83984375,-0.918507438347934,1.1062739834896944
5.84375,0.7791090987339814,1.5406348567331103
5.84765625,1.4268737192605738,0.290933841390786
5.8515625,0.6975676863704964,0.24075101222811113
5.85546875,0.9144019916979087,0.3189144748816248
5.859375,1.385557264765859,-0.5806226346757547
5.86328125,1.0238473537222408,0.16595029373379938
5.8671875,-1.5139717870216296,0.5028515245257863
5.87109375,-0.6182917833899978,1.4116072383461185
5.875,-0.4274752890279722,1.4663330407556632
5.87890625,0.4407557344337511,1.036970069845397
5.8828125,0.24011758985786344,0.01655924309196572
5.88671875,0.8126876886472943,0.8337707986877326
5.890625,-0.8055250147977532,-0.009892508851125971
5.89453125,0.1785493603868408,-0.6428175409185651
5.8984375,1.1095632235610602,-0.013200807959108964
5.90234375,0.01675614600189368,-0.22166493364676992
5.90625,1.2796545622628084,0.563628948226703
5.91015625,-1.2881678870966387,1.1153016524177823
5.9140625,-0.7908741346623698,-0.7395786834567887
5.91796875,1.0847143322305506,-1.272670404771744
5.921875,1.2554766569497362,0.6545172125355061
5.92578125,-0.27579810011563854,-0.3783631887951101
5.9296875,0.77011349698637,0.8606451494450527
5.93359375,-0.29794912671162693,0.31051596563240036
5.9375,1.1645547248419779,-0.21526913528440056
5.94140625,1.383816577609944,-0.24871067119613546
5.9453125,0.2989197654417227,0.22629806167682986
5.94921875,-0.6412028801568156,-0.1944041822974957
5.953125,0.14307793394374985,0.06117924948720938
5.95703125,0.15911850462443,-1.141825862404787
5.9609375,2.12445980363087,-0.22495259594466274
5.96484375,0.023691086191472734,0.6191348542236085
5.96875,1.69724834779036,-0.6724551067520197
5.97265625,-0.16119033090592197,-1.0872606423649251
5.9765625,0.3564715538296195,1.8302999083318052
5.98046875,0.8723444439448186,-1.8236835873221862
5.984375,-0.4487029835822273,-1.6756918249759853
5.98828125,-0.8360711480599208,-0.35580876347375956
5.9921875,0.4719458003848811,-1.4434333622892856
5.99609375,-1.2720689665315972,-0.8845214748234653
6.0,-0.2856209681366429,-0.022804035930513025
6.00390625,-1.6162970046611136,0.27590698254974255
6.0078125,-1.645685579619239,0.2515198950624286
6.01171875,-0.4847626257035263,-0.7991754973986611
6.015625,1.119913168457602,0.7370845881296126
6.01953125,-0.295196213011074,0.7187822540588006
6.0234375,-0.6317436684403831,0.47029765391366934
6.02734375,-1.124893873960798,0.6201749792210869
6.03125,-0.655254022783202,0.04850844934852658
6.03515625,0.36279016616207316,-1.4436616978587544
6.0390625,-1.1196755899340727,-0.475554033631798
6.04296875,-0.6581157084910143,-0.045878658031605575
6.046875,0.5219274174669185,-0.8881211521303215
6.05078125,-1.0960292715397817,-1.1118966548839249
6.0546875,-0.36468136098131276,1.2176314471891143
6.05859375,-1.401594396739208,0.904963561700403
6.0625,-0.28411183931577305,0.1016504046506243
6.06640625,-1.2953164068376684,-1.542187082749821
6.0703125,0.5937814003728389,0.6205473940126963
6.07421875,1.5473902139784677,0.2952432414396605
6.078125,0.16819433026002462,0.050937464671650196
6.08203125,0.45924915675309663,-0.713164452870392
6.0859375,-0.8989546646843748,2.1996526829722574
6.08984375,0.15348686015508847,-0.3178517860063151
6.09375,0.880837907472637,0.7025679161584519
6.09765625,0.584981248369626,0.07903899105060368
6.1015625,-0.8146504139290952,-0.30244914956188307
6.10546875,-2.2286154344152567,0.8163583045658528
6.109375,0.1379530922803983,0.7822864714090363
6.11328125,-0.7927517930549836,-0.8853127498197968
6.1171875,-0.333576870681453,2.072491012336181
6.12109375,1.7051244170032633,-0.22390815261538857
6.125,0.3601100005857474,-0.27725750888078066
6.12890625,-0.2743426474070524,-1.032048904256771
6.1328125,-1.118964473127595,-0.9636708014973265
6.13671875,-0.8507976912299668,-0.6598701712671299
6.140625,0.29302261786033773,-0.13548090198981236
6.14453125,-1.494795028564352,-1.5993662433708915
6.1484375,1.370139917974465,-0.6560194153827961
6.15234375,-0.6225403406667029,0.22590605463002647
6.15625,1.942716195596575,-0.4626550277801414
6.16015625,0.4284261845622839,1.4060768437771534
6.1640625,-0.7351777360710023,-1.1960408951032426
6.16796875,0.7108861568368269,-0.847540800911253
6.171875,0.04434224785859247,1.0808108845427826
6.17578125,-0.9098764729582488,1.0171050832123016
6.1796875,0.43031755517536224,0.983946895235868
6.18359375,0.8716724243824533,0.5365870196941839
6.1875,-1.052118143774161,2.446312117528996
6.19140625,0.5236171906324749,0.6047181677466483
6.1953125,0.31537959491191475,-0.08887051387262074
6.19921875,-1.2185289838602302,1.2755567202103948
6.203125,1.2367028226942975,0.9598097127428804
6.20703125,0.6341652796955898,-0.5075077181922467
6.2109375,1.0255333466908525,-0.001297727118837518
6.21484375,-2.0785996740864854,-0.5178388175613391
6.21875,1.3060457366718965,1.715225992412103
6.22265625,1.5885612672897669,-0.19566228073476413
6.2265625,1.5068187698492197,0.17026198045074806
6.23046875,-1.8484926196138436,0.9294973831706541
6.234375,1.9619751993205747,1.3392040969822514
6.23828125,-0.19530811553256439,-0.47928602482116434
6.2421875,0.6871534957259992,-0.13730583741837146
6.24609375,1.0989332139799095,-1.4608090985711597
6.25,-0.2332060210734626,-0.10628455599027972
6.25390625,0.5487229540778363,1.515734945202285
6.2578125,1.0555423538968702,-0.46887271376588
6.26171875,-0.6898089281604627,-1.346919252167675
6.265625,0.09334911042077045,1.5769068104680646
6.26953125,1.8308157632743642,0.814188243826123
6.2734375,-0.77937774592524,1.8562977635066464
6.27734375,0.2049397539590863,-0.12179309157736733
6.28125,-0.8797329731901458,-0.8910157073730488
6.28515625,0.6583669593915761,0.07636711235055844
6.2890625,-0.6171864038657666,-0.8833695288250587
6.29296875,1.7512473254401575,-0.014233904553328586
6.296875,0.42429352414078225,0.7871196489699771
6.30078125,-0.4321024370056052,1.9262338698954664
6.3046875,1.1720538879565146,-1.3999938191833252
6.30859375,-0.9751733847730811,-0.041697585141131636
6.3125,-0.7795028463366438,-0.11432140043558335
6.31640625,0.8591357608711295,0.39821235454324533
6.3203125,0.3097918782262857,1.3745945606574776
6.32421875,0.5447778894727368,-3.020067857416971
6.328125,0.2467573262598726,0.18109988381608655
6.33203125,1.8682439753325042,1.7362377628209604
6.3359375,-0.3467816942407046,1.067279401771679
6.33984375,-0.2089401952963596,1.0728225033469874
6.34375,0.1009979630005968,-1.1554615785915558
6.34765625,-1.2450268519542984,-1.3263458242717674
6.3515625,-1.0728121635950827,1.6192545183825673
6.35546875,0.04941516139723458,1.0063584637418825
6.359375,-0.878728393548091,-0.07357280126419025
6.36328125,0.21615633698871645,0.7879595662477599
6.3671875,1.3090302899292077,-1.3536944157174942
6.37109375,0.6614368045635172,0.01594260673456609
6.375,1.3099114829296696,-1.2195541137367385
6.37890625,1.139168857903739,-0.9086203157019865
6.3828125,0.15085666713045862,0.08086226404619727
6.38671875,-0.5694463631817837,-0.3885797269747007
6.390625,2.6992031960721774,0.16320859054303816
6.39453125,1.4580517055198894,-1.4951448924683783
6.3984375,-0.7371413843369599,-0.1662748375273656
6.40234375,1.0363828597613707,0.0393980528687088
6.40625,-1.4811422772851877,1.3194295191916399
6.41015625,0.24859116521082966,-0.9021503233099855
6.4140625,0.6011225895020877,2.023479814065766
6.41796875,0.3945308938508806,-0.771646045816546
6.421875,1.6978114598036784,0.6780972989098163
6.42578125,0.2779084051697796,0.6817641357654115
6.4296875,0.15999489927507365,0.9203052396955668
6.43359375,0.8073074518508523,-0.7609082534446189
6.4375,-0.16021073845436337,0.23975205772433225
6.44140625,0.7323114403773894,-1.1401842083177538
6.4453125,-0.09503599599789908,0.03784677985417791
6.44921875,1.1630634058868552,-0.5951888191695679
6.453125,-0.9952203697081183,0.2745866944575027
6.45703125,0.05540210424291874,-0.5233012489470343
6.4609375,-0.3107290314139358,0.6946031033139748
6.46484375,-2.635089440465909,1.0656985471504885
6.46875,0.5404079681284005,0.10009777816678114
6.47265625,1.2238305123767566,-0.2780615499556538
6.4765625,-0.4541045242619756,0.7842027306474747
6.48046875,0.003973476231131434,1.320621748893886
6.484375,1.0136067061228866,0.18923976740299167
6.48828125,-1.1324596012899284,1.1268971390300409
6.4921875,-0.3072939610475232,0.05838401646811585
6.49609375,0.05534594266762614,-0.6806097626331811
6.5,-0.5201656612933762,1.1648746209047194
6.50390625,-0.4246216988110713,-0.0931606695676143
6.5078125,0.6158362135352928,-0.022732619291793797
6.51171875,-0.19774128462114882,1.0502356309719145
6.515625,-0.9199473375975415,0.5613979383632632
6.51953125,0.5221844823310944,0.28752673929857214
6.5234375,-1.0378782787543954,-1.5560969614082152
6.52734375,-1.0174532930708509,-0.7914358281511613
6.53125,0.6188335327617083,-1.2730491259066414
6.53515625,-0.13057346455661578,0.5828882938325546
6.5390625,0.6531889293467056,0.5346692972440057
6.54296875,-0.34887341213498707,2.3107549809264882
6.546875,-0.9194956754873281,0.3841698729194743
6.55078125,3.4882349723787462,1.984085130454473
6.5546875,1.0454972749830782,-0.2500204207900669
6.55859375,-0.7921930705017772,0.08452299165521837
6.5625,-1.4895556819246054,0.9775841321424554
6.56640625,0.4749637497628601,0.28922003996698187
6.5703125,-1.117882943158622,-1.2776710372754432
6.57421875,-0.4709377309748042,0.26453950240004637
6.578125,0.5388821600214768,-0.15726261842791953
6.58203125,-0.227648260265911,0.7842213399384693
6.5859375,-0.8253235994579609,-1.7253431227361586
6.58984375,1.8918882995079827,-0.689045970436621
6.59375,1.9913205211405032,1.311250549456322
6.59765625,-0.9308075159217531,-0.710136476997797
6.6015625,-1.2678718855728428,0.3531984124260232
6.60546875,1.2331465790310234,1.8613362070826371
6.609375,-0.3733953739262525,-0.536490902765002
6.61328125,2.675815745701752,1.0763923374569055
6.6171875,1.049498434568892,1.4091138500713267
6.62109375,-1.2254756930566904,1.1798002576810167
6.625,-1.3754484826369244,0.43165027153746216
6.62890625,1.5054037641233131,1.8689288419317802
6.6328125,-0.2799134983218003,-0.514674207500405
6.63671875,1.1912934185847717,0.8816476836711992
6.640625,0.4956094520761849,-0.02401739331294825
6.64453125,-0.06517643437290359,-1.2767203571565757
6.6484375,-1.3371120405769281,-0.9248273136089581
6.65234375,0.42809550175143557,0.6640914362765947
6.65625,0.12429162766763328,2.019113824202512
6.66015625,-1.0397232912369443,-0.007377629903553908
6.6640625,-0.23992591534285926,-0.9708970588714909
6.66796875,0.07205886926251574,-0.36943738069512955
6.671875,1.6278649326860046,1.6782618492429071
6.67578125,-0.515356107486572,-0.2756065975645926
6.6796875,1.4750871523329478,0.7324952641576505
6.68359375,-1.0408874342980907,0.5608546930496993
6.6875,-0.27885185304681487,-1.0616202766966647
6.69140625,0.9769664313974812,-2.3918874845040583
6.6953125,-0.04158946367037273,0.9808831181228668
6.69921875,-1.6208133486409382,0.8390815046698191
6.703125,0.3806722668358716,-0.7303121310575829
6.70703125,-0.7877462846785576,-0.09849396966236854
6.7109375,-0.9422082084981634,-0.8612391163513841
6.71484375,2.0270558461627908,-0.3488581344241567
6.71875,0.02123233548556414,0.539297967730578
6.72265625,-0.6024410478717763,1.663695941018161
6.7265625,-0.9457665682743478,0.41114877341311973
6.73046875,0.05581729833573517,-0.9836591227550886
6.734375,1.1507270594420553,-2.3053296620973525
6.73828125,2.084576927524564,1.5889413171415345
6.7421875,1.2866756253969314,0.16409996334438184
6.74609375,0.06934585465915405,-1.1842876694728635
6.75,1.5567374613365155,-0.05589548474780656
6.75390625,-0.5662141904661,-0.8902836244556347
6.7578125,-1.3230730320912776,0.10519646587230724
6.76171875,-1.3171010920135329,-0.9537851679891187
6.765625,0.7160613285708025,2.314270752966436
6.76953125,1.4858806029394562,-1.158453395468213
6.7734375,-0.18356115865508138,0.46887248019208155
6.77734375,1.463033400874358,0.09630741521056885
6.78125,0.1274449327457937,1.8146178051618613
6.78515625,1.6149101250642743,-1.3766880645187378
6.7890625,0.8593308851589501,1.1968076271933892
6.79296875,1.8617134774240216,-0.6960255351016446
6.796875,-0.26417649893333256,-1.199172359157506
6.80078125,0.4432535204054497,0.257104646276252
6.8046875,-0.0077621737113223,0.43628127475956263
6.80859375,-0.21529740135026437,-1.060880574962631
6.8125,1.00159857895191,-0.13173983068264378
6.81640625,-0.4150275179770372,-1.8747309238985133
6.8203125,0.2586825684725738,-0.03841635605837307
6.82421875,-0.12642570176398096,-0.15760419082206104
6.828125,0.016512079705767537,0.11580043980528039
6.83203125,-0.538364049476365,2.324009980321649
6.8359375,-0.7611253070295846,0.1426305317614438
6.83984375,1.5794530577586785,-1.0124602681893147
6.84375,-0.2706793858499407,-2.3862613336952574
6.84765625,-1.8965232136995245,0.25229751369972425
6.8515625,0.3231495793083276,0.049366703782042366
6.85546875,1.1146661110445235,1.21165250349499
6.859375,-1.3927344972977937,-1.5045376797175483
6.86328125,0.07943707305955904,0.5011763752131032
6.8671875,1.566728624995676,-0.7538363508864592
6.87109375,0.8484537821447533,0.09778686900888939
6.875,1.4388209176184363,1.5275050286119527
6.87890625,-0.008091332977858828,1.1386470280196879
6.8828125,2.0871578217617692,-0.41982326044878066
6.88671875,1.4179260944832324,-1.429925974210566
6.890625,0.47081347616848734,0.7949776042810387
6.89453125,0.45500633045787764,-0.9759384840923577
6.8984375,0.21316177928416094,0.8895137839540751
6.90234375,-1.7943651757208927,0.9207354683434684
6.90625,-0.12636106778114142,-1.1947419319016586
6.91015625,0.7557456935665433,0.4229754957434905
6.9140625,1.3954540655514192,-0.26297050711154535
6.91796875,-0.22647960495067407,0.4852755890727025
6.921875,-2.0691328519144223,-1.6922884514841374
6.92578125,-1.7206345460970722,0.6275233391606341
6.9296875,0.27269302084599534,-0.3896248898242927
6.93359375,-0.39058990336631993,-0.4204511924193945
6.9375,-0.42056702730222206,-1.9418061770795711
6.94140625,0.11661858400876358,0.7904086716101919
6.9453125,-0.08301309463155558,0.827425385944554
6.94921875,-0.9006679694248856,0.32018351282365265
6.953125,-0.6895204739590807,-0.07283593540485381
6.95703125,0.7224653011393414,-1.1627266959802292
6.9609375,0.11013604761019904,1.0134714104959084
6.96484375,0.24120407579313238,-0.16244229349235795
6.96875,-1.2468262035793969,-0.19628193319677892
6.97265625,0.17330907522496738,-0.16875602033833065
6.9765625,0.22543805144244694,-0.4814537954873697
6.98046875,0.44411641636290283,0.8286249999225163
6.984375,0.41895527068658817,-0.14053280665540083
6.98828125,1.8932766673646824,0.3582070585155208
6.9921875,1.2203474413092699,-0.7613938256622031
6.99609375,-0.5620049532245219,-0.10239338508309567
7.0,-1.9518748235722803,0.44140446894201485
7.00390625,0.952774597029746,0.6962914722554472
7.0078125,0.11026663188847706,-0.7147964986696975
7.01171875,1.5221658605893071,-0.6240313797625324
7.015625,0.34570241576734523,0.3244275264686607
7.01953125,-0.5943359908450211,-0.7421159096519435
7.0234375,0.050349898653903984,-0.05860892146181537
7.02734375,1.3648187155394063,0.9835088327990541
7.03125,0.24402028524745834,-1.3149318531362257
7.03515625,0.48169837821674527,-0.04639424777149162
7.0390625,0.5291674052471245,1.043135691479372
7.04296875,-0.6054942849192418,-1.7957954709876045
7.046875,0.7498901683515647,0.5622214532080156
7.05078125,-0.1448209885068856,0.06805643977462364
7.0546875,0.41428531514657513,-1.5180392744745455
7.05859375,-0.06116383881446492,-0.4480300485118817
7.0625,-0.655521593422721,-1.788516750760189
7.06640625,-1.120202594460513,0.7102318033426802
7.0703125,-0.408517097317748,-0.3936609982953604
7.07421875,0.2327680508421212,-0.8978414342581273
7.078125,-1.390005237611558,-0.005213794512848038
7.08203125,-0.7914128139316849,-0.2701410696657507
7.0859375,-0.6347243744771716,1.861607968008143
7.08984375,0.14774798633691782,0.07911691344385091
7.09375,0.10406891966052027,-0.5261035819028027
7.09765625,-1.5257616341402331,1.8440221645165233
7.1015625,-0.04686418891407643,0.13330067641884338
7.10546875,-1.4376074295275332,1.2280270340529753
7.109375,-1.2301571823404347,-0.37261485239919856
7.11328125,0.7736156283246977,0.08439230482460026
7.1171875,1.4842301360234869,-0.9452582545144764
7.12109375,0.3832796134941192,1.5027116209839595
7.125,1.5865570444947208,0.8405668035559655
7.12890625,-0.8247347961013719,-0.5405928199898229
7.1328125,-0.49703623483692394,1.183198698365661
7.13671875,0.06827872326896642,0.27099940585739246
7.140625,0.03594144617599244,-1.3729347214811645
7.14453125,0.9784861465276413,-0.2007161853289647
7.1484375,-0.7097693310029626,1.200222033539832
7.15234375,-0.6091248682459807,-1.3448005631406275
7.15625,-0.26958648219027925,-0.9619735152323484
7.16015625,-1.4296969524592824,-0.8526095687235473
7.1640625,-1.4469044892437786,0.04699459757164916
7.16796875,0.819822373224842,0.2414594660259932
7.171875,-0.6004257742943532,0.6136683454446229
7.17578125,0.8313011972168163,-0.3213611226346664
7.1796875,0.6919951707244343,1.1788262829609915
7.18359375,-0.756531137132261,2.1755883729865424
7.1875,0.9627544864762716,0.2855981813840242
7.19140625,1.1587890979114237,-1.0350743632137573
7.1953125,-1.165398101668024,1.2457322759721052
7.19921875,-0.5018143397244894,0.0966633686335134
7.203125,1.879578105432769,-1.594345643949814
7.20703125,-1.3512728222308605,1.218144874673885
7.2109375,0.6240015191796251,0.9844403224126163
7.21484375,0.8078925301449245,-0.7846596573812313
7.21875,0.4480224487944347,0.5609785414120615
7.22265625,-0.3917661297874854,-0.6729237011116567
7.2265625,-1.2752125514437163,-0.2316454376276075
7.23046875,-0.6540902944761917,-1.028749656524369
7.234375,-0.16889487798653857,1.0090561871896497
7.23828125,-0.5954137215202271,-0.7814184175402723
7.2421875,0.39616221328807394,-0.4643083488224472
7.24609375,-1.4679033130667032,1.5453208014727775
7.25,-1.5150084641172072,-0.9720582804803067
7.25390625,-0.7096929058255914,-0.015773555372730508
7.2578125,0.6068474426491354,-0.5339958880914335
7.26171875,-1.506470222601956,-0.7610973847857764
7.265625,1.19957417738732,-0.9427733482917592
7.26953125,-0.6021292444674725,-0.9465118747419695
7.2734375,-0.21076923086674665,-0.7364499352951801
7.27734375,0.9927510601083112,-0.7129817237837858
7.28125,-1.1515493936789027,0.106566382162422
7.28515625,0.11941846979349212,1.0657326748782459
7.2890625,-0.9964563331428572,0.7400593674275584
7.29296875,1.6475262220332751,1.3865523498183283
7.296875,0.11238383468010255,1.0866903019110916
7.30078125,0.35567682177197296,-0.16197955960310653
7.3046875,0.5611879773643642,1.89658006401753
7.30859375,-0.4567613442926897,0.7218897652160323
7.3125,1.1154207638376255,-0.6628053381390903
7.31640625,-1.9471475020492859,0.4151582045107742
7.3203125,0.2128500862805334,-0.5336497043295202
7.32421875,-1.218636041082223,-1.7846335955445845
7.328125,0.2732717996498673,0.9079284777594244
7.33203125,0.8612847393002341,3.442542599139947
7.3359375,-0.606335673752772,0.15111057934982497
7.33984375,0.7838201537481516,-0.13450449625593433
7.34375,-0.11869439190857482,0.7396434583806618
7.34765625,-0.3119664958323321,-0.4209239360918927
7.3515625,-0.009079329939188686,-0.9332210065498355
7.35546875,0.6247366313746733,-1.1574475317112918
7.359375,0.5170893895308991,0.668886413074401
7.36328125,0.004099367244425074,-1.2016471902002246
7.3671875,0.7394687711958046,0.3804474959200704
7.37109375,-0.24274150371658335,0.4058341269822393
7.375,0.9912651768953378,-0.24094746629447827
7.37890625,-0.08382128035572423,-0.342342472615888
7.3828125,0.19480701402605435,1.2476120624039289
7.38671875,0.5067472441314761,-1.6229773001242094
7.390625,0.6729940781366651,-0.1779432519776866
7.39453125,1.0504964275601976,0.9415017043654405
7.3984375,0.48323124840123105,0.23701566884038044
7.40234375,1.2939180167088187,-0.30467897059821203
7.40625,-1.786847630339883,-0.36845973673529125
7.41015625,-1.2943112286108502,-0.15778204026123036
7.4140625,0.31512830482301474,0.38950354384503505
7.41796875,0.42844189271191563,0.11623664124320986
7.421875,-0.4451340033907548,-1.3439842957309107
7.42578125,-0.40964369334934164,-2.7300549941744734
7.4296875,-1.5295630777488338,1.4304698167542762
7.43359375,-0.6384292881642202,0.17136690659135256
7.4375,-0.1522624199961328,-2.3480036777912803
7.44140625,0.6849807975677736,0.44127204558313937
7.4453125,0.6572519772239322,-0.6401561397378085
7.44921875,-0.523477177957122,0.5638295935593012
7.453125,0.7923529397108929,-0.19363816334438
7.45703125,-0.1317322060144379,0.394059452266643
7.4609375,2.156709911993554,-1.128934514948657
7.46484375,-0.33988990154010695,1.5026259151677874
7.46875,-2.399463000068373,0.4110509790727052
7.47265625,-0.3287821612962421,0.2908121221911558
7.4765625,0.5909992802728328,0.19454543228159188
7.48046875,-1.305656795805761,-0.8031712952491977
7.484375,0.7467528244676382,0.1919860215841529
7.48828125,-0.5184527374681316,-0.09166487424555628
7.4921875,-0.8124776798489566,0.9244913671938015
7.49609375,0.9359927656925519,-0.030554410957187743
7.5,-0.7769348878291885,-1.7081001704860428
7.50390625,-1.0608602808099785,1.5160150088762734
7.5078125,-0.9100088080239261,-0.004558936431934743
7.51171875,-1.7860039617107208,1.042031670469417
7.515625,-0.5963702286133724,-1.3108544842398049
7.51953125,1.178713067506298,-0.062472986209674855
7.5234375,-0.9131568633507718,-0.5538749783730392
7.52734375,1.7254795442530488,1.0097802191093312
7.53125,-1.2597229748492984,-0.20191865530192332
7.53515625,-0.5130100732571385,-1.3550943448750472
7.5390625,-1.9164070432450335,-0.6351350327459366
7.54296875,-1.3685550813159804,-1.0088794226037812
7.546875,-0.39424147378989777,1.2033843127603365
7.55078125,0.8920438337397821,1.7141646933464798
7.5546875,-0.9904668537861917,0.019669670154176776
7.55859375,-1.1740996898722114,1.8239098891267014
7.5625,1.453279641846362,-0.18847781459417284
7.56640625,-0.2773352339504825,0.26492388874217737
7.5703125,-1.6910352547184968,-1.585487909764146
7.57421875,-0.7802383774342004,-1.405077037421851
7.578125,0.9617701258095014,-0.6196609267688087
7.58203125,-0.49862943613459604,0.41291198755274555
7.5859375,-0.49580960464733065,-1.8211055026892666
7.58984375,1.8078672756391272,-1.434755400056778
7.59375,-0.2139745293067288,-0.5812796856903784
7.59765625,0.15050860864370766,0.11506491605766267
7.6015625,-1.9118586381136966,0.8639765507760246
7.60546875,0.44394967865792795,1.5415141299638122
7.609375,0.3899359829415785,-0.6003512687033501
7.61328125,-0.4349573785728144,-0.37153774462609745
7.6171875,-1.4550702718151276,0.7373948091793842
7.62109375,1.3768722557854824,-1.0462566015049928
7.625,0.17528304987381282,-0.7421648182576255
7.62890625,-0.3139276449219333,-0.7510341395707814
7.6328125,0.8863697649170618,-0.5091631979727566
7.63671875,0.2298141445302898,0.6075564332673055
7.640625,-0.49019309203100875,1.7097999829991708
7.64453125,-0.4416276183648343,-0.11078730633256681
7.6484375,0.904411240013938,0.3345834328860295
7.65234375,-0.6667015043801224,0.7743514654412076
7.65625,0.14023163706308506,-1.2962509772684867
7.66015625,-0.03293070762052884,-2.1919678862816547
7.6640625,-0.2669236020577718,0.3018206253157147
7.66796875,3.6775727200358106,-1.4226746165510555
7.671875,-0.9733650152694565,-1.3347626441035731
7.67578125,-0.842911475995458,0.8875107977064555
7.6796875,-0.5691335217911879,-1.0063749298603246
7.68359375,0.42844701005975994,0.7861975878360175
7.6875,0.5359842296731553,0.38476321531617974
7.69140625,1.335912626519774,-1.4729281186540322
7.6953125,-1.5687648009588326,-0.7325720057784606
7.69921875,-0.8873284311738923,0.3734263018920398
7.703125,-0.8866081460745006,1.61567648948748
7.70703125,0.2890152257049398,1.4698363340290834
7.7109375,-0.0942057421041282,-0.7391232662915463
7.71484375,-0.8874843818068744,2.1660795286719825
7.71875,0.588446460728961,0.5121297216076589
7.72265625,0.4465081247127889,-0.26979313875316946
7.7265625,2.128036460061696,-0.5841049181952711
7.73046875,-1.447555458879737,1.5735230402341132
7.734375,-1.0972541163538179,0.20340774033107023
7.73828125,-0.7936044371287602,-1.3489884048885887
7.7421875,-0.15995701452349032,-1.3837240330340788
7.74609375,-0.7100871176769811,0.5037091740259821
7.75,1.036436672454117,-1.2391817663079447
7.75390625,0.7623845725860535,-0.5122472356863988
7.7578125,-0.7585815667266734,-0.593683580028446
7.76171875,-0.584744928979328,0.7577924604821379
7.765625,1.9955443404921263,0.5111162089986782
7.76953125,-1.6415318817934414,0.6474483448135014
7.7734375,-0.02410069789080058,0.6857530136967751
7.77734375,0.6303188557245782,0.3156376017726831
7.78125,-1.8014844985052585,-2.0897219740437594
7.78515625,0.009765389316793842,-0.9062592986703533
7.7890625,-0.23456746175304002,1.1784612919099158
7.79296875,-0.7944043461485617,2.260910995962157
7.796875,0.4045031900491201,-0.2939394773167127
7.80078125,-0.03732914736336409,-0.5144597403525925
7.8046875,-0.5277351131611308,0.2932807828538213
7.80859375,0.21366091806525175,0.4901878888528122
7.8125,-1.5958756311335833,1.3145345767075278
7.81640625,0.7162662830894309,-1.2529761931366798
7.8203125,0.8204260167659865,-1.9783700142048768
7.82421875,-0.631350163701435,0.6537419929929968
7.828125,1.4163751784425929,1.6738648825995834
7.83203125,-1.5739657689085285,0.46601868232264826
7.8359375,-0.4966309468388167,0.27335231734271337
7.83984375,-2.2731361858658357,0.24718975964499973
7.84375,-0.370130262238273,-0.09930878313492779
7.84765625,0.03865422422186008,-1.643909658102764
7.8515625,-1.4031826409223382,0.41421842685817395
7.85546875,-0.1107669698734979,-0.9899101255275479
7.859375,0.09654308463195402,-0.3749541211444503
7.86328125,-0.6600692424304802,-0.6289593775083129
7.8671875,-0.14420615246266397,0.049102892220434444
7.87109375,-0.28415997728670045,-0.11000238000950055
7.875,0.11372984402532528,0.09961688226241269
7.87890625,-0.7805233536410867,0.47682922781137466
7.8828125,0.5746034215493677,0.01089287187499695
7.88671875,3.689813664313382,-1.2159571962068545
7.890625,-0.5936344844821387,0.17439052852616005
7.89453125,0.5524233375774601,-0.8271371612613229
7.8984375,0.15333496966032598,-0.296892359131977
7.90234375,-0.19567191397171807,0.07414702722747098
7.90625,-1.6081123571178235,0.8850178223390655
7.91015625,-0.7385426141011024,1.2196953125066217
7.9140625,-1.1211921500738211,-0.6429634779966841
7.91796875,-0.16793600245243057,-1.1368756606698207
7.921875,-0.7791422028887606,-0.1930602018470306
7.92578125,0.11814171051622212,-0.44277754345674003
7.9296875,2.2657658980366184,-0.7500798700876089
7.93359375,-0.09711697708828956,1.0602096734652338
7.9375,-0.34231019462484286,0.4013133835529726
7.94140625,-0.30878590078351953,1.1433874981288814
7.9453125,-0.05329964888286207,-1.652630143132258
7.94921875,-1.494012640493788,-2.3240719305404065
7.953125,1.713252738749675,-0.8163394684744437
7.95703125,-0.8991480651557962,-2.0311493742420486
7.9609375,-0.3648753754073136,-0.8042561050326168
7.96484375,2.026805768497391,-0.3186342126121347
7.96875,-0.7983691814012991,-0.11807690962576421
7.97265625,-0.9147179067087667,0.46472498357124514
7.9765625,-1.2131175145235988,0.764761541825976
7.98046875,-0.08459577496604935,-0.9916977275727754
7.984375,-0.21095449856368698,-0.5293874779193123
7.98828125,-0.8176626234454343,-0.1780179781162172
7.9921875,-0.448906436942406,0.6884527211462509
7.99609375,1.0037043286007346,0.9912572506501414
8.0,-0.46605729946159086,1.5004518609875208
8.00390625,-2.0876505292550056,0.5674134421911972
8.0078125,-1.0208566721899628,1.4729151385963897
8.01171875,-1.1295878251943008,-0.3607083794722047
8.015625,-0.4812766061261748,-0.2556796555116073
8.01953125,-0.06269215734891252,-1.5491634289062446
8.0234375,-0.5107283654103769,-0.2095055676005059
8.02734375,-0.9573836313120534,0.6747799810243488
8.03125,0.8215247369193246,1.067156151931182
8.03515625,-1.02182451268931,0.5294168350253429
8.0390625,-0.16417718806449863,0.6905858949846589
8.04296875,-0.3083743829431355,0.19582858499828956
8.046875,1.052563263508483,-0.2978386898985871
8.05078125,-0.08936625709269427,-1.7163124414880908
8.0546875,0.7818899678067585,-0.561203509529174
8.05859375,-0.6373368517145079,-1.13389392973307
8.0625,-0.7776495528048499,-1.153383098704687
8.06640625,0.5268913857499842,-1.2826460601410508
8.0703125,-0.4661162025009952,0.1180751123312811
8.07421875,-0.5926377209795175,-1.6966418010696434
8.078125,-0.04696530923440043,0.2732824598119498
8.08203125,-0.2742260837620808,0.6651911530376213
8.0859375,-0.27160964964896633,-0.07163633586103904
8.08984375,1.6161727868657019,0.22213996221780746
8.09375,0.25579837092925695,1.5465236608820996
8.09765625,-0.5959724932003482,1.2594622785331824
8.1015625,-0.03864290698471189,-0.7929231254916602
8.10546875,-0.376605606820306,0.10421860031775443
8.109375,0.01195545227796896,0.6927349485360299
8.11328125,-1.3317256239133497,1.1381983224861258
8.1171875,0.15973863362786525,1.194809313072485
8.12109375,0.45689291468361987,-0.22453655116626364
8.125,-1.5218999914009073,-0.37173495944739277
8.12890625,0.7474142181222185,-1.061455329397334
8.1328125,-0.09877524833966077,-0.6295298365594895
8.13671875,0.12530606942018682,-0.5173369279358658
8.140625,0.6804547987003934,-0.5261473157874685
8.14453125,-0.3482237317017414,-1.2867323928378864
8.1484375,-0.5685578056021643,-1.399161328169145
8.15234375,-1.8253895438291246,0.21610827008388261
8.15625,-0.5669064430212486,-0.5234890803318075
8.16015625,0.2930061602191841,0.505616849411244
8.1640625,-1.0288220121296883,-0.6163299438747001
8.16796875,-0.9728712623784661,-1.2393310095252001
8.171875,-0.47222677567020177,0.6456922762691235
8.17578125,1.457209254494994,1.0791910676911074
8.1796875,-0.2509430742223053,-0.5260763792764792
8.18359375,-0.5029786898168455,-0.5021519538140499
8.1875,-0.21851345397388247,1.0008431890925678
8.19140625,2.617260227799895,1.0559071188772629
8.1953125,-0.28196343495255577,-1.6466259359393276
8.19921875,0.4475276798417522,1.9126431294436046
8.203125,-1.0664119190774795,0.23095913278941504
8.20703125,-0.6386115062671835,-0.650498012674762
8.2109375,0.8390546081304113,-0.48894258519539274
8.21484375,0.43387386659586574,1.87762141535837
8.21875,0.06663577054354486,-1.6704362812925155
8.22265625,-2.5161004983653323,-0.286547760618045
8.2265625,0.38005088633094486,-0.16580557301619891
8.23046875,0.2564694547628729,-0.8995952310378509
8.234375,0.9377859593624417,1.3974959114036682
8.23828125,0.04728905912584872,0.9935007763934617
8.2421875,-0.7832573233284159,0.19704239613378716
8.24609375,0.21806843941044934,0.8722692001504637
8.25,-0.16662648006639857,-1.319095012123846
8.25390625,-0.26388489852036257,0.8410625009863325
8.2578125,-0.4573329257727377,0.7582447238242468
8.26171875,-0.2262738485392542,-1.930299432882504
8.265625,-1.051820688137507,-1.040205126079902
8.26953125,1.0478760426412386,0.6983197549209489
8.2734375,-1.531007345201587,-1.1481232436546418
8.27734375,0.7386691911376617,-0.2825426831891303
8.28125,-1.592046229277598,-0.3582585062742685
8.28515625,0.28919045037930224,-0.8020443182758586
8.2890625,1.792110952743614,-0.23425196914742244
8.29296875,0.7908729566775113,1.5770536436086782
8.296875,1.4122457604903333,0.38096945714308345
8.30078125,-0.4205363424141185,0.4335213572315705
8.3046875,0.47200738325895236,1.5230146074971191
8.30859375,0.8748784746828453,0.6987071576422419
8.3125,-0.260732639539025,-0.38590739693379295
8.31640625,-0.8226159785141834,0.10606690155868383
8.3203125,1.1260237244912183,-1.9907557687829849
8.32421875,-1.0124811111396606,-0.6209271205039529
8.328125,0.6064571792605297,-0.2849361669303389
8.33203125,-0.19526286841299564,-1.1868418547014432
8.3359375,0.37920231016092637,0.7428998469347367
8.33984375,0.3250354412444961,0.1973701790814849
8.34375,-0.6570452451308527,1.562315270398157
8.34765625,0.639963327828589,-0.5314776467835371
8.3515625,-0.7674719718224269,1.454292320129808
8.35546875,-2.281948779241833,-0.3916693205444731
8.359375,-1.299426049427614,-0.30810811321241105
8.36328125,-0.7235805136631764,-1.1838026777602368
8.3671875,2.741503587027994,-1.2862308345940667
8.37109375,-1.001750478808401,-0.08006990869297774
8.375,-2.530186357866584,-1.6119930959659614
8.37890625,0.5675189421737978,2.133047027184783
8.3828125,0.46379135133828714,0.14694706716408515
8.38671875,-1.4792553983869663,-0.4910662106481565
8.390625,1.8501539093181303,0.8289373101131577
8.39453125,-0.057928510071348485,1.5269708216223994
8.3984375,0.08048422405156361,0.45280672852379583
8.40234375,1.2726417335983515,1.9046639617849075
8.40625,0.4171384250714409,-0.8373056795750274
8.41015625,-0.5311073838979199,-0.14012223650665792
8.4140625,-1.4392119706079547,-0.5751260231958523
8.41796875,-0.3279885319094713,-0.898161726723356
8.421875,-0.47482653181695583,0.9332243829807987
8.42578125,1.1797805423051442,-0.30125705711179324
8.4296875,-1.2470318624829735,-0.0429890596151146
8.43359375,1.27028747021685,1.8437831592724108
8.4375,0.995370002960205,0.7770743129395558
8.44140625,0.9169041503518239,-0.5214203634472644
8.4453125,-1.8261844197900579,-0.07141277376407933
8.44921875,0.35513213630548973,-0.24875458420341012
8.453125,0.7061641678253234,1.8841668423043902
8.45703125,0.7238383481187339,-0.40973765140864543
8.4609375,-1.0535981561731294,-0.6978968984891522
8.46484375,0.4441980642616709,-1.4552366140305633
8.46875,2.1058593095390634,-0.39564163092500365
8.47265625,0.6296119397065586,-0.6233304611131565
8.4765625,0.3955980274428742,-1.1772748936624033
8.48046875,0.5714228962285206,-0.16647711956291397
8.484375,-0.4546238972677523,-1.1417913906125432
8.48828125,-0.2655271739192186,0.4187828618689487
8.4921875,-2.1270714177469423,-0.314830256276767
8.49609375,1.2389788069515997,1.6674430769290536
8.5,0.11154242819985263,-0.9312205914557831
8.50390625,1.607908527454833,-1.5175911977604208
8.5078125,1.1693296008231695,0.57803058613139
8.51171875,-0.2709410329560972,-0.24160484562338833
8.515625,0.8752812957409855,0.5097978186380574
8.51953125,-0.11305148299521775,-0.5381462372375888
8.5234375,0.395591278570477,-1.2457227726217248
8.52734375,-0.11058960628382339,-1.5273955846360243
8.53125,0.13644972711500583,2.363311478432564
8.53515625,-0.6336226972655175,-0.9017568575690911
8.5390625,0.106896327169031,-0.41685904390444734
8.54296875,-1.3173662889606275,0.1726418497106582
8.546875,-1.1923281802965902,-0.3789069792987784
8.55078125,0.02340730444308702,0.25351279352666534
8.5546875,1.476642293844191,1.0942749526169562
8.55859375,-0.11007953289312465,-1.2012781470374894
8.5625,-1.7314825422991658,-1.0777410526233262
8.56640625,-0.4865831805941163,1.31597762637849
8.5703125,0.2866157817958741,-0.36094280496263864
8.57421875,0.27380435550364,0.215993711183452
8.578125,1.4922916963686874,-0.770306571588475
8.58203125,-1.13439969853488,-0.029334055952384454
8.5859375,-1.2574097684182985,-0.09468561900975395
8.58984375,-0.6099255186002888,0.9173113403998613
8.59375,-1.30247887805288,-0.6227182183925206
8.59765625,0.3558288197732962,0.6685318507535711
8.6015625,-0.05249509569998204,0.10905882516436667
8.60546875,-0.15441219581974366,-1.1571942330214966
8.609375,1.1234287365200042,1.4131487090555044
8.61328125,-0.03237838318856375,-1.2906759710667677
8.6171875,-0.2980392415838638,-1.2829164064525984
8.62109375,-1.4276077809362828,-0.9573158416087303
8.625,0.4145085927129289,-0.06906609012761764
8.62890625,0.2683607937749635,-0.5339921819184087
8.6328125,-0.795838755337905,-0.765398103299557
8.63671875,1.9244123239962272,-0.04051760716857211
8.640625,-0.8567994666054666,-0.9160128830786003
8.64453125,0.39166899870535865,-0.48114739445065496
8.6484375,-0.4708084422216603,-0.3214858879445337
8.65234375,-1.1220000549070421,-1.7433908711693162
8.65625,1.5833317696093265,0.3802348827358157
8.66015625,1.4518807995545013,-0.11753199879318721
8.6640625,0.15133652354333896,1.1496487322471083
8.66796875,-0.08811862235147651,0.4429098815253208
8.671875,2.2617312102601352,1.1839946014305707
8.67578125,1.4798589558292767,0.3451247166378286
8.6796875,-0.5037355113412001,0.07801929406121279
8.68359375,-0.6443757519963695,0.416784663091842
8.6875,-0.1458619009167309,0.6389405670850633
8.69140625,-0.4026365861014143,-0.033856928251539985
8.6953125,-0.8139357733350888,-1.7700967561512595
8.69921875,1.0410583561971365,-0.2854309401401527
8.703125,0.8859919687229565,0.08858661140689389
8.70703125,0.08802094614570799,1.8178890093197793
8.7109375,1.9653186011414607,0.4104272858882017
8.71484375,-0.2974458204128374,-0.8050108693326086
8.71875,1.437286555704084,1.9889376174255866
8.72265625,0.47693035261689676,0.49713660412830335
8.7265625,-0.4162389140810196,0.8580667577363973
8.73046875,-0.9424688073685527,-0.27470743687566523
8.734375,1.9933381581796694,1.5969425145002631
8.73828125,-1.1100873444205743,1.7108608656734443
8.7421875,0.23344981023715133,-0.6202722183920316
8.74609375,-2.5767099531403312,-0.8478594079562168
8.75,1.8574284357474733,-0.3674447372786853
8.75390625,-0.030845105782494435,0.9673889765928751
8.7578125,0.07614553212751703,-0.09034957406576272
8.76171875,-0.10935203293058895,1.4250927284994053
8.765625,-0.6183170890592062,-0.06699891057701497
8.76953125,0.6606977719980728,0.25484582157211527
8.7734375,0.8187324346491829,-1.3530178087887585
8.77734375,0.9523893299672859,-0.13245546578464595
8.78125,1.3818468062262903,1.8143685625478936
8.78515625,-0.27805351886642876,1.6077739571772487
8.7890625,1.1486689295588757,-1.4509195004572035
8.79296875,-0.10893687156305926,0.07326914053292947
8.796875,-1.5033248430911315,-1.137286469804996
8.80078125,0.7240078912506103,0.1104099753665182
8.8046875,0.4792616152316066,-1.5809109584377758
8.80859375,0.8508288441546045,0.2038957339904826
8.8125,1.554133757896677,2.7319216806263653
8.81640625,1.121288831720715,-0.8063801750500915
8.8203125,2.131734637956363,-0.8291813335711316
8.82421875,-1.281494364812716,0.7028414615492456
8.828125,-0.7971967423349826,-0.8368126086285833
8.83203125,0.22163542573040132,0.06274666365553311
8.8359375,-1.0866987222091922,0.39420041203432526
8.83984375,-0.9525376424652627,0.14576346116474712
8.84375,0.9076061533576846,-0.7756397387107412
8.84765625,0.8068863726795169,-0.5444900239023055
8.8515625,1.6441926264180915,-0.28623389258446935
8.85546875,-0.3928724820056982,0.2141135130182897
8.859375,0.6177975823396605,-0.6787795944366573
8.86328125,0.6093126628042377,0.5024091344962515
8.8671875,-0.22335396218698905,-0.25819733571066517
8.87109375,-0.9852343950206235,-1.019514396834314
8.875,-0.38430000793028407,-0.9992380704229423
8.87890625,1.5538723318055994,1.505689451501888
8.8828125,-0.14072095555918063,0.38470722702022986
8.88671875,1.224267710753235,0.7595259233304189
8.890625,0.04834977759709681,-0.15433153003510378
8.89453125,-1.105982568564792,-0.07318792125941655
8.8984375,0.7084904458545855,0.6787820237574151
8.90234375,0.7742207366208099,-0.1061518493440269
8.90625,0.9349150272973373,-0.20871403209058562
8.91015625,-0.08052821378245739,-0.6177580341699207
8.9140625,1.499002130028493,-2.581079007759839
8.91796875,-1.1668831432975486,0.3322965108211682
8.921875,0.2168424100356936,0.6753599679819368
8.92578125,-0.7452123100367396,-1.2437083565253861
8.9296875,-0.21382541322118273,-0.4126724164921645
8.93359375,-0.8911210099190714,-0.21387467975196334
8.9375,-1.1624462805043354,1.3281823605192093
8.94140625,-0.8539430695537106,0.27346039081333284
8.9453125,2.312557711500374,-1.391885122386829
8.94921875,-2.2693925071755032,-0.45684109977586473
8.953125,0.6169332086069161,0.6175889429515096
8.95703125,1.1327913596306827,-1.423409472929864
8.9609375,-0.38532806138484565,0.7489650122686488
8.96484375,-1.5940420634253407,1.295918289280541
8.96875,1.2785192438570003,-1.4824377022569522
8.97265625,-1.0950378879266007,-0.44070440805450395
8.9765625,0.3057769947407703,0.3702508767519707
8.98046875,0.9884583512848045,0.7994984807796954
8.984375,-0.813409944338906,-2.031677513483205
8.98828125,0.39853500576066575,-0.4118204199416103
8.9921875,-0.1416714257534526,0.3851709434287733
8.99609375,-0.23248255947656787,-0.2143064346132163
9.0,-0.049232772839132403,1.5376435824369838
9.00390625,-1.6959164354734906,-0.9593428141011889
9.0078125,-0.6569154149964423,-0.5231756269732692
9.01171875,-0.03842570085659648,-1.4729854387370305
9.015625,-1.2419623847693335,0.20733572410572063
9.01953125,0.4870500087434648,0.010684277324029703
9.0234375,-1.3452024991583866,-1.4434737172067496
9.02734375,-0.5925528092792535,-0.24508351941031314
9.03125,0.2940935991136609,-1.1300964673445604
9.03515625,0.5248835177001437,-1.769393350307993
9.0390625,-0.23205382165636243,0.7004865215131921
9.04296875,-0.205789629254183,0.050440646814432145
9.046875,0.6099735663665855,0.24474217714932717
9.05078125,1.2601732045707674,-0.3726844089299273
9.0546875,-0.24451835696245433,-0.5275144858982622
9.05859375,2.0095195322599944,1.4636561617316373
9.0625,0.2366611411829184,0.5543245678735228
9.06640625,-1.8119738345484058,0.30607998400884284
9.0703125,0.17850030149413518,2.0762352149292482
9.07421875,1.0183713016662015,-1.8742915683764882
9.078125,-2.174432746217845,-0.3966789438081967
9.08203125,0.19713910738638807,0.621742177315465
9.0859375,-0.5931860049698385,1.2838923932300292
9.08984375,0.9426729482556142,-0.2869773067260322
9.09375,-0.9570080033841795,1.7654228730363843
9.09765625,0.32070537363473817,-1.0381132419001757
9.1015625,-0.12235111221954907,1.2093452487901193
9.10546875,-0.032292599274716706,0.19966942605753918
9.109375,-0.11939847063350596,0.1471675184770332
9.11328125,-0.07253884094381548,-0.7112842051328963
9.1171875,1.0225391335297271,-0.0014066227189008119
9.12109375,-0.13948113881060722,-0.5101294576227826
9.125,-1.2072995550932042,1.0758917832983081
9.12890625,-0.3238177185147509,1.2344259951450252
9.1328125,0.9296491407034319,-1.1115671690133864
9.13671875,0.5290449102939659,0.6686643368672541
9.140625,0.5808778158369899,-0.8504323719041541
9.14453125,0.37772530430246154,0.5867085164866374
9.1484375,0.846899934704757,1.7005790454678615
9.15234375,-0.42081264134573104,0.9649262034960991
9.15625,-0.25097322997799665,0.7709854584616257
9.16015625,-0.4909910934874649,0.8981916019653291
9.1640625,0.7249295124592889,-1.6880340246211432
9.16796875,0.06213082491119763,0.4329386563536006
9.171875,-0.4775269980438251,1.782505932244507
9.17578125,0.06085784764838656,-0.1704301114955929
9.1796875,-1.7525234345127065,0.28688361751385844
9.18359375,-0.9741509374522682,-0.45280517436976103
9.1875,-1.142053204482576,-0.753220307816108
9.19140625,0.6392828015932885,0.9789808104716503
9.1953125,-0.8249173497498516,-0.7590364369441169
9.19921875,0.4115833135378681,-0.15755616769480515
9.203125,1.9669479498824123,-0.6245265731326018
9.20703125,-0.6488891484310131,0.46093791847479587
9.2109375,1.468452297631467,0.5554631199960304
9.21484375,0.7630413282525336,0.00482868199504643
9.21875,-0.20218363287453514,-0.3818400372925667
9.22265625,1.4823405072917684,0.6841851610760862
9.2265625,0.2704363724474021,-0.009769549945488112
9.23046875,2.007135643541045,-1.041688774800257
9.234375,2.297423363855151,-0.44435603454383665
9.23828125,1.6590518491232336,0.051784018368022225
9.2421875,0.7370222374665198,0.3703105261723107
9.24609375,0.24225717109199743,0.6806576365327393
9.25,0.6217857712726809,-0.1161087052413652
9.25390625,0.689128653825953,0.8141323493448488
9.2578125,1.5256277138191217,0.7362958868264062
9.26171875,0.16702096815806808,-0.6730321593938672
9.265625,0.568296805442035,1.3674231756160324
9.26953125,-0.2874545278990047,-0.09585526093900368
9.2734375,-0.5315668993808047,-0.7007388209658701
9.27734375,-1.3259720414582798,-0.09850246491131148
9.28125,1.4934576321532196,0.6181747016123311
9.28515625,0.2575719100562421,-0.8055106269004346
9.2890625,1.6866450713578847,1.2067860361448808
9.29296875,-1.8973897738944656,-0.1402536821374292
9.296875,-0.7385795699747265,0.18035464580446323
9.30078125,-2.0946349354618605,-0.2639682177940902
9.3046875,-0.3382857602989797,0.3461407169804148
9.30859375,-1.1699347148209462,-0.6323103453208694
9.3125,0.8777876147857502,-0.5357711637819589
9.31640625,-0.7715483844221566,-0.11886742984957402
9.3203125,-0.24084126060039893,-1.3266058397611926
9.32421875,-1.3218644069098662,0.8097148262845105
9.328125,-1.356701669668505,-0.36352453223744285
9.33203125,2.2225520833894814,0.23876409345449082
9.3359375,0.7438404217066461,-1.0348056017113487
9.33984375,-1.3290116730341381,-0.2324380933783671
9.34375,-0.3960186922704917,-0.24491554907100932
9.34765625,0.24047930181403723,-0.117772697234987
9.3515625,1.918302912250239,-0.7526674520948362
9.35546875,-1.3373426107419844,0.1652492394008286
9.359375,-2.109949068927528,-0.6606322351729954
9.36328125,-1.6507616784346133,-0.6933041539461366
9.3671875,-2.095927662144578,2.2305007058599697
9.37109375,1.5673390102578848,0.11123317913343925
9.375,0.3682601482413411,0.700846950357137
9.37890625,0.5731251488397053,1.4967978508696733
9.3828125,-0.2165603802445779,-0.1039326869175689
9.38671875,-0.4486445986774587,0.9458603026387301
9.390625,0.3865235016001298,1.7884440564541915
9.39453125,0.3790506912375466,0.42874308935265815
9.3984375,-0.7415746300475046,-0.314998118242335
9.40234375,0.6765169563423613,-0.7352082917755152
9.40625,-0.9140590402437657,-0.7928366078891531
9.41015625,-0.03036058898554718,0.17985945899981606
9.4140625,-0.014559555321568272,0.9210457858189389
9.41796875,-0.044762952046561444,-0.08696064265093406
9.421875,0.6834480068921814,0.4285521089173699
9.42578125,-0.7439537293625573,1.7612005998989393
9.4296875,0.8059033557871292,1.1281103131119918
9.43359375,-0.81344930749574,-0.7131045624018753
9.4375,-1.7035920104505962,-0.7588842655048542
9.44140625,0.360657599445053,-0.3827447303395145
9.4453125,-0.9422806348942651,1.0966249474232281
9.44921875,-0.7183106354469585,0.0550051127846918
9.453125,0.6444796388796254,1.4559579927610793
9.45703125,1.708766227111165,-1.6051056388039837
9.4609375,0.14376989845256818,-0.7806228724780766
9.46484375,-0.30420615592964123,0.39127260559531846
9.46875,-2.155909989308211,0.6180121240691732
9.47265625,0.5777086599839022,1.1851685355474453
9.4765625,-0.0726570046870304,-1.076437533860495
9.48046875,1.0809376678367306,-0.11571125401970486
9.484375,0.2789546566527287,-0.9654202385864742
9.48828125,-0.7062759689052742,-0.9129088281800565
9.4921875,0.4518178811039582,-0.45202410819574373
9.49609375,1.4178727821697938,0.91568450878277
9.5,0.5897916259603374,0.8048567940942432
9.50390625,-1.0834285218564041,0.2095419278424938
9.5078125,-0.8370299891323381,0.2816937974275817
9.51171875,-0.57283640055366,-1.4830886259873528
