time,ecg,ppg
0.0,0.6445328738385842,-0.1375459846193843
0.00390625,-2.156281499565441,-0.15134022240796013
0.0078125,-0.5170559068076713,0.012101612037614548
0.01171875,-1.6466287160638344,-1.5799879026063481
0.015625,-0.28501237433330134,0.22415195086209597
0.01953125,-0.4378172641438441,1.0803028758184132
0.0234375,1.3139813286302837,1.5358334081760099
0.02734375,0.4588110142824024,-0.4406529281288286
0.03125,-0.16378078370449606,-0.6243674240308814
0.03515625,0.7749217852504056,0.5983330025114071
0.0390625,-0.8378459854556801,-1.1556839945134896
0.04296875,1.9560186643212634,0.8612969349621077
0.046875,0.5053330766026706,-0.1542618520905796
0.05078125,1.0655587812757368,-1.1711590481048983
0.0546875,-0.3326062945264946,-0.816462321511473
0.05859375,1.5364403871825325,-0.451399646967456
0.0625,1.0372124700007876,0.3289552749068462
0.06640625,0.4055017975033113,-2.0105387342230574
0.0703125,-0.6305269240915831,1.3247587909695229
0.07421875,2.530124152334141,0.8483342525629713
0.078125,0.05846754644745649,-0.27782476375766757
0.08203125,-0.5560666967303831,-0.5946569156385259
0.0859375,-0.2615036963493403,-0.30098490637058
0.08984375,0.2835480089762433,0.819232638867718
0.09375,0.20088484442327,0.39244237304035756
0.09765625,-0.9599929605526082,0.23479863701920767
0.1015625,1.3365160368592712,-0.9533687420480623
0.10546875,-1.6228313871901276,-0.8488241590726979
0.109375,-0.04553864537053572,0.572635802114371
0.11328125,1.1254950173216274,-1.360261018242021
0.1171875,-1.657848142512542,0.14648670302117173
0.12109375,0.7586306791199627,-1.4274532231990493
0.125,0.05006867616535121,-1.145225968944705
0.12890625,1.9358062456549008,0.37500022726658494
0.1328125,-1.768943758439224,-0.27472588229043005
0.13671875,0.10539317543181542,1.9084900886629332
0.140625,-0.8820906755580485,0.5298491079089038
0.14453125,-1.0367089918270938,-2.48127086166164
0.1484375,-0.006510435567540844,-0.9419098683756849
0.15234375,0.335541404836123,-0.44540664951434406
0.15625,-0.2232491186862908,1.057527594855626
0.16015625,0.42276383736428275,0.3682696244782442
0.1640625,-1.1314179494440606,-0.6148936359715269
0.16796875,0.33528313258723225,-2.638690666662248
0.171875,0.07539985234161378,0.026376673242269316
0.17578125,0.5688499329434432,-0.8516351595884436
0.1796875,0.5739216767300171,-0.43320746731792664
0.18359375,0.7049919253096476,0.16062174598627976
0.1875,-1.2004129550469704,-1.612972452166149
0.19140625,-1.151010134220978,-1.5435046349484913
0.1953125,1.4943600946955227,0.6764176582405445
0.19921875,0.07164622221944311,0.7715360862272502
0.203125,1.5618323495868867,0.11915151234544129
0.20703125,-0.030756468429209226,1.3835703992663497
0.2109375,1.6078604505929157,-0.4025231173284343
0.21484375,-0.2622637976922392,-1.281323275661665
0.21875,-1.4075048561778147,-2.5017959765455076
0.22265625,-1.3141517415082284,0.25162652900315163
0.2265625,-0.1444371892441352,0.6554349745446485
0.23046875,0.8202709683521157,-0.9210817691597151
0.234375,-0.9265054563646664,-0.5127912263578952
0.23828125,-0.37172034816338445,0.48669196326679426
0.2421875,0.3359926670176305,-0.36013859348683785
0.24609375,1.1245847995465073,1.563030987409259
0.25,-1.6687147547375027,0.7145048705580184
0.25390625,-1.038639812645876,0.16953907270065713
0.2578125,0.8868258441269844,-0.4748194008170305
0.26171875,1.4974288577659207,0.9497412783715901
0.265625,0.845376988272505,1.3358145525834435
0.26953125,-2.0008830320208717,0.21687084617005745
0.2734375,-0.34984731701763805,-0.7225937556997574
0.27734375,-0.5834077048421682,-0.22374234890091452
0.28125,0.39511794736228795,-0.02380909034039203
0.28515625,-0.7187339435797951,0.8289939988906755
0.2890625,0.377820005156141,0.1796816588025385
0.29296875,1.888693514809104,1.5371633152157405
0.296875,-0.553369457479173,-1.0687127189598709
0.30078125,-1.204296752851876,-0.2798531169730614
0.3046875,-2.580217255280638,-1.5602422584736377
0.30859375,-0.6727559270656562,-0.3738821753689168
0.3125,-0.20044542092028927,0.5892649002308811
0.31640625,-1.1202781311516092,0.2689809427918693
0.3203125,-0.23981060258861095,-0.2518011611035676
0.32421875,1.0306780265470301,-0.28279755342929225
0.328125,-0.8852685143160861,-0.17143355990300455
0.33203125,-1.5024521902820778,-0.8493888317441675
0.3359375,1.1326143380181009,0.7906306093067559
0.33984375,0.1546837013268908,1.251695404784003
0.34375,-0.11335611218302193,-1.2848055773550386
0.34765625,0.33446830906602276,0.14799717285133693
0.3515625,-0.913679541434561,-1.2177491160219387
0.35546875,-1.1572078240148709,-0.7046693248915439
0.359375,-0.9850616857566412,1.793384296599516
0.36328125,-0.21207910421282397,0.4250275846350313
0.3671875,0.3300741805498213,-0.8479086113729044
0.37109375,0.3595053626626413,0.08042813668663061
0.375,-1.0038385232690428,0.09997252293584295
0.37890625,-0.07727367846767662,-0.17402547370058363
0.3828125,-0.3486952822565113,-1.0120494647679632
0.38671875,-0.2939654840371038,0.19631455486228244
0.390625,-0.7609982311830177,-0.42998002480493913
0.39453125,-0.40744947608324544,-0.26228970194997003
0.3984375,0.6877793527333731,0.1367033686958472
0.40234375,0.31678547469238877,-0.01404332937054776
0.40625,-0.28864242589210326,0.8443744084088391
0.41015625,-1.8868134527473719,1.4831795976354827
0.4140625,1.1918689183978464,0.34294869937843864
0.41796875,1.4970292029124148,1.2011491526599036
0.421875,0.925638129171744,0.08887149809967819
0.42578125,-0.6336225208592331,-0.711680082868471
0.4296875,-0.6364289985891006,-0.2049834412267929
0.43359375,-1.3370376847420253,0.9545045777542267
0.4375,0.9734150913070726,-1.0503230470101022
0.44140625,0.8460054585037604,0.5168053070213657
0.4453125,1.2297615172441494,-0.0010807543344344926
0.44921875,-1.0526748976034959,0.3194059554877402
0.453125,0.42824152590870657,0.2165774922065401
0.45703125,-0.13054068890057177,-0.4536680014569942
0.4609375,-0.6161541191084672,-0.9170091262149224
0.46484375,1.4913248555179668,0.5260638534603168
0.46875,0.6294593062405389,-0.18772006147383696
0.47265625,-0.8690029032284137,0.8628734040143702
0.4765625,0.22313209575888518,-1.8928971909794066
0.48046875,0.36511017899251014,1.7682086539350221
0.484375,0.32541509209710245,-0.9808751668964613
0.48828125,1.187773621095242,-0.03468886804105564
0.4921875,-0.019355804869482678,1.1269759820420402
0.49609375,-0.8433372037527016,0.8931198546356793
0.5,0.4056981970641236,0.10176506964346965
0.50390625,0.6318071419374346,0.31595377216591175
0.5078125,-0.11067785086161648,0.2889786609842586
0.51171875,0.5136449592036749,0.5292837160590764
0.515625,0.10631428491002184,0.4173606988469832
0.51953125,0.6891393613874913,-1.8892711776053406
0.5234375,1.486718073810942,1.1129480703406862
0.52734375,-2.1174780257684973,1.885697389442082
0.53125,-0.44158652304781953,-1.2502491473219284
0.53515625,-0.6626542780699439,-1.4605412258929567
0.5390625,-2.3510050221493533,2.230191551984122
0.54296875,0.686571154598001,-0.46869192983326285
0.546875,-0.9883369928750327,-1.3217474156599935
0.55078125,-0.9237620334610597,0.9190724123982902
0.5546875,0.8277837517079291,1.822178833994708
0.55859375,-0.609119435431312,-0.564472002110193
0.5625,-0.2306662833370994,0.03695927375938299
0.56640625,0.33401970730066816,-1.0764503642433854
0.5703125,1.506249026040641,-1.1090169540183519
0.57421875,1.0161948222244808,-0.27449207718591945
0.578125,-0.7662244170067912,1.1132066601355826
0.58203125,-1.7572964766497055,-0.8789413570646505
0.5859375,-0.9009354341647262,-0.2352002016905706
0.58984375,-0.4691325731328524,0.6748194275020877
0.59375,0.11625900430432545,1.2476596631687356
0.59765625,-0.9528375206342233,-1.9272537074641831
0.6015625,-1.3903506822773373,0.30568282865272606
0.60546875,-1.1774652581520701,-1.2113238168647935
0.609375,1.431328168180767,-0.41625883590175095
0.61328125,-2.1609520870091177,0.4046239008355466
0.6171875,0.7702481353468555,-0.09429907518149398
0.62109375,-0.534559091316075,-1.7409787149991185
0.625,0.4676249973537857,-1.1023414938702418
0.62890625,-0.23102911721142483,1.1622571545469742
0.6328125,0.4500593387244542,0.597403724483567
0.63671875,-0.7930170669102344,0.24669081675163287
0.640625,-0.07754718605759806,-1.3566675399290147
0.64453125,-0.08246018607320546,-0.5440621536185394
0.6484375,0.7968730537300974,1.2654347778842043
0.65234375,0.04458262024499445,1.0454483711610902
0.65625,-1.6016341270518384,-1.169648686107054
0.66015625,0.3496043849712002,-0.9701595609283084
0.6640625,0.306476673581783,-0.05919663201263705
0.66796875,0.4639172455116226,-0.965362717821056
0.671875,2.3244362176937035,-0.11930884009222244
0.67578125,-0.953456140785243,0.7027268183141648
0.6796875,-2.0473279516203933,1.8236110105488925
0.68359375,-1.6826445837809445,0.5047517035617479
0.6875,0.14424950197842618,0.6246092862829982
0.69140625,0.14485483953425346,-0.4598699609657236
0.6953125,1.4743300071666912,-1.2171436902742725
0.69921875,-1.3953614906719793,-0.7313540833242831
0.703125,0.21959777911391337,-0.6627697822737733
0.70703125,1.3465554852853177,-0.15234846693835363
0.7109375,0.9864057391088527,-1.654068532724678
0.71484375,0.8908728409736325,-1.5362707942332585
0.71875,1.821196810475311,-1.1468872548361495
0.72265625,-1.2013703400199505,-0.24066150285958782
0.7265625,0.03687052782659397,1.5691793382302162
0.73046875,-0.20102854295074837,0.8433941675603059
0.734375,0.12921000028968577,0.3350370563716458
0.73828125,-0.3838721935373413,-1.1892212705313554
0.7421875,0.029731301347501286,-1.2933502894765845
0.74609375,1.730107600840782,0.2180180865404844
0.75,1.11806408452555,0.7583575070314995
0.75390625,0.4489333237274295,-0.5619661859939612
0.7578125,1.0208814262025745,0.7013247073340307
0.76171875,1.2530995097516866,-0.5660268812756141
0.765625,-0.3825823811497382,-0.20598041534305758
0.76953125,0.8487800875396954,-0.14071253318200388
0.7734375,-0.5650838864289013,1.108076652547015
0.77734375,-1.4738303214125175,0.3392614035715345
0.78125,0.6611215542166583,-0.4510874166028208
0.78515625,-1.357440043081333,-1.1665333987194615
0.7890625,-0.05031641699267712,0.8193179072023252
0.79296875,-0.04599695148094802,1.038741071246024
0.796875,0.5824561410852166,-0.8751637740060624
0.80078125,-0.11861318767612479,0.3782587967579482
0.8046875,-0.5610499081311403,0.08501378720128526
0.80859375,0.13200863828472703,0.3589921380365274
0.8125,-0.07957318821798477,0.02599841657808476
0.81640625,1.06535703892724,0.05085516601685226
0.8203125,0.2722733559462212,1.8399836157992675
0.82421875,0.7871461537494135,-1.215292747556463
0.828125,0.5087243046907602,-1.115787397695072
0.83203125,0.27297555690185815,1.1510769902752724
0.8359375,0.030955246409032362,0.8987177950643053
0.83984375,-0.5489413490423375,-1.1058176981141183
0.84375,0.6096423427278622,1.7236635379038205
0.84765625,-0.9762995582455563,-1.5349810110154485
0.8515625,1.2980187328823476,0.4810179645663566
0.85546875,1.6140321316010093,0.48767923511936795
0.859375,-1.3441485303489187,0.2155545638608655
0.86328125,0.5399407792447386,-0.5447238761581734
0.8671875,-1.5001132668060702,-0.4303671599598081
0.87109375,-1.6549417319530593,0.18834619932309993
0.875,-1.5587356989398211,-1.6187904096681263
0.87890625,-1.3292370066038555,-0.642485052943388
0.8828125,-1.7571839453274931,-2.876923592049299
0.88671875,-2.113954568449739,0.6905503156376278
0.890625,0.6213932770452013,0.48025219862400115
0.89453125,-0.6170131822716955,0.18065043437584113
0.8984375,-0.4500389839416255,-1.808921909028698
0.90234375,-0.12242879468477637,0.875801065718895
0.90625,-0.42499248262415845,1.0706613029005165
0.91015625,-1.3923011163548045,-0.23294249043088602
0.9140625,-1.5570416415682453,0.11075292074836084
0.91796875,0.9559746059640033,-1.2637534386875242
0.921875,1.1027763470925451,0.3316141165711765
0.92578125,1.0796753526537357,-1.161543290862615
0.9296875,-1.060982482924885,-1.982003259345268
0.93359375,1.7653722765415982,0.7946304880986195
0.9375,1.201320483276716,-2.1101096605182925
0.94140625,0.15232150661334187,0.3903001277063013
0.9453125,-0.16848555306634708,-0.0022554112331237314
0.94921875,1.6542075353173222,0.06946471463094916
0.953125,-0.6509230129221932,0.8052975791696435
0.95703125,-0.4204395512233376,-0.08818127820281933
0.9609375,0.7999712058506463,-0.6592589028928735
0.96484375,-0.13909298995675123,0.1861767115898625
0.96875,-0.9091701475169514,-0.5638809183390606
0.97265625,0.07133298446404199,-0.2308864377603656
0.9765625,-1.3930139710241107,0.9914177650315378
0.98046875,0.14239586474150567,-0.24395240142730285
0.984375,0.3693450219581929,0.7970769072674929
0.98828125,2.717712505957884,-0.32172639370696504
0.9921875,0.25884668901156976,1.2833144601191946
0.99609375,0.6603457879450724,0.381721466448549
1.0,-0.0058131237698273,-1.046237785286205
1.00390625,-1.3073316918037632,-0.7445331942284144
1.0078125,-1.7659462253583136,-0.5220497268404537
1.01171875,0.551509997395394,-1.6318953498430007
1.015625,-0.01229249448644293,-1.436641218135332
1.01953125,0.7872015856491034,-1.291661227337331
1.0234375,-1.401597170575547,-1.0894732068231407
1.02734375,0.9016005663475245,1.8191908652291224
1.03125,1.3042460996327783,-0.13496935985630326
1.03515625,-0.12238660250417319,0.22269923444190076
1.0390625,-1.0688376151320917,0.2156135046884893
1.04296875,0.0380761599237587,-1.0531029847150497
1.046875,-0.31404319755412086,1.899379805201812
1.05078125,-0.14510150059363303,0.9283650648972701
1.0546875,-0.10090547426032374,-1.1853053313057758
1.05859375,0.6482516336892762,-0.9410475426839556
1.0625,0.2628722048593095,2.4247146410691514
1.06640625,1.025794500104186,0.08650432597606572
1.0703125,0.413602668696496,1.2029799526061595
1.07421875,-1.1038970559866659,-0.4566587946635184
1.078125,-0.48620552646694837,-1.9711783001962464
1.08203125,0.35062484463275845,1.0347381950950696
1.0859375,0.2347430342666345,-0.476767087764997
1.08984375,0.10490008813704965,0.6682189287947956
1.09375,1.5207023362253915,0.8611046247840815
1.09765625,-1.1846862599161834,-1.0179567950958313
1.1015625,0.301697209735462,0.6658526796565734
1.10546875,-0.013335164553397704,-0.6556113442977172
1.109375,0.40696599389181476,-0.5227106036959939
1.11328125,1.0736752582548434,-0.6901098857580065
1.1171875,2.0601470511800413,-0.11026154027596438
1.12109375,0.8368172636629424,-0.20300890260261314
1.125,0.08228145104874733,2.0070769169806497
1.12890625,-1.3642142529321897,-1.854041725224018
1.1328125,-0.37613777716865493,0.6724221887433405
1.13671875,-0.12871924371659665,-1.6176943750971255
1.140625,0.7508939546763201,-0.9134120916896661
1.14453125,-1.0650818917555207,1.4744988365242095
1.1484375,1.9541533936055657,0.5736393249756592
1.15234375,-0.8063323397596276,-0.8610698522219756
1.15625,-1.3748193947126581,-1.218501531609959
1.16015625,1.4193055004935766,-0.43548356865933563
1.1640625,-1.8218421641993887,-0.32622199821997494
1.16796875,-1.2106832745431615,-0.8528941788133839
1.171875,0.9480528180942818,1.2788226741822224
1.17578125,-1.572751652772787,-0.27671578008946585
1.1796875,-1.3990270350575809,-1.1917265339406768
1.18359375,-0.6605499995989923,0.6579639310082123
1.1875,-1.2131704892524127,1.7144791043791865
1.19140625,-0.8781696456205229,1.0639458764862177
1.1953125,-0.19819082598034027,-1.7013166448459875
1.19921875,-1.8172704682049936,0.09354016898616135
1.203125,-1.0378604501698503,2.121537274799164
1.20703125,0.5338601006435599,-1.1049821107662687
1.2109375,0.9127638150413917,-0.5240031594342536
1.21484375,-1.5164429590819501,-0.4155523861588716
1.21875,0.12984248985751617,0.5339028306548745
1.22265625,-1.2358585823448798,0.9721489223358248
1.2265625,-1.295013531577289,0.22302184467571753
1.23046875,-0.7101867155677067,-0.7670134374422934
1.234375,-1.5096988250338965,-1.14780854997372
1.23828125,-0.39391190415465543,-0.8009268053244984
1.2421875,0.33559249903505234,-0.653536120324187
1.24609375,-0.5742706831736303,-0.5823442424829002
1.25,-0.554783066518441,-0.33203159898504
1.25390625,0.31468109845429526,0.40254400732756807
1.2578125,0.9088607578155858,-0.7606891568007288
1.26171875,-0.6306256643701096,-0.681247393584912
1.265625,1.206255949802398,1.9092533649680734
1.26953125,1.0299877212092203,0.16060035811400988
1.2734375,-0.12048562989857639,-0.1878956700431611
1.27734375,0.5030325310212059,0.5664763090424286
1.28125,0.09836244479820257,-1.1988042310714868
1.28515625,-0.6199716351176067,-0.3240562892852301
1.2890625,-1.565968277703016,0.08882908730672535
1.29296875,-0.0580173335106955,-0.019346055848431635
1.296875,-0.8088631341210822,-0.7172516520130993
1.30078125,-0.05440808344456196,0.8070665890318381
1.3046875,-0.5976444665936455,-0.9180436882140275
1.30859375,1.6353039316483193,2.109622309809329
1.3125,0.28301275690875677,-0.1741463280688215
1.31640625,0.21229209954117687,-0.28185804841003
1.3203125,0.0855263426380952,0.7991502717645309
1.32421875,-2.4021735713553354,0.3724968263499991
1.328125,0.7946527759790756,-1.9755976518025562
1.33203125,1.423052660015497,1.1685884693442308
1.3359375,0.5958587536345242,-0.6126952613165652
1.33984375,-0.4270999113893571,-1.1543643665433279
1.34375,-0.12857082400245923,0.13514776038906198
1.34765625,-0.9537731185483086,0.9870911878339691
1.3515625,-1.6296287407210788,1.096477377049351
1.35546875,-1.0857977339614957,0.19213851779575633
1.359375,-0.12080051708858575,0.48848831231772066
1.36328125,0.8521260399761145,-1.117040184947003
1.3671875,-0.29665038766748897,0.950271334422712
1.37109375,0.28466517279044923,-0.4525166393483645
1.375,0.9413964535794515,-0.3131855532144671
1.37890625,1.2012476646710886,1.5025699933212977
1.3828125,-1.456636730184201,0.07846088617542585
1.38671875,-1.522490183828347,1.3619385933666435
1.390625,0.39802035801480085,0.046065801640356806
1.39453125,0.5819438838018671,-0.24135687358093255
1.3984375,-0.9578899558152962,-0.7369400549701184
1.40234375,0.8229838178596215,0.09334581844840124
1.40625,1.417702414993296,-0.5706299951526564
1.41015625,-0.38262846323347494,-1.3381508887165177
1.4140625,0.4251558708796784,-0.24438294056023285
1.41796875,0.28852244413818073,0.20810480498008596
1.421875,1.3497503297219418,0.6246332264373556
1.42578125,-0.5166036832309846,0.789282622440801
1.4296875,-0.5384312034616427,1.6276594195120153
1.43359375,0.6449110744833275,1.3711268140467656
1.4375,0.8584031343220195,-0.5043385122080692
1.44140625,0.9625314109769182,0.9960587720905981
1.4453125,-1.589556251509226,0.21891502623799663
1.44921875,1.0792625139718992,0.6121294286430405
1.453125,1.2849010209149712,-1.501575601798851
1.45703125,0.04589509021425222,-1.6742418303608713
1.4609375,-0.6536963504690497,1.5019375799867738
1.46484375,3.4054569602206337,0.0864216748492376
1.46875,-0.7128545433637682,2.040764019607219
1.47265625,0.04747290015362397,0.06813223185441676
1.4765625,-0.13552934264280012,0.8494233186276068
1.48046875,1.1967914341276984,-1.261067921680093
1.484375,0.2676050788495966,-0.22821918719258655
1.48828125,0.4535350599412998,-0.6988427529470753
1.4921875,-1.3311434044165995,-1.1421813621120862
1.49609375,0.013762748449181144,-2.044539066692894
1.5,-0.9659615949872632,1.038636619829972
1.50390625,0.604953590356226,-0.6459949440007424
1.5078125,0.5956000729277625,-0.01305872629191013
1.51171875,0.3850995478618263,-0.3369515874943495
1.515625,-1.4418487775392916,-1.4431903784981397
1.51953125,-1.760061238871493,-1.0268598117524257
1.5234375,-0.3970606762690123,-0.3540661706994899
1.52734375,-0.09880684561421192,-0.5126259169567946
1.53125,0.12367703351014385,-1.033979084501653
1.53515625,-2.505316112570075,-0.6824125900270214
1.5390625,-0.17923784303884147,-0.6670471405365768
1.54296875,1.4372800251222049,-0.3493276146435834
1.546875,-0.6052338444536122,-1.1998488141401318
1.55078125,-1.7649851960706162,1.3690590768468718
1.5546875,-0.12688524144832092,0.15734619350857185
1.55859375,-1.6004738124329534,-1.575865642436337
1.5625,-0.48884497117691295,1.4911944687311944
1.56640625,-0.1344425567176622,0.1991912652374429
1.5703125,-0.2684218435340208,1.1041514503553245
1.57421875,1.787710409561713,0.8435157810536185
1.578125,1.490098870109649,1.3871353406052576
1.58203125,0.9552471254731133,1.5758044565936264
1.5859375,-0.6125357759299334,-1.2931618375842702
1.58984375,-1.145186742427458,1.7680077219844137
1.59375,-0.9332592101813085,-0.8902610518848822
1.59765625,0.9594599836807992,1.105156927546686
1.6015625,0.8290178980714046,-1.3586098291436988
1.60546875,0.7884490118277774,-0.09205712831724255
1.609375,0.27288103754268483,1.8195457894301954
1.61328125,0.16869535812684283,0.7801298480499516
1.6171875,0.08409432561111793,0.6474330030168804
1.62109375,-0.6905569073905619,0.3227519377324865
1.625,0.7659358302553635,0.5158574696609005
1.62890625,-0.8760955971917649,-1.8740800031039249
1.6328125,-1.8166820695308747,-0.11752326927724235
1.63671875,0.5984615180555496,-0.31369434235770965
1.640625,-0.982638367805994,-0.1874668593180737
1.64453125,0.1084610610255667,1.1733969669782882
1.6484375,-1.917859818833517,-0.7470999192164995
1.65234375,1.6722384275363043,0.39453526236672815
1.65625,-1.6224015741642543,0.7507461827873881
1.66015625,1.9493455130699449,-0.560223150354417
1.6640625,0.378391729168994,0.21710034373785403
1.66796875,0.8626068340811898,0.3498453820840954
1.671875,0.4730159952343956,0.529574230020831
1.67578125,-2.739235181797353,0.4044735998723473
1.6796875,-0.4831389360090174,-0.7843874553354719
1.68359375,0.9665046105377666,-1.9314065646308913
1.6875,0.522251364763342,0.7333582448795366
1.69140625,-0.010696721908254096,-0.6336187199882235
1.6953125,-0.034401909083438605,-1.0274884564668094
1.69921875,0.5582159564801151,0.05871141740774794
1.703125,-0.7401356539187869,0.4584529646871584
1.70703125,-0.8362339679428015,-0.6319955174970712
1.7109375,1.4082402733682677,0.006189553394995529
1.71484375,-1.013027478808446,0.10498756245499148
1.71875,0.6181791884764285,-1.342049285419767
1.72265625,1.182095613495219,0.9271376994822131
1.7265625,1.1783467976016946,-0.7048697968071403
1.73046875,0.21522535562707643,-0.08907398436496211
1.734375,-0.2754075515270305,1.0716328467770315
1.73828125,-0.1052899091935494,-1.330199301728021
1.7421875,-0.3836809587182807,-2.8014481124775594
1.74609375,0.4359563824652546,0.32671480799317887
1.75,0.6767710731636276,0.23227654218052154
1.75390625,-0.3581804756569782,0.4915365348228146
1.7578125,0.8670688545042877,-0.2525938781166518
1.76171875,-0.3293419037807487,0.5835568481423004
1.765625,-0.7180213919675826,-1.2877981906860763
1.76953125,-1.1094880516680006,0.6247654798704703
1.7734375,2.121546219027206,-1.960782551768401
1.77734375,0.42931133315414244,-1.4248848417286097
1.78125,-0.9377831612485282,1.583612485058305
1.78515625,1.1705467307373711,0.2867483826465829
1.7890625,-0.7615462892636976,1.2129015944517667
1.79296875,-0.47318924204322965,0.4445435474165433
1.796875,-0.8379854570775551,1.6108992793380252
1.80078125,-0.2082257648187631,0.6745067021389516
1.8046875,-1.6378255697955901,0.8071061884307748
1.80859375,-0.3446802521245299,1.8961950897485933
1.8125,-0.05887679166051445,-0.5108691247846288
1.81640625,0.6627154631314119,-0.5882586445035473
1.8203125,-0.9064084668005794,-1.273779373790236
1.82421875,-0.13643554640703764,-0.7466260601916482
1.828125,-0.004545331678554797,-0.05033186055473084
1.83203125,-0.17072161552680756,0.30992255149324494
1.8359375,0.4847565626999453,0.18102720014754176
1.83984375,0.9460672599285683,-1.422928414370464
1.84375,1.517326488268689,0.7231726892697261
1.84765625,0.5215935687400856,-1.1975911676165747
1.8515625,-0.09899410338169877,0.3071711839016593
1.85546875,0.06036340735732757,-1.0106499564370288
1.859375,0.03054950799752614,-0.3546437499594589
1.86328125,1.3853429190423265,0.6474559160668067
1.8671875,0.20785314781335074,-0.1500488014712743
1.87109375,0.6312883073096701,-0.8088887407902505
1.875,0.9747626371292181,-0.08168767201583171
1.87890625,0.696838209208296,0.06831818802515417
1.8828125,-0.7324548512637683,-0.3436181995542783
1.88671875,-0.8081587305992407,-0.10347276408478728
1.890625,0.5396328059441763,-2.0762586136504715
1.89453125,0.3154967216460563,-0.5165029584790681
1.8984375,0.9110734421831814,-0.042261088800787085
1.90234375,1.5022926853983227,0.7538549983696079
1.90625,-0.3731591682518966,-0.5667260582768224
1.91015625,-0.1855885930650403,0.7703830230230924
1.9140625,-0.9268706718824311,-0.7762129546908244
1.91796875,-0.8269479393299856,-0.09816379234880353
1.921875,-0.9146408591460776,-0.4635502325468413
1.92578125,0.8216718546111016,1.2615263499633034
1.9296875,0.06109996506093419,2.0452781405038696
1.93359375,-1.7146775005854862,1.1335505447349066
1.9375,0.7697685630975835,-0.17420379336485706
1.94140625,1.1766880704093006,-0.9763294472604417
1.9453125,-2.3561611797612843,-0.12736099161811432
1.94921875,0.09595428427902897,0.8223678324574083
1.953125,0.08999362212951814,0.00901284736036884
1.95703125,-0.842211912223042,-1.4852928179992873
1.9609375,-0.12329479736868117,-0.22919646851760966
1.96484375,-0.5490449674776501,-1.6282188268796407
1.96875,1.3775122468875873,0.17273630507151377
1.97265625,-0.39627613184196125,-0.6533415109524289
1.9765625,0.5175447368337087,-2.865422793283917
1.98046875,-0.6544170652107418,0.07405963984117546
1.984375,1.5959438999526154,-0.11885559288908483
1.98828125,-0.4801952460259693,0.560645696369744
1.9921875,0.4904961637977951,0.23131262220783974
1.99609375,2.3069993506217195,-0.7069056351317059
2.0,0.6930800177278273,-0.2813293399860263
2.00390625,0.3271136932506983,0.6282381161686722
2.0078125,-0.9465239620955188,0.8842016957825396
2.01171875,0.9874130326184534,-0.48518609961374703
2.015625,-1.9743916675581874,-1.2937330285380244
2.01953125,0.5168493733131124,-1.4215037956763314
2.0234375,0.14513706847034147,0.3794301533728545
2.02734375,-0.5316875953356628,-2.3487043782499177
2.03125,-1.8615515953137707,-1.4905573026454784
2.03515625,-0.06178635925428656,0.4721401667537391
2.0390625,-0.8752618892069154,0.09195235965495005
2.04296875,0.7666856265016291,1.3175318394434952
2.046875,1.294561341610581,0.7715677333832041
2.05078125,0.13749621553932823,0.030894511390192284
2.0546875,-1.204280241161337,-1.7155968527306988
2.05859375,0.17228288925098775,-0.38454364775613825
2.0625,-1.0893297087539882,0.7002811711182658
2.06640625,-1.3554603874403315,0.6048510224858455
2.0703125,0.3171903960665927,0.17272247091732817
2.07421875,-0.4008389133961577,-0.706401538048264
2.078125,-0.16087666623175384,1.304287762645489
2.08203125,-1.6483328402062971,0.5064617197815187
2.0859375,-1.814211517680173,-0.35342018701646233
2.08984375,0.6397731901771667,-0.7188169545107232
2.09375,-0.24077929939291123,-0.05355318846777459
2.09765625,0.9445927722011834,1.6473821795456223
2.1015625,-0.3068139642202418,-1.2758555314124096
2.10546875,1.3435703087242599,-1.3541636269382238
2.109375,-1.0813762787344858,-0.4166233067941095
2.11328125,0.2993249992263695,-1.3438203155371349
2.1171875,-1.5743139050987756,0.7392591411987507
2.12109375,0.47461381294153987,-0.6731213730048176
2.125,-0.12861396888500315,0.19390970231213325
2.12890625,-0.19967590616060024,-0.10130065249954609
2.1328125,1.808277054561229,-0.33528469565447255
2.13671875,-1.0069452806829735,0.6210290601261153
2.140625,0.18474142956972828,0.5150426132138681
2.14453125,1.1536111242290794,-0.066713700854814
2.1484375,0.10391175970743452,-1.1297497992207908
2.15234375,1.0131274189349257,0.3655642108736013
2.15625,-0.24685763284070397,0.13174182851274904
2.16015625,-0.5101197844716844,-1.4987679452193476
2.1640625,1.0384122463849192,0.40712058181459204
2.16796875,-1.2825807133905058,-1.1333492815576791
2.171875,0.40161767952962474,0.1213902576340556
2.17578125,0.5525323960560774,-0.4548873623204597
2.1796875,-0.1816065897979747,0.45060101167046246
2.18359375,-0.9266290701964676,-0.7592931930951461
2.1875,0.47258863097365544,-0.45869885259484333
2.19140625,0.47184967273150474,1.3298205991224312
2.1953125,-1.093926696294222,1.6794074607867635
2.19921875,0.9402298185149564,0.5081975230327794
2.203125,-0.27016054427167246,-0.6519379495190861
2.20703125,1.7821308010038637,0.1535693496464182
2.2109375,-1.2336490184813962,-0.48383487364277955
2.21484375,-1.301262862127134,0.16185311783377593
2.21875,-1.252624335215714,0.5096705924721792
2.22265625,-0.41598044724422417,0.18223880237955975
2.2265625,0.14106775388576806,0.7714169180901522
2.23046875,1.5054421991974611,0.3054180090775635
2.234375,0.7371592242923115,-0.35057892467300106
2.23828125,-0.049365453183028866,0.5079414800417895
2.2421875,-0.7312640468554399,-0.07123102966123337
2.24609375,0.49953362124639067,0.737495219607421
2.25,-0.5717244241247345,-1.2895208415683062
2.25390625,-1.2386955895442155,1.4604166376902843
2.2578125,1.738753065959631,-2.022911376549256
2.26171875,-0.2904249811740188,1.358124447786316
2.265625,-0.8071588200660562,0.9809403032936663
2.26953125,0.6274105633787302,-1.808313713769178
2.2734375,-0.3117722788368044,-0.6437200886375022
2.27734375,1.08843053695916,0.515283457083036
2.28125,-0.9315121423877781,0.7854472521754264
2.28515625,-0.9025736404375158,0.005352107816754615
2.2890625,0.7079586886792516,1.2898789380844147
2.29296875,-1.5516276748157787,1.0840390751718583
2.296875,1.3834562577683593,1.0357803088348199
2.30078125,0.4292991889658729,0.22345471807583359
2.3046875,-0.5135680263512487,0.9258382425458375
2.30859375,-0.7250932201660013,1.4101376916505708
2.3125,-0.6222524175025689,1.6158230437887535
2.31640625,0.248583507416471,-0.668246763011467
2.3203125,0.7759380052255217,0.3897483576368015
2.32421875,0.4354977435280218,-1.5502751794074663
2.328125,-1.1242050495154523,0.12121832227936856
2.33203125,-0.04513173489737951,0.636623047278906
2.3359375,1.7053829159955136,0.7018970201409073
2.33984375,-0.1908925246973563,0.8568040527257679
2.34375,0.12194392204639615,-1.960124211777914
2.34765625,-1.688301497488862,0.6056546900245174
2.3515625,0.42255864691411776,-0.8594262565209382
2.35546875,0.1338875192198442,-1.012733568126381
2.359375,0.9328526364714186,-0.48125714895458904
2.36328125,0.15371008222300556,-0.7221012817911815
2.3671875,-1.1976384408018637,0.8066848547244616
2.37109375,-0.9140654385529531,0.5970666404939069
2.375,-1.9752996209271618,-0.8623524590842842
2.37890625,-0.41056093584957304,-2.813220222669585
2.3828125,-1.4659884673401091,-0.22734694321493248
2.38671875,0.131121179296071,-0.07801164930149995
2.390625,-0.7702335022566539,-2.0420734006390857
2.39453125,-0.8229624889045867,0.1964003193653076
2.3984375,-1.0137866727165774,0.3051968452141763
2.40234375,-0.46581628204617526,-0.5384233616187746
2.40625,-0.3498970406545178,0.4950471049370751
2.41015625,0.8642654011356501,-0.05130126451133005
2.4140625,-0.44711720288970797,1.9016662059057714
2.41796875,-0.7504094746380175,-1.8009597646412998
2.421875,-0.033685291298864245,-0.7230366982323976
2.42578125,-0.6243077436229378,-0.7459417462097562
2.4296875,0.4396778591751518,-0.980493025749411
2.43359375,0.9040652829634266,0.6190500179066986
2.4375,1.0093849895053555,0.6754403531229777
2.44140625,-0.8093475384794648,0.727022026449353
2.4453125,1.1410232076141704,-1.1087326157712687
2.44921875,0.2710509213865116,-1.1504930623687704
2.453125,1.2446834031561091,-0.03441638927170345
2.45703125,1.6161607718896827,0.8729429317982679
2.4609375,1.5743808884219868,-0.5988158127512986
2.46484375,-2.098846774333731,0.6778591686487718
2.46875,1.2135386940788577,-0.07821691441816157
2.47265625,-0.11932505047936134,0.16673089512827582
2.4765625,0.32636594424987275,-0.56426665587008
2.48046875,0.7704709328016939,-2.612535994154547
2.484375,0.2979792868898211,-0.21477915374149315
2.48828125,-0.5341663582641137,-0.7631015413267903
2.4921875,0.17386468528318344,1.1502122429597312
2.49609375,-0.18448504469715732,1.4175634434741105
2.5,-0.6560257906981642,-1.6368233743735814
2.50390625,-0.2271280586124004,-0.30547197729907183
2.5078125,-1.6221158330781837,-0.7001986702433354
2.51171875,-0.4465742111844214,0.8914138026278118
2.515625,0.48059115824580617,-1.57543245954276
2.51953125,-0.5443227282488073,1.1286025548881131
2.5234375,1.3937565183343732,0.4509429180080874
2.52734375,-0.05599414747928885,-0.15226754591672303
2.53125,1.186219518418708,0.24220763087125316
2.53515625,1.0129116094338557,0.31921401983966435
2.5390625,-0.14192715809657835,-2.1928884590850766
2.54296875,-0.07682940455549798,-0.3611567153951041
2.546875,0.4093901034650247,-1.3552023771973536
2.55078125,0.12521852849587456,-0.697234494373975
2.5546875,-0.3929854873889132,-1.2877674625580875
2.55859375,0.6802402941820905,-0.28502645818151834
2.5625,0.12258882527195754,1.500361387296223
2.56640625,0.4201975324010704,-0.9317602777211149
2.5703125,1.5767254392759733,0.21804527553643197
2.57421875,-1.206463344959811,0.18768266191447672
2.578125,0.43806331923430847,-0.15006219445346736
2.58203125,-1.4491927647589522,0.32412163517758824
2.5859375,-0.6977646380270442,-0.353175884541942
2.58984375,-0.8998808073668805,0.18812031552012476
2.59375,0.5053963918813484,-0.715615140411167
2.59765625,-0.14307463941210655,-0.021174916762092273
2.6015625,-1.444065781007718,-0.047931174586102784
2.60546875,2.40669403550683,0.9064763832496263
2.609375,-0.7827192994814652,-0.9452227358212577
2.61328125,1.1311030121867343,-1.643230982069326
2.6171875,-0.3354629759183454,0.5030162158810415
2.62109375,-0.8057723702124543,-1.2386513056762338
2.625,0.8264544592237888,0.6431496083980399
2.62890625,-1.1305866201274957,-1.15342933477865
2.6328125,-0.739793298864256,-0.35506250066206124
2.63671875,-0.5870973608967437,-0.5286338714682464
2.640625,0.09222527452160983,0.55349304070532
2.64453125,-1.2301989043684172,-0.948548868990768
2.6484375,-0.36291263994339074,-1.4208143082114082
2.65234375,-0.31520648775671156,0.19488525662421324
2.65625,1.3804647982432703,-0.6061218857164585
2.66015625,1.7919664014225865,1.729886725316347
2.6640625,0.2682242300056377,-1.3534227504958587
2.66796875,1.5661499510865624,-2.3381129783438728
2.671875,-0.49376778892640577,0.18106595930924865
2.67578125,-0.9043421366408504,0.6921587496316659
2.6796875,0.04387062396621409,-1.6161887529951846
2.68359375,-1.216775427722501,0.17109254210737737
2.6875,-2.155087181921227,0.6349060080918817
2.69140625,0.4469124720235863,0.04637546048492575
2.6953125,-0.32250294467618285,0.6182022305046295
2.69921875,-0.07572317692134731,-0.3913439704424315
2.703125,-1.5798781324360607,-2.129878446310008
2.70703125,-0.32852989184397624,-0.77679004342549
2.7109375,1.2227063901759516,1.6366453693767975
2.71484375,1.0054948924815994,-0.25120137953356225
2.71875,2.815613171040981,-0.9016457322457072
2.72265625,-1.204132481111555,0.4123514273142242
2.7265625,-1.1000987751443303,0.5481215280198372
2.73046875,0.7415741097876457,0.2612599538477472
2.734375,-0.4130453463678319,-1.975027334445979
2.73828125,-0.6832359570331359,0.4110150925668404
2.7421875,-0.15204270099345857,1.1425306403739635
2.74609375,-0.4862070968496119,1.9227962413990545
2.75,1.0115385987028325,0.9988731217929956
2.75390625,0.12211931385738735,0.9163892228355314
2.7578125,0.01461557142606033,0.7531193376033367
2.76171875,-0.6808048375579333,1.0314534252663248
2.765625,-0.26963601610081633,1.1030358444278752
2.76953125,-1.2810320738311243,-2.3022337414366936
2.7734375,0.45441418192170024,-2.3286456347292055
2.77734375,0.21145249829764487,-0.2236724594098745
2.78125,1.1567527719653814,1.0408790912292682
2.78515625,0.8454258622683223,-0.4189327589673591
2.7890625,-0.847309767057787,-1.0246337482021894
2.79296875,-0.7637724387612128,0.7245756197479702
2.796875,2.0117767953023953,-2.234578338410854
2.80078125,0.2066762615891305,0.3423675060003756
2.8046875,0.8142911592594164,-2.1822028342840274
2.80859375,1.1421439089928653,0.6913966530515632
2.8125,0.6145540458629132,1.8959783763461875
2.81640625,1.0147913729498534,-0.39487697190143334
2.8203125,-1.880550223243307,1.9294817513227458
2.82421875,-1.372779501370374,0.12266272774214629
2.828125,-0.17773090045722068,1.7851821140086475
2.83203125,0.4771491836696823,0.6934307255674673
2.8359375,-0.9662016925247615,-1.2033909157854332
2.83984375,-0.1803811750054689,0.10592174955128089
2.84375,-1.141283561276912,-1.8523819464880766
2.84765625,0.07373971149455996,0.8475938095556134
2.8515625,0.13432014986398821,-1.1154318940547807
2.85546875,0.5239984333542063,1.8303196323532875
2.859375,0.004014276039928391,0.7617064288266568
2.86328125,-2.0675709296179594,0.19510415941764842
2.8671875,0.08725674725563409,-0.027475387478439077
2.87109375,0.6169288732868472,1.8254020071504484
2.875,-0.37745576111759765,0.5236821779065504
2.87890625,2.490641771592246,1.036400955598268
2.8828125,-0.07863699006161781,0.49075678636008274
2.88671875,-0.4069770153941218,-0.9349816626165436
2.890625,-0.9688119958623678,0.558270412422438
2.89453125,0.3752418239631085,-1.785570077167479
2.8984375,1.6300969118441637,0.06605932902969723
2.90234375,0.2838439906996818,-1.3870697693801797
2.90625,-0.299419538713059,-0.8556043028833973
2.91015625,-0.9271784524639192,-0.46212961009508985
2.9140625,-0.5174193951248237,0.5134343552735107
2.91796875,-0.43351014275743854,0.32064442920494807
2.921875,-0.6610646385022664,-0.8542979255664398
2.92578125,0.1873489510109439,1.2272985242404837
2.9296875,-1.6892773247011104,0.5344477178523167
2.93359375,0.7011820887736586,0.26081858252847584
2.9375,-0.1061323086407853,1.055948551217914
2.94140625,0.372527898847161,0.8971491713233651
2.9453125,-0.9653325775176662,0.6124445203835885
2.94921875,0.05304618857536968,-0.00985232290586087
2.953125,-0.12491204668169172,-0.20009328823408182
2.95703125,-0.9454003166014036,0.45015232790704535
2.9609375,2.421196114392231,-1.9289166305479095
2.96484375,-0.5058475048169857,-1.192392466027871
2.96875,0.26698639982925915,1.6148897924782646
2.97265625,-0.41638738284477755,0.7671246818413945
2.9765625,-1.4874204679373209,-0.41197040389861606
2.98046875,-2.2182264451370823,-0.4778344141644143
2.984375,-0.26720915967776465,-0.2703870385732272
2.98828125,-0.27591556336420303,-0.6137839179571868
2.9921875,-0.07029233407818956,-0.4025422702749766
2.99609375,1.8354666690283532,-0.3917522890657448
3.0,-1.0941531490634375,0.2558904282569635
3.00390625,0.8816393339964347,-1.2768640411405134
3.0078125,-1.6802488732729783,0.2940586641575677
3.01171875,0.3867739011009688,0.9778249656968411
3.015625,0.047342843066257995,-2.7448049783636734
3.01953125,0.9545400308026815,1.2567256225436318
3.0234375,0.3669840042605029,0.5621448646252076
3.02734375,0.6550339146230878,1.1086532828619993
3.03125,-0.19379440006496346,1.1849175807547199
3.03515625,0.11128240202260825,0.15979976771346804
3.0390625,-0.3132066023986153,0.28942833603492935
3.04296875,0.9557917321561363,-0.7509409880601999
3.046875,0.32095164061426057,-1.5503538453481165
3.05078125,0.8397162790292796,1.5721529908835474
3.0546875,1.0482085510357537,0.8723205674468687
3.05859375,-0.29283283816001765,0.6178333079537855
3.0625,-1.1399221140449156,-0.5203424589080885
3.06640625,0.03305463486609971,-0.31675101960657864
3.0703125,-0.8832041829792534,0.4005420090410927
3.07421875,-1.638839322139931,-0.24862303913419367
3.078125,-0.08718844198349882,-0.11151754155362271
3.08203125,-1.2373011398513554,0.7835354284584337
3.0859375,-0.8964940200965249,0.08276065130976078
3.08984375,-0.030466595252685365,-2.367918658560609
3.09375,0.5103691471451913,0.04980246918713382
3.09765625,-0.3089622299985225,1.501312036889557
3.1015625,-1.0815191188308808,1.4761071972743327
3.10546875,2.3188470923860653,0.555270873788056
3.109375,0.8123737074806897,1.4607685982787493
3.11328125,-0.0124792650503007,-1.1515530436476784
3.1171875,-0.07996792366421879,0.6086521984128046
3.12109375,0.9037887174063172,-1.2479407858616631
3.125,0.23630083329814108,1.4886274677888467
3.12890625,-0.5021145822208025,-1.1765861943239229
3.1328125,-1.1702715301651063,-1.2684950191627389
3.13671875,-0.1859997003086576,1.1470164343100404
3.140625,0.17119667862779755,-0.009566985039422157
3.14453125,0.34177965382899717,1.0530993140742357
3.1484375,0.5534076356301642,1.5463593653818393
3.15234375,-2.5290661764956734,-0.12478435783127022
3.15625,-0.30624997639133494,-1.7231211360740513
3.16015625,1.1431592282931498,-1.1971739077604087
3.1640625,0.6489347489382784,0.5663586739709955
3.16796875,0.2689278872107999,-2.357991232303691
3.171875,0.4761140511626817,0.4776042456922378
3.17578125,0.2934222143024298,-1.6143555710963684
3.1796875,-0.6725679781722195,0.7427181894969564
3.18359375,-0.027802491103673596,-0.36492215397426075
3.1875,-0.23788251015528064,0.2431541235047503
3.19140625,1.562589666486669,-0.46948479566653983
3.1953125,0.2302833259682404,1.4002183386804739
3.19921875,-0.24413225125811414,-1.081469870934368
3.203125,0.18196322938429024,0.760857827651306
3.20703125,-0.6814428241748791,0.14420084987804907
3.2109375,1.3711199738813462,0.563312680965984
3.21484375,-0.3439558681369477,0.025753840946064952
3.21875,0.2779873003790162,-2.1051294409559653
3.22265625,-0.2974033546784131,-1.164280036230135
3.2265625,0.6693830669946264,-1.9469243995343637
3.23046875,-0.3436113158668138,-1.3341534132411372
3.234375,-0.1550521120699308,-0.22727748365065864
3.23828125,1.950998758265414,-0.5651505040042022
3.2421875,2.046894575836513,1.8428632471383766
3.24609375,-0.5795576880343865,0.7628273195744047
3.25,-0.2075440094736848,0.2608442936960211
3.25390625,-0.8356116514189968,-0.5806014332691148
3.2578125,-0.187287857812708,-0.6113264333528483
3.26171875,-0.32801824440772537,1.5811403546683913
3.265625,-0.03025941123186649,-0.8555656444371095
3.26953125,-1.9557408755670245,-0.24644013281798088
3.2734375,2.5132941764422347,1.3576633384466779
3.27734375,-1.2651690283702242,0.870028845763885
3.28125,0.018606828982798848,-1.114947701358788
3.28515625,2.163851882008838,-1.9159818849157235
3.2890625,-0.544432749168686,1.7191933394009047
3.29296875,-0.7031628745560997,-0.6471958634193303
3.296875,-0.14918231473400592,0.9679598841312419
3.30078125,0.010740706322711244,-0.24361828757341877
3.3046875,0.5887390444351639,-0.9059718743350677
3.30859375,-0.813258585003331,0.105511387406692
3.3125,1.960274722349898,-0.2468657318933078
3.31640625,0.5196907405021939,-1.1027486573445733
3.3203125,-1.5754250219464607,0.4830748056713566
3.32421875,0.42484062081553897,0.4826540446261545
3.328125,0.7178103512292181,-1.3785049206966256
3.33203125,0.5996774640454058,0.32845295894043813
3.3359375,0.8155838249454432,-1.2634801113689873
3.33984375,0.1940686692324842,1.1151772026376943
3.34375,-0.8080478530563933,-1.3051012290032198
3.34765625,-0.8520024355639441,-0.30821572516406825
3.3515625,1.1008525507301221,-0.7617443240396193
3.35546875,-0.32313115475982035,-0.05298872157820521
3.359375,-1.521015806982745,0.6414355125763938
3.36328125,-1.4296794210083739,-0.33609001964103424
3.3671875,-0.4725015254899004,-0.4467211478574742
3.37109375,-0.836659057421346,1.0002185876396632
3.375,-0.8173269269848108,0.42415559354862153
3.37890625,-0.7078717973662375,-0.056165741910012876
3.3828125,-0.4162824117467728,-2.240793582215724
3.38671875,-1.1547291819551868,0.04942628480220877
3.390625,-1.5389203136568925,-0.7735083343476309
3.39453125,-0.2790443860568499,-0.28050409923324837
3.3984375,0.273417658646225,-1.8334265970612322
3.40234375,0.46649291620138883,-0.6373055561468123
3.40625,0.021377448032839596,1.2243685128462056
3.41015625,0.9131535562093209,0.3141012562417908
3.4140625,0.7275029790378942,1.5851867752543343
3.41796875,0.7564475073787448,-1.4549246498062853
3.421875,-0.6682784804865771,1.4398486684987106
3.42578125,-1.4648228478373684,-1.1032977790169611
3.4296875,-0.04286240862073038,0.10796510762610655
3.43359375,1.0516132854842652,-1.2481528499730472
3.4375,0.7186999523426975,-0.4932134323336248
3.44140625,-1.1998275781954668,0.3078540736360793
3.4453125,-1.6990144507743352,0.008622253597053486
3.44921875,0.2664891203791343,0.8637655733517976
3.453125,0.11041202306708088,0.8614690999265789
3.45703125,-1.82802546214766,1.6066238862643702
3.4609375,0.9950365239134974,0.12370178488940468
3.46484375,0.09895510743553312,-0.040169289744449534
3.46875,1.4184672659596433,-1.1365555423527791
3.47265625,-1.0761344176128218,-0.16419288060418494
3.4765625,-0.561455508608209,0.17256280865465068
3.48046875,-0.2586958998727855,0.20912660931388893
3.484375,1.88103248425183,0.22619780054400992
3.48828125,-1.127396027837839,-0.8797060064416565
3.4921875,-0.5378768654551335,1.2885457207881705
3.49609375,1.2811743174524406,0.30502114408284575
3.5,-0.26227125546296637,0.5440766355064556
3.50390625,0.15832357890919377,0.9692229828754945
3.5078125,1.4591124378990126,1.6277027989517394
3.51171875,-0.8645492403031289,0.24284749425699645
3.515625,0.5202776425420834,-2.3049540755624855
3.51953125,0.1193171234372215,0.7175199859425979
3.5234375,-1.9281349304437723,0.24313568061262186
3.52734375,0.30885720887856605,-0.021541955698510345
3.53125,2.257902250111439,-0.2503394497070009
3.53515625,-2.7311032372529533,1.3290126584397721
3.5390625,-0.11305179473633857,-0.6075752412210383
3.54296875,0.32986375467229745,-0.6946052489595781
3.546875,-1.820672654242891,-0.9122655410650167
3.55078125,0.30754599436126506,-2.120878823432576
3.5546875,0.4108676839838257,2.7753154495542196
3.55859375,-1.610981578590941,0.49164302600399334
3.5625,0.19987800813140338,-1.359353154884385
3.56640625,-0.4207253135753356,0.7830761755502093
3.5703125,0.6432855915401128,-1.7979670804660655
3.57421875,-1.4703545831980325,0.43323750867847377
3.578125,-0.6756904571194818,-0.2522363954025292
3.58203125,1.0096992713330804,-0.016566997056338656
3.5859375,-0.7685147317156372,-1.1288512809068036
3.58984375,0.7182638942566172,0.71943779427155
3.59375,-0.7534162854501832,-1.011458372454464
3.59765625,-0.22935766535202398,0.4475105721638486
3.6015625,-0.0927268514352725,0.27923823329078706
3.60546875,0.2864461345722471,0.26436275687833843
3.609375,-0.10660854729436807,-1.1175700360519987
3.61328125,0.402646899020402,0.40928331341126106
3.6171875,-0.43369659428026247,-0.3502361730913601
3.62109375,0.35321192768839804,-0.16620999803496533
3.625,-0.41778774257752993,0.18570334503535535
3.62890625,-1.1347703294093514,-0.04724251754136383
3.6328125,-0.3344897351871468,-0.3220389080823982
3.63671875,-0.8142107010969516,-0.883772850151035
3.640625,0.6437887650060647,1.7875621435735323
3.64453125,0.7418735480102564,-0.36347443938544505
3.6484375,0.16348113633238195,-0.7488616844332088
3.65234375,-0.22679791540493865,-1.1756931321939004
3.65625,-0.894479415326566,-0.04148187220293769
3.66015625,1.068584158817737,-0.037661834707152404
3.6640625,0.3267763675058193,-0.15558828962628782
3.66796875,0.02754959645090129,0.351629880503649
3.671875,-1.7354919877143522,0.2473670807175363
3.67578125,0.38181259304655646,2.685506124058468
3.6796875,-0.04784129050716933,0.08642961150319185
3.68359375,1.082514699584889,-2.204835624062393
3.6875,-0.5269622207125897,-0.23617338302798405
3.69140625,-1.029609796715874,2.681655032617354
3.6953125,-1.8364711962660776,-0.7726587721639153
3.69921875,1.6215011170994882,-1.7028086890450251
3.703125,0.49536237161309865,1.1748697945850484
3.70703125,-1.3845828451098587,-0.8805311186311392
3.7109375,-0.8095834068460254,0.18832759383790726
3.71484375,0.5041563621847112,-0.9407207621825183
3.71875,-1.4093871588115634,-0.01589571279391418
3.72265625,0.13319076594173934,0.7310020587811606
3.7265625,1.3513562508154897,-1.5955975216197353
3.73046875,2.0031505965736947,-0.5985654461250077
3.734375,-0.9950035125221438,1.3134949347125586
3.73828125,0.5117317518522799,1.010370933744188
3.7421875,-1.5044957892297501,-0.4823820659554548
3.74609375,0.9364323205914165,0.8064608916529982
3.75,0.3890444665129412,0.5272260676784076
3.75390625,1.7462224424825457,-0.21694282104994972
3.7578125,0.33838527015921155,1.7958173647579574
3.76171875,-0.875738981018153,-2.8632909008067164
3.765625,-2.427593639173255,0.6699627110700279
3.76953125,-0.38680022407319825,1.3385638516015785
3.7734375,-0.49676882116373505,0.10027218672016905
3.77734375,0.8202751435616435,-1.0410536213094164
3.78125,-1.4132353398686917,0.0369223812666117
3.78515625,-0.7291910817691817,0.047986357094738016
3.7890625,0.022200936495218614,0.4067652822436869
3.79296875,-1.2307260920511163,-0.5377679869950339
3.796875,-1.560530577729307,1.6378115425556032
3.80078125,-0.0915099786550118,0.5750970436475893
3.8046875,-1.051727412647743,-1.2479403441082457
3.80859375,0.8036459175142334,-1.0743007310029247
3.8125,0.6086482248001746,-1.2837255557736447
3.81640625,-1.1565989071849254,-0.8816485424730962
3.8203125,-1.902559378068984,1.0328957794038636
3.82421875,0.3679688093619447,2.038521428102128
3.828125,-0.7258955819094183,1.7266660576962989
3.83203125,-0.8972376178958045,0.2091104325154868
3.8359375,-1.2366270255439173,-0.4739306796212595
3.83984375,-0.16747535233714722,0.5941869180751786
3.84375,-0.7809557573925279,-0.5832522257794772
3.84765625,-0.13987295029502106,-0.04916784440900636
3.8515625,-3.2283855772999916,1.1354878840340952
3.85546875,0.7703929407836152,-0.2886170295813938
3.859375,2.1000510712212623,0.9422404697211918
3.86328125,0.557846384012818,-0.5680745823102032
3.8671875,-1.0380061258263749,0.4821313141028596
3.87109375,-0.8680553253412877,1.2904908179255032
3.875,-0.7996929048777575,-0.12455472872913514
3.87890625,-0.4221181540887293,0.17713562197763055
3.8828125,0.050204948119655694,-0.6745907826539432
3.88671875,0.4364817143175952,-0.7924508067508589
3.890625,1.1579122541187192,-1.1621325233803337
3.89453125,0.5270724340111401,0.09201094155313158
3.8984375,0.9480570163578004,0.6529001639146769
3.90234375,-1.0962612935883354,0.8730004376047802
3.90625,0.3507055558772815,-1.034034484903035
3.91015625,-0.29025367677266595,1.0705653358507072
3.9140625,1.1275743468349664,0.1449959349013606
3.91796875,-0.44904730609732835,-0.40225835751112654
3.921875,-0.4572859599394756,-0.26482628039772743
3.92578125,-0.5165081667467734,-1.14151327615464
3.9296875,-0.47621414114039,-0.2523181783491093
3.93359375,-1.0149753689100511,0.21227990199183297
3.9375,-0.6756859489965981,-2.4864591386696735
3.94140625,-0.2425995500208393,0.13189929554018065
3.9453125,0.9894224433336881,-0.14658063378655986
3.94921875,-0.2621925151584259,0.17245149753398803
3.953125,0.6327377153580696,-0.3629787948544865
3.95703125,1.1249871806563037,0.663273130251008
3.9609375,1.0886215999393254,0.434524007226489
3.96484375,0.5043290575047947,-0.5812288825873532
3.96875,0.1249263893098176,-0.8890005099054249
3.97265625,1.5939043249772564,2.2897921359359983
3.9765625,-0.4310543602329228,0.09581050821793134
3.98046875,-0.01970180121530587,-1.8104528985565467
3.984375,-1.569940778728852,0.840321357119834
3.98828125,-0.7609504462454368,0.5432050810586514
3.9921875,1.0310615531808283,-0.8359678338729238
3.99609375,1.141968872099744,-0.25494341808717835
4.0,0.6395724277952912,-1.0010744077735239
4.00390625,0.10832440330574439,-0.4436049156953153
4.0078125,0.18267423381184292,0.3887975037087551
4.01171875,0.07951118967560927,1.2372694751624171
4.015625,-0.8537613746413313,0.6432015328725272
4.01953125,-1.3913840544666052,0.41088116383259105
4.0234375,1.0766736905165861,-0.35520665069164786
4.02734375,1.2698191880085647,-0.08843086950113697
4.03125,0.34265782676732265,-0.8248055249766146
4.03515625,-0.93810184370559,-0.14522159257546532
4.0390625,1.100146868492956,0.9665933753374604
4.04296875,-0.5710030239573808,0.4938529220628685
4.046875,-2.149564490871034,0.11142058472713254
4.05078125,0.4077659253069698,0.8272343509214942
4.0546875,0.8818107659835663,-1.254311349444924
4.05859375,0.3173614936808967,-0.12814428492522686
4.0625,1.0029978124373076,-0.19325549147417456
4.06640625,-0.09993118606992334,0.6906348320327728
4.0703125,-1.2659842094534373,0.8384512575464715
4.07421875,1.0498763309525958,-1.2282013858528402
4.078125,-0.5119500443084125,-0.609263315853765
4.08203125,0.03153420070250028,1.8062522016064664
4.0859375,0.34969951881360356,-0.16634362705659964
4.08984375,0.43755807217381615,0.24923081698802577
4.09375,0.18316936964863662,0.43799726057984245
4.09765625,-0.8509293379029317,-1.4221199128009443
4.1015625,0.4421853740922591,0.527798512377652
4.10546875,-0.21903761143591602,0.9013129938124574
4.109375,-0.6944861657660617,-0.2067054180212341
4.11328125,-1.2402236272391916,-0.1052327118173437
4.1171875,-1.233941555987435,1.2347471704582196
4.12109375,1.0236585180159705,0.9197711185524423
4.125,-0.08680551254879032,0.5819077511457131
4.12890625,1.7960976009511254,-0.536418922592553
4.1328125,-0.4858722928441151,-0.2569504945439225
4.13671875,-0.05910959763461634,-0.5103381047995593
4.140625,0.43392527262353403,0.11005599145309866
4.14453125,-0.16070777485492907,0.5293553715047151
4.1484375,-0.16625658654669354,2.2268652983307837
4.15234375,0.5348872752012052,-0.5200391103353111
4.15625,0.9759644645857649,0.6634058048339709
4.16015625,0.24441848500896696,-0.5640586575733174
4.1640625,-0.5818987856730092,-1.5953125173007767
4.16796875,0.6371045275706785,-0.1291810147365906
4.171875,-0.6942022163592226,0.2947800644785035
4.17578125,0.1040828396768006,-0.029730559204432846
4.1796875,0.34541499806887677,-1.4698964961504244
4.18359375,0.4048961411197031,-0.8174392975417456
4.1875,0.493874204430759,-1.586960732652345
4.19140625,1.2513038137186405,0.4178334285251205
4.1953125,-0.817314604052357,-0.2884627122856417
4.19921875,1.1244080853890586,-2.450424707571245
4.203125,0.13740696306240793,1.3376723164702513
4.20703125,1.1863506123122756,-0.4658169656151396
4.2109375,-0.9302092785155743,-0.08637922134174215
4.21484375,-0.821433591797237,-0.645384671153473
4.21875,0.5335614221910596,0.5995392311097177
4.22265625,1.9173141669934484,-0.32072565098633404
4.2265625,-0.379321833289233,-0.052855779873643524
4.23046875,-0.18194593161458764,0.543404736850769
4.234375,-0.3498384706579687,-0.41231914873081116
4.23828125,0.4543438306415015,-0.7225927081423204
4.2421875,0.08214218262005936,-1.3251314400041392
4.24609375,-0.4861730216028913,0.7407606001798037
4.25,-0.6587343588923206,-0.2454613291266429
4.25390625,-1.1830355307782485,-1.08834508120147
4.2578125,-1.3829950038315186,-0.23236705817648626
4.26171875,-0.1900832035666014,0.9111954491190457
4.265625,0.01399073381882366,0.48438618661794935
4.26953125,-0.1764709978334809,2.206168619398512
4.2734375,-0.8101242904855556,-0.6331040260417209
4.27734375,-0.4785251077783471,-0.6563046675510605
4.28125,0.15746184924114792,-2.9680596553349408
4.28515625,0.09554396499036806,0.5469056407638818
4.2890625,0.24364896996094662,0.7327661740194634
4.29296875,1.4634963086290547,1.513606349570305
4.296875,0.3231569533388518,0.6321719326820591
4.30078125,0.8499659372696754,-1.2745523725709889
4.3046875,0.3959960917255982,-1.6006031295607421
4.30859375,1.131188570945291,0.009813265992746486
4.3125,-0.7733153624123028,-0.41109416449665687
4.31640625,-1.3359734376103631,-0.738621459687709
4.3203125,-1.9022217917718225,-0.754469335880275
4.32421875,1.179884951843826,1.264003163753855
4.328125,0.14087452267020448,1.3272489070071247
4.33203125,1.3920574741297138,2.2490686990660964
4.3359375,-2.0184922413553275,-0.6730586594810435
4.33984375,1.2808328788887353,0.27219052293171864
4.34375,-1.378603350692385,0.8989764392493905
4.34765625,0.24059804465423593,-2.14407004691092
4.3515625,0.9200879853254939,1.1628140526772164
4.35546875,0.3936782322439567,1.4556435250688158
4.359375,1.3179847381791339,1.1692815747741347
4.36328125,1.2383186735589071,0.6086798134275974
4.3671875,1.3895296906721706,0.4993965184628749
4.37109375,1.6034017920437875,-0.12419845746862088
4.375,1.5246675001238716,-0.4602437498614538
4.37890625,-0.0918472985891359,-0.9328074751266966
4.3828125,-0.07104924806748819,-0.03666571270791096
4.38671875,1.0068819738288348,0.5708956104696361
4.390625,0.665529700412864,-0.21031331756510216
4.39453125,-0.7845133543546117,-1.4619783882217963
4.3984375,-0.40282911047926806,-0.5213706322190012
4.40234375,0.7333975821265435,-0.10128121128928957
4.40625,-0.2362493007972692,-0.8297385215165892
4.41015625,-0.009618173659015938,0.10857304666337911
4.4140625,-1.1910923828949431,0.6737445420950866
4.41796875,-2.034455246967874,-1.4447931876104547
4.421875,1.5838788230518357,1.7634138887665398
4.42578125,0.11806643539684533,-0.34184220792451964
4.4296875,-0.30130812905018034,0.06958869293307902
4.43359375,0.37824944452504666,-1.3141395115518515
4.4375,-0.8043248062632533,0.3180267663048399
4.44140625,0.20289052269881747,-0.6152201996068678
4.4453125,-0.609849354176333,-1.0793478028493069
4.44921875,-0.5007912705978549,1.0405936887196692
4.453125,-0.7254759317636736,0.40255411414028003
4.45703125,-0.628902765598367,0.5562100905714451
4.4609375,-1.5172981731252344,0.06358972857115308
4.46484375,0.5283761734590798,-0.5697323554491724
4.46875,-1.6864811827549337,-0.4715595638865037
4.47265625,1.2843444629542555,0.7989140698698757
4.4765625,0.11498921109352897,1.4362678237771538
4.48046875,0.823415109640164,0.4650461009822291
4.484375,0.19961992609622045,-0.7652629577454805
4.48828125,0.8391810386885813,0.4448405515468962
4.4921875,-0.1337664570322824,-1.6145847505014845
4.49609375,-0.36167590280092055,1.8271686207983926
4.5,0.6319059169897913,0.22640924393839482
4.50390625,-1.0780770907941708,0.5345913417907654
4.5078125,0.9216533257916454,-0.15022051158660651
4.51171875,-0.8056847867354002,1.665845343710405
4.515625,1.1587832753635088,-0.4135792363123603
4.51953125,1.1209146264378012,-1.1330753576627688
4.5234375,-0.4010622462166692,-1.115829202344468
4.52734375,0.9726602561262668,-0.34459555407101666
4.53125,-3.1174767907524346,-1.1339583116682213
4.53515625,-2.380947774218357,0.27625753678730347
4.5390625,-0.3948724048532761,-0.8192480549121068
4.54296875,-1.3018961974848984,1.4185487446597087
4.546875,-1.058823107086192,1.5925399692128623
4.55078125,0.7561832513508123,-1.2355512810698714
4.5546875,-0.31157530870583966,1.4856179919390293
4.55859375,-1.3852268594932884,-0.14157067183089642
4.5625,-0.6577770421821648,-0.5751042247445443
4.56640625,1.2573694701888913,-0.03266991405699748
4.5703125,-0.3021057460409869,-0.38689421249584344
4.57421875,-0.6738323401976952,-0.9652725681156297
4.578125,1.6084945638520858,-1.28485560368648
4.58203125,1.0432157543971294,-0.029611368368860174
4.5859375,-0.06111935433197029,1.051585889950783
4.58984375,-0.528766134263236,-0.16829578781056795
4.59375,0.783965600694933,-0.7455716634891636
4.59765625,-2.761189283262617,-0.7208564258674194
4.6015625,-0.5669425035936237,0.10130261505266575
4.60546875,-1.3239156119065436,-0.28859082552195814
4.609375,0.8382176718591882,-0.24841428189340875
4.61328125,0.1772319608271822,0.31448978194067245
4.6171875,0.9066511355268927,1.3481629294196722
4.62109375,-0.553227172551578,-0.8354780808297356
4.625,-0.5121491731605969,-0.6811732486115986
4.62890625,0.5138813641188226,1.7400379696882908
4.6328125,-0.7635179512317104,-0.02380691994268899
4.63671875,-1.239493585768023,-0.4577434017295781
4.640625,0.8821513836263449,-0.27733090322390086
4.64453125,-0.7610341923647623,0.3384802652920048
4.6484375,-2.3829245588985093,1.0683901122821913
4.65234375,-1.0014548686109364,-0.4571258719592575
4.65625,0.6941882246781405,3.1316559330265252
4.66015625,2.255019821122269,-0.404601615210935
4.6640625,-0.464185796731736,1.7110758072451286
4.66796875,-0.3548491713012687,-0.050330385733672794
4.671875,-0.9839835283502143,-0.4651784692066266
4.67578125,2.4902158494543154,1.0989842638707015
4.6796875,1.7560031630451178,1.9841688055045288
4.68359375,0.001141014496570023,-0.643138006081113
4.6875,-0.6860709031165221,0.1837105898473141
4.69140625,0.08361719986757288,-0.542074523589853
4.6953125,1.4484074899876311,-0.48498918432331434
4.69921875,1.2148795542755753,0.48620872642394686
4.703125,-1.5403499564291447,1.373797791702321
4.70703125,-1.1850183478567278,-1.109486986592828
4.7109375,-1.2223892312792395,-1.7081778690617708
4.71484375,-0.25238863233124015,-1.3564264360206335
4.71875,1.2032711485033676,-1.5262021871052733
4.72265625,-1.029734713502699,0.20639511175825834
4.7265625,0.9711566237090663,-2.9239773361100263
4.73046875,-0.13396137215838502,-0.008272761854662128
4.734375,-1.2376795817640487,-0.6606461535092316
4.73828125,0.7073285573502601,1.505299607678522
4.7421875,-0.3756393430417277,2.2603363622463295
4.74609375,-0.6008609476781787,0.7617627631790408
4.75,0.1688590743833718,-0.5318612042443468
4.75390625,-1.3043601736212755,0.913953864330198
4.7578125,0.7323508089012607,-0.8949237561578456
4.76171875,1.7505242463876756,-0.10609999619342105
4.765625,-1.7347706740426088,-0.11204191780554446
4.76953125,2.016548312511107,-0.8735730539563681
4.7734375,0.4301751626471027,-0.01998083192191891
4.77734375,-1.0028852037798006,0.340953901705198
4.78125,-0.4927526307195646,1.5443685291503566
4.78515625,-0.29363835096408647,0.7960008204564939
4.7890625,-0.7593151769455107,0.2357956573224161
4.79296875,-1.9262882245509287,0.47833296036715084
4.796875,0.8467478246843444,0.0876425110629039
4.80078125,0.9968342886772762,-0.9241874764870676
4.8046875,0.12180735110864666,0.7778619967487022
4.80859375,2.254888044925527,-0.08020786671599393
4.8125,-1.1103169999827354,1.2864850456944794
4.81640625,-0.2641255075104369,0.21945717070946139
4.8203125,0.5733085863994515,0.5770046132557995
4.82421875,-1.6348599656221858,1.1340653654959265
4.828125,0.7395448172010023,1.7920701995171127
4.83203125,-0.8370103205705516,-0.3814376794183184
4.8359375,2.2436899069957525,1.2200774100384488
4.83984375,2.101259111938581,-1.1043179972105872
4.84375,0.19957869667556005,-2.7537062589986814
4.84765625,-1.0731962343034,-0.8442945502581639
4.8515625,-0.6051415790650428,-1.5377791918000714
4.85546875,-0.735063513293696,0.2642351896614647
4.859375,-0.4482200842659198,0.9254609897954923
4.86328125,-0.4842415424421053,1.1985192099587274
4.8671875,-1.1107794428472257,-0.7486053800049136
4.87109375,-1.0982649864189158,-0.12127386890027038
4.875,0.4715029629240955,1.5003417630509053
4.87890625,1.0778433616270702,-0.4520375086931326
4.8828125,0.21809876158611036,0.04471708260633892
4.88671875,-0.6975533359254916,0.27426320511940616
4.890625,-1.6451645936143702,1.2872945496462325
4.89453125,-0.6323600702980825,0.9111190472625522
4.8984375,-0.21112146005645482,-0.881511293324355
4.90234375,0.4458260598203432,-1.1191037806945079
4.90625,1.4212463865269973,0.3879239929841053
4.91015625,0.7282445107849571,0.2251232072831106
4.9140625,2.050681398622768,0.5693354708128404
4.91796875,0.9426526125102935,1.741625657415825
4.921875,0.5472668348462442,-0.7843096610036776
4.92578125,-0.4691423784736242,-0.27406591763060323
4.9296875,0.5668664904024385,-0.17649474033180537
4.93359375,3.024244079088162,-0.7466805135861698
4.9375,-0.41439032246336965,-0.14933876381367645
4.94140625,0.2427810119735432,-0.25421752780290097
4.9453125,0.9330309668681539,-0.16774681719355952
4.94921875,-0.8869218176173246,0.026523972609786506
4.953125,-0.6760997728568323,1.2361683131530312
4.95703125,-0.9337457017178908,-0.5861266745311657
4.9609375,0.11915252114447658,0.4605270676038079
4.96484375,-1.0962278156447032,-1.0977180099634
4.96875,-0.017991540588884018,0.3608279356289821
4.97265625,0.4126991542809849,-1.7398748060487064
4.9765625,-0.02893894268562662,-0.6882338354895229
4.98046875,-0.16971085411046768,-1.1069578090439605
4.984375,0.23319469450087985,-0.09693661857890608
4.98828125,-0.9579787180051564,-1.0194946936709197
4.9921875,2.167257960027065,-0.675082825569623
4.99609375,-0.9218262288888048,-1.0069494320392522
5.0,0.5376436171721214,-0.4454803857344888
5.00390625,-0.6905329330882973,-0.66830888939057
5.0078125,-0.3402399248843191,-0.7938761709648411
5.01171875,0.24094219923653595,-0.7236778943326053
5.015625,-0.33986832802582745,-1.189274069746085
5.01953125,-0.359977373221807,0.1492020231448861
5.0234375,-0.3614809246236208,0.20537809318205597
5.02734375,-0.4329883030223819,0.5925280475233422
5.03125,-0.15113646853562385,-1.1903834929988981
5.03515625,2.2783595998457886,-1.078670703012803
5.0390625,-1.595269677823746,-1.0712080572835012
5.04296875,-0.2751361067287739,0.6102526000476447
5.046875,-0.04220535936602501,1.3166885471915246
5.05078125,-1.5609071316515017,1.7087869720957527
5.0546875,-0.9821304423011931,-0.5310705914606972
5.05859375,-0.10162285251860345,0.36265849988889787
5.0625,1.1669216659736952,-0.47469870960797383
5.06640625,-1.1921508397921996,0.2552993605175225
5.0703125,-1.0489939298436968,0.004359408479715132
5.07421875,-0.3123976045122773,0.7281700348864781
5.078125,0.5392727054163168,-0.36231695241238365
5.08203125,2.608767532276965,-1.3378624436611377
5.0859375,0.5675492656485758,0.4329568704784697
5.08984375,-0.27545217479488177,-0.5895210145629163
5.09375,-1.3408602656670208,1.1262599700417528
5.09765625,0.559620544600852,-0.7187554654057375
5.1015625,0.3865912590162378,-0.228171650390094
5.10546875,0.9259494320612747,-0.8424403164582392
5.109375,-0.09728211604154141,0.44201358018535575
5.11328125,-0.5414065055047855,-0.0634426429434171
5.1171875,-0.6377513589603591,0.45102648912445026
5.12109375,-1.0876596710950386,1.6083259297917913
5.125,0.2316143900719415,1.2700929326623696
5.12890625,0.3269709571157169,0.16151473842370084
5.1328125,-1.6378633712355062,-0.79264321921921
5.13671875,0.6623624047005634,-0.9796608243864351
5.140625,-0.010814085843624437,-0.03147225093927219
5.14453125,1.644698950618297,0.2797951655760372
5.1484375,0.030985779299561523,0.4930056601642897
5.15234375,0.6569315578683016,0.23764107123503572
5.15625,-0.8964872180222511,1.0838778405593616
5.16015625,0.12423185932039733,-0.5582285633057485
5.1640625,-0.9164356622521391,-1.1658497496396842
5.16796875,-0.15565416545692942,-0.5342260827443359
5.171875,-0.3615667712907298,0.2058566116044255
5.17578125,0.45367458320050047,0.29774176662294954
5.1796875,1.3673373927020889,1.978053641169557
5.18359375,0.33041828438001464,-0.04591654051591551
5.1875,0.9244463259652516,0.5226312067497497
5.19140625,-0.8034328572980297,1.5719876173068559
5.1953125,-0.7128693323842826,-0.9274603348036937
5.19921875,-0.3733644963362161,-0.8415589606361621
5.203125,-0.22706119604759556,-0.8146760658207087
5.20703125,-1.017278527658374,0.06217442818028385
5.2109375,-0.5849253700582379,-0.3125339859141408
5.21484375,-1.2000516507535148,0.8468541454586151
5.21875,-0.28862298453832474,-2.672046175176707
5.22265625,1.266897165011613,0.0026925478374002433
5.2265625,0.39980860296141557,-0.8841768332862
5.23046875,-1.7512199100288053,0.8101971851381535
5.234375,1.4721262568783764,0.549830168218509
5.23828125,-0.591959901232779,-0.8476659144290489
5.2421875,-1.5753832172423812,-0.5474837902580336
5.24609375,0.33041677901491523,0.6320333795473665
5.25,-0.6043893878943972,-1.5295058779964466
5.25390625,-0.5635734068303603,0.1898827007589416
5.2578125,-0.48632202991380663,-2.0801554857540894
5.26171875,-0.4740349507929248,-0.7132924271993729
5.265625,0.9245537973664384,-1.547207437059368
5.26953125,0.17937877403525782,-0.7990403645585664
5.2734375,-0.5665331711383969,2.036427200544782
5.27734375,0.1886379481962922,-1.4031230389355094
5.28125,0.357184357282067,-1.023028197361249
5.28515625,-0.5227024605384365,2.187945612529551
5.2890625,0.026867252078170326,0.8499124955111262
5.29296875,1.0122796935821108,0.6799511981567127
5.296875,-0.7285082258565158,0.8821905159868707
5.30078125,-0.374115248370585,-0.7124768627205141
5.3046875,-0.23063540541851218,-0.6540689667916911
5.30859375,-1.6089758170178143,0.7512387262053283
5.3125,0.12115369610351856,0.9943218999185195
5.31640625,-0.23107311699395106,0.12206190088705063
5.3203125,0.1740498547076836,-0.4663724875978675
5.32421875,-1.3546779669258746,0.2558983298823
5.328125,0.18381446701134393,-0.8220975601983436
5.33203125,0.6741570847515433,0.23009725472255046
5.3359375,-0.3412146358238587,-1.4341647908401267
5.33984375,0.3013995204904259,1.7545800906256588
5.34375,-2.566025432447239,-1.4146130289555952
5.34765625,0.42757886626364805,1.0904293119335247
5.3515625,-0.43957476052973654,1.694579512515309
5.35546875,1.2749597475103305,1.824168888980115
5.359375,-0.9258160170638792,0.1426935371377978
5.36328125,-1.338516169352394,-0.37945038556652705
5.3671875,1.3307836501941497,0.9078448870789618
5.37109375,0.17114581821716365,-0.38676444550473565
5.375,-0.8376580233909776,0.4827807547334945
5.37890625,0.30709069999719346,1.509609402885968
5.3828125,-0.5341886135235344,0.4610922150697277
5.38671875,-1.0763924517957286,-0.026194053596762176
5.390625,-1.5843028883645445,-2.2658130962711556
5.39453125,-1.5271729993632905,-2.105973393854647
5.3984375,0.9271066051402853,2.795324173942908
5.40234375,0.20403255100922338,0.5133561082395826
5.40625,1.0391671061236376,-1.9802239103998052
5.41015625,-1.3712482737593712,-1.736989950208296
5.4140625,2.508190038803072,0.7663528973684648
5.41796875,-1.2293283817161436,-0.5812379454653317
5.421875,-0.9602497246663687,-0.38377881389521673
5.42578125,0.21920912738307666,0.6850571783192113
5.4296875,-0.49408708497855724,-0.5116375581228079
5.43359375,-0.20892481492028794,-0.1720783397252888
5.4375,-0.5020026438641404,-0.10535323583743025
5.44140625,0.10981710674323229,0.40031108916637637
5.4453125,0.3901991000687057,-0.6128925490226759
5.44921875,0.5093638960554576,1.3632711157938375
5.453125,1.3342323157579101,1.6234645891040744
5.45703125,-0.029324080477528536,-0.1834983131730012
5.4609375,0.5197347577932815,-0.4038879309570872
5.46484375,-1.6389551626942362,-2.115424391237725
5.46875,0.9776672807800796,0.8466703573924276
5.47265625,0.07968643271990643,-0.44939488200810235
5.4765625,-1.145771851511238,2.2493866689002546
5.48046875,-0.2500089433456096,0.07646869730927944
5.484375,-1.072207656936998,-0.27669076856007807
5.48828125,-0.2725126891845151,-1.8652357643509057
5.4921875,-1.7637005391926266,0.9192614331592891
5.49609375,-0.9095715792018333,-1.6630760268835407
5.5,0.6369705247982597,-0.6481860350385701
5.50390625,-0.9060194540835865,0.5675350007445766
5.5078125,-1.2409975838558651,-0.13657615611049434
5.51171875,-0.2946141728887498,0.12756270759290217
5.515625,0.4422612160124898,1.2562000910013906
5.51953125,-1.0154102341260047,-0.7936730976522502
5.5234375,1.281656949495586,-0.3207021766643303
5.52734375,-0.664895384105794,-0.19445160283643617
5.53125,-0.6112007871497327,-0.4574166521526887
5.53515625,-0.35783618857147387,1.2743972269216024
5.5390625,-0.6136241178967948,0.13752409714309244
5.54296875,-0.9661361949449876,0.9964041754390193
5.546875,-0.6857998421918755,-0.7319190934758486
5.55078125,1.132784233673907,1.2521181901632097
5.5546875,-2.0948098571395457,-1.3389735954902366
5.55859375,0.3815191794857805,0.6878536388596324
5.5625,-1.6498237338450525,0.4581683130657261
5.56640625,-0.5475988397072027,0.5499418341809879
5.5703125,0.9931200414229868,-0.7337533863146426
5.57421875,0.22254852196846364,1.509505311604597
5.578125,0.8149912985053782,0.4039077943172469
5.58203125,-0.712905841164412,0.781263176714298
5.5859375,0.23399684552425115,-1.1991204426481903
5.58984375,-0.4113474788061942,-0.7099698991621769
5.59375,-0.05769809269156943,0.7081050551659946
5.59765625,1.631536845778055,-0.1594324896695725
5.6015625,0.5688464135840984,-0.5282498004670527
5.60546875,0.12087489164956726,0.44021851849914895
5.609375,-0.5300344999494401,1.3724757695065968
5.61328125,-0.6401003600613111,0.8197028737289058
5.6171875,0.13367381524549293,-0.05907127904041488
5.62109375,-1.3235168558366013,-0.0009237551404820004
5.625,-1.4371405672622888,-1.9606935044377363
5.62890625,-0.9003216940480191,0.3088016105669239
5.6328125,0.7047771635605066,-2.1940031851987087
5.63671875,0.06611382378957745,-0.7693132248902531
5.640625,0.6675293263655201,-0.6174247717851583
5.64453125,-0.14319344581033125,1.3629412238636394
5.6484375,0.40983049789298526,1.0552863381471083
5.65234375,0.9341311469711971,-0.31637933310140454
5.65625,-0.27616737551325926,0.12399585114418468
5.66015625,-1.7991718276794502,0.31070622236747836
5.6640625,0.6784472255209325,-0.33841897565876544
5.66796875,-2.2476478595508826,-0.49433671290656767
5.671875,-0.8866156881537013,0.7526449757149659
5.67578125,0.678010609547295,0.3430306390654569
5.6796875,0.43976020369405666,0.2064133282607138
5.68359375,0.969742721028011,1.3446079315787436
5.6875,1.4146591034004228,0.2871550400893372
5.69140625,0.7961325007888943,-1.1862021674553056
5.6953125,0.5995140948159813,-0.29473647821451643
5.69921875,0.5603842355734594,2.8120433443314723
5.703125,0.07320181564583521,-3.1081617454753956
5.70703125,0.15016004887099782,2.114129091064088
5.7109375,-0.5166520961856977,-0.3714801683508969
5.71484375,1.9900766066670674,0.864127947030373
5.71875,0.23096584507218723,-0.2578658229598156
5.72265625,0.20494275724279507,0.04574492725876447
5.7265625,1.105659196429837,1.1153043260024615
5.73046875,-0.09901117388739952,-1.3857975269604104
5.734375,-0.6344099597015513,0.5749220583778947
5.73828125,1.355869804734115,-1.5090967751767543
5.7421875,-2.541217339174203,0.8454313345476081
5.74609375,-1.1732925203747262,-1.1704827151874815
5.75,-0.22655718302868902,-1.402177209481593
5.75390625,1.0751672924720805,1.2648838263167361
5.7578125,-1.0058345221306526,0.22194446764083106
5.76171875,-0.790974971139622,0.29351881451046735
5.765625,0.3965923529716836,-1.111511188135841
5.76953125,-0.72991002561741,0.784085554344767
5.7734375,-0.8748821689071373,1.5153065937891466
5.77734375,1.3906814981867703,0.5441409126695952
5.78125,0.02075920999542462,0.7195978434815379
5.78515625,-0.21018301270145698,0.5051960530290441
5.7890625,-0.36574996847733593,0.9357336988249525
5.79296875,0.13170514773979278,0.24481340569589344
5.796875,-1.716867105418654,-0.8924851281440683
5.80078125,-1.2331259823404974,-0.11529005727001092
5.8046875,-0.25851411974737804,-1.61755522858839
5.80859375,-0.17688973785410095,-0.6622309496270503
5.8125,-0.6371987735615655,-0.05711958615610368
5.81640625,1.1387181224457386,0.06346625280245924
5.8203125,0.5024601202362385,-0.028453904332005345
5.82421875,-0.7020543669762227,-1.2308358630536407
5.828125,1.1793465441158468,0.530167317249367
5.83203125,0.15035976849949373,0.07834235936732245
5.8359375,-0.8334754785425637,-0.32883113453563856
5.83984375,1.6160041052085028,-0.022667532228192736
5.84375,0.5944206080768918,0.8697871318948557
5.84765625,1.0367453715504444,0.6622934292300401
5.8515625,-0.0035617646133584823,-1.0702250248911411
5.85546875,-1.5336725512738574,0.2704931395972771
5.859375,-0.9164370711069683,1.0579043596009245
5.86328125,-1.2131330587159257,-1.68892673470545
5.8671875,-0.9563468354073714,-0.2364158089445135
5.87109375,0.7440727668176251,-0.09858356631166634
5.875,1.4198612507455208,-1.13268099496409
5.87890625,1.1185459948382013,-0.7093458358938387
5.8828125,-0.19279687222830746,-1.164076589050549
5.88671875,-0.3996115636512128,0.972692490813044
5.890625,0.9551900069646626,2.558122186615206
5.89453125,-0.08499300636320746,-0.3371711527868012
5.8984375,0.7464310357890533,2.0169187040336864
5.90234375,0.2871637719093295,-0.8374530091855474
5.90625,-0.8557477310785383,-0.48808316267925844
5.91015625,1.368013811493787,0.10922673716688416
5.9140625,0.563143624298289,-2.746514902652747
5.91796875,-0.3799937130516319,0.646795183081465
5.921875,0.24673000273916676,-1.9876350975130204
5.92578125,-0.9737610418531101,-0.23645111114457473
5.9296875,0.7726458174395248,1.4091381773109448
5.93359375,0.03322486747870415,0.7930706999195842
5.9375,0.2532719261764861,1.2875543624187533
5.94140625,0.4774078688706763,-1.3644664059146188
5.9453125,-0.01622549409440237,-0.25243019189922394
5.94921875,0.17896839915912965,-3.1035913881187938
5.953125,2.120065933488128,0.6608621307410334
5.95703125,0.15173679782539176,0.20502648919197575
5.9609375,2.1696715769188146,0.3994910252376033
5.96484375,-0.09806411029652264,0.49506602937612637
5.96875,-0.64514159736188,1.161752594087262
5.97265625,-1.2321649832778823,-0.05407580894298348
5.9765625,0.4630622951096389,-0.43612612218745767
5.98046875,-0.9531475990912661,0.672556525517114
5.984375,1.9081934442545865,-0.5521073851025678
5.98828125,0.5348253562224714,0.9957464378287122
5.9921875,0.5745124457799486,0.01621413112981896
5.99609375,1.0884369503875204,-0.01938699552330704
6.0,-1.1863386738855182,-0.0008758870035834751
6.00390625,0.006157464166338298,-2.638393630446443
6.0078125,1.1765501081780207,-2.1570954584079325
6.01171875,-0.25896371417749725,0.9695645910633618
6.015625,-0.8602560055926536,0.301060273438887
6.01953125,-0.5466147138445365,1.9811285495071067
6.0234375,1.5350268812755645,-1.237708257143252
6.02734375,1.8029508728290913,-0.17328326000393604
6.03125,-0.7962771907591151,-1.5365369134606282
6.03515625,-2.108242538718363,-0.35015943355882884
6.0390625,0.07202132888108781,-0.787630982914538
6.04296875,-2.3017915710287955,1.0665818779959886
6.046875,1.0460385923574433,-0.16137498975866016
6.05078125,-0.6545473780875232,-1.5526537355333943
6.0546875,0.3625976416310571,-0.5588496238987012
6.05859375,1.0606131679257187,0.11972425404417475
6.0625,-0.5849254051783513,-1.148381009155379
6.06640625,-0.43157843687152003,-0.8815374128299152
6.0703125,-0.31147267110889315,1.414955125733741
6.07421875,0.9079863516011214,0.636490129994707
6.078125,2.5631370966569067,1.9934858917767766
6.08203125,-1.479299076894975,2.2882894222985968
6.0859375,-0.6198738684054708,-0.2543872877944408
6.08984375,1.383410641071674,0.9041883763448856
6.09375,0.6475182296430784,-2.331015262638909
6.09765625,0.4320540816840529,-0.2877238887380375
6.1015625,-2.416672676551638,-2.472353075458124
6.10546875,-0.3076484075483381,-0.23938288774118807
6.109375,-0.10790014131376333,-0.26090663875848935
6.11328125,0.3735283407164566,0.5449011793222943
6.1171875,1.3440756552831896,0.8107041444549059
6.12109375,0.4528374031702899,0.4422201130407135
6.125,-1.3078675317860458,-0.9564201210419365
6.12890625,-0.940579983359635,0.9907702253667207
6.1328125,-0.08654111689253062,-0.34059018679746283
6.13671875,-1.0614773270504114,0.13105722247708534
6.140625,-0.31716522909439177,0.31661050804868784
6.14453125,0.33510022055081096,-1.571102082370276
6.1484375,0.19731731658287108,-1.2098831736324336
6.15234375,-0.05335355248701392,-0.5927949701415374
6.15625,-0.5695068324962296,-1.0418492552890555
6.16015625,-0.46213083959906204,-1.1224314259214987
6.1640625,-0.08829906721284415,2.028975401487988
6.16796875,-0.0014675866564172822,-0.4973145737569018
6.171875,0.029104492008566085,-0.13488418099136903
6.17578125,-0.9918365624147346,1.5135423021633927
6.1796875,-0.3366852598665987,1.6486741166705827
6.18359375,-1.4825639821539935,-0.5656214180785033
6.1875,0.2902835662312062,-0.5294961351584774
6.19140625,-1.824702936092588,-1.3669562382370324
6.1953125,0.6043123223464797,-0.15619359004405511
6.19921875,1.1120922458232643,-1.060952694406609
6.203125,0.41173936128628763,-0.8157983066850456
6.20703125,0.7603594097032205,-0.6272021299609406
6.2109375,0.9389263842245031,0.4499283569268965
6.21484375,0.04557639365187328,-0.059290316839595
6.21875,-0.3762130902319191,-0.6077277424293813
6.22265625,0.18033334316308475,-0.019472783996731066
6.2265625,0.3556141911026317,2.9273011209765554
6.23046875,0.19864967389102087,1.3799518536071085
6.234375,0.6405975636987052,-0.29293396443545755
6.23828125,-0.49864795800675793,0.9322609631238193
6.2421875,0.7752210856489229,-1.7383158805522365
6.24609375,-1.1620293665370993,-0.9455581421663347
6.25,0.12366652090316484,-0.9608229812183575
6.25390625,0.016361011146839334,-1.610973635168368
6.2578125,-0.3548850223038853,0.8402678826511134
6.26171875,-0.7944728469686367,-0.9535488085079776
6.265625,-0.970766111431371,0.6433030788069642
6.26953125,0.6130160648458082,1.329196256111976
6.2734375,2.2822030021247603,-0.5914466835218143
6.27734375,-0.04697431358815366,0.8569037714840783
6.28125,2.130340869675658,-0.7111023299351884
6.28515625,-0.7091632468941892,0.3073170059251705
6.2890625,0.5887738260560716,-0.4938585915160583
6.29296875,-0.07656746471564044,0.7409519150438781
6.296875,-0.49227641834046615,1.0023497931879797
6.30078125,1.2326616806912343,0.3359712444927229
6.3046875,-0.922803477902538,0.029410174591586288
6.30859375,0.9360641142374609,-0.10234773171185539
6.3125,-0.7795857136598096,-0.38582121152860177
6.31640625,2.077295603373711,-1.0468378236395481
6.3203125,0.234552626884639,-0.028998137669536156
6.32421875,0.6993761605649299,0.2402436028255728
6.328125,-0.40650336803092374,0.02786564689398251
6.33203125,0.140919327866679,-1.1330514094740398
6.3359375,-0.14917387897399115,0.39264071253424393
6.33984375,1.4732601718429987,1.3093262642506105
6.34375,-1.1086173204780367,-0.1731319451262179
6.34765625,-1.3623692621397145,-0.09432911059765567
6.3515625,-0.304416618835993,-0.3931963103469597
6.35546875,1.3061688987036222,0.7072972970080098
6.359375,-0.010917632081069011,-0.18336871635221907
6.36328125,1.97322841239459,1.1649898128835867
6.3671875,0.6789100002506614,0.22212362137569192
6.37109375,1.2313824890266216,1.6902547041260616
6.375,0.09789555254980079,0.5113186830347403
6.37890625,-0.17404391796664434,-0.4905080006607298
6.3828125,-0.4223424630863982,-0.6085718900081096
6.38671875,1.0611891363436294,-0.5987656463956524
6.390625,0.8122154922078855,-0.006794334240430999
6.39453125,-0.6802953583927478,-0.24486565141375477
6.3984375,1.4597659069277038,0.0569465944222249
6.40234375,-1.1606398169561962,0.6498757652052525
6.40625,-0.7317130274855691,1.1193096199295542
6.41015625,0.9101982844016907,-0.2852648003094755
6.4140625,1.9755283131999353,0.7156961100013206
6.41796875,0.01849547817508631,0.22607133250457453
6.421875,0.034470499668914474,0.7618269285181881
6.42578125,0.9653015037597573,0.3610961140828596
6.4296875,0.7698751318836298,-0.20857743680773688
6.43359375,0.46630443861966914,-0.5976243885451947
6.4375,0.13209685836377694,-0.5943799202320653
6.44140625,1.2112434639169096,0.634310678476548
6.4453125,-1.203839835106495,0.3830941850741881
6.44921875,-0.29545958083530677,-0.49543780461357895
6.453125,-0.04238005711133143,-1.0063941190464742
6.45703125,-1.2003454431994864,-0.19714240737997787
6.4609375,0.7221998435100281,0.3167027626639671
6.46484375,0.543719229386759,1.8342003359417327
6.46875,1.1765711632742895,-1.1302640874984133
6.47265625,-1.4588914244596494,-1.4669296619118803
6.4765625,-0.708377505134142,-0.7234859277469411
6.48046875,-0.8656923944410445,-0.006618098767517286
6.484375,0.5772838400144109,0.5097093565438312
6.48828125,-0.6699155697183495,0.006810065657952109
6.4921875,-0.34096707761890693,1.1944887524996697
6.49609375,0.323330403702859,-0.1121722036439049
6.5,1.079727954475393,0.40298892249366125
6.50390625,-1.0232045532461527,0.945913480915107
6.5078125,-0.18835409369813433,1.1815811869620465
6.51171875,1.9984910935900428,1.651598270228413
6.515625,-1.56613938639367,-1.4718883461789571
6.51953125,-0.7672890460256764,-1.0863265298044347
6.5234375,-0.3730234177192788,-1.543708506929909
6.52734375,0.47507057125279517,0.3451711354679018
6.53125,0.6139421433859785,1.7801407658405615
6.53515625,0.7282568562661752,-0.7786114088179533
6.5390625,0.8708222524802823,0.6583975527668321
6.54296875,-0.368521446198784,-0.8545684010962167
6.546875,0.4964900019044664,-0.9196671257643163
6.55078125,0.8818473202564366,-0.609072347952396
6.5546875,0.9931656205979873,-1.2679309674797832
6.55859375,0.3114753895581103,1.1692345975001142
6.5625,-0.7835134524437127,-0.7454008066398551
6.56640625,0.36214954732030086,0.45580086634982225
6.5703125,-1.0143531946842999,1.500375771927397
6.57421875,-0.32616083671950935,-0.013742030020108391
6.578125,-0.5679122299971884,-0.37408536348362487
6.58203125,0.2779393372183901,0.40847132450813156
6.5859375,-0.9774525488566402,1.1030850323627812
6.58984375,0.0396329463790207,0.1042977983566539
6.59375,0.45432306086770313,-0.05333528855984017
6.59765625,0.0710975043248214,-0.4113001122397817
6.6015625,-0.09774497816048193,-0.024822668424817597
6.60546875,-0.9043082058605814,-0.4571155046852908
6.609375,0.5131538622891495,-1.1289294478728316
6.61328125,-1.3997691187475179,-0.5272302648570476
6.6171875,-0.7280634844098,0.2317438022155835
6.62109375,1.306168733315006,-0.5724642556539692
6.625,0.37655221593978316,1.3051297187377713
6.62890625,-0.12038588613213069,0.3267060687767437
6.6328125,1.421135449636713,0.3259348573684242
6.63671875,0.0707873103273099,2.3355534265273747
6.640625,-1.806929968521894,0.6105377526946237
6.64453125,-1.4004354351382542,-1.1805857239919453
6.6484375,-0.6229071822709794,0.0504932263666186
6.65234375,-0.35356923884086455,-0.9198270398111037
6.65625,-1.0191681759128188,-0.3049682718696994
6.66015625,-1.4096712719368798,1.1916442947134804
6.6640625,0.1410929322534943,-0.053708030744195716
6.66796875,0.03236978731176738,-0.1888793210165861
6.671875,0.8614663079027196,0.22213400736774327
6.67578125,-0.9235603871489098,-0.0379832847327789
6.6796875,-0.03463390186128551,0.947593791326511
6.68359375,0.02365786958087815,-0.9857240262765483
6.6875,-1.2384991515517108,0.6574627670353711
6.69140625,0.07588476419283584,0.18903756154748588
6.6953125,-2.1333891557972997,1.614572598057123
6.69921875,-2.177366731622537,0.3119112423028778
6.703125,0.39741495732605475,0.2559335023830788
6.70703125,0.2444273274960476,-0.14830018305980555
6.7109375,0.22573550630285338,2.1289212246004783
6.71484375,-1.5308230429925607,-2.1749365919207526
6.71875,0.47508386082255016,-0.1144647457239736
6.72265625,-0.13045162085850245,0.1525326866321924
6.7265625,0.7125644473624051,-0.1284231221861278
6.73046875,0.678003216471632,1.3223463991923614
6.734375,0.2732571781970441,0.7382322355088508
6.73828125,1.1917171746716635,0.7671934255396892
6.7421875,-0.314988886343951,-0.16951025078802406
6.74609375,0.5090174044098232,-0.15386504857619845
6.75,1.068910724725329,-0.5945687739931094
6.75390625,1.4875607099759232,-1.300936669592131
6.7578125,2.1417419105636064,1.4502335712489816
6.76171875,-0.1916921663518789,-2.4164790455525527
6.765625,0.5442334726463739,0.5426387286323995
6.76953125,-1.2075283737739633,0.5546140090321388
6.7734375,-0.1276258466851511,-0.9804729153447945
6.77734375,0.7778404186396334,-0.5887133711401158
6.78125,-1.0614877577549546,-0.9160873925223688
6.78515625,0.5915163783245639,0.49981568896723944
6.7890625,-0.18748128411987153,-1.0844519578633123
6.79296875,0.14114476707917895,1.1194260208540683
6.796875,1.6479933043124166,0.9844112129324668
6.80078125,0.2669500863175522,-0.45311469666647264
6.8046875,0.4498955486939166,0.806382060867006
6.80859375,1.4286695968668865,1.1517875682206211
6.8125,-0.1565185142066168,2.3747183778765257
6.81640625,-0.8553416649568711,-0.10370827210612683
6.8203125,-0.1506638834327682,-0.45539111658760534
6.82421875,1.2608708831137947,-0.03942475581403831
6.828125,1.8746104619305364,-2.1995697780215795
6.83203125,-0.09470714281005356,0.5755934439735905
6.8359375,1.4449936584417062,-0.7905751773674196
6.83984375,1.931915044767653,0.2483868544902134
6.84375,0.8029558365473581,0.5984531474846594
6.84765625,-1.4034907819272053,0.8682411662668883
6.8515625,-0.9923941481583936,-1.557874239968576
6.85546875,-1.1537430237627417,-1.891678563510884
6.859375,0.5180616078080472,-1.6892405902301701
6.86328125,-1.5400970157632916,-0.15742259468367356
6.8671875,0.3031323610873287,0.017147996730104392
6.87109375,-0.8569824765143828,2.09689661122648
6.875,0.22705610507762694,0.21248294371277612
6.87890625,0.6563571721327319,-1.3662604853947942
6.8828125,0.2788854566789767,-1.5318491761413728
6.88671875,-0.8494749902956505,-1.5454020197776954
6.890625,-1.1599210442507872,1.9198393729845835
6.89453125,0.8517898664013758,-0.3427163021665121
6.8984375,-0.8676001340663008,0.676252858164969
6.90234375,-0.9683351312081874,-2.0873991273604737
6.90625,-0.45890552427467435,-0.9345686591859037
6.91015625,0.7125088230569064,0.41422823958211674
6.9140625,-2.8694660523919655,1.1511226148209863
6.91796875,0.19802875080227797,1.6630852794243973
6.921875,-0.18508201793930532,-0.2687924319420811
6.92578125,-0.7469981661456707,-1.6238160899950045
6.9296875,-0.013330562874848666,0.324318446522329
6.93359375,-0.041235017310751895,1.6084177589470616
6.9375,0.8134671298338384,0.8836962726823936
6.94140625,0.6493904623341754,-0.4138660306769426
6.9453125,-1.3274142169917296,-0.7480875337073087
6.94921875,0.2153564164877897,-0.4138634956721897
6.953125,-0.9248562897791283,1.133876803204058
6.95703125,-0.5646389310136155,0.04132052870681531
6.9609375,1.7654468581513088,2.0018846008456
6.96484375,1.5025201605611875,-1.7913024590767126
6.96875,1.9693245624319404,0.24553955340290445
6.97265625,0.32319302783042764,0.8493155444040762
6.9765625,1.1314339863220946,-1.120487181350748
6.98046875,1.1500368821804352,-0.6891051170334644
6.984375,0.8675589595961521,-0.6134813060491965
6.98828125,0.3394502232114011,-1.0309686919745191
6.9921875,0.9130566634771229,-1.2380711195371428
6.99609375,-0.971776161876387,-0.960666413133318
7.0,-0.3764037238398382,0.15858692588688808
7.00390625,0.050804139679729396,0.285814244256463
7.0078125,1.0805876707399458,0.1368655972465507
7.01171875,0.24778551541062782,0.8562787370260299
7.015625,1.1393061872722527,-0.2406965348672807
7.01953125,0.7945694071813091,-0.04915152230972145
7.0234375,0.6788691776805482,-1.7784444904209917
7.02734375,0.5562057970703765,-0.46990756689353697
7.03125,1.214606842352383,1.4702530215929943
7.03515625,-1.0266740995915224,0.013292837058754817
7.0390625,1.9458522418025916,1.9351088768987221
7.04296875,3.0039742750661387,-0.2772917330627598
7.046875,3.41413903140716,1.4739791784641507
7.05078125,-0.08394428993015177,0.18817713452821305
7.0546875,-1.2536209884739127,0.4818727150631315
7.05859375,0.6366534025823135,1.7506369564797413
7.0625,-0.03267837056121106,-1.305155254112478
7.06640625,0.030423176191216417,-0.06670736119502972
7.0703125,-0.08618801577731296,-0.08962418809787423
7.07421875,-1.1757781008695665,-0.6292015940487702
7.078125,-0.31325011356294685,1.0034665870525634
7.08203125,1.896450353863733,0.4245540015234966
7.0859375,1.4731701893809737,0.875650127920965
7.08984375,-0.6489776340685395,-0.1913526237467069
7.09375,-0.7039409915010801,0.5433965794357122
7.09765625,0.21899952465936168,0.7713886423418677
7.1015625,-0.5623857990234421,-0.34278957423678136
7.10546875,-0.6079317841642327,-0.9561451858969251
7.109375,-0.5480755295174885,1.141436445392815
7.11328125,-0.5615184388431864,1.3605415819813245
7.1171875,-0.5852172026012319,-0.1580882813307913
7.12109375,-0.5985337616892996,1.110015288700454
7.125,0.12441945038803758,1.816425409628366
7.12890625,0.281947828120737,0.07777936699299509
7.1328125,0.8215784921075551,-0.09028343179655514
7.13671875,0.2544856436862679,-3.2050103562120547
7.140625,2.0539659514472084,-1.6220048309512536
7.14453125,0.3010114735667874,0.08852360961051879
7.1484375,-0.5907847884129926,1.0451553124363058
7.15234375,-1.4066856112546051,0.7158453720091841
7.15625,0.9730069540494122,-0.6136121629371569
7.16015625,0.12354293534981152,1.831682821371607
7.1640625,2.441033760305009,0.3123157289558602
7.16796875,0.5978807023465476,0.23967969977093803
7.171875,0.29974440698631527,-1.713459889960644
7.17578125,-0.15241182690511254,0.1465336423050806
7.1796875,-1.736268813312274,-0.5893584040540034
7.18359375,-1.0479194738149982,-0.9186720773680574
7.1875,-0.10407563452629953,1.1398520793878
7.19140625,1.7112329233971084,-0.12311490383652568
7.1953125,-1.4570565469341077,1.1679666031443254
7.19921875,-0.32811894670340863,-1.1139290014094996
7.203125,1.5250366766093404,-0.17678755748653355
7.20703125,0.44899887245470677,1.4427824089900427
7.2109375,0.016249376335929672,-0.16881577678312978
7.21484375,-1.0131135662534367,0.6241902581813163
7.21875,1.7372248485367234,0.6727533936410852
7.22265625,0.7394211936435372,-1.255915900303011
7.2265625,0.07947656403074516,-1.0580952907625325
7.23046875,0.110002918444265,-0.47060598259074443
7.234375,0.5935595051786003,-0.7175026606983359
7.23828125,0.8586887491902115,0.6110621908621001
7.2421875,-0.839896920115821,-0.10329905650081274
7.24609375,-0.25518693790250985,0.426653302253207
7.25,-1.2832450427910815,-0.1900441023220328
7.25390625,0.9344148715699899,0.14407704997344703
7.2578125,-1.0807139995680428,0.5000646703871328
7.26171875,1.0646233651092851,-0.8512378885774369
7.265625,0.6106122288507166,-0.6882547076945218
7.26953125,0.518879505193651,-1.0761941882257862
7.2734375,1.776099245546442,-1.7304561173752864
7.27734375,0.7360550035813295,1.2197378869143098
7.28125,0.6484503502051929,0.07639685620525094
7.28515625,-0.43942268921556166,-1.2340140298160374
7.2890625,-0.1781693979805596,1.295421265967688
7.29296875,1.0920671338707153,-0.6660293430827131
7.296875,-1.2347522430881184,0.6408172593685503
7.30078125,0.18963640660064426,0.03788081958232915
7.3046875,1.5902129924485722,-0.1575210230509937
7.30859375,-0.6019402301449505,-1.8723179077634686
7.3125,0.9862408483217365,-0.21714331063113265
7.31640625,-0.610161453500597,-0.7469006707552407
7.3203125,-0.47473142516005856,1.306459802589981
7.32421875,-0.6603945934870029,0.8219345341708891
7.328125,-1.7462113998918298,0.6994484504292774
7.33203125,-0.07797420489563346,0.09465296352341995
7.3359375,0.9582470180286896,1.0992763453076422
7.33984375,-1.7963159843379368,0.6011560415758079
7.34375,-1.3947600532941251,0.06589370017297078
7.34765625,-0.8117505832507917,-1.185047197384627
7.3515625,-0.9620643400881558,-1.3111417184878795
7.35546875,0.007123928465637997,1.5580131687974474
7.359375,-1.5672060149744698,1.046564218272323
7.36328125,-1.2980699991385851,0.4235051747562577
7.3671875,0.08844809121024154,-0.5939403646880868
7.37109375,1.9844869717124571,0.4106111128345418
7.375,0.4921817521085775,0.33844425218595453
7.37890625,0.08100724181070798,0.22062225885937276
7.3828125,0.8882940258692509,1.026397751272323
7.38671875,-1.1972969241524551,0.008512894804209114
7.390625,0.2480574039978823,-0.7797780331322056
7.39453125,0.6271133546780098,-0.27927350434255555
7.3984375,1.970492915251094,-2.1224777005378903
7.40234375,-0.5720595695012989,-1.6641132941623995
7.40625,-0.02723163736708708,-0.9579011878377105
7.41015625,0.13908801278300043,0.1095981433577725
7.4140625,-0.4501768994050905,-0.8484488309079394
7.41796875,1.054926377561755,0.254106196823425
7.421875,-0.9596740378779371,0.7217705841746013
7.42578125,-2.145863305888501,-1.288859196601723
7.4296875,-0.4145048782871573,1.3818901254373483
7.43359375,2.999407896438435,-1.4293699477911646
7.4375,0.5803599181524162,-1.0218302834269088
7.44140625,1.3684321962550647,-1.5538063863828797
7.4453125,0.13152560856351214,0.5983272898414446
7.44921875,-0.003956031469162091,-1.8546400499932079
7.453125,-1.222350068234861,0.08373162554056829
7.45703125,-1.7525709586492564,1.3901232566250536
7.4609375,-0.91013131231392,1.1783334739771465
7.46484375,1.4620348950474675,0.5744679001989274
7.46875,-1.1998123330795432,0.3912378204559156
7.47265625,-0.042553444122929586,0.33754566934045477
7.4765625,-0.015374556378242261,0.5443225087894251
7.48046875,-1.298473790820385,1.1653929305129787
7.484375,-0.517626953686535,0.7208380280688177
7.48828125,0.25892849134256146,0.5041799553046344
7.4921875,0.6838385687800935,1.4830474634801634
7.49609375,-1.3377963740515915,0.2799639827764903
7.5,-0.477695623880277,0.7790018035309264
7.50390625,-0.25428491110557233,-1.858439363482499
7.5078125,-1.6642095880378134,0.8557251309470327
7.51171875,-1.589684139775697,-0.08331600420156843
7.515625,0.810884361493541,-1.3879941013743242
7.51953125,1.3313049589577932,-1.594045824296285
7.5234375,-1.1269561173003115,0.1901975755362878
7.52734375,-0.07122586523601945,-0.4208301239368908
7.53125,0.3062870158497066,-0.4426177747375555
7.53515625,-0.09907467884958904,-0.2153854378954902
7.5390625,0.3631451095469952,1.4483426299382614
7.54296875,2.071082130120843,-0.06551879311841986
7.546875,-0.5858582546187088,0.8930362276383119
7.55078125,-0.6496140056744707,1.211135829786347
7.5546875,-0.8087523721513434,0.08330608896380455
7.55859375,0.5508120106386051,-0.5824057693955761
7.5625,-0.37616519652803876,1.2935973901059423
7.56640625,0.15762485973647164,0.87342297423593
7.5703125,0.6737563702202165,0.3295012500455578
7.57421875,0.48414440690288446,-0.23058872972815475
7.578125,0.5924334854463426,1.981846426373665
7.58203125,-0.29138399934171716,-0.6046246822827606
7.5859375,-0.7195390201514812,1.7184387032379869
7.58984375,-0.09473020804636195,-1.7700674006054873
7.59375,0.7006061192749591,-0.9941536269840071
7.59765625,-0.23865581334887798,-0.040081850178710444
7.6015625,-0.12310605666150944,-1.0816583613799997
7.60546875,0.35983879121261264,0.35189895854083864
7.609375,1.0833924041716576,1.3046383058101176
7.61328125,1.4168532694668217,-0.22596561765045528
7.6171875,0.17784746836308593,-0.12753024707294286
7.62109375,-0.78379740250097,-0.3731806109541381
7.625,-0.5537673678599789,1.5589280175861893
7.62890625,-1.1611288392566512,-1.8481595870580807
7.6328125,0.19466008609958438,-0.0392347011833801
7.63671875,0.05866985762061292,0.14977440184162397
7.640625,0.04356172057640428,-0.039734466212157225
7.64453125,0.07529941246032805,-0.4056444518477643
7.6484375,0.0851027445469376,1.141688546315479
7.65234375,-0.06801826518595712,-1.0531620312645296
7.65625,-0.8335229526356385,0.6817300748124386
7.66015625,-0.8551178851364333,-0.21772407890848694
7.6640625,-1.883923178239381,0.7670010413502568
7.66796875,1.1932317529300027,-1.3681327865508288
7.671875,-0.02436855643777041,1.2503753115701433
7.67578125,-0.016215702292835883,-0.9556970874272127
7.6796875,-0.007018217892494906,0.9707628688889939
7.68359375,-1.8662258994216154,-0.8081936697776321
7.6875,-2.3094370876699286,-0.11889421493142278
7.69140625,-0.5644920724421056,1.1513344883114902
7.6953125,1.0000127522847018,-0.28579281566528325
7.69921875,0.5819727692880527,-0.8109828662728071
7.703125,1.7105400274952642,1.4485605954839984
7.70703125,-0.1938648068036659,0.8554718923847464
7.7109375,0.5400691954669813,-0.8860835055540649
7.71484375,-1.5841334542313348,0.8736299499666539
7.71875,-0.056532481676714076,0.4368620441504407
7.72265625,-0.11006784072557382,0.41004512486018707
7.7265625,-1.252532320013772,-0.9702777016680773
7.73046875,-0.07188939850928935,-0.437621639163654
7.734375,-0.32789114450281864,0.48726845853140105
7.73828125,-0.9490525399085952,-1.7050099775810938
7.7421875,1.338604912368488,-0.9060412853676195
7.74609375,-1.004449329548852,0.15606185343287926
7.75,-0.18106474420399862,-0.03778808123242031
7.75390625,1.003061528749845,1.3450756348711561
7.7578125,-0.39431607617551645,0.35940173805725606
7.76171875,-0.15413762209073642,-0.776273548107348
7.765625,0.5282161027485514,-0.6791192283071728
7.76953125,-0.9615655048104944,-0.19673754576806882
7.7734375,0.01810342399732248,-0.16006119135741104
7.77734375,-0.3834498587754173,-0.1808130721177149
7.78125,0.46660613117058336,-1.2248463499943154
7.78515625,-0.8784016249684228,1.1789991411198484
7.7890625,-0.13341732194767816,-0.2906484796895536
7.79296875,0.07759507007832614,-0.09147288913887215
7.796875,-0.6183033943501548,0.2647705754545334
7.80078125,0.2774437728237414,0.4147374165482278
7.8046875,-1.316074392530687,-0.4963423031930659
7.80859375,0.22795312739914536,1.781846446038492
7.8125,0.7108437063620648,0.35544017913677883
7.81640625,-2.027668293337535,-0.8466466911202916
7.8203125,0.0179718413032205,-0.09161530210246166
7.82421875,1.3365712876838094,-0.16120311950306565
7.828125,-1.716410851938969,0.6851843929655431
7.83203125,0.9010364888676384,1.0335502360018094
7.8359375,-2.4459603249459567,0.5097614476515231
7.83984375,-0.44868833776757944,0.9883048556663268
7.84375,-0.770415293735351,-0.2530040914167555
7.84765625,-1.8050715484992397,0.5667631321443838
7.8515625,0.6253823786021412,-0.45011677443409004
7.85546875,0.2021631306326115,1.3028251245303382
7.859375,0.1796339245365009,-0.7945986148118149
7.86328125,-0.9166724611708083,1.5361246497204943
7.8671875,-0.11377733780475699,-1.1065128479898574
7.87109375,-1.260901062116997,1.846948626586032
7.875,1.029620214530988,1.1667197302957963
7.87890625,-0.5060760338533415,1.4498044509850991
7.8828125,-0.272907714638682,-0.2607379702071244
7.88671875,-0.4022248714938802,0.43639818276566894
7.890625,1.1388286894136646,-0.4322188298115516
7.89453125,1.3789046745962397,-0.006363208117106837
7.8984375,1.3061159324553366,-0.30505010120515474
7.90234375,-0.5746228023233084,0.5268015566766826
7.90625,0.4574753830161636,-1.0318533321490546
7.91015625,0.47833517379313883,-0.7287116326633986
7.9140625,1.0507198476743076,-0.7664778414613751
7.91796875,0.1185483482592985,0.09451130861674217
7.921875,0.022723259064691637,-2.1370037273524334
7.92578125,-1.6383277057862846,-1.3016022850376998
7.9296875,0.7336753551887516,1.2793165653990473
7.93359375,-1.437329640283706,-0.146233865823492
7.9375,0.6623830367273328,0.036350765338861446
7.94140625,0.21700171792430115,1.9615481596625657
7.9453125,-1.6911356805591595,0.8264256475546213
7.94921875,-0.3797261929691371,2.013420780567724
7.953125,0.7200309745922792,0.9026638251402102
7.95703125,-1.7315982677143895,1.2191175040917805
7.9609375,0.38418640417574723,0.3864132741992108
7.96484375,0.46663593903208167,-0.945187799409973
7.96875,0.5556759116831328,-2.0468616466729075
7.97265625,-0.5285223899820202,0.5231683702939134
7.9765625,0.33696443713205115,0.365338226673196
7.98046875,-2.9393043825415925,1.7991969858935541
7.984375,0.0011114074946270685,0.1765587797623255
7.98828125,0.5332746837614816,0.9757363879822423
7.9921875,-0.48360478302581406,0.35336214834626567
7.99609375,-0.3548199587040414,-0.5590309175084192
8.0,-0.07999678237087009,0.19936864144882785
8.00390625,0.9889565484883874,-0.8042936785655184
8.0078125,-1.0318213435801507,-1.015812466051209
8.01171875,0.8770160671269692,0.1645393416949553
8.015625,-0.6505161648456098,-0.030869236211847437
8.01953125,0.48213852575789456,-0.380197930372959
8.0234375,-0.13576392121084183,1.0964520006262464
8.02734375,0.37220796365482556,-1.4580645372451766
8.03125,-0.07951414077980543,-0.06714718902029991
8.03515625,-0.6714036560961171,0.2517730120646676
8.0390625,-0.029348480336655505,-0.013319490997291936
8.04296875,0.23035718892373558,0.12794279373445663
8.046875,-0.486328432253876,1.586667000640281
8.05078125,-0.5023707379033638,1.4878215991098536
8.0546875,1.0546347910128056,-1.0405358986288857
8.05859375,0.6450442334385401,-0.019465471388870774
8.0625,0.5415920813909282,-0.0983035891716704
8.06640625,1.1005580663863022,1.9779568009140904
8.0703125,-0.2725189743367819,1.7384746543374257
8.07421875,0.576813104920824,0.6451576230553934
8.078125,-0.23409739739741936,-0.7377276536892923
8.08203125,0.1276322145551281,3.9324401754729177
8.0859375,0.2191745920764258,-0.5919529458856987
8.08984375,-1.2512828577265023,1.4284525621133666
8.09375,0.4516194648593368,-0.40832789551905196
8.09765625,-0.08087076238954366,1.6449977728633591
8.1015625,-0.6044641111490556,-2.8067695906762737
8.10546875,-3.168259050306758,-0.1203754722394371
8.109375,-0.7946684288108748,1.7528716289574875
8.11328125,1.4075098659724803,0.7855459255434724
8.1171875,-0.36582695647116475,1.4840574679931944
8.12109375,0.8556733670401147,0.2750615014845991
8.125,-0.4897677390514714,-1.4984655500290947
8.12890625,-0.9589980762401179,-1.5056865963979438
8.1328125,-0.3427180551999073,1.658184796205417
8.13671875,-0.617653857319357,0.3521987905725019
8.140625,-0.04249527054119227,-1.0522444219471592
8.14453125,-0.6039503885189214,-1.0990192305101214
8.1484375,-1.2103338847536946,-1.3206783748325062
8.15234375,-0.6183973316567092,0.6198412318545998
8.15625,-2.156202632082691,0.912921078362605
8.16015625,-1.4159095090098086,1.37026250591959
8.1640625,1.2478541910040803,0.9983051172921987
8.16796875,-0.046866892527364444,-1.6912381943880184
8.171875,-0.22687674288085452,1.1819763145273339
8.17578125,-1.0567073529872908,1.0377059832448294
8.1796875,-0.4087796741702972,-0.06296989092744139
8.18359375,0.9627040843285134,-0.7102010955978728
8.1875,-0.9448254543060943,0.9769764948708345
8.19140625,0.4156488680546998,-0.24222708140560906
8.1953125,-0.6137503611666894,-0.2813623572057993
8.19921875,0.47324988566086423,0.0647264264984397
8.203125,0.23317144845627397,0.118233621256358
8.20703125,-0.49618963271295663,-0.7248381897079844
8.2109375,-1.163527516976109,-2.0625822488512284
8.21484375,-0.7679556832991827,0.8981102049189237
8.21875,-0.7506674954686842,0.32689594974161823
8.22265625,-1.894879057970036,-0.309016248385007
8.2265625,1.242954123742108,-0.026216215704929276
8.23046875,-0.2124532472563658,0.6689688361059536
8.234375,-0.6331616431098325,-0.2845416938874926
8.23828125,0.35642839856307185,0.8765208227293296
8.2421875,-0.7868338897890778,0.13186210096471962
8.24609375,-0.5672493314298113,-0.1377109230402033
8.25,-0.3011234966014716,-0.9388896550539615
8.25390625,0.2930912734243374,-0.45084099713216885
8.2578125,-1.118412216260557,2.3112195441310206
8.26171875,-0.6776554651277521,-0.6746853536037444
8.265625,1.0890740065880227,0.41175125967000686
8.26953125,-0.7285905437389505,-0.05669220042659143
8.2734375,-3.272462003416932,-0.8427843444944857
8.27734375,0.4447248603580006,-2.1738869663104947
8.28125,-0.3846546443102271,-0.6997369668331886
8.28515625,-1.8637041035062947,0.641519353821444
8.2890625,0.21165548334154746,-0.4675142863831783
8.29296875,-0.1070972938893337,1.0881435501581318
8.296875,0.7731371893346781,0.5003454196586593
8.30078125,1.389735993491584,0.3452244780784647
8.3046875,0.49857231550188746,1.7359897104657565
8.30859375,2.080425976611655,0.04822683001233197
8.3125,-0.6743754885545623,-2.13215748378453
8.31640625,-1.413722577383457,-0.950815458839107
8.3203125,-0.8204457686955435,-0.0041431025015103125
8.32421875,-0.0765203340709803,0.1311673288635559
8.328125,-0.6112547736565431,0.9045762597443754
8.33203125,0.48337458420958906,-0.8269094180268646
8.3359375,-0.2188712518324723,1.2786407749896835
8.33984375,0.4990141483819993,-0.3102234190227735
8.34375,-0.5408529048454697,0.8665182937750894
8.34765625,1.8541953598185792,-1.1818111600418666
8.3515625,-0.14203111164452784,-0.6955409571549546
8.35546875,-0.7658359225992546,-0.23480280364459294
8.359375,-1.1743138294511357,0.6982726299151032
8.36328125,-1.1855593422827506,-0.733924895117177
8.3671875,-2.032668247707976,1.4946532947436266
8.37109375,-0.3816017086635148,-0.31778986326507525
8.375,0.6374684742420056,-1.763937442606262
8.37890625,1.125086464332919,0.8080321143520943
8.3828125,1.2566750738319006,-1.4171333421132473
8.38671875,0.07842124918092927,0.11055653242139662
8.390625,-1.909739111370796,-0.9984396356045876
8.39453125,1.2716934486507045,-0.2172119109530882
8.3984375,0.8831911456415512,-0.9567575874840174
8.40234375,0.6138551114649348,-0.5772094492228937
8.40625,0.5987094906763094,1.4071881826460282
8.41015625,1.541027741317864,0.09788914275932406
8.4140625,0.5148901995502442,-1.2512780326018358
8.41796875,-1.1046619915661111,-0.5621580456441794
8.421875,-0.6902919916528605,-0.35800764644891686
8.42578125,-0.2802258993228799,0.20586722812679195
8.4296875,0.6687244367070037,-0.005639749316854547
8.43359375,-0.3157029850432261,-0.5758545471958864
8.4375,0.5226520234834778,0.01639285327042185
8.44140625,-0.4578046970950874,0.7647084206252271
8.4453125,-1.7561336227072337,0.5338624523964941
8.44921875,-1.9089136140539609,0.6471776266962126
8.453125,-0.30318432451165184,-0.9959988942063759
8.45703125,0.669665554269713,0.9112359624587196
8.4609375,1.4824407246993507,0.08804770972187788
8.46484375,-0.7470300764869242,0.844272503535658
8.46875,0.03143650774671315,-0.8112565250681979
8.47265625,-0.03270265091559184,0.14040809917078712
8.4765625,1.0550088941444378,0.7807945926615759
8.48046875,0.44577625415578964,1.9295729714802072
8.484375,-1.1047919089394025,0.3792459344302576
8.48828125,-0.34874340347032634,-1.4309028037788232
8.4921875,-1.0966672636323322,1.0275608181612772
8.49609375,-0.10596307198373717,0.3822510044518989
8.5,2.292717374148759,1.0005144807103734
8.50390625,-0.4424239885712057,0.09369421160352662
8.5078125,0.8637888841447766,-0.826422698386997
8.51171875,-0.8364406504728307,0.25072666298051743
8.515625,-1.5244694136935188,1.204770729649055
8.51953125,-0.22648739050857802,-0.009158940158172143
8.5234375,0.5341193406797591,-0.577646443533889
8.52734375,-3.3162150782048867,0.6583589508400168
8.53125,1.3890601312259563,0.7960290112627263
8.53515625,-1.0073832251164467,0.13425183232646065
8.5390625,-0.009898278662583634,-0.425949035749275
8.54296875,-0.47223957273161443,-0.5037730593422047
8.546875,-0.432447930015485,-0.10852683787429732
8.55078125,-0.5993111119674478,1.7805822646643852
8.5546875,0.4147899005747956,-0.3020410094035217
8.55859375,-1.1380543392813058,1.1029229315859694
8.5625,1.4178963741175337,0.49384377690024606
8.56640625,0.633482152702728,0.06504393742898998
8.5703125,-0.6856003292903367,-1.1426053198165023
8.57421875,-0.8384412701469593,0.2971270885006032
8.578125,0.6621549253044705,0.8505299670826715
8.58203125,0.2961178270931661,-0.1961092028359043
8.5859375,-0.6640783927313273,-1.270329542776536
8.58984375,0.7891776261983876,-0.23876768415143182
8.59375,-0.7313960746102683,0.5939500287368257
8.59765625,-1.290869731489989,3.327149710548253
8.6015625,-0.8650214115460233,-0.622347434689525
8.60546875,2.317022062421354,0.36498760749132214
8.609375,-1.0676650934365903,-0.3661863038009205
8.61328125,-0.8451854744840498,0.941832436946112
8.6171875,-0.7267291742478094,-0.9170283911543903
8.62109375,1.03753304789612,1.393801837453708
8.625,-1.5550047748229305,-0.5053611361613733
8.62890625,-1.4506646764161153,1.0279529429790244
8.6328125,-0.2967136829348294,0.27667501773369507
8.63671875,-0.24125847156960867,0.3872763774408022
8.640625,0.07458946203559973,0.003913961814240576
8.64453125,-0.7760444335115487,0.8228511506218333
8.6484375,0.3929163393920327,0.2781454068863927
8.65234375,-0.014457301677139746,-0.6412502404546204
8.65625,0.32081096915596186,0.599102169256399
8.66015625,-0.030358129291158463,-1.6688965851627664
8.6640625,-1.3723528549385962,0.45530427673963786
8.66796875,-0.7746114557989936,0.425838279865
8.671875,0.3660984828982717,0.14222057797931098
8.67578125,-0.3739524381834474,0.6199664292518209
8.6796875,1.5868851447490813,-0.8384164800459175
8.68359375,-0.1662749357361974,-0.03204962542275367
8.6875,0.1671328030445674,1.0756832918527972
8.69140625,0.9642052964832457,-0.9728049751052981
8.6953125,-0.8779962410186117,-1.8479015305840334
8.69921875,0.1771704307827417,-2.5246124013896605
8.703125,0.7091069576702678,0.4953041069488923
8.70703125,-0.4239815784737925,-0.20593597318978227
8.7109375,0.6670143824823523,-0.7551213931979142
8.71484375,0.5244927021021933,1.3168634059965192
8.71875,0.022526531377198757,-0.10096580611985846
8.72265625,-0.1396987605887303,-0.26136095927131664
8.7265625,2.3344059815135756,0.90999015709917
8.73046875,-0.06352131557293429,1.227332475374232
8.734375,-0.23625938082363282,-0.892313924468578
8.73828125,1.6396589407101672,0.8021201315158323
8.7421875,1.541547501036878,0.3634529686860127
8.74609375,0.24710313422558242,-0.8804872232756635
8.75,0.4352533879381721,-0.3013770148825171
8.75390625,-0.7851879530518678,0.11696370226957459
8.7578125,0.3235576181373984,0.3050405226995491
8.76171875,-0.14937854095971528,-0.33010369560425484
8.765625,-1.4936902889704138,-0.20258762811349823
8.76953125,0.010693038647992564,-0.4862016591281386
8.7734375,-0.11957326247001163,-0.4274504470868991
8.77734375,0.0787717582515459,1.354012939755944
8.78125,-1.099174362611208,-0.4573664830110939
8.78515625,1.2146546817374548,1.2903100917988035
8.7890625,-0.6222833421025908,-1.261647371985134
8.79296875,0.7576599608323117,-0.4058474620167216
8.796875,0.028340601844280687,-0.17653000336370817
8.80078125,0.6635225803275163,2.0443403754777627
8.8046875,0.47783979514752417,-0.10457421253472006
8.80859375,-0.5635769295824034,-1.6902633940813536
8.8125,0.28142923239360434,1.287296660013718
8.81640625,-1.406591119625707,1.015622743071597
8.8203125,0.9663466926026052,-0.48811480024340453
8.82421875,0.13401769571464764,0.40295853256352815
8.828125,-0.8511366185598974,0.25308002860633
8.83203125,1.146598760728323,1.3324847087915699
8.8359375,0.2513470801479033,0.052605509514329636
8.83984375,0.4527160706856242,-0.6431822886341039
8.84375,-0.7472894414023079,-1.1032870385630853
8.84765625,0.49184499621635913,0.035444278472681987
8.8515625,-0.9005524474477913,0.8626620000043266
8.85546875,0.029969901990450527,0.24231420107374949
8.859375,-1.9742112413902215,-2.086899680743259
8.86328125,-1.6487842639942814,1.7082177889525356
8.8671875,-2.3581211288532486,0.925610090246718
8.87109375,-1.4471350747611231,0.7756263087116889
8.875,0.9660306097088343,-1.0575833663781045
8.87890625,0.906912067347957,-0.41980576369636396
8.8828125,2.5292794832386387,0.034146591479896495
8.88671875,0.2985474978773309,0.9773486800098207
8.890625,-1.0110171719046575,0.7755558164832587
8.89453125,-0.5176887821475143,0.16518970974349453
8.8984375,0.7131566864815653,-0.3094549293332305
8.90234375,-0.16755500496459624,-0.2949737369991758
8.90625,0.4449220497055298,0.39810294327662304
8.91015625,2.1731963854903165,2.832785450794294
8.9140625,-0.9307959376772166,-0.1843768647000303
8.91796875,1.1136214614310123,1.4838789791246718
8.921875,1.2438466203060456,0.231227136559226
8.92578125,-0.9211522813505961,-1.1598188652332664
8.9296875,-1.8091499101666477,-0.9236409766165324
8.93359375,0.2042261470117728,-0.24510847669584437
8.9375,0.5083595329153209,0.6866273219464338
8.94140625,-0.08814678685659648,-0.9005858667666021
8.9453125,-0.032326640824807955,0.1539434235989239
8.94921875,-0.804357554193618,0.32310492611358044
8.953125,0.4263184550612941,1.5750216726402964
8.95703125,0.7939334272541618,0.5195888392856489
8.9609375,-0.45548575333245883,0.5235948255500493
8.96484375,-0.3921137893283628,1.262570055247494
8.96875,0.27446530419750276,-0.17164795812734204
8.97265625,1.75227691177858,-0.04265963035918957
8.9765625,-0.9159412269940772,-0.8506695030859823
8.98046875,0.09279181186132585,0.3782766966669945
8.984375,-0.07162113005532394,-0.6534059931946063
8.98828125,-1.0750030436650784,-0.9840346399888708
8.9921875,-0.2668361446169197,-0.1463314187705566
8.99609375,-0.8121206329342485,-0.7155224968305982
9.0,0.31906862620446935,0.8150080082745342
9.00390625,-1.0097428557306263,-1.416219115062591
9.0078125,-0.7558521000938418,0.04988654604800049
9.01171875,0.49460086802195935,0.30124355789594964
9.015625,-0.9883907097016104,-0.5035058043591949
9.01953125,0.5905403474956761,1.1122027491206923
9.0234375,-0.6843671629846997,1.220115810812878
9.02734375,-0.49645986555446525,-0.8534256291210522
9.03125,0.48865623351770626,0.5016657146035844
9.03515625,0.665440680063191,-0.736016505908367
9.0390625,-0.6255347754727373,0.06879713215534332
9.04296875,0.5556783574975789,2.5498334450365907
9.046875,0.5684572196161795,-0.06183950935255459
9.05078125,0.17415764894259583,1.020521435344919
9.0546875,-0.6673520793911595,0.33911594904494313
9.05859375,1.0342040670743737,0.5069535774207615
9.0625,-0.08116938095667854,0.11638389275421598
9.06640625,1.840649366433358,-0.7929495336341996
9.0703125,-0.07089803475433726,0.6528131788840783
9.07421875,-0.5338689409702502,-0.5544559932226021
9.078125,0.5754719790288614,0.8543516481993295
9.08203125,-1.2752595204357917,0.5767427910319427
9.0859375,0.04221746345347542,-1.2883392551126231
9.08984375,-0.8380101938285286,-0.9898237913315873
9.09375,-0.39096310639206616,0.10249523293213776
9.09765625,-0.27583932859983107,-2.2128995248506627
9.1015625,0.21547280942659883,1.321407502582585
9.10546875,0.6637934423876548,-0.7902488874951462
9.109375,-1.0373751280866919,-0.19493688918512356
9.11328125,-0.5429407359994418,0.9681019094310199
9.1171875,1.1220696269915427,0.27996574498670224
9.12109375,-1.4554177461221458,-0.06176449188483865
9.125,-0.023359201991612243,-1.6505217064971183
9.12890625,0.8305948749994864,-1.0802813917064835
9.1328125,0.6231568482998454,1.9753852089432309
9.13671875,0.22117567397847832,-0.5717803326574584
9.140625,0.6125144010319742,-0.3384397310505821
9.14453125,0.08687813683778088,-0.4886452833213199
9.1484375,0.9021560926852739,-1.7951113776024974
9.15234375,-0.12892515901972582,1.3337944824356205
9.15625,2.440419552131512,-0.5244561024147364
9.16015625,1.2790672859744436,0.6044651396038588
9.1640625,-1.0239739585976173,1.1616891272598855
9.16796875,0.9993071466639283,-1.067372933537262
9.171875,-1.026658148097193,-0.8866751235074455
9.17578125,0.0853763182372172,-0.5114167815365825
9.1796875,0.7774476140076622,0.5800174494898968
9.18359375,1.268415163999119,-0.7550110655561738
9.1875,-0.7661626243684118,0.8411736038221477
9.19140625,-1.1653020923773632,-1.1742034592119561
9.1953125,-0.8988184816554213,-0.0676061177194225
9.19921875,0.8468119127136267,0.39374575096016845
9.203125,0.11285104886296121,0.47178335789906994
9.20703125,0.07595858875768849,0.1158795131079461
9.2109375,1.5250961850556697,-0.4588964923373716
9.21484375,-1.2054733581645092,0.8071241722003463
9.21875,-1.3838253050644307,0.5186062370155565
9.22265625,-0.7789950684046534,0.7968935897043827
9.2265625,-0.01601117486103644,-0.34339169042405454
9.23046875,-0.40995418318345256,0.9384048258770661
9.234375,-1.298473977030999,-0.46428922743078727
9.23828125,-0.2848476142227035,0.5744190601271215
9.2421875,0.4681250682976905,1.694290530324421
9.24609375,-0.32806510686932056,0.30047315457973645
9.25,0.18373996379258398,0.7349895920866888
9.25390625,0.41649997511970643,-0.30106766407015173
9.2578125,-0.6526192491014203,0.1709331347107236
9.26171875,0.6235048169167533,0.4784470324667555
9.265625,-0.38784308476358403,0.3401859841552973
9.26953125,-0.6149092924810062,-1.2699511859780572
9.2734375,1.2001697713839823,1.2948373806490583
9.27734375,0.7827040003958967,0.3172066052678953
9.28125,-0.06092290502071026,1.1782418011552747
9.28515625,0.3836871436946938,-2.7950542716482087
9.2890625,0.27801381220169236,-1.0720599549877212
9.29296875,-0.17624546127771348,1.3018656702782836
9.296875,-1.451349676068577,1.8584445177842295
9.30078125,0.8266057751887036,1.1207458105028805
9.3046875,-0.30540226722179936,0.8421852522182413
9.30859375,0.41936814738040185,0.23527029361565205
9.3125,0.08465995681390238,1.0062131486916515
9.31640625,-0.7532240349032553,-0.2555754171563797
9.3203125,-1.3831454288623355,0.1878476168710323
9.32421875,0.8989103909983006,-1.3500012084744546
9.328125,0.45243408819576536,0.7565369910939522
9.33203125,-0.38901117523547596,-1.2677165461134943
9.3359375,1.4301359430909506,2.2680031814282886
9.33984375,1.3251544215872109,-0.01865145390283243
9.34375,-1.4005420939428406,-0.43604355114036275
9.34765625,-0.39416144661595687,0.21627460610010601
9.3515625,-0.7444206770587257,-0.3411004455368308
9.35546875,-0.8785751563396097,0.2024659681377666
9.359375,0.5770523861637966,0.9115429341135589
9.36328125,-0.7787850570425775,-0.6984902134317044
9.3671875,-0.04309114765844044,0.82227478633998
9.37109375,-1.559312868389049,0.3907812630742098
9.375,-0.31745777638748485,0.9140203724279137
9.37890625,-0.13361693204549385,-0.04387389211488658
9.3828125,0.15127131237099717,-0.7948003782713243
9.38671875,0.2490027004223916,1.1167441172414712
9.390625,-1.3571979098239166,0.3237536593327778
9.39453125,-0.3075839981209016,0.7739832289224942
9.3984375,2.3657163530987364,-1.9850650220230965
9.40234375,-0.3866381953484216,-1.53821181620633
9.40625,-0.1033434264855704,1.1540596194061596
9.41015625,0.09784082712106211,-1.227861510138513
9.4140625,-0.9478252335767908,-1.2869745948260645
9.41796875,-0.20338899832558266,0.857158151869525
9.421875,-1.2492147438802086,-0.7303882936123045
9.42578125,-0.11506004673899181,-1.8273790441580693
9.4296875,0.40723829847458076,-0.7848447426527257
9.43359375,-0.4824670105614621,-1.1710666033950672
9.4375,-0.19543565856991438,1.3546704238441702
9.44140625,-1.0625932110177476,0.773914867420839
9.4453125,0.19923110165493366,1.7687817766657126
9.44921875,0.5164873016109347,1.2910952696164424
9.453125,0.5424644463084263,-0.7393541544671045
9.45703125,-0.8819668921213637,2.100317421684785
9.4609375,0.812026996750061,-0.7295750460954488
9.46484375,-0.5443518473748171,-0.5582785450125679
9.46875,0.4217815875033864,0.5175271368900687
9.47265625,0.1788557924887307,0.09040412278100868
9.4765625,1.569692255275495,1.050452646036801
9.48046875,-0.1586504891201485,1.7391021611571802
9.484375,-0.09995551694538739,-0.051318206886222906
9.48828125,0.033298520461139576,-1.4865927797930396
9.4921875,0.18967257714727007,-1.3088724349511647
9.49609375,-0.08503500819093437,-0.39054537022626157
9.5,0.7065198370822243,0.4331642263662902
9.50390625,-2.2274817843817143,-0.6204393985208557
