time,ecg,ppg
0.0,-0.2621054170102741,-0.4046033142983
0.00390625,-0.46115136691587494,1.504209867283295
0.0078125,-1.0989450770497944,-0.9683235213917009
0.01171875,-0.6209131415488534,-1.1063480042527534
0.015625,-0.8384577658463064,-0.8082345256622854
0.01953125,-1.3343771794478458,1.6361456580441431
0.0234375,2.216922408512701,-0.3191485730929063
0.02734375,-1.2341132629219185,0.5218478315366388
0.03125,0.36628121701760297,-0.7141822978981901
0.03515625,-0.8167821463051275,-1.897014764063965
0.0390625,0.37456937754896086,-0.6388039322001856
0.04296875,-0.3514645058333027,-0.1662462888509041
0.046875,1.4936775857498268,-0.23889005227337065
0.05078125,-1.1038462918550618,1.2784162180707241
0.0546875,0.10477393957866286,-0.0780407016100029
0.05859375,-1.147600418391757,0.7455249660401131
0.0625,-1.1841900614172627,0.5570236485915545
0.06640625,1.599793068824224,2.245136789926735
0.0703125,-0.4513922560653031,0.9765456944759261
0.07421875,-1.210347656278642,0.6334490325246106
0.078125,-1.3331288289342975,-0.24199335480383716
0.08203125,-0.9174511433758217,-0.16106285393192685
0.0859375,-1.2705535405123756,-0.5661136780773592
0.08984375,-0.6351631004259599,2.6247722076267688
0.09375,0.9012105558161327,0.22251803895226707
0.09765625,-0.06588215897879027,1.3422527668432696
0.1015625,-0.35957091323610246,0.3214699225151684
0.10546875,-1.1914597714922415,-0.164446189420491
0.109375,-0.9004532940524665,-0.019299141560412653
0.11328125,0.3041141385007975,-1.6279004853054269
0.1171875,-1.1177244151907402,-1.7068371388359924
0.12109375,-0.5103548327592059,1.9593702823470633
0.125,-1.6287286702219337,0.3713157825737479
0.12890625,-1.2118261887826454,1.1514142390112883
0.1328125,0.6286332801197306,0.4923017653098644
0.13671875,2.2856156374110395,-1.149931626067615
0.140625,-1.0103771521909748,0.20052763100263668
0.14453125,1.1762893712896247,1.1000843704931753
0.1484375,-0.34051109879844976,-0.04032576019333234
0.15234375,-1.3005948981417124,0.1925195617194797
0.15625,-0.9100495044653224,1.0264712529009932
0.16015625,-0.0990016700885056,0.0426420972094724
0.1640625,-0.336118048024648,0.6118381080327403
0.16796875,0.7842188314221684,-1.3713991285757456
0.171875,1.2200206938054308,0.7996161333136007
0.17578125,-0.20106253597122412,1.8807218179561689
0.1796875,1.3686579944983015,0.1662574701981873
0.18359375,-0.44544926208617847,1.4948801165726218
0.1875,-0.719136648179216,0.6401960170694425
0.19140625,1.0639963359503046,-0.3074048014737001
0.1953125,1.1509701971522268,-0.09585008682292974
0.19921875,2.705790725695108,-0.2503198151138575
0.203125,0.5798744258115315,-0.9468374407898001
0.20703125,-0.12356535597598362,-0.020602027723063
0.2109375,-1.6118518215846944,-1.8471847434723652
0.21484375,-0.3420745167988848,-0.9496788475992956
0.21875,-0.37709432747451344,2.1214742940407603
0.22265625,-0.39146130719750916,-0.42043799865595033
0.2265625,0.5113724595930916,-1.2614758051723525
0.23046875,1.4616784683466493,-0.045226952693706884
0.234375,1.2752971948666438,0.7933246947421889
0.23828125,0.5816745248583842,0.01217785916339894
0.2421875,-0.9577866242573382,-1.485736540339818
0.24609375,0.9204812053301963,0.9363222262285255
0.25,-0.6263653529832938,-0.6647674732370464
0.25390625,-1.8464894883359841,0.11723905622240358
0.2578125,-1.7637955246275587,0.22296413050476654
0.26171875,-0.11630417717019054,0.747908254331394
0.265625,0.5732701176302665,0.5346509011633273
0.26953125,0.9749565794463643,0.8392077760281385
0.2734375,-1.7924995715809693,-0.7572197614824424
0.27734375,-0.17512842779095972,-0.5197615139381173
0.28125,0.6886041484552479,-0.009582905171388675
0.28515625,-0.45346094167748296,0.9515764921814228
0.2890625,-2.0662708411725355,-1.05727177604784
0.29296875,0.05182887306082873,-0.9542884623373151
0.296875,-0.09666945071504801,0.18499074570234367
0.30078125,0.17869514151085245,1.1003124732563736
0.3046875,0.7724019201310666,0.05999420399424992
0.30859375,0.6891504496482324,-0.08704988218094918
0.3125,0.024167089108766252,-0.9067755481813777
0.31640625,1.4748368886753647,1.191702251627513
0.3203125,1.0093441311131037,1.3755931037498752
0.32421875,0.11959519108022568,-1.4386283736842884
0.328125,0.6623332397980302,-0.32969978896494495
0.33203125,-0.21182442950549785,-0.029163478527357543
0.3359375,1.484910983178486,-0.03473245832028636
0.33984375,0.3047031105650813,0.4320741918567787
0.34375,2.3616766301196086,-2.9884316513713207
0.34765625,0.3576520109249977,-1.100391844323737
0.3515625,-0.6934504626329476,1.0094285364489093
0.35546875,0.21329794443883043,0.2238454533390332
0.359375,-1.1493638926200251,-1.2929866045894571
0.36328125,0.5181386852509,-0.13519565908106024
0.3671875,1.2603713152942186,0.48238515355025013
0.37109375,0.292949861337193,0.21941586878926264
0.375,0.33829809490797363,0.00896888361380055
0.37890625,-0.9164183197790747,0.7557731229777725
0.3828125,-1.4527630237816183,-1.1837030735479843
0.38671875,-2.6171874992567017,0.7565220664506135
0.390625,-0.931901144119627,1.4431588885354414
0.39453125,-0.04855144810590509,1.36712233393976
0.3984375,-0.6342495054514552,0.46850075595660245
0.40234375,-0.6506355407670398,-0.45959637010494714
0.40625,0.22567442350958658,-0.4927980561319853
0.41015625,-0.3398613483218981,-0.6333051238393299
0.4140625,1.1697745786126852,0.1807047455346783
0.41796875,-1.8416979746579956,-1.3377293030948008
0.421875,-0.8652513414210022,-0.5938402847634848
0.42578125,-1.3840570582637908,-0.16350294800672438
0.4296875,-0.08028478122514035,-0.7045847043242347
0.43359375,-1.5007925599332181,-1.1833666296624774
0.4375,0.4945434867701873,-0.7826793721330831
0.44140625,-1.3894382226977087,1.2922449476624756
0.4453125,0.8425361011538225,-1.3810139334984572
0.44921875,0.6653619798791639,0.6307536659336631
0.453125,0.0807277402303587,1.3929456049728624
0.45703125,1.2219560425617644,0.24110244318856072
0.4609375,0.5574331798595393,-0.5569151006087689
0.46484375,-1.042457381314562,-1.9129279614398222
0.46875,-0.9705957536998134,-1.7694642391577637
0.47265625,0.5534950844274273,0.15512133370172046
0.4765625,2.3885530589628625,0.9683544320437635
0.48046875,0.7374153765211087,-0.6913409269006363
0.484375,0.8780806161374132,1.2305170657982467
0.48828125,-0.19608633681277482,-0.5563388836780062
0.4921875,-0.8787862879783923,1.210372244780883
0.49609375,-0.005953553312524047,-0.5007296495247446
0.5,0.6421215586224521,-0.7405467475467945
0.50390625,0.23748428965748858,1.6084205854193103
0.5078125,-0.9043525652317577,-0.033463493935347886
0.51171875,-1.8196459700366614,0.7458621660043322
0.515625,0.6818160509454985,-0.639170148044056
0.51953125,0.10370663514446488,0.4790492081228181
0.5234375,-0.40397401182402726,-0.048235867360212646
0.52734375,-0.33020690229487015,-0.9903337926515815
0.53125,-0.7164335989707368,-0.6070379134996584
0.53515625,-0.0065760742357421935,1.7046353609947167
0.5390625,1.1268199898860125,0.16707730560826553
0.54296875,0.9140241191855973,0.965806940302271
0.546875,0.2827583222026215,1.2174559550425854
0.55078125,-1.2659146220037278,0.09366911421972113
0.5546875,-0.7607873779551304,-0.9710047631099058
0.55859375,-0.6927412660058572,0.15471446492533028
0.5625,0.38895638449584236,-0.27834734790667987
0.56640625,-1.503590066151285,0.21745966509826478
0.5703125,-0.443871052273331,-0.974929468505089
0.57421875,1.2900508714886754,-0.7003336081619512
0.578125,-1.9047122694179863,-0.7358133738082168
0.58203125,0.987349219639391,0.4988839897543785
0.5859375,-0.2298473181745806,-0.0075097870857484235
0.58984375,-1.673137430171352,1.577167712130725
0.59375,0.7156462369413576,1.2672282002739765
0.59765625,-0.5909544794638764,1.0858397329653233
0.6015625,-0.850299519944034,-0.7397964702027494
0.60546875,-0.23542321016703288,-0.40409642065994683
0.609375,0.8814022340213313,-0.2837617580041603
0.61328125,-1.3708129480254112,-1.0598816225241265
0.6171875,1.1102160136901023,0.2940011027056159
0.62109375,1.213488116406984,-2.416689954157903
0.625,-0.033857388172191395,-0.11238320206330857
0.62890625,0.17530962914179166,0.06398550345620775
0.6328125,0.2525584755463587,-0.28936695937596396
0.63671875,-0.5952485331974077,0.8375382985877755
0.640625,1.1102219956560762,0.7783111978385813
0.64453125,-0.9173287124716304,-0.08445931049208442
0.6484375,-0.3422783556746947,0.8407720660603765
0.65234375,0.7097294225171649,1.7509181959460214
0.65625,-0.11685373674208206,-0.8300704876768551
0.66015625,-1.1544527638564703,1.7712186566433532
0.6640625,-0.2168242945960901,0.009030517027915652
0.66796875,-0.7732305970750192,0.7098516117179519
0.671875,-1.0026002259117388,0.40078871674825967
0.67578125,0.790884334677475,0.09999254210971766
0.6796875,0.2002183698207731,-0.727759595666258
0.68359375,0.6209076231735868,0.5044186919667987
0.6875,1.3712801352907449,1.073105054604865
0.69140625,1.1893389908545078,-0.5714639916258494
0.6953125,0.8906726737409678,-0.6034619623797102
0.69921875,-0.1023852402279108,-0.20557953434499215
0.703125,0.30535683286955256,0.39038441858801537
0.70703125,1.231785151256844,0.33141282261877447
0.7109375,-0.6890455762069783,-0.330255860844239
0.71484375,1.903195847180991,2.1298633750690983
0.71875,-1.255029614117052,-0.2911280823023591
0.72265625,-0.6979099144869706,0.379611696346669
0.7265625,-0.8893842148713201,0.6364947650410228
0.73046875,-0.7843132341839205,0.5050905467056901
0.734375,-0.6211582803891387,0.5637303706074591
0.73828125,1.1802544082081992,2.152522342733317
0.7421875,0.42844778071197265,0.9715518980215272
0.74609375,-1.2486052819255962,0.32359865014357736
0.75,-0.9168922771063774,-0.19481378264158458
0.75390625,-1.2484404794471402,-1.1955151078695028
0.7578125,0.2343714958607247,-0.37952643059407926
0.76171875,-0.6411319419083485,0.35691599353535086
0.765625,-0.28518395756278525,0.6712577055869625
0.76953125,2.035730719152268,-0.5990349360893348
0.7734375,-2.116328572275207,1.034526704272309
0.77734375,-1.4649720019678187,0.06898683523953508
0.78125,1.2062693276564944,-1.0067966506304575
0.78515625,0.524119610679024,0.2724071936070065
0.7890625,0.009239944963326056,-0.5544041360127496
0.79296875,1.073081752900946,0.4348441720488145
0.796875,-0.24265781205780054,-0.14747370371023935
0.80078125,0.37692043340109493,1.355139165978403
0.8046875,-0.006737433976347514,-0.5609453000610433
0.80859375,-0.6214713202847915,1.0705079649424885
0.8125,0.2720231105552985,-0.8356974027948214
0.81640625,-0.3515739231857937,0.5224395690544831
0.8203125,0.6662142760364744,-0.2316911235624519
0.82421875,-0.0786387307413279,-0.5206704742228566
0.828125,0.028088633676851184,-0.34321262039196343
0.83203125,-0.5891035148242209,-0.5103114049234788
0.8359375,0.3323200488964494,-0.8095291214624328
0.83984375,-0.4919239149705676,-0.16291697015178133
0.84375,-0.8288102319030837,0.22907210388859509
0.84765625,-1.6955308391366333,-0.5477416196411747
0.8515625,3.0072450598364613,1.1578587545655616
0.85546875,-0.13117481237777004,0.1615046601552689
0.859375,1.119311796325955,-0.756290384696981
0.86328125,0.06970845527216125,-0.3743861674807252
0.8671875,0.5093198117479053,1.3006189046995456
0.87109375,1.4655141756595753,0.042415673675423426
0.875,0.4051284530581189,-1.1861817946737434
0.87890625,0.5710993752931811,-1.2956526707463463
0.8828125,0.03119072108159218,1.209559243814545
0.88671875,-0.147479464776161,0.1964861836884911
0.890625,0.1301231014120026,-0.43704695631775853
0.89453125,-1.6863515238584943,1.6356479773760837
0.8984375,-1.4596770208880074,-0.5962035257338026
0.90234375,0.012358114920136928,1.2080682617315344
0.90625,0.45304752207989485,-0.04966287930465727
0.91015625,1.075093414471545,0.7854991318837241
0.9140625,1.2886874104876995,-0.7977683829369482
0.91796875,-0.13629656818196212,-0.4440649336508852
0.921875,0.649421674820475,-0.2046752657542851
0.92578125,0.22975306554589456,2.365957678218008
0.9296875,-1.3252685392941155,0.8845846633695919
0.93359375,1.0415660223273688,-1.7203767061437314
0.9375,2.2301537588683433,-2.5969215099428635
0.94140625,0.2819729015804958,-0.5644400228569697
0.9453125,0.4326555856608029,0.7160175158200714
0.94921875,1.7152902807110515,0.3282743076587448
0.953125,0.25641174728001004,0.18220622675922066
0.95703125,1.0219732902999454,-1.0710147784384778
0.9609375,0.31240115632725624,-0.5645584265420208
0.96484375,-1.379285959655693,0.3944850687885115
0.96875,0.5919483896016375,1.0329569443052709
0.97265625,-0.08737356947697597,-0.8466326775666458
0.9765625,0.2801621922855981,-1.1840143709647304
0.98046875,0.7233269123641787,-0.521085565646417
0.984375,0.8631304230227494,0.3762464490446763
0.98828125,0.9706672886010405,0.28811556784666764
0.9921875,0.10658854238190361,0.7187860886310153
0.99609375,-0.7963564249002922,-1.018633127248461
1.0,0.5501865760809208,1.3920753345360881
1.00390625,0.5119808518964419,-0.24753248800765407
1.0078125,-0.11913187751997277,0.3692205327745203
1.01171875,-1.4380788501772652,0.3116766262023442
1.015625,0.35943360455569595,0.852762775942642
1.01953125,0.5567833054552651,-0.8781644694548646
1.0234375,-0.599731962636313,-1.1951547571457852
1.02734375,0.1891795396776594,0.5969319518601165
1.03125,-0.7707845652938103,-1.8986000547298523
1.03515625,-0.19561483096917323,-1.6587934884416846
1.0390625,-0.9344761609824788,-0.6760310477656832
1.04296875,-1.0200518264529128,-0.9723058118641158
1.046875,-0.0042212724065359055,-0.5289867753562646
1.05078125,0.563892166036254,-0.026499628776711737
1.0546875,0.2547523943922135,0.8081103740507963
1.05859375,1.9600542916151937,-1.137644274550469
1.0625,-0.5638894459957057,-0.539987920843274
1.06640625,1.249626293748404,0.14003235746491677
1.0703125,-0.6175593386563177,1.8339809774944797
1.07421875,-0.2065647697635009,-0.4912831495310726
1.078125,0.34973973460186997,-0.9297953127296582
1.08203125,0.50746445761004,0.9686796833373932
1.0859375,0.04107775444232358,-0.8029803919300926
1.08984375,-0.8310870001393136,1.352927274005083
1.09375,-1.6655495116904642,0.5774455484181964
1.09765625,0.35238762823109626,-0.18689525422708986
1.1015625,-0.14368717482022292,-0.10949525059306699
1.10546875,0.697625541474421,-0.8255550156068637
1.109375,-0.3049369227281356,-0.03553832672430705
1.11328125,-0.2923792610724465,1.4026141892864157
1.1171875,-0.16538324109888097,0.9644485698385299
1.12109375,0.7423727718309359,0.8983542964257615
1.125,-1.0422941877846712,-1.9814055720999562
1.12890625,-2.7780466104671704,-0.5196806073119684
1.1328125,0.015223749202692937,0.47936122929881164
1.13671875,-0.06922818534813815,1.6124734872100255
1.140625,-0.385429215042726,0.7730548170403467
1.14453125,-0.36924261816428405,-0.008253634317902558
1.1484375,0.12905593593211329,1.0935292133277372
1.15234375,-2.929017104949302,-2.2528846232017967
1.15625,1.3642246393221777,-0.1640375753332248
1.16015625,0.07212677184159953,0.4176615297109439
1.1640625,0.7666786643635768,-0.9401625059158901
1.16796875,1.802306865016898,0.403521624177194
1.171875,-1.8263194203178474,0.4030981962700138
1.17578125,0.13644103296252633,-0.10070107585283723
1.1796875,0.2515942368646645,-1.6503945682774805
1.18359375,-0.7214460633222538,-0.42455581120781394
1.1875,0.7683677160834504,2.1734892882844123
1.19140625,0.5441895022392813,-1.8756977776762749
1.1953125,1.1398539721657055,-0.6259994000533232
1.19921875,-0.33472721399300676,1.3594764320328188
1.203125,-1.9668435524511532,0.9329553732492784
1.20703125,0.5987160332658062,-0.8391271062323591
1.2109375,-1.1015642032477637,-1.1200703397910656
1.21484375,-0.2922007646703574,0.7575356586396765
1.21875,1.8089421535534858,0.052596827768838915
1.22265625,0.5456091600494204,-1.4566978942179651
1.2265625,-0.8736439167998562,0.19999106096117353
1.23046875,-2.8145241860632697,1.3368680872687022
1.234375,-0.2851970453825186,0.6238637214765287
1.23828125,-0.43468037584119273,-1.9737917032591517
1.2421875,-0.8771916723438163,-1.0458122607053302
1.24609375,-0.7858847909633592,0.34250033460035534
1.25,-0.40180256232442446,-0.8290273150401865
1.25390625,1.6000556862939646,0.17180454156879635
1.2578125,-0.8166673039591972,2.9883695703395925
1.26171875,0.7839483418641661,-0.6772748933889172
1.265625,-0.08535724325419464,0.03398381949143421
1.26953125,0.9646036053078434,-0.9659539948067574
1.2734375,0.9036573200946963,0.18378205050275687
1.27734375,-0.19957620897316333,1.735618397348838
1.28125,-2.4026254760654027,1.0437281030175363
1.28515625,-0.12581528081339804,0.13790609147233815
1.2890625,1.3717829844294545,-0.009519003167129118
1.29296875,-0.6077878714803597,-0.7184829651335604
1.296875,-0.24583686858840811,-1.823279575859577
1.30078125,-1.642856533633494,-0.35000084261925907
1.3046875,-2.0118974102571623,0.3027635829266021
1.30859375,-2.2833613177458854,1.087493465986752
1.3125,-0.4407580045931782,0.23162152906214978
1.31640625,-1.8904033926494221,-0.9656179575427425
1.3203125,0.3083986141574799,1.4319679078409278
1.32421875,-2.1073412028276226,0.3772974244232079
1.328125,0.7619859119263865,-0.4310665062354945
1.33203125,0.5991075342057879,-0.6420198416911836
1.3359375,-1.309029800986657,-0.034145934557598866
1.33984375,-0.5706797332953999,0.6762217291896253
1.34375,1.3359925427254857,-0.16560715647607818
1.34765625,0.6744172358351577,1.046435858275488
1.3515625,-0.818720041330217,-0.7072844344375694
1.35546875,0.06477395742635983,-0.32465904237604354
1.359375,0.41116803915027633,0.295993976911729
1.36328125,-0.3551050379392335,-0.2574403632199048
1.3671875,-2.1066628528861697,-1.6045418918133632
1.37109375,-0.05243687074818142,-1.2280560329226822
1.375,0.9476117658252154,-0.6326555112815659
1.37890625,-0.22966460321139845,-1.4837578537111302
1.3828125,1.1329799362428576,-0.18046117572197642
1.38671875,0.40348183121414033,-1.0197987992611743
1.390625,0.20060596306707162,0.3658149386894496
1.39453125,-0.44814835179677415,-0.18716009826681781
1.3984375,-1.378089564897425,-0.6193359377422369
1.40234375,-0.06060376360482885,-1.2906102602263883
1.40625,1.7761705221294708,-1.2733972755075977
1.41015625,-1.1806887634641743,0.7081313452244374
1.4140625,-0.7935708254745537,0.003599596267353766
1.41796875,0.40104785525196457,-0.18345373160155432
1.421875,-0.44272478364894674,1.0288589386499214
1.42578125,-0.507822946397928,-0.20221691602071692
1.4296875,-0.8665609042727667,0.6124547498001456
1.43359375,-2.1145619783179597,-1.6945484356514522
1.4375,0.06661358252963333,-1.1409523510914772
1.44140625,-0.6613882265307299,1.7346732642687697
1.4453125,-0.8137911777567918,-0.9212630232882201
1.44921875,1.695444541370775,0.7322061751629161
1.453125,-0.3895056489541522,0.5122099519520975
1.45703125,0.07892530858086379,1.0200773857063181
1.4609375,0.6886380112287092,0.6605581414059288
1.46484375,-0.9219055583853896,0.09516131194147717
1.46875,0.42781851598787496,-0.2619960142948792
1.47265625,-0.25213565894660367,0.06770412305374382
1.4765625,-1.4950383157563962,-1.3573402640903687
1.48046875,-0.01806986726006358,0.5594190017718548
1.484375,-0.3297067100525646,1.7592772077732053
1.48828125,2.490096287631242,0.6268470487114794
1.4921875,-0.8378143614751086,0.3542090237803866
1.49609375,0.1743306088720389,0.3040576002617632
1.5,0.2108773077146166,-0.8803341282951268
1.50390625,0.48714691551431827,-1.0043178643450879
1.5078125,-1.4580952712632145,0.42527798478531936
1.51171875,-0.8964685581504814,-0.9949578474521193
1.515625,0.5447778724156271,-0.6389638080851485
1.51953125,0.5382912018301017,0.99855829181422
1.5234375,-0.6711272625866287,-0.26966327972655146
1.52734375,-0.6439072519847219,1.3622212267289762
1.53125,-1.025382491030753,0.3768766602487955
1.53515625,-0.9213066354760348,-0.26465428617974984
1.5390625,-0.9653067277294869,1.1312802565533988
1.54296875,0.3269545455912467,-2.7885195864897385
1.546875,0.2995210810934109,-0.14900960565053945
1.55078125,-1.4532832074471829,0.8300029238331933
1.5546875,1.651583873391853,-1.2374872342902956
1.55859375,-0.5485624961239026,-0.499521304760361
1.5625,-0.6846315906841869,-1.4265530620572902
1.56640625,0.9337275487620287,-0.7769438336057053
1.5703125,-0.41638788427031753,-0.37519923690018064
1.57421875,0.7968852422025959,1.139477309722365
1.578125,0.23570547613775633,-0.4692779337046262
1.58203125,1.0816836895283908,-1.606025635497737
1.5859375,0.4126972730736501,0.7264999297970955
1.58984375,-1.1096201231963492,0.3394600086026395
1.59375,-2.301818459590918,0.5265981948026093
1.59765625,0.5945280271505141,0.5085597124338556
1.6015625,-0.17851631775707133,0.9762898907565686
1.60546875,0.6181945271761206,1.4627658206703342
1.609375,0.5361114300572815,1.5345598260053628
1.61328125,0.6218858678792796,-0.040543332258403515
1.6171875,2.0348309710217047,1.1247826072089524
1.62109375,2.444885419957752,-0.5073108513088409
1.625,0.1626762518323592,0.35393377083577987
1.62890625,-0.5776211881989303,0.1557961201934387
1.6328125,1.7547527193557206,-0.5043618086005476
1.63671875,-0.9960333067150057,0.3761295086580125
1.640625,-0.3108761542575342,-0.03911998716948938
1.64453125,-1.6120737752684626,1.9832704591528694
1.6484375,-0.7220122826140807,-0.7003890618361932
1.65234375,-0.5165249228993751,0.33457949259340064
1.65625,-1.0645201547544036,-0.11439091960415823
1.66015625,-0.5739550196920843,1.2246346079254622
1.6640625,0.7231336221320616,-0.8058974413236839
1.66796875,-0.7908625283823746,0.306538231289856
1.671875,-1.8470001104467293,0.4086133791722788
1.67578125,-1.0064396338756831,1.270451925455834
1.6796875,-1.411184915419974,-0.5238248582729484
1.68359375,0.45732014079842853,-0.5819644564251136
1.6875,0.4116776776328262,1.8015745046007008
1.69140625,-1.8125140871933785,-0.5787671452427505
1.6953125,0.01843113430936724,-0.9420348013883763
1.69921875,-0.002330050427948178,1.403650328410727
1.703125,0.8214694682654706,-1.6461198682919405
1.70703125,-0.4375919567714293,-0.09339291653440455
1.7109375,0.48651963711042656,0.6942275099691765
1.71484375,-0.4149255398468131,-0.7659044740043508
1.71875,-0.6215522039376224,-0.2065075903069222
1.72265625,0.269777636622505,-0.752201362707406
1.7265625,-0.08272717392351103,0.5426196956779389
1.73046875,0.4259191361715591,0.39547043871607857
1.734375,-0.9019718656707899,0.8062502205958872
1.73828125,1.8186902187953358,-0.5496388501546273
1.7421875,1.2806397445487192,0.4818685733872942
1.74609375,-0.16309323807948056,0.47064621234113657
1.75,-0.1558342908724301,-0.05902769484133589
1.75390625,1.1222657389393063,1.6313283160546084
1.7578125,-0.27557425389699414,-1.575399054540492
1.76171875,0.045292934290133424,-0.7767197079236723
1.765625,1.7021293284512502,-0.34548275216354835
1.76953125,1.6652755801768502,-0.20279384835173134
1.7734375,1.2270367319005357,0.13869730159297983
1.77734375,-0.6006014142482855,0.21453405833212685
1.78125,0.42444697286301447,0.40777312565028234
1.78515625,-0.06934371832636597,0.6896847045422017
1.7890625,-0.7714374609350524,1.9335735838151962
1.79296875,0.8795626365923109,0.9502268633988827
1.796875,0.6551372320609363,0.4985294286514497
1.80078125,0.4362118390861239,-0.9629756437954644
1.8046875,0.20544069512102248,-1.7027809653059514
1.80859375,0.6077754565300074,-0.7662962675874028
1.8125,-0.7971637274015494,-0.914411646935707
1.81640625,0.6870648469040991,0.5990421104183727
1.8203125,0.3928088981952682,-0.8046076397835868
1.82421875,-0.287693873473893,1.3647432842593197
1.828125,2.42099893180298,0.19267568450571074
1.83203125,-1.0483047132759131,-1.3338812160555513
1.8359375,-0.07357957396846389,-1.3681297856331647
1.83984375,0.5256101107327981,0.983799283115411
1.84375,0.7412012708579095,-0.4827355923291701
1.84765625,0.9298877563590335,0.24843899114795723
1.8515625,-0.5297681048992312,-0.02669883321848245
1.85546875,0.8926252479524454,1.0324404835578875
1.859375,-0.26890815326221706,0.5587829346345538
1.86328125,0.33421712563872913,-0.028862323838029984
1.8671875,-0.2594277682198559,-0.6182082256855915
1.87109375,0.9090097749884849,0.47831534395115155
1.875,-0.43446202587439153,0.3504520126731319
1.87890625,0.7387283324378613,0.5288074023463509
1.8828125,1.6285857604728309,-0.05368142511771598
1.88671875,1.2107165162933982,0.3449864955476851
1.890625,0.09091618437564597,0.1039490139895093
1.89453125,-0.6078825531137787,-1.1523206427042187
1.8984375,-0.05491172382034161,0.35446933774603534
1.90234375,-1.0970248104587448,-0.8594128764768646
1.90625,-0.6469921135475096,2.022618422304311
1.91015625,1.5110472873818328,1.0177782114153404
1.9140625,1.2713957897077022,-0.9490278400556351
1.91796875,0.5324318231619917,-1.3108345965267532
1.921875,0.12730948600795713,-0.7472943247125929
1.92578125,1.713562626703449,-0.7061341897430257
1.9296875,1.1816424456591768,0.12651267628367807
1.93359375,-1.214812927606725,-2.1214748385035236
1.9375,-1.4613242030938762,-1.8622905700949577
1.94140625,-1.3278351428736614,-0.897364214554241
1.9453125,1.508537873830711,-0.8114270087082149
1.94921875,0.666314807356328,-0.9092690890777612
1.953125,-1.552468381670673,0.22144594112564403
1.95703125,0.4075812558670594,-0.1945947987053615
1.9609375,-0.5318231730383506,0.6183973876259977
1.96484375,-0.01626648099529471,-0.3266622810636309
1.96875,-2.142360134239444,-0.48447887592748773
1.97265625,-0.8348365597362897,-0.5172690990233206
1.9765625,-0.04603268246844193,-0.7227645554315956
1.98046875,0.227807358024393,1.0410844812632796
1.984375,0.20185026899313047,-0.47759678927906474
1.98828125,0.821382695861759,0.46337158735131617
1.9921875,0.37975200822812716,0.08800697726173211
1.99609375,-1.404800371327374,-0.23591735026075916
2.0,1.8101163515825527,-1.2916799461424109
2.00390625,0.13829323569704743,-1.6399204408098227
2.0078125,-1.0487221990883502,-1.1543432284729682
2.01171875,-1.349161416649964,0.8259196020405176
2.015625,-0.2711995964897198,0.053434651571906834
2.01953125,1.4449129500958857,-0.11081865587699882
2.0234375,-0.06005390953723065,0.9574477322788697
2.02734375,1.0063613357597172,0.7173745753085583
2.03125,-0.30716693102062914,0.55914047523609
2.03515625,1.093024842869623,-0.15204368838989998
2.0390625,-0.5141405051828525,-0.5107194351040074
2.04296875,-1.6248511842377202,1.7225908054826913
2.046875,0.6023145379672139,0.7568063195094622
2.05078125,0.24428051001072704,0.2780563152713766
2.0546875,0.42621838181934657,-0.8526404735447732
2.05859375,0.6266106579076794,0.0690830866537103
2.0625,-1.4084075476208795,0.2580520395758898
2.06640625,-1.7211729996230123,1.0453328058958584
2.0703125,1.4574262478335422,0.3501322200869992
2.07421875,0.6474053821470203,-0.9332539353763935
2.078125,-0.9905027708822378,-0.700612162490621
2.08203125,1.0964471854960496,2.329811876898384
2.0859375,-1.0936588102760085,0.8505475506080653
2.08984375,0.018440653128277893,0.11595849750115336
2.09375,-0.5084038586124049,0.5624234030700489
2.09765625,-1.9493980042779222,1.1676224527040597
2.1015625,-1.125830141158235,-1.7396692605125559
2.10546875,0.42575632486294823,-0.7890783223762987
2.109375,0.9926357141261665,1.7285706989393024
2.11328125,-1.195811223786886,0.9501175252430475
2.1171875,-0.24984978598021235,-1.0671372520042093
2.12109375,0.6612465358405686,-0.6003626124225562
2.125,0.4838339968001779,-1.5013848334338418
2.12890625,0.48006911924475665,-1.0984446126009022
2.1328125,-0.3541294021019663,1.9364457716272405
2.13671875,-0.7326102062454534,0.03816291821278019
2.140625,-0.08823225102700641,-0.9125980888907337
2.14453125,-0.837194918612316,0.3656143510639223
2.1484375,-0.8241809208408606,-1.0949467349214608
2.15234375,-0.5501882079441861,-0.9865860327622425
2.15625,1.6416811198077996,1.8086520944009032
2.16015625,-0.6409742414480479,0.06466852586837621
2.1640625,-0.3282647608330955,0.6840550886898596
2.16796875,-2.8564559148102995,1.0786035935428826
2.171875,-0.4994298084518718,-1.7638337495916918
2.17578125,0.2353883453626125,0.8188001058569355
2.1796875,0.3000778818774695,0.35886657635324215
2.18359375,-1.0402969532387005,-0.14744054874864498
2.1875,-1.0023202523640207,0.12161791003496919
2.19140625,0.4781459390483185,-1.432193081504791
2.1953125,-0.2655620440084819,-0.8431413424117038
2.19921875,0.5824250119851749,0.04423995581186042
2.203125,0.46395896957460786,-0.06442164564275385
2.20703125,0.1508736499997727,-1.891686651470676
2.2109375,-0.1804909060331321,-0.36603371916183985
2.21484375,-0.5564745014362894,0.6080297088540889
2.21875,-0.5500829985350627,-0.5951486740417106
2.22265625,-1.65878961214098,-0.829470680421614
2.2265625,1.5478942746495623,0.20191945072573758
2.23046875,0.15121955780925384,-0.8729380550880159
2.234375,-1.0372820037928567,0.8810707438967619
2.23828125,1.9449030650007013,-0.29402381010504547
2.2421875,1.1045417210215842,0.7336466448417567
2.24609375,0.44438899056369485,-0.0034927682188538606
2.25,1.358408781856887,0.017356675303468634
2.25390625,1.6961904018722007,-2.617007603130763
2.2578125,1.5747202232968527,0.47520022945187973
2.26171875,0.5516194935588616,-0.11055722136291528
2.265625,0.2589015420087278,0.9657196490932547
2.26953125,1.369455099360936,-1.0476133847880609
2.2734375,-0.9623597788835786,0.17681214062969927
2.27734375,0.5526864861559586,-0.1956381540962571
2.28125,0.29635857131077553,-0.33816767469479564
2.28515625,-0.060013851693024395,-1.6844989128173604
2.2890625,-0.8522206746987375,-1.1372094928117742
2.29296875,-0.7013416772736386,-1.074174323526222
2.296875,-1.30269433618815,-1.4980378275632928
2.30078125,0.698154279993687,0.8006244477244323
2.3046875,-0.2793180345432961,-0.7456034240655514
2.30859375,-0.550828756469078,0.24919540375243585
2.3125,1.871001422104736,-0.78933330063368
2.31640625,1.1122697197545555,-1.291106689846007
2.3203125,2.7962087921130325,2.1763064008462947
2.32421875,-0.8105173797078226,-0.38398590011822664
2.328125,-0.5551152660433946,0.5186253034791737
2.33203125,-0.09394419084230385,-0.7151976009142519
2.3359375,-0.07941268371475778,1.1683740165441714
2.33984375,0.6519856428026976,-0.5019806023091553
2.34375,1.1161355953766334,0.5696785735913844
2.34765625,0.1610926406070614,0.17353450442649515
2.3515625,-0.9682298636493271,-1.4318150789307413
2.35546875,0.8022296670040545,-0.48013056514440033
2.359375,-0.7233660028120928,0.3731603280377283
2.36328125,-0.5638183660322625,0.8380786291583373
2.3671875,0.11054595948794343,-0.04108816220366576
2.37109375,1.2577903347005863,-1.8144818697881016
2.375,-1.0703434583337965,-0.28681731274216016
2.37890625,1.1928074318035975,-0.03462317472716213
2.3828125,-2.20295034378153,-0.4772218099594036
2.38671875,-0.6591893847141066,1.607894403611428
2.390625,0.20781564515530698,-1.4145076909784677
2.39453125,2.2911720403400895,0.5586583280246911
2.3984375,-1.2228079154223421,1.0615800066751746
2.40234375,-0.5839506250660208,1.6420551481642305
2.40625,-0.4889670489362819,0.650409763110636
2.41015625,0.5807545526794825,0.9067799879838413
2.4140625,-0.14750522760353288,-0.5991731635481576
2.41796875,0.7872973687334485,1.6763599177971613
2.421875,0.41626926781878915,0.15986279654245492
2.42578125,0.49024909962307606,-0.2623190934107692
2.4296875,-0.3980217238409161,-0.47255807062871136
2.43359375,-1.258916835222985,0.20567578881959966
2.4375,-0.07619988946341391,-0.35666995397729556
2.44140625,1.482434720803267,-1.056875766303957
2.4453125,1.391100176857076,-1.5765278266554583
2.44921875,-0.10327238677411134,0.47043345684554155
2.453125,1.4533412163356187,-0.9331386132798168
2.45703125,-0.8093680917594239,0.49351049454518386
2.4609375,-0.6499286015702359,0.2758089711718955
2.46484375,-2.028731711702541,0.3307968035094904
2.46875,1.0645353917890048,0.061657247748124824
2.47265625,-0.696830739370796,2.265875844689088
2.4765625,-0.18724449473066798,-0.6992778354414935
2.48046875,-0.654730093106089,1.1746306604137815
2.484375,1.0089928270736335,-1.6820359421327034
2.48828125,-0.6147487473902518,-2.4327690677807983
2.4921875,2.5807501025274657,1.0482972502536179
2.49609375,0.5660350225420405,0.47224792508422886
2.5,0.5174766166566855,-1.3231209861853312
2.50390625,-1.1544714691365139,-0.6902468255148028
2.5078125,-0.32608838460919143,0.5987939839321701
2.51171875,0.6674272402635717,0.37952348151252857
2.515625,-1.4417893224575942,-0.03816293402643475
2.51953125,-2.4785173438669594,-1.7926836694974473
2.5234375,-0.38132931442910517,0.9851125785931306
2.52734375,0.4788896265087611,1.1753021405002273
2.53125,1.714351864498524,-0.911911993774832
2.53515625,0.417295269574132,-0.541941707666842
2.5390625,0.9343367074061176,-0.5531407297913815
2.54296875,-0.13538002611699548,0.2360304231388155
2.546875,1.4610439340330037,0.26844656778046516
2.55078125,1.403802511772453,0.951645414928372
2.5546875,-0.46673322016748203,-0.1316001497530684
2.55859375,-0.447577182301835,-0.3872846109837895
2.5625,-1.6320139877546886,-1.3120350858161627
2.56640625,0.39836119802325487,-0.34492768184582534
2.5703125,-1.9233760389063899,-0.182071351021462
2.57421875,0.2184244743171983,-0.329649850890912
2.578125,0.5027059050815262,2.1356288689558185
2.58203125,0.17601932094182002,0.24829964920835126
2.5859375,-1.005978771660345,0.47284066374982386
2.58984375,-0.23654931519262662,-0.5419369607511857
2.59375,0.040978758313632214,-1.3005928316948456
2.59765625,-0.5765403806871419,-0.16057821735640693
2.6015625,0.5760678441946387,-0.6079739408442492
2.60546875,1.6531062656466682,-1.5274519901721304
2.609375,0.9618067924658266,-0.052613502295797775
2.61328125,-0.4544309382084143,-1.73761779427523
2.6171875,0.006218780823104195,0.006621446045672466
2.62109375,0.9742895718854165,0.0232905232990855
2.625,-0.9704157098348516,-0.47848168565121174
2.62890625,-0.5637516866754162,0.37822183951138166
2.6328125,-1.4263242303860477,-1.448525488801698
2.63671875,0.8806405437647236,-0.4179335227586551
2.640625,-0.4574222160505289,-1.2514037356758976
2.64453125,0.7123971596566168,0.20999094559113407
2.6484375,-0.6875816876577572,-0.2285224679035421
2.65234375,0.5769172569442527,0.6402454031524522
2.65625,-1.2481224186181235,0.9174667052462883
2.66015625,-2.3055958885324404,1.5229034954573144
2.6640625,0.9274183734652199,-0.059964618423179315
2.66796875,-0.29217720291446975,-0.969632381970566
2.671875,-1.0967278717915612,0.5998349594805704
2.67578125,1.2865614848436175,-0.25250208071432195
2.6796875,-0.6175589916586502,0.584820573602536
2.68359375,-2.6919789603967206,-0.8165883212587047
2.6875,-0.2132638165733726,-0.12795790016273745
2.69140625,0.6398529151824555,-0.4177792268441671
2.6953125,-0.009117489416412506,-0.9341266577068515
2.69921875,-0.6898251863232027,-1.2989911882032315
2.703125,-0.12858279219797372,-1.336792614373924
2.70703125,0.9669485729669711,-0.5529965098599592
2.7109375,-1.1181815477393577,0.4261074569652313
2.71484375,0.45845405667721917,-0.9041130477955654
2.71875,1.0400512897592602,-0.28130080927990436
2.72265625,-0.228330195548171,-0.4241588602136781
2.7265625,0.2711918049754779,0.8777248995250204
2.73046875,-1.5153301417745106,1.7000779599225457
2.734375,1.199201558676844,-1.5411092687503356
2.73828125,-1.1022020864678057,-1.3513310235668254
2.7421875,-0.5397699396893264,-1.2397897652310255
2.74609375,0.7435343137882238,-1.5648392867702625
2.75,-0.07371581073963059,1.8051203523546915
2.75390625,-0.7152099165419902,0.7503285165438832
2.7578125,0.39432421641726145,-0.22768262850299711
2.76171875,0.6343353601296597,1.2308515315854767
2.765625,0.7443130472219656,1.0711047843213597
2.76953125,0.1766323392261308,0.257451734318659
2.7734375,-1.3814651359515402,-0.03013407259044152
2.77734375,1.5385672420785863,0.9962644866657835
2.78125,-0.7725241781421925,-0.4475223115579907
2.78515625,0.6792927640150529,0.1714537236944252
2.7890625,-0.7324634525833246,0.5099021703941619
2.79296875,-0.010635609720261131,-0.3760730407873735
2.796875,-0.4074361148311222,0.042140428093333966
2.80078125,0.14103344573697432,0.9953016622442499
2.8046875,0.5779286269248965,-0.36547814144535024
2.80859375,0.4408126745047121,0.060664699350918214
2.8125,0.012266046641852126,-1.3083285416018045
2.81640625,0.27154085840525444,1.0133903705960075
2.8203125,0.7524905555551,-0.014282572460138997
2.82421875,-0.2588933212550262,-0.6981641301044627
2.828125,-0.6657098468243191,-0.0006815681889609831
2.83203125,-1.0005722751520914,-0.8081067555644194
2.8359375,0.5598994303803726,0.806618905058163
2.83984375,1.035124700010274,-0.15152677519540703
2.84375,-1.246840364270308,-0.6952466349009152
2.84765625,0.10727698305455108,-0.7275837803639328
2.8515625,-0.5780091710503585,-1.2445613009443195
2.85546875,-1.0658950138793606,0.1411704109534216
2.859375,1.6143550676763279,1.506549726136748
2.86328125,0.8534181962054374,1.0701273022982392
2.8671875,-0.38214812073692017,-0.9949272252780504
2.87109375,-0.343661802128859,-0.3564897731512601
2.875,1.4933595561600796,1.9929885021665783
2.87890625,0.8083211521147223,1.0753712308161976
2.8828125,-0.7318386732282237,-0.4947579798856509
2.88671875,-0.10132155591943749,1.2319542563363681
2.890625,-0.9359401452211258,-0.39443446385452036
2.89453125,-1.150593396118527,1.0444001338312863
2.8984375,2.3274405028339524,-0.05646769515002564
2.90234375,-1.362624586467835,-1.3001292738396606
2.90625,-1.90526826794766,-0.2269550767596938
2.91015625,0.06259471160571968,0.22957941907734924
2.9140625,-0.8532771956921549,1.1464156078516075
2.91796875,-0.5603215300661453,0.10775955677860367
2.921875,-0.2643371940148877,-1.7419534596010393
2.92578125,0.8269947999277182,0.7284742801827672
2.9296875,-0.447677724093399,-0.20881905859889982
2.93359375,-0.148717002436866,-2.178363801131322
2.9375,0.38180178330776937,0.664999365314443
2.94140625,0.2738808904500282,0.980309520939108
2.9453125,1.9839507025171725,-0.10566961091937624
2.94921875,0.16679232768629312,0.5404958438578802
2.953125,-0.09498582179800187,0.4248504039152228
2.95703125,-2.7650808003219893,0.4778762830487644
2.9609375,0.5986917923693263,1.464371604540052
2.96484375,0.7785901979975269,1.3278397747096287
2.96875,0.30173349860259097,-0.5679639864679323
2.97265625,0.824383475900019,1.6932386190134119
2.9765625,-0.055561489925576926,-0.9098389051442439
2.98046875,-0.06645916759160445,-1.5295506343024947
2.984375,0.7110040784932443,1.023097751831754
2.98828125,-0.64138125596516,0.2550264550987016
2.9921875,0.5226475146210213,0.19451808216602648
2.99609375,-1.51937877683181,-1.280867636292906
3.0,-1.006784680414548,1.94780241670433
3.00390625,0.0674695112089817,-0.8664668992310175
3.0078125,-0.6761166470601904,-1.0466059146128026
3.01171875,-0.9270831642396434,-1.2877056466264603
3.015625,-0.019436748955335776,-1.5457640178560446
3.01953125,-1.5419621585069019,0.6564723390902755
3.0234375,-0.7771335418986876,-0.4412391256013431
3.02734375,0.6512667066110568,1.0145481988349891
3.03125,0.9736800649623066,-0.4042340733519156
3.03515625,-0.9195114566192025,0.4927909961038337
3.0390625,0.9214538682595138,-1.555686022170623
3.04296875,0.9677033826913604,-0.6004096839270058
3.046875,-0.2597237441494843,0.7848875298811835
3.05078125,1.395063958560841,0.6240316529237006
3.0546875,0.7114580242553272,1.0488049262392816
3.05859375,0.48789104332227895,0.19406744747368315
3.0625,-0.23313537492263248,-0.5085984594746978
3.06640625,-0.6553667421640053,0.10087964384383756
3.0703125,0.026335426824969872,0.510032196050902
3.07421875,-0.7775680836437237,0.03053458604869977
3.078125,-1.138420116408295,-0.638474658523431
3.08203125,-0.20199043598721883,0.008154687412873651
3.0859375,-0.9461976636937457,-1.7537040021852803
3.08984375,0.5011531295861967,0.841936002085939
3.09375,0.4013682854939713,-0.5012793648944934
3.09765625,-0.07010639534170658,-1.6236091724542812
3.1015625,-1.2308256378123823,-0.9150033193333831
3.10546875,-0.6480233096356408,0.7886633237574803
3.109375,-0.3825521596148342,-1.7822922917433826
3.11328125,1.5012605876553198,1.376831889473053
3.1171875,-0.18148439260376478,-0.6089579513757342
3.12109375,0.271268082883642,-1.1718736289367673
3.125,-0.6007728080143427,0.021123214787027684
3.12890625,-0.8104017971465616,0.8151969344923854
3.1328125,-0.2813754640694339,-0.21592978934575824
3.13671875,1.1466918260287569,-0.3273251749604772
3.140625,-0.12264827675832785,-0.8351561775033212
3.14453125,-0.8192529183248968,2.1782423996741325
3.1484375,0.5493857944621036,-0.7980725617799381
3.15234375,0.6237278660104197,-0.3092838739850465
3.15625,0.73219829446279,0.8515586271095814
3.16015625,-2.3623726344765337,-0.7289073975969075
3.1640625,-0.9315559770462539,0.48840640493219095
3.16796875,-0.24020916852220953,0.7138959135397787
3.171875,0.15198787105840067,0.7018436486362182
3.17578125,-0.9843699374869365,-0.14752015153813633
3.1796875,1.4967035515078748,-0.6170335191796432
3.18359375,-0.663077125916084,1.392798621497125
3.1875,0.4112888063373396,-0.5987442061939572
3.19140625,-0.058968954963380255,1.306788535865746
3.1953125,0.7259165310285676,-0.9466439299892785
3.19921875,0.9726813341063698,-1.1554582205481794
3.203125,3.264979126173636,0.22069938683621462
3.20703125,0.09963103750223491,-0.45373607816445066
3.2109375,0.1777400042294385,-1.334829671925047
3.21484375,0.12706278304938382,0.9114444908817712
3.21875,-1.0461269024146287,0.5671473436744152
3.22265625,-0.7753870431220418,0.45265934004494046
3.2265625,0.02858991442096106,0.66821468751946
3.23046875,0.03699432741793795,1.0749063250750202
3.234375,0.773023769831977,-0.8083727454985628
3.23828125,-0.7190062648722713,0.3127187058817878
3.2421875,0.9076217382229703,0.8351946996944213
3.24609375,1.3582924927849884,-0.9359139910020008
3.25,0.8973656727797291,0.7626336942935672
3.25390625,-1.4976192110832396,-2.418276008550628
3.2578125,0.7751255238587638,-1.3034232340566396
3.26171875,1.702971833776848,0.23611285129829845
3.265625,1.2473740614951006,1.0173581330954309
3.26953125,0.5068081334370074,-1.4879354195365637
3.2734375,-1.547558766916676,0.3055430782707597
3.27734375,0.924598157490071,1.2921519154313723
3.28125,-0.28338346998670133,-0.6397582863075642
3.28515625,1.2910319218576056,-0.19474366750800134
3.2890625,0.08255764919708292,-0.9657364919890399
3.29296875,-0.9555655740038692,-1.130584952263062
3.296875,-0.6338856773932344,-0.21157026596355658
3.30078125,-0.894540317561431,-0.41465361083886937
3.3046875,1.2143974297723412,-2.403351030380371
3.30859375,0.14749411370580504,0.04094596413128507
3.3125,1.0639280611264021,-0.8340366536262881
3.31640625,0.5514431360676352,0.9763308666526307
3.3203125,0.40571089300197194,0.6026460402997086
3.32421875,-0.4764415045733495,-0.4630867951397867
3.328125,0.3010472417388452,-0.9586083804331824
3.33203125,0.7535313581728172,-0.7716581252756463
3.3359375,1.287647877739296,-0.9117679278475713
3.33984375,0.5736541036598637,-0.28389937697580303
3.34375,0.10693994812280497,-0.2744674787258438
3.34765625,-0.2873281929408218,1.6846002689359625
3.3515625,0.7425030071785805,1.2551606894208163
3.35546875,1.0699876184965245,1.0317693560956784
3.359375,-0.6213477371186271,2.58960912882296
3.36328125,1.302026270646473,-0.6862714000218272
3.3671875,0.009477254577037283,0.49908738873973313
3.37109375,-1.193041260353207,-2.1202094956701365
3.375,-0.2545737740067253,0.18436336510153767
3.37890625,-0.13376236861786306,1.0441950783895446
3.3828125,0.4246473626789126,-0.03634125323139402
3.38671875,0.7064036741735373,-0.14844520085516494
3.390625,0.6978153400415249,1.2253086585743678
3.39453125,0.4297625685244186,2.1119431462368015
3.3984375,0.40532189090353965,0.519663830669506
3.40234375,0.3169857451280812,0.4833390195859939
3.40625,0.8880362945858367,-0.33791705533819255
3.41015625,-0.9338695805146661,1.0550609646604596
3.4140625,0.2690362860968632,0.02461387719749949
3.41796875,-0.16546494050741556,0.9482184698081358
3.421875,0.504195182279223,-1.6463660262281092
3.42578125,-0.19630363829356307,-0.4774314715971509
3.4296875,-0.13010025548936105,1.201407497121987
3.43359375,-0.16420779176317088,-0.7260364948601088
3.4375,-0.3223246919003511,-0.5968771798375652
3.44140625,-1.9670513292893266,1.0254588733913546
3.4453125,0.7324527946165632,0.1132204846106329
3.44921875,-1.0180267431831262,1.3949483999620162
3.453125,2.3170427645613465,-1.4940727652872086
3.45703125,-0.16479957061331316,2.04250718190561
3.4609375,0.6583425071798337,-1.2021658042532426
3.46484375,-0.22570029321807442,0.8568203682259323
3.46875,-1.0914430903806003,0.5623635416334919
3.47265625,-0.5034859931384451,-0.038857555326927404
3.4765625,-0.48457100719669516,0.04305048644482776
3.48046875,-1.9712367465922538,0.6767998601448626
3.484375,-0.27959173706193513,-0.5532714747070562
3.48828125,-1.187063556446009,1.2786711936801547
3.4921875,1.293708264929685,1.386441394386789
3.49609375,0.16793670527568813,-1.3809465891244752
3.5,-0.1319136437142371,0.3844842861398084
3.50390625,-0.22513357258552483,-0.14069137705412393
3.5078125,-0.0034091616814871267,0.8079843508580961
3.51171875,-1.7250654719024179,-0.779448322785485
3.515625,-3.993390330795849,0.6957394739166733
3.51953125,-0.8067188073499942,-0.18625790140152243
3.5234375,-0.4728818036403822,-1.8129896009119413
3.52734375,-0.626201547984062,0.9415650488173852
3.53125,-0.11257043219464766,-1.1797119665287437
3.53515625,-0.24048297154250828,-0.7445820629038402
3.5390625,1.3567679540913764,1.6986636648497697
3.54296875,-0.9340304359050565,-2.3412288742532557
3.546875,-0.7455598713299872,0.6917578606522494
3.55078125,0.8651431902436216,-0.5432477226744898
3.5546875,-0.0054590961517044945,-0.8776255701515269
3.55859375,-0.41669325886708586,-0.09870933687059905
3.5625,1.2707359288794722,-0.6610792785832181
3.56640625,0.9798072238395442,-0.12071811328484859
3.5703125,0.9272244619932904,0.3308361636225092
3.57421875,-1.3593453497714825,-1.3584961043629966
3.578125,-0.7998272731997308,1.2025535083270804
3.58203125,1.210113595610734,0.30090292517641043
3.5859375,-0.8124459623667767,-1.5953096652029162
3.58984375,0.4777751329012836,-1.220620655579376
3.59375,1.4783115542952097,0.34676497283040913
3.59765625,-0.8077616292844384,-1.3736146054228144
3.6015625,-0.3209484651426834,-0.4399952401294536
3.60546875,0.8830608393750218,-1.2425195851347568
3.609375,0.2287229338644017,0.0028767816651551694
3.61328125,1.2502849188545817,3.1469918218745
3.6171875,-0.5087966773046344,0.1530229593828885
3.62109375,-0.44160164976843425,0.1345083669301412
3.625,-0.2810386324920483,-1.035853603600893
3.62890625,-0.47037318513545606,1.7124552334144938
3.6328125,-0.6512231185709192,0.027219940015606486
3.63671875,2.024592808011742,0.7349281161467647
3.640625,-0.662205053409331,-0.28341600602100503
3.64453125,-1.1156849379578981,0.5849450642205191
3.6484375,0.3068949141689825,1.5475698626989556
3.65234375,0.28427534889795614,0.7223678352925761
3.65625,-1.0685334428388833,-0.7318858506894864
3.66015625,-1.133655009983067,-0.9115117531093145
3.6640625,0.0038200772391360797,1.2810256359479613
3.66796875,0.4977664354081137,0.7555122830597055
3.671875,0.09938241090138468,1.9656989215480918
3.67578125,0.17368018846293892,-0.41715613350465475
3.6796875,1.3038455042314967,-0.045822054131351535
3.68359375,1.464051334133558,1.3347208442673968
3.6875,-1.1412748591590203,0.42436987121427017
3.69140625,-0.6625635827251704,0.7721472474156403
3.6953125,0.33999814074382445,0.11081620106992397
3.69921875,-1.2172172149173746,0.1973935863213882
3.703125,0.14895492182357314,-0.0929716096358193
3.70703125,0.3639795701629836,0.2864818043578158
3.7109375,0.24096649836690795,0.5792101496072817
3.71484375,2.0494273627853903,0.023317707052266604
3.71875,0.1710811363380566,-0.5984635841925109
3.72265625,-0.40634196422110797,-0.6693984146571066
3.7265625,1.192350315527935,-2.140003276501606
3.73046875,0.22752477201981552,-1.043528756785682
3.734375,-0.7197218792604728,0.04447378970689623
3.73828125,-0.1848302620975,0.4329635913944341
3.7421875,-1.3881200410563739,-2.3704095174377464
3.74609375,-0.5995937770098062,0.10834445646109989
3.75,0.984295130469254,0.8953499828505699
3.75390625,-0.2733715046896843,1.2268433054326264
3.7578125,0.05270185757005289,0.8831675585437968
3.76171875,1.0858414876470728,-1.466886570054197
3.765625,-0.021543503962597434,-0.6020674297784129
3.76953125,0.018116551248481223,-2.637652923558001
3.7734375,-0.1426759820338052,-0.32778022884573593
3.77734375,0.5441378063072473,0.10360277055713214
3.78125,-0.17127398540949873,-0.3727744264547339
3.78515625,-2.6798016959263578,1.2707117436078506
3.7890625,-0.038317100213253,-0.6394635543158
3.79296875,0.5159252267044103,0.599787202495366
3.796875,-0.9487109923353457,0.8709346953793583
3.80078125,0.5499129935466818,1.0823581822222412
3.8046875,0.6103155114189633,-0.894035899897498
3.80859375,0.3437406108777911,0.7033055186959082
3.8125,0.5073484425502082,0.2252136275226422
3.81640625,-0.2435571486225157,2.0020422017265145
3.8203125,0.20246449669569713,0.6345106553221183
3.82421875,0.6561318902678969,-0.8256735203546843
3.828125,0.5492376917230364,1.1317461889629545
3.83203125,0.3271983198676235,-1.709058729527017
3.8359375,0.15631601077802612,0.9594110913826991
3.83984375,-0.139227780711579,0.25982520860746494
3.84375,0.42817632879423867,0.41216772001527635
3.84765625,-1.1459374491698835,1.582314966451782
3.8515625,-0.3664008854510883,-0.40099479600306126
3.85546875,-0.7950365802691304,-0.20125722410385577
3.859375,-0.13896529418191333,-0.7816738945573527
3.86328125,-0.2258071530557261,0.10931270748493667
3.8671875,-2.6037947135962174,0.25749178361013053
3.87109375,-0.28316058089992563,0.8982000668383722
3.875,2.79094779412288,0.9626332226884764
3.87890625,-1.3533063395787126,-1.107847505379348
3.8828125,0.771401944528879,-0.8655248331214417
3.88671875,-2.5635849758885874,-0.2761095124549869
3.890625,-0.4774262515047609,-0.39249598098479155
3.89453125,1.13140917403271,-0.477121169594842
3.8984375,-0.3521512921669224,-1.560123603098355
3.90234375,0.006528097390053338,1.4557485387618454
3.90625,-0.8490770712872608,0.17807045049244588
3.91015625,-0.22410878260924214,-1.9786872653218464
3.9140625,-2.257994917843342,-0.7850912655821641
3.91796875,-0.5156591514808792,0.6729569904403107
3.921875,0.8218953937427922,-1.744758523004911
3.92578125,1.8524320996725756,-0.46201005431710057
3.9296875,1.1482490695927228,-0.0129440200018432
3.93359375,0.31437388201241573,-1.3315018780858483
3.9375,1.2549771773119174,-0.5371641179286243
3.94140625,-1.0009900712075908,0.6154925015972279
3.9453125,0.16755789231114238,1.321147614063344
3.94921875,-0.8056599298517103,-0.41421087592613176
3.953125,-0.16524798927222234,-1.0475564295430686
3.95703125,-0.17409638961313217,1.4638885333790035
3.9609375,0.5917379096945428,-0.11328912722579278
3.96484375,1.1537694203048638,-0.8961624620610938
3.96875,-2.449939135853536,0.23312559741569994
3.97265625,0.890795609508119,0.0779609373161014
3.9765625,-0.7952869236959679,-1.7763612605694226
3.98046875,0.12347852256407708,0.29935844254740696
3.984375,-2.445314642684597,-1.4482336064926389
3.98828125,-1.8448762194532784,-0.39763796957938496
3.9921875,-0.026117955295373193,0.04809996049142685
3.99609375,0.8259258255089581,-1.9955778731077454
4.0,1.2648640407026726,0.17791221343365338
4.00390625,-1.1716455186447048,-1.0102133006849943
4.0078125,-0.569820480243818,2.2162653104528514
4.01171875,-2.1984369441042815,-0.07675451839216225
4.015625,0.3082255579162437,-0.25845986928767384
4.01953125,-0.23352916995799758,0.012803664989003049
4.0234375,-0.5909629981848438,0.16562207325986994
4.02734375,-0.7719122366751282,-0.9032432708925641
4.03125,0.47437367133161057,-0.6144795711624554
4.03515625,-0.6591883281013503,-0.13323065884667784
4.0390625,0.3385362885741486,0.7312140772289826
4.04296875,-0.440906302946293,0.9733685191992633
4.046875,1.7380569744066987,-0.07419012896508922
4.05078125,0.2647795291126273,-0.022523848498354943
4.0546875,-1.1564891002172677,-0.21725513294027063
4.05859375,0.4348105989462096,1.2467819986796085
4.0625,0.9159692350072046,0.6322076447209435
4.06640625,-0.4350849515899775,-1.5501058543473922
4.0703125,-0.022715494349845298,0.9518137302492892
4.07421875,-0.012922930871985353,1.1065271975992783
4.078125,-0.0014580518268927259,-0.960009979123887
4.08203125,-0.22437589859113338,-1.3569493239340926
4.0859375,0.8576578956531358,1.5910853272846055
4.08984375,0.5818721419582459,1.2043787241533432
4.09375,1.0184703626925986,-0.33475654204466665
4.09765625,-0.21302106746978614,0.7882241005317828
4.1015625,0.3801729339526385,1.2527011651320672
4.10546875,0.12435110833418127,0.30234150041570274
4.109375,0.9282503023644375,-0.5774369194433736
4.11328125,1.2271190082393084,-1.2043201974022737
4.1171875,-0.5105961289674634,-1.6359310671429483
4.12109375,1.2565346182037693,-0.29533080815627233
4.125,1.4803028858542226,1.2164945686621733
4.12890625,1.330783609789231,-1.0241974034565056
4.1328125,0.07792232604652641,1.4016326375428392
4.13671875,-1.5107491452141624,-1.258820496770238
4.140625,1.760301553363479,1.311112022401504
4.14453125,1.6781765709083505,-0.3426269469601248
4.1484375,-1.6250143613222543,0.2012429915104255
4.15234375,1.121657245575642,0.7920825090564357
4.15625,-0.8509909640178207,-0.009784464893270796
4.16015625,1.252013000722738,0.37868851713610113
4.1640625,0.4328264468818674,1.7411000116786368
4.16796875,0.32000673279635294,-0.9784826035772638
4.171875,0.6641298668061847,1.0863260881852776
4.17578125,-0.9645550644052193,1.6348268427016535
4.1796875,0.4738825583964823,-1.0785678837123305
4.18359375,-1.1262060636614328,-0.7530549901473793
4.1875,0.869329023514307,0.9690105469729168
4.19140625,1.8426511377877635,-0.6578491116949108
4.1953125,0.24951596789841926,-0.35280818450110946
4.19921875,-1.3643059422268915,0.2661125308738714
4.203125,0.09327514052647701,0.2598011178702662
4.20703125,-0.3825822994439139,0.10996613770532704
4.2109375,-0.10916833844832095,1.3971608471774666
4.21484375,-2.136755301649816,-0.7420466392747598
4.21875,0.6270566517655147,1.5645331424794786
4.22265625,-0.5035580244193975,-1.869250996632651
4.2265625,-1.1226949497662921,1.3303407031095156
4.23046875,-0.8618838225784582,-1.6799852539079096
4.234375,0.035563960979852406,-0.13785293282687253
4.23828125,1.7353127846513599,0.3467168222404167
4.2421875,-0.7721567467441637,-0.06202647560185588
4.24609375,-0.5242155797228422,-0.39852356872680283
4.25,0.15759227888362604,2.03196494613573
4.25390625,-0.9077080231195861,-1.1623888132312548
4.2578125,0.14318433852614604,-0.37885079787200915
4.26171875,-1.1285007027237408,0.4693030582265363
4.265625,-1.6536900101827452,-0.13802863395218687
4.26953125,-2.02635443469797,1.7990268538221115
4.2734375,-0.4902145964772584,-0.5758187753553521
4.27734375,0.1984807045931578,-1.0163512633818295
4.28125,0.1758121330413231,1.4432674503645884
4.28515625,-0.730182242682135,1.1312967156660403
4.2890625,0.40638003451193744,0.2425219774162769
4.29296875,0.6521047036905628,-1.3239412151353194
4.296875,0.4463624344197767,0.33485774816853026
4.30078125,-0.550680304107044,-0.09087187455499735
4.3046875,1.240324476070262,-0.7078060281981999
4.30859375,0.5143555847515837,0.08088370003716173
4.3125,-0.16386111072431794,0.12420148432571915
4.31640625,0.22214477956312154,-0.7708811495095047
4.3203125,0.7010304124807126,-0.4157080865949142
4.32421875,0.1327960674451609,-0.9128892192689738
4.328125,1.4687812544058754,0.7524666953375537
4.33203125,-0.029797795515067133,-0.38913754641397463
4.3359375,0.4244846588825103,-0.2791884310973205
4.33984375,1.005236988755325,2.2275881828168527
4.34375,-2.011313645260347,-0.04677620918785241
4.34765625,-0.9907876279483961,0.6379969139552123
4.3515625,-0.28423324593592747,0.39007552949842006
4.35546875,-0.3985918769113044,0.061278002290577976
4.359375,1.898650285425427,0.5536896207880461
4.36328125,1.3162632709369952,0.4352399764634137
4.3671875,0.4891782206485289,-1.1766487533178387
4.37109375,0.41011296675044273,-0.6288294827803708
4.375,0.718723139498679,-2.126128040570637
4.37890625,-0.48045053316607267,1.0731031133219313
4.3828125,-1.5840255010795998,-0.1633503996561301
4.38671875,0.4938286838011978,1.197719337456488
4.390625,-0.3786142073834162,0.024315834562426048
4.39453125,1.9804282224003762,-0.007596258847435664
4.3984375,-0.47146678898145267,-0.08936050639041261
4.40234375,-0.5063940179819578,2.1825960410597607
4.40625,-0.39971868332348026,-0.7121043762942291
4.41015625,1.0567745899067023,-2.093152379793249
4.4140625,1.795647834860384,-0.5711967437946046
4.41796875,-0.37927316743159084,0.03830833330856629
4.421875,1.736685587176395,0.6033607272952833
4.42578125,0.4266310030188674,-0.4212907678865646
4.4296875,0.5841667323867038,-0.27267391340357033
4.43359375,-1.2577606966484511,-0.3749947726288482
4.4375,0.08630263751304268,-0.3408786770503307
4.44140625,-0.3187925296401997,-0.8211959647572316
4.4453125,-0.45304257814517507,0.19699164566346922
4.44921875,0.3724888777341729,-0.7752233597585754
4.453125,-0.4134949391049107,0.8261863653488202
4.45703125,0.2739598979051548,-0.38623710030251535
4.4609375,-0.5059256655154957,0.7501440375891794
4.46484375,1.0213230319058242,-0.9428577967776168
4.46875,0.4264842707346801,0.7691811573540468
4.47265625,0.8840814203790744,0.5249884117699011
4.4765625,-0.3091578731908488,-2.165947953801003
4.48046875,0.8109238309313821,-1.252793615867706
4.484375,-0.3179661614873363,0.7164948932607862
4.48828125,-0.07138477376178262,-0.5999638676732363
4.4921875,-0.6300253794914469,-1.4982044729850605
4.49609375,0.10720802522103395,-0.11836949302651652
4.5,0.6741249365988466,0.68885920313772
4.50390625,0.3421746097762964,-1.308582859622247
4.5078125,0.6177772047123621,0.44404204280216747
4.51171875,-0.04951509334986518,-0.20504548546825108
4.515625,-1.7022187480880049,-0.3231134751846448
4.51953125,-0.11832478012436524,0.34995406606750434
4.5234375,-0.4697730891297173,0.2924476568192975
4.52734375,-0.6963576347304731,2.5250860184681247
4.53125,0.9722542050317182,1.2491631478295582
4.53515625,-1.8639056280124848,-1.5298505877514004
4.5390625,-0.49747078950322227,-0.8597061942242361
4.54296875,0.04158498946895309,1.3736275891344658
4.546875,-1.0475844996257864,0.06315786721961109
4.55078125,1.4413948921602335,-0.19640968316197358
4.5546875,0.2937586337546244,0.3893663568817633
4.55859375,-0.4630310652934986,-1.5503853575483977
4.5625,0.5906487687381011,-0.894087354910052
4.56640625,-0.11223393399321877,0.6635948923499781
4.5703125,0.24960890815962042,-0.7952435447102933
4.57421875,1.0328248455066165,0.03689890768631751
4.578125,2.8578130939005537,1.0735997249375897
4.58203125,0.2100850777087829,-0.8745826625649346
4.5859375,1.2537128974881455,1.2075392615101967
4.58984375,0.1360586088969981,-2.020272505900583
4.59375,-0.7715820906281495,0.6275335512663053
4.59765625,-0.6618381384922059,0.8219917202594417
4.6015625,0.4020816806451416,0.9358318464624084
4.60546875,-0.7041720644858801,-0.6228694874662442
4.609375,0.4234631605104228,-0.7114908569753885
4.61328125,0.06803979903322167,0.11265460016020262
4.6171875,0.2783066641900611,0.5909300352421668
4.62109375,1.7002853996197256,1.9015952488012837
4.625,-0.7851200187942475,-0.1095776885701092
4.62890625,-1.2652160729793915,-0.2623910582475901
4.6328125,0.6007363959581783,-0.5993112475536579
4.63671875,2.443155846566966,-0.31060431773643743
4.640625,-0.1276142995862311,0.4140082697011204
4.64453125,0.7082228738424796,1.6529335327176853
4.6484375,-1.7820070889182205,0.9152744254398663
4.65234375,-0.02066523243059021,0.6828966270059743
4.65625,0.875615659318326,0.25429214994045585
4.66015625,-0.5889869047427592,1.735825975268516
4.6640625,0.6260488205882531,-0.8078406312438215
4.66796875,0.46389362434919895,-0.23587007618890335
4.671875,0.2872493033609043,-0.361656090503952
4.67578125,-0.20059984772710873,1.6029520465583764
4.6796875,-0.35893903164169455,-0.9532240259466758
4.68359375,-0.2743907106891774,-0.20494577775245687
4.6875,-0.04285054379159691,-0.07736028917860335
4.69140625,1.3773313534354963,0.44289905572060595
4.6953125,0.9939043348848267,0.46402723311961636
4.69921875,1.4827406063382327,0.20959211680151346
4.703125,-1.2240575662357926,0.43511601184930715
4.70703125,-1.8420026375184377,0.4063558570847148
4.7109375,-0.6289470276817315,1.222949711792501
4.71484375,0.17124137002824644,-0.4221288167546088
4.71875,0.5146061927821105,-0.3772155700765234
4.72265625,0.6195420229492431,-0.19308699093961892
4.7265625,1.554877066483172,1.1858623132719202
4.73046875,0.7345844489706493,0.8586055852687968
4.734375,-0.32104675214901623,-0.7046539886659348
4.73828125,-1.0669452771515513,0.6509279374956817
4.7421875,-1.6046395471853006,0.4814803650220945
4.74609375,-0.09283096922872626,-1.233165533185757
4.75,-0.38694132485345795,2.0545873272007746
4.75390625,1.7445626245436967,-0.5185818296929945
4.7578125,-0.2826389286838549,-1.2484788383630205
4.76171875,-0.10583128669990846,-0.7416960006463704
4.765625,-0.628655713135178,-0.19791136785457528
4.76953125,0.8717038435848298,0.14556986279356757
4.7734375,0.4537446494213857,-0.3505597161239228
4.77734375,-1.6347528200061585,1.4142872700176736
4.78125,-0.022117920453267537,-2.1059817886688643
4.78515625,-0.3848963896152295,0.6451008497046141
4.7890625,-0.7955062778190293,0.21004535653517925
4.79296875,0.4971335423857287,0.35331264549966784
4.796875,-0.8405365716724742,-0.7628879125923002
4.80078125,-0.502710450401751,0.0690859364273475
4.8046875,-0.45044879013636535,0.540372609716903
4.80859375,-0.19998431354430932,-0.8269312460170205
4.8125,0.37264108894038817,-0.18606890288962522
4.81640625,0.758374441139257,0.04946484416811643
4.8203125,0.9609027092425088,1.8714818565303664
4.82421875,-0.9517030034441318,0.9254612462711947
4.828125,0.07996760046083075,1.6238378521087047
4.83203125,1.2084727835804736,-1.0821084146829651
4.8359375,0.2599506254376329,0.5769146032287815
4.83984375,-0.07381109797364628,0.7398056688844048
4.84375,1.2699593542015075,0.038139693327298135
4.84765625,0.9890897336102313,0.3344536690821438
4.8515625,-0.21467146060959963,-0.30896833125177137
4.85546875,-0.10259973487268693,-1.154423839180665
4.859375,0.8303784678645632,-0.35079394868679253
4.86328125,-0.040140352790366575,0.9416577473075489
4.8671875,-0.20540347162288566,1.4849219778924183
4.87109375,-0.4565335690963026,1.907785031936999
4.875,-0.849790234730134,0.714411730544886
4.87890625,-0.1773982777585139,0.29471356600530824
4.8828125,-1.1959828224716171,-1.2055023112974177
4.88671875,0.17733543298224844,0.8164773912815634
4.890625,-0.5987894967809821,-0.3430597300856025
4.89453125,-1.0657349792997441,0.6417570267293854
4.8984375,-1.3410712928413968,0.16351763643036202
4.90234375,-0.9056288657909457,0.7692766384408946
4.90625,-1.6134883394603576,-1.7322537537200922
4.91015625,0.8196244034771205,1.2247692175157006
4.9140625,-0.7091080925301685,-0.27615775414362337
4.91796875,0.7339071377147917,1.3071749506633763
4.921875,0.9480037116445246,0.16812814239139096
4.92578125,-0.38140736782140094,0.8156032149013596
4.9296875,0.6572609981266748,-1.3843053097517464
4.93359375,0.7653241370042896,-1.0781651273205364
4.9375,0.45131350577708207,0.15828160552554651
4.94140625,1.4901412296407002,-1.1809743388518323
4.9453125,-1.4407822088412232,-0.25568167677407083
4.94921875,-0.49784364789475855,0.9823701855503717
4.953125,0.1662909034514063,-0.1581284241830156
4.95703125,-0.19590057993872134,-1.0707837369754085
4.9609375,0.3617271480767424,-2.2723547752714146
4.96484375,-1.3608553520693536,-0.41118980888829776
4.96875,-1.3278691678949306,-0.09723660333398122
4.97265625,0.9141082226975292,-0.22493338354641632
4.9765625,0.4008928098273491,-0.28796486342017086
4.98046875,1.179427365405945,-1.0372878140719894
4.984375,-1.7455172789463054,0.062388852894796794
4.98828125,-0.3787937996167515,-0.032310037321436495
4.9921875,-1.0230711576062543,1.6436758317227302
4.99609375,0.11534449149172175,1.040377169638843
5.0,0.8053356309004477,-0.21148655759941706
5.00390625,0.6959193656920781,-0.5643862607997843
5.0078125,0.7490918731223467,0.04018085760960311
5.01171875,-1.0680636498850584,1.57742642077387
5.015625,0.0227198528649208,1.150162541777738
5.01953125,-0.7461173211417765,0.05933800166248818
5.0234375,-1.4936710844581869,0.6135035628066495
5.02734375,0.783395398185509,-0.6818481206806833
5.03125,0.027756285572737825,-0.571691467314943
5.03515625,0.49144995351125126,0.8477678833174155
5.0390625,-1.2465086137507106,0.2610165862569088
5.04296875,0.8058444564708799,0.8316241787940923
5.046875,0.09118837182848946,0.7602542296252016
5.05078125,0.6640774029582408,1.0005093020046443
5.0546875,-1.4250439214969006,-1.9985608153194976
5.05859375,0.5608290175911732,1.8016774830046978
5.0625,-0.3238888744030105,1.1895869045862888
5.06640625,-0.11932487105523565,0.6860544660472951
5.0703125,-0.1177595883231753,0.41608237927994157
5.07421875,-1.9506441392533402,-1.1524257890435718
5.078125,-0.35398846763746367,-0.9845103774817993
5.08203125,0.8414763200384633,1.3718699994873984
5.0859375,-0.31594490485750054,-0.6928519857392038
5.08984375,-0.509683288554834,-0.3594690231194606
5.09375,-1.2178854861066075,-0.8514397708406456
5.09765625,0.5978848797487701,0.30645239066370555
5.1015625,-0.17863885851607858,0.4361027707449259
5.10546875,1.0114730807783203,-2.5899141058664434
5.109375,-0.30035653942775337,0.9153416200923474
5.11328125,-0.26956061115833035,-0.7684896948021873
5.1171875,-1.9042334447281133,0.5930141730113447
5.12109375,-0.22658823717167723,-0.31027533560376797
5.125,0.22772766411122103,-0.40169011266234783
5.12890625,0.4549223987643556,-2.002086627182133
5.1328125,-1.6368817943612823,-1.065007575292685
5.13671875,0.20692679962189056,0.7221056945051489
5.140625,1.7353575945811424,0.1593459022797398
5.14453125,1.654647497600723,1.389735415014972
5.1484375,0.6587627880881635,-0.6909224600896956
5.15234375,1.6677786506009624,0.5734238893457975
5.15625,1.0688720717817515,-1.1978876414438153
5.16015625,-0.058500143144992994,-0.006967366542000344
5.1640625,-0.26959305615872015,-1.2742694711750482
5.16796875,0.9502165890237781,-0.13322010661162034
5.171875,-0.9038376290529799,1.7634336514676971
5.17578125,0.050791721892412385,-0.30428308989648306
5.1796875,0.8916447066827011,0.28350225965372805
5.18359375,-0.49616102450331,-0.3633608371945011
5.1875,1.3760341097308129,-1.3036631139157733
5.19140625,-0.43628592482101225,-0.8375407991382934
5.1953125,-0.47599882975934893,-1.29069351370401
5.19921875,-0.5956831524565567,-0.6804275660008544
5.203125,-0.1300325070932912,0.26726859058397195
5.20703125,0.5912817652598846,0.5205470169951413
5.2109375,-2.3365494040470085,1.4714621995079906
5.21484375,0.10161615918591899,-0.3310229677218001
5.21875,-0.8020214591398082,-0.5893172821684076
5.22265625,2.3153011086383537,-2.0490656714304736
5.2265625,0.8331837344496247,0.17045445144417
5.23046875,-0.6925248977824027,-1.3347343349980603
5.234375,0.592925033343249,-0.5882458643702243
5.23828125,0.1468067626882922,0.5795356607992983
5.2421875,-0.8555876540756093,-0.9900950882599678
5.24609375,1.4346847379211436,-0.16816594557815273
5.25,-1.1091307153124481,-0.8014529201718554
5.25390625,-0.05224175531724674,0.15940358075325223
5.2578125,0.7019491607166162,1.2362081184209814
5.26171875,0.7679376572558244,1.0278973499276347
5.265625,0.20134808647171648,1.5880410522638944
5.26953125,0.2543374000249043,0.09674246784763818
5.2734375,-0.06507720200272177,-1.3079445332811537
5.27734375,0.7689025493855772,0.3427380512999588
5.28125,0.06219656081340726,-0.016790561971333027
5.28515625,-0.9935238435820004,-0.2392530085393723
5.2890625,-0.0780481896651454,-1.5305681983917208
5.29296875,-0.2291754865523239,2.3913920928550576
5.296875,0.20023278097577196,1.0208650932697156
5.30078125,-0.8839318540589686,-0.7789193174273596
5.3046875,-0.5369830682686259,-0.9367341404706864
5.30859375,1.1110213715275257,0.923496154929342
5.3125,0.9826481074884957,-0.6646425605752969
5.31640625,2.3173831064793067,1.3841282313658385
5.3203125,-1.377683009286109,0.14863349496497186
5.32421875,0.12591144758132897,1.7085054591992435
5.328125,-0.7169740611037163,0.6048046226177479
5.33203125,0.3842003397070346,-0.6776453978452173
5.3359375,0.7222718648706233,0.16165033661709255
5.33984375,1.635987768133315,-0.4857767442613487
5.34375,1.525581236732776,-0.03082075107195738
5.34765625,0.4101303253046679,1.0334275696138657
5.3515625,0.14715180343255174,0.321041261850301
5.35546875,-1.0902581939215867,0.8742416593785105
5.359375,1.9765974593529474,0.8270550543261814
5.36328125,-0.5219395258234991,-0.25336481437668407
5.3671875,-1.1179518709575886,-0.5445263951980956
5.37109375,0.3115813589120042,-0.6497270948502814
5.375,-0.07603095162233767,1.8579262583337401
5.37890625,-0.031173046591892014,-0.0053654326133749965
5.3828125,-1.259495356260936,-0.24446309860058354
5.38671875,0.6601453459838496,2.265847431684548
5.390625,-0.3295419295522463,0.07927162267731887
5.39453125,-0.7237050364305228,-0.045911014952097665
5.3984375,0.2585368069777996,0.8807956611921557
5.40234375,-0.27442297584598346,0.8037890628399731
5.40625,0.141260291302379,-1.26693274263072
5.41015625,0.33918581410272136,0.74284251663178
5.4140625,0.8480243335214821,-0.37080430856677865
5.41796875,-0.3919931857918648,-1.489293558332973
5.421875,0.5403583053860075,0.9792639812851637
5.42578125,-0.6891478474719109,-0.42649027035499654
5.4296875,0.07366173283844214,0.8522230433065794
5.43359375,-0.0011132873597345632,-1.2847611988264331
5.4375,-0.07953092775471349,0.6794980239369421
5.44140625,0.045153438397184366,-0.1953999132006998
5.4453125,-1.1863042672250381,-1.0222387082044146
5.44921875,-2.992721527566341,1.1795392733895875
5.453125,-0.6191703679950223,-0.35143249408932026
5.45703125,-0.14094025303335536,0.5439798848741433
5.4609375,-0.2632240877045306,1.4001106423256355
5.46484375,0.729671039665628,-0.20977279917683933
5.46875,-0.1949460188656956,-0.05797172762943542
5.47265625,0.7844317993578369,-0.1735295095759218
5.4765625,0.4185003146294841,0.37727230632468883
5.48046875,0.4141290008232354,-1.1620196951406212
5.484375,-1.8571649463583189,-1.4376719972809482
5.48828125,-0.531762359069676,-0.04487484363773954
5.4921875,1.4764319858554955,1.5363268698792076
5.49609375,-0.09574984294450256,-1.2878407840659298
5.5,0.14623085886010687,0.7357497893626872
5.50390625,-0.9369448169855991,-0.34748023225176033
5.5078125,-1.2718020084009483,0.8669034976618333
5.51171875,0.23330940580879683,1.3178746858694332
5.515625,1.672363748174466,-1.0029195706086675
5.51953125,-0.31771778491960667,0.4661622612067723
5.5234375,0.5448664877167296,1.7957847157684714
5.52734375,-0.8202175070835708,-0.5697856125580504
5.53125,0.6660509985174058,-1.6334398393225675
5.53515625,0.8884621968205407,-0.1194557405970418
5.5390625,0.1382304707699428,0.6251424629110754
5.54296875,-0.5997097778730884,0.7255087370211243
5.546875,-0.7233255513339196,0.18236534233956694
5.55078125,0.5814001013579109,-1.7774044860391922
5.5546875,2.053915722542298,-1.1778824209546563
5.55859375,-2.0483233747553795,-1.7150939905504299
5.5625,-0.10317907020356046,0.9493526248078007
5.56640625,-0.4215326720719801,0.2557624244394914
5.5703125,0.5066463208792594,-1.0369002182411564
5.57421875,-0.3122727555455545,2.3697519544076138
5.578125,-0.5019445557747936,-0.7499955729472043
5.58203125,1.1673751066438756,-0.6918606951780678
5.5859375,0.35824418730884794,-0.6661215065810541
5.58984375,-0.5552053993856143,1.09693947659634
5.59375,0.8247810825149176,0.25472942768419954
5.59765625,-0.23228195459035286,-1.3170363394452058
5.6015625,0.2972463610280726,-0.9959037302284768
5.60546875,0.7729596623570218,1.4044906957599084
5.609375,-0.7800460313598064,-1.5171638308586974
5.61328125,-1.576415694649826,-0.15302826176548262
5.6171875,-0.21855106027130802,-1.505240185188218
5.62109375,0.9984372653010717,0.6459981992159874
5.625,0.3044456183495454,-0.7362277407442471
5.62890625,-0.3166266419125189,2.322777137976067
5.6328125,-0.9495772954960391,-0.4799412259747444
5.63671875,1.6640577424636827,0.13587205714624911
5.640625,-1.7144880194555687,-1.1530295183096735
5.64453125,-0.34319900538415277,-0.30127171147510856
5.6484375,0.2479689576382731,0.31222152976487294
5.65234375,1.8038275044583716,-1.152216198933403
5.65625,-0.7001753705071436,0.2412514119731226
5.66015625,-0.4901351543130362,-0.9893748837348725
5.6640625,-0.5043838321465292,-1.3835609388498102
5.66796875,-0.37016327338823984,-0.3196640126313824
5.671875,0.3279739571785144,-0.45699269391339786
5.67578125,1.1151471131416655,0.1698675073047742
5.6796875,-0.10863732182127608,0.054301555335067246
5.68359375,-0.342818593864481,-1.27452992823824
5.6875,-1.1721232241298438,0.8154403714163959
5.69140625,0.611722015713696,-0.5043970809267738
5.6953125,-1.640588367415384,-1.0221522803621377
5.69921875,-0.7243392499405571,-0.5192312897638016
5.703125,0.05850309523835871,-0.22046074032531765
5.70703125,-0.01997072142025182,1.7133965486374323
5.7109375,-0.48492318594122125,-0.05803026559639228
5.71484375,-0.7211035267708322,-0.44319091685960127
5.71875,-1.6509438119435296,0.33013012918897544
5.72265625,-1.2102005613819173,0.19811306251555774
5.7265625,-0.5710744203389907,1.4188965874430475
5.73046875,0.41234068049249434,-2.3453617747463946
5.734375,0.28632985557134355,-2.2066444335080067
5.73828125,0.27055015342211747,-0.4378328142971556
5.7421875,-0.637767504510042,-1.7369098981257518
5.74609375,0.8180698783235126,-1.3901921322343989
5.75,0.5142247864187927,-1.2684653780387496
5.75390625,-0.2272224670537432,-0.4001786700474658
5.7578125,0.46913234163932555,-0.18337546099916638
5.76171875,0.016863740810296828,-0.15744601217519422
5.765625,-0.7192839446350825,-0.01520085370259175
5.76953125,-0.5815731614992806,0.2541085141524416
5.7734375,-2.770818498340853,0.9831577892059307
5.77734375,-1.1797304930665264,-0.27293652539201546
5.78125,1.2783625207040832,-0.9224200698282369
5.78515625,1.7909139436530317,0.35401103796561684
5.7890625,-0.7985853601712112,1.4487382705347396
5.79296875,-0.6380927281095323,-0.6411060231697456
5.796875,-1.0000306812787163,0.9384509541103184
5.80078125,1.4663028674682588,-1.7649028079520137
5.8046875,1.0763498500444515,-0.8415117450604304
5.80859375,-0.13865630543119545,-1.101476123403872
5.8125,0.346400588023081,0.7605010100902084
5.81640625,1.662882142451862,0.9794091854349843
5.8203125,0.9034495797307338,0.9522562862689764
5.82421875,-0.4141857666888188,0.10960823383345128
5.828125,-0.27853284150153507,0.5444489045701466
5.83203125,1.4138251377850606,-0.9817243135085942
5.8359375,-0.07329700049000348,-1.5688652467932707
5.83984375,-0.11530478951947676,-0.2748066868350407
5.84375,-0.5592799386499623,1.9850947901601914
5.84765625,0.29567273359257545,2.3556064385301885
5.8515625,-0.2759642934630093,0.0795526690152388
5.85546875,-0.4227902644535451,0.8298391824809267
5.859375,-0.9665201192035443,1.2882267701865662
5.86328125,0.7864212683027804,-1.0203716007124093
5.8671875,0.6893706298603752,-0.43512597148309134
5.87109375,-0.5333748971131863,-0.9612850209578794
5.875,0.4150721425678849,-0.5061593464171296
5.87890625,0.9706955856042686,1.547946497084016
5.8828125,0.15405232612871755,-0.8564496471013671
5.88671875,-0.2192789021873899,0.6445164657428742
5.890625,-0.17780416758842835,0.0880251308343304
5.89453125,-0.46165479097889667,-0.3676682473066614
5.8984375,0.6590787921636215,1.3188394812994173
5.90234375,-0.7736474084292967,2.4618807307000603
5.90625,0.43053515009365834,1.4004556523730876
5.91015625,-1.255459510530679,0.888524515885914
5.9140625,-0.10893945908467847,-1.8045370834617462
5.91796875,-0.2418503556803601,-0.15597336849158167
5.921875,-0.21887015074662391,-0.225977616286682
5.92578125,-0.8365481074109101,2.5277059117878133
5.9296875,0.2985135540503981,0.8046250008801559
5.93359375,0.6559844028750837,-1.775262581686235
5.9375,0.48613494290756454,1.04233176815992
5.94140625,-0.8030707310942466,0.6905589982949083
5.9453125,-0.7518809986226516,0.07727967368558958
5.94921875,-0.13929249076693823,-1.6590197960440407
5.953125,0.7944928251828522,-0.7065520697261296
5.95703125,-2.2958254932031363,0.6569000748997998
5.9609375,-0.4582621768677177,-0.005349977657220608
5.96484375,-0.04785185264915163,0.2420015325757993
5.96875,0.5805434210251889,-0.6928823392812263
5.97265625,0.4201532700040699,2.813746538405959
5.9765625,1.4278622397101741,-0.10661291605866621
5.98046875,0.054172293274248925,0.43868029245120466
5.984375,-0.18374285360689996,1.8049444748921324
5.98828125,-0.6922059498333097,-0.046426981763670834
5.9921875,-2.2170504888712186,-0.0979307839401143
5.99609375,0.4919650529417886,-0.8522945199105343
6.0,0.5210651240081261,2.129800174145113
6.00390625,0.4415569668857616,-0.3754739673737254
6.0078125,-0.7387954032564863,-0.12967291770953124
6.01171875,0.13480291053491525,0.36088869326002465
6.015625,-0.3135824794520666,-0.5377338316583006
6.01953125,0.11987485519322665,-1.6766240039867306
6.0234375,0.43094969192733423,0.6517481659703297
6.02734375,1.1050546349272279,0.6582766786991366
6.03125,-0.5071714179808999,0.05558678360912889
6.03515625,-1.3343837523695778,-0.985736244723426
6.0390625,0.3561768413496571,-1.7084259129952006
6.04296875,0.5139104800409962,0.041830811873344344
6.046875,-0.22877663424469483,-0.00039272194816954533
6.05078125,0.28712594538466163,-0.377232404395372
6.0546875,-0.5995157358904666,0.9124299453355061
6.05859375,-0.4319431945188302,-0.9209177025424711
6.0625,2.275956873638087,-0.04402716280850523
6.06640625,-0.73786260817926,0.46975561158750156
6.0703125,1.1212515761826598,-2.035736660079307
6.07421875,0.3263970086450053,2.185252726278347
6.078125,0.868471055368283,0.8962127942609586
6.08203125,-0.35922573789980655,0.22214464993603736
6.0859375,1.1598756709100335,1.349136027848147
6.08984375,0.6641001972972409,-1.0666954496630825
6.09375,0.03865480953830916,0.14315786722268561
6.09765625,0.35110558781473666,0.485432104138326
6.1015625,1.0705901911539017,0.719804919118448
6.10546875,0.5806989057193342,0.419312330234566
6.109375,0.01574944111774519,0.9736521770225309
6.11328125,0.04210412664536294,0.33441007285595264
6.1171875,-1.2513077492657598,-1.8019327092630175
6.12109375,0.48347454465703243,-1.1994706634949612
6.125,-0.7391725776311135,-1.064685397566459
6.12890625,-0.4213714239222796,0.5767551772203448
6.1328125,1.0453421483641818,-2.0152644449674333
6.13671875,-1.1041825129610825,-1.0846234612179475
6.140625,-0.7637521186091591,1.0515375869657295
6.14453125,1.7327156543934452,-0.3163417363300777
6.1484375,0.5728377013490602,1.589936926704031
6.15234375,-0.936542462185996,-1.341745150962297
6.15625,1.24485730135557,0.8115787460245191
6.16015625,0.1288093042647671,1.555235399331912
6.1640625,0.3789159872010112,1.2479826552054214
6.16796875,-0.7094032418338242,0.2774994792514567
6.171875,-1.3050284597722335,-0.060674944009711226
6.17578125,-1.6260592119978057,-0.6281132942307661
6.1796875,0.22062354656084282,-1.6433196159244594
6.18359375,-0.634566892608976,-0.23118446735233394
6.1875,1.4675633433459123,-1.2338975766597138
6.19140625,1.1687780134890964,1.12743354972317
6.1953125,1.282655526090919,-0.15898173950355082
6.19921875,-0.17328718340089938,-0.06958158469426562
6.203125,1.1857862213173695,0.9483181818469488
6.20703125,2.5132803963639097,0.7658813666089248
6.2109375,-1.3707337653194074,-0.14073095831790958
6.21484375,1.5484903536340746,-0.7321773870925097
6.21875,-0.5809666919131339,0.258889913441415
6.22265625,-0.436231136554984,0.31858752309085187
6.2265625,0.8634349425498365,-0.13862158303756072
6.23046875,0.15023252743277343,-0.26252222648077544
6.234375,-0.7521058383131831,-0.5988663124672648
6.23828125,-0.442752202372656,0.33129200500009837
6.2421875,0.05810181918800419,0.6038019776764636
6.24609375,-0.5838308043272757,0.30984254033981407
6.25,-0.24925224081186467,-1.4809662724173203
6.25390625,1.3345635324246103,0.6979200037693519
6.2578125,0.44347014728094647,-1.138790940306038
6.26171875,-1.6993187193520853,-0.697006055921683
6.265625,1.6406092674133492,1.641243841355782
6.26953125,-1.1037189704824095,0.920569977415757
6.2734375,-0.15495306292232566,-0.3937215366400202
6.27734375,0.2268788754847386,-0.9072947379420132
6.28125,1.0863194886891387,0.896668521241605
6.28515625,1.718504548576197,1.1155242761566742
6.2890625,-0.26378114515162243,-1.2200044008741886
6.29296875,1.5860842428752495,-0.7837492153918048
6.296875,-0.7275535163944779,2.350617322571894
6.30078125,1.1603214665402295,-0.34684983524448065
6.3046875,0.1161874529629284,-1.3423210840414899
6.30859375,-1.458516900271754,-1.9254362254141821
6.3125,-1.4190438060629507,0.3705558144121809
6.31640625,0.6680588898872364,0.4490247919979168
6.3203125,-0.42191965438216433,0.043589505959570764
6.32421875,1.2312782281183878,2.275774420704256
6.328125,-1.618254199332636,-2.35467050650151
6.33203125,0.556880074159487,-0.6983068524966449
6.3359375,-1.8686566883544866,-0.481991113997322
6.33984375,0.7400707654575877,-0.6367634050075764
6.34375,0.023918889402387983,-1.1808438133923618
6.34765625,-0.0878865955352431,-0.3264417205977351
6.3515625,1.4805518049048418,-0.6400888277286071
6.35546875,0.4423339061563385,-1.5716461056626077
6.359375,-1.199106308035785,0.6663120940552079
6.36328125,-1.8112161764964039,-1.5887471888835434
6.3671875,0.6295059962186872,0.7764910883840243
6.37109375,-0.40007711870762264,1.7210522489665696
6.375,0.09063604285281009,1.6290247060607281
6.37890625,0.6697936068272092,0.4744426226429386
6.3828125,0.34787178495112847,0.5019898367130039
6.38671875,1.2653085802775834,0.9337529422226392
6.390625,-1.621157766562902,0.6111585167512472
6.39453125,-1.0707834500616014,0.4470205640986621
6.3984375,-1.2069121730181114,0.04335011277986083
6.40234375,0.7672605921305328,0.9019579188493793
6.40625,-2.232520829588043,-0.6812006748597513
6.41015625,-1.0838033994286924,-0.7714415563373967
6.4140625,0.26195197452343305,-1.2946762975323356
6.41796875,0.027614026355647383,-0.6680682590528064
6.421875,-0.7268500385034148,-1.0980638717558757
6.42578125,0.1935601407100604,0.14395511889687898
6.4296875,1.492313435563622,-1.187742905001572
6.43359375,0.2331450404992676,-0.28927506201687136
6.4375,-0.6681898372015558,-0.8172903082662953
6.44140625,0.4109446672562558,-1.1804314856670097
6.4453125,-0.23060356742106103,-1.247354127083497
6.44921875,1.4603082390443576,-0.33887070673460085
6.453125,0.5178822081246597,1.3335520443937712
6.45703125,1.3634658329818607,2.273893465664745
6.4609375,-1.1662947073330012,-0.19227131960546395
6.46484375,-0.2306851225174498,-0.9958378761432612
6.46875,0.40206712600111166,-0.04253962047370655
6.47265625,1.7399829527290347,-1.166665069119929
6.4765625,0.6726837447881823,-1.329195715134919
6.48046875,0.39360285089553426,1.306049290207206
6.484375,0.3281231572600383,-0.30038476036055123
6.48828125,0.6361725136408463,-0.16067876584850393
6.4921875,0.24398037010356366,-0.6609459195467878
6.49609375,0.1917446290271069,-0.037205079041930766
6.5,-1.2871743852991633,0.1728981501016709
6.50390625,-0.8157022396232118,1.123318258299813
6.5078125,-0.4128002372275977,-0.025861301380111272
6.51171875,-0.8743661351396222,-0.3006004923084188
6.515625,-0.29381411695150916,0.25605515137758267
6.51953125,-1.152016641266416,-0.8492653395186994
6.5234375,-1.5703187897007103,-1.6279529449972758
6.52734375,0.9705282247323632,-0.19422849264418163
6.53125,2.268823709843472,-0.914378070843412
6.53515625,-1.19238167907913,-0.5527031514646549
6.5390625,-0.6743293301582287,0.24222054987315378
6.54296875,-0.08458997588824879,-0.2813417438172652
6.546875,0.6211210370385694,-0.615466337920247
6.55078125,1.495157624117619,-0.9113750411395666
6.5546875,-0.6032852424750655,0.1332942477029443
6.55859375,0.751719725250647,-0.39400942758045143
6.5625,0.24603362419783156,-1.7264685105459152
6.56640625,-0.5215803823608479,-0.5902310059740868
6.5703125,-1.4813268610049335,0.5533063657664656
6.57421875,-0.3383046045822748,0.6796121453996112
6.578125,-0.07335591488086918,-1.1109853172245843
6.58203125,0.7727839734948067,-0.9944010613882174
6.5859375,-0.8826661204315881,-1.6127191470900315
6.58984375,-0.886935669342024,1.16855477041852
6.59375,-0.8578700476794958,0.5493055025563722
6.59765625,1.3276747337499517,-1.7237111082971028
6.6015625,-0.0070072078901888615,1.4511252921630333
6.60546875,-1.3264879874877813,-1.112094994624348
6.609375,-1.8388347660416724,-0.8785699607007547
6.61328125,-0.08250566410063105,0.5541234446941288
6.6171875,0.20054645632301962,0.720921961556847
6.62109375,0.4892436637515444,-0.08378282238492392
6.625,0.0011401712861241232,-0.1815536643129389
6.62890625,-0.3671791701358915,0.23308672930288318
6.6328125,-0.6414415150153598,1.8581724114532365
6.63671875,0.7321767359995837,0.7868317516967402
6.640625,-0.9198835348937872,0.3290183591931562
6.64453125,0.6788679902596588,-1.243918322627825
6.6484375,0.5138979426099608,1.0190949280128703
6.65234375,0.21790106663575598,0.42478517050273706
6.65625,1.0981797628447576,0.2884922129644357
6.66015625,0.11895036612776312,1.8963303945138874
6.6640625,-0.15994688816268895,-0.7682624165444302
6.66796875,-1.1265792929121312,-0.573396714414477
6.671875,-1.4130834354873907,-0.035503441693176076
6.67578125,-0.30986478026544195,-0.08950244882869854
6.6796875,0.7634421461719455,-0.9992360621235531
6.68359375,-2.2333301214180485,1.7927916333017948
6.6875,0.80744026811807,0.5530399705029825
6.69140625,-1.1072325890412422,-0.9693552428673049
6.6953125,1.970701611354884,0.0378336929642863
6.69921875,-0.46355792546173874,-1.6776991503525482
6.703125,0.055196935369014585,-2.7440777530931286
6.70703125,0.34562245076555614,0.9545706738617332
6.7109375,-1.3437057908749157,-1.7516033274649183
6.71484375,-1.861894822191979,0.4434349545772194
6.71875,1.0257714116914034,1.2433407512157177
6.72265625,0.3667434131410479,0.59387863927688
6.7265625,0.8006745499600632,-2.3490358720430713
6.73046875,-0.3638119080091302,-0.33657447064414436
6.734375,1.4159587054465252,0.4528822633761689
6.73828125,-1.4852932126722174,-0.7033008027819299
6.7421875,0.9766882183118495,-0.6554690289038625
6.74609375,-1.7018175107260731,0.2376248262617157
6.75,1.1638826180255326,1.0895602950039038
6.75390625,0.8227382501919487,1.9144326911981853
6.7578125,1.1656303156948336,-0.8248828056667808
6.76171875,2.2168717543319305,-0.457101972316564
6.765625,1.658148290749649,0.19174793817879296
6.76953125,-1.564344320181501,-0.9060519648199248
6.7734375,-0.3065496893671879,0.11265294067168666
6.77734375,2.090713028949819,-1.1388406155833932
6.78125,0.25866706347466734,-0.204335713665889
6.78515625,1.2789494976571212,0.7889884492916951
6.7890625,-0.36661782263671405,-0.49439031098349456
6.79296875,-0.7157828452720404,1.1026314047704708
6.796875,0.4186721543183642,0.2265642802238871
6.80078125,0.2435866938043208,0.4124207866918362
6.8046875,-0.25205460827805504,-1.6953420380808382
6.80859375,0.604424693115286,0.3531671892655284
6.8125,-2.9361714815113533,0.20277092701635138
6.81640625,-1.1127442350422099,0.08779003325204157
6.8203125,0.8185247740921855,0.8976747764638896
6.82421875,-1.3936342727857547,1.2130125925751665
6.828125,0.04522802773053897,0.29670057714860393
6.83203125,1.5022732088072641,-0.14764257423142635
6.8359375,-0.8126269940774993,0.35181666013498863
6.83984375,-0.514051369075992,0.17021383370126555
6.84375,-1.9508773807657103,-1.3113214631321135
6.84765625,0.11407031551982855,0.0034451261668302876
6.8515625,0.44686659737438045,0.7359873607031797
6.85546875,1.2087838987365693,0.9108925398163406
6.859375,0.22221254734158116,0.07262038972891217
6.86328125,-1.2532271865328852,0.24226822019191382
6.8671875,1.3280034270809398,1.08248254741007
6.87109375,0.9848184514920563,2.1339755607241657
6.875,0.7871970653077475,-0.8177673331179448
6.87890625,-0.2942998171599385,-1.6711024394237484
6.8828125,-0.032048535967549696,0.3104307574661412
6.88671875,-1.0181172063293382,0.4522248339956324
6.890625,-0.1427132678223556,-1.2855922218313411
6.89453125,0.5262768247776782,1.342259148511642
6.8984375,-0.5845359254194981,0.2886452493783958
6.90234375,-0.8546979135054452,-0.5765035961406318
6.90625,0.4827334994658324,-0.6113662477836814
6.91015625,-2.1508111756545905,1.812736346673745
6.9140625,0.33971997224825257,0.747194674255065
6.91796875,-1.8981271565485396,0.2579530844044246
6.921875,-0.1392789493988479,-0.47046273009559
6.92578125,-0.8385453592352827,1.0222766908241347
6.9296875,-0.9125404506302887,-0.7670793599899117
6.93359375,-0.8652254180347225,-1.0343283468199327
6.9375,0.671678754430535,0.5347272083621545
6.94140625,1.0522879238501832,1.0234657015176505
6.9453125,0.19959432374757252,0.0934573426179644
6.94921875,-0.7589849113542744,1.5041677521546402
6.953125,1.1294613574397905,1.4054204034488111
6.95703125,-1.0493113103728,0.18853607853588092
6.9609375,-1.2353878272346002,-0.3366220295177674
6.96484375,0.16800447103562396,-0.058944942011466085
6.96875,-0.35550181061048153,1.1832893845885968
6.97265625,-1.558211209136808,2.0672373133920465
6.9765625,-0.11640379056458534,-0.309267109139641
6.98046875,0.45360927306410465,-1.1221301546481288
6.984375,0.5485485859838215,-0.2691820783041592
6.98828125,0.9570428145587719,0.29832412061055924
6.9921875,-0.6461166398124187,1.3930091802254498
6.99609375,-0.6080569399465323,0.01527258177603103
7.0,1.3851929666955625,0.15167057588627683
7.00390625,-0.015656057465995576,-1.0406492149004132
7.0078125,-0.6084903428185738,-0.12607514912474202
7.01171875,0.33515238535786473,-1.2723067528094467
7.015625,0.03318963615995939,-1.6676432047240037
7.01953125,1.4018853790442996,0.23714566975885323
7.0234375,-1.3774400263098638,-0.7072982914309898
7.02734375,1.2814630158325744,0.9770723063729533
7.03125,-0.5341944056552829,0.5452592461961967
7.03515625,-1.6144032606580097,-0.4847809923520084
7.0390625,0.5197881724792042,-0.670908208895885
7.04296875,0.3729256317995599,2.361624323535513
7.046875,-0.41595996633038895,-0.18007514738356037
7.05078125,0.051531624474869905,1.1483095037213167
7.0546875,-0.1645517882599973,0.030924863606917166
7.05859375,-3.3001913903421367,-0.39046462947794025
7.0625,-0.44939745186216723,-0.8980066049850441
7.06640625,-0.41699182334665735,-0.9648674462012888
7.0703125,-1.2415476489857198,-0.03095281744234352
7.07421875,0.982359806577443,-1.6739442905132533
7.078125,1.2540814549651806,-0.3056486206884821
7.08203125,-0.0424998683041172,0.163477439318945
7.0859375,0.48515745086076606,-0.14967144814308359
7.08984375,2.2724549889152508,0.6611035651769738
7.09375,1.0126158994876095,-0.7285386980874269
7.09765625,0.19326214952870904,1.26248310832021
7.1015625,0.17032616842780257,-0.22138668923990573
7.10546875,1.7817184423973413,1.1369169608402618
7.109375,-2.9359205060390052,-0.4895846481263275
7.11328125,0.3710977378287736,-0.44794902031466466
7.1171875,-0.8574683436912393,-0.28937061702719696
7.12109375,-0.5965032691163183,2.0488228993609603
7.125,-0.15102547602181335,-1.2231996775711544
7.12890625,0.10665836296712679,-1.2950575457118263
7.1328125,0.40838358385363194,0.4936194775412285
7.13671875,0.3999278886850409,0.751060772693252
7.140625,1.396758678765701,-0.7478284485031634
7.14453125,1.3905868898572458,1.2039463822083492
7.1484375,0.8098072285313459,0.8296645337309363
7.15234375,-0.06540693832937852,-0.3761551488725865
7.15625,1.3764745093796784,-1.9886343029752505
7.16015625,-0.34521644175726957,1.390952978511939
7.1640625,0.2540672674236925,-0.1487688843219533
7.16796875,-2.0396400082055304,-0.03586387407276415
7.171875,0.7257755189565263,-0.33425703331049483
7.17578125,-0.2628244265024319,1.3055576861134184
7.1796875,-2.0214209068202607,0.7209577291500757
7.18359375,-0.15313958371369438,-1.0118279821603748
7.1875,0.819558582212973,1.0585118892667085
7.19140625,0.8911110967699073,0.27146417628673275
7.1953125,0.030800375927745326,-0.4232559237109767
7.19921875,-0.9974777744615907,1.7661458236984016
7.203125,0.30230735644843254,-2.026539142832728
7.20703125,0.8921591177807454,1.4459454911809306
7.2109375,-0.5577425704657649,-0.9697195754410686
7.21484375,0.5384184666960017,0.6276327927309583
7.21875,-1.0401936583901044,-1.8027703798857238
7.22265625,0.2902704757328864,-2.235913099979259
7.2265625,1.1007917529980613,-0.4232558255999684
7.23046875,0.677855124996382,-1.1773997746454226
7.234375,-1.5427997784661498,-0.6673600507023438
7.23828125,1.3027746897883208,-1.5274756228211548
7.2421875,-2.012577612263665,0.2401990265013639
7.24609375,0.8167236253038876,0.09417814283790835
7.25,-2.0152944823760817,-1.0480121506528883
7.25390625,-0.920245196729679,-0.7125290518211044
7.2578125,0.04251709453659872,-0.5980685593552296
7.26171875,0.9690884752762985,-0.6823784898507183
7.265625,-1.1881254286048861,-0.24714099369205722
7.26953125,-1.646005164953626,0.8774989624965546
7.2734375,2.27865386873441,0.5561722080306737
7.27734375,1.384402396532775,-0.051780647514136115
7.28125,0.68928328636606,-0.7422574883354082
7.28515625,-0.1069112097903708,-0.04001389209204258
7.2890625,1.5054838107086708,1.1224006428295876
7.29296875,-0.4718195373675283,1.6632245811477475
7.296875,-0.13749026083000784,0.0001378737158652349
7.30078125,0.4610751642568717,-0.07467012096776654
7.3046875,-2.076964813347039,0.33685788939702127
7.30859375,-1.1321188158296707,0.4462224701827768
7.3125,-0.8602351163366385,0.28028489795996603
7.31640625,-0.6436928342567318,-0.1927823958378945
7.3203125,0.6988675798472684,0.39695130853168026
7.32421875,1.0485496351227472,0.3085957885539324
7.328125,0.6965355133477994,0.3878391550176513
7.33203125,2.0859107911832604,0.41739585674117813
7.3359375,-0.8736781635742601,1.6014074709174313
7.33984375,0.5123452174087069,0.7432568890023928
7.34375,0.7148673154492696,0.1962759182404394
7.34765625,0.6419524280683382,-2.580129731459673
7.3515625,-0.46795202312550604,-0.07377396243874806
7.35546875,-0.1651010874647808,1.0468910428233928
7.359375,0.9232788461424781,2.0995616512618636
7.36328125,-0.24852206932139873,-0.9262610830846038
7.3671875,1.0986313898314362,-1.3401468715762475
7.37109375,0.048172774158858046,0.7366160343708803
7.375,-0.09638313753506673,-0.7118159837099669
7.37890625,1.6652828667335025,-0.18051546186405376
7.3828125,0.1524285609958859,1.417552202684663
7.38671875,-0.5184262755192391,-0.3066078688422804
7.390625,1.5731750561616085,-1.2920636685144704
7.39453125,0.43700910966481465,1.3404538414342275
7.3984375,0.545253302639183,-0.9006512700310777
7.40234375,-1.339997680103929,1.3420977298922687
7.40625,0.08061563278632114,0.14166849837883197
7.41015625,-0.07057981351774194,-1.06458903345684
7.4140625,-0.021697163864607488,2.3052634997962453
7.41796875,-0.10032787658461147,-0.9903341557737508
7.421875,-0.23550117572133195,1.5852209501676815
7.42578125,-1.749020616923301,-0.4103165541621079
7.4296875,0.343806621598079,-0.9710129984285101
7.43359375,1.0627097084751926,0.2514418438778861
7.4375,-0.6195982614026563,-0.6471044078824982
7.44140625,0.4620397054478185,0.45483310919409103
7.4453125,1.5399196293113082,0.5515036808541238
7.44921875,-0.02287130137491393,1.3821741604692874
7.453125,0.9937390610895586,0.29570135785058205
7.45703125,0.9338752089910843,-1.6433797031638946
7.4609375,-0.5675253874969934,0.45991318996660935
7.46484375,-0.6401508409886477,0.6911715971704636
7.46875,-0.7531149928061827,1.2781234769135486
7.47265625,-0.2923380519032408,-0.8324883280596262
7.4765625,0.7438940031572951,-2.75883729431312
7.48046875,1.480555637261708,0.4903271755116976
7.484375,0.318318494026295,-1.6385499924288525
7.48828125,0.19363098453777178,1.345946068528286
7.4921875,0.5362310623934105,0.2758110113327394
7.49609375,0.11630547029975072,0.6363205048198519
7.5,-0.16070398807240602,-2.740231956062668
7.50390625,1.6902911196570294,1.7634940543306437
7.5078125,-0.1764578243125019,-0.47988833260854713
7.51171875,0.9852516142998772,-0.8996027658970733
7.515625,0.2701012058011162,0.20394006688161556
7.51953125,-1.1495813953185352,-0.0054184907550252175
7.5234375,-0.03317319454597423,0.4615114522020822
7.52734375,-0.35718956764808824,1.8919753019714454
7.53125,-0.9380901696281447,-1.1737173564453842
7.53515625,1.1846814759161204,0.24655772947282636
7.5390625,0.2368195386550468,0.2487202875489149
7.54296875,1.7262602963519302,-0.5142416192304298
7.546875,-0.9320684722870646,0.46290811882541927
7.55078125,-0.030559583352987696,-0.9461005612974528
7.5546875,-0.9501430117539198,0.5531505415881287
7.55859375,-0.5384631788550331,0.057048109722556424
7.5625,-0.32652114002401633,1.3727507354076043
7.56640625,-0.7756492906687011,1.394311683132907
7.5703125,-0.19919256259445167,0.07469373842655375
7.57421875,-0.586584429762827,1.5401351473912666
7.578125,1.0934556013623244,0.24287866991111018
7.58203125,-1.7614034954969733,0.0671701584248776
7.5859375,0.4350362064497682,-1.2415061297223302
7.58984375,-0.4862636695609904,0.203778738983378
7.59375,0.40391909053933517,-0.24409832332357584
7.59765625,-0.152266716230213,1.6152368016629914
7.6015625,-0.017592635952365373,-0.39735433742703286
7.60546875,-1.2275603719356691,1.4250969764127537
7.609375,0.4450429343284855,-0.19827884352639455
7.61328125,-0.43485550792669875,-0.009151117114647158
7.6171875,1.4721175390581633,-1.1316435322855851
7.62109375,-0.8278559119562321,0.5425181007266957
7.625,-1.1055222145809924,-2.082707659042652
7.62890625,1.2660631671249898,0.10859352674035137
7.6328125,0.6743441778268894,-0.34342475427673624
7.63671875,-0.07097266260694482,0.8011899246888489
7.640625,-0.6338879512672725,1.823128408904178
7.64453125,0.04039710655375993,1.7896078288789585
7.6484375,-2.3930996166067096,0.9792603327223438
7.65234375,-0.4015070886329206,0.08307467989355885
7.65625,0.49961996659957136,-1.215635195957982
7.66015625,-0.10370837950805295,1.1357825529319496
7.6640625,-0.2983990471604659,-1.133385746593084
7.66796875,-2.0678052449094912,-0.9213376506828714
7.671875,-0.14811551698787467,0.8401418758105165
7.67578125,0.6797737868970107,-0.8197089718272219
7.6796875,0.6067452066190031,-0.9896870343850233
7.68359375,1.8893525878296218,-2.005234841261371
7.6875,-1.116712587409686,0.5189009348872206
7.69140625,0.27227076595154237,1.0868113568568423
7.6953125,0.706636312161299,1.7133346124870517
7.69921875,-0.6865123703067573,-0.3844177885960684
7.703125,0.23533022915313703,-1.0983447080404265
7.70703125,-0.3301312111659077,-0.6248155001800444
7.7109375,0.9172119698462158,1.2707197625632127
7.71484375,0.30068763745623595,0.9004410052079536
7.71875,1.0942636239606576,0.11078718953448742
7.72265625,-0.8693642142721093,-0.3683250179050913
7.7265625,-0.8020774989864711,-0.33880242597874316
7.73046875,0.5481760188235224,0.06332060775869405
7.734375,0.4809721171735685,0.15804526008838768
7.73828125,-0.6148802671216873,-0.10655536794416465
7.7421875,-0.2489679701695927,0.34260071155825095
7.74609375,-0.9200651030431027,0.4249179094949792
7.75,-1.199796815548348,-1.6395930838169888
7.75390625,-1.2818360581262167,1.1565590947620301
7.7578125,-1.805378007955135,-0.016206747337857492
7.76171875,1.2815441640769087,-0.05956840014186619
7.765625,0.7549572562566012,-0.6240078174432724
7.76953125,1.5292279697454891,0.23713252968253007
7.7734375,-0.07202452205053357,-0.38200050268419544
7.77734375,0.3816992086893367,-0.023712442781278667
7.78125,0.5657734631620854,-0.38892656283975674
7.78515625,-0.4831336380778157,0.22456163713802813
7.7890625,1.5075486763731045,-1.8205913246580132
7.79296875,-0.8377480627978248,-0.35385791485021095
7.796875,-0.2528541882221207,0.1639964160403267
7.80078125,-0.24389637878803827,0.7267955440851362
7.8046875,-0.4387004762724155,0.18383013892463457
7.80859375,-0.2414754116866191,0.8210807849587075
7.8125,2.164541794774654,0.5983727972276589
7.81640625,0.4268363839988703,0.06518331332792451
7.8203125,0.07083405972338551,-0.6891610700468023
7.82421875,1.0447600331626166,0.5888753223758738
7.828125,-0.7589940927928447,-1.2425498274081603
7.83203125,0.77718703317487,-0.14774494660155352
7.8359375,0.023708353331585236,-0.33826004016987443
7.83984375,0.7921720621359822,-1.405511502465143
7.84375,0.7573305366839456,0.171698331515013
7.84765625,0.7648627523059656,0.21020753050578317
7.8515625,1.2092353586552371,-0.2535865517168168
7.85546875,-1.5631261961821235,-0.015080544070263562
7.859375,-1.300099418715746,-0.3781699274268472
7.86328125,-1.0866881558932486,2.191054429875757
7.8671875,-0.1369595813905754,0.5226008317481962
7.87109375,-0.7571662566141633,0.447243139389146
7.875,2.6945307939743004,-0.2705206151110326
7.87890625,-0.40737424425524865,-0.12971647006442485
7.8828125,-0.05385850218358346,0.3906547275811271
7.88671875,-0.4681060716761469,-0.16063138010628933
7.890625,-1.8524725234909538,-1.572250139551862
7.89453125,0.044289175972697076,0.18180988065351017
7.8984375,1.0622221445723068,-1.0705417854799664
7.90234375,0.04911567066959219,-0.7675913518100489
7.90625,0.4487498112894383,-0.8050458110945157
7.91015625,-0.0029904689155023784,1.9348836434426329
7.9140625,0.6774695114143987,-1.1149528524163417
7.91796875,0.8501377762435565,-0.21528354821378404
7.921875,0.2358524584259836,-1.0311421458223677
7.92578125,0.3037799569997034,0.4391472932766772
7.9296875,-0.6912404632124892,0.18005247872975097
7.93359375,-0.5552847138200586,-2.1552623165828275
7.9375,-0.4550875298407102,-1.9690037997416634
7.94140625,1.0401366538016656,0.5955561428119837
7.9453125,0.25409524274651346,-3.136162621140141
7.94921875,0.44978966701261497,0.6065744027194121
7.953125,-1.4244517778069266,-0.9374195941132148
7.95703125,-1.3768064230342743,-0.6345489589428406
7.9609375,0.5288062964088386,0.0782025835388262
7.96484375,0.9637248663312062,-0.9528025349373408
7.96875,-0.4190589537066956,0.698408155675811
7.97265625,1.2326654167939604,0.8001083173158481
7.9765625,1.7061819250524828,0.22780958606113272
7.98046875,-0.9829555277295163,-0.08420928396337464
7.984375,1.2861072169059153,-0.9499298581316981
7.98828125,0.8770571911369103,-0.021124589133596192
7.9921875,-0.762591715658821,0.16593647768162392
7.99609375,0.8799285583371518,-0.09050287983678257
8.0,-0.7421898169552517,-2.1759861868707815
8.00390625,0.06367818528284976,1.341888503271649
8.0078125,1.032842107446243,0.9879481438185435
8.01171875,-1.7602237115025918,-0.5092123426535546
8.015625,0.9339031818369735,0.2650359847590459
8.01953125,-1.304146713095748,0.15320352475446503
8.0234375,2.1080606034134157,-0.9914048040062404
8.02734375,0.07816687581583283,0.4335055138371966
8.03125,-0.8742677847455774,0.41710797758961343
8.03515625,0.476535633258099,-0.17574209827443824
8.0390625,1.1301244352492212,0.2530950298823678
8.04296875,-0.6310523233335145,0.27046891147667723
8.046875,-0.2713241792177093,-0.12426646851738142
8.05078125,-1.5360297702230388,-0.8060094601633362
8.0546875,-0.6562742942228154,0.7691901478026358
8.05859375,-1.282046308659951,1.285673114335777
8.0625,0.964472492580671,0.28674322380198286
8.06640625,-0.15922533081643694,0.8392772507475564
8.0703125,1.9590636692328576,0.2458306379613255
8.07421875,-0.31485420872149716,0.26044963382803776
8.078125,1.4044101697423972,-0.374076185396438
8.08203125,-0.5454947717112061,0.9694519980801823
8.0859375,-0.4964934233302697,-0.23709451722792804
8.08984375,-0.45027647904664886,0.5226476283171582
8.09375,-0.02929785418426246,-0.36464247754475854
8.09765625,-1.1253401249682682,-0.33180003567013033
8.1015625,-0.3168152285575854,-1.5095562418926276
8.10546875,-2.449891501305125,-0.35821217738900973
8.109375,1.3276187213591044,0.6469211857659632
8.11328125,1.1610060953899353,0.526815322355585
8.1171875,-0.1136581146492558,-0.358935862430305
8.12109375,0.5093901994824365,0.21260690201817775
8.125,0.3019505441693786,1.5219030603786154
8.12890625,-1.0767248253637254,1.1734514453328153
8.1328125,2.2825659320084624,-1.2906941214427305
8.13671875,0.06637332524661893,0.4592696762366881
8.140625,0.4434259479892565,0.6577983128088063
8.14453125,0.7444818050077853,-0.8611257380595566
8.1484375,-0.9356036354971653,1.4402940723131161
8.15234375,2.2506318064258104,-0.6462243150505719
8.15625,-0.9528632791653651,0.7096859560517665
8.16015625,-0.4037796079293823,0.6113348407624297
8.1640625,-1.2161363456446932,-0.8413932151012977
8.16796875,-0.1123225110617058,0.7545332486688756
8.171875,-0.5576883111532063,0.9894068801900365
8.17578125,1.7654956969576834,-1.376733751297816
8.1796875,-0.34513649346919106,-0.8553415866411345
8.18359375,-0.3741048947410927,-0.7734058465832507
8.1875,-0.3240945436319463,-1.6262995079986204
8.19140625,-0.4709411781839558,0.6691516686174499
8.1953125,0.1264622769015201,1.7385267985728714
8.19921875,-0.9775362671747267,-0.9394529353241323
8.203125,0.01622676578572629,1.2524216048715486
8.20703125,-0.35290830345829377,-0.45786965091003323
8.2109375,-1.0202794055171203,1.9645840623152286
8.21484375,-0.047275727396114166,-1.0610167050038712
8.21875,0.4667874188898779,0.460804159639962
8.22265625,0.1287193460535875,0.6363526301090605
8.2265625,-1.5185850771573974,-1.5385509573377663
8.23046875,-0.4206178712762072,0.24862522927189562
8.234375,0.9354441042552759,0.08470224451280794
8.23828125,1.3448031964873917,0.6290641146810029
8.2421875,-1.8577976218270194,-0.4825494574549075
8.24609375,-0.822856554693792,-1.7098808548922437
8.25,-0.7079780797032369,0.9433659300780068
8.25390625,0.355148402576596,-1.7970805195133877
8.2578125,1.3920206916752793,-0.42879188954310044
8.26171875,2.1603689633254635,0.9789190480509806
8.265625,0.9820472542763686,0.15818097802170303
8.26953125,-0.5005529674073083,-0.33483464253288947
8.2734375,1.3791350440084265,-0.539374741844146
8.27734375,-0.24160578504728278,-0.1846229975469402
8.28125,0.09906622543813604,0.026596327766529513
8.28515625,-0.2678401823072817,0.028233426372871448
8.2890625,-0.3920007286912724,-0.47087826157047064
8.29296875,1.1537285200970522,-0.5983952155589416
8.296875,-0.4021612703344062,-0.934486223109237
8.30078125,0.1183742388432568,-1.8829698816277378
8.3046875,-0.157915743337743,1.0644620269777818
8.30859375,-0.7876921927923325,-1.6935746480408886
8.3125,1.7460363911039887,0.04604447395645365
8.31640625,-1.509871968084276,-0.7250318570639712
8.3203125,0.30262644452132753,0.6889488326478626
8.32421875,-2.1860630477941756,0.42118667498056955
8.328125,0.14776588948626926,0.059235321720417386
8.33203125,-0.2173615647976709,-2.05779031446888
8.3359375,0.8913624514433134,-0.2971495923394887
8.33984375,0.6280281439122747,0.4984639846081568
8.34375,-0.9785668238302563,-1.018139562442932
8.34765625,0.6599289667485253,0.35829329751378264
8.3515625,-0.5363857680676428,-1.3672603820387932
8.35546875,0.616946256242874,-0.2697846409038773
8.359375,-2.252560960550523,0.8325341126071397
8.36328125,-0.12769178906120296,-0.43386394235436665
8.3671875,-0.24063685685253638,-0.6887794111379206
8.37109375,0.5316425864318438,-0.9320420687585949
8.375,-0.17189408178024693,1.238997849698898
8.37890625,0.6989210051734052,-0.8893982266844392
8.3828125,-0.4803820790770362,-2.2866962179203605
8.38671875,-1.0731540210235793,0.15886660892761453
8.390625,-0.08216143782965188,-1.6424576555154846
8.39453125,-1.6295875620776477,0.5071831546598914
8.3984375,1.2865585551944885,0.13223300127217588
8.40234375,1.5565399894663272,-0.3262241197517454
8.40625,1.5972069841878733,-0.10303733542542351
8.41015625,-1.8635144599266014,-0.24371390087863434
8.4140625,0.03438503553798547,-0.5428969719743272
8.41796875,-1.2987573944455157,0.3435030843237518
8.421875,0.08059116276898087,-0.8685863377820306
8.42578125,-0.1548922361559323,-1.0522836547333478
8.4296875,0.4655457778287428,1.299460372697252
8.43359375,-0.7935516253950297,0.35086974945425725
8.4375,1.957449358504675,1.7034936842672759
8.44140625,-0.037504541531438014,0.2966356387160507
8.4453125,-1.1007411091940928,-0.4863036863025147
8.44921875,-0.6407479402013521,-0.6434237962389319
8.453125,-0.3343612686298206,-0.17563623079859814
8.45703125,1.1705709804335798,-1.0256029622526184
8.4609375,-0.4140488145988094,1.6755045718554133
8.46484375,0.12845814212181716,1.2344174225878475
8.46875,0.5129122114149013,0.5316123880739062
8.47265625,-1.1445465495960436,-0.7954799951423147
8.4765625,1.3398987717215711,-1.4310302847546599
8.48046875,0.28118076260643593,-0.06575623279491467
8.484375,-1.176882109119759,-0.21491559005992614
8.48828125,0.2942235762932626,-1.6056931597613218
8.4921875,-0.29701041383854787,-0.805171783908436
8.49609375,0.9771510802721259,-0.47191489507589074
8.5,-0.5350279537720938,0.7724230458983008
8.50390625,-0.10606286740878815,-1.1825729150732336
8.5078125,-1.2863552464677879,0.2802410716771358
8.51171875,0.6012044575880826,0.05328115251332357
8.515625,-0.01172244770490613,-0.17608974283089426
8.51953125,-0.6099552308611585,-0.6289012120457965
8.5234375,0.13144805214618982,-0.012292760690794288
8.52734375,1.158642672875039,0.10724300403269829
8.53125,0.7144889066374466,-0.14474302696689367
8.53515625,0.9634733116596303,-0.011262059244192619
8.5390625,0.9889568968514193,-1.6262588836774081
8.54296875,-0.4284665456757556,-0.1531659745158807
8.546875,-1.9571756789978079,0.14501454537209374
8.55078125,1.3062143440405851,2.106853436945146
8.5546875,-1.0479996933012632,-0.5542682014136451
8.55859375,-0.830928274479129,-1.0509062594376886
8.5625,-2.3634365415184075,0.21506733643727122
8.56640625,-0.8145011666621389,0.39272112484917904
8.5703125,0.8887612444189728,0.8662689924297007
8.57421875,0.15055347517086734,1.8331353712138605
8.578125,1.0022014568944493,0.142604090371343
8.58203125,-0.9580035926891303,0.9082396869245852
8.5859375,0.2636664691120685,-0.6594831402433449
8.58984375,-1.4007823084319921,-0.7441982949477449
8.59375,0.6993398833565174,-2.0558262941903993
8.59765625,-0.409199139339658,-0.7300046587476928
8.6015625,-0.15332705553644901,0.6876050690003654
8.60546875,-0.4931868519219206,-0.7761923008399706
8.609375,-2.00674140377561,0.8033219218721235
8.61328125,-0.44750437094846224,2.1751979534268644
8.6171875,-1.246292967321344,-2.0233916976235107
8.62109375,0.010572436964580392,0.9004229455812637
8.625,0.5377528571214298,0.818849837600286
8.62890625,2.297017979364415,0.05353602077646568
8.6328125,-0.18218917575271662,1.2243140598287237
8.63671875,0.4471435625774868,1.1234149083712905
8.640625,0.3664460787742822,-0.39281170225346357
8.64453125,-0.5107453479643632,-0.9191435019121577
8.6484375,-0.4126664003976414,1.4861969632597094
8.65234375,0.9225252416950726,0.8898892176516863
8.65625,0.7822588238910183,0.6612433134203904
8.66015625,1.221419475291052,0.5899976668449993
8.6640625,1.003599429166628,2.3588800819469316
8.66796875,-0.8327492934537395,-0.20966105478106678
8.671875,-1.3220213776355936,0.23310316116781116
8.67578125,-0.36545958344852836,-0.3864292958070956
8.6796875,1.3415865242567009,0.3902173722851793
8.68359375,0.19270910718986153,-1.56198686342567
8.6875,0.9726461351831138,-0.46600625135477936
8.69140625,-1.3884451497900525,-0.138474834437733
8.6953125,2.3323531121038554,0.1268431114167363
8.69921875,-0.16257704119549574,-1.5305503282285977
8.703125,-0.28535141393570274,-0.015484622418061629
8.70703125,-1.857443669843008,-0.5935006344513091
8.7109375,-0.5326243329368539,-0.933110407534742
8.71484375,1.3430724969129386,-0.4693451586702329
8.71875,-0.7710610805627629,-0.25143768308388753
8.72265625,-0.1742398529337101,-0.22902900660929817
8.7265625,-0.30999833584041636,-0.5851105709885935
8.73046875,1.3064157013483884,1.752939113442018
8.734375,0.7665363881608049,-0.5817990599193239
8.73828125,1.0999240787973894,0.8001118600725046
8.7421875,1.859619196013851,1.4362655892108218
8.74609375,-1.2931970115651334,-0.8648984427003524
8.75,-0.6225210237087075,0.5080116971895062
8.75390625,0.3321345660988628,1.6900085737907742
8.7578125,0.16260739535844937,-0.9273680657902315
8.76171875,-1.3929307803574342,0.46168992403652653
8.765625,0.7554184600571144,-1.1109941072469076
8.76953125,1.0913863537259532,-0.7833760929096231
8.7734375,1.3135479386081836,-0.7198500951730831
8.77734375,-0.8555435259438716,-1.2346447594662364
8.78125,0.24854546939734912,0.6827924996538856
8.78515625,-0.5281597871941544,-1.5599403355600414
8.7890625,-0.7410923553020421,0.846076883682312
8.79296875,0.20291234818740933,0.7416928612002663
8.796875,-1.1227230712413536,-1.505408138994013
8.80078125,-1.9051803373751928,-1.57510316334677
8.8046875,-0.08352501616617325,-1.4997617239020176
8.80859375,-0.9078340180482795,-0.43756706462186684
8.8125,1.4629067681124694,-0.11648626863714821
8.81640625,0.5711889605534485,-1.1614647577869972
8.8203125,0.8038580410167597,1.257586351856686
8.82421875,-0.729821668863927,0.21613707620289246
8.828125,-0.23174262008923477,0.6117029157894651
8.83203125,0.24890548728701062,1.581332277488911
8.8359375,-0.8368346173827614,0.17454114807216747
8.83984375,-1.0049044450645843,-1.7954325821693882
8.84375,-0.565274641656297,1.6581523202727286
8.84765625,-0.6919233061827513,0.8500520280843431
8.8515625,-0.3570752178167195,-0.25831680103689625
8.85546875,1.3625106880866764,0.4261822357892316
8.859375,-0.6925951028413776,0.36641145231869365
8.86328125,0.58294602997911,0.7333687105774017
8.8671875,0.33906325399423864,0.4411709298882777
8.87109375,-1.0193308446906477,-0.13512982895748196
8.875,-0.7225728925247591,0.20420158592514454
8.87890625,-0.27890096846865753,-0.6523218804518004
8.8828125,-0.6406053036625718,1.1304357266098934
8.88671875,-1.5729453955489572,0.74194991865862
8.890625,-0.4936061509132166,-0.9895434232668469
8.89453125,0.6010015425283279,1.1906402134890173
8.8984375,1.1611964397418122,-2.564701237434145
8.90234375,0.9539989954668728,0.25062105577188865
8.90625,0.7143842871685757,-0.7433703238029553
8.91015625,-0.8213753442609103,-0.9423511995881093
8.9140625,1.7508303596157868,-0.7971760383975927
8.91796875,-1.0565565877413339,-0.14803937070463852
8.921875,0.9721455031249375,-0.4458257332021327
8.92578125,1.2492409912633073,0.991326536043175
8.9296875,-1.1190696486916196,-2.1099260223817806
8.93359375,0.3596258186678466,-1.8470502009987224
8.9375,0.384801618931739,1.1569695062149208
8.94140625,0.19857578920091326,1.8304708181237064
8.9453125,-0.08885513610366141,-0.4287739681597594
8.94921875,-0.21292382483506403,0.17371748258643563
8.953125,-0.05177248848808391,-0.5105549319471995
8.95703125,0.10626191470202231,-0.598363973979604
8.9609375,0.45845394054472643,0.14331194050869275
8.96484375,-1.0142805052951875,0.8505997607981935
8.96875,0.41758740103983744,-0.6808730655974832
8.97265625,0.9809362023577911,-2.0027408297244826
8.9765625,0.12884543910652752,-0.6842031821981291
8.98046875,-0.19885089287796123,-0.03084630484923446
8.984375,1.8404133151203057,0.19454258600950197
8.98828125,0.9427453952744675,-0.23293041108889528
8.9921875,2.114153805699697,1.2055550316458683
8.99609375,-0.19827048971244798,-1.5676967766150636
9.0,-0.9192807051624815,-1.2807893020884196
9.00390625,0.9184911372476563,1.0118636683275795
9.0078125,0.5829050466333048,0.10664972292327969
9.01171875,-0.07362518723874446,0.6068034134392855
9.015625,-0.08601804911041452,-0.43319473368552835
9.01953125,-0.40059423352511503,-0.8206958980720597
9.0234375,-0.31106273335698287,0.40943199274586795
9.02734375,-1.8165650125980906,-0.8105159186063534
9.03125,-0.38706448674542365,1.753566350417821
9.03515625,0.21133879138725128,-1.9707206038889913
9.0390625,-0.05548104169842852,-0.9109361902941062
9.04296875,-2.1995730495035137,-2.0639276973164806
9.046875,-0.4707494784855222,-1.4604746474825556
9.05078125,2.363582922783389,-0.31219552727010763
9.0546875,0.3198141156056956,0.8468258208000481
9.05859375,1.0740970604379516,0.16470349678532317
9.0625,1.0306852983369568,-0.44680145796263304
9.06640625,-1.1386621294435626,-1.3888563100075657
9.0703125,-1.4383794231095883,-1.005742617597483
9.07421875,-0.022000848031416127,1.123183734973531
9.078125,-0.0004278978016332882,0.5509752696477682
9.08203125,-0.8607375622776423,0.20204628584148548
9.0859375,-0.3264129079577454,1.2685570042493863
9.08984375,-0.532196081320435,-0.7424057828958475
9.09375,-0.6136175981852122,-0.9266965440515318
9.09765625,-0.35613861721581974,-0.7773895197516254
9.1015625,2.135210023790566,0.5848151131031308
9.10546875,0.45247715256783844,-1.0660803073773495
9.109375,-0.9890122063728118,1.2552664370379314
9.11328125,-0.2651869253710631,1.058134323715805
9.1171875,-1.1565159555081288,-1.0350088432184008
9.12109375,-0.05034657595889643,-0.23362837483268972
9.125,1.3507790170612948,0.005022424227086943
9.12890625,-1.4421461257802495,-0.30311420541234796
9.1328125,-0.4345946916929237,-1.121625911544718
9.13671875,1.817217973846848,-0.18236134378625207
9.140625,0.12457002120999233,-0.4284600264568361
9.14453125,-0.6951315924731339,1.440356133435736
9.1484375,2.055297033328697,1.0608892768528633
9.15234375,-0.36109328091311,-0.3960275726624024
9.15625,-1.940318858779562,0.740433215353071
9.16015625,-1.2612354546264017,-0.11489419552240829
9.1640625,0.47403812071563417,0.5130065855651735
9.16796875,0.2978464163398378,2.0200789121043803
9.171875,0.34455532521635074,-0.6777229270430774
9.17578125,1.3867600177475146,0.61412139397106
9.1796875,-1.980089790149325,0.3545213277759593
9.18359375,-0.19644775802560444,-1.0744499709290132
9.1875,1.0411992526885352,-1.6277967575525454
9.19140625,0.838185360384624,-1.074851481040075
9.1953125,-1.2490757955939569,1.8928541338270153
9.19921875,0.980728877184811,0.4788304790471127
9.203125,1.667278686298588,0.6723482280189443
9.20703125,0.4390333733749708,-0.45819466218362065
9.2109375,-0.5098132794121025,-2.028706593544672
9.21484375,0.3918472598532668,0.030169524794994743
9.21875,0.09949478450188504,-0.9383321832794651
9.22265625,-0.8491747901599607,1.199484365951575
9.2265625,0.3469616728258971,1.4059967779591305
9.23046875,-1.186544387256251,-1.0888271271494294
9.234375,-1.8493798170058222,0.0380754565541125
9.23828125,-0.016394648948692355,-1.64387734921897
9.2421875,0.7522301345911208,-1.1665492542702791
9.24609375,0.32742381772566337,1.230129715943728
9.25,1.2403460921146288,0.8226568709988157
9.25390625,1.064741788838411,1.577020133413667
9.2578125,0.02039437786108781,-0.23578302704171938
9.26171875,1.176475756683731,0.26217893689994565
9.265625,-1.3235348792124544,1.9937692187858929
9.26953125,-1.1158657255934252,0.9651152337524733
9.2734375,0.5727829658450984,0.1931250480879761
9.27734375,-0.07031696392880231,0.09345374738732723
9.28125,-1.230802239686096,1.0479698302242277
9.28515625,-1.4122705497317767,0.6712339820884119
9.2890625,-0.6725114627732859,-2.55401033671088
9.29296875,0.8411972852516482,-0.11224572341676328
9.296875,0.8752199883630278,0.11699381386726086
9.30078125,-0.7285986352412366,-1.152888575920361
9.3046875,-0.3139827136098153,-1.1219952100572208
9.30859375,1.2992978123585752,0.009767854812023217
9.3125,0.7224300147829938,-0.40273801261346337
9.31640625,0.32562936198633136,-0.36513400677637464
9.3203125,0.11284390568463477,1.538716799352493
9.32421875,0.8144559164066937,0.31384456829689045
9.328125,-0.9376394658652182,-1.5635215022755373
9.33203125,-0.41083253173684864,0.8972686052034912
9.3359375,-0.2457808060006137,-0.492940813790421
9.33984375,-0.28472776343109574,-1.7065588719475233
9.34375,0.6587152103325528,-1.2649995897736528
9.34765625,-0.39410102189574636,0.12067303178400343
9.3515625,0.4091004390295,-0.3609098419261152
9.35546875,-0.31777673786418487,-1.3362224395945255
9.359375,-0.9425760813441985,0.6322024861876899
9.36328125,0.6016022666147237,0.39662464714829126
9.3671875,0.5033393563004592,-1.7506913235949522
9.37109375,-0.9319497590599216,-1.163671476166373
9.375,0.16744570608902323,0.10775267789971257
9.37890625,0.2836130752138679,0.8865159196251006
9.3828125,-0.30427055822425225,0.4882278391402303
9.38671875,0.30736795664347427,-1.2384051427850031
9.390625,-0.956698742601525,0.08384398803407214
9.39453125,-0.2650200833841546,1.3817670340250365
9.3984375,-0.380036000828504,0.9035940702678926
9.40234375,-0.17388740096783695,0.2997949741662704
9.40625,1.7224748507463365,-0.7778473125388023
9.41015625,-0.2516494918142724,0.4175718979101164
9.4140625,0.37024141712047814,0.8171650042639894
9.41796875,-2.3226777683754243,-0.1951257408466865
9.421875,-0.49004787945127354,-0.18463786531288265
9.42578125,-0.856072273328043,0.25187666478154574
9.4296875,-0.46694147385854157,-1.2858642305691876
9.43359375,-0.8182932187063711,1.310804065080581
9.4375,-0.3290888851464407,-1.5204095025832856
9.44140625,-0.37673777761381094,-0.12265232688942365
9.4453125,0.7124215079140871,0.7859332093936967
9.44921875,1.4287512209099282,-0.6008799700387306
9.453125,0.7692135189082614,-0.1720423949404831
9.45703125,-2.434635157201864,0.6161385831871007
9.4609375,-0.6713259056569952,-1.6808287285819998
9.46484375,1.8958152488372084,-0.4471982320964958
9.46875,-0.48085946746783664,-2.3431311998299638
9.47265625,-1.286012719554396,-0.9218372420898814
9.4765625,0.19979568695476532,0.17700033662458126
9.48046875,-1.097494669075031,0.11718820962487125
9.484375,-1.6580170163184502,-1.4926413166091188
9.48828125,-0.3317085472645875,-1.0977004536368582
9.4921875,-0.6843811576585512,-0.24709221415352114
9.49609375,0.05776154451570183,0.7854503510655847
9.5,-0.8872732990836655,0.6385438066457658
